Data from DW_1 (I=1 T=5x3 V=3ml)_RamanShift_10.txt Node
Date: Mon Jun 05 13:13:59 IDT 2017
User: aro
Spectrometer: QEPB0276
Trigger mode: 0
Integration Time (sec): 5.000000E0
Scans to average: 1
Electric dark correction enabled: true
Nonlinearity correction enabled: false
Boxcar width: 0
XAxis mode: Raman Shifts
Number of Pixels in Spectrum: 1044
>>>>>Begin Spectral Data<<<<<
160.701	-24.88
166.742	6.79
172.777	85.79
178.805	360.12
184.826	1009.46
190.841	2121.46
196.849	3395.79
202.85	4233.79
208.845	4426.12
214.833	4270.12
220.815	4106.79
226.789	3927.79
232.758	3820.12
238.719	3657.46
244.674	3482.46
250.623	3348.12
256.565	3189.46
262.5	3011.12
268.429	2830.79
274.351	2712.79
280.267	2591.79
286.176	2471.46
292.079	2377.46
297.975	2305.79
303.865	2227.46
309.748	2164.12
315.625	2117.79
321.495	2061.79
327.359	2027.12
333.217	2019.79
339.068	2001.12
344.912	1984.46
350.751	1987.79
356.583	1956.79
362.408	1975.79
368.227	1969.12
374.04	1978.79
379.847	1989.46
385.647	2031.46
391.44	2009.79
397.228	1999.12
403.009	2006.79
408.784	2038.79
414.553	2114.79
420.315	2172.46
426.071	2198.79
431.821	2105.46
437.565	2049.79
443.302	2009.79
449.033	1988.12
454.758	1973.46
460.477	1954.79
466.189	1932.12
471.896	1910.12
477.596	1911.79
483.29	1900.46
488.978	1872.79
494.66	1846.79
500.335	1827.79
506.005	1784.46
511.668	1740.46
517.325	1691.12
522.977	1676.79
528.622	1650.46
534.261	1629.79
539.894	1591.12
545.521	1572.12
551.141	1559.12
556.756	1556.12
562.365	1520.79
567.968	1508.79
573.565	1488.12
579.155	1481.46
584.74	1461.79
590.319	1452.79
595.892	1434.46
601.459	1423.46
607.02	1415.79
612.575	1398.79
618.124	1368.79
623.667	1343.12
629.204	1341.12
634.735	1330.79
640.261	1337.46
645.781	1334.79
651.294	1340.12
656.802	1310.12
662.304	1282.12
667.8	1259.12
673.29	1243.46
678.775	1246.12
684.254	1221.12
689.726	1205.12
695.193	1209.46
700.655	1194.46
706.11	1171.79
711.56	1153.46
717.004	1141.79
722.442	1111.79
727.874	1121.46
733.301	1119.12
738.722	1095.79
744.137	1095.12
749.547	1092.46
754.951	1085.46
760.349	1080.79
765.741	1075.79
771.128	1053.79
776.509	1046.46
781.885	1069.46
787.254	1030.79
792.618	1042.12
797.977	1003.79
803.33	990.46
808.677	975.46
814.019	963.79
819.355	941.46
824.686	940.12
830.011	930.12
835.33	915.79
840.644	902.79
845.952	892.79
851.255	886.79
856.552	878.79
861.844	854.79
867.13	829.12
872.41	844.12
877.686	841.79
882.955	839.12
888.219	811.79
893.478	785.12
898.731	745.79
903.979	724.12
909.221	712.46
914.458	705.79
919.69	685.46
924.916	677.79
930.136	669.12
935.351	674.12
940.561	667.46
945.766	654.46
950.965	640.79
956.158	628.46
961.347	623.12
966.529	602.46
971.707	605.79
976.879	579.46
982.046	569.79
987.208	562.46
992.364	553.12
997.515	568.46
1002.66	572.79
1007.801	570.12
1012.936	575.79
1018.066	587.46
1023.19	581.79
1028.309	582.79
1033.423	578.79
1038.532	576.79
1043.636	558.12
1048.734	564.12
1053.827	557.12
1058.915	545.12
1063.998	543.79
1069.075	529.46
1074.147	539.79
1079.214	539.79
1084.276	547.12
1089.333	544.46
1094.385	561.12
1099.431	537.12
1104.472	543.12
1109.509	526.79
1114.54	517.12
1119.565	512.79
1124.586	505.46
1129.602	493.12
1134.613	489.46
1139.618	492.12
1144.619	484.12
1149.614	485.46
1154.604	480.12
1159.589	483.79
1164.57	488.79
1169.545	488.79
1174.515	489.46
1179.48	487.46
1184.44	471.46
1189.395	480.12
1194.345	467.79
1199.29	460.79
1204.23	461.46
1209.165	465.79
1214.095	482.46
1219.021	474.79
1223.941	478.46
1228.856	476.79
1233.766	480.12
1238.672	473.79
1243.572	483.79
1248.467	468.79
1253.358	468.46
1258.244	454.46
1263.124	443.46
1268	430.12
1272.871	439.12
1277.737	430.79
1282.599	425.46
1287.455	417.46
1292.306	429.46
1297.153	428.46
1301.995	428.46
1306.832	419.12
1311.664	426.46
1316.491	420.46
1321.314	422.46
1326.132	410.12
1330.945	404.46
1335.753	388.12
1340.556	382.46
1345.354	377.46
1350.148	366.79
1354.937	371.12
1359.722	370.46
1364.501	370.46
1369.276	376.46
1374.046	368.46
1378.811	370.46
1383.572	374.79
1388.327	371.46
1393.079	364.12
1397.825	364.46
1402.567	355.12
1407.304	346.79
1412.036	346.79
1416.764	340.79
1421.487	332.79
1426.205	337.12
1430.919	340.79
1435.628	349.46
1440.333	349.79
1445.032	346.12
1449.727	349.46
1454.418	360.46
1459.104	368.79
1463.785	361.12
1468.462	359.46
1473.134	349.79
1477.802	340.46
1482.465	338.12
1487.123	337.79
1491.777	338.79
1496.426	347.46
1501.071	359.12
1505.711	356.12
1510.347	367.46
1514.978	381.12
1519.604	379.79
1524.226	396.12
1528.844	389.46
1533.457	389.79
1538.065	395.46
1542.669	395.46
1547.269	403.79
1551.864	398.79
1556.454	401.12
1561.041	413.12
1565.622	428.79
1570.199	436.79
1574.772	464.46
1579.34	473.79
1583.904	484.12
1588.464	503.12
1593.019	533.79
1597.569	539.79
1602.115	549.12
1606.657	574.46
1611.195	595.12
1615.728	608.12
1620.256	641.46
1624.78	646.46
1629.3	675.79
1633.816	684.12
1638.327	707.79
1642.834	722.46
1647.336	710.79
1651.834	732.46
1656.328	709.79
1660.817	701.12
1665.302	676.79
1669.783	655.46
1674.259	623.79
1678.732	589.12
1683.199	554.12
1687.663	508.46
1692.122	484.12
1696.577	439.46
1701.028	418.12
1705.474	391.12
1709.917	367.79
1714.355	355.12
1718.788	316.46
1723.218	303.79
1727.643	274.79
1732.064	264.79
1736.481	246.46
1740.893	225.12
1745.301	213.46
1749.705	192.46
1754.105	173.46
1758.501	163.12
1762.893	148.46
1767.28	142.12
1771.663	139.12
1776.042	128.46
1780.417	130.79
1784.787	126.12
1789.154	126.12
1793.516	127.79
1797.874	119.46
1802.228	118.46
1806.578	109.79
1810.924	111.12
1815.266	103.46
1819.603	92.46
1823.937	93.79
1828.266	84.12
1832.591	82.79
1836.913	83.79
1841.23	80.46
1845.543	83.12
1849.852	80.79
1854.156	77.79
1858.457	84.79
1862.754	77.79
1867.047	76.12
1871.335	77.46
1875.62	80.46
1879.9	76.79
1884.177	79.12
1888.449	73.79
1892.718	74.46
1896.982	79.12
1901.243	80.46
1905.499	79.79
1909.752	77.12
1914	83.12
1918.245	81.79
1922.485	79.79
1926.722	84.46
1930.954	85.12
1935.183	93.46
1939.408	87.46
1943.628	86.46
1947.845	92.12
1952.058	88.12
1956.267	84.79
1960.472	93.79
1964.673	87.12
1968.87	91.12
1973.063	80.46
1977.252	89.79
1981.438	84.79
1985.619	88.12
1989.797	88.12
1993.971	91.79
1998.14	86.79
2002.306	85.79
2006.469	90.46
2010.627	93.46
2014.781	90.79
2018.932	91.46
2023.078	95.12
2027.221	93.46
2031.36	99.46
2035.495	89.46
2039.627	92.12
2043.754	94.12
2047.878	100.12
2051.998	95.46
2056.114	95.79
2060.226	102.12
2064.334	98.12
2068.439	100.46
2072.54	101.12
2076.637	108.46
2080.73	112.79
2084.82	107.46
2088.906	115.12
2092.988	116.46
2097.066	116.46
2101.14	107.12
2105.211	110.46
2109.278	109.46
2113.342	105.12
2117.401	106.79
2121.457	103.12
2125.509	100.79
2129.558	95.46
2133.602	92.46
2137.643	92.12
2141.681	88.79
2145.714	89.12
2149.744	91.79
2153.77	87.46
2157.793	90.12
2161.812	85.46
2165.827	83.46
2169.838	75.12
2173.846	71.46
2177.851	61.46
2181.851	62.12
2185.848	57.46
2189.841	53.12
2193.831	57.46
2197.817	49.46
2201.799	50.12
2205.778	45.12
2209.753	46.12
2213.725	47.46
2217.693	44.79
2221.657	43.12
2225.618	38.12
2229.575	36.79
2233.529	28.46
2237.479	31.46
2241.425	24.46
2245.368	22.79
2249.307	20.12
2253.243	15.46
2257.175	11.79
2261.104	14.46
2265.029	6.12
2268.95	8.12
2272.868	4.46
2276.783	2.12
2280.694	2.12
2284.601	0.46
2288.505	-0.88
2292.405	-7.21
2296.302	-5.54
2300.195	-9.21
2304.085	-14.88
2307.971	-9.54
2311.854	-11.88
2315.734	-11.54
2319.609	-13.54
2323.482	-25.54
2327.351	-20.88
2331.216	-15.21
2335.078	-18.54
2338.937	-21.21
2342.792	-25.21
2346.643	-28.21
2350.492	-27.88
2354.336	-34.54
2358.178	-31.88
2362.015	-34.54
2365.85	-31.21
2369.681	-28.88
2373.508	-34.88
2377.333	-34.21
2381.153	-28.54
2384.971	-29.54
2388.785	-33.54
2392.595	-28.21
2396.402	-32.21
2400.206	-37.54
2404.007	-33.88
2407.804	-37.21
2411.597	-33.54
2415.388	-43.88
2419.174	-43.21
2422.958	-44.21
2426.738	-46.21
2430.515	-44.54
2434.289	-43.88
2438.059	-45.21
2441.825	-39.54
2445.589	-43.21
2449.349	-44.88
2453.106	-47.54
2456.859	-45.21
2460.61	-46.21
2464.356	-47.21
2468.1	-49.88
2471.84	-48.54
2475.577	-50.54
2479.311	-45.54
2483.041	-52.88
2486.768	-50.88
2490.492	-52.21
2494.213	-48.54
2497.93	-51.54
2501.644	-51.54
2505.355	-50.21
2509.062	-50.54
2512.766	-49.54
2516.467	-54.21
2520.165	-51.88
2523.859	-54.21
2527.551	-53.54
2531.239	-53.88
2534.923	-53.88
2538.605	-55.21
2542.283	-52.88
2545.958	-51.88
2549.63	-54.54
2553.299	-54.88
2556.964	-52.21
2560.626	-49.54
2564.285	-53.21
2567.941	-54.54
2571.594	-53.54
2575.243	-54.54
2578.89	-53.54
2582.533	-55.54
2586.173	-57.88
2589.809	-58.88
2593.443	-62.88
2597.073	-60.21
2600.701	-58.54
2604.325	-58.21
2607.946	-55.88
2611.564	-58.21
2615.178	-58.54
2618.79	-58.54
2622.398	-57.21
2626.004	-58.21
2629.606	-56.88
2633.205	-57.21
2636.801	-60.21
2640.394	-59.54
2643.983	-58.54
2647.57	-63.21
2651.153	-62.54
2654.734	-60.54
2658.311	-58.88
2661.885	-59.21
2665.456	-57.21
2669.025	-57.88
2672.589	-58.54
2676.151	-59.54
2679.71	-57.88
2683.266	-56.21
2686.819	-57.54
2690.368	-57.21
2693.915	-63.88
2697.458	-59.88
2700.999	-59.54
2704.536	-56.21
2708.071	-58.21
2711.602	-61.21
2715.13	-55.88
2718.656	-56.21
2722.178	-52.21
2725.697	-53.88
2729.214	-52.88
2732.727	-52.21
2736.237	-54.88
2739.744	-48.54
2743.249	-51.54
2746.75	-49.88
2750.248	-55.54
2753.743	-48.21
2757.236	-51.54
2760.725	-48.54
2764.211	-51.21
2767.695	-45.21
2771.175	-45.21
2774.652	-42.88
2778.127	-37.88
2781.598	-38.54
2785.067	-37.54
2788.532	-35.21
2791.995	-37.54
2795.455	-34.21
2798.911	-41.21
2802.365	-36.21
2805.816	-32.54
2809.264	-31.88
2812.709	-34.54
2816.151	-30.21
2819.59	-25.21
2823.026	-25.88
2826.46	-20.88
2829.89	-17.21
2833.318	-17.54
2836.742	-11.88
2840.164	-12.54
2843.583	-13.54
2846.999	-1.54
2850.412	-9.54
2853.822	2.12
2857.229	-6.54
2860.634	3.46
2864.035	4.79
2867.434	8.12
2870.83	12.46
2874.223	13.12
2877.613	14.46
2881	23.79
2884.385	24.79
2887.766	30.12
2891.145	35.46
2894.521	40.12
2897.894	36.46
2901.264	42.46
2904.631	41.12
2907.996	46.46
2911.358	51.46
2914.717	49.79
2918.073	53.46
2921.426	60.12
2924.777	66.46
2928.124	66.12
2931.469	74.46
2934.811	87.79
2938.15	92.46
2941.487	91.79
2944.821	97.46
2948.152	95.79
2951.48	101.12
2954.805	107.46
2958.128	104.79
2961.447	112.12
2964.765	121.46
2968.079	127.46
2971.39	130.79
2974.699	146.12
2978.005	150.12
2981.308	161.79
2984.609	172.46
2987.907	182.12
2991.202	188.79
2994.494	194.46
2997.784	209.46
3001.07	208.12
3004.355	229.12
3007.636	235.46
3010.915	236.46
3014.191	248.12
3017.464	259.46
3020.734	261.12
3024.002	271.12
3027.267	283.46
3030.53	293.79
3033.789	299.79
3037.046	311.12
3040.301	322.12
3043.552	336.79
3046.801	353.46
3050.048	349.79
3053.291	373.12
3056.532	386.46
3059.771	404.79
3063.006	415.46
3066.239	438.79
3069.469	449.12
3072.697	472.46
3075.922	487.12
3079.144	498.46
3082.364	523.12
3085.581	548.79
3088.795	542.46
3092.007	566.12
3095.216	586.12
3098.423	599.46
3101.627	622.79
3104.828	643.12
3108.026	651.46
3111.222	677.12
3114.416	696.46
3117.607	721.12
3120.795	724.46
3123.98	752.12
3127.163	772.79
3130.344	808.79
3133.521	834.12
3136.696	833.79
3139.869	868.12
3143.039	887.46
3146.206	899.79
3149.371	920.79
3152.533	931.12
3155.693	918.12
3158.85	933.79
3162.005	946.12
3165.157	956.12
3168.306	952.46
3171.453	959.12
3174.597	962.79
3177.739	967.79
3180.878	969.46
3184.014	991.79
3187.149	985.46
3190.28	984.46
3193.409	1000.46
3196.536	1002.12
3199.659	998.79
3202.781	996.46
3205.9	1003.79
3209.016	1013.12
3212.13	1001.79
3215.241	1014.46
3218.35	1007.12
3221.456	999.12
3224.56	986.79
3227.661	968.79
3230.76	973.46
3233.856	971.79
3236.95	965.12
3240.041	952.79
3243.13	936.79
3246.216	936.79
3249.3	935.12
3252.382	938.12
3255.46	930.46
3258.537	931.79
3261.611	932.12
3264.682	935.46
3267.751	929.46
3270.818	919.46
3273.882	918.46
3276.943	912.46
3280.002	908.79
3283.059	889.12
3286.113	886.12
3289.165	871.12
3292.214	848.12
3295.261	842.46
3298.306	823.46
3301.348	807.12
3304.387	807.46
3307.425	793.46
3310.459	783.46
3313.492	789.46
3316.521	774.46
3319.549	764.12
3322.574	765.12
3325.597	748.12
3328.617	737.79
3331.635	740.46
3334.65	732.79
3337.663	728.12
3340.674	731.79
3343.682	720.79
3346.688	721.12
3349.691	708.79
3352.692	721.79
3355.691	705.12
3358.687	713.46
3361.681	713.79
3364.673	701.46
3367.662	691.79
3370.649	681.79
3373.633	671.12
3376.615	664.12
3379.595	648.79
3382.572	642.79
3385.547	639.46
3388.52	627.12
3391.49	628.46
3394.458	624.12
3397.424	603.12
3400.387	604.12
3403.348	596.79
3406.307	582.46
3409.263	586.46
3412.217	593.79
3415.168	561.79
3418.118	574.12
3421.065	559.79
3424.009	560.46
3426.951	541.46
3429.891	541.79
3432.829	530.79
3435.764	513.12
3438.697	511.79
3441.628	491.79
3444.557	486.79
3447.483	470.46
3450.407	465.46
3453.328	453.46
3456.247	432.79
3459.164	416.79
3462.079	412.46
3464.991	396.46
3467.902	380.79
3470.809	381.46
3473.715	362.46
3476.618	355.46
3479.519	340.79
3482.418	341.79
3485.315	313.46
3488.209	312.79
3491.101	307.12
3493.99	304.12
3496.878	294.12
3499.763	277.79
3502.646	274.46
3505.527	263.12
3508.405	256.12
3511.281	232.12
3514.155	237.12
3517.027	222.79
3519.897	208.46
3522.764	203.79
3525.629	195.12
3528.492	183.46
3531.352	164.79
3534.211	165.79
3537.067	149.12
3539.921	143.79
3542.773	131.79
3545.622	123.79
3548.469	115.12
3551.315	106.79
3554.157	95.79
3556.998	96.79
3559.837	89.79
3562.673	89.46
3565.507	80.12
3568.339	69.12
3571.169	68.46
3573.996	60.46
3576.822	59.12
3579.645	52.46
3582.466	45.12
3585.285	42.12
3588.101	39.79
3590.916	34.12
3593.728	23.79
3596.538	20.46
3599.346	12.79
3602.152	9.46
3604.956	8.12
3607.757	3.46
3610.556	3.12
3613.354	-0.88
3616.149	-7.21
3618.942	-12.54
3621.732	-8.54
3624.521	-12.54
3627.307	-16.88
3630.092	-20.21
3632.874	-20.54
3635.654	-32.21
3638.432	-30.21
3641.208	-33.88
3643.982	-37.21
3646.753	-34.21
3649.523	-40.54
3652.29	-38.54
3655.055	-44.88
3657.818	-45.54
3660.579	-50.21
3663.338	-53.54
3666.095	-55.21
3668.849	-59.54
3671.602	-56.21
3674.352	-61.21
3677.101	-63.54
3679.847	-65.54
3682.591	-65.54
3685.333	-71.88
3688.073	-69.21
3690.811	-69.54
3693.547	-73.54
3696.281	-72.88
3699.013	-73.88
3701.742	-76.21
3704.47	-77.21
3707.195	-75.54
3709.919	-81.54
3712.64	-80.54
3715.359	-79.88
3718.076	-83.88
3720.792	-83.21
3723.505	-85.88
3726.216	-86.88
3728.925	-84.54
3731.632	-87.54
3734.336	-84.88
3737.039	-84.88
3739.74	-83.54
3742.439	-89.21
3745.136	-87.54
3747.83	-92.54
3750.523	-88.88
3753.213	-90.54
3755.902	-94.21
3758.589	-91.54
3761.273	-92.88
3763.956	-95.54
3766.636	-93.54
3769.315	-94.54
3771.991	-93.21
3774.665	-98.21
3777.338	-94.88
3780.008	-95.21
3782.677	-92.21
3785.343	-93.21
3788.007	-93.54
3790.67	-96.54
3793.33	-95.88
3795.989	-95.88
3798.645	-95.88
3801.299	-94.88
3803.952	-96.54
3806.602	-97.21
3809.251	-99.21
3811.897	-99.88
3814.542	-95.88
3817.184	-96.21
3819.825	-96.88
3822.463	-96.21
3825.1	-98.88
3827.735	-96.21
3830.367	-98.54
3832.998	-97.21
3835.627	-98.54
3838.253	-102.21
3840.878	-101.21
3843.501	-102.54
3846.122	-99.21
3848.741	-97.88
3851.358	-99.54
3853.973	-97.88
3856.586	-100.21
3859.197	-92.88
3861.806	-97.88
3864.414	-100.21
3867.019	-97.88
3869.622	-99.88
3872.224	-98.88
3874.823	-97.88
3877.421	-97.21
3880.016	-88.21
3882.61	-87.88
3885.202	-81.21
3887.792	-80.88
3890.38	-94.54
3892.966	-97.54
3895.55	-98.88
3898.132	-99.54
3900.713	-101.88
3903.291	-99.21
3905.868	-96.88
3908.442	-98.54
3911.015	-101.88
3913.586	-99.88
3916.155	-101.21
3918.722	-105.88
3921.287	-104.21
3923.85	-101.21
3926.411	-102.21
3928.971	-103.54
3931.528	-102.54
3934.084	-99.88
3936.638	-102.21
3939.19	-101.88
3941.74	-101.88
3944.288	-101.54
3946.834	-101.88
3949.378	-100.88
3951.921	-101.21
3954.462	-101.88
3957	-99.88
3959.537	-101.88
3962.072	-103.88
3964.606	-102.88
3967.137	-103.88
3969.667	-102.54
3972.194	-100.88
3974.72	-100.88
3977.244	-101.21
3979.766	-99.21
3982.286	-98.54
3984.805	-99.88
3987.321	-97.54
3989.836	-99.88
3992.349	-97.88
3994.86	-100.88
3997.369	-101.54
3999.877	-104.54
4002.382	-102.54
4004.886	-98.54
4007.388	-98.21
4009.888	-97.88
4012.386	-103.21
4014.883	-99.21
4017.377	-99.54
4019.87	-100.88
4022.361	-98.88
4024.85	-98.54
4027.338	-98.88
4029.823	-102.21
4032.307	-101.88
4034.789	-100.88
4037.269	-102.88
4039.747	-101.88
4042.224	-100.21
4044.699	-101.21
4047.172	-103.21
4049.643	-102.54
4052.112	-103.88
4054.58	-98.88
4057.046	-100.88
4059.51	-100.54
4061.972	-98.88
4064.432	-99.21
4066.891	-100.54
4069.348	-99.88
4071.803	-101.88
4074.256	-103.21
4076.708	-102.54
4079.158	-100.88
4081.606	-102.21
4084.052	-100.88
4086.497	-101.54
4088.939	-101.54
4091.38	-98.54
4093.819	-101.54
4096.257	-107.54
4098.693	-106.54
4101.127	-106.21
4103.559	-104.54
4105.989	-63.21
4108.418	-58.21
4110.845	-56.21
4113.27	-53.21
4115.694	-49.54
4118.115	-40.88
4120.535	-99.21
4122.954	-98.88
4125.37	-98.88
4127.785	-98.21
4130.198	-102.21
4132.609	-100.88
4135.019	-105.21
4137.427	-107.54
4139.833	-107.88
4142.237	-107.21
