Data from DW_1 (I=1 T=5x3 V=3ml)_RamanShift_2.txt Node
Date: Mon Jun 05 13:03:51 IDT 2017
User: aro
Spectrometer: QEPB0276
Trigger mode: 0
Integration Time (sec): 5.000000E0
Scans to average: 1
Electric dark correction enabled: true
Nonlinearity correction enabled: false
Boxcar width: 0
XAxis mode: Raman Shifts
Number of Pixels in Spectrum: 1044
>>>>>Begin Spectral Data<<<<<
160.701	-30.62
166.742	5.04
172.777	87.04
178.805	372.38
184.826	1044.71
190.841	2183.71
196.849	3488.04
202.85	4328.04
208.845	4521.38
214.833	4356.38
220.815	4166.04
226.789	4036.04
232.758	3884.38
238.719	3742.71
244.674	3573.71
250.623	3404.38
256.565	3243.71
262.5	3042.38
268.429	2891.04
274.351	2755.04
280.267	2633.04
286.176	2529.71
292.079	2432.71
297.975	2336.04
303.865	2268.71
309.748	2212.38
315.625	2138.04
321.495	2106.04
327.359	2088.38
333.217	2032.04
339.068	2019.38
344.912	2013.71
350.751	1998.04
356.583	1999.04
362.408	1994.04
368.227	2000.38
374.04	2003.04
379.847	2053.71
385.647	2050.71
391.44	2024.04
397.228	2036.38
403.009	2049.04
408.784	2076.04
414.553	2143.04
420.315	2204.71
426.071	2206.04
431.821	2112.71
437.565	2080.04
443.302	2054.04
449.033	2027.38
454.758	1996.71
460.477	1978.04
466.189	1953.38
471.896	1949.38
477.596	1946.04
483.29	1912.71
488.978	1920.04
494.66	1884.04
500.335	1857.04
506.005	1811.71
511.668	1783.71
517.325	1745.38
522.977	1692.04
528.622	1662.71
534.261	1670.04
539.894	1612.38
545.521	1623.38
551.141	1582.38
556.756	1584.38
562.365	1561.04
567.968	1547.04
573.565	1543.38
579.155	1525.71
584.74	1492.04
590.319	1493.04
595.892	1463.71
601.459	1462.71
607.02	1425.04
612.575	1428.04
618.124	1394.04
623.667	1384.38
629.204	1357.38
634.735	1345.04
640.261	1370.71
645.781	1387.04
651.294	1358.38
656.802	1368.38
662.304	1305.38
667.8	1285.38
673.29	1262.71
678.775	1255.38
684.254	1236.38
689.726	1234.38
695.193	1235.71
700.655	1209.71
706.11	1203.04
711.56	1181.71
717.004	1168.04
722.442	1161.04
727.874	1155.71
733.301	1122.38
738.722	1129.04
744.137	1114.38
749.547	1129.71
754.951	1120.71
760.349	1124.04
765.741	1092.04
771.128	1077.04
776.509	1076.71
781.885	1080.71
787.254	1062.04
792.618	1052.38
797.977	1021.04
803.33	1039.71
808.677	1008.71
814.019	984.04
819.355	984.71
824.686	946.38
830.011	936.38
835.33	934.04
840.644	915.04
845.952	914.04
851.255	899.04
856.552	877.04
861.844	877.04
867.13	874.38
872.41	878.38
877.686	876.04
882.955	883.38
888.219	862.04
893.478	814.38
898.731	771.04
903.979	743.38
909.221	737.71
914.458	719.04
919.69	716.71
924.916	695.04
930.136	684.38
935.351	703.38
940.561	688.71
945.766	669.71
950.965	661.04
956.158	645.71
961.347	643.38
966.529	621.71
971.707	605.04
976.879	589.71
982.046	594.04
987.208	581.71
992.364	581.38
997.515	581.71
1002.66	587.04
1007.801	580.38
1012.936	586.04
1018.066	594.71
1023.19	591.04
1028.309	599.04
1033.423	583.04
1038.532	600.04
1043.636	587.38
1048.734	581.38
1053.827	563.38
1058.915	565.38
1063.998	554.04
1069.075	548.71
1074.147	565.04
1079.214	556.04
1084.276	552.38
1089.333	550.71
1094.385	571.38
1099.431	566.38
1104.472	562.38
1109.509	547.04
1114.54	547.38
1119.565	536.04
1124.586	511.71
1129.602	512.38
1134.613	515.71
1139.618	503.38
1144.619	497.38
1149.614	505.71
1154.604	508.38
1159.589	499.04
1164.57	507.04
1169.545	505.04
1174.515	503.71
1179.48	495.71
1184.44	487.71
1189.395	486.38
1194.345	492.04
1199.29	478.04
1204.23	483.71
1209.165	487.04
1214.095	485.71
1219.021	490.04
1223.941	500.71
1228.856	487.04
1233.766	502.38
1238.672	501.04
1243.572	490.04
1248.467	490.04
1253.358	482.71
1258.244	472.71
1263.124	463.71
1268	458.38
1272.871	457.38
1277.737	444.04
1282.599	443.71
1287.455	442.71
1292.306	436.71
1297.153	439.71
1301.995	438.71
1306.832	440.38
1311.664	434.71
1316.491	445.71
1321.314	437.71
1326.132	430.38
1330.945	410.71
1335.753	414.38
1340.556	399.71
1345.354	400.71
1350.148	390.04
1354.937	386.38
1359.722	390.71
1364.501	391.71
1369.276	378.71
1374.046	385.71
1378.811	383.71
1383.572	382.04
1388.327	375.71
1393.079	373.38
1397.825	375.71
1402.567	362.38
1407.304	354.04
1412.036	359.04
1416.764	356.04
1421.487	353.04
1426.205	355.38
1430.919	366.04
1435.628	361.71
1440.333	373.04
1445.032	376.38
1449.727	382.71
1454.418	373.71
1459.104	400.04
1463.785	386.38
1468.462	365.71
1473.134	364.04
1477.802	362.71
1482.465	353.38
1487.123	348.04
1491.777	355.04
1496.426	362.71
1501.071	362.38
1505.711	370.38
1510.347	379.71
1514.978	385.38
1519.604	397.04
1524.226	399.38
1528.844	399.71
1533.457	407.04
1538.065	399.71
1542.669	399.71
1547.269	411.04
1551.864	414.04
1556.454	414.38
1561.041	433.38
1565.622	425.04
1570.199	450.04
1574.772	456.71
1579.34	478.04
1583.904	503.38
1588.464	532.38
1593.019	546.04
1597.569	558.04
1602.115	582.38
1606.657	601.71
1611.195	612.38
1615.728	639.38
1620.256	655.71
1624.78	664.71
1629.3	694.04
1633.816	704.38
1638.327	726.04
1642.834	727.71
1647.336	743.04
1651.834	744.71
1656.328	741.04
1660.817	722.38
1665.302	700.04
1669.783	671.71
1674.259	645.04
1678.732	606.38
1683.199	561.38
1687.663	527.71
1692.122	491.38
1696.577	461.71
1701.028	428.38
1705.474	409.38
1709.917	378.04
1714.355	360.38
1718.788	330.71
1723.218	315.04
1727.643	291.04
1732.064	270.04
1736.481	248.71
1740.893	232.38
1745.301	215.71
1749.705	201.71
1754.105	184.71
1758.501	169.38
1762.893	158.71
1767.28	152.38
1771.663	141.38
1776.042	131.71
1780.417	135.04
1784.787	127.38
1789.154	121.38
1793.516	121.04
1797.874	119.71
1802.228	119.71
1806.578	114.04
1810.924	114.38
1815.266	116.71
1819.603	101.71
1823.937	96.04
1828.266	82.38
1832.591	89.04
1836.913	85.04
1841.23	86.71
1845.543	87.38
1849.852	82.04
1854.156	82.04
1858.457	73.04
1862.754	82.04
1867.047	81.38
1871.335	83.71
1875.62	85.71
1879.9	79.04
1884.177	87.38
1888.449	83.04
1892.718	88.71
1896.982	76.38
1901.243	85.71
1905.499	79.04
1909.752	78.38
1914	76.38
1918.245	83.04
1922.485	77.04
1926.722	87.71
1930.954	85.38
1935.183	95.71
1939.408	95.71
1943.628	90.71
1947.845	93.38
1952.058	97.38
1956.267	91.04
1960.472	95.04
1964.673	96.38
1968.87	87.38
1973.063	90.71
1977.252	84.04
1981.438	84.04
1985.619	83.38
1989.797	87.38
1993.971	82.04
1998.14	88.04
2002.306	92.04
2006.469	92.71
2010.627	93.71
2014.781	93.04
2018.932	93.71
2023.078	95.38
2027.221	100.71
2031.36	101.71
2035.495	101.71
2039.627	98.38
2043.754	100.38
2047.878	95.38
2051.998	99.71
2056.114	101.04
2060.226	100.38
2064.334	104.38
2068.439	104.71
2072.54	109.38
2076.637	106.71
2080.73	112.04
2084.82	113.71
2088.906	119.38
2092.988	117.71
2097.066	112.71
2101.14	113.38
2105.211	110.71
2109.278	109.71
2113.342	102.38
2117.401	109.04
2121.457	110.38
2125.509	100.04
2129.558	104.71
2133.602	99.71
2137.643	101.38
2141.681	98.04
2145.714	96.38
2149.744	96.04
2153.77	89.71
2157.793	89.38
2161.812	79.71
2165.827	85.71
2169.838	79.38
2173.846	72.71
2177.851	68.71
2181.851	60.38
2185.848	60.71
2189.841	60.38
2193.831	55.71
2197.817	53.71
2201.799	49.38
2205.778	45.38
2209.753	45.38
2213.725	49.71
2217.693	47.04
2221.657	45.38
2225.618	41.38
2229.575	42.04
2233.529	39.71
2237.479	34.71
2241.425	27.71
2245.368	26.04
2249.307	19.38
2253.243	19.71
2257.175	11.04
2261.104	10.71
2265.029	7.38
2268.95	8.38
2272.868	7.71
2276.783	2.38
2280.694	2.38
2284.601	0.71
2288.505	-2.62
2292.405	1.04
2296.302	-5.29
2300.195	-9.96
2304.085	-8.62
2307.971	-9.29
2311.854	-14.62
2315.734	-20.29
2319.609	-21.29
2323.482	-21.29
2327.351	-19.62
2331.216	-19.96
2335.078	-20.29
2338.937	-23.96
2342.792	-24.96
2346.643	-25.96
2350.492	-29.62
2354.336	-27.29
2358.178	-33.62
2362.015	-32.29
2365.85	-31.96
2369.681	-36.62
2373.508	-28.62
2377.333	-36.96
2381.153	-35.29
2384.971	-33.29
2388.785	-36.29
2392.595	-33.96
2396.402	-33.96
2400.206	-35.29
2404.007	-39.62
2407.804	-38.96
2411.597	-33.29
2415.388	-42.62
2419.174	-39.96
2422.958	-42.96
2426.738	-42.96
2430.515	-42.29
2434.289	-43.62
2438.059	-46.96
2441.825	-47.29
2445.589	-45.96
2449.349	-46.62
2453.106	-45.29
2456.859	-42.96
2460.61	-44.96
2464.356	-46.96
2468.1	-46.62
2471.84	-49.29
2475.577	-49.29
2479.311	-52.29
2483.041	-52.62
2486.768	-52.62
2490.492	-51.96
2494.213	-48.29
2497.93	-55.29
2501.644	-53.29
2505.355	-53.96
2509.062	-48.29
2512.766	-51.29
2516.467	-53.96
2520.165	-53.62
2523.859	-54.96
2527.551	-53.29
2531.239	-56.62
2534.923	-55.62
2538.605	-55.96
2542.283	-53.62
2545.958	-52.62
2549.63	-57.29
2553.299	-54.62
2556.964	-52.96
2560.626	-51.29
2564.285	-52.96
2567.941	-56.29
2571.594	-51.29
2575.243	-53.29
2578.89	-56.29
2582.533	-60.29
2586.173	-57.62
2589.809	-60.62
2593.443	-66.62
2597.073	-59.96
2600.701	-58.29
2604.325	-61.96
2607.946	-59.62
2611.564	-61.96
2615.178	-58.29
2618.79	-57.29
2622.398	-57.96
2626.004	-58.96
2629.606	-62.62
2633.205	-58.96
2636.801	-58.96
2640.394	-53.29
2643.983	-59.29
2647.57	-59.96
2651.153	-61.29
2654.734	-60.29
2658.311	-61.62
2661.885	-63.96
2665.456	-63.96
2669.025	-62.62
2672.589	-65.29
2676.151	-60.29
2679.71	-61.62
2683.266	-55.96
2686.819	-59.29
2690.368	-58.96
2693.915	-61.62
2697.458	-59.62
2700.999	-56.29
2704.536	-57.96
2708.071	-54.96
2711.602	-55.96
2715.13	-58.62
2718.656	-59.96
2722.178	-60.96
2725.697	-56.62
2729.214	-55.62
2732.727	-58.96
2736.237	-55.62
2739.744	-53.29
2743.249	-53.29
2746.75	-52.62
2750.248	-48.29
2753.743	-46.96
2757.236	-48.29
2760.725	-46.29
2764.211	-47.96
2767.695	-44.96
2771.175	-45.96
2774.652	-46.62
2778.127	-49.62
2781.598	-39.29
2785.067	-40.29
2788.532	-41.96
2791.995	-40.29
2795.455	-40.96
2798.911	-35.96
2802.365	-35.96
2805.816	-30.29
2809.264	-33.62
2812.709	-33.29
2816.151	-29.96
2819.59	-24.96
2823.026	-26.62
2826.46	-25.62
2829.89	-23.96
2833.318	-13.29
2836.742	-15.62
2840.164	-12.29
2843.583	-8.29
2846.999	-7.29
2850.412	-5.29
2853.822	-3.62
2857.229	5.71
2860.634	2.71
2864.035	5.04
2867.434	13.38
2870.83	12.71
2874.223	17.38
2877.613	19.71
2881	26.04
2884.385	32.04
2887.766	35.38
2891.145	42.71
2894.521	35.38
2897.894	39.71
2901.264	44.71
2904.631	48.38
2907.996	51.71
2911.358	55.71
2914.717	61.04
2918.073	63.71
2921.426	60.38
2924.777	76.71
2928.124	76.38
2931.469	84.71
2934.811	87.04
2938.15	97.71
2941.487	105.04
2944.821	105.71
2948.152	109.04
2951.48	108.38
2954.805	118.71
2958.128	121.04
2961.447	127.38
2964.765	129.71
2968.079	137.71
2971.39	146.04
2974.699	148.38
2978.005	165.38
2981.308	168.04
2984.609	169.71
2987.907	180.38
2991.202	187.04
2994.494	209.71
2997.784	218.71
3001.07	222.38
3004.355	234.38
3007.636	241.71
3010.915	248.71
3014.191	256.38
3017.464	266.71
3020.734	272.38
3024.002	273.38
3027.267	288.71
3030.53	294.04
3033.789	301.04
3037.046	301.38
3040.301	321.38
3043.552	333.04
3046.801	347.71
3050.048	355.04
3053.291	382.38
3056.532	392.71
3059.771	406.04
3063.006	431.71
3066.239	451.04
3069.469	478.38
3072.697	479.71
3075.922	497.38
3079.144	524.71
3082.364	540.38
3085.581	549.04
3088.795	566.71
3092.007	578.38
3095.216	600.38
3098.423	632.71
3101.627	643.04
3104.828	650.38
3108.026	676.71
3111.222	694.38
3114.416	721.71
3117.607	740.38
3120.795	761.71
3123.98	785.38
3127.163	795.04
3130.344	815.04
3133.521	836.38
3136.696	864.04
3139.869	877.38
3143.039	891.71
3146.206	911.04
3149.371	934.04
3152.533	938.38
3155.693	950.38
3158.85	956.04
3162.005	967.38
3165.157	967.38
3168.306	977.71
3171.453	994.38
3174.597	990.04
3177.739	994.04
3180.878	1001.71
3184.014	1002.04
3187.149	1009.71
3190.28	1004.71
3193.409	1012.71
3196.536	1033.38
3199.659	1035.04
3202.781	1038.71
3205.9	1027.04
3209.016	1031.38
3212.13	1023.04
3215.241	1025.71
3218.35	1027.38
3221.456	1017.38
3224.56	1018.04
3227.661	1018.04
3230.76	1002.71
3233.856	990.04
3236.95	984.38
3240.041	961.04
3243.13	965.04
3246.216	965.04
3249.3	958.38
3252.382	958.38
3255.46	952.71
3258.537	954.04
3261.611	941.38
3264.682	944.71
3267.751	949.71
3270.818	939.71
3273.882	944.71
3276.943	935.71
3280.002	908.04
3283.059	922.38
3286.113	898.38
3289.165	895.38
3292.214	886.38
3295.261	867.71
3298.306	842.71
3301.348	841.38
3304.387	832.71
3307.425	817.71
3310.459	804.71
3313.492	796.71
3316.521	786.71
3319.549	779.38
3322.574	773.38
3325.597	771.38
3328.617	765.04
3331.635	764.71
3334.65	754.04
3337.663	747.38
3340.674	747.04
3343.682	735.04
3346.688	742.38
3349.691	734.04
3352.692	725.04
3355.691	726.38
3358.687	715.71
3361.681	713.04
3364.673	725.71
3367.662	707.04
3370.649	703.04
3373.633	690.38
3376.615	684.38
3379.595	669.04
3382.572	669.04
3385.547	648.71
3388.52	648.38
3391.49	632.71
3394.458	617.38
3397.424	610.38
3400.387	613.38
3403.348	607.04
3406.307	597.71
3409.263	592.71
3412.217	597.04
3415.168	586.04
3418.118	576.38
3421.065	584.04
3424.009	561.71
3426.951	565.71
3429.891	545.04
3432.829	543.04
3435.764	531.38
3438.697	524.04
3441.628	504.04
3444.557	492.04
3447.483	483.71
3450.407	465.71
3453.328	460.71
3456.247	446.04
3459.164	427.04
3462.079	425.71
3464.991	402.71
3467.902	399.04
3470.809	390.71
3473.715	374.71
3476.618	366.71
3479.519	350.04
3482.418	333.04
3485.315	318.71
3488.209	318.04
3491.101	314.38
3493.99	308.38
3496.878	290.38
3499.763	285.04
3502.646	276.71
3505.527	276.38
3508.405	253.38
3511.281	248.38
3514.155	240.38
3517.027	232.04
3519.897	215.71
3522.764	207.04
3525.629	195.38
3528.492	186.71
3531.352	174.04
3534.211	161.04
3537.067	147.38
3539.921	145.04
3542.773	132.04
3545.622	123.04
3548.469	109.38
3551.315	118.04
3554.157	100.04
3556.998	94.04
3559.837	95.04
3562.673	83.71
3565.507	81.38
3568.339	79.38
3571.169	64.71
3573.996	59.71
3576.822	53.38
3579.645	49.71
3582.466	48.38
3585.285	33.38
3588.101	36.04
3590.916	32.38
3593.728	21.04
3596.538	22.71
3599.346	16.04
3602.152	12.71
3604.956	4.38
3607.757	7.71
3610.556	-2.62
3613.354	-3.62
3616.149	-7.96
3618.942	-7.29
3621.732	-15.29
3624.521	-22.29
3627.307	-19.62
3630.092	-27.96
3632.874	-31.29
3635.654	-31.96
3638.432	-36.96
3641.208	-33.62
3643.982	-36.96
3646.753	-42.96
3649.523	-43.29
3652.29	-38.29
3655.055	-46.62
3657.818	-46.29
3660.579	-57.96
3663.338	-53.29
3666.095	-54.96
3668.849	-64.29
3671.602	-61.96
3674.352	-64.96
3677.101	-65.29
3679.847	-67.29
3682.591	-73.29
3685.333	-69.62
3688.073	-68.96
3690.811	-74.29
3693.547	-73.29
3696.281	-73.62
3699.013	-73.62
3701.742	-77.96
3704.47	-79.96
3707.195	-82.29
3709.919	-84.29
3712.64	-81.29
3715.359	-88.62
3718.076	-83.62
3720.792	-89.96
3723.505	-88.62
3726.216	-87.62
3728.925	-87.29
3731.632	-87.29
3734.336	-86.62
3737.039	-84.62
3739.74	-87.29
3742.439	-88.96
3745.136	-90.29
3747.83	-93.29
3750.523	-95.62
3753.213	-96.29
3755.902	-96.96
3758.589	-97.29
3761.273	-96.62
3763.956	-97.29
3766.636	-94.29
3769.315	-98.29
3771.991	-94.96
3774.665	-95.96
3777.338	-95.62
3780.008	-92.96
3782.677	-97.96
3785.343	-94.96
3788.007	-96.29
3790.67	-100.29
3793.33	-100.62
3795.989	-100.62
3798.645	-98.62
3801.299	-99.62
3803.952	-96.29
3806.602	-100.96
3809.251	-99.96
3811.897	-101.62
3814.542	-101.62
3817.184	-98.96
3819.825	-97.62
3822.463	-97.96
3825.1	-99.62
3827.735	-97.96
3830.367	-97.29
3832.998	-102.96
3835.627	-102.29
3838.253	-100.96
3840.878	-101.96
3843.501	-103.29
3846.122	-100.96
3848.741	-100.62
3851.358	-103.29
3853.973	-103.62
3856.586	-102.96
3859.197	-100.62
3861.806	-96.62
3864.414	-100.96
3867.019	-102.62
3869.622	-100.62
3872.224	-98.62
3874.823	-98.62
3877.421	-94.96
3880.016	-93.96
3882.61	-87.62
3885.202	-81.96
3887.792	-90.62
3890.38	-94.29
3892.966	-100.29
3895.55	-101.62
3898.132	-102.29
3900.713	-103.62
3903.291	-99.96
3905.868	-104.62
3908.442	-102.29
3911.015	-102.62
3913.586	-102.62
3916.155	-105.96
3918.722	-106.62
3921.287	-104.96
3923.85	-104.96
3926.411	-101.96
3928.971	-106.29
3931.528	-105.29
3934.084	-101.62
3936.638	-102.96
3939.19	-107.62
3941.74	-105.62
3944.288	-103.29
3946.834	-104.62
3949.378	-108.62
3951.921	-103.96
3954.462	-104.62
3957	-104.62
3959.537	-104.62
3962.072	-106.62
3964.606	-110.62
3967.137	-104.62
3969.667	-101.29
3972.194	-104.62
3974.72	-102.62
3977.244	-102.96
3979.766	-98.96
3982.286	-99.29
3984.805	-101.62
3987.321	-100.29
3989.836	-99.62
3992.349	-101.62
3994.86	-102.62
3997.369	-106.29
3999.877	-104.29
4002.382	-102.29
4004.886	-99.29
4007.388	-98.96
4009.888	-101.62
4012.386	-101.96
4014.883	-98.96
4017.377	-100.29
4019.87	-103.62
4022.361	-101.62
4024.85	-102.29
4027.338	-103.62
4029.823	-104.96
4032.307	-104.62
4034.789	-103.62
4037.269	-106.62
4039.747	-101.62
4042.224	-104.96
4044.699	-103.96
4047.172	-102.96
4049.643	-102.29
4052.112	-101.62
4054.58	-100.62
4057.046	-99.62
4059.51	-102.29
4061.972	-103.62
4064.432	-103.96
4066.891	-102.29
4069.348	-104.62
4071.803	-104.62
4074.256	-104.96
4076.708	-106.29
4079.158	-105.62
4081.606	-104.96
4084.052	-103.62
4086.497	-105.29
4088.939	-100.29
4091.38	-103.29
4093.819	-102.29
4096.257	-106.29
4098.693	-108.29
4101.127	-106.96
4103.559	-107.29
4105.989	-68.96
4108.418	-62.96
4110.845	-61.96
4113.27	-52.96
4115.694	-52.29
4118.115	-44.62
4120.535	-103.96
4122.954	-103.62
4125.37	-102.62
4127.785	-101.96
4130.198	-103.96
4132.609	-100.62
4135.019	-106.96
4137.427	-110.29
4139.833	-106.62
4142.237	-109.96
