Data from DW_1 (I=1 T=5x3 V=3ml)_RamanShift_8.txt Node
Date: Mon Jun 05 13:09:39 IDT 2017
User: aro
Spectrometer: QEPB0276
Trigger mode: 0
Integration Time (sec): 5.000000E0
Scans to average: 1
Electric dark correction enabled: true
Nonlinearity correction enabled: false
Boxcar width: 0
XAxis mode: Raman Shifts
Number of Pixels in Spectrum: 1044
>>>>>Begin Spectral Data<<<<<
160.701	-25.75
166.742	-1.08
172.777	81.92
178.805	362.25
184.826	1013.58
190.841	2112.58
196.849	3416.92
202.85	4231.92
208.845	4430.25
214.833	4287.25
220.815	4088.92
226.789	3974.92
232.758	3823.25
238.719	3682.58
244.674	3501.58
250.623	3330.25
256.565	3191.58
262.5	3005.25
268.429	2834.92
274.351	2696.92
280.267	2596.92
286.176	2464.58
292.079	2387.58
297.975	2291.92
303.865	2200.58
309.748	2165.25
315.625	2112.92
321.495	2036.92
327.359	2027.25
333.217	2017.92
339.068	1981.25
344.912	1975.58
350.751	1949.92
356.583	1962.92
362.408	1961.92
368.227	1949.25
374.04	1954.92
379.847	1994.58
385.647	2011.58
391.44	2022.92
397.228	2002.25
403.009	2005.92
408.784	2036.92
414.553	2085.92
420.315	2161.58
426.071	2168.92
431.821	2094.58
437.565	2034.92
443.302	2011.92
449.033	1989.25
454.758	1972.58
460.477	1961.92
466.189	1929.25
471.896	1909.25
477.596	1900.92
483.29	1888.58
488.978	1863.92
494.66	1848.92
500.335	1822.92
506.005	1794.58
511.668	1752.58
517.325	1692.25
522.977	1677.92
528.622	1644.58
534.261	1616.92
539.894	1582.25
545.521	1569.25
551.141	1557.25
556.756	1560.25
562.365	1541.92
567.968	1522.92
573.565	1509.25
579.155	1480.58
584.74	1472.92
590.319	1444.92
595.892	1438.58
601.459	1431.58
607.02	1396.92
612.575	1381.92
618.124	1370.92
623.667	1343.25
629.204	1324.25
634.735	1319.92
640.261	1342.58
645.781	1335.92
651.294	1335.25
656.802	1301.25
662.304	1280.25
667.8	1261.25
673.29	1228.58
678.775	1221.25
684.254	1204.25
689.726	1202.25
695.193	1194.58
700.655	1193.58
706.11	1154.92
711.56	1162.58
717.004	1130.92
722.442	1122.92
727.874	1110.58
733.301	1110.25
738.722	1079.92
744.137	1104.25
749.547	1085.58
754.951	1088.58
760.349	1081.92
765.741	1054.92
771.128	1058.92
776.509	1047.58
781.885	1033.58
787.254	1045.92
792.618	1020.25
797.977	1004.92
803.33	992.58
808.677	972.58
814.019	955.92
819.355	955.58
824.686	915.25
830.011	901.25
835.33	896.92
840.644	898.92
845.952	894.92
851.255	863.92
856.552	857.92
861.844	839.92
867.13	840.25
872.41	850.25
877.686	856.92
882.955	835.25
888.219	809.92
893.478	776.25
898.731	747.92
903.979	712.25
909.221	707.58
914.458	695.92
919.69	683.58
924.916	674.92
930.136	673.25
935.351	673.25
940.561	658.58
945.766	640.58
950.965	639.92
956.158	629.58
961.347	616.25
966.529	598.58
971.707	590.92
976.879	577.58
982.046	568.92
987.208	562.58
992.364	552.25
997.515	559.58
1002.66	566.92
1007.801	568.25
1012.936	576.92
1018.066	573.58
1023.19	575.92
1028.309	573.92
1033.423	562.92
1038.532	556.92
1043.636	566.25
1048.734	556.25
1053.827	555.25
1058.915	551.25
1063.998	526.92
1069.075	526.58
1074.147	531.92
1079.214	538.92
1084.276	533.25
1089.333	546.58
1094.385	546.25
1099.431	545.25
1104.472	532.25
1109.509	522.92
1114.54	511.25
1119.565	503.92
1124.586	499.58
1129.602	487.25
1134.613	478.58
1139.618	480.25
1144.619	476.25
1149.614	476.58
1154.604	484.25
1159.589	489.92
1164.57	488.92
1169.545	485.92
1174.515	483.58
1179.48	474.58
1184.44	475.58
1189.395	466.25
1194.345	460.92
1199.29	463.92
1204.23	466.58
1209.165	463.92
1214.095	468.58
1219.021	464.92
1223.941	458.58
1228.856	480.92
1233.766	475.25
1238.672	477.92
1243.572	465.92
1248.467	458.92
1253.358	452.58
1258.244	458.58
1263.124	434.58
1268	426.25
1272.871	420.25
1277.737	421.92
1282.599	418.58
1287.455	416.58
1292.306	424.58
1297.153	432.58
1301.995	422.58
1306.832	423.25
1311.664	414.58
1316.491	428.58
1321.314	420.58
1326.132	398.25
1330.945	389.58
1335.753	382.25
1340.556	379.58
1345.354	367.58
1350.148	365.92
1354.937	365.25
1359.722	361.58
1364.501	361.58
1369.276	354.58
1374.046	368.58
1378.811	365.58
1383.572	371.92
1388.327	362.58
1393.079	350.25
1397.825	350.58
1402.567	344.25
1407.304	332.92
1412.036	331.92
1416.764	330.92
1421.487	338.92
1426.205	332.25
1430.919	337.92
1435.628	340.58
1440.333	348.92
1445.032	355.25
1449.727	360.58
1454.418	366.58
1459.104	369.92
1463.785	363.25
1468.462	351.58
1473.134	339.92
1477.802	333.58
1482.465	333.25
1487.123	324.92
1491.777	334.92
1496.426	356.58
1501.071	361.25
1505.711	357.25
1510.347	364.58
1514.978	378.25
1519.604	378.92
1524.226	377.25
1528.844	381.58
1533.457	384.92
1538.065	393.58
1542.669	381.58
1547.269	386.92
1551.864	396.92
1556.454	415.25
1561.041	415.25
1565.622	417.92
1570.199	433.92
1574.772	449.58
1579.34	468.92
1583.904	495.25
1588.464	497.25
1593.019	530.92
1597.569	541.92
1602.115	560.25
1606.657	572.58
1611.195	597.25
1615.728	608.25
1620.256	641.58
1624.78	656.58
1629.3	659.92
1633.816	676.25
1638.327	706.92
1642.834	704.58
1647.336	723.92
1651.834	711.58
1656.328	719.92
1660.817	697.25
1665.302	683.92
1669.783	654.58
1674.259	613.92
1678.732	574.25
1683.199	532.25
1687.663	516.58
1692.122	471.25
1696.577	441.58
1701.028	418.25
1705.474	398.25
1709.917	372.92
1714.355	344.25
1718.788	322.58
1723.218	309.92
1727.643	280.92
1732.064	257.92
1736.481	240.58
1740.893	221.25
1745.301	201.58
1749.705	184.58
1754.105	174.58
1758.501	165.25
1762.893	151.58
1767.28	140.25
1771.663	137.25
1776.042	126.58
1780.417	128.92
1784.787	122.25
1789.154	120.25
1793.516	110.92
1797.874	110.58
1802.228	112.58
1806.578	107.92
1810.924	99.25
1815.266	104.58
1819.603	94.58
1823.937	89.92
1828.266	84.25
1832.591	84.92
1836.913	77.92
1841.23	80.58
1845.543	79.25
1849.852	72.92
1854.156	71.92
1858.457	69.92
1862.754	70.92
1867.047	77.25
1871.335	75.58
1875.62	75.58
1879.9	73.92
1884.177	72.25
1888.449	79.92
1892.718	68.58
1896.982	77.25
1901.243	82.58
1905.499	69.92
1909.752	78.25
1914	74.25
1918.245	75.92
1922.485	81.92
1926.722	81.58
1930.954	81.25
1935.183	85.58
1939.408	86.58
1943.628	85.58
1947.845	84.25
1952.058	89.25
1956.267	86.92
1960.472	85.92
1964.673	90.25
1968.87	84.25
1973.063	77.58
1977.252	79.92
1981.438	86.92
1985.619	81.25
1989.797	76.25
1993.971	86.92
1998.14	80.92
2002.306	84.92
2006.469	84.58
2010.627	94.58
2014.781	89.92
2018.932	90.58
2023.078	93.25
2027.221	90.58
2031.36	94.58
2035.495	87.58
2039.627	101.25
2043.754	89.25
2047.878	94.25
2051.998	94.58
2056.114	96.92
2060.226	100.25
2064.334	98.25
2068.439	105.58
2072.54	105.25
2076.637	107.58
2080.73	107.92
2084.82	112.58
2088.906	111.25
2092.988	116.58
2097.066	111.58
2101.14	104.25
2105.211	107.58
2109.278	109.58
2113.342	102.25
2117.401	100.92
2121.457	101.25
2125.509	102.92
2129.558	97.58
2133.602	95.58
2137.643	99.25
2141.681	93.92
2145.714	93.25
2149.744	88.92
2153.77	89.58
2157.793	84.25
2161.812	75.58
2165.827	80.58
2169.838	72.25
2173.846	70.58
2177.851	61.58
2181.851	57.25
2185.848	54.58
2189.841	48.25
2193.831	52.58
2197.817	47.58
2201.799	50.25
2205.778	40.25
2209.753	45.25
2213.725	42.58
2217.693	41.92
2221.657	35.25
2225.618	38.25
2229.575	36.92
2233.529	29.58
2237.479	27.58
2241.425	25.58
2245.368	17.92
2249.307	20.25
2253.243	15.58
2257.175	9.92
2261.104	12.58
2265.029	8.25
2268.95	4.25
2272.868	3.58
2276.783	-0.75
2280.694	-1.75
2284.601	-4.42
2288.505	-3.75
2292.405	-6.08
2296.302	-9.42
2300.195	-12.08
2304.085	-15.75
2307.971	-14.42
2311.854	-16.75
2315.734	-20.42
2319.609	-20.42
2323.482	-19.42
2327.351	-21.75
2331.216	-20.08
2335.078	-22.42
2338.937	-22.08
2342.792	-26.08
2346.643	-28.08
2350.492	-28.75
2354.336	-33.42
2358.178	-31.75
2362.015	-32.42
2365.85	-36.08
2369.681	-33.75
2373.508	-34.75
2377.333	-33.08
2381.153	-33.42
2384.971	-34.42
2388.785	-32.42
2392.595	-29.08
2396.402	-35.08
2400.206	-35.42
2404.007	-37.75
2407.804	-38.08
2411.597	-40.42
2415.388	-42.75
2419.174	-44.08
2422.958	-42.08
2426.738	-41.08
2430.515	-44.42
2434.289	-42.75
2438.059	-49.08
2441.825	-47.42
2445.589	-45.08
2449.349	-45.75
2453.106	-42.42
2456.859	-46.08
2460.61	-52.08
2464.356	-45.08
2468.1	-46.75
2471.84	-47.42
2475.577	-48.42
2479.311	-48.42
2483.041	-54.75
2486.768	-51.75
2490.492	-54.08
2494.213	-49.42
2497.93	-55.42
2501.644	-52.42
2505.355	-54.08
2509.062	-51.42
2512.766	-52.42
2516.467	-54.08
2520.165	-50.75
2523.859	-54.08
2527.551	-54.42
2531.239	-56.75
2534.923	-57.75
2538.605	-55.08
2542.283	-55.75
2545.958	-54.75
2549.63	-53.42
2553.299	-54.75
2556.964	-53.08
2560.626	-52.42
2564.285	-53.08
2567.941	-53.42
2571.594	-52.42
2575.243	-52.42
2578.89	-60.42
2582.533	-58.42
2586.173	-54.75
2589.809	-58.75
2593.443	-57.75
2597.073	-59.08
2600.701	-61.42
2604.325	-59.08
2607.946	-64.75
2611.564	-60.08
2615.178	-60.42
2618.79	-61.42
2622.398	-60.08
2626.004	-58.08
2629.606	-62.75
2633.205	-58.08
2636.801	-61.08
2640.394	-59.42
2643.983	-60.42
2647.57	-65.08
2651.153	-61.42
2654.734	-60.42
2658.311	-61.75
2661.885	-65.08
2665.456	-62.08
2669.025	-65.75
2672.589	-63.42
2676.151	-60.42
2679.71	-58.75
2683.266	-57.08
2686.819	-60.42
2690.368	-57.08
2693.915	-61.75
2697.458	-59.75
2700.999	-58.42
2704.536	-61.08
2708.071	-61.08
2711.602	-61.08
2715.13	-58.75
2718.656	-55.08
2722.178	-53.08
2725.697	-58.75
2729.214	-53.75
2732.727	-51.08
2736.237	-49.75
2739.744	-49.42
2743.249	-48.42
2746.75	-51.75
2750.248	-50.42
2753.743	-51.08
2757.236	-48.42
2760.725	-50.42
2764.211	-49.08
2767.695	-48.08
2771.175	-43.08
2774.652	-44.75
2778.127	-43.75
2781.598	-40.42
2785.067	-39.42
2788.532	-40.08
2791.995	-34.42
2795.455	-38.08
2798.911	-34.08
2802.365	-37.08
2805.816	-33.42
2809.264	-32.75
2812.709	-31.42
2816.151	-33.08
2819.59	-28.08
2823.026	-26.75
2826.46	-21.75
2829.89	-18.08
2833.318	-16.42
2836.742	-15.75
2840.164	-9.42
2843.583	-10.42
2846.999	-9.42
2850.412	-0.42
2853.822	-2.75
2857.229	-0.42
2860.634	-2.42
2864.035	-0.08
2867.434	10.25
2870.83	7.58
2874.223	19.25
2877.613	18.58
2881	28.92
2884.385	26.92
2887.766	34.25
2891.145	38.58
2894.521	36.25
2897.894	40.58
2901.264	38.58
2904.631	46.25
2907.996	45.58
2911.358	50.58
2914.717	54.92
2918.073	52.58
2921.426	62.25
2924.777	67.58
2928.124	78.25
2931.469	87.58
2934.811	88.92
2938.15	94.58
2941.487	91.92
2944.821	105.58
2948.152	108.92
2951.48	111.25
2954.805	110.58
2958.128	113.92
2961.447	118.25
2964.765	128.58
2968.079	129.58
2971.39	134.92
2974.699	150.25
2978.005	152.25
2981.308	162.92
2984.609	177.58
2987.907	188.25
2991.202	190.92
2994.494	201.58
2997.784	214.58
3001.07	221.25
3004.355	231.25
3007.636	238.58
3010.915	238.58
3014.191	248.25
3017.464	254.58
3020.734	261.25
3024.002	275.25
3027.267	284.58
3030.53	284.92
3033.789	310.92
3037.046	320.25
3040.301	330.25
3043.552	322.92
3046.801	356.58
3050.048	363.92
3053.291	372.25
3056.532	390.58
3059.771	412.92
3063.006	427.58
3066.239	443.92
3069.469	454.25
3072.697	471.58
3075.922	485.25
3079.144	508.58
3082.364	529.25
3085.581	540.92
3088.795	570.58
3092.007	579.25
3095.216	604.25
3098.423	609.58
3101.627	622.92
3104.828	641.25
3108.026	664.58
3111.222	691.25
3114.416	700.58
3117.607	726.25
3120.795	734.58
3123.98	757.25
3127.163	779.92
3130.344	805.92
3133.521	819.25
3136.696	843.92
3139.869	871.25
3143.039	881.58
3146.206	903.92
3149.371	912.92
3152.533	917.25
3155.693	936.25
3158.85	930.92
3162.005	956.25
3165.157	949.25
3168.306	971.58
3171.453	959.25
3174.597	974.92
3177.739	984.92
3180.878	965.58
3184.014	981.92
3187.149	981.58
3190.28	992.58
3193.409	1005.58
3196.536	1016.25
3199.659	1005.92
3202.781	994.58
3205.9	1008.92
3209.016	1006.25
3212.13	1010.92
3215.241	1013.58
3218.35	1003.25
3221.456	991.25
3224.56	1002.92
3227.661	994.92
3230.76	977.58
3233.856	973.92
3236.95	959.25
3240.041	950.92
3243.13	962.92
3246.216	954.92
3249.3	942.25
3252.382	939.25
3255.46	949.58
3258.537	941.92
3261.611	939.25
3264.682	938.58
3267.751	938.58
3270.818	930.58
3273.882	925.58
3276.943	927.58
3280.002	898.92
3283.059	899.25
3286.113	876.25
3289.165	873.25
3292.214	867.25
3295.261	847.58
3298.306	835.58
3301.348	819.25
3304.387	808.58
3307.425	802.58
3310.459	790.58
3313.492	778.58
3316.521	772.58
3319.549	758.25
3322.574	763.25
3325.597	749.25
3328.617	746.92
3331.635	753.58
3334.65	753.92
3337.663	732.25
3340.674	729.92
3343.682	734.92
3346.688	726.25
3349.691	734.92
3352.692	721.92
3355.691	731.25
3358.687	717.58
3361.681	709.92
3364.673	704.58
3367.662	703.92
3370.649	690.92
3373.633	679.25
3376.615	670.25
3379.595	668.92
3382.572	634.92
3385.547	629.58
3388.52	634.25
3391.49	638.58
3394.458	617.25
3397.424	625.25
3400.387	607.25
3403.348	607.92
3406.307	588.58
3409.263	592.58
3412.217	577.92
3415.168	576.92
3418.118	581.25
3421.065	560.92
3424.009	558.58
3426.951	537.58
3429.891	538.92
3432.829	524.92
3435.764	527.25
3438.697	515.92
3441.628	500.92
3444.557	483.92
3447.483	478.58
3450.407	462.58
3453.328	448.58
3456.247	450.92
3459.164	422.92
3462.079	409.58
3464.991	401.58
3467.902	392.92
3470.809	372.58
3473.715	369.58
3476.618	347.58
3479.519	340.92
3482.418	330.92
3485.315	338.58
3488.209	321.92
3491.101	310.25
3493.99	310.25
3496.878	300.25
3499.763	285.92
3502.646	276.58
3505.527	271.25
3508.405	252.25
3511.281	241.25
3514.155	235.25
3517.027	228.92
3519.897	212.58
3522.764	202.92
3525.629	192.25
3528.492	179.58
3531.352	170.92
3534.211	156.92
3537.067	150.25
3539.921	143.92
3542.773	133.92
3545.622	119.92
3548.469	110.25
3551.315	108.92
3554.157	101.92
3556.998	100.92
3559.837	85.92
3562.673	85.58
3565.507	75.25
3568.339	72.25
3571.169	70.58
3573.996	65.58
3576.822	57.25
3579.645	59.58
3582.466	45.25
3585.285	40.25
3588.101	36.92
3590.916	32.25
3593.728	18.92
3596.538	14.58
3599.346	12.92
3602.152	7.58
3604.956	4.25
3607.757	0.58
3610.556	1.25
3613.354	-7.75
3616.149	-6.08
3618.942	-5.42
3621.732	-10.42
3624.521	-14.42
3627.307	-13.75
3630.092	-20.08
3632.874	-21.42
3635.654	-27.08
3638.432	-30.08
3641.208	-31.75
3643.982	-37.08
3646.753	-39.08
3649.523	-42.42
3652.29	-39.42
3655.055	-48.75
3657.818	-48.42
3660.579	-49.08
3663.338	-54.42
3666.095	-50.08
3668.849	-58.42
3671.602	-59.08
3674.352	-59.08
3677.101	-61.42
3679.847	-65.42
3682.591	-67.42
3685.333	-67.75
3688.073	-73.08
3690.811	-68.42
3693.547	-76.42
3696.281	-74.75
3699.013	-74.75
3701.742	-78.08
3704.47	-77.08
3707.195	-76.42
3709.919	-78.42
3712.64	-77.42
3715.359	-82.75
3718.076	-80.75
3720.792	-84.08
3723.505	-89.75
3726.216	-87.75
3728.925	-90.42
3731.632	-84.42
3734.336	-90.75
3737.039	-87.75
3739.74	-86.42
3742.439	-87.08
3745.136	-89.42
3747.83	-90.42
3750.523	-89.75
3753.213	-92.42
3755.902	-93.08
3758.589	-89.42
3761.273	-94.75
3763.956	-94.42
3766.636	-93.42
3769.315	-93.42
3771.991	-95.08
3774.665	-98.08
3777.338	-93.75
3780.008	-94.08
3782.677	-92.08
3785.343	-91.08
3788.007	-95.42
3790.67	-97.42
3793.33	-92.75
3795.989	-92.75
3798.645	-91.75
3801.299	-95.75
3803.952	-92.42
3806.602	-97.08
3809.251	-100.08
3811.897	-101.75
3814.542	-100.75
3817.184	-100.08
3819.825	-96.75
3822.463	-101.08
3825.1	-98.75
3827.735	-97.08
3830.367	-97.42
3832.998	-98.08
3835.627	-97.42
3838.253	-94.08
3840.878	-97.08
3843.501	-95.42
3846.122	-98.08
3848.741	-97.75
3851.358	-100.42
3853.973	-102.75
3856.586	-103.08
3859.197	-99.75
3861.806	-98.75
3864.414	-103.08
3867.019	-102.75
3869.622	-101.75
3872.224	-95.75
3874.823	-95.75
3877.421	-91.08
3880.016	-84.08
3882.61	-79.75
3885.202	-80.08
3887.792	-85.75
3890.38	-90.42
3892.966	-95.42
3895.55	-100.75
3898.132	-104.42
3900.713	-103.75
3903.291	-101.08
3905.868	-101.75
3908.442	-100.42
3911.015	-98.75
3913.586	-101.75
3916.155	-100.08
3918.722	-100.75
3921.287	-99.08
3923.85	-100.08
3926.411	-101.08
3928.971	-101.42
3931.528	-104.42
3934.084	-101.75
3936.638	-104.08
3939.19	-102.75
3941.74	-104.75
3944.288	-103.42
3946.834	-102.75
3949.378	-102.75
3951.921	-103.08
3954.462	-101.75
3957	-100.75
3959.537	-100.75
3962.072	-100.75
3964.606	-100.75
3967.137	-102.75
3969.667	-101.42
3972.194	-104.75
3974.72	-104.75
3977.244	-104.08
3979.766	-104.08
3982.286	-101.42
3984.805	-101.75
3987.321	-98.42
3989.836	-97.75
3992.349	-96.75
3994.86	-99.75
3997.369	-96.42
3999.877	-99.42
4002.382	-98.42
4004.886	-98.42
4007.388	-99.08
4009.888	-98.75
4012.386	-100.08
4014.883	-102.08
4017.377	-99.42
4019.87	-101.75
4022.361	-102.75
4024.85	-99.42
4027.338	-101.75
4029.823	-101.08
4032.307	-99.75
4034.789	-98.75
4037.269	-99.75
4039.747	-99.75
4042.224	-101.08
4044.699	-98.08
4047.172	-104.08
4049.643	-103.42
4052.112	-104.75
4054.58	-102.75
4057.046	-102.75
4059.51	-100.42
4061.972	-99.75
4064.432	-100.08
4066.891	-100.42
4069.348	-97.75
4071.803	-98.75
4074.256	-98.08
4076.708	-101.42
4079.158	-99.75
4081.606	-101.08
4084.052	-99.75
4086.497	-103.42
4088.939	-102.42
4091.38	-105.42
4093.819	-102.42
4096.257	-106.42
4098.693	-104.42
4101.127	-104.08
4103.559	-103.42
4105.989	-64.08
4108.418	-62.08
4110.845	-62.08
4113.27	-56.08
4115.694	-45.42
4118.115	-42.75
4120.535	-102.08
4122.954	-100.75
4125.37	-97.75
4127.785	-101.08
4130.198	-102.08
4132.609	-97.75
4135.019	-103.08
4137.427	-105.42
4139.833	-102.75
4142.237	-106.08
