Data from DW_1 (I=1 T=5x3 V=3ml)_RamanShift_9.txt Node
Date: Mon Jun 05 13:11:10 IDT 2017
User: aro
Spectrometer: QEPB0276
Trigger mode: 0
Integration Time (sec): 5.000000E0
Scans to average: 1
Electric dark correction enabled: true
Nonlinearity correction enabled: false
Boxcar width: 0
XAxis mode: Raman Shifts
Number of Pixels in Spectrum: 1044
>>>>>Begin Spectral Data<<<<<
160.701	-23.25
166.742	2.42
172.777	85.42
178.805	354.75
184.826	994.08
190.841	2104.08
196.849	3344.42
202.85	4147.42
208.845	4360.75
214.833	4189.75
220.815	3991.42
226.789	3863.42
232.758	3733.75
238.719	3599.08
244.674	3435.08
250.623	3275.75
256.565	3098.08
262.5	2920.75
268.429	2762.42
274.351	2659.42
280.267	2533.42
286.176	2415.08
292.079	2333.08
297.975	2243.42
303.865	2182.08
309.748	2119.75
315.625	2035.42
321.495	2004.42
327.359	1959.75
333.217	1956.42
339.068	1950.75
344.912	1938.08
350.751	1910.42
356.583	1913.42
362.408	1918.42
368.227	1906.75
374.04	1937.42
379.847	1953.08
385.647	1978.08
391.44	1955.42
397.228	1963.75
403.009	1940.42
408.784	1981.42
414.553	2070.42
420.315	2126.08
426.071	2129.42
431.821	2038.08
437.565	1986.42
443.302	1950.42
449.033	1931.75
454.758	1914.08
460.477	1916.42
466.189	1911.75
471.896	1875.75
477.596	1860.42
483.29	1824.08
488.978	1829.42
494.66	1810.42
500.335	1783.42
506.005	1739.08
511.668	1696.08
517.325	1673.75
522.977	1623.42
528.622	1600.08
534.261	1588.42
539.894	1553.75
545.521	1545.75
551.141	1523.75
556.756	1490.75
562.365	1506.42
567.968	1490.42
573.565	1452.75
579.155	1443.08
584.74	1421.42
590.319	1401.42
595.892	1399.08
601.459	1388.08
607.02	1357.42
612.575	1364.42
618.124	1324.42
623.667	1310.75
629.204	1305.75
634.735	1299.42
640.261	1298.08
645.781	1321.42
651.294	1307.75
656.802	1277.75
662.304	1228.75
667.8	1227.75
673.29	1204.08
678.775	1204.75
684.254	1187.75
689.726	1172.75
695.193	1160.08
700.655	1150.08
706.11	1121.42
711.56	1123.08
717.004	1107.42
722.442	1094.42
727.874	1073.08
733.301	1076.75
738.722	1070.42
744.137	1067.75
749.547	1061.08
754.951	1063.08
760.349	1042.42
765.741	1034.42
771.128	1027.42
776.509	1038.08
781.885	1015.08
787.254	998.42
792.618	999.75
797.977	981.42
803.33	967.08
808.677	943.08
814.019	933.42
819.355	925.08
824.686	895.75
830.011	887.75
835.33	867.42
840.644	860.42
845.952	864.42
851.255	840.42
856.552	840.42
861.844	833.42
867.13	821.75
872.41	813.75
877.686	813.42
882.955	805.75
888.219	781.42
893.478	746.75
898.731	727.42
903.979	700.75
909.221	690.08
914.458	676.42
919.69	669.08
924.916	662.42
930.136	633.75
935.351	647.75
940.561	642.08
945.766	639.08
950.965	612.42
956.158	608.08
961.347	600.75
966.529	581.08
971.707	567.42
976.879	563.08
982.046	551.42
987.208	550.08
992.364	537.75
997.515	552.08
1002.66	543.42
1007.801	557.75
1012.936	559.42
1018.066	560.08
1023.19	557.42
1028.309	545.42
1033.423	555.42
1038.532	555.42
1043.636	538.75
1048.734	543.75
1053.827	525.75
1058.915	518.75
1063.998	515.42
1069.075	508.08
1074.147	507.42
1079.214	515.42
1084.276	519.75
1089.333	523.08
1094.385	518.75
1099.431	521.75
1104.472	519.75
1109.509	498.42
1114.54	496.75
1119.565	479.42
1124.586	477.08
1129.602	472.75
1134.613	461.08
1139.618	472.75
1144.619	463.75
1149.614	460.08
1154.604	469.75
1159.589	461.42
1164.57	465.42
1169.545	473.42
1174.515	471.08
1179.48	468.08
1184.44	458.08
1189.395	460.75
1194.345	443.42
1199.29	436.42
1204.23	447.08
1209.165	442.42
1214.095	457.08
1219.021	457.42
1223.941	462.08
1228.856	466.42
1233.766	463.75
1238.672	459.42
1243.572	460.42
1248.467	453.42
1253.358	449.08
1258.244	435.08
1263.124	428.08
1268	415.75
1272.871	402.75
1277.737	403.42
1282.599	406.08
1287.455	411.08
1292.306	411.08
1297.153	405.08
1301.995	406.08
1306.832	404.75
1311.664	414.08
1316.491	414.08
1321.314	404.08
1326.132	385.75
1330.945	391.08
1335.753	377.75
1340.556	368.08
1345.354	364.08
1350.148	352.42
1354.937	358.75
1359.722	348.08
1364.501	344.08
1369.276	351.08
1374.046	361.08
1378.811	356.08
1383.572	351.42
1388.327	353.08
1393.079	357.75
1397.825	344.08
1402.567	331.75
1407.304	328.42
1412.036	329.42
1416.764	315.42
1421.487	315.42
1426.205	315.75
1430.919	322.42
1435.628	334.08
1440.333	330.42
1445.032	327.75
1449.727	340.08
1454.418	343.08
1459.104	357.42
1463.785	344.75
1468.462	335.08
1473.134	326.42
1477.802	320.08
1482.465	319.75
1487.123	316.42
1491.777	317.42
1496.426	329.08
1501.071	344.75
1505.711	338.75
1510.347	351.08
1514.978	357.75
1519.604	358.42
1524.226	373.75
1528.844	372.08
1533.457	378.42
1538.065	380.08
1542.669	377.08
1547.269	382.42
1551.864	384.42
1556.454	398.75
1561.041	399.75
1565.622	398.42
1570.199	421.42
1574.772	437.08
1579.34	456.42
1583.904	470.75
1588.464	495.75
1593.019	508.42
1597.569	526.42
1602.115	550.75
1606.657	569.08
1611.195	580.75
1615.728	593.75
1620.256	610.08
1624.78	631.08
1629.3	645.42
1633.816	666.75
1638.327	683.42
1642.834	688.08
1647.336	700.42
1651.834	701.08
1656.328	696.42
1660.817	676.75
1665.302	648.42
1669.783	630.08
1674.259	597.42
1678.732	567.75
1683.199	525.75
1687.663	490.08
1692.122	454.75
1696.577	434.08
1701.028	403.75
1705.474	380.75
1709.917	362.42
1714.355	338.75
1718.788	313.08
1723.218	297.42
1727.643	267.42
1732.064	252.42
1736.481	226.08
1740.893	207.75
1745.301	188.08
1749.705	175.08
1754.105	166.08
1758.501	157.75
1762.893	135.08
1767.28	133.75
1771.663	127.75
1776.042	118.08
1780.417	120.42
1784.787	114.75
1789.154	116.75
1793.516	110.42
1797.874	109.08
1802.228	111.08
1806.578	101.42
1810.924	97.75
1815.266	92.08
1819.603	88.08
1823.937	87.42
1828.266	85.75
1832.591	76.42
1836.913	65.42
1841.23	67.08
1845.543	71.75
1849.852	65.42
1854.156	65.42
1858.457	65.42
1862.754	68.42
1867.047	68.75
1871.335	68.08
1875.62	69.08
1879.9	66.42
1884.177	70.75
1888.449	65.42
1892.718	63.08
1896.982	66.75
1901.243	68.08
1905.499	67.42
1909.752	74.75
1914	68.75
1918.245	68.42
1922.485	75.42
1926.722	74.08
1930.954	81.75
1935.183	86.08
1939.408	79.08
1943.628	80.08
1947.845	86.75
1952.058	84.75
1956.267	78.42
1960.472	81.42
1964.673	76.75
1968.87	75.75
1973.063	70.08
1977.252	79.42
1981.438	77.42
1985.619	73.75
1989.797	76.75
1993.971	77.42
1998.14	80.42
2002.306	78.42
2006.469	76.08
2010.627	76.08
2014.781	76.42
2018.932	86.08
2023.078	87.75
2027.221	86.08
2031.36	90.08
2035.495	86.08
2039.627	81.75
2043.754	86.75
2047.878	89.75
2051.998	88.08
2056.114	95.42
2060.226	95.75
2064.334	94.75
2068.439	95.08
2072.54	96.75
2076.637	95.08
2080.73	102.42
2084.82	103.08
2088.906	108.75
2092.988	98.08
2097.066	101.08
2101.14	100.75
2105.211	98.08
2109.278	100.08
2113.342	91.75
2117.401	97.42
2121.457	98.75
2125.509	93.42
2129.558	93.08
2133.602	91.08
2137.643	83.75
2141.681	82.42
2145.714	83.75
2149.744	85.42
2153.77	77.08
2157.793	75.75
2161.812	73.08
2165.827	64.08
2169.838	60.75
2173.846	63.08
2177.851	58.08
2181.851	56.75
2185.848	52.08
2189.841	48.75
2193.831	44.08
2197.817	45.08
2201.799	40.75
2205.778	40.75
2209.753	36.75
2213.725	30.08
2217.693	36.42
2221.657	28.75
2225.618	29.75
2229.575	29.42
2233.529	29.08
2237.479	29.08
2241.425	24.08
2245.368	22.42
2249.307	16.75
2253.243	15.08
2257.175	7.42
2261.104	3.08
2265.029	0.75
2268.95	-5.25
2272.868	-1.92
2276.783	-11.25
2280.694	-5.25
2284.601	-4.92
2288.505	-6.25
2292.405	-9.58
2296.302	-13.92
2300.195	-14.58
2304.085	-16.25
2307.971	-13.92
2311.854	-17.25
2315.734	-17.92
2319.609	-24.92
2323.482	-24.92
2327.351	-24.25
2331.216	-22.58
2335.078	-24.92
2338.937	-31.58
2342.792	-32.58
2346.643	-36.58
2350.492	-39.25
2354.336	-34.92
2358.178	-37.25
2362.015	-33.92
2365.85	-34.58
2369.681	-35.25
2373.508	-39.25
2377.333	-35.58
2381.153	-36.92
2384.971	-37.92
2388.785	-35.92
2392.595	-40.58
2396.402	-39.58
2400.206	-40.92
2404.007	-43.25
2407.804	-37.58
2411.597	-43.92
2415.388	-40.25
2419.174	-45.58
2422.958	-49.58
2426.738	-42.58
2430.515	-46.92
2434.289	-49.25
2438.059	-54.58
2441.825	-49.92
2445.589	-49.58
2449.349	-54.25
2453.106	-52.92
2456.859	-50.58
2460.61	-53.58
2464.356	-52.58
2468.1	-52.25
2471.84	-49.92
2475.577	-48.92
2479.311	-49.92
2483.041	-53.25
2486.768	-52.25
2490.492	-53.58
2494.213	-52.92
2497.93	-57.92
2501.644	-57.92
2505.355	-59.58
2509.062	-57.92
2512.766	-58.92
2516.467	-59.58
2520.165	-59.25
2523.859	-55.58
2527.551	-55.92
2531.239	-57.25
2534.923	-55.25
2538.605	-53.58
2542.283	-52.25
2545.958	-55.25
2549.63	-53.92
2553.299	-58.25
2556.964	-57.58
2560.626	-56.92
2564.285	-58.58
2567.941	-60.92
2571.594	-54.92
2575.243	-56.92
2578.89	-60.92
2582.533	-60.92
2586.173	-61.25
2589.809	-60.25
2593.443	-60.25
2597.073	-61.58
2600.701	-58.92
2604.325	-64.58
2607.946	-64.25
2611.564	-65.58
2615.178	-65.92
2618.79	-63.92
2622.398	-62.58
2626.004	-57.58
2629.606	-63.25
2633.205	-64.58
2636.801	-60.58
2640.394	-58.92
2643.983	-63.92
2647.57	-62.58
2651.153	-66.92
2654.734	-64.92
2658.311	-68.25
2661.885	-65.58
2665.456	-65.58
2669.025	-68.25
2672.589	-63.92
2676.151	-65.92
2679.71	-64.25
2683.266	-63.58
2686.819	-64.92
2690.368	-61.58
2693.915	-63.25
2697.458	-60.25
2700.999	-61.92
2704.536	-59.58
2708.071	-62.58
2711.602	-62.58
2715.13	-65.25
2718.656	-60.58
2722.178	-60.58
2725.697	-65.25
2729.214	-60.25
2732.727	-53.58
2736.237	-59.25
2739.744	-55.92
2743.249	-57.92
2746.75	-52.25
2750.248	-50.92
2753.743	-51.58
2757.236	-53.92
2760.725	-47.92
2764.211	-46.58
2767.695	-50.58
2771.175	-49.58
2774.652	-46.25
2778.127	-49.25
2781.598	-44.92
2785.067	-41.92
2788.532	-42.58
2791.995	-44.92
2795.455	-42.58
2798.911	-39.58
2802.365	-35.58
2805.816	-35.92
2809.264	-34.25
2812.709	-36.92
2816.151	-34.58
2819.59	-28.58
2823.026	-27.25
2826.46	-25.25
2829.89	-29.58
2833.318	-21.92
2836.742	-19.25
2840.164	-21.92
2843.583	-14.92
2846.999	-10.92
2850.412	-9.92
2853.822	-0.25
2857.229	-6.92
2860.634	-1.92
2864.035	-4.58
2867.434	3.75
2870.83	7.08
2874.223	7.75
2877.613	13.08
2881	16.42
2884.385	21.42
2887.766	27.75
2891.145	27.08
2894.521	34.75
2897.894	40.08
2901.264	36.08
2904.631	39.75
2907.996	41.08
2911.358	50.08
2914.717	46.42
2918.073	55.08
2921.426	48.75
2924.777	58.08
2928.124	63.75
2931.469	75.08
2934.811	81.42
2938.15	87.08
2941.487	96.42
2944.821	94.08
2948.152	99.42
2951.48	102.75
2954.805	100.08
2958.128	108.42
2961.447	110.75
2964.765	111.08
2968.079	118.08
2971.39	127.42
2974.699	137.75
2978.005	143.75
2981.308	151.42
2984.609	160.08
2987.907	173.75
2991.202	187.42
2994.494	185.08
2997.784	199.08
3001.07	213.75
3004.355	223.75
3007.636	217.08
3010.915	235.08
3014.191	239.75
3017.464	244.08
3020.734	256.75
3024.002	263.75
3027.267	276.08
3030.53	273.42
3033.789	293.42
3037.046	300.75
3040.301	306.75
3043.552	325.42
3046.801	328.08
3050.048	353.42
3053.291	371.75
3056.532	368.08
3059.771	387.42
3063.006	414.08
3066.239	417.42
3069.469	437.75
3072.697	448.08
3075.922	476.75
3079.144	496.08
3082.364	508.75
3085.581	518.42
3088.795	545.08
3092.007	557.75
3095.216	566.75
3098.423	588.08
3101.627	616.42
3104.828	625.75
3108.026	638.08
3111.222	661.75
3114.416	687.08
3117.607	718.75
3120.795	723.08
3123.98	729.75
3127.163	762.42
3130.344	794.42
3133.521	798.75
3136.696	815.42
3139.869	843.75
3143.039	855.08
3146.206	884.42
3149.371	890.42
3152.533	891.75
3155.693	905.75
3158.85	910.42
3162.005	928.75
3165.157	925.75
3168.306	940.08
3171.453	948.75
3174.597	941.42
3177.739	947.42
3180.878	954.08
3184.014	963.42
3187.149	946.08
3190.28	991.08
3193.409	969.08
3196.536	979.75
3199.659	983.42
3202.781	989.08
3205.9	986.42
3209.016	987.75
3212.13	987.42
3215.241	981.08
3218.35	973.75
3221.456	971.75
3224.56	963.42
3227.661	962.42
3230.76	952.08
3233.856	952.42
3236.95	942.75
3240.041	934.42
3243.13	918.42
3246.216	924.42
3249.3	917.75
3252.382	913.75
3255.46	914.08
3258.537	915.42
3261.611	906.75
3264.682	918.08
3267.751	905.08
3270.818	897.08
3273.882	917.08
3276.943	899.08
3280.002	883.42
3283.059	883.75
3286.113	865.75
3289.165	862.75
3292.214	847.75
3295.261	826.08
3298.306	824.08
3301.348	810.75
3304.387	792.08
3307.425	784.08
3310.459	778.08
3313.492	752.08
3316.521	758.08
3319.549	742.75
3322.574	734.75
3325.597	744.75
3328.617	731.42
3331.635	723.08
3334.65	719.42
3337.663	717.75
3340.674	714.42
3343.682	723.42
3346.688	718.75
3349.691	710.42
3352.692	714.42
3355.691	697.75
3358.687	695.08
3361.681	689.42
3364.673	689.08
3367.662	672.42
3370.649	663.42
3373.633	660.75
3376.615	645.75
3379.595	634.42
3382.572	637.42
3385.547	625.08
3388.52	611.75
3391.49	607.08
3394.458	595.75
3397.424	602.75
3400.387	587.75
3403.348	579.42
3406.307	557.08
3409.263	566.08
3412.217	566.42
3415.168	560.42
3418.118	554.75
3421.065	547.42
3424.009	544.08
3426.951	539.08
3429.891	539.42
3432.829	527.42
3435.764	511.75
3438.697	490.42
3441.628	488.42
3444.557	463.42
3447.483	462.08
3450.407	438.08
3453.328	435.08
3456.247	423.42
3459.164	408.42
3462.079	398.08
3464.991	397.08
3467.902	389.42
3470.809	364.08
3473.715	359.08
3476.618	348.08
3479.519	335.42
3482.418	334.42
3485.315	316.08
3488.209	304.42
3491.101	293.75
3493.99	285.75
3496.878	287.75
3499.763	268.42
3502.646	275.08
3505.527	258.75
3508.405	243.75
3511.281	236.75
3514.155	236.75
3517.027	225.42
3519.897	204.08
3522.764	199.42
3525.629	188.75
3528.492	182.08
3531.352	154.42
3534.211	153.42
3537.067	140.75
3539.921	135.42
3542.773	124.42
3545.622	114.42
3548.469	114.75
3551.315	101.42
3554.157	97.42
3556.998	94.42
3559.837	83.42
3562.673	75.08
3565.507	75.75
3568.339	63.75
3571.169	63.08
3573.996	57.08
3576.822	49.75
3579.645	47.08
3582.466	38.75
3585.285	34.75
3588.101	27.42
3590.916	27.75
3593.728	23.42
3596.538	17.08
3599.346	6.42
3602.152	8.08
3604.956	4.75
3607.757	-2.92
3610.556	-2.25
3613.354	-8.25
3616.149	-10.58
3618.942	-8.92
3621.732	-17.92
3624.521	-23.92
3627.307	-27.25
3630.092	-30.58
3632.874	-29.92
3635.654	-33.58
3638.432	-29.58
3641.208	-33.25
3643.982	-38.58
3646.753	-36.58
3649.523	-44.92
3652.29	-43.92
3655.055	-46.25
3657.818	-51.92
3660.579	-55.58
3663.338	-58.92
3666.095	-59.58
3668.849	-60.92
3671.602	-60.58
3674.352	-63.58
3677.101	-67.92
3679.847	-65.92
3682.591	-66.92
3685.333	-68.25
3688.073	-73.58
3690.811	-74.92
3693.547	-71.92
3696.281	-77.25
3699.013	-75.25
3701.742	-81.58
3704.47	-81.58
3707.195	-81.92
3709.919	-84.92
3712.64	-84.92
3715.359	-88.25
3718.076	-83.25
3720.792	-86.58
3723.505	-86.25
3726.216	-89.25
3728.925	-82.92
3731.632	-84.92
3734.336	-89.25
3737.039	-86.25
3739.74	-87.92
3742.439	-92.58
3745.136	-91.92
3747.83	-91.92
3750.523	-97.25
3753.213	-93.92
3755.902	-98.58
3758.589	-90.92
3761.273	-96.25
3763.956	-94.92
3766.636	-94.92
3769.315	-93.92
3771.991	-93.58
3774.665	-94.58
3777.338	-94.25
3780.008	-93.58
3782.677	-93.58
3785.343	-95.58
3788.007	-98.92
3790.67	-96.92
3793.33	-95.25
3795.989	-101.25
3798.645	-99.25
3801.299	-96.25
3803.952	-97.92
3806.602	-95.58
3809.251	-97.58
3811.897	-96.25
3814.542	-97.25
3817.184	-100.58
3819.825	-100.25
3822.463	-99.58
3825.1	-102.25
3827.735	-98.58
3830.367	-100.92
3832.998	-100.58
3835.627	-101.92
3838.253	-103.58
3840.878	-101.58
3843.501	-100.92
3846.122	-100.58
3848.741	-96.25
3851.358	-99.92
3853.973	-99.25
3856.586	-100.58
3859.197	-101.25
3861.806	-97.25
3864.414	-103.58
3867.019	-104.25
3869.622	-103.25
3872.224	-100.25
3874.823	-102.25
3877.421	-93.58
3880.016	-89.58
3882.61	-88.25
3885.202	-82.58
3887.792	-87.25
3890.38	-91.92
3892.966	-97.92
3895.55	-102.25
3898.132	-104.92
3900.713	-104.25
3903.291	-104.58
3905.868	-103.25
3908.442	-102.92
3911.015	-102.25
3913.586	-103.25
3916.155	-103.58
3918.722	-105.25
3921.287	-100.58
3923.85	-102.58
3926.411	-101.58
3928.971	-101.92
3931.528	-103.92
3934.084	-101.25
3936.638	-104.58
3939.19	-105.25
3941.74	-105.25
3944.288	-102.92
3946.834	-103.25
3949.378	-105.25
3951.921	-104.58
3954.462	-104.25
3957	-103.25
3959.537	-102.25
3962.072	-102.25
3964.606	-102.25
3967.137	-102.25
3969.667	-102.92
3972.194	-104.25
3974.72	-99.25
3977.244	-103.58
3979.766	-102.58
3982.286	-101.92
3984.805	-103.25
3987.321	-102.92
3989.836	-101.25
3992.349	-100.25
3994.86	-100.25
3997.369	-101.92
3999.877	-99.92
4002.382	-100.92
4004.886	-97.92
4007.388	-98.58
4009.888	-100.25
4012.386	-103.58
4014.883	-99.58
4017.377	-102.92
4019.87	-103.25
4022.361	-103.25
4024.85	-103.92
4027.338	-101.25
4029.823	-105.58
4032.307	-102.25
4034.789	-102.25
4037.269	-101.25
4039.747	-99.25
4042.224	-102.58
4044.699	-100.58
4047.172	-104.58
4049.643	-101.92
4052.112	-103.25
4054.58	-104.25
4057.046	-101.25
4059.51	-104.92
4061.972	-104.25
4064.432	-101.58
4066.891	-103.92
4069.348	-103.25
4071.803	-101.25
4074.256	-102.58
4076.708	-101.92
4079.158	-102.25
4081.606	-104.58
4084.052	-103.25
4086.497	-103.92
4088.939	-101.92
4091.38	-105.92
4093.819	-104.92
4096.257	-106.92
4098.693	-106.92
4101.127	-107.58
4103.559	-106.92
4105.989	-71.58
4108.418	-66.58
4110.845	-57.58
4113.27	-58.58
4115.694	-49.92
4118.115	-44.25
4120.535	-105.58
4122.954	-106.25
4125.37	-100.25
4127.785	-101.58
4130.198	-103.58
4132.609	-100.25
4135.019	-104.58
4137.427	-105.92
4139.833	-103.25
4142.237	-105.58
