Data from DW_1 (I=1 T=5x3 V=3ml)_RamanShift_5.txt Node
Date: Mon Jun 05 13:07:32 IDT 2017
User: aro
Spectrometer: QEPB0276
Trigger mode: 0
Integration Time (sec): 5.000000E0
Scans to average: 1
Electric dark correction enabled: true
Nonlinearity correction enabled: false
Boxcar width: 0
XAxis mode: Raman Shifts
Number of Pixels in Spectrum: 1044
>>>>>Begin Spectral Data<<<<<
160.701	-24.88
166.742	-3.21
172.777	92.79
178.805	395.12
184.826	1082.46
190.841	2233.46
196.849	3617.79
202.85	4500.79
208.845	4723.12
214.833	4526.12
220.815	4368.79
226.789	4177.79
232.758	4041.12
238.719	3893.46
244.674	3738.46
250.623	3555.12
256.565	3394.46
262.5	3212.12
268.429	3048.79
274.351	2914.79
280.267	2779.79
286.176	2637.46
292.079	2563.46
297.975	2489.79
303.865	2411.46
309.748	2329.12
315.625	2257.79
321.495	2215.79
327.359	2186.12
333.217	2171.79
339.068	2155.12
344.912	2124.46
350.751	2122.79
356.583	2121.79
362.408	2107.79
368.227	2110.12
374.04	2156.79
379.847	2162.46
385.647	2167.46
391.44	2165.79
397.228	2164.12
403.009	2169.79
408.784	2197.79
414.553	2260.79
420.315	2328.46
426.071	2338.79
431.821	2268.46
437.565	2176.79
443.302	2159.79
449.033	2149.12
454.758	2123.46
460.477	2110.79
466.189	2067.12
471.896	2074.12
477.596	2062.79
483.29	2047.46
488.978	2028.79
494.66	2007.79
500.335	1966.79
506.005	1927.46
511.668	1884.46
517.325	1857.12
522.977	1818.79
528.622	1792.46
534.261	1766.79
539.894	1740.12
545.521	1710.12
551.141	1704.12
556.756	1701.12
562.365	1657.79
567.968	1659.79
573.565	1631.12
579.155	1622.46
584.74	1611.79
590.319	1600.79
595.892	1570.46
601.459	1568.46
607.02	1550.79
612.575	1531.79
618.124	1502.79
623.667	1486.12
629.204	1476.12
634.735	1453.79
640.261	1455.46
645.781	1469.79
651.294	1470.12
656.802	1449.12
662.304	1407.12
667.8	1398.12
673.29	1373.46
678.775	1373.12
684.254	1347.12
689.726	1341.12
695.193	1301.46
700.655	1308.46
706.11	1296.79
711.56	1270.46
717.004	1259.79
722.442	1254.79
727.874	1228.46
733.301	1219.12
738.722	1212.79
744.137	1216.12
749.547	1203.46
754.951	1209.46
760.349	1195.79
765.741	1186.79
771.128	1175.79
776.509	1161.46
781.885	1168.46
787.254	1142.79
792.618	1136.12
797.977	1125.79
803.33	1098.46
808.677	1094.46
814.019	1061.79
819.355	1057.46
824.686	1028.12
830.011	1014.12
835.33	1010.79
840.644	1007.79
845.952	988.79
851.255	992.79
856.552	981.79
861.844	957.79
867.13	936.12
872.41	937.12
877.686	917.79
882.955	911.12
888.219	884.79
893.478	852.12
898.731	831.79
903.979	810.12
909.221	801.46
914.458	786.79
919.69	766.46
924.916	780.79
930.136	758.12
935.351	761.12
940.561	756.46
945.766	735.46
950.965	729.79
956.158	720.46
961.347	714.12
966.529	704.46
971.707	684.79
976.879	676.46
982.046	656.79
987.208	656.46
992.364	651.12
997.515	651.46
1002.66	658.79
1007.801	647.12
1012.936	661.79
1018.066	668.46
1023.19	656.79
1028.309	670.79
1033.423	646.79
1038.532	652.79
1043.636	637.12
1048.734	633.12
1053.827	626.12
1058.915	619.12
1063.998	613.79
1069.075	606.46
1074.147	598.79
1079.214	602.79
1084.276	615.12
1089.333	619.46
1094.385	609.12
1099.431	638.12
1104.472	607.12
1109.509	608.79
1114.54	591.12
1119.565	589.79
1124.586	574.46
1129.602	574.12
1134.613	559.46
1139.618	562.12
1144.619	568.12
1149.614	553.46
1154.604	561.12
1159.589	568.79
1164.57	570.79
1169.545	569.79
1174.515	574.46
1179.48	568.46
1184.44	549.46
1189.395	561.12
1194.345	548.79
1199.29	547.79
1204.23	552.46
1209.165	546.79
1214.095	550.46
1219.021	540.79
1223.941	557.46
1228.856	558.79
1233.766	561.12
1238.672	560.79
1243.572	558.79
1248.467	553.79
1253.358	539.46
1258.244	535.46
1263.124	514.46
1268	506.12
1272.871	506.12
1277.737	489.79
1282.599	498.46
1287.455	490.46
1292.306	496.46
1297.153	487.46
1301.995	505.46
1306.832	500.12
1311.664	501.46
1316.491	509.46
1321.314	497.46
1326.132	489.12
1330.945	482.46
1335.753	474.12
1340.556	462.46
1345.354	456.46
1350.148	441.79
1354.937	447.12
1359.722	433.46
1364.501	440.46
1369.276	447.46
1374.046	431.46
1378.811	426.46
1383.572	422.79
1388.327	433.46
1393.079	417.12
1397.825	412.46
1402.567	409.12
1407.304	402.79
1412.036	401.79
1416.764	395.79
1421.487	394.79
1426.205	392.12
1430.919	396.79
1435.628	414.46
1440.333	413.79
1445.032	415.12
1449.727	424.46
1454.418	416.46
1459.104	418.79
1463.785	415.12
1468.462	410.46
1473.134	409.79
1477.802	394.46
1482.465	397.12
1487.123	404.79
1491.777	395.79
1496.426	409.46
1501.071	424.12
1505.711	430.12
1510.347	435.46
1514.978	442.12
1519.604	440.79
1524.226	445.12
1528.844	447.46
1533.457	455.79
1538.065	456.46
1542.669	452.46
1547.269	464.79
1551.864	457.79
1556.454	476.12
1561.041	479.12
1565.622	479.79
1570.199	498.79
1574.772	508.46
1579.34	527.79
1583.904	540.12
1588.464	579.12
1593.019	597.79
1597.569	616.79
1602.115	632.12
1606.657	652.46
1611.195	672.12
1615.728	689.12
1620.256	701.46
1624.78	739.46
1629.3	757.79
1633.816	772.12
1638.327	791.79
1642.834	801.46
1647.336	807.79
1651.834	799.46
1656.328	785.79
1660.817	789.12
1665.302	764.79
1669.783	724.46
1674.259	702.79
1678.732	665.12
1683.199	625.12
1687.663	589.46
1692.122	543.12
1696.577	521.46
1701.028	487.12
1705.474	452.12
1709.917	427.79
1714.355	409.12
1718.788	383.46
1723.218	353.79
1727.643	331.79
1732.064	312.79
1736.481	295.46
1740.893	277.12
1745.301	250.46
1749.705	235.46
1754.105	221.46
1758.501	208.12
1762.893	198.46
1767.28	189.12
1771.663	179.12
1776.042	174.46
1780.417	168.79
1784.787	169.12
1789.154	161.12
1793.516	160.79
1797.874	162.46
1802.228	159.46
1806.578	154.79
1810.924	145.12
1815.266	142.46
1819.603	130.46
1823.937	129.79
1828.266	121.12
1832.591	122.79
1836.913	112.79
1841.23	111.46
1845.543	113.12
1849.852	107.79
1854.156	119.79
1858.457	106.79
1862.754	113.79
1867.047	113.12
1871.335	114.46
1875.62	119.46
1879.9	116.79
1884.177	130.12
1888.449	116.79
1892.718	118.46
1896.982	117.12
1901.243	109.46
1905.499	113.79
1909.752	116.12
1914	112.12
1918.245	114.79
1922.485	123.79
1926.722	127.46
1930.954	126.12
1935.183	137.46
1939.408	130.46
1943.628	124.46
1947.845	129.12
1952.058	129.12
1956.267	126.79
1960.472	118.79
1964.673	122.12
1968.87	122.12
1973.063	115.46
1977.252	115.79
1981.438	109.79
1985.619	114.12
1989.797	106.12
1993.971	108.79
1998.14	121.79
2002.306	115.79
2006.469	119.46
2010.627	118.46
2014.781	122.79
2018.932	120.46
2023.078	122.12
2027.221	125.46
2031.36	121.46
2035.495	129.46
2039.627	118.12
2043.754	122.12
2047.878	123.12
2051.998	122.46
2056.114	125.79
2060.226	121.12
2064.334	120.12
2068.439	131.46
2072.54	134.12
2076.637	139.46
2080.73	128.79
2084.82	147.46
2088.906	144.12
2092.988	145.46
2097.066	140.46
2101.14	148.12
2105.211	143.46
2109.278	137.46
2113.342	126.12
2117.401	136.79
2121.457	130.12
2125.509	126.79
2129.558	118.46
2133.602	123.46
2137.643	119.12
2141.681	118.79
2145.714	115.12
2149.744	111.79
2153.77	112.46
2157.793	109.12
2161.812	103.46
2165.827	99.46
2169.838	93.12
2173.846	85.46
2177.851	85.46
2181.851	77.12
2185.848	73.46
2189.841	67.12
2193.831	73.46
2197.817	66.46
2201.799	67.12
2205.778	68.12
2209.753	56.12
2213.725	60.46
2217.693	59.79
2221.657	59.12
2225.618	57.12
2229.575	54.79
2233.529	46.46
2237.479	45.46
2241.425	41.46
2245.368	35.79
2249.307	32.12
2253.243	30.46
2257.175	25.79
2261.104	22.46
2265.029	15.12
2268.95	16.12
2272.868	13.46
2276.783	14.12
2280.694	6.12
2284.601	11.46
2288.505	10.12
2292.405	3.79
2296.302	2.46
2300.195	2.79
2304.085	-4.88
2307.971	-5.54
2311.854	-5.88
2315.734	-8.54
2319.609	-13.54
2323.482	-16.54
2327.351	-10.88
2331.216	-12.21
2335.078	-17.54
2338.937	-15.21
2342.792	-20.21
2346.643	-18.21
2350.492	-22.88
2354.336	-23.54
2358.178	-23.88
2362.015	-25.54
2365.85	-24.21
2369.681	-28.88
2373.508	-29.88
2377.333	-29.21
2381.153	-27.54
2384.971	-30.54
2388.785	-28.54
2392.595	-27.21
2396.402	-28.21
2400.206	-29.54
2404.007	-28.88
2407.804	-28.21
2411.597	-30.54
2415.388	-31.88
2419.174	-35.21
2422.958	-36.21
2426.738	-37.21
2430.515	-39.54
2434.289	-41.88
2438.059	-45.21
2441.825	-41.54
2445.589	-38.21
2449.349	-39.88
2453.106	-39.54
2456.859	-43.21
2460.61	-44.21
2464.356	-46.21
2468.1	-40.88
2471.84	-42.54
2475.577	-43.54
2479.311	-46.54
2483.041	-48.88
2486.768	-45.88
2490.492	-43.21
2494.213	-42.54
2497.93	-44.54
2501.644	-43.54
2505.355	-46.21
2509.062	-48.54
2512.766	-43.54
2516.467	-48.21
2520.165	-47.88
2523.859	-46.21
2527.551	-50.54
2531.239	-51.88
2534.923	-48.88
2538.605	-52.21
2542.283	-51.88
2545.958	-47.88
2549.63	-50.54
2553.299	-45.88
2556.964	-54.21
2560.626	-46.54
2564.285	-52.21
2567.941	-49.54
2571.594	-47.54
2575.243	-53.54
2578.89	-51.54
2582.533	-53.54
2586.173	-53.88
2589.809	-55.88
2593.443	-57.88
2597.073	-54.21
2600.701	-53.54
2604.325	-55.21
2607.946	-56.88
2611.564	-59.21
2615.178	-53.54
2618.79	-57.54
2622.398	-54.21
2626.004	-54.21
2629.606	-56.88
2633.205	-57.21
2636.801	-57.21
2640.394	-60.54
2643.983	-60.54
2647.57	-61.21
2651.153	-64.54
2654.734	-59.54
2658.311	-61.88
2661.885	-63.21
2665.456	-60.21
2669.025	-63.88
2672.589	-60.54
2676.151	-57.54
2679.71	-59.88
2683.266	-57.21
2686.819	-57.54
2690.368	-56.21
2693.915	-61.88
2697.458	-58.88
2700.999	-59.54
2704.536	-60.21
2708.071	-58.21
2711.602	-59.21
2715.13	-58.88
2718.656	-60.21
2722.178	-56.21
2725.697	-57.88
2729.214	-52.88
2732.727	-55.21
2736.237	-52.88
2739.744	-55.54
2743.249	-50.54
2746.75	-50.88
2750.248	-50.54
2753.743	-50.21
2757.236	-50.54
2760.725	-50.54
2764.211	-47.21
2767.695	-46.21
2771.175	-47.21
2774.652	-40.88
2778.127	-42.88
2781.598	-42.54
2785.067	-43.54
2788.532	-40.21
2791.995	-41.54
2795.455	-37.21
2798.911	-39.21
2802.365	-35.21
2805.816	-36.54
2809.264	-32.88
2812.709	-30.54
2816.151	-27.21
2819.59	-26.21
2823.026	-23.88
2826.46	-22.88
2829.89	-19.21
2833.318	-19.54
2836.742	-15.88
2840.164	-9.54
2843.583	-12.54
2846.999	-9.54
2850.412	-13.54
2853.822	-7.88
2857.229	-2.54
2860.634	0.46
2864.035	0.79
2867.434	8.12
2870.83	9.46
2874.223	16.12
2877.613	19.46
2881	17.79
2884.385	20.79
2887.766	23.12
2891.145	27.46
2894.521	35.12
2897.894	34.46
2901.264	32.46
2904.631	39.12
2907.996	35.46
2911.358	43.46
2914.717	50.79
2918.073	55.46
2921.426	57.12
2924.777	57.46
2928.124	69.12
2931.469	74.46
2934.811	82.79
2938.15	93.46
2941.487	89.79
2944.821	92.46
2948.152	90.79
2951.48	102.12
2954.805	103.46
2958.128	110.79
2961.447	114.12
2964.765	122.46
2968.079	134.46
2971.39	136.79
2974.699	143.12
2978.005	156.12
2981.308	168.79
2984.609	169.46
2987.907	181.12
2991.202	190.79
2994.494	210.46
2997.784	218.46
3001.07	220.12
3004.355	233.12
3007.636	234.46
3010.915	250.46
3014.191	254.12
3017.464	271.46
3020.734	273.12
3024.002	284.12
3027.267	303.46
3030.53	306.79
3033.789	316.79
3037.046	332.12
3040.301	342.12
3043.552	340.79
3046.801	353.46
3050.048	375.79
3053.291	391.12
3056.532	404.46
3059.771	418.79
3063.006	445.46
3066.239	458.79
3069.469	473.12
3072.697	503.46
3075.922	515.12
3079.144	535.46
3082.364	556.12
3085.581	574.79
3088.795	584.46
3092.007	601.12
3095.216	624.12
3098.423	641.46
3101.627	661.79
3104.828	680.12
3108.026	692.46
3111.222	718.12
3114.416	736.46
3117.607	762.12
3120.795	776.46
3123.98	792.12
3127.163	824.79
3130.344	849.79
3133.521	864.12
3136.696	894.79
3139.869	921.12
3143.039	926.46
3146.206	956.79
3149.371	967.79
3152.533	981.12
3155.693	968.12
3158.85	988.79
3162.005	993.12
3165.157	1004.12
3168.306	1000.46
3171.453	1006.12
3174.597	1014.79
3177.739	1013.79
3180.878	1036.46
3184.014	1036.79
3187.149	1055.46
3190.28	1036.46
3193.409	1040.46
3196.536	1049.12
3199.659	1050.79
3202.781	1073.46
3205.9	1062.79
3209.016	1056.12
3212.13	1063.79
3215.241	1059.46
3218.35	1064.12
3221.456	1040.12
3224.56	1043.79
3227.661	1036.79
3230.76	1027.46
3233.856	1021.79
3236.95	1012.12
3240.041	1005.79
3243.13	1004.79
3246.216	992.79
3249.3	1011.12
3252.382	978.12
3255.46	990.46
3258.537	990.79
3261.611	979.12
3264.682	985.46
3267.751	975.46
3270.818	974.46
3273.882	981.46
3276.943	951.46
3280.002	956.79
3283.059	938.12
3286.113	937.12
3289.165	922.12
3292.214	897.12
3295.261	900.46
3298.306	894.46
3301.348	871.12
3304.387	847.46
3307.425	829.46
3310.459	827.46
3313.492	818.46
3316.521	810.46
3319.549	799.12
3322.574	784.12
3325.597	789.12
3328.617	775.79
3331.635	782.46
3334.65	778.79
3337.663	776.12
3340.674	782.79
3343.682	771.79
3346.688	757.12
3349.691	769.79
3352.692	755.79
3355.691	746.12
3358.687	741.46
3361.681	744.79
3364.673	730.46
3367.662	727.79
3370.649	717.79
3373.633	708.12
3376.615	705.12
3379.595	685.79
3382.572	687.79
3385.547	684.46
3388.52	669.12
3391.49	658.46
3394.458	645.12
3397.424	640.12
3400.387	641.12
3403.348	626.79
3406.307	620.46
3409.263	608.46
3412.217	609.79
3415.168	591.79
3418.118	592.12
3421.065	593.79
3424.009	592.46
3426.951	582.46
3429.891	580.79
3432.829	563.79
3435.764	547.12
3438.697	537.79
3441.628	522.79
3444.557	505.79
3447.483	502.46
3450.407	480.46
3453.328	471.46
3456.247	459.79
3459.164	435.79
3462.079	431.46
3464.991	417.46
3467.902	405.79
3470.809	398.46
3473.715	380.46
3476.618	378.46
3479.519	366.79
3482.418	347.79
3485.315	334.46
3488.209	334.79
3491.101	317.12
3493.99	312.12
3496.878	294.12
3499.763	294.79
3502.646	287.46
3505.527	277.12
3508.405	259.12
3511.281	252.12
3514.155	242.12
3517.027	232.79
3519.897	222.46
3522.764	204.79
3525.629	201.12
3528.492	183.46
3531.352	170.79
3534.211	164.79
3537.067	155.12
3539.921	139.79
3542.773	131.79
3545.622	120.79
3548.469	118.12
3551.315	103.79
3554.157	103.79
3556.998	99.79
3559.837	89.79
3562.673	90.46
3565.507	82.12
3568.339	74.12
3571.169	73.46
3573.996	57.46
3576.822	52.12
3579.645	51.46
3582.466	41.12
3585.285	37.12
3588.101	28.79
3590.916	26.12
3593.728	19.79
3596.538	16.46
3599.346	16.79
3602.152	4.46
3604.956	3.12
3607.757	2.46
3610.556	0.12
3613.354	-8.88
3616.149	-13.21
3618.942	-6.54
3621.732	-18.54
3624.521	-21.54
3627.307	-25.88
3630.092	-32.21
3632.874	-30.54
3635.654	-34.21
3638.432	-35.21
3641.208	-37.88
3643.982	-46.21
3646.753	-45.21
3649.523	-43.54
3652.29	-45.54
3655.055	-49.88
3657.818	-52.54
3660.579	-56.21
3663.338	-60.54
3666.095	-58.21
3668.849	-65.54
3671.602	-67.21
3674.352	-69.21
3677.101	-70.54
3679.847	-71.54
3682.591	-76.54
3685.333	-75.88
3688.073	-74.21
3690.811	-76.54
3693.547	-77.54
3696.281	-79.88
3699.013	-84.88
3701.742	-84.21
3704.47	-86.21
3707.195	-85.54
3709.919	-85.54
3712.64	-90.54
3715.359	-89.88
3718.076	-90.88
3720.792	-96.21
3723.505	-90.88
3726.216	-95.88
3728.925	-93.54
3731.632	-94.54
3734.336	-93.88
3737.039	-94.88
3739.74	-94.54
3742.439	-95.21
3745.136	-92.54
3747.83	-95.54
3750.523	-99.88
3753.213	-102.54
3755.902	-102.21
3758.589	-100.54
3761.273	-100.88
3763.956	-104.54
3766.636	-100.54
3769.315	-103.54
3771.991	-103.21
3774.665	-100.21
3777.338	-100.88
3780.008	-100.21
3782.677	-100.21
3785.343	-102.21
3788.007	-101.54
3790.67	-103.54
3793.33	-103.88
3795.989	-105.88
3798.645	-105.88
3801.299	-104.88
3803.952	-104.54
3806.602	-107.21
3809.251	-106.21
3811.897	-104.88
3814.542	-107.88
3817.184	-106.21
3819.825	-104.88
3822.463	-104.21
3825.1	-105.88
3827.735	-106.21
3830.367	-108.54
3832.998	-106.21
3835.627	-107.54
3838.253	-109.21
3840.878	-109.21
3843.501	-107.54
3846.122	-107.21
3848.741	-104.88
3851.358	-106.54
3853.973	-103.88
3856.586	-107.21
3859.197	-107.88
3861.806	-105.88
3864.414	-108.21
3867.019	-109.88
3869.622	-109.88
3872.224	-106.88
3874.823	-106.88
3877.421	-103.21
3880.016	-99.21
3882.61	-92.88
3885.202	-90.21
3887.792	-90.88
3890.38	-101.54
3892.966	-103.54
3895.55	-107.88
3898.132	-108.54
3900.713	-111.88
3903.291	-109.21
3905.868	-107.88
3908.442	-110.54
3911.015	-113.88
3913.586	-108.88
3916.155	-111.21
3918.722	-114.88
3921.287	-114.21
3923.85	-114.21
3926.411	-109.21
3928.971	-109.54
3931.528	-111.54
3934.084	-110.88
3936.638	-108.21
3939.19	-107.88
3941.74	-111.88
3944.288	-108.54
3946.834	-111.88
3949.378	-108.88
3951.921	-108.21
3954.462	-109.88
3957	-112.88
3959.537	-109.88
3962.072	-110.88
3964.606	-112.88
3967.137	-110.88
3969.667	-109.54
3972.194	-112.88
3974.72	-108.88
3977.244	-108.21
3979.766	-107.21
3982.286	-106.54
3984.805	-105.88
3987.321	-107.54
3989.836	-108.88
3992.349	-109.88
3994.86	-107.88
3997.369	-112.54
3999.877	-109.54
4002.382	-111.54
4004.886	-106.54
4007.388	-106.21
4009.888	-106.88
4012.386	-108.21
4014.883	-106.21
4017.377	-109.54
4019.87	-106.88
4022.361	-109.88
4024.85	-108.54
4027.338	-109.88
4029.823	-110.21
4032.307	-110.88
4034.789	-111.88
4037.269	-108.88
4039.747	-109.88
4042.224	-107.21
4044.699	-112.21
4047.172	-108.21
4049.643	-108.54
4052.112	-107.88
4054.58	-106.88
4057.046	-107.88
4059.51	-110.54
4061.972	-108.88
4064.432	-111.21
4066.891	-111.54
4069.348	-109.88
4071.803	-111.88
4074.256	-111.21
4076.708	-112.54
4079.158	-109.88
4081.606	-111.21
4084.052	-109.88
4086.497	-109.54
4088.939	-108.54
4091.38	-112.54
4093.819	-111.54
4096.257	-114.54
4098.693	-115.54
4101.127	-112.21
4103.559	-114.54
4105.989	-76.21
4108.418	-69.21
4110.845	-70.21
4113.27	-60.21
4115.694	-52.54
4118.115	-48.88
4120.535	-107.21
4122.954	-107.88
4125.37	-109.88
4127.785	-109.21
4130.198	-111.21
4132.609	-110.88
4135.019	-116.21
4137.427	-113.54
4139.833	-114.88
4142.237	-115.21
