Data from DW_log8 (I=1 T=5x3 V=3ml)_RamanShift_1.txt Node
Date: Mon Jun 05 13:21:11 IDT 2017
User: aro
Spectrometer: QEPB0276
Trigger mode: 0
Integration Time (sec): 5.000000E0
Scans to average: 1
Electric dark correction enabled: true
Nonlinearity correction enabled: false
Boxcar width: 0
XAxis mode: Raman Shifts
Number of Pixels in Spectrum: 1044
>>>>>Begin Spectral Data<<<<<
160.701	-6.5
166.742	4.17
172.777	26.17
178.805	106.5
184.826	286.83
190.841	624.83
196.849	964.17
202.85	1218.17
208.845	1273.5
214.833	1226.5
220.815	1186.17
226.789	1150.17
232.758	1126.5
238.719	1086.83
244.674	1047.83
250.623	1014.5
256.565	967.83
262.5	936.5
268.429	905.17
274.351	858.17
280.267	839.17
286.176	806.83
292.079	799.83
297.975	768.17
303.865	743.83
309.748	726.5
315.625	729.17
321.495	715.17
327.359	710.5
333.217	696.17
339.068	695.5
344.912	698.83
350.751	696.17
356.583	693.17
362.408	699.17
368.227	711.5
374.04	722.17
379.847	737.83
385.647	750.83
391.44	736.17
397.228	731.5
403.009	737.17
408.784	756.17
414.553	812.17
420.315	870.83
426.071	864.17
431.821	817.83
437.565	772.17
443.302	732.17
449.033	722.5
454.758	725.83
460.477	701.17
466.189	704.5
471.896	687.5
477.596	681.17
483.29	680.83
488.978	682.17
494.66	671.17
500.335	664.17
506.005	626.83
511.668	607.83
517.325	587.5
522.977	564.17
528.622	544.83
534.261	542.17
539.894	526.5
545.521	522.5
551.141	518.5
556.756	507.5
562.365	507.17
567.968	502.17
573.565	499.5
579.155	498.83
584.74	493.17
590.319	487.17
595.892	480.83
601.459	482.83
607.02	477.17
612.575	465.17
618.124	464.17
623.667	451.5
629.204	448.5
634.735	445.17
640.261	465.83
645.781	480.17
651.294	480.5
656.802	463.5
662.304	442.5
667.8	419.5
673.29	420.83
678.775	418.5
684.254	410.5
689.726	405.5
695.193	399.83
700.655	390.83
706.11	392.17
711.56	392.83
717.004	390.17
722.442	381.17
727.874	379.83
733.301	376.5
738.722	381.17
744.137	378.5
749.547	381.83
754.951	393.83
760.349	377.17
765.741	384.17
771.128	371.17
776.509	368.83
781.885	368.83
787.254	369.17
792.618	370.5
797.977	367.17
803.33	357.83
808.677	347.83
814.019	355.17
819.355	346.83
824.686	344.5
830.011	339.5
835.33	325.17
840.644	325.17
845.952	324.17
851.255	326.17
856.552	312.17
861.844	306.17
867.13	300.5
872.41	300.5
877.686	299.17
882.955	294.5
888.219	289.17
893.478	285.5
898.731	271.17
903.979	269.5
909.221	261.83
914.458	254.17
919.69	253.83
924.916	264.17
930.136	256.5
935.351	252.5
940.561	244.83
945.766	243.83
950.965	242.17
956.158	241.83
961.347	236.5
966.529	226.83
971.707	224.17
976.879	229.83
982.046	219.17
987.208	223.83
992.364	224.5
997.515	216.83
1002.66	226.17
1007.801	227.5
1012.936	215.17
1018.066	224.83
1023.19	220.17
1028.309	219.17
1033.423	224.17
1038.532	221.17
1043.636	217.5
1048.734	215.5
1053.827	220.5
1058.915	212.5
1063.998	214.17
1069.075	216.83
1074.147	213.17
1079.214	211.17
1084.276	208.5
1089.333	217.83
1094.385	211.5
1099.431	212.5
1104.472	208.5
1109.509	206.17
1114.54	198.5
1119.565	200.17
1124.586	197.83
1129.602	196.5
1134.613	196.83
1139.618	187.5
1144.619	197.5
1149.614	191.83
1154.604	194.5
1159.589	193.17
1164.57	189.17
1169.545	198.17
1174.515	196.83
1179.48	195.83
1184.44	188.83
1189.395	188.5
1194.345	184.17
1199.29	193.17
1204.23	186.83
1209.165	188.17
1214.095	192.83
1219.021	192.17
1223.941	190.83
1228.856	197.17
1233.766	190.5
1238.672	195.17
1243.572	189.17
1248.467	189.17
1253.358	179.83
1258.244	174.83
1263.124	176.83
1268	173.5
1272.871	168.5
1277.737	169.17
1282.599	165.83
1287.455	166.83
1292.306	167.83
1297.153	170.83
1301.995	167.83
1306.832	169.5
1311.664	168.83
1316.491	170.83
1321.314	170.83
1326.132	168.5
1330.945	159.83
1335.753	155.5
1340.556	153.83
1345.354	151.83
1350.148	149.17
1354.937	148.5
1359.722	146.83
1364.501	153.83
1369.276	143.83
1374.046	142.83
1378.811	148.83
1383.572	147.17
1388.327	151.83
1393.079	148.5
1397.825	145.83
1402.567	140.5
1407.304	133.17
1412.036	141.17
1416.764	129.17
1421.487	130.17
1426.205	132.5
1430.919	132.17
1435.628	132.83
1440.333	139.17
1445.032	143.5
1449.727	137.83
1454.418	145.83
1459.104	141.17
1463.785	140.5
1468.462	136.83
1473.134	138.17
1477.802	134.83
1482.465	132.5
1487.123	129.17
1491.777	129.17
1496.426	133.83
1501.071	137.5
1505.711	137.5
1510.347	139.83
1514.978	145.5
1519.604	154.17
1524.226	154.5
1528.844	148.83
1533.457	148.17
1538.065	151.83
1542.669	150.83
1547.269	153.17
1551.864	152.17
1556.454	152.5
1561.041	155.5
1565.622	151.17
1570.199	160.17
1574.772	160.83
1579.34	165.17
1583.904	168.5
1588.464	182.5
1593.019	190.17
1597.569	185.17
1602.115	195.5
1606.657	197.83
1611.195	208.5
1615.728	215.5
1620.256	219.83
1624.78	211.83
1629.3	223.17
1633.816	233.5
1638.327	228.17
1642.834	236.83
1647.336	235.17
1651.834	231.83
1656.328	231.17
1660.817	235.5
1665.302	227.17
1669.783	222.83
1674.259	201.17
1678.732	199.5
1683.199	191.5
1687.663	183.83
1692.122	170.5
1696.577	160.83
1701.028	149.5
1705.474	147.5
1709.917	140.17
1714.355	131.5
1718.788	126.83
1723.218	116.17
1727.643	107.17
1732.064	109.17
1736.481	99.83
1740.893	95.5
1745.301	82.83
1749.705	82.83
1754.105	79.83
1758.501	73.5
1762.893	70.83
1767.28	67.5
1771.663	61.5
1776.042	62.83
1780.417	53.17
1784.787	64.5
1789.154	57.5
1793.516	58.17
1797.874	53.83
1802.228	56.83
1806.578	57.17
1810.924	54.5
1815.266	62.83
1819.603	51.83
1823.937	52.17
1828.266	51.5
1832.591	50.17
1836.913	49.17
1841.23	43.83
1845.543	46.5
1849.852	43.17
1854.156	41.17
1858.457	41.17
1862.754	41.17
1867.047	44.5
1871.335	40.83
1875.62	49.83
1879.9	42.17
1884.177	47.5
1888.449	45.17
1892.718	45.83
1896.982	47.5
1901.243	48.83
1905.499	44.17
1909.752	44.5
1914	47.5
1918.245	43.17
1922.485	41.17
1926.722	42.83
1930.954	42.5
1935.183	46.83
1939.408	48.83
1943.628	46.83
1947.845	49.5
1952.058	49.5
1956.267	44.17
1960.472	50.17
1964.673	48.5
1968.87	48.5
1973.063	45.83
1977.252	48.17
1981.438	45.17
1985.619	42.5
1989.797	44.5
1993.971	43.17
1998.14	44.17
2002.306	39.17
2006.469	42.83
2010.627	43.83
2014.781	40.17
2018.932	43.83
2023.078	43.5
2027.221	44.83
2031.36	46.83
2035.495	38.83
2039.627	45.5
2043.754	42.5
2047.878	39.5
2051.998	42.83
2056.114	43.17
2060.226	42.5
2064.334	42.5
2068.439	45.83
2072.54	48.5
2076.637	42.83
2080.73	50.17
2084.82	48.83
2088.906	50.5
2092.988	52.83
2097.066	49.83
2101.14	52.5
2105.211	48.83
2109.278	48.83
2113.342	45.5
2117.401	49.17
2121.457	43.5
2125.509	48.17
2129.558	40.83
2133.602	42.83
2137.643	41.5
2141.681	44.17
2145.714	44.5
2149.744	41.17
2153.77	38.83
2157.793	42.5
2161.812	38.83
2165.827	37.83
2169.838	35.5
2173.846	28.83
2177.851	31.83
2181.851	26.5
2185.848	29.83
2189.841	28.5
2193.831	28.83
2197.817	24.83
2201.799	23.5
2205.778	25.5
2209.753	24.5
2213.725	24.83
2217.693	29.17
2221.657	23.5
2225.618	22.5
2229.575	22.17
2233.529	24.83
2237.479	18.83
2241.425	16.83
2245.368	20.17
2249.307	16.5
2253.243	12.83
2257.175	9.17
2261.104	13.83
2265.029	12.5
2268.95	14.5
2272.868	8.83
2276.783	8.5
2280.694	10.5
2284.601	7.83
2288.505	7.5
2292.405	6.17
2296.302	5.83
2300.195	0.17
2304.085	3.5
2307.971	6.83
2311.854	7.5
2315.734	5.83
2319.609	4.83
2323.482	1.83
2327.351	3.5
2331.216	3.17
2335.078	3.83
2338.937	3.17
2342.792	1.17
2346.643	-2.83
2350.492	-2.5
2354.336	-2.17
2358.178	-7.5
2362.015	-1.17
2365.85	-3.83
2369.681	-2.5
2373.508	-5.5
2377.333	-2.83
2381.153	-0.17
2384.971	-4.17
2388.785	0.83
2392.595	1.17
2396.402	3.17
2400.206	-0.17
2404.007	-2.5
2407.804	-3.83
2411.597	-4.17
2415.388	-3.5
2419.174	-11.83
2422.958	-9.83
2426.738	-8.83
2430.515	-7.17
2434.289	-6.5
2438.059	-7.83
2441.825	-5.17
2445.589	-8.83
2449.349	-9.5
2453.106	-7.17
2456.859	-7.83
2460.61	-8.83
2464.356	-8.83
2468.1	-5.5
2471.84	-8.17
2475.577	-7.17
2479.311	-9.17
2483.041	-10.5
2486.768	-8.5
2490.492	-10.83
2494.213	-7.17
2497.93	-10.17
2501.644	-11.17
2505.355	-11.83
2509.062	-10.17
2512.766	-9.17
2516.467	-11.83
2520.165	-9.5
2523.859	-11.83
2527.551	-12.17
2531.239	-14.5
2534.923	-12.5
2538.605	-13.83
2542.283	-13.5
2545.958	-14.5
2549.63	-10.17
2553.299	-8.5
2556.964	-9.83
2560.626	-6.17
2564.285	-10.83
2567.941	-10.17
2571.594	-10.17
2575.243	-9.17
2578.89	-13.17
2582.533	-10.17
2586.173	-13.5
2589.809	-15.5
2593.443	-15.5
2597.073	-15.83
2600.701	-13.17
2604.325	-13.83
2607.946	-13.5
2611.564	-12.83
2615.178	-12.17
2618.79	-11.17
2622.398	-9.83
2626.004	-10.83
2629.606	-14.5
2633.205	-12.83
2636.801	-13.83
2640.394	-15.17
2643.983	-18.17
2647.57	-14.83
2651.153	-16.17
2654.734	-13.17
2658.311	-14.5
2661.885	-13.83
2665.456	-12.83
2669.025	-14.5
2672.589	-13.17
2676.151	-14.17
2679.71	-11.5
2683.266	-13.83
2686.819	-16.17
2690.368	-13.83
2693.915	-14.5
2697.458	-12.5
2700.999	-17.17
2704.536	-13.83
2708.071	-12.83
2711.602	-16.83
2715.13	-13.5
2718.656	-12.83
2722.178	-13.83
2725.697	-14.5
2729.214	-10.5
2732.727	-10.83
2736.237	-14.5
2739.744	-12.17
2743.249	-14.17
2746.75	-13.5
2750.248	-12.17
2753.743	-13.83
2757.236	-13.17
2760.725	-11.17
2764.211	-13.83
2767.695	-10.83
2771.175	-10.83
2774.652	-8.5
2778.127	-8.5
2781.598	-7.17
2785.067	-10.17
2788.532	-6.83
2791.995	-7.17
2795.455	-8.83
2798.911	-8.83
2802.365	-9.83
2805.816	-7.17
2809.264	-7.5
2812.709	-8.17
2816.151	-8.83
2819.59	-8.83
2823.026	-4.5
2826.46	-6.5
2829.89	-0.83
2833.318	-3.17
2836.742	0.5
2840.164	3.83
2843.583	-1.17
2846.999	3.83
2850.412	0.83
2853.822	1.5
2857.229	4.83
2860.634	3.83
2864.035	1.17
2867.434	6.5
2870.83	0.83
2874.223	8.5
2877.613	6.83
2881	9.17
2884.385	9.17
2887.766	15.5
2891.145	14.83
2894.521	14.5
2897.894	16.83
2901.264	14.83
2904.631	15.5
2907.996	15.83
2911.358	13.83
2914.717	18.17
2918.073	16.83
2921.426	18.5
2924.777	20.83
2928.124	23.5
2931.469	20.83
2934.811	28.17
2938.15	35.83
2941.487	31.17
2944.821	30.83
2948.152	35.17
2951.48	37.5
2954.805	38.83
2958.128	41.17
2961.447	36.5
2964.765	35.83
2968.079	42.83
2971.39	48.17
2974.699	43.5
2978.005	52.5
2981.308	54.17
2984.609	55.83
2987.907	60.5
2991.202	62.17
2994.494	67.83
2997.784	74.83
3001.07	70.5
3004.355	82.5
3007.636	80.83
3010.915	76.83
3014.191	82.5
3017.464	84.83
3020.734	83.5
3024.002	85.5
3027.267	93.83
3030.53	87.17
3033.789	100.17
3037.046	99.5
3040.301	103.5
3043.552	113.17
3046.801	115.83
3050.048	117.17
3053.291	114.5
3056.532	126.83
3059.771	129.17
3063.006	135.83
3066.239	145.17
3069.469	147.5
3072.697	150.83
3075.922	153.5
3079.144	156.83
3082.364	165.5
3085.581	171.17
3088.795	173.83
3092.007	182.5
3095.216	183.5
3098.423	189.83
3101.627	201.17
3104.828	210.5
3108.026	213.83
3111.222	221.5
3114.416	230.83
3117.607	236.5
3120.795	234.83
3123.98	246.5
3127.163	260.17
3130.344	257.17
3133.521	267.5
3136.696	268.17
3139.869	280.5
3143.039	283.83
3146.206	287.17
3149.371	293.17
3152.533	298.5
3155.693	309.5
3158.85	299.17
3162.005	307.5
3165.157	306.5
3168.306	306.83
3171.453	309.5
3174.597	310.17
3177.739	313.17
3180.878	318.83
3184.014	317.17
3187.149	306.83
3190.28	323.83
3193.409	311.83
3196.536	326.5
3199.659	323.17
3202.781	333.83
3205.9	323.17
3209.016	319.5
3212.13	325.17
3215.241	326.83
3218.35	323.5
3221.456	318.5
3224.56	314.17
3227.661	313.17
3230.76	314.83
3233.856	308.17
3236.95	304.5
3240.041	301.17
3243.13	304.17
3246.216	305.17
3249.3	298.5
3252.382	299.5
3255.46	293.83
3258.537	298.17
3261.611	300.5
3264.682	302.83
3267.751	294.83
3270.818	297.83
3273.882	295.83
3276.943	289.83
3280.002	285.17
3283.059	289.5
3286.113	280.5
3289.165	285.5
3292.214	270.5
3295.261	262.83
3298.306	264.83
3301.348	258.5
3304.387	254.83
3307.425	254.83
3310.459	245.83
3313.492	247.83
3316.521	248.83
3319.549	237.5
3322.574	240.5
3325.597	242.5
3328.617	238.17
3331.635	234.83
3334.65	243.17
3337.663	234.5
3340.674	238.17
3343.682	234.17
3346.688	227.5
3349.691	234.17
3352.692	231.17
3355.691	231.5
3358.687	226.83
3361.681	229.17
3364.673	230.83
3367.662	223.17
3370.649	224.17
3373.633	220.5
3376.615	209.5
3379.595	210.17
3382.572	208.17
3385.547	204.83
3388.52	197.5
3391.49	197.83
3394.458	201.5
3397.424	196.5
3400.387	198.5
3403.348	191.17
3406.307	194.83
3409.263	188.83
3412.217	187.17
3415.168	181.17
3418.118	181.5
3421.065	178.17
3424.009	177.83
3426.951	175.83
3429.891	175.17
3432.829	175.17
3435.764	160.5
3438.697	161.17
3441.628	160.17
3444.557	161.17
3447.483	156.83
3450.407	151.83
3453.328	146.83
3456.247	140.17
3459.164	138.17
3462.079	130.83
3464.991	126.83
3467.902	131.17
3470.809	121.83
3473.715	116.83
3476.618	110.83
3479.519	113.17
3482.418	110.17
3485.315	110.83
3488.209	105.17
3491.101	97.5
3493.99	98.5
3496.878	91.5
3499.763	94.17
3502.646	91.83
3505.527	87.5
3508.405	84.5
3511.281	77.5
3514.155	76.5
3517.027	77.17
3519.897	67.83
3522.764	62.17
3525.629	58.5
3528.492	62.83
3531.352	59.17
3534.211	48.17
3537.067	51.5
3539.921	49.17
3542.773	44.17
3545.622	40.17
3548.469	42.5
3551.315	33.17
3554.157	36.17
3556.998	32.17
3559.837	32.17
3562.673	27.83
3565.507	29.5
3568.339	23.5
3571.169	26.83
3573.996	22.83
3576.822	22.5
3579.645	19.83
3582.466	17.5
3585.285	13.5
3588.101	16.17
3590.916	11.5
3593.728	7.17
3596.538	7.83
3599.346	6.17
3602.152	2.83
3604.956	1.5
3607.757	-1.17
3610.556	3.5
3613.354	-0.5
3616.149	-0.83
3618.942	3.83
3621.732	0.83
3624.521	-4.17
3627.307	-1.5
3630.092	-2.83
3632.874	-6.17
3635.654	-3.83
3638.432	-6.83
3641.208	-10.5
3643.982	-8.83
3646.753	-12.83
3649.523	-14.17
3652.29	-13.17
3655.055	-17.5
3657.818	-15.17
3660.579	-14.83
3663.338	-15.17
3666.095	-17.83
3668.849	-17.17
3671.602	-17.83
3674.352	-17.83
3677.101	-18.17
3679.847	-16.17
3682.591	-23.17
3685.333	-20.5
3688.073	-19.83
3690.811	-23.17
3693.547	-21.17
3696.281	-24.5
3699.013	-21.5
3701.742	-27.83
3704.47	-21.83
3707.195	-22.17
3709.919	-23.17
3712.64	-24.17
3715.359	-23.5
3718.076	-27.5
3720.792	-24.83
3723.505	-25.5
3726.216	-27.5
3728.925	-25.17
3731.632	-29.17
3734.336	-31.5
3737.039	-28.5
3739.74	-26.17
3742.439	-26.83
3745.136	-28.17
3747.83	-29.17
3750.523	-26.5
3753.213	-28.17
3755.902	-30.83
3758.589	-25.17
3761.273	-27.5
3763.956	-29.17
3766.636	-30.17
3769.315	-28.17
3771.991	-28.83
3774.665	-34.83
3777.338	-31.5
3780.008	-28.83
3782.677	-31.83
3785.343	-26.83
3788.007	-31.17
3790.67	-29.17
3793.33	-27.5
3795.989	-27.5
3798.645	-29.5
3801.299	-29.5
3803.952	-28.17
3806.602	-30.83
3809.251	-29.83
3811.897	-31.5
3814.542	-32.5
3817.184	-31.83
3819.825	-31.5
3822.463	-30.83
3825.1	-29.5
3827.735	-31.83
3830.367	-28.17
3832.998	-26.83
3835.627	-32.17
3838.253	-29.83
3840.878	-31.83
3843.501	-33.17
3846.122	-27.83
3848.741	-30.5
3851.358	-31.17
3853.973	-34.5
3856.586	-33.83
3859.197	-31.5
3861.806	-26.5
3864.414	-29.83
3867.019	-32.5
3869.622	-32.5
3872.224	-29.5
3874.823	-27.5
3877.421	-25.83
3880.016	-22.83
3882.61	-17.5
3885.202	-17.83
3887.792	-21.5
3890.38	-28.17
3892.966	-32.17
3895.55	-33.5
3898.132	-34.17
3900.713	-35.5
3903.291	-31.83
3905.868	-30.5
3908.442	-28.17
3911.015	-31.5
3913.586	-27.5
3916.155	-30.83
3918.722	-30.5
3921.287	-31.83
3923.85	-32.83
3926.411	-28.83
3928.971	-32.17
3931.528	-33.17
3934.084	-31.5
3936.638	-34.83
3939.19	-33.5
3941.74	-34.5
3944.288	-34.17
3946.834	-31.5
3949.378	-33.5
3951.921	-29.83
3954.462	-31.5
3957	-31.5
3959.537	-30.5
3962.072	-31.5
3964.606	-31.5
3967.137	-33.5
3969.667	-34.17
3972.194	-35.5
3974.72	-32.5
3977.244	-35.83
3979.766	-33.83
3982.286	-32.17
3984.805	-30.5
3987.321	-31.17
3989.836	-29.5
3992.349	-28.5
3994.86	-30.5
3997.369	-32.17
3999.877	-28.17
4002.382	-30.17
4004.886	-32.17
4007.388	-29.83
4009.888	-33.5
4012.386	-32.83
4014.883	-31.83
4017.377	-33.17
4019.87	-32.5
4022.361	-32.5
4024.85	-29.17
4027.338	-33.5
4029.823	-29.83
4032.307	-29.5
4034.789	-29.5
4037.269	-29.5
4039.747	-30.5
4042.224	-31.83
4044.699	-31.83
4047.172	-33.83
4049.643	-32.17
4052.112	-33.5
4054.58	-33.5
4057.046	-32.5
4059.51	-33.17
4061.972	-30.5
4064.432	-33.83
4066.891	-32.17
4069.348	-30.5
4071.803	-28.5
4074.256	-31.83
4076.708	-31.17
4079.158	-31.5
4081.606	-33.83
4084.052	-32.5
4086.497	-35.17
4088.939	-33.17
4091.38	-33.17
4093.819	-35.17
4096.257	-36.17
4098.693	-33.17
4101.127	-33.83
4103.559	-33.17
4105.989	-15.83
4108.418	-12.83
4110.845	-14.83
4113.27	-11.83
4115.694	-9.17
4118.115	-11.5
4120.535	-32.83
4122.954	-31.5
4125.37	-31.5
4127.785	-29.83
4130.198	-32.83
4132.609	-29.5
4135.019	-32.83
4137.427	-33.17
4139.833	-31.5
4142.237	-32.83
