Data from DW_log5 (I=1 T=5x3 V=3ml)_RamanShift_2.txt Node
Date: Mon Jun 05 13:43:12 IDT 2017
User: aro
Spectrometer: QEPB0276
Trigger mode: 0
Integration Time (sec): 5.000000E0
Scans to average: 1
Electric dark correction enabled: true
Nonlinearity correction enabled: false
Boxcar width: 0
XAxis mode: Raman Shifts
Number of Pixels in Spectrum: 1044
>>>>>Begin Spectral Data<<<<<
160.701	-27.25
166.742	5.42
172.777	87.42
178.805	374.75
184.826	1054.08
190.841	2224.08
196.849	3539.42
202.85	4406.42
208.845	4619.75
214.833	4458.75
220.815	4283.42
226.789	4142.42
232.758	3987.75
238.719	3825.08
244.674	3690.08
250.623	3495.75
256.565	3291.08
262.5	3112.75
268.429	2958.42
274.351	2811.42
280.267	2713.42
286.176	2582.08
292.079	2481.08
297.975	2391.42
303.865	2315.08
309.748	2265.75
315.625	2188.42
321.495	2142.42
327.359	2105.75
333.217	2094.42
339.068	2065.75
344.912	2055.08
350.751	2049.42
356.583	2049.42
362.408	2033.42
368.227	2039.75
374.04	2049.42
379.847	2066.08
385.647	2091.08
391.44	2091.42
397.228	2062.75
403.009	2075.42
408.784	2123.42
414.553	2189.42
420.315	2251.08
426.071	2276.42
431.821	2172.08
437.565	2107.42
443.302	2092.42
449.033	2059.75
454.758	2060.08
460.477	2026.42
466.189	1999.75
471.896	1986.75
477.596	1960.42
483.29	1952.08
488.978	1946.42
494.66	1938.42
500.335	1891.42
506.005	1874.08
511.668	1823.08
517.325	1758.75
522.977	1736.42
528.622	1709.08
534.261	1684.42
539.894	1670.75
545.521	1645.75
551.141	1626.75
556.756	1617.75
562.365	1600.42
567.968	1585.42
573.565	1554.75
579.155	1541.08
584.74	1544.42
590.319	1518.42
595.892	1502.08
601.459	1485.08
607.02	1469.42
612.575	1449.42
618.124	1432.42
623.667	1400.75
629.204	1387.75
634.735	1383.42
640.261	1394.08
645.781	1412.42
651.294	1376.75
656.802	1376.75
662.304	1323.75
667.8	1308.75
673.29	1311.08
678.775	1293.75
684.254	1263.75
689.726	1249.75
695.193	1243.08
700.655	1233.08
706.11	1226.42
711.56	1196.08
717.004	1193.42
722.442	1173.42
727.874	1163.08
733.301	1169.75
738.722	1150.42
744.137	1135.75
749.547	1143.08
754.951	1134.08
760.349	1116.42
765.741	1113.42
771.128	1111.42
776.509	1090.08
781.885	1090.08
787.254	1076.42
792.618	1083.75
797.977	1065.42
803.33	1060.08
808.677	1030.08
814.019	1008.42
819.355	979.08
824.686	985.75
830.011	965.75
835.33	944.42
840.644	938.42
845.952	934.42
851.255	930.42
856.552	916.42
861.844	903.42
867.13	882.75
872.41	883.75
877.686	886.42
882.955	850.75
888.219	833.42
893.478	813.75
898.731	777.42
903.979	759.75
909.221	735.08
914.458	714.42
919.69	724.08
924.916	719.42
930.136	711.75
935.351	699.75
940.561	693.08
945.766	685.08
950.965	668.42
956.158	658.08
961.347	655.75
966.529	637.08
971.707	616.42
976.879	614.08
982.046	609.42
987.208	596.08
992.364	586.75
997.515	596.08
1002.66	601.42
1007.801	601.75
1012.936	601.42
1018.066	603.08
1023.19	616.42
1028.309	604.42
1033.423	599.42
1038.532	584.42
1043.636	580.75
1048.734	574.75
1053.827	568.75
1058.915	563.75
1063.998	559.42
1069.075	558.08
1074.147	554.42
1079.214	542.42
1084.276	549.75
1089.333	550.08
1094.385	555.75
1099.431	569.75
1104.472	563.75
1109.509	545.42
1114.54	547.75
1119.565	540.42
1124.586	525.08
1129.602	516.75
1134.613	517.08
1139.618	510.75
1144.619	511.75
1149.614	510.08
1154.604	514.75
1159.589	506.42
1164.57	515.42
1169.545	505.42
1174.515	528.08
1179.48	505.08
1184.44	491.08
1189.395	489.75
1194.345	495.42
1199.29	487.42
1204.23	485.08
1209.165	480.42
1214.095	497.08
1219.021	480.42
1223.941	498.08
1228.856	509.42
1233.766	501.75
1238.672	511.42
1243.572	497.42
1248.467	506.42
1253.358	489.08
1258.244	478.08
1263.124	465.08
1268	459.75
1272.871	461.75
1277.737	445.42
1282.599	446.08
1287.455	439.08
1292.306	446.08
1297.153	453.08
1301.995	441.08
1306.832	441.75
1311.664	448.08
1316.491	444.08
1321.314	448.08
1326.132	431.75
1330.945	417.08
1335.753	416.75
1340.556	404.08
1345.354	404.08
1350.148	402.42
1354.937	387.75
1359.722	388.08
1364.501	388.08
1369.276	376.08
1374.046	384.08
1378.811	394.08
1383.572	381.42
1388.327	383.08
1393.079	374.75
1397.825	357.08
1402.567	367.75
1407.304	361.42
1412.036	358.42
1416.764	358.42
1421.487	353.42
1426.205	355.75
1430.919	355.42
1435.628	352.08
1440.333	375.42
1445.032	368.75
1449.727	368.08
1454.418	376.08
1459.104	379.42
1463.785	371.75
1468.462	362.08
1473.134	362.42
1477.802	352.08
1482.465	342.75
1487.123	359.42
1491.777	357.42
1496.426	358.08
1501.071	365.75
1505.711	375.75
1510.347	378.08
1514.978	389.75
1519.604	389.42
1524.226	406.75
1528.844	406.08
1533.457	402.42
1538.065	408.08
1542.669	410.08
1547.269	413.42
1551.864	413.42
1556.454	428.75
1561.041	443.75
1565.622	447.42
1570.199	460.42
1574.772	482.08
1579.34	479.42
1583.904	514.75
1588.464	533.75
1593.019	550.42
1597.569	564.42
1602.115	580.75
1606.657	592.08
1611.195	620.75
1615.728	639.75
1620.256	650.08
1624.78	677.08
1629.3	687.42
1633.816	724.75
1638.327	735.42
1642.834	753.08
1647.336	747.42
1651.834	757.08
1656.328	741.42
1660.817	725.75
1665.302	726.42
1669.783	687.08
1674.259	650.42
1678.732	611.75
1683.199	566.75
1687.663	535.08
1692.122	488.75
1696.577	461.08
1701.028	431.75
1705.474	408.75
1709.917	397.42
1714.355	357.75
1718.788	343.08
1723.218	317.42
1727.643	304.42
1732.064	270.42
1736.481	258.08
1740.893	231.75
1745.301	211.08
1749.705	203.08
1754.105	185.08
1758.501	179.75
1762.893	162.08
1767.28	153.75
1771.663	134.75
1776.042	137.08
1780.417	135.42
1784.787	133.75
1789.154	125.75
1793.516	123.42
1797.874	125.08
1802.228	122.08
1806.578	112.42
1810.924	116.75
1815.266	100.08
1819.603	93.08
1823.937	93.42
1828.266	92.75
1832.591	92.42
1836.913	85.42
1841.23	86.08
1845.543	82.75
1849.852	85.42
1854.156	85.42
1858.457	77.42
1862.754	86.42
1867.047	77.75
1871.335	78.08
1875.62	79.08
1879.9	74.42
1884.177	81.75
1888.449	79.42
1892.718	76.08
1896.982	82.75
1901.243	76.08
1905.499	79.42
1909.752	83.75
1914	80.75
1918.245	84.42
1922.485	83.42
1926.722	87.08
1930.954	91.75
1935.183	96.08
1939.408	93.08
1943.628	94.08
1947.845	90.75
1952.058	92.75
1956.267	86.42
1960.472	90.42
1964.673	92.75
1968.87	82.75
1973.063	82.08
1977.252	84.42
1981.438	86.42
1985.619	89.75
1989.797	80.75
1993.971	86.42
1998.14	89.42
2002.306	87.42
2006.469	95.08
2010.627	96.08
2014.781	96.42
2018.932	99.08
2023.078	93.75
2027.221	98.08
2031.36	98.08
2035.495	103.08
2039.627	100.75
2043.754	93.75
2047.878	96.75
2051.998	98.08
2056.114	102.42
2060.226	102.75
2064.334	105.75
2068.439	110.08
2072.54	113.75
2076.637	103.08
2080.73	116.42
2084.82	116.08
2088.906	120.75
2092.988	122.08
2097.066	114.08
2101.14	115.75
2105.211	107.08
2109.278	112.08
2113.342	107.75
2117.401	109.42
2121.457	107.75
2125.509	103.42
2129.558	105.08
2133.602	102.08
2137.643	96.75
2141.681	101.42
2145.714	97.75
2149.744	86.42
2153.77	91.08
2157.793	92.75
2161.812	76.08
2165.827	81.08
2169.838	73.75
2173.846	70.08
2177.851	64.08
2181.851	61.75
2185.848	54.08
2189.841	56.75
2193.831	50.08
2197.817	49.08
2201.799	51.75
2205.778	47.75
2209.753	48.75
2213.725	43.08
2217.693	47.42
2221.657	38.75
2225.618	42.75
2229.575	37.42
2233.529	32.08
2237.479	31.08
2241.425	32.08
2245.368	23.42
2249.307	21.75
2253.243	19.08
2257.175	13.42
2261.104	8.08
2265.029	4.75
2268.95	4.75
2272.868	-2.92
2276.783	-3.25
2280.694	-7.25
2284.601	-2.92
2288.505	-8.25
2292.405	-4.58
2296.302	-1.92
2300.195	-10.58
2304.085	-18.25
2307.971	-10.92
2311.854	-15.25
2315.734	-20.92
2319.609	-22.92
2323.482	-21.92
2327.351	-22.25
2331.216	-17.58
2335.078	-21.92
2338.937	-23.58
2342.792	-30.58
2346.643	-30.58
2350.492	-34.25
2354.336	-33.92
2358.178	-36.25
2362.015	-28.92
2365.85	-36.58
2369.681	-38.25
2373.508	-35.25
2377.333	-34.58
2381.153	-40.92
2384.971	-33.92
2388.785	-32.92
2392.595	-35.58
2396.402	-33.58
2400.206	-37.92
2404.007	-39.25
2407.804	-35.58
2411.597	-38.92
2415.388	-41.25
2419.174	-43.58
2422.958	-41.58
2426.738	-42.58
2430.515	-46.92
2434.289	-45.25
2438.059	-49.58
2441.825	-47.92
2445.589	-45.58
2449.349	-47.25
2453.106	-51.92
2456.859	-50.58
2460.61	-52.58
2464.356	-54.58
2468.1	-52.25
2471.84	-48.92
2475.577	-49.92
2479.311	-49.92
2483.041	-51.25
2486.768	-56.25
2490.492	-54.58
2494.213	-52.92
2497.93	-55.92
2501.644	-48.92
2505.355	-53.58
2509.062	-50.92
2512.766	-58.92
2516.467	-54.58
2520.165	-55.25
2523.859	-56.58
2527.551	-54.92
2531.239	-58.25
2534.923	-57.25
2538.605	-57.58
2542.283	-62.25
2545.958	-55.25
2549.63	-57.92
2553.299	-60.25
2556.964	-59.58
2560.626	-61.92
2564.285	-57.58
2567.941	-62.92
2571.594	-60.92
2575.243	-54.92
2578.89	-55.92
2582.533	-56.92
2586.173	-61.25
2589.809	-60.25
2593.443	-68.25
2597.073	-62.58
2600.701	-65.92
2604.325	-61.58
2607.946	-61.25
2611.564	-61.58
2615.178	-61.92
2618.79	-60.92
2622.398	-61.58
2626.004	-63.58
2629.606	-64.25
2633.205	-65.58
2636.801	-65.58
2640.394	-62.92
2643.983	-65.92
2647.57	-62.58
2651.153	-65.92
2654.734	-66.92
2658.311	-63.25
2661.885	-67.58
2665.456	-63.58
2669.025	-66.25
2672.589	-68.92
2676.151	-63.92
2679.71	-63.25
2683.266	-62.58
2686.819	-63.92
2690.368	-62.58
2693.915	-64.25
2697.458	-61.25
2700.999	-62.92
2704.536	-59.58
2708.071	-59.58
2711.602	-64.58
2715.13	-63.25
2718.656	-64.58
2722.178	-63.58
2725.697	-65.25
2729.214	-60.25
2732.727	-60.58
2736.237	-55.25
2739.744	-55.92
2743.249	-57.92
2746.75	-55.25
2750.248	-56.92
2753.743	-51.58
2757.236	-51.92
2760.725	-49.92
2764.211	-53.58
2767.695	-46.58
2771.175	-42.58
2774.652	-45.25
2778.127	-50.25
2781.598	-43.92
2785.067	-45.92
2788.532	-46.58
2791.995	-40.92
2795.455	-42.58
2798.911	-42.58
2802.365	-39.58
2805.816	-35.92
2809.264	-38.25
2812.709	-35.92
2816.151	-34.58
2819.59	-27.58
2823.026	-31.25
2826.46	-33.25
2829.89	-23.58
2833.318	-19.92
2836.742	-14.25
2840.164	-13.92
2843.583	-14.92
2846.999	-4.92
2850.412	-8.92
2853.822	-8.25
2857.229	-0.92
2860.634	1.08
2864.035	7.42
2867.434	2.75
2870.83	8.08
2874.223	8.75
2877.613	19.08
2881	15.42
2884.385	16.42
2887.766	22.75
2891.145	24.08
2894.521	31.75
2897.894	31.08
2901.264	37.08
2904.631	42.75
2907.996	44.08
2911.358	46.08
2914.717	48.42
2918.073	58.08
2921.426	58.75
2924.777	62.08
2928.124	69.75
2931.469	70.08
2934.811	83.42
2938.15	85.08
2941.487	95.42
2944.821	98.08
2948.152	104.42
2951.48	100.75
2954.805	106.08
2958.128	112.42
2961.447	111.75
2964.765	120.08
2968.079	130.08
2971.39	134.42
2974.699	147.75
2978.005	155.75
2981.308	165.42
2984.609	181.08
2987.907	181.75
2991.202	195.42
2994.494	203.08
2997.784	220.08
3001.07	229.75
3004.355	230.75
3007.636	242.08
3010.915	250.08
3014.191	253.75
3017.464	264.08
3020.734	271.75
3024.002	282.75
3027.267	285.08
3030.53	293.42
3033.789	310.42
3037.046	325.75
3040.301	333.75
3043.552	347.42
3046.801	370.08
3050.048	370.42
3053.291	394.75
3056.532	400.08
3059.771	424.42
3063.006	439.08
3066.239	451.42
3069.469	475.75
3072.697	493.08
3075.922	508.75
3079.144	539.08
3082.364	549.75
3085.581	562.42
3088.795	581.08
3092.007	596.75
3095.216	612.75
3098.423	640.08
3101.627	636.42
3104.828	667.75
3108.026	691.08
3111.222	711.75
3114.416	728.08
3117.607	757.75
3120.795	773.08
3123.98	789.75
3127.163	813.42
3130.344	838.42
3133.521	861.75
3136.696	875.42
3139.869	903.75
3143.039	919.08
3146.206	934.42
3149.371	954.42
3152.533	968.75
3155.693	970.75
3158.85	976.42
3162.005	997.75
3165.157	990.75
3168.306	1007.08
3171.453	997.75
3174.597	1009.42
3177.739	1000.42
3180.878	1018.08
3184.014	1020.42
3187.149	1036.08
3190.28	1035.08
3193.409	1040.08
3196.536	1047.75
3199.659	1041.42
3202.781	1051.08
3205.9	1058.42
3209.016	1056.75
3212.13	1054.42
3215.241	1054.08
3218.35	1045.75
3221.456	1042.75
3224.56	1032.42
3227.661	1030.42
3230.76	1021.08
3233.856	1003.42
3236.95	992.75
3240.041	1003.42
3243.13	987.42
3246.216	994.42
3249.3	991.75
3252.382	985.75
3255.46	997.08
3258.537	974.42
3261.611	968.75
3264.682	988.08
3267.751	964.08
3270.818	961.08
3273.882	959.08
3276.943	956.08
3280.002	951.42
3283.059	932.75
3286.113	931.75
3289.165	916.75
3292.214	900.75
3295.261	886.08
3298.306	886.08
3301.348	849.75
3304.387	842.08
3307.425	838.08
3310.459	821.08
3313.492	808.08
3316.521	802.08
3319.549	792.75
3322.574	797.75
3325.597	797.75
3328.617	778.42
3331.635	773.08
3334.65	764.42
3337.663	768.75
3340.674	763.42
3343.682	772.42
3346.688	757.75
3349.691	760.42
3352.692	754.42
3355.691	757.75
3358.687	751.08
3361.681	743.42
3364.673	734.08
3367.662	723.42
3370.649	715.42
3373.633	703.75
3376.615	709.75
3379.595	687.42
3382.572	686.42
3385.547	677.08
3388.52	643.75
3391.49	638.08
3394.458	635.75
3397.424	648.75
3400.387	627.75
3403.348	629.42
3406.307	625.08
3409.263	607.08
3412.217	609.42
3415.168	600.42
3418.118	583.75
3421.065	590.42
3424.009	590.08
3426.951	577.08
3429.891	564.42
3432.829	551.42
3435.764	547.75
3438.697	534.42
3441.628	525.42
3444.557	512.42
3447.483	501.08
3450.407	479.08
3453.328	473.08
3456.247	456.42
3459.164	441.42
3462.079	433.08
3464.991	419.08
3467.902	410.42
3470.809	391.08
3473.715	385.08
3476.618	368.08
3479.519	354.42
3482.418	352.42
3485.315	337.08
3488.209	329.42
3491.101	313.75
3493.99	306.75
3496.878	302.75
3499.763	293.42
3502.646	286.08
3505.527	272.75
3508.405	262.75
3511.281	244.75
3514.155	240.75
3517.027	232.42
3519.897	220.08
3522.764	199.42
3525.629	196.75
3528.492	186.08
3531.352	176.42
3534.211	160.42
3537.067	150.75
3539.921	143.42
3542.773	136.42
3545.622	123.42
3548.469	119.75
3551.315	111.42
3554.157	99.42
3556.998	93.42
3559.837	95.42
3562.673	93.08
3565.507	77.75
3568.339	68.75
3571.169	67.08
3573.996	64.08
3576.822	54.75
3579.645	47.08
3582.466	43.75
3585.285	41.75
3588.101	33.42
3590.916	29.75
3593.728	17.42
3596.538	17.08
3599.346	12.42
3602.152	4.08
3604.956	6.75
3607.757	0.08
3610.556	-0.25
3613.354	-4.25
3616.149	-10.58
3618.942	-12.92
3621.732	-13.92
3624.521	-20.92
3627.307	-20.25
3630.092	-23.58
3632.874	-23.92
3635.654	-27.58
3638.432	-34.58
3641.208	-37.25
3643.982	-39.58
3646.753	-41.58
3649.523	-42.92
3652.29	-47.92
3655.055	-50.25
3657.818	-50.92
3660.579	-57.58
3663.338	-55.92
3666.095	-61.58
3668.849	-61.92
3671.602	-64.58
3674.352	-63.58
3677.101	-65.92
3679.847	-69.92
3682.591	-68.92
3685.333	-70.25
3688.073	-72.58
3690.811	-74.92
3693.547	-78.92
3696.281	-75.25
3699.013	-82.25
3701.742	-80.58
3704.47	-80.58
3707.195	-83.92
3709.919	-82.92
3712.64	-84.92
3715.359	-91.25
3718.076	-90.25
3720.792	-91.58
3723.505	-91.25
3726.216	-94.25
3728.925	-91.92
3731.632	-92.92
3734.336	-92.25
3737.039	-92.25
3739.74	-92.92
3742.439	-92.58
3745.136	-92.92
3747.83	-94.92
3750.523	-95.25
3753.213	-96.92
3755.902	-95.58
3758.589	-92.92
3761.273	-98.25
3763.956	-96.92
3766.636	-96.92
3769.315	-95.92
3771.991	-99.58
3774.665	-102.58
3777.338	-101.25
3780.008	-97.58
3782.677	-100.58
3785.343	-99.58
3788.007	-101.92
3790.67	-101.92
3793.33	-103.25
3795.989	-103.25
3798.645	-102.25
3801.299	-104.25
3803.952	-102.92
3806.602	-103.58
3809.251	-104.58
3811.897	-103.25
3814.542	-103.25
3817.184	-102.58
3819.825	-102.25
3822.463	-101.58
3825.1	-101.25
3827.735	-104.58
3830.367	-102.92
3832.998	-102.58
3835.627	-102.92
3838.253	-104.58
3840.878	-103.58
3843.501	-105.92
3846.122	-105.58
3848.741	-106.25
3851.358	-105.92
3853.973	-106.25
3856.586	-106.58
3859.197	-107.25
3861.806	-103.25
3864.414	-103.58
3867.019	-107.25
3869.622	-105.25
3872.224	-102.25
3874.823	-102.25
3877.421	-100.58
3880.016	-89.58
3882.61	-85.25
3885.202	-82.58
3887.792	-89.25
3890.38	-94.92
3892.966	-98.92
3895.55	-104.25
3898.132	-105.92
3900.713	-106.25
3903.291	-105.58
3905.868	-106.25
3908.442	-106.92
3911.015	-107.25
3913.586	-109.25
3916.155	-106.58
3918.722	-108.25
3921.287	-107.58
3923.85	-109.58
3926.411	-108.58
3928.971	-109.92
3931.528	-107.92
3934.084	-104.25
3936.638	-108.58
3939.19	-108.25
3941.74	-106.25
3944.288	-106.92
3946.834	-107.25
3949.378	-104.25
3951.921	-104.58
3954.462	-107.25
3957	-109.25
3959.537	-102.25
3962.072	-107.25
3964.606	-104.25
3967.137	-108.25
3969.667	-103.92
3972.194	-108.25
3974.72	-108.25
3977.244	-108.58
3979.766	-106.58
3982.286	-109.92
3984.805	-108.25
3987.321	-108.92
3989.836	-106.25
3992.349	-105.25
3994.86	-104.25
3997.369	-107.92
3999.877	-104.92
4002.382	-103.92
4004.886	-101.92
4007.388	-100.58
4009.888	-105.25
4012.386	-107.58
4014.883	-104.58
4017.377	-108.92
4019.87	-108.25
4022.361	-106.25
4024.85	-103.92
4027.338	-109.25
4029.823	-107.58
4032.307	-107.25
4034.789	-107.25
4037.269	-105.25
4039.747	-106.25
4042.224	-106.58
4044.699	-107.58
4047.172	-109.58
4049.643	-105.92
4052.112	-105.25
4054.58	-105.25
4057.046	-105.25
4059.51	-106.92
4061.972	-105.25
4064.432	-106.58
4066.891	-105.92
4069.348	-104.25
4071.803	-105.25
4074.256	-106.58
4076.708	-106.92
4079.158	-104.25
4081.606	-106.58
4084.052	-107.25
4086.497	-109.92
4088.939	-106.92
4091.38	-110.92
4093.819	-109.92
4096.257	-113.92
4098.693	-112.92
4101.127	-111.58
4103.559	-112.92
4105.989	-69.58
4108.418	-67.58
4110.845	-61.58
4113.27	-57.58
4115.694	-52.92
4118.115	-45.25
4120.535	-107.58
4122.954	-107.25
4125.37	-107.25
4127.785	-106.58
4130.198	-105.58
4132.609	-105.25
4135.019	-109.58
4137.427	-111.92
4139.833	-108.25
4142.237	-110.58
