Data from DW_log5 (I=1 T=5x3 V=3ml)_RamanShift_5.txt Node
Date: Mon Jun 05 13:47:42 IDT 2017
User: aro
Spectrometer: QEPB0276
Trigger mode: 0
Integration Time (sec): 5.000000E0
Scans to average: 1
Electric dark correction enabled: true
Nonlinearity correction enabled: false
Boxcar width: 0
XAxis mode: Raman Shifts
Number of Pixels in Spectrum: 1044
>>>>>Begin Spectral Data<<<<<
160.701	-29.75
166.742	3.92
172.777	90.92
178.805	376.25
184.826	1069.58
190.841	2246.58
196.849	3578.92
202.85	4484.92
208.845	4728.25
214.833	4546.25
220.815	4336.92
226.789	4168.92
232.758	4036.25
238.719	3875.58
244.674	3723.58
250.623	3553.25
256.565	3339.58
262.5	3175.25
268.429	2984.92
274.351	2869.92
280.267	2740.92
286.176	2617.58
292.079	2504.58
297.975	2409.92
303.865	2341.58
309.748	2279.25
315.625	2204.92
321.495	2159.92
327.359	2145.25
333.217	2113.92
339.068	2088.25
344.912	2086.58
350.751	2086.92
356.583	2058.92
362.408	2045.92
368.227	2072.25
374.04	2094.92
379.847	2106.58
385.647	2136.58
391.44	2119.92
397.228	2103.25
403.009	2143.92
408.784	2163.92
414.553	2201.92
420.315	2273.58
426.071	2287.92
431.821	2201.58
437.565	2142.92
443.302	2117.92
449.033	2087.25
454.758	2066.58
460.477	2030.92
466.189	2044.25
471.896	2029.25
477.596	1988.92
483.29	1982.58
488.978	1975.92
494.66	1947.92
500.335	1927.92
506.005	1888.58
511.668	1841.58
517.325	1788.25
522.977	1766.92
528.622	1720.58
534.261	1711.92
539.894	1681.25
545.521	1651.25
551.141	1641.25
556.756	1635.25
562.365	1611.92
567.968	1604.92
573.565	1579.25
579.155	1567.58
584.74	1563.92
590.319	1523.92
595.892	1523.58
601.459	1508.58
607.02	1488.92
612.575	1472.92
618.124	1448.92
623.667	1425.25
629.204	1404.25
634.735	1396.92
640.261	1410.58
645.781	1419.92
651.294	1398.25
656.802	1390.25
662.304	1362.25
667.8	1315.25
673.29	1302.58
678.775	1299.25
684.254	1290.25
689.726	1269.25
695.193	1259.58
700.655	1237.58
706.11	1234.92
711.56	1216.58
717.004	1206.92
722.442	1197.92
727.874	1187.58
733.301	1163.25
738.722	1163.92
744.137	1160.25
749.547	1152.58
754.951	1146.58
760.349	1136.92
765.741	1123.92
771.128	1119.92
776.509	1106.58
781.885	1087.58
787.254	1093.92
792.618	1080.25
797.977	1066.92
803.33	1050.58
808.677	1039.58
814.019	1021.92
819.355	995.58
824.686	992.25
830.011	960.25
835.33	980.92
840.644	940.92
845.952	940.92
851.255	927.92
856.552	907.92
861.844	893.92
867.13	884.25
872.41	891.25
877.686	892.92
882.955	880.25
888.219	839.92
893.478	824.25
898.731	781.92
903.979	757.25
909.221	744.58
914.458	741.92
919.69	713.58
924.916	720.92
930.136	703.25
935.351	692.25
940.561	693.58
945.766	684.58
950.965	671.92
956.158	659.58
961.347	648.25
966.529	639.58
971.707	619.92
976.879	619.58
982.046	603.92
987.208	603.58
992.364	591.25
997.515	593.58
1002.66	586.92
1007.801	590.25
1012.936	591.92
1018.066	605.58
1023.19	597.92
1028.309	595.92
1033.423	598.92
1038.532	590.92
1043.636	583.25
1048.734	586.25
1053.827	580.25
1058.915	560.25
1063.998	561.92
1069.075	563.58
1074.147	554.92
1079.214	556.92
1084.276	564.25
1089.333	573.58
1094.385	574.25
1099.431	565.25
1104.472	555.25
1109.509	549.92
1114.54	545.25
1119.565	533.92
1124.586	528.58
1129.602	523.25
1134.613	508.58
1139.618	498.25
1144.619	510.25
1149.614	502.58
1154.604	511.25
1159.589	503.92
1164.57	511.92
1169.545	515.92
1174.515	513.58
1179.48	512.58
1184.44	495.58
1189.395	492.25
1194.345	493.92
1199.29	498.92
1204.23	484.58
1209.165	484.92
1214.095	496.58
1219.021	502.92
1223.941	496.58
1228.856	496.92
1233.766	502.25
1238.672	498.92
1243.572	498.92
1248.467	493.92
1253.358	488.58
1258.244	475.58
1263.124	465.58
1268	466.25
1272.871	458.25
1277.737	453.92
1282.599	451.58
1287.455	438.58
1292.306	449.58
1297.153	440.58
1301.995	447.58
1306.832	452.25
1311.664	446.58
1316.491	441.58
1321.314	442.58
1326.132	438.25
1330.945	422.58
1335.753	414.25
1340.556	411.58
1345.354	403.58
1350.148	387.92
1354.937	388.25
1359.722	389.58
1364.501	384.58
1369.276	381.58
1374.046	382.58
1378.811	375.58
1383.572	378.92
1388.327	373.58
1393.079	380.25
1397.825	381.58
1402.567	361.25
1407.304	367.92
1412.036	356.92
1416.764	360.92
1421.487	351.92
1426.205	351.25
1430.919	351.92
1435.628	358.58
1440.333	367.92
1445.032	366.25
1449.727	365.58
1454.418	370.58
1459.104	381.92
1463.785	378.25
1468.462	365.58
1473.134	354.92
1477.802	351.58
1482.465	350.25
1487.123	354.92
1491.777	353.92
1496.426	364.58
1501.071	368.25
1505.711	385.25
1510.347	394.58
1514.978	392.25
1519.604	395.92
1524.226	407.25
1528.844	414.58
1533.457	402.92
1538.065	407.58
1542.669	408.58
1547.269	409.92
1551.864	417.92
1556.454	427.25
1561.041	432.25
1565.622	445.92
1570.199	447.92
1574.772	469.58
1579.34	506.92
1583.904	506.25
1588.464	541.25
1593.019	559.92
1597.569	571.92
1602.115	590.25
1606.657	608.58
1611.195	638.25
1615.728	647.25
1620.256	677.58
1624.78	688.58
1629.3	723.92
1633.816	742.25
1638.327	752.92
1642.834	756.58
1647.336	759.92
1651.834	752.58
1656.328	745.92
1660.817	741.25
1665.302	706.92
1669.783	676.58
1674.259	656.92
1678.732	615.25
1683.199	582.25
1687.663	550.58
1692.122	498.25
1696.577	472.58
1701.028	448.25
1705.474	411.25
1709.917	395.92
1714.355	368.25
1718.788	343.58
1723.218	320.92
1727.643	297.92
1732.064	280.92
1736.481	258.58
1740.893	230.25
1745.301	211.58
1749.705	198.58
1754.105	192.58
1758.501	176.25
1762.893	153.58
1767.28	142.25
1771.663	140.25
1776.042	128.58
1780.417	138.92
1784.787	128.25
1789.154	124.25
1793.516	124.92
1797.874	122.58
1802.228	114.58
1806.578	113.92
1810.924	111.25
1815.266	100.58
1819.603	100.58
1823.937	100.92
1828.266	88.25
1832.591	90.92
1836.913	93.92
1841.23	80.58
1845.543	82.25
1849.852	81.92
1854.156	74.92
1858.457	80.92
1862.754	77.92
1867.047	76.25
1871.335	79.58
1875.62	78.58
1879.9	83.92
1884.177	79.25
1888.449	80.92
1892.718	80.58
1896.982	78.25
1901.243	74.58
1905.499	74.92
1909.752	78.25
1914	84.25
1918.245	85.92
1922.485	85.92
1926.722	92.58
1930.954	90.25
1935.183	98.58
1939.408	92.58
1943.628	97.58
1947.845	97.25
1952.058	92.25
1956.267	99.92
1960.472	94.92
1964.673	89.25
1968.87	88.25
1973.063	89.58
1977.252	85.92
1981.438	83.92
1985.619	82.25
1989.797	87.25
1993.971	88.92
1998.14	89.92
2002.306	88.92
2006.469	92.58
2010.627	95.58
2014.781	87.92
2018.932	93.58
2023.078	102.25
2027.221	97.58
2031.36	94.58
2035.495	98.58
2039.627	95.25
2043.754	95.25
2047.878	103.25
2051.998	99.58
2056.114	102.92
2060.226	105.25
2064.334	107.25
2068.439	114.58
2072.54	110.25
2076.637	110.58
2080.73	110.92
2084.82	113.58
2088.906	113.25
2092.988	121.58
2097.066	118.58
2101.14	116.25
2105.211	114.58
2109.278	109.58
2113.342	108.25
2117.401	108.92
2121.457	108.25
2125.509	106.92
2129.558	102.58
2133.602	105.58
2137.643	100.25
2141.681	100.92
2145.714	97.25
2149.744	96.92
2153.77	92.58
2157.793	90.25
2161.812	83.58
2165.827	81.58
2169.838	74.25
2173.846	71.58
2177.851	64.58
2181.851	64.25
2185.848	60.58
2189.841	54.25
2193.831	51.58
2197.817	48.58
2201.799	49.25
2205.778	44.25
2209.753	47.25
2213.725	44.58
2217.693	43.92
2221.657	38.25
2225.618	40.25
2229.575	38.92
2233.529	38.58
2237.479	37.58
2241.425	31.58
2245.368	28.92
2249.307	25.25
2253.243	19.58
2257.175	13.92
2261.104	13.58
2265.029	10.25
2268.95	5.25
2272.868	4.58
2276.783	-5.75
2280.694	-0.75
2284.601	-5.42
2288.505	-1.75
2292.405	-8.08
2296.302	-9.42
2300.195	-13.08
2304.085	-14.75
2307.971	-14.42
2311.854	-11.75
2315.734	-16.42
2319.609	-19.42
2323.482	-27.42
2327.351	-26.75
2331.216	-22.08
2335.078	-21.42
2338.937	-24.08
2342.792	-27.08
2346.643	-27.08
2350.492	-29.75
2354.336	-32.42
2358.178	-31.75
2362.015	-35.42
2365.85	-34.08
2369.681	-36.75
2373.508	-36.75
2377.333	-40.08
2381.153	-37.42
2384.971	-38.42
2388.785	-36.42
2392.595	-38.08
2396.402	-39.08
2400.206	-39.42
2404.007	-39.75
2407.804	-44.08
2411.597	-40.42
2415.388	-44.75
2419.174	-48.08
2422.958	-48.08
2426.738	-44.08
2430.515	-44.42
2434.289	-44.75
2438.059	-45.08
2441.825	-47.42
2445.589	-45.08
2449.349	-47.75
2453.106	-48.42
2456.859	-47.08
2460.61	-53.08
2464.356	-53.08
2468.1	-48.75
2471.84	-54.42
2475.577	-52.42
2479.311	-52.42
2483.041	-53.75
2486.768	-54.75
2490.492	-57.08
2494.213	-52.42
2497.93	-59.42
2501.644	-57.42
2505.355	-57.08
2509.062	-57.42
2512.766	-59.42
2516.467	-57.08
2520.165	-55.75
2523.859	-56.08
2527.551	-57.42
2531.239	-55.75
2534.923	-54.75
2538.605	-58.08
2542.283	-56.75
2545.958	-56.75
2549.63	-57.42
2553.299	-57.75
2556.964	-56.08
2560.626	-59.42
2564.285	-57.08
2567.941	-55.42
2571.594	-59.42
2575.243	-61.42
2578.89	-60.42
2582.533	-60.42
2586.173	-65.75
2589.809	-63.75
2593.443	-66.75
2597.073	-61.08
2600.701	-67.42
2604.325	-62.08
2607.946	-63.75
2611.564	-68.08
2615.178	-65.42
2618.79	-62.42
2622.398	-60.08
2626.004	-64.08
2629.606	-63.75
2633.205	-59.08
2636.801	-66.08
2640.394	-59.42
2643.983	-63.42
2647.57	-61.08
2651.153	-64.42
2654.734	-64.42
2658.311	-62.75
2661.885	-69.08
2665.456	-66.08
2669.025	-65.75
2672.589	-69.42
2676.151	-63.42
2679.71	-67.75
2683.266	-64.08
2686.819	-62.42
2690.368	-60.08
2693.915	-65.75
2697.458	-60.75
2700.999	-62.42
2704.536	-62.08
2708.071	-60.08
2711.602	-61.08
2715.13	-53.75
2718.656	-62.08
2722.178	-55.08
2725.697	-63.75
2729.214	-57.75
2732.727	-56.08
2736.237	-57.75
2739.744	-54.42
2743.249	-57.42
2746.75	-51.75
2750.248	-54.42
2753.743	-52.08
2757.236	-50.42
2760.725	-50.42
2764.211	-53.08
2767.695	-46.08
2771.175	-51.08
2774.652	-46.75
2778.127	-45.75
2781.598	-44.42
2785.067	-39.42
2788.532	-40.08
2791.995	-38.42
2795.455	-36.08
2798.911	-40.08
2802.365	-42.08
2805.816	-35.42
2809.264	-30.75
2812.709	-34.42
2816.151	-30.08
2819.59	-33.08
2823.026	-23.75
2826.46	-21.75
2829.89	-25.08
2833.318	-18.42
2836.742	-16.75
2840.164	-16.42
2843.583	-18.42
2846.999	-11.42
2850.412	-8.42
2853.822	-1.75
2857.229	1.58
2860.634	6.58
2864.035	2.92
2867.434	10.25
2870.83	15.58
2874.223	17.25
2877.613	20.58
2881	25.92
2884.385	30.92
2887.766	28.25
2891.145	28.58
2894.521	33.25
2897.894	34.58
2901.264	44.58
2904.631	44.25
2907.996	49.58
2911.358	45.58
2914.717	52.92
2918.073	59.58
2921.426	69.25
2924.777	73.58
2928.124	76.25
2931.469	83.58
2934.811	91.92
2938.15	105.58
2941.487	100.92
2944.821	103.58
2948.152	110.92
2951.48	121.25
2954.805	112.58
2958.128	114.92
2961.447	124.25
2964.765	131.58
2968.079	138.58
2971.39	148.92
2974.699	152.25
2978.005	162.25
2981.308	175.92
2984.609	181.58
2987.907	187.25
2991.202	200.92
2994.494	211.58
2997.784	221.58
3001.07	235.25
3004.355	240.25
3007.636	244.58
3010.915	250.58
3014.191	265.25
3017.464	273.58
3020.734	280.25
3024.002	298.25
3027.267	293.58
3030.53	317.92
3033.789	318.92
3037.046	335.25
3040.301	347.25
3043.552	345.92
3046.801	368.58
3050.048	381.92
3053.291	395.25
3056.532	413.58
3059.771	426.92
3063.006	452.58
3066.239	461.92
3069.469	473.25
3072.697	506.58
3075.922	515.25
3079.144	538.58
3082.364	558.25
3085.581	567.92
3088.795	580.58
3092.007	620.25
3095.216	622.25
3098.423	644.58
3101.627	666.92
3104.828	686.25
3108.026	714.58
3111.222	726.25
3114.416	737.58
3117.607	766.25
3120.795	794.58
3123.98	802.25
3127.163	824.92
3130.344	857.92
3133.521	879.25
3136.696	898.92
3139.869	924.25
3143.039	942.58
3146.206	953.92
3149.371	971.92
3152.533	978.25
3155.693	998.25
3158.85	1010.92
3162.005	1022.25
3165.157	1021.25
3168.306	1019.58
3171.453	1023.25
3174.597	1036.92
3177.739	1044.92
3180.878	1046.58
3184.014	1051.92
3187.149	1047.58
3190.28	1055.58
3193.409	1063.58
3196.536	1076.25
3199.659	1062.92
3202.781	1092.58
3205.9	1077.92
3209.016	1079.25
3212.13	1073.92
3215.241	1077.58
3218.35	1054.25
3221.456	1057.25
3224.56	1061.92
3227.661	1056.92
3230.76	1053.58
3233.856	1033.92
3236.95	1021.25
3240.041	1023.92
3243.13	1015.92
3246.216	1007.92
3249.3	1012.25
3252.382	999.25
3255.46	1008.58
3258.537	994.92
3261.611	996.25
3264.682	996.58
3267.751	992.58
3270.818	981.58
3273.882	989.58
3276.943	981.58
3280.002	966.92
3283.059	955.25
3286.113	939.25
3289.165	935.25
3292.214	926.25
3295.261	898.58
3298.306	888.58
3301.348	866.25
3304.387	861.58
3307.425	846.58
3310.459	847.58
3313.492	840.58
3316.521	825.58
3319.549	816.25
3322.574	818.25
3325.597	812.25
3328.617	788.92
3331.635	785.58
3334.65	779.92
3337.663	778.25
3340.674	783.92
3343.682	772.92
3346.688	776.25
3349.691	785.92
3352.692	775.92
3355.691	765.25
3358.687	763.58
3361.681	759.92
3364.673	744.58
3367.662	739.92
3370.649	721.92
3373.633	729.25
3376.615	709.25
3379.595	696.92
3382.572	689.92
3385.547	688.58
3388.52	673.25
3391.49	672.58
3394.458	669.25
3397.424	656.25
3400.387	653.25
3403.348	627.92
3406.307	639.58
3409.263	633.58
3412.217	619.92
3415.168	607.92
3418.118	611.25
3421.065	603.92
3424.009	600.58
3426.951	582.58
3429.891	571.92
3432.829	571.92
3435.764	557.25
3438.697	541.92
3441.628	530.92
3444.557	509.92
3447.483	510.58
3450.407	489.58
3453.328	488.58
3456.247	463.92
3459.164	450.92
3462.079	438.58
3464.991	432.58
3467.902	415.92
3470.809	408.58
3473.715	382.58
3476.618	371.58
3479.519	369.92
3482.418	362.92
3485.315	340.58
3488.209	335.92
3491.101	329.25
3493.99	327.25
3496.878	310.25
3499.763	302.92
3502.646	290.58
3505.527	286.25
3508.405	264.25
3511.281	263.25
3514.155	246.25
3517.027	242.92
3519.897	219.58
3522.764	214.92
3525.629	201.25
3528.492	194.58
3531.352	174.92
3534.211	165.92
3537.067	166.25
3539.921	152.92
3542.773	140.92
3545.622	127.92
3548.469	122.25
3551.315	117.92
3554.157	109.92
3556.998	99.92
3559.837	94.92
3562.673	87.58
3565.507	93.25
3568.339	79.25
3571.169	74.58
3573.996	68.58
3576.822	56.25
3579.645	52.58
3582.466	48.25
3585.285	43.25
3588.101	40.92
3590.916	34.25
3593.728	27.92
3596.538	21.58
3599.346	19.92
3602.152	14.58
3604.956	7.25
3607.757	6.58
3610.556	2.25
3613.354	-0.75
3616.149	-7.08
3618.942	-8.42
3621.732	-12.42
3624.521	-17.42
3627.307	-14.75
3630.092	-22.08
3632.874	-25.42
3635.654	-26.08
3638.432	-32.08
3641.208	-30.75
3643.982	-35.08
3646.753	-36.08
3649.523	-44.42
3652.29	-43.42
3655.055	-51.75
3657.818	-51.42
3660.579	-58.08
3663.338	-57.42
3666.095	-58.08
3668.849	-56.42
3671.602	-61.08
3674.352	-65.08
3677.101	-65.42
3679.847	-65.42
3682.591	-68.42
3685.333	-68.75
3688.073	-71.08
3690.811	-74.42
3693.547	-71.42
3696.281	-76.75
3699.013	-76.75
3701.742	-83.08
3704.47	-80.08
3707.195	-83.42
3709.919	-84.42
3712.64	-83.42
3715.359	-86.75
3718.076	-89.75
3720.792	-92.08
3723.505	-92.75
3726.216	-94.75
3728.925	-89.42
3731.632	-89.42
3734.336	-92.75
3737.039	-92.75
3739.74	-89.42
3742.439	-91.08
3745.136	-92.42
3747.83	-95.42
3750.523	-93.75
3753.213	-98.42
3755.902	-98.08
3758.589	-93.42
3761.273	-94.75
3763.956	-95.42
3766.636	-97.42
3769.315	-97.42
3771.991	-99.08
3774.665	-98.08
3777.338	-100.75
3780.008	-98.08
3782.677	-99.08
3785.343	-100.08
3788.007	-98.42
3790.67	-96.42
3793.33	-101.75
3795.989	-101.75
3798.645	-103.75
3801.299	-103.75
3803.952	-100.42
3806.602	-103.08
3809.251	-103.08
3811.897	-103.75
3814.542	-103.75
3817.184	-103.08
3819.825	-101.75
3822.463	-102.08
3825.1	-102.75
3827.735	-102.08
3830.367	-100.42
3832.998	-102.08
3835.627	-104.42
3838.253	-105.08
3840.878	-104.08
3843.501	-104.42
3846.122	-106.08
3848.741	-103.75
3851.358	-107.42
3853.973	-104.75
3856.586	-105.08
3859.197	-104.75
3861.806	-103.75
3864.414	-110.08
3867.019	-105.75
3869.622	-105.75
3872.224	-106.75
3874.823	-102.75
3877.421	-96.08
3880.016	-93.08
3882.61	-83.75
3885.202	-82.08
3887.792	-89.75
3890.38	-97.42
3892.966	-100.42
3895.55	-102.75
3898.132	-102.42
3900.713	-107.75
3903.291	-107.08
3905.868	-106.75
3908.442	-104.42
3911.015	-105.75
3913.586	-107.75
3916.155	-106.08
3918.722	-108.75
3921.287	-108.08
3923.85	-109.08
3926.411	-106.08
3928.971	-108.42
3931.528	-109.42
3934.084	-106.75
3936.638	-108.08
3939.19	-105.75
3941.74	-106.75
3944.288	-107.42
3946.834	-106.75
3949.378	-105.75
3951.921	-105.08
3954.462	-104.75
3957	-103.75
3959.537	-104.75
3962.072	-105.75
3964.606	-105.75
3967.137	-104.75
3969.667	-107.42
3972.194	-109.75
3974.72	-106.75
3977.244	-107.08
3979.766	-107.08
3982.286	-105.42
3984.805	-108.75
3987.321	-106.42
3989.836	-105.75
3992.349	-104.75
3994.86	-103.75
3997.369	-105.42
3999.877	-105.42
4002.382	-105.42
4004.886	-102.42
4007.388	-103.08
4009.888	-99.75
4012.386	-104.08
4014.883	-102.08
4017.377	-103.42
4019.87	-104.75
4022.361	-107.75
4024.85	-104.42
4027.338	-106.75
4029.823	-109.08
4032.307	-106.75
4034.789	-108.75
4037.269	-106.75
4039.747	-106.75
4042.224	-106.08
4044.699	-109.08
4047.172	-105.08
4049.643	-102.42
4052.112	-104.75
4054.58	-103.75
4057.046	-106.75
4059.51	-106.42
4061.972	-105.75
4064.432	-105.08
4066.891	-104.42
4069.348	-103.75
4071.803	-103.75
4074.256	-105.08
4076.708	-108.42
4079.158	-104.75
4081.606	-108.08
4084.052	-107.75
4086.497	-110.42
4088.939	-106.42
4091.38	-108.42
4093.819	-110.42
4096.257	-110.42
4098.693	-108.42
4101.127	-110.08
4103.559	-109.42
4105.989	-71.08
4108.418	-64.08
4110.845	-60.08
4113.27	-61.08
4115.694	-52.42
4118.115	-46.75
4120.535	-107.08
4122.954	-107.75
4125.37	-108.75
4127.785	-105.08
4130.198	-109.08
4132.609	-105.75
4135.019	-109.08
4137.427	-111.42
4139.833	-110.75
4142.237	-110.08
