Data from DW_log8 (I=1 T=5x3 V=3ml)_RamanShift_9.txt Node
Date: Mon Jun 05 13:37:01 IDT 2017
User: aro
Spectrometer: QEPB0276
Trigger mode: 0
Integration Time (sec): 5.000000E0
Scans to average: 1
Electric dark correction enabled: true
Nonlinearity correction enabled: false
Boxcar width: 0
XAxis mode: Raman Shifts
Number of Pixels in Spectrum: 1044
>>>>>Begin Spectral Data<<<<<
160.701	-3.75
166.742	5.92
172.777	26.92
178.805	104.25
184.826	277.58
190.841	557.58
196.849	892.92
202.85	1098.92
208.845	1152.25
214.833	1135.25
220.815	1075.92
226.789	1056.92
232.758	1031.25
238.719	993.58
244.674	971.58
250.623	929.25
256.565	888.58
262.5	852.25
268.429	830.92
274.351	798.92
280.267	761.92
286.176	757.58
292.079	719.58
297.975	708.92
303.865	695.58
309.748	677.25
315.625	677.92
321.495	664.92
327.359	664.25
333.217	653.92
339.068	655.25
344.912	662.58
350.751	649.92
356.583	650.92
362.408	656.92
368.227	660.25
374.04	670.92
379.847	697.58
385.647	703.58
391.44	695.92
397.228	684.25
403.009	679.92
408.784	713.92
414.553	755.92
420.315	819.58
426.071	819.92
431.821	767.58
437.565	710.92
443.302	690.92
449.033	687.25
454.758	683.58
460.477	660.92
466.189	663.25
471.896	642.25
477.596	647.92
483.29	642.58
488.978	641.92
494.66	638.92
500.335	620.92
506.005	592.58
511.668	576.58
517.325	546.25
522.977	515.92
528.622	512.58
534.261	494.92
539.894	496.25
545.521	485.25
551.141	482.25
556.756	471.25
562.365	469.92
567.968	475.92
573.565	461.25
579.155	464.58
584.74	460.92
590.319	452.92
595.892	443.58
601.459	438.58
607.02	449.92
612.575	441.92
618.124	423.92
623.667	421.25
629.204	416.25
634.735	423.92
640.261	428.58
645.781	438.92
651.294	442.25
656.802	430.25
662.304	410.25
667.8	388.25
673.29	385.58
678.775	388.25
684.254	390.25
689.726	368.25
695.193	384.58
700.655	372.58
706.11	366.92
711.56	363.58
717.004	366.92
722.442	365.92
727.874	351.58
733.301	358.25
738.722	359.92
744.137	354.25
749.547	358.58
754.951	368.58
760.349	350.92
765.741	342.92
771.128	351.92
776.509	348.58
781.885	349.58
787.254	344.92
792.618	343.25
797.977	347.92
803.33	340.58
808.677	341.58
814.019	330.92
819.355	319.58
824.686	321.25
830.011	320.25
835.33	307.92
840.644	312.92
845.952	305.92
851.255	302.92
856.552	294.92
861.844	291.92
867.13	283.25
872.41	287.25
877.686	284.92
882.955	284.25
888.219	272.92
893.478	266.25
898.731	259.92
903.979	247.25
909.221	243.58
914.458	243.92
919.69	243.58
924.916	238.92
930.136	234.25
935.351	239.25
940.561	234.58
945.766	231.58
950.965	228.92
956.158	224.58
961.347	226.25
966.529	217.58
971.707	216.92
976.879	213.58
982.046	212.92
987.208	206.58
992.364	201.25
997.515	204.58
1002.66	208.92
1007.801	204.25
1012.936	214.92
1018.066	209.58
1023.19	208.92
1028.309	213.92
1033.423	213.92
1038.532	212.92
1043.636	211.25
1048.734	210.25
1053.827	208.25
1058.915	204.25
1063.998	202.92
1069.075	202.58
1074.147	201.92
1079.214	206.92
1084.276	207.25
1089.333	201.58
1094.385	209.25
1099.431	199.25
1104.472	200.25
1109.509	193.92
1114.54	196.25
1119.565	188.92
1124.586	178.58
1129.602	184.25
1134.613	192.58
1139.618	191.25
1144.619	184.25
1149.614	182.58
1154.604	186.25
1159.589	189.92
1164.57	182.92
1169.545	183.92
1174.515	182.58
1179.48	180.58
1184.44	179.58
1189.395	180.25
1194.345	177.92
1199.29	176.92
1204.23	180.58
1209.165	174.92
1214.095	183.58
1219.021	177.92
1223.941	180.58
1228.856	180.92
1233.766	179.25
1238.672	182.92
1243.572	179.92
1248.467	178.92
1253.358	175.58
1258.244	171.58
1263.124	171.58
1268	162.25
1272.871	155.25
1277.737	156.92
1282.599	154.58
1287.455	157.58
1292.306	155.58
1297.153	160.58
1301.995	158.58
1306.832	157.25
1311.664	150.58
1316.491	158.58
1321.314	157.58
1326.132	152.25
1330.945	148.58
1335.753	153.25
1340.556	151.58
1345.354	147.58
1350.148	142.92
1354.937	141.25
1359.722	140.58
1364.501	136.58
1369.276	140.58
1374.046	145.58
1378.811	139.58
1383.572	144.92
1388.327	146.58
1393.079	135.25
1397.825	130.58
1402.567	130.25
1407.304	130.92
1412.036	121.92
1416.764	127.92
1421.487	122.92
1426.205	128.25
1430.919	131.92
1435.628	133.58
1440.333	129.92
1445.032	134.25
1449.727	134.58
1454.418	132.58
1459.104	137.92
1463.785	136.25
1468.462	132.58
1473.134	133.92
1477.802	128.58
1482.465	124.25
1487.123	123.92
1491.777	125.92
1496.426	126.58
1501.071	135.25
1505.711	139.25
1510.347	136.58
1514.978	136.25
1519.604	137.92
1524.226	133.25
1528.844	140.58
1533.457	138.92
1538.065	145.58
1542.669	144.58
1547.269	140.92
1551.864	143.92
1556.454	145.25
1561.041	141.25
1565.622	144.92
1570.199	148.92
1574.772	154.58
1579.34	149.92
1583.904	166.25
1588.464	167.25
1593.019	174.92
1597.569	178.92
1602.115	175.25
1606.657	180.58
1611.195	188.25
1615.728	191.25
1620.256	200.58
1624.78	210.58
1629.3	208.92
1633.816	214.25
1638.327	222.92
1642.834	220.58
1647.336	217.92
1651.834	218.58
1656.328	214.92
1660.817	222.25
1665.302	211.92
1669.783	196.58
1674.259	189.92
1678.732	184.25
1683.199	178.25
1687.663	165.58
1692.122	159.25
1696.577	144.58
1701.028	140.25
1705.474	134.25
1709.917	129.92
1714.355	130.25
1718.788	114.58
1723.218	112.92
1727.643	97.92
1732.064	98.92
1736.481	96.58
1740.893	85.25
1745.301	82.58
1749.705	80.58
1754.105	73.58
1758.501	73.25
1762.893	69.58
1767.28	62.25
1771.663	63.25
1776.042	58.58
1780.417	58.92
1784.787	60.25
1789.154	58.25
1793.516	59.92
1797.874	56.58
1802.228	59.58
1806.578	56.92
1810.924	55.25
1815.266	53.58
1819.603	45.58
1823.937	47.92
1828.266	50.25
1832.591	48.92
1836.913	45.92
1841.23	43.58
1845.543	45.25
1849.852	42.92
1854.156	39.92
1858.457	34.92
1862.754	40.92
1867.047	37.25
1871.335	37.58
1875.62	45.58
1879.9	43.92
1884.177	46.25
1888.449	44.92
1892.718	42.58
1896.982	42.25
1901.243	39.58
1905.499	42.92
1909.752	43.25
1914	47.25
1918.245	42.92
1922.485	46.92
1926.722	46.58
1930.954	45.25
1935.183	47.58
1939.408	45.58
1943.628	40.58
1947.845	45.25
1952.058	45.25
1956.267	46.92
1960.472	43.92
1964.673	39.25
1968.87	43.25
1973.063	42.58
1977.252	40.92
1981.438	40.92
1985.619	41.25
1989.797	44.25
1993.971	42.92
1998.14	44.92
2002.306	41.92
2006.469	45.58
2010.627	47.58
2014.781	42.92
2018.932	45.58
2023.078	43.25
2027.221	42.58
2031.36	37.58
2035.495	34.58
2039.627	36.25
2043.754	36.25
2047.878	39.25
2051.998	41.58
2056.114	40.92
2060.226	41.25
2064.334	43.25
2068.439	45.58
2072.54	49.25
2076.637	44.58
2080.73	50.92
2084.82	49.58
2088.906	45.25
2092.988	45.58
2097.066	47.58
2101.14	46.25
2105.211	49.58
2109.278	43.58
2113.342	39.25
2117.401	43.92
2121.457	41.25
2125.509	43.92
2129.558	42.58
2133.602	43.58
2137.643	38.25
2141.681	44.92
2145.714	42.25
2149.744	42.92
2153.77	38.58
2157.793	37.25
2161.812	38.58
2165.827	39.58
2169.838	38.25
2173.846	30.58
2177.851	32.58
2181.851	32.25
2185.848	27.58
2189.841	24.25
2193.831	27.58
2197.817	25.58
2201.799	22.25
2205.778	21.25
2209.753	19.25
2213.725	18.58
2217.693	21.92
2221.657	19.25
2225.618	19.25
2229.575	18.92
2233.529	20.58
2237.479	18.58
2241.425	21.58
2245.368	15.92
2249.307	19.25
2253.243	14.58
2257.175	14.92
2261.104	13.58
2265.029	8.25
2268.95	9.25
2272.868	12.58
2276.783	7.25
2280.694	10.25
2284.601	4.58
2288.505	7.25
2292.405	6.92
2296.302	9.58
2300.195	3.92
2304.085	2.25
2307.971	5.58
2311.854	5.25
2315.734	4.58
2319.609	2.58
2323.482	-2.42
2327.351	4.25
2331.216	1.92
2335.078	5.58
2338.937	4.92
2342.792	2.92
2346.643	1.92
2350.492	1.25
2354.336	2.58
2358.178	-2.75
2362.015	-1.42
2365.85	-1.08
2369.681	-4.75
2373.508	-4.75
2377.333	-2.08
2381.153	-5.42
2384.971	-4.42
2388.785	-0.42
2392.595	-2.08
2396.402	-3.08
2400.206	-2.42
2404.007	-0.75
2407.804	-5.08
2411.597	-3.42
2415.388	-2.75
2419.174	-6.08
2422.958	-5.08
2426.738	-4.08
2430.515	-11.42
2434.289	-2.75
2438.059	-9.08
2441.825	-5.42
2445.589	-8.08
2449.349	-7.75
2453.106	-8.42
2456.859	-9.08
2460.61	-10.08
2464.356	-8.08
2468.1	-6.75
2471.84	-9.42
2475.577	-10.42
2479.311	-10.42
2483.041	-7.75
2486.768	-13.75
2490.492	-8.08
2494.213	-6.42
2497.93	-7.42
2501.644	-4.42
2505.355	-8.08
2509.062	-7.42
2512.766	-11.42
2516.467	-11.08
2520.165	-7.75
2523.859	-10.08
2527.551	-11.42
2531.239	-11.75
2534.923	-10.75
2538.605	-12.08
2542.283	-10.75
2545.958	-8.75
2549.63	-7.42
2553.299	-9.75
2556.964	-11.08
2560.626	-13.42
2564.285	-13.08
2567.941	-8.42
2571.594	-11.42
2575.243	-8.42
2578.89	-11.42
2582.533	-8.42
2586.173	-11.75
2589.809	-9.75
2593.443	-13.75
2597.073	-12.08
2600.701	-10.42
2604.325	-7.08
2607.946	-12.75
2611.564	-11.08
2615.178	-13.42
2618.79	-13.42
2622.398	-13.08
2626.004	-12.08
2629.606	-13.75
2633.205	-17.08
2636.801	-15.08
2640.394	-12.42
2643.983	-17.42
2647.57	-12.08
2651.153	-14.42
2654.734	-14.42
2658.311	-14.75
2661.885	-11.08
2665.456	-14.08
2669.025	-11.75
2672.589	-9.42
2676.151	-12.42
2679.71	-8.75
2683.266	-14.08
2686.819	-14.42
2690.368	-10.08
2693.915	-18.75
2697.458	-14.75
2700.999	-16.42
2704.536	-15.08
2708.071	-13.08
2711.602	-14.08
2715.13	-12.75
2718.656	-15.08
2722.178	-13.08
2725.697	-11.75
2729.214	-11.75
2732.727	-12.08
2736.237	-11.75
2739.744	-11.42
2743.249	-13.42
2746.75	-10.75
2750.248	-15.42
2753.743	-10.08
2757.236	-11.42
2760.725	-10.42
2764.211	-10.08
2767.695	-12.08
2771.175	-15.08
2774.652	-11.75
2778.127	-12.75
2781.598	-11.42
2785.067	-9.42
2788.532	-9.08
2791.995	-11.42
2795.455	-11.08
2798.911	-11.08
2802.365	-8.08
2805.816	-6.42
2809.264	-6.75
2812.709	-5.42
2816.151	-5.08
2819.59	-4.08
2823.026	-0.75
2826.46	-4.75
2829.89	-3.08
2833.318	-0.42
2836.742	-2.75
2840.164	-3.42
2843.583	-3.42
2846.999	-3.42
2850.412	1.58
2853.822	0.25
2857.229	2.58
2860.634	3.58
2864.035	2.92
2867.434	7.25
2870.83	9.58
2874.223	5.25
2877.613	8.58
2881	10.92
2884.385	15.92
2887.766	16.25
2891.145	14.58
2894.521	14.25
2897.894	13.58
2901.264	11.58
2904.631	15.25
2907.996	13.58
2911.358	15.58
2914.717	13.92
2918.073	17.58
2921.426	18.25
2924.777	19.58
2928.124	24.25
2931.469	25.58
2934.811	25.92
2938.15	31.58
2941.487	30.92
2944.821	37.58
2948.152	31.92
2951.48	37.25
2954.805	36.58
2958.128	35.92
2961.447	36.25
2964.765	34.58
2968.079	35.58
2971.39	39.92
2974.699	40.25
2978.005	48.25
2981.308	47.92
2984.609	53.58
2987.907	54.25
2991.202	55.92
2994.494	61.58
2997.784	58.58
3001.07	67.25
3004.355	67.25
3007.636	73.58
3010.915	77.58
3014.191	78.25
3017.464	77.58
3020.734	81.25
3024.002	79.25
3027.267	84.58
3030.53	86.92
3033.789	88.92
3037.046	89.25
3040.301	95.25
3043.552	93.92
3046.801	97.58
3050.048	106.92
3053.291	108.25
3056.532	112.58
3059.771	113.92
3063.006	128.58
3066.239	128.92
3069.469	132.25
3072.697	139.58
3075.922	149.25
3079.144	149.58
3082.364	156.25
3085.581	156.92
3088.795	164.58
3092.007	164.25
3095.216	173.25
3098.423	176.58
3101.627	183.92
3104.828	190.25
3108.026	189.58
3111.222	199.25
3114.416	202.58
3117.607	216.25
3120.795	212.58
3123.98	219.25
3127.163	222.92
3130.344	240.92
3133.521	244.25
3136.696	245.92
3139.869	249.25
3143.039	259.58
3146.206	263.92
3149.371	270.92
3152.533	265.25
3155.693	267.25
3158.85	277.92
3162.005	284.25
3165.157	279.25
3168.306	285.58
3171.453	280.25
3174.597	280.92
3177.739	277.92
3180.878	280.58
3184.014	283.92
3187.149	300.58
3190.28	292.58
3193.409	293.58
3196.536	295.25
3199.659	295.92
3202.781	292.58
3205.9	300.92
3209.016	301.25
3212.13	301.92
3215.241	301.58
3218.35	292.25
3221.456	298.25
3224.56	294.92
3227.661	293.92
3230.76	283.58
3233.856	279.92
3236.95	279.25
3240.041	285.92
3243.13	276.92
3246.216	270.92
3249.3	282.25
3252.382	269.25
3255.46	279.58
3258.537	281.92
3261.611	282.25
3264.682	274.58
3267.751	276.58
3270.818	276.58
3273.882	270.58
3276.943	264.58
3280.002	272.92
3283.059	266.25
3286.113	261.25
3289.165	257.25
3292.214	253.25
3295.261	250.58
3298.306	245.58
3301.348	241.25
3304.387	231.58
3307.425	236.58
3310.459	228.58
3313.492	231.58
3316.521	225.58
3319.549	224.25
3322.574	224.25
3325.597	228.25
3328.617	215.92
3331.635	214.58
3334.65	223.92
3337.663	221.25
3340.674	224.92
3343.682	215.92
3346.688	217.25
3349.691	215.92
3352.692	213.92
3355.691	216.25
3358.687	215.58
3361.681	207.92
3364.673	208.58
3367.662	204.92
3370.649	208.92
3373.633	202.25
3376.615	191.25
3379.595	194.92
3382.572	184.92
3385.547	188.58
3388.52	193.25
3391.49	188.58
3394.458	187.25
3397.424	185.25
3400.387	188.25
3403.348	178.92
3406.307	184.58
3409.263	172.58
3412.217	176.92
3415.168	166.92
3418.118	172.25
3421.065	170.92
3424.009	165.58
3426.951	160.58
3429.891	160.92
3432.829	155.92
3435.764	152.25
3438.697	155.92
3441.628	144.92
3444.557	149.92
3447.483	141.58
3450.407	142.58
3453.328	137.58
3456.247	132.92
3459.164	125.92
3462.079	125.58
3464.991	123.58
3467.902	122.92
3470.809	111.58
3473.715	111.58
3476.618	106.58
3479.519	105.92
3482.418	101.92
3485.315	98.58
3488.209	97.92
3491.101	86.25
3493.99	89.25
3496.878	84.25
3499.763	86.92
3502.646	86.58
3505.527	79.25
3508.405	77.25
3511.281	72.25
3514.155	71.25
3517.027	71.92
3519.897	66.58
3522.764	63.92
3525.629	61.25
3528.492	56.58
3531.352	51.92
3534.211	49.92
3537.067	45.25
3539.921	43.92
3542.773	38.92
3545.622	35.92
3548.469	33.25
3551.315	33.92
3554.157	30.92
3556.998	31.92
3559.837	24.92
3562.673	25.58
3565.507	25.25
3568.339	23.25
3571.169	23.58
3573.996	20.58
3576.822	21.25
3579.645	16.58
3582.466	15.25
3585.285	14.25
3588.101	13.92
3590.916	8.25
3593.728	9.92
3596.538	8.58
3599.346	2.92
3602.152	3.58
3604.956	0.25
3607.757	1.58
3610.556	-0.75
3613.354	-0.75
3616.149	-0.08
3618.942	-6.42
3621.732	-1.42
3624.521	-6.42
3627.307	-3.75
3630.092	-8.08
3632.874	-8.42
3635.654	-8.08
3638.432	-8.08
3641.208	-6.75
3643.982	-10.08
3646.753	-11.08
3649.523	-12.42
3652.29	-11.42
3655.055	-12.75
3657.818	-9.42
3660.579	-14.08
3663.338	-17.42
3666.095	-14.08
3668.849	-15.42
3671.602	-18.08
3674.352	-15.08
3677.101	-19.42
3679.847	-20.42
3682.591	-20.42
3685.333	-20.75
3688.073	-20.08
3690.811	-23.42
3693.547	-21.42
3696.281	-19.75
3699.013	-21.75
3701.742	-21.08
3704.47	-22.08
3707.195	-23.42
3709.919	-25.42
3712.64	-22.42
3715.359	-25.75
3718.076	-24.75
3720.792	-27.08
3723.505	-22.75
3726.216	-27.75
3728.925	-24.42
3731.632	-25.42
3734.336	-26.75
3737.039	-28.75
3739.74	-26.42
3742.439	-30.08
3745.136	-28.42
3747.83	-30.42
3750.523	-29.75
3753.213	-29.42
3755.902	-32.08
3758.589	-27.42
3761.273	-25.75
3763.956	-26.42
3766.636	-25.42
3769.315	-28.42
3771.991	-27.08
3774.665	-28.08
3777.338	-24.75
3780.008	-29.08
3782.677	-26.08
3785.343	-25.08
3788.007	-26.42
3790.67	-26.42
3793.33	-29.75
3795.989	-27.75
3798.645	-27.75
3801.299	-30.75
3803.952	-27.42
3806.602	-32.08
3809.251	-32.08
3811.897	-31.75
3814.542	-29.75
3817.184	-29.08
3819.825	-30.75
3822.463	-29.08
3825.1	-27.75
3827.735	-29.08
3830.367	-27.42
3832.998	-28.08
3835.627	-32.42
3838.253	-29.08
3840.878	-27.08
3843.501	-27.42
3846.122	-30.08
3848.741	-28.75
3851.358	-29.42
3853.973	-30.75
3856.586	-32.08
3859.197	-31.75
3861.806	-27.75
3864.414	-30.08
3867.019	-30.75
3869.622	-30.75
3872.224	-27.75
3874.823	-29.75
3877.421	-26.08
3880.016	-23.08
3882.61	-15.75
3885.202	-15.08
3887.792	-17.75
3890.38	-20.42
3892.966	-27.42
3895.55	-29.75
3898.132	-28.42
3900.713	-30.75
3903.291	-31.08
3905.868	-31.75
3908.442	-33.42
3911.015	-30.75
3913.586	-33.75
3916.155	-33.08
3918.722	-33.75
3921.287	-33.08
3923.85	-32.08
3926.411	-30.08
3928.971	-31.42
3931.528	-30.42
3934.084	-29.75
3936.638	-29.08
3939.19	-32.75
3941.74	-31.75
3944.288	-30.42
3946.834	-29.75
3949.378	-28.75
3951.921	-28.08
3954.462	-28.75
3957	-31.75
3959.537	-30.75
3962.072	-30.75
3964.606	-36.75
3967.137	-29.75
3969.667	-32.42
3972.194	-33.75
3974.72	-32.75
3977.244	-33.08
3979.766	-32.08
3982.286	-31.42
3984.805	-30.75
3987.321	-28.42
3989.836	-28.75
3992.349	-27.75
3994.86	-29.75
3997.369	-30.42
3999.877	-29.42
4002.382	-29.42
4004.886	-28.42
4007.388	-28.08
4009.888	-31.75
4012.386	-30.08
4014.883	-30.08
4017.377	-32.42
4019.87	-32.75
4022.361	-30.75
4024.85	-29.42
4027.338	-32.75
4029.823	-35.08
4032.307	-29.75
4034.789	-30.75
4037.269	-29.75
4039.747	-27.75
4042.224	-29.08
4044.699	-29.08
4047.172	-30.08
4049.643	-28.42
4052.112	-28.75
4054.58	-28.75
4057.046	-29.75
4059.51	-29.42
4061.972	-30.75
4064.432	-33.08
4066.891	-31.42
4069.348	-32.75
4071.803	-32.75
4074.256	-30.08
4076.708	-29.42
4079.158	-30.75
4081.606	-31.08
4084.052	-28.75
4086.497	-29.42
4088.939	-27.42
4091.38	-29.42
4093.819	-28.42
4096.257	-34.42
4098.693	-34.42
4101.127	-33.08
4103.559	-34.42
4105.989	-18.08
4108.418	-12.08
4110.845	-17.08
4113.27	-13.08
4115.694	-9.42
4118.115	-8.75
4120.535	-29.08
4122.954	-28.75
4125.37	-28.75
4127.785	-31.08
4130.198	-30.08
4132.609	-29.75
4135.019	-32.08
4137.427	-34.42
4139.833	-32.75
4142.237	-34.08
