Data from DW_log5 (I=1 T=5x3 V=3ml)_RamanShift_7.txt Node
Date: Mon Jun 05 13:50:07 IDT 2017
User: aro
Spectrometer: QEPB0276
Trigger mode: 0
Integration Time (sec): 5.000000E0
Scans to average: 1
Electric dark correction enabled: true
Nonlinearity correction enabled: false
Boxcar width: 0
XAxis mode: Raman Shifts
Number of Pixels in Spectrum: 1044
>>>>>Begin Spectral Data<<<<<
160.701	-27.75
166.742	3.92
172.777	98.92
178.805	379.25
184.826	1057.58
190.841	2221.58
196.849	3556.92
202.85	4439.92
208.845	4647.25
214.833	4472.25
220.815	4279.92
226.789	4142.92
232.758	4024.25
238.719	3853.58
244.674	3697.58
250.623	3530.25
256.565	3320.58
262.5	3155.25
268.429	2991.92
274.351	2838.92
280.267	2728.92
286.176	2613.58
292.079	2508.58
297.975	2425.92
303.865	2341.58
309.748	2292.25
315.625	2226.92
321.495	2197.92
327.359	2156.25
333.217	2116.92
339.068	2112.25
344.912	2083.58
350.751	2075.92
356.583	2083.92
362.408	2087.92
368.227	2073.25
374.04	2085.92
379.847	2120.58
385.647	2135.58
391.44	2130.92
397.228	2127.25
403.009	2112.92
408.784	2145.92
414.553	2207.92
420.315	2305.58
426.071	2283.92
431.821	2209.58
437.565	2131.92
443.302	2108.92
449.033	2102.25
454.758	2076.58
460.477	2066.92
466.189	2028.25
471.896	2034.25
477.596	2005.92
483.29	1990.58
488.978	1983.92
494.66	1969.92
500.335	1939.92
506.005	1905.58
511.668	1849.58
517.325	1797.25
522.977	1776.92
528.622	1734.58
534.261	1707.92
539.894	1694.25
545.521	1690.25
551.141	1652.25
556.756	1631.25
562.365	1624.92
567.968	1614.92
573.565	1594.25
579.155	1577.58
584.74	1559.92
590.319	1537.92
595.892	1506.58
601.459	1496.58
607.02	1501.92
612.575	1476.92
618.124	1449.92
623.667	1436.25
629.204	1415.25
634.735	1410.92
640.261	1431.58
645.781	1427.92
651.294	1418.25
656.802	1411.25
662.304	1350.25
667.8	1322.25
673.29	1323.58
678.775	1306.25
684.254	1300.25
689.726	1268.25
695.193	1281.58
700.655	1256.58
706.11	1244.92
711.56	1221.58
717.004	1219.92
722.442	1200.92
727.874	1169.58
733.301	1174.25
738.722	1170.92
744.137	1162.25
749.547	1170.58
754.951	1162.58
760.349	1144.92
765.741	1132.92
771.128	1109.92
776.509	1116.58
781.885	1113.58
787.254	1088.92
792.618	1085.25
797.977	1082.92
803.33	1058.58
808.677	1038.58
814.019	1030.92
819.355	1012.58
824.686	995.25
830.011	979.25
835.33	966.92
840.644	954.92
845.952	947.92
851.255	939.92
856.552	922.92
861.844	918.92
867.13	899.25
872.41	897.25
877.686	907.92
882.955	892.25
888.219	858.92
893.478	838.25
898.731	802.92
903.979	767.25
909.221	752.58
914.458	749.92
919.69	733.58
924.916	731.92
930.136	724.25
935.351	711.25
940.561	700.58
945.766	708.58
950.965	699.92
956.158	680.58
961.347	670.25
966.529	653.58
971.707	641.92
976.879	634.58
982.046	621.92
987.208	615.58
992.364	608.25
997.515	620.58
1002.66	595.92
1007.801	607.25
1012.936	618.92
1018.066	609.58
1023.19	614.92
1028.309	611.92
1033.423	618.92
1038.532	616.92
1043.636	593.25
1048.734	595.25
1053.827	604.25
1058.915	585.25
1063.998	575.92
1069.075	568.58
1074.147	576.92
1079.214	562.92
1084.276	571.25
1089.333	584.58
1094.385	591.25
1099.431	581.25
1104.472	567.25
1109.509	562.92
1114.54	551.25
1119.565	544.92
1124.586	545.58
1129.602	533.25
1134.613	522.58
1139.618	515.25
1144.619	514.25
1149.614	524.58
1154.604	518.25
1159.589	518.92
1164.57	518.92
1169.545	533.92
1174.515	526.58
1179.48	525.58
1184.44	511.58
1189.395	514.25
1194.345	498.92
1199.29	510.92
1204.23	510.58
1209.165	504.92
1214.095	502.58
1219.021	520.92
1223.941	501.58
1228.856	516.92
1233.766	512.25
1238.672	507.92
1243.572	506.92
1248.467	503.92
1253.358	504.58
1258.244	490.58
1263.124	477.58
1268	481.25
1272.871	460.25
1277.737	461.92
1282.599	461.58
1287.455	458.58
1292.306	459.58
1297.153	457.58
1301.995	455.58
1306.832	458.25
1311.664	457.58
1316.491	454.58
1321.314	451.58
1326.132	453.25
1330.945	437.58
1335.753	436.25
1340.556	420.58
1345.354	410.58
1350.148	405.92
1354.937	401.25
1359.722	396.58
1364.501	389.58
1369.276	393.58
1374.046	387.58
1378.811	393.58
1383.572	388.92
1388.327	389.58
1393.079	388.25
1397.825	383.58
1402.567	373.25
1407.304	373.92
1412.036	369.92
1416.764	359.92
1421.487	358.92
1426.205	367.25
1430.919	371.92
1435.628	366.58
1440.333	384.92
1445.032	382.25
1449.727	383.58
1454.418	385.58
1459.104	389.92
1463.785	389.25
1468.462	373.58
1473.134	370.92
1477.802	362.58
1482.465	363.25
1487.123	365.92
1491.777	364.92
1496.426	365.58
1501.071	376.25
1505.711	381.25
1510.347	384.58
1514.978	405.25
1519.604	415.92
1524.226	413.25
1528.844	405.58
1533.457	405.92
1538.065	416.58
1542.669	414.58
1547.269	420.92
1551.864	429.92
1556.454	443.25
1561.041	442.25
1565.622	445.92
1570.199	462.92
1574.772	481.58
1579.34	498.92
1583.904	526.25
1588.464	535.25
1593.019	550.92
1597.569	584.92
1602.115	586.25
1606.657	612.58
1611.195	621.25
1615.728	656.25
1620.256	675.58
1624.78	699.58
1629.3	714.92
1633.816	732.25
1638.327	750.92
1642.834	750.58
1647.336	770.92
1651.834	763.58
1656.328	757.92
1660.817	736.25
1665.302	725.92
1669.783	687.58
1674.259	658.92
1678.732	618.25
1683.199	585.25
1687.663	546.58
1692.122	511.25
1696.577	477.58
1701.028	443.25
1705.474	414.25
1709.917	381.92
1714.355	369.25
1718.788	342.58
1723.218	328.92
1727.643	288.92
1732.064	275.92
1736.481	250.58
1740.893	237.25
1745.301	219.58
1749.705	201.58
1754.105	191.58
1758.501	173.25
1762.893	171.58
1767.28	153.25
1771.663	145.25
1776.042	142.58
1780.417	136.92
1784.787	133.25
1789.154	134.25
1793.516	126.92
1797.874	127.58
1802.228	121.58
1806.578	116.92
1810.924	111.25
1815.266	103.58
1819.603	102.58
1823.937	99.92
1828.266	92.25
1832.591	87.92
1836.913	86.92
1841.23	84.58
1845.543	86.25
1849.852	83.92
1854.156	78.92
1858.457	80.92
1862.754	80.92
1867.047	85.25
1871.335	91.58
1875.62	87.58
1879.9	89.92
1884.177	88.25
1888.449	87.92
1892.718	85.58
1896.982	83.25
1901.243	85.58
1905.499	78.92
1909.752	80.25
1914	77.25
1918.245	79.92
1922.485	85.92
1926.722	81.58
1930.954	89.25
1935.183	92.58
1939.408	89.58
1943.628	89.58
1947.845	101.25
1952.058	97.25
1956.267	88.92
1960.472	94.92
1964.673	93.25
1968.87	96.25
1973.063	93.58
1977.252	83.92
1981.438	86.92
1985.619	86.25
1989.797	88.25
1993.971	91.92
1998.14	96.92
2002.306	87.92
2006.469	89.58
2010.627	93.58
2014.781	96.92
2018.932	97.58
2023.078	101.25
2027.221	100.58
2031.36	96.58
2035.495	101.58
2039.627	101.25
2043.754	94.25
2047.878	94.25
2051.998	99.58
2056.114	97.92
2060.226	102.25
2064.334	105.25
2068.439	100.58
2072.54	112.25
2076.637	109.58
2080.73	117.92
2084.82	120.58
2088.906	119.25
2092.988	123.58
2097.066	123.58
2101.14	115.25
2105.211	111.58
2109.278	108.58
2113.342	114.25
2117.401	109.92
2121.457	108.25
2125.509	105.92
2129.558	100.58
2133.602	98.58
2137.643	95.25
2141.681	101.92
2145.714	96.25
2149.744	91.92
2153.77	89.58
2157.793	90.25
2161.812	82.58
2165.827	88.58
2169.838	79.25
2173.846	78.58
2177.851	70.58
2181.851	58.25
2185.848	70.58
2189.841	58.25
2193.831	53.58
2197.817	51.58
2201.799	53.25
2205.778	49.25
2209.753	44.25
2213.725	40.58
2217.693	45.92
2221.657	28.25
2225.618	38.25
2229.575	30.92
2233.529	34.58
2237.479	24.58
2241.425	29.58
2245.368	28.92
2249.307	20.25
2253.243	15.58
2257.175	12.92
2261.104	10.58
2265.029	11.25
2268.95	7.25
2272.868	5.58
2276.783	2.25
2280.694	-3.75
2284.601	-6.42
2288.505	-2.75
2292.405	-11.08
2296.302	-8.42
2300.195	-12.08
2304.085	-17.75
2307.971	-14.42
2311.854	-17.75
2315.734	-19.42
2319.609	-21.42
2323.482	-26.42
2327.351	-25.75
2331.216	-22.08
2335.078	-23.42
2338.937	-26.08
2342.792	-27.08
2346.643	-28.08
2350.492	-32.75
2354.336	-35.42
2358.178	-31.75
2362.015	-37.42
2365.85	-33.08
2369.681	-33.75
2373.508	-34.75
2377.333	-35.08
2381.153	-37.42
2384.971	-39.42
2388.785	-34.42
2392.595	-35.08
2396.402	-43.08
2400.206	-40.42
2404.007	-38.75
2407.804	-40.08
2411.597	-45.42
2415.388	-42.75
2419.174	-42.08
2422.958	-46.08
2426.738	-44.08
2430.515	-42.42
2434.289	-46.75
2438.059	-49.08
2441.825	-47.42
2445.589	-43.08
2449.349	-53.75
2453.106	-49.42
2456.859	-54.08
2460.61	-52.08
2464.356	-53.08
2468.1	-51.75
2471.84	-52.42
2475.577	-57.42
2479.311	-53.42
2483.041	-54.75
2486.768	-50.75
2490.492	-51.08
2494.213	-56.42
2497.93	-53.42
2501.644	-52.42
2505.355	-52.08
2509.062	-54.42
2512.766	-57.42
2516.467	-57.08
2520.165	-58.75
2523.859	-53.08
2527.551	-53.42
2531.239	-57.75
2534.923	-55.75
2538.605	-61.08
2542.283	-60.75
2545.958	-57.75
2549.63	-60.42
2553.299	-59.75
2556.964	-56.08
2560.626	-61.42
2564.285	-61.08
2567.941	-60.42
2571.594	-60.42
2575.243	-62.42
2578.89	-62.42
2582.533	-60.42
2586.173	-62.75
2589.809	-64.75
2593.443	-65.75
2597.073	-60.08
2600.701	-64.42
2604.325	-64.08
2607.946	-60.75
2611.564	-64.08
2615.178	-62.42
2618.79	-62.42
2622.398	-63.08
2626.004	-62.08
2629.606	-64.75
2633.205	-60.08
2636.801	-63.08
2640.394	-64.42
2643.983	-66.42
2647.57	-65.08
2651.153	-63.42
2654.734	-66.42
2658.311	-65.75
2661.885	-68.08
2665.456	-65.08
2669.025	-64.75
2672.589	-67.42
2676.151	-67.42
2679.71	-61.75
2683.266	-62.08
2686.819	-64.42
2690.368	-60.08
2693.915	-62.75
2697.458	-57.75
2700.999	-62.42
2704.536	-60.08
2708.071	-60.08
2711.602	-62.08
2715.13	-61.75
2718.656	-64.08
2722.178	-62.08
2725.697	-60.75
2729.214	-59.75
2732.727	-58.08
2736.237	-57.75
2739.744	-63.42
2743.249	-57.42
2746.75	-54.75
2750.248	-56.42
2753.743	-54.08
2757.236	-51.42
2760.725	-45.42
2764.211	-47.08
2767.695	-48.08
2771.175	-46.08
2774.652	-48.75
2778.127	-46.75
2781.598	-43.42
2785.067	-43.42
2788.532	-42.08
2791.995	-46.42
2795.455	-43.08
2798.911	-40.08
2802.365	-42.08
2805.816	-41.42
2809.264	-35.75
2812.709	-36.42
2816.151	-31.08
2819.59	-26.08
2823.026	-26.75
2826.46	-24.75
2829.89	-24.08
2833.318	-17.42
2836.742	-14.75
2840.164	-17.42
2843.583	-11.42
2846.999	-4.42
2850.412	-8.42
2853.822	-7.75
2857.229	-0.42
2860.634	1.58
2864.035	-1.08
2867.434	8.25
2870.83	8.58
2874.223	7.25
2877.613	17.58
2881	18.92
2884.385	25.92
2887.766	19.25
2891.145	27.58
2894.521	33.25
2897.894	39.58
2901.264	36.58
2904.631	41.25
2907.996	43.58
2911.358	51.58
2914.717	54.92
2918.073	61.58
2921.426	63.25
2924.777	70.58
2928.124	74.25
2931.469	76.58
2934.811	87.92
2938.15	98.58
2941.487	96.92
2944.821	99.58
2948.152	106.92
2951.48	110.25
2954.805	115.58
2958.128	111.92
2961.447	114.25
2964.765	118.58
2968.079	138.58
2971.39	139.92
2974.699	154.25
2978.005	156.25
2981.308	164.92
2984.609	175.58
2987.907	187.25
2991.202	195.92
2994.494	205.58
2997.784	209.58
3001.07	224.25
3004.355	237.25
3007.636	243.58
3010.915	254.58
3014.191	264.25
3017.464	268.58
3020.734	274.25
3024.002	285.25
3027.267	288.58
3030.53	292.92
3033.789	302.92
3037.046	318.25
3040.301	330.25
3043.552	339.92
3046.801	356.58
3050.048	365.92
3053.291	383.25
3056.532	398.58
3059.771	421.92
3063.006	432.58
3066.239	451.92
3069.469	472.25
3072.697	496.58
3075.922	510.25
3079.144	526.58
3082.364	544.25
3085.581	554.92
3088.795	567.58
3092.007	600.25
3095.216	610.25
3098.423	632.58
3101.627	654.92
3104.828	665.25
3108.026	693.58
3111.222	705.25
3114.416	724.58
3117.607	756.25
3120.795	779.58
3123.98	799.25
3127.163	815.92
3130.344	833.92
3133.521	866.25
3136.696	890.92
3139.869	894.25
3143.039	920.58
3146.206	928.92
3149.371	950.92
3152.533	969.25
3155.693	966.25
3158.85	978.92
3162.005	999.25
3165.157	998.25
3168.306	984.58
3171.453	1020.25
3174.597	1017.92
3177.739	1032.92
3180.878	1041.58
3184.014	1026.92
3187.149	1044.58
3190.28	1036.58
3193.409	1020.58
3196.536	1053.25
3199.659	1057.92
3202.781	1062.58
3205.9	1064.92
3209.016	1051.25
3212.13	1061.92
3215.241	1042.58
3218.35	1045.25
3221.456	1051.25
3224.56	1037.92
3227.661	1044.92
3230.76	1027.58
3233.856	1017.92
3236.95	1003.25
3240.041	1011.92
3243.13	987.92
3246.216	1010.92
3249.3	978.25
3252.382	999.25
3255.46	974.58
3258.537	997.92
3261.611	979.25
3264.682	972.58
3267.751	972.58
3270.818	975.58
3273.882	965.58
3276.943	953.58
3280.002	952.92
3283.059	939.25
3286.113	926.25
3289.165	920.25
3292.214	902.25
3295.261	885.58
3298.306	878.58
3301.348	869.25
3304.387	843.58
3307.425	842.58
3310.459	841.58
3313.492	812.58
3316.521	805.58
3319.549	808.25
3322.574	791.25
3325.597	785.25
3328.617	783.92
3331.635	784.58
3334.65	779.92
3337.663	774.25
3340.674	767.92
3343.682	769.92
3346.688	767.25
3349.691	770.92
3352.692	761.92
3355.691	755.25
3358.687	746.58
3361.681	737.92
3364.673	733.58
3367.662	725.92
3370.649	715.92
3373.633	703.25
3376.615	705.25
3379.595	688.92
3382.572	686.92
3385.547	668.58
3388.52	674.25
3391.49	660.58
3394.458	646.25
3397.424	638.25
3400.387	631.25
3403.348	629.92
3406.307	619.58
3409.263	623.58
3412.217	607.92
3415.168	600.92
3418.118	593.25
3421.065	592.92
3424.009	593.58
3426.951	575.58
3429.891	563.92
3432.829	561.92
3435.764	554.25
3438.697	536.92
3441.628	517.92
3444.557	520.92
3447.483	498.58
3450.407	487.58
3453.328	460.58
3456.247	456.92
3459.164	443.92
3462.079	423.58
3464.991	415.58
3467.902	406.92
3470.809	395.58
3473.715	385.58
3476.618	368.58
3479.519	354.92
3482.418	344.92
3485.315	329.58
3488.209	341.92
3491.101	318.25
3493.99	304.25
3496.878	311.25
3499.763	290.92
3502.646	287.58
3505.527	271.25
3508.405	267.25
3511.281	248.25
3514.155	241.25
3517.027	219.92
3519.897	220.58
3522.764	204.92
3525.629	194.25
3528.492	186.58
3531.352	174.92
3534.211	163.92
3537.067	148.25
3539.921	146.92
3542.773	132.92
3545.622	127.92
3548.469	118.25
3551.315	112.92
3554.157	113.92
3556.998	98.92
3559.837	91.92
3562.673	86.58
3565.507	80.25
3568.339	70.25
3571.169	68.58
3573.996	58.58
3576.822	60.25
3579.645	49.58
3582.466	45.25
3585.285	36.25
3588.101	32.92
3590.916	33.25
3593.728	24.92
3596.538	22.58
3599.346	16.92
3602.152	11.58
3604.956	3.25
3607.757	3.58
3610.556	-3.75
3613.354	-3.75
3616.149	-11.08
3618.942	-11.42
3621.732	-14.42
3624.521	-18.42
3627.307	-22.75
3630.092	-30.08
3632.874	-33.42
3635.654	-39.08
3638.432	-37.08
3641.208	-39.75
3643.982	-36.08
3646.753	-45.08
3649.523	-46.42
3652.29	-49.42
3655.055	-50.75
3657.818	-51.42
3660.579	-55.08
3663.338	-58.42
3666.095	-56.08
3668.849	-65.42
3671.602	-60.08
3674.352	-61.08
3677.101	-64.42
3679.847	-67.42
3682.591	-68.42
3685.333	-70.75
3688.073	-71.08
3690.811	-79.42
3693.547	-79.42
3696.281	-80.75
3699.013	-83.75
3701.742	-82.08
3704.47	-84.08
3707.195	-82.42
3709.919	-87.42
3712.64	-82.42
3715.359	-86.75
3718.076	-88.75
3720.792	-93.08
3723.505	-88.75
3726.216	-91.75
3728.925	-90.42
3731.632	-91.42
3734.336	-90.75
3737.039	-93.75
3739.74	-93.42
3742.439	-96.08
3745.136	-95.42
3747.83	-94.42
3750.523	-94.75
3753.213	-100.42
3755.902	-102.08
3758.589	-96.42
3761.273	-102.75
3763.956	-98.42
3766.636	-99.42
3769.315	-100.42
3771.991	-102.08
3774.665	-102.08
3777.338	-100.75
3780.008	-100.08
3782.677	-98.08
3785.343	-101.08
3788.007	-101.42
3790.67	-101.42
3793.33	-99.75
3795.989	-101.75
3798.645	-101.75
3801.299	-101.75
3803.952	-102.42
3806.602	-103.08
3809.251	-105.08
3811.897	-105.75
3814.542	-107.75
3817.184	-110.08
3819.825	-102.75
3822.463	-106.08
3825.1	-106.75
3827.735	-107.08
3830.367	-106.42
3832.998	-104.08
3835.627	-106.42
3838.253	-105.08
3840.878	-106.08
3843.501	-107.42
3846.122	-105.08
3848.741	-102.75
3851.358	-105.42
3853.973	-107.75
3856.586	-107.08
3859.197	-103.75
3861.806	-101.75
3864.414	-109.08
3867.019	-105.75
3869.622	-109.75
3872.224	-106.75
3874.823	-103.75
3877.421	-98.08
3880.016	-95.08
3882.61	-86.75
3885.202	-83.08
3887.792	-89.75
3890.38	-97.42
3892.966	-101.42
3895.55	-102.75
3898.132	-107.42
3900.713	-109.75
3903.291	-107.08
3905.868	-107.75
3908.442	-105.42
3911.015	-109.75
3913.586	-105.75
3916.155	-110.08
3918.722	-111.75
3921.287	-109.08
3923.85	-110.08
3926.411	-108.08
3928.971	-111.42
3931.528	-109.42
3934.084	-109.75
3936.638	-110.08
3939.19	-112.75
3941.74	-112.75
3944.288	-111.42
3946.834	-109.75
3949.378	-108.75
3951.921	-109.08
3954.462	-105.75
3957	-108.75
3959.537	-103.75
3962.072	-108.75
3964.606	-109.75
3967.137	-105.75
3969.667	-107.42
3972.194	-107.75
3974.72	-107.75
3977.244	-109.08
3979.766	-108.08
3982.286	-104.42
3984.805	-109.75
3987.321	-108.42
3989.836	-106.75
3992.349	-106.75
3994.86	-106.75
3997.369	-109.42
3999.877	-107.42
4002.382	-106.42
4004.886	-106.42
4007.388	-107.08
4009.888	-107.75
4012.386	-106.08
4014.883	-108.08
4017.377	-107.42
4019.87	-104.75
4022.361	-106.75
4024.85	-107.42
4027.338	-107.75
4029.823	-106.08
4032.307	-106.75
4034.789	-106.75
4037.269	-106.75
4039.747	-106.75
4042.224	-109.08
4044.699	-108.08
4047.172	-109.08
4049.643	-110.42
4052.112	-108.75
4054.58	-109.75
4057.046	-108.75
4059.51	-111.42
4061.972	-106.75
4064.432	-110.08
4066.891	-110.42
4069.348	-105.75
4071.803	-105.75
4074.256	-108.08
4076.708	-108.42
4079.158	-108.75
4081.606	-108.08
4084.052	-105.75
4086.497	-106.42
4088.939	-106.42
4091.38	-111.42
4093.819	-107.42
4096.257	-113.42
4098.693	-115.42
4101.127	-111.08
4103.559	-114.42
4105.989	-73.08
4108.418	-66.08
4110.845	-62.08
4113.27	-54.08
4115.694	-50.42
4118.115	-44.75
4120.535	-111.08
4122.954	-109.75
4125.37	-108.75
4127.785	-109.08
4130.198	-109.08
4132.609	-108.75
4135.019	-113.08
4137.427	-115.42
4139.833	-111.75
4142.237	-114.08
