Data from DW_log8 (I=1 T=5x3 V=3ml)_RamanShift_11.txt Node
Date: Mon Jun 05 13:39:56 IDT 2017
User: aro
Spectrometer: QEPB0276
Trigger mode: 0
Integration Time (sec): 5.000000E0
Scans to average: 1
Electric dark correction enabled: true
Nonlinearity correction enabled: false
Boxcar width: 0
XAxis mode: Raman Shifts
Number of Pixels in Spectrum: 1044
>>>>>Begin Spectral Data<<<<<
160.701	-3.5
166.742	4.17
172.777	27.17
178.805	115.5
184.826	316.83
190.841	657.83
196.849	1030.17
202.85	1297.17
208.845	1354.5
214.833	1314.5
220.815	1249.17
226.789	1216.17
232.758	1192.5
238.719	1160.83
244.674	1123.83
250.623	1089.5
256.565	1021.83
262.5	981.5
268.429	953.17
274.351	903.17
280.267	880.17
286.176	857.83
292.079	835.83
297.975	820.17
303.865	805.83
309.748	786.5
315.625	779.17
321.495	771.17
327.359	761.5
333.217	756.17
339.068	753.5
344.912	756.83
350.751	752.17
356.583	749.17
362.408	753.17
368.227	748.5
374.04	776.17
379.847	778.83
385.647	805.83
391.44	790.17
397.228	779.5
403.009	794.17
408.784	807.17
414.553	852.17
420.315	925.83
426.071	924.17
431.821	868.83
437.565	806.17
443.302	791.17
449.033	778.5
454.758	779.83
460.477	767.17
466.189	752.5
471.896	751.5
477.596	741.17
483.29	735.83
488.978	729.17
494.66	725.17
500.335	709.17
506.005	691.83
511.668	660.83
517.325	647.5
522.977	615.17
528.622	601.83
534.261	584.17
539.894	585.5
545.521	569.5
551.141	570.5
556.756	556.5
562.365	548.17
567.968	552.17
573.565	552.5
579.155	540.83
584.74	525.17
590.319	529.17
595.892	526.83
601.459	522.83
607.02	521.17
612.575	511.17
618.124	506.17
623.667	502.5
629.204	483.5
634.735	504.17
640.261	505.83
645.781	519.17
651.294	515.5
656.802	506.5
662.304	480.5
667.8	478.5
673.29	460.83
678.775	449.5
684.254	445.5
689.726	453.5
695.193	449.83
700.655	437.83
706.11	430.17
711.56	441.83
717.004	425.17
722.442	421.17
727.874	424.83
733.301	427.5
738.722	431.17
744.137	426.5
749.547	412.83
754.951	433.83
760.349	424.17
765.741	412.17
771.128	405.17
776.509	402.83
781.885	403.83
787.254	405.17
792.618	408.5
797.977	408.17
803.33	391.83
808.677	392.83
814.019	395.17
819.355	387.83
824.686	377.5
830.011	369.5
835.33	366.17
840.644	362.17
845.952	362.17
851.255	362.17
856.552	345.17
861.844	345.17
867.13	343.5
872.41	344.5
877.686	328.17
882.955	320.5
888.219	312.17
893.478	309.5
898.731	308.17
903.979	299.5
909.221	289.83
914.458	287.17
919.69	285.83
924.916	296.17
930.136	282.5
935.351	285.5
940.561	285.83
945.766	273.83
950.965	275.17
956.158	264.83
961.347	271.5
966.529	265.83
971.707	255.17
976.879	257.83
982.046	244.17
987.208	245.83
992.364	244.5
997.515	249.83
1002.66	250.17
1007.801	244.5
1012.936	242.17
1018.066	247.83
1023.19	249.17
1028.309	247.17
1033.423	252.17
1038.532	257.17
1043.636	250.5
1048.734	246.5
1053.827	244.5
1058.915	236.5
1063.998	238.17
1069.075	240.83
1074.147	236.17
1079.214	236.17
1084.276	240.5
1089.333	242.83
1094.385	236.5
1099.431	235.5
1104.472	239.5
1109.509	240.17
1114.54	233.5
1119.565	219.17
1124.586	223.83
1129.602	222.5
1134.613	213.83
1139.618	207.5
1144.619	215.5
1149.614	218.83
1154.604	214.5
1159.589	216.17
1164.57	222.17
1169.545	222.17
1174.515	220.83
1179.48	218.83
1184.44	212.83
1189.395	217.5
1194.345	214.17
1199.29	213.17
1204.23	210.83
1209.165	214.17
1214.095	210.83
1219.021	215.17
1223.941	216.83
1228.856	213.17
1233.766	220.5
1238.672	212.17
1243.572	207.17
1248.467	209.17
1253.358	201.83
1258.244	199.83
1263.124	198.83
1268	191.5
1272.871	194.5
1277.737	187.17
1282.599	194.83
1287.455	182.83
1292.306	194.83
1297.153	193.83
1301.995	195.83
1306.832	196.5
1311.664	180.83
1316.491	184.83
1321.314	189.83
1326.132	187.5
1330.945	176.83
1335.753	176.5
1340.556	169.83
1345.354	172.83
1350.148	171.17
1354.937	167.5
1359.722	164.83
1364.501	167.83
1369.276	166.83
1374.046	171.83
1378.811	164.83
1383.572	165.17
1388.327	163.83
1393.079	169.5
1397.825	160.83
1402.567	161.5
1407.304	160.17
1412.036	155.17
1416.764	154.17
1421.487	156.17
1426.205	154.5
1430.919	159.17
1435.628	148.83
1440.333	154.17
1445.032	159.5
1449.727	158.83
1454.418	154.83
1459.104	160.17
1463.785	155.5
1468.462	148.83
1473.134	147.17
1477.802	146.83
1482.465	151.5
1487.123	150.17
1491.777	152.17
1496.426	153.83
1501.071	156.5
1505.711	155.5
1510.347	160.83
1514.978	161.5
1519.604	173.17
1524.226	167.5
1528.844	169.83
1533.457	170.17
1538.065	174.83
1542.669	169.83
1547.269	170.17
1551.864	171.17
1556.454	168.5
1561.041	171.5
1565.622	170.17
1570.199	174.17
1574.772	179.83
1579.34	186.17
1583.904	195.5
1588.464	195.5
1593.019	202.17
1597.569	215.17
1602.115	210.5
1606.657	216.83
1611.195	224.5
1615.728	226.5
1620.256	229.83
1624.78	237.83
1629.3	246.17
1633.816	252.5
1638.327	256.17
1642.834	263.83
1647.336	263.17
1651.834	263.83
1656.328	262.17
1660.817	255.5
1665.302	247.17
1669.783	232.83
1674.259	233.17
1678.732	222.5
1683.199	209.5
1687.663	191.83
1692.122	180.5
1696.577	177.83
1701.028	170.5
1705.474	157.5
1709.917	152.17
1714.355	148.5
1718.788	137.83
1723.218	135.17
1727.643	124.17
1732.064	122.17
1736.481	109.83
1740.893	105.5
1745.301	98.83
1749.705	95.83
1754.105	91.83
1758.501	84.5
1762.893	76.83
1767.28	74.5
1771.663	74.5
1776.042	76.83
1780.417	70.17
1784.787	70.5
1789.154	71.5
1793.516	69.17
1797.874	73.83
1802.228	66.83
1806.578	70.17
1810.924	65.5
1815.266	69.83
1819.603	60.83
1823.937	59.17
1828.266	59.5
1832.591	62.17
1836.913	54.17
1841.23	57.83
1845.543	55.5
1849.852	52.17
1854.156	53.17
1858.457	56.17
1862.754	50.17
1867.047	48.5
1871.335	51.83
1875.62	52.83
1879.9	53.17
1884.177	52.5
1888.449	52.17
1892.718	54.83
1896.982	53.5
1901.243	53.83
1905.499	52.17
1909.752	52.5
1914	55.5
1918.245	50.17
1922.485	56.17
1926.722	56.83
1930.954	52.5
1935.183	56.83
1939.408	58.83
1943.628	55.83
1947.845	60.5
1952.058	58.5
1956.267	53.17
1960.472	52.17
1964.673	58.5
1968.87	59.5
1973.063	48.83
1977.252	49.17
1981.438	52.17
1985.619	50.5
1989.797	54.5
1993.971	51.17
1998.14	51.17
2002.306	49.17
2006.469	51.83
2010.627	52.83
2014.781	52.17
2018.932	52.83
2023.078	53.5
2027.221	47.83
2031.36	47.83
2035.495	44.83
2039.627	49.5
2043.754	52.5
2047.878	49.5
2051.998	52.83
2056.114	54.17
2060.226	52.5
2064.334	55.5
2068.439	56.83
2072.54	54.5
2076.637	56.83
2080.73	58.17
2084.82	57.83
2088.906	55.5
2092.988	58.83
2097.066	61.83
2101.14	55.5
2105.211	56.83
2109.278	52.83
2113.342	49.5
2117.401	49.17
2121.457	51.5
2125.509	54.17
2129.558	52.83
2133.602	49.83
2137.643	52.5
2141.681	51.17
2145.714	48.5
2149.744	49.17
2153.77	42.83
2157.793	46.5
2161.812	44.83
2165.827	42.83
2169.838	43.5
2173.846	37.83
2177.851	34.83
2181.851	34.5
2185.848	35.83
2189.841	33.5
2193.831	26.83
2197.817	32.83
2201.799	27.5
2205.778	27.5
2209.753	29.5
2213.725	26.83
2217.693	28.17
2221.657	30.5
2225.618	27.5
2229.575	29.17
2233.529	27.83
2237.479	27.83
2241.425	23.83
2245.368	25.17
2249.307	20.5
2253.243	21.83
2257.175	19.17
2261.104	20.83
2265.029	15.5
2268.95	13.5
2272.868	16.83
2276.783	10.5
2280.694	11.5
2284.601	11.83
2288.505	8.5
2292.405	11.17
2296.302	7.83
2300.195	9.17
2304.085	10.5
2307.971	12.83
2311.854	10.5
2315.734	8.83
2319.609	4.83
2323.482	2.83
2327.351	3.5
2331.216	8.17
2335.078	4.83
2338.937	4.17
2342.792	4.17
2346.643	3.17
2350.492	0.5
2354.336	1.83
2358.178	3.5
2362.015	-0.17
2365.85	0.17
2369.681	-3.5
2373.508	0.5
2377.333	-1.83
2381.153	0.83
2384.971	-1.17
2388.785	4.83
2392.595	-2.83
2396.402	-0.83
2400.206	1.83
2404.007	-1.5
2407.804	2.17
2411.597	0.83
2415.388	-2.5
2419.174	-1.83
2422.958	-2.83
2426.738	-1.83
2430.515	-4.17
2434.289	-4.5
2438.059	-4.83
2441.825	-9.17
2445.589	-5.83
2449.349	-10.5
2453.106	-5.17
2456.859	-8.83
2460.61	-9.83
2464.356	-4.83
2468.1	-9.5
2471.84	-4.17
2475.577	-5.17
2479.311	-5.17
2483.041	-4.5
2486.768	-5.5
2490.492	-3.83
2494.213	-6.17
2497.93	-11.17
2501.644	-7.17
2505.355	-4.83
2509.062	-9.17
2512.766	-9.17
2516.467	-11.83
2520.165	-10.5
2523.859	-7.83
2527.551	-11.17
2531.239	-10.5
2534.923	-13.5
2538.605	-9.83
2542.283	-7.5
2545.958	-7.5
2549.63	-8.17
2553.299	-10.5
2556.964	-7.83
2560.626	-7.17
2564.285	-7.83
2567.941	-7.17
2571.594	-7.17
2575.243	-7.17
2578.89	-10.17
2582.533	-9.17
2586.173	-14.5
2589.809	-12.5
2593.443	-13.5
2597.073	-8.83
2600.701	-9.17
2604.325	-13.83
2607.946	-14.5
2611.564	-14.83
2615.178	-15.17
2618.79	-12.17
2622.398	-12.83
2626.004	-10.83
2629.606	-14.5
2633.205	-11.83
2636.801	-13.83
2640.394	-11.17
2643.983	-11.17
2647.57	-8.83
2651.153	-10.17
2654.734	-10.17
2658.311	-10.5
2661.885	-13.83
2665.456	-13.83
2669.025	-14.5
2672.589	-14.17
2676.151	-15.17
2679.71	-13.5
2683.266	-15.83
2686.819	-14.17
2690.368	-15.83
2693.915	-16.5
2697.458	-15.5
2700.999	-16.17
2704.536	-12.83
2708.071	-14.83
2711.602	-12.83
2715.13	-12.5
2718.656	-9.83
2722.178	-9.83
2725.697	-12.5
2729.214	-6.5
2732.727	-5.83
2736.237	-12.5
2739.744	-11.17
2743.249	-10.17
2746.75	-12.5
2750.248	-13.17
2753.743	-11.83
2757.236	-12.17
2760.725	-11.17
2764.211	-13.83
2767.695	-9.83
2771.175	-11.83
2774.652	-10.5
2778.127	-13.5
2781.598	-7.17
2785.067	-8.17
2788.532	-9.83
2791.995	-9.17
2795.455	-8.83
2798.911	-5.83
2802.365	-5.83
2805.816	-3.17
2809.264	-4.5
2812.709	-2.17
2816.151	-0.83
2819.59	-0.83
2823.026	-3.5
2826.46	-2.5
2829.89	1.17
2833.318	-0.17
2836.742	0.5
2840.164	2.83
2843.583	-0.17
2846.999	1.83
2850.412	-0.17
2853.822	-2.5
2857.229	6.83
2860.634	3.83
2864.035	6.17
2867.434	10.5
2870.83	9.83
2874.223	7.5
2877.613	9.83
2881	13.17
2884.385	10.17
2887.766	15.5
2891.145	15.83
2894.521	16.5
2897.894	15.83
2901.264	15.83
2904.631	17.5
2907.996	19.83
2911.358	19.83
2914.717	20.17
2918.073	19.83
2921.426	22.5
2924.777	21.83
2928.124	24.5
2931.469	29.83
2934.811	33.17
2938.15	33.83
2941.487	34.17
2944.821	34.83
2948.152	39.17
2951.48	37.5
2954.805	37.83
2958.128	43.17
2961.447	41.5
2964.765	46.83
2968.079	47.83
2971.39	48.17
2974.699	51.5
2978.005	60.5
2981.308	61.17
2984.609	56.83
2987.907	63.5
2991.202	67.17
2994.494	67.83
2997.784	74.83
3001.07	70.5
3004.355	79.5
3007.636	79.83
3010.915	81.83
3014.191	86.5
3017.464	90.83
3020.734	94.5
3024.002	98.5
3027.267	97.83
3030.53	101.17
3033.789	104.17
3037.046	109.5
3040.301	113.5
3043.552	119.17
3046.801	123.83
3050.048	126.17
3053.291	131.5
3056.532	136.83
3059.771	147.17
3063.006	142.83
3066.239	143.17
3069.469	154.5
3072.697	163.83
3075.922	168.5
3079.144	171.83
3082.364	178.5
3085.581	187.17
3088.795	183.83
3092.007	192.5
3095.216	200.5
3098.423	205.83
3101.627	216.17
3104.828	216.5
3108.026	224.83
3111.222	235.5
3114.416	244.83
3117.607	245.5
3120.795	249.83
3123.98	257.5
3127.163	264.17
3130.344	280.17
3133.521	279.5
3136.696	286.17
3139.869	296.5
3143.039	295.83
3146.206	294.17
3149.371	310.17
3152.533	303.5
3155.693	317.5
3158.85	316.17
3162.005	323.5
3165.157	318.5
3168.306	318.83
3171.453	329.5
3174.597	328.17
3177.739	335.17
3180.878	336.83
3184.014	342.17
3187.149	331.83
3190.28	345.83
3193.409	347.83
3196.536	339.5
3199.659	342.17
3202.781	345.83
3205.9	337.17
3209.016	334.5
3212.13	342.17
3215.241	342.83
3218.35	341.5
3221.456	334.5
3224.56	336.17
3227.661	332.17
3230.76	324.83
3233.856	334.17
3236.95	327.5
3240.041	319.17
3243.13	318.17
3246.216	323.17
3249.3	327.5
3252.382	325.5
3255.46	319.83
3258.537	328.17
3261.611	311.5
3264.682	320.83
3267.751	318.83
3270.818	314.83
3273.882	321.83
3276.943	311.83
3280.002	307.17
3283.059	305.5
3286.113	292.5
3289.165	296.5
3292.214	298.5
3295.261	295.83
3298.306	283.83
3301.348	279.5
3304.387	277.83
3307.425	282.83
3310.459	279.83
3313.492	267.83
3316.521	270.83
3319.549	264.5
3322.574	263.5
3325.597	257.5
3328.617	258.17
3331.635	253.83
3334.65	256.17
3337.663	255.5
3340.674	251.17
3343.682	250.17
3346.688	259.5
3349.691	248.17
3352.692	251.17
3355.691	244.5
3358.687	242.83
3361.681	243.17
3364.673	246.83
3367.662	239.17
3370.649	246.17
3373.633	236.5
3376.615	238.5
3379.595	231.17
3382.572	218.17
3385.547	222.83
3388.52	213.5
3391.49	219.83
3394.458	222.5
3397.424	216.5
3400.387	210.5
3403.348	209.17
3406.307	199.83
3409.263	203.83
3412.217	206.17
3415.168	204.17
3418.118	194.5
3421.065	192.17
3424.009	192.83
3426.951	192.83
3429.891	191.17
3432.829	184.17
3435.764	185.5
3438.697	178.17
3441.628	172.17
3444.557	172.17
3447.483	169.83
3450.407	161.83
3453.328	162.83
3456.247	151.17
3459.164	147.17
3462.079	142.83
3464.991	131.83
3467.902	134.17
3470.809	132.83
3473.715	127.83
3476.618	121.83
3479.519	127.17
3482.418	119.17
3485.315	109.83
3488.209	111.17
3491.101	110.5
3493.99	110.5
3496.878	104.5
3499.763	106.17
3502.646	100.83
3505.527	96.5
3508.405	89.5
3511.281	90.5
3514.155	84.5
3517.027	85.17
3519.897	79.83
3522.764	70.17
3525.629	71.5
3528.492	66.83
3531.352	61.17
3534.211	61.17
3537.067	48.5
3539.921	51.17
3542.773	48.17
3545.622	42.17
3548.469	42.5
3551.315	41.17
3554.157	39.17
3556.998	39.17
3559.837	37.17
3562.673	33.83
3565.507	34.5
3568.339	31.5
3571.169	28.83
3573.996	21.83
3576.822	28.5
3579.645	22.83
3582.466	18.5
3585.285	20.5
3588.101	21.17
3590.916	10.5
3593.728	10.17
3596.538	10.83
3599.346	12.17
3602.152	8.83
3604.956	5.5
3607.757	4.83
3610.556	5.5
3613.354	3.5
3616.149	-0.83
3618.942	2.83
3621.732	0.83
3624.521	-3.17
3627.307	-1.5
3630.092	-0.83
3632.874	-5.17
3635.654	-3.83
3638.432	-5.83
3641.208	-5.5
3643.982	-9.83
3646.753	-7.83
3649.523	-13.17
3652.29	-13.17
3655.055	-12.5
3657.818	-13.17
3660.579	-14.83
3663.338	-15.17
3666.095	-13.83
3668.849	-15.17
3671.602	-16.83
3674.352	-15.83
3677.101	-20.17
3679.847	-15.17
3682.591	-16.17
3685.333	-20.5
3688.073	-16.83
3690.811	-20.17
3693.547	-23.17
3696.281	-24.5
3699.013	-22.5
3701.742	-23.83
3704.47	-23.83
3707.195	-24.17
3709.919	-29.17
3712.64	-27.17
3715.359	-23.5
3718.076	-24.5
3720.792	-27.83
3723.505	-25.5
3726.216	-25.5
3728.925	-25.17
3731.632	-24.17
3734.336	-26.5
3737.039	-25.5
3739.74	-23.17
3742.439	-27.83
3745.136	-28.17
3747.83	-28.17
3750.523	-28.5
3753.213	-30.17
3755.902	-32.83
3758.589	-28.17
3761.273	-31.5
3763.956	-28.17
3766.636	-30.17
3769.315	-31.17
3771.991	-31.83
3774.665	-30.83
3777.338	-29.5
3780.008	-32.83
3782.677	-27.83
3785.343	-25.83
3788.007	-28.17
3790.67	-29.17
3793.33	-28.5
3795.989	-28.5
3798.645	-29.5
3801.299	-27.5
3803.952	-28.17
3806.602	-28.83
3809.251	-32.83
3811.897	-31.5
3814.542	-30.5
3817.184	-33.83
3819.825	-30.5
3822.463	-31.83
3825.1	-34.5
3827.735	-31.83
3830.367	-31.17
3832.998	-31.83
3835.627	-33.17
3838.253	-33.83
3840.878	-31.83
3843.501	-33.17
3846.122	-30.83
3848.741	-28.5
3851.358	-27.17
3853.973	-29.5
3856.586	-31.83
3859.197	-27.5
3861.806	-27.5
3864.414	-30.83
3867.019	-32.5
3869.622	-33.5
3872.224	-30.5
3874.823	-30.5
3877.421	-28.83
3880.016	-20.83
3882.61	-19.5
3885.202	-17.83
3887.792	-18.5
3890.38	-26.17
3892.966	-31.17
3895.55	-31.5
3898.132	-31.17
3900.713	-34.5
3903.291	-31.83
3905.868	-32.5
3908.442	-32.17
3911.015	-31.5
3913.586	-31.5
3916.155	-31.83
3918.722	-34.5
3921.287	-32.83
3923.85	-35.83
3926.411	-32.83
3928.971	-32.17
3931.528	-31.17
3934.084	-33.5
3936.638	-34.83
3939.19	-35.5
3941.74	-34.5
3944.288	-34.17
3946.834	-35.5
3949.378	-32.5
3951.921	-30.83
3954.462	-33.5
3957	-33.5
3959.537	-29.5
3962.072	-32.5
3964.606	-32.5
3967.137	-31.5
3969.667	-25.17
3972.194	-30.5
3974.72	-33.5
3977.244	-32.83
3979.766	-33.83
3982.286	-31.17
3984.805	-33.5
3987.321	-33.17
3989.836	-32.5
3992.349	-31.5
3994.86	-33.5
3997.369	-34.17
3999.877	-34.17
4002.382	-32.17
4004.886	-32.17
4007.388	-30.83
4009.888	-32.5
4012.386	-32.83
4014.883	-29.83
4017.377	-32.17
4019.87	-31.5
4022.361	-30.5
4024.85	-31.17
4027.338	-28.5
4029.823	-32.83
4032.307	-30.5
4034.789	-29.5
4037.269	-31.5
4039.747	-31.5
4042.224	-34.83
4044.699	-33.83
4047.172	-30.83
4049.643	-34.17
4052.112	-36.5
4054.58	-32.5
4057.046	-33.5
4059.51	-33.17
4061.972	-33.5
4064.432	-29.83
4066.891	-32.17
4069.348	-32.5
4071.803	-31.5
4074.256	-32.83
4076.708	-32.17
4079.158	-31.5
4081.606	-29.83
4084.052	-29.5
4086.497	-33.17
4088.939	-30.17
4091.38	-31.17
4093.819	-34.17
4096.257	-33.17
4098.693	-36.17
4101.127	-30.83
4103.559	-33.17
4105.989	-10.83
4108.418	-16.83
4110.845	-13.83
4113.27	-13.83
4115.694	-7.17
4118.115	-10.5
4120.535	-32.83
4122.954	-32.5
4125.37	-28.5
4127.785	-33.83
4130.198	-33.83
4132.609	-32.5
4135.019	-36.83
4137.427	-38.17
4139.833	-34.5
4142.237	-33.83
