Data from DW_log8 (I=1 T=5x3 V=3ml)_RamanShift_3.txt Node
Date: Mon Jun 05 13:27:51 IDT 2017
User: aro
Spectrometer: QEPB0276
Trigger mode: 0
Integration Time (sec): 5.000000E0
Scans to average: 1
Electric dark correction enabled: true
Nonlinearity correction enabled: false
Boxcar width: 0
XAxis mode: Raman Shifts
Number of Pixels in Spectrum: 1044
>>>>>Begin Spectral Data<<<<<
160.701	-5.25
166.742	3.42
172.777	28.42
178.805	106.75
184.826	297.08
190.841	631.08
196.849	995.42
202.85	1211.42
208.845	1273.75
214.833	1242.75
220.815	1201.42
226.789	1159.42
232.758	1128.75
238.719	1099.08
244.674	1064.08
250.623	1020.75
256.565	977.08
262.5	931.75
268.429	884.42
274.351	870.42
280.267	831.42
286.176	812.08
292.079	793.08
297.975	778.42
303.865	752.08
309.748	743.75
315.625	734.42
321.495	725.42
327.359	722.75
333.217	719.42
339.068	713.75
344.912	709.08
350.751	702.42
356.583	710.42
362.408	712.42
368.227	716.75
374.04	735.42
379.847	745.08
385.647	763.08
391.44	748.42
397.228	738.75
403.009	746.42
408.784	767.42
414.553	821.42
420.315	871.08
426.071	881.42
431.821	811.08
437.565	768.42
443.302	747.42
449.033	731.75
454.758	731.08
460.477	726.42
466.189	719.75
471.896	709.75
477.596	704.42
483.29	701.08
488.978	696.42
494.66	684.42
500.335	680.42
506.005	655.08
511.668	622.08
517.325	596.75
522.977	569.42
528.622	561.08
534.261	548.42
539.894	543.75
545.521	533.75
551.141	540.75
556.756	517.75
562.365	513.42
567.968	507.42
573.565	509.75
579.155	508.08
584.74	508.42
590.319	501.42
595.892	490.08
601.459	488.08
607.02	484.42
612.575	486.42
618.124	475.42
623.667	464.75
629.204	463.75
634.735	458.42
640.261	470.08
645.781	480.42
651.294	482.75
656.802	465.75
662.304	451.75
667.8	426.75
673.29	431.08
678.775	424.75
684.254	421.75
689.726	418.75
695.193	419.08
700.655	402.08
706.11	404.42
711.56	408.08
717.004	400.42
722.442	403.42
727.874	401.08
733.301	383.75
738.722	390.42
744.137	388.75
749.547	392.08
754.951	390.08
760.349	393.42
765.741	390.42
771.128	385.42
776.509	376.08
781.885	385.08
787.254	390.42
792.618	380.75
797.977	379.42
803.33	372.08
808.677	366.08
814.019	364.42
819.355	356.08
824.686	356.75
830.011	353.75
835.33	353.42
840.644	335.42
845.952	324.42
851.255	339.42
856.552	329.42
861.844	323.42
867.13	323.75
872.41	316.75
877.686	312.42
882.955	321.75
888.219	309.42
893.478	293.75
898.731	283.42
903.979	274.75
909.221	269.08
914.458	274.42
919.69	261.08
924.916	274.42
930.136	262.75
935.351	263.75
940.561	263.08
945.766	261.08
950.965	252.42
956.158	255.08
961.347	246.75
966.529	243.08
971.707	239.42
976.879	236.08
982.046	230.42
987.208	225.08
992.364	227.75
997.515	232.08
1002.66	226.42
1007.801	233.75
1012.936	233.42
1018.066	230.08
1023.19	234.42
1028.309	232.42
1033.423	236.42
1038.532	234.42
1043.636	229.75
1048.734	233.75
1053.827	228.75
1058.915	227.75
1063.998	220.42
1069.075	223.08
1074.147	229.42
1079.214	227.42
1084.276	229.75
1089.333	227.08
1094.385	215.75
1099.431	225.75
1104.472	221.75
1109.509	214.42
1114.54	206.75
1119.565	206.42
1124.586	210.08
1129.602	204.75
1134.613	205.08
1139.618	206.75
1144.619	202.75
1149.614	194.08
1154.604	208.75
1159.589	201.42
1164.57	207.42
1169.545	209.42
1174.515	204.08
1179.48	202.08
1184.44	204.08
1189.395	198.75
1194.345	195.42
1199.29	193.42
1204.23	198.08
1209.165	207.42
1214.095	192.08
1219.021	193.42
1223.941	199.08
1228.856	201.42
1233.766	200.75
1238.672	195.42
1243.572	198.42
1248.467	202.42
1253.358	194.08
1258.244	194.08
1263.124	182.08
1268	184.75
1272.871	177.75
1277.737	180.42
1282.599	175.08
1287.455	174.08
1292.306	177.08
1297.153	176.08
1301.995	180.08
1306.832	173.75
1311.664	175.08
1316.491	175.08
1321.314	180.08
1326.132	173.75
1330.945	169.08
1335.753	165.75
1340.556	170.08
1345.354	160.08
1350.148	157.42
1354.937	148.75
1359.722	155.08
1364.501	160.08
1369.276	159.08
1374.046	156.08
1378.811	159.08
1383.572	152.42
1388.327	156.08
1393.079	155.75
1397.825	148.08
1402.567	145.75
1407.304	140.42
1412.036	145.42
1416.764	134.42
1421.487	148.42
1426.205	143.75
1430.919	142.42
1435.628	140.08
1440.333	143.42
1445.032	149.75
1449.727	155.08
1454.418	152.08
1459.104	153.42
1463.785	148.75
1468.462	149.08
1473.134	145.42
1477.802	147.08
1482.465	141.75
1487.123	135.42
1491.777	135.42
1496.426	141.08
1501.071	143.75
1505.711	151.75
1510.347	152.08
1514.978	147.75
1519.604	156.42
1524.226	154.75
1528.844	153.08
1533.457	158.42
1538.065	162.08
1542.669	154.08
1547.269	147.42
1551.864	158.42
1556.454	164.75
1561.041	164.75
1565.622	165.42
1570.199	168.42
1574.772	171.08
1579.34	171.42
1583.904	181.75
1588.464	181.75
1593.019	193.42
1597.569	195.42
1602.115	198.75
1606.657	203.08
1611.195	210.75
1615.728	220.75
1620.256	219.08
1624.78	226.08
1629.3	226.42
1633.816	238.75
1638.327	241.42
1642.834	246.08
1647.336	245.42
1651.834	242.08
1656.328	241.42
1660.817	236.75
1665.302	230.42
1669.783	224.08
1674.259	217.42
1678.732	202.75
1683.199	195.75
1687.663	180.08
1692.122	175.75
1696.577	163.08
1701.028	157.75
1705.474	147.75
1709.917	142.42
1714.355	140.75
1718.788	125.08
1723.218	126.42
1727.643	112.42
1732.064	108.42
1736.481	103.08
1740.893	94.75
1745.301	90.08
1749.705	90.08
1754.105	82.08
1758.501	78.75
1762.893	72.08
1767.28	69.75
1771.663	69.75
1776.042	69.08
1780.417	65.42
1784.787	63.75
1789.154	64.75
1793.516	65.42
1797.874	64.08
1802.228	62.08
1806.578	56.42
1810.924	64.75
1815.266	71.08
1819.603	53.08
1823.937	59.42
1828.266	55.75
1832.591	55.42
1836.913	51.42
1841.23	47.08
1845.543	45.75
1849.852	46.42
1854.156	44.42
1858.457	50.42
1862.754	46.42
1867.047	48.75
1871.335	50.08
1875.62	53.08
1879.9	47.42
1884.177	47.75
1888.449	49.42
1892.718	49.08
1896.982	51.75
1901.243	50.08
1905.499	51.42
1909.752	47.75
1914	49.75
1918.245	46.42
1922.485	47.42
1926.722	50.08
1930.954	55.75
1935.183	52.08
1939.408	49.08
1943.628	50.08
1947.845	51.75
1952.058	50.75
1956.267	53.42
1960.472	53.42
1964.673	50.75
1968.87	49.75
1973.063	50.08
1977.252	52.42
1981.438	48.42
1985.619	47.75
1989.797	46.75
1993.971	48.42
1998.14	48.42
2002.306	49.42
2006.469	41.08
2010.627	45.08
2014.781	44.42
2018.932	47.08
2023.078	48.75
2027.221	45.08
2031.36	48.08
2035.495	47.08
2039.627	45.75
2043.754	47.75
2047.878	46.75
2051.998	50.08
2056.114	50.42
2060.226	49.75
2064.334	46.75
2068.439	50.08
2072.54	50.75
2076.637	45.08
2080.73	54.42
2084.82	51.08
2088.906	51.75
2092.988	48.08
2097.066	52.08
2101.14	50.75
2105.211	50.08
2109.278	48.08
2113.342	49.75
2117.401	50.42
2121.457	49.75
2125.509	49.42
2129.558	52.08
2133.602	49.08
2137.643	44.75
2141.681	47.42
2145.714	41.75
2149.744	46.42
2153.77	44.08
2157.793	45.75
2161.812	36.08
2165.827	37.08
2169.838	36.75
2173.846	35.08
2177.851	31.08
2181.851	26.75
2185.848	29.08
2189.841	28.75
2193.831	28.08
2197.817	26.08
2201.799	28.75
2205.778	24.75
2209.753	26.75
2213.725	29.08
2217.693	28.42
2221.657	27.75
2225.618	27.75
2229.575	27.42
2233.529	23.08
2237.479	19.08
2241.425	24.08
2245.368	17.42
2249.307	18.75
2253.243	15.08
2257.175	13.42
2261.104	18.08
2265.029	14.75
2268.95	9.75
2272.868	11.08
2276.783	9.75
2280.694	10.75
2284.601	11.08
2288.505	10.75
2292.405	8.42
2296.302	8.08
2300.195	6.42
2304.085	6.75
2307.971	14.08
2311.854	7.75
2315.734	5.08
2319.609	4.08
2323.482	3.08
2327.351	2.75
2331.216	4.42
2335.078	1.08
2338.937	-1.58
2342.792	0.42
2346.643	-1.58
2350.492	-2.25
2354.336	1.08
2358.178	-1.25
2362.015	-3.92
2365.85	2.42
2369.681	-1.25
2373.508	-0.25
2377.333	-1.58
2381.153	-0.92
2384.971	-0.92
2388.785	2.08
2392.595	-0.58
2396.402	-0.58
2400.206	-5.92
2404.007	-4.25
2407.804	-2.58
2411.597	-4.92
2415.388	-2.25
2419.174	-8.58
2422.958	-6.58
2426.738	-6.58
2430.515	-8.92
2434.289	-3.25
2438.059	-5.58
2441.825	-4.92
2445.589	-4.58
2449.349	-7.25
2453.106	-4.92
2456.859	-8.58
2460.61	-7.58
2464.356	-5.58
2468.1	-6.25
2471.84	-5.92
2475.577	-4.92
2479.311	-7.92
2483.041	-8.25
2486.768	-9.25
2490.492	-10.58
2494.213	-6.92
2497.93	-13.92
2501.644	-9.92
2505.355	-14.58
2509.062	-6.92
2512.766	-10.92
2516.467	-11.58
2520.165	-6.25
2523.859	-13.58
2527.551	-7.92
2531.239	-9.25
2534.923	-7.25
2538.605	-6.58
2542.283	-10.25
2545.958	-8.25
2549.63	-7.92
2553.299	-12.25
2556.964	-9.58
2560.626	-9.92
2564.285	-9.58
2567.941	-9.92
2571.594	-12.92
2575.243	-11.92
2578.89	-10.92
2582.533	-11.92
2586.173	-11.25
2589.809	-12.25
2593.443	-13.25
2597.073	-10.58
2600.701	-11.92
2604.325	-9.58
2607.946	-10.25
2611.564	-14.58
2615.178	-9.92
2618.79	-10.92
2622.398	-8.58
2626.004	-12.58
2629.606	-12.25
2633.205	-13.58
2636.801	-13.58
2640.394	-12.92
2643.983	-18.92
2647.57	-15.58
2651.153	-14.92
2654.734	-15.92
2658.311	-15.25
2661.885	-16.58
2665.456	-14.58
2669.025	-20.25
2672.589	-12.92
2676.151	-11.92
2679.71	-13.25
2683.266	-10.58
2686.819	-13.92
2690.368	-9.58
2693.915	-12.25
2697.458	-12.25
2700.999	-14.92
2704.536	-12.58
2708.071	-11.58
2711.602	-13.58
2715.13	-15.25
2718.656	-14.58
2722.178	-16.58
2725.697	-16.25
2729.214	-12.25
2732.727	-11.58
2736.237	-8.25
2739.744	-16.92
2743.249	-13.92
2746.75	-16.25
2750.248	-12.92
2753.743	-8.58
2757.236	-7.92
2760.725	-12.92
2764.211	-12.58
2767.695	-11.58
2771.175	-5.58
2774.652	-6.25
2778.127	-7.25
2781.598	-8.92
2785.067	-7.92
2788.532	-8.58
2791.995	-10.92
2795.455	-9.58
2798.911	-13.58
2802.365	-6.58
2805.816	-3.92
2809.264	-4.25
2812.709	-4.92
2816.151	-5.58
2819.59	-3.58
2823.026	-4.25
2826.46	-5.25
2829.89	-2.58
2833.318	3.08
2836.742	1.75
2840.164	1.08
2843.583	1.08
2846.999	2.08
2850.412	4.08
2853.822	2.75
2857.229	3.08
2860.634	5.08
2864.035	6.42
2867.434	3.75
2870.83	11.08
2874.223	6.75
2877.613	9.08
2881	9.42
2884.385	11.42
2887.766	15.75
2891.145	15.08
2894.521	17.75
2897.894	18.08
2901.264	13.08
2904.631	16.75
2907.996	20.08
2911.358	21.08
2914.717	23.42
2918.073	26.08
2921.426	26.75
2924.777	25.08
2928.124	24.75
2931.469	27.08
2934.811	29.42
2938.15	32.08
2941.487	32.42
2944.821	37.08
2948.152	33.42
2951.48	35.75
2954.805	39.08
2958.128	41.42
2961.447	42.75
2964.765	43.08
2968.079	47.08
2971.39	50.42
2974.699	45.75
2978.005	55.75
2981.308	57.42
2984.609	59.08
2987.907	62.75
2991.202	65.42
2994.494	63.08
2997.784	69.08
3001.07	71.75
3004.355	75.75
3007.636	76.08
3010.915	80.08
3014.191	79.75
3017.464	87.08
3020.734	86.75
3024.002	85.75
3027.267	92.08
3030.53	96.42
3033.789	99.42
3037.046	99.75
3040.301	114.75
3043.552	112.42
3046.801	120.08
3050.048	125.42
3053.291	123.75
3056.532	125.08
3059.771	128.42
3063.006	136.08
3066.239	148.42
3069.469	150.75
3072.697	156.08
3075.922	157.75
3079.144	171.08
3082.364	165.75
3085.581	171.42
3088.795	182.08
3092.007	183.75
3095.216	189.75
3098.423	206.08
3101.627	199.42
3104.828	208.75
3108.026	216.08
3111.222	223.75
3114.416	232.08
3117.607	233.75
3120.795	238.08
3123.98	239.75
3127.163	255.42
3130.344	262.42
3133.521	265.75
3136.696	270.42
3139.869	279.75
3143.039	280.08
3146.206	296.42
3149.371	297.42
3152.533	303.75
3155.693	300.75
3158.85	308.42
3162.005	307.75
3165.157	310.75
3168.306	313.08
3171.453	304.75
3174.597	317.42
3177.739	320.42
3180.878	324.08
3184.014	310.42
3187.149	316.08
3190.28	324.08
3193.409	321.08
3196.536	319.75
3199.659	326.42
3202.781	327.08
3205.9	327.42
3209.016	329.75
3212.13	325.42
3215.241	329.08
3218.35	323.75
3221.456	319.75
3224.56	317.42
3227.661	315.42
3230.76	318.08
3233.856	311.42
3236.95	318.75
3240.041	307.42
3243.13	307.42
3246.216	309.42
3249.3	300.75
3252.382	298.75
3255.46	301.08
3258.537	309.42
3261.611	298.75
3264.682	297.08
3267.751	304.08
3270.818	305.08
3273.882	299.08
3276.943	296.08
3280.002	301.42
3283.059	293.75
3286.113	285.75
3289.165	284.75
3292.214	286.75
3295.261	276.08
3298.306	266.08
3301.348	270.75
3304.387	258.08
3307.425	265.08
3310.459	253.08
3313.492	255.08
3316.521	250.08
3319.549	244.75
3322.574	244.75
3325.597	236.75
3328.617	244.42
3331.635	238.08
3334.65	239.42
3337.663	239.75
3340.674	240.42
3343.682	228.42
3346.688	238.75
3349.691	239.42
3352.692	237.42
3355.691	235.75
3358.687	234.08
3361.681	231.42
3364.673	228.08
3367.662	228.42
3370.649	221.42
3373.633	217.75
3376.615	218.75
3379.595	208.42
3382.572	212.42
3385.547	210.08
3388.52	197.75
3391.49	209.08
3394.458	196.75
3397.424	197.75
3400.387	201.75
3403.348	197.42
3406.307	193.08
3409.263	195.08
3412.217	191.42
3415.168	188.42
3418.118	186.75
3421.065	182.42
3424.009	184.08
3426.951	180.08
3429.891	179.42
3432.829	176.42
3435.764	167.75
3438.697	162.42
3441.628	163.42
3444.557	155.42
3447.483	157.08
3450.407	157.08
3453.328	148.08
3456.247	143.42
3459.164	137.42
3462.079	134.08
3464.991	131.08
3467.902	130.42
3470.809	128.08
3473.715	121.08
3476.618	118.08
3479.519	116.42
3482.418	111.42
3485.315	105.08
3488.209	103.42
3491.101	98.75
3493.99	94.75
3496.878	96.75
3499.763	93.42
3502.646	92.08
3505.527	90.75
3508.405	85.75
3511.281	77.75
3514.155	78.75
3517.027	78.42
3519.897	74.08
3522.764	72.42
3525.629	65.75
3528.492	60.08
3531.352	54.42
3534.211	53.42
3537.067	52.75
3539.921	51.42
3542.773	40.42
3545.622	39.42
3548.469	37.75
3551.315	36.42
3554.157	34.42
3556.998	30.42
3559.837	29.42
3562.673	31.08
3565.507	27.75
3568.339	23.75
3571.169	24.08
3573.996	20.08
3576.822	21.75
3579.645	21.08
3582.466	14.75
3585.285	14.75
3588.101	13.42
3590.916	16.75
3593.728	6.42
3596.538	10.08
3599.346	6.42
3602.152	5.08
3604.956	-1.25
3607.757	2.08
3610.556	0.75
3613.354	-0.25
3616.149	-4.58
3618.942	-0.92
3621.732	-0.92
3624.521	3.08
3627.307	-1.25
3630.092	-5.58
3632.874	-5.92
3635.654	-5.58
3638.432	-7.58
3641.208	-7.25
3643.982	-8.58
3646.753	-11.58
3649.523	-11.92
3652.29	-7.92
3655.055	-13.25
3657.818	-14.92
3660.579	-16.58
3663.338	-16.92
3666.095	-17.58
3668.849	-21.92
3671.602	-18.58
3674.352	-17.58
3677.101	-19.92
3679.847	-19.92
3682.591	-19.92
3685.333	-20.25
3688.073	-18.58
3690.811	-16.92
3693.547	-19.92
3696.281	-21.25
3699.013	-23.25
3701.742	-22.58
3704.47	-22.58
3707.195	-22.92
3709.919	-23.92
3712.64	-24.92
3715.359	-25.25
3718.076	-29.25
3720.792	-29.58
3723.505	-28.25
3726.216	-29.25
3728.925	-25.92
3731.632	-26.92
3734.336	-28.25
3737.039	-26.25
3739.74	-25.92
3742.439	-26.58
3745.136	-26.92
3747.83	-26.92
3750.523	-29.25
3753.213	-27.92
3755.902	-28.58
3758.589	-28.92
3761.273	-28.25
3763.956	-30.92
3766.636	-29.92
3769.315	-25.92
3771.991	-27.58
3774.665	-32.58
3777.338	-32.25
3780.008	-29.58
3782.677	-30.58
3785.343	-29.58
3788.007	-27.92
3790.67	-28.92
3793.33	-29.25
3795.989	-31.25
3798.645	-28.25
3801.299	-30.25
3803.952	-28.92
3806.602	-28.58
3809.251	-28.58
3811.897	-29.25
3814.542	-29.25
3817.184	-28.58
3819.825	-26.25
3822.463	-31.58
3825.1	-32.25
3827.735	-31.58
3830.367	-27.92
3832.998	-32.58
3835.627	-34.92
3838.253	-33.58
3840.878	-34.58
3843.501	-32.92
3846.122	-33.58
3848.741	-29.25
3851.358	-30.92
3853.973	-29.25
3856.586	-32.58
3859.197	-31.25
3861.806	-27.25
3864.414	-31.58
3867.019	-30.25
3869.622	-29.25
3872.224	-28.25
3874.823	-24.25
3877.421	-25.58
3880.016	-24.58
3882.61	-19.25
3885.202	-16.58
3887.792	-22.25
3890.38	-25.92
3892.966	-28.92
3895.55	-34.25
3898.132	-33.92
3900.713	-34.25
3903.291	-30.58
3905.868	-33.25
3908.442	-30.92
3911.015	-32.25
3913.586	-31.25
3916.155	-30.58
3918.722	-31.25
3921.287	-29.58
3923.85	-31.58
3926.411	-29.58
3928.971	-30.92
3931.528	-32.92
3934.084	-30.25
3936.638	-32.58
3939.19	-34.25
3941.74	-31.25
3944.288	-32.92
3946.834	-35.25
3949.378	-35.25
3951.921	-30.58
3954.462	-32.25
3957	-33.25
3959.537	-32.25
3962.072	-32.25
3964.606	-34.25
3967.137	-31.25
3969.667	-28.92
3972.194	-33.25
3974.72	-31.25
3977.244	-31.58
3979.766	-31.58
3982.286	-27.92
3984.805	-31.25
3987.321	-32.92
3989.836	-29.25
3992.349	-31.25
3994.86	-34.25
3997.369	-35.92
3999.877	-31.92
4002.382	-32.92
4004.886	-30.92
4007.388	-29.58
4009.888	-31.25
4012.386	-31.58
4014.883	-30.58
4017.377	-31.92
4019.87	-34.25
4022.361	-30.25
4024.85	-29.92
4027.338	-31.25
4029.823	-31.58
4032.307	-30.25
4034.789	-31.25
4037.269	-30.25
4039.747	-32.25
4042.224	-34.58
4044.699	-29.58
4047.172	-33.58
4049.643	-31.92
4052.112	-32.25
4054.58	-33.25
4057.046	-32.25
4059.51	-32.92
4061.972	-32.25
4064.432	-32.58
4066.891	-32.92
4069.348	-33.25
4071.803	-32.25
4074.256	-32.58
4076.708	-32.92
4079.158	-30.25
4081.606	-29.58
4084.052	-32.25
4086.497	-31.92
4088.939	-28.92
4091.38	-31.92
4093.819	-33.92
4096.257	-32.92
4098.693	-34.92
4101.127	-32.58
4103.559	-35.92
4105.989	-17.58
4108.418	-15.58
4110.845	-14.58
4113.27	-13.58
4115.694	-13.92
4118.115	-8.25
4120.535	-30.58
4122.954	-35.25
4125.37	-30.25
4127.785	-31.58
4130.198	-35.58
4132.609	-33.25
4135.019	-34.58
4137.427	-33.92
4139.833	-33.25
4142.237	-31.58
