Data from Saline_log8 (I=1 T=5x1 V=3ml)_RamanShift_2.txt Node
Date: Mon Jun 05 14:31:25 IDT 2017
User: aro
Spectrometer: QEPB0276
Trigger mode: 0
Integration Time (sec): 5.000000E0
Scans to average: 1
Electric dark correction enabled: true
Nonlinearity correction enabled: false
Boxcar width: 0
XAxis mode: Raman Shifts
Number of Pixels in Spectrum: 1044
>>>>>Begin Spectral Data<<<<<
160.701	-6.88
166.742	1.79
172.777	30.79
178.805	104.12
184.826	282.46
190.841	578.46
196.849	915.79
202.85	1135.79
208.845	1196.12
214.833	1151.12
220.815	1089.79
226.789	1068.79
232.758	1041.12
238.719	1019.46
244.674	976.46
250.623	942.12
256.565	904.46
262.5	873.12
268.429	837.79
274.351	806.79
280.267	782.79
286.176	760.46
292.079	748.46
297.975	722.79
303.865	699.46
309.748	704.12
315.625	688.79
321.495	679.79
327.359	668.12
333.217	669.79
339.068	665.12
344.912	662.46
350.751	677.79
356.583	664.79
362.408	668.79
368.227	666.12
374.04	677.79
379.847	707.46
385.647	706.46
391.44	711.79
397.228	705.12
403.009	710.79
408.784	730.79
414.553	775.79
420.315	838.46
426.071	838.79
431.821	770.46
437.565	723.79
443.302	702.79
449.033	699.12
454.758	681.46
460.477	675.79
466.189	678.12
471.896	664.12
477.596	655.79
483.29	652.46
488.978	642.79
494.66	642.79
500.335	629.79
506.005	612.46
511.668	591.46
517.325	560.12
522.977	543.79
528.622	521.46
534.261	524.79
539.894	500.12
545.521	500.12
551.141	497.12
556.756	488.12
562.365	484.79
567.968	467.79
573.565	465.12
579.155	472.46
584.74	468.79
590.319	457.79
595.892	455.46
601.459	447.46
607.02	446.79
612.575	445.79
618.124	434.79
623.667	427.12
629.204	424.12
634.735	428.79
640.261	437.46
645.781	455.79
651.294	462.12
656.802	444.12
662.304	422.12
667.8	413.12
673.29	397.46
678.775	393.12
684.254	400.12
689.726	397.12
695.193	387.46
700.655	382.46
706.11	374.79
711.56	373.46
717.004	378.79
722.442	368.79
727.874	354.46
733.301	359.12
738.722	354.79
744.137	357.12
749.547	361.46
754.951	360.46
760.349	354.79
765.741	355.79
771.128	349.79
776.509	350.46
781.885	343.46
787.254	346.79
792.618	343.12
797.977	341.79
803.33	338.46
808.677	342.46
814.019	333.79
819.355	329.46
824.686	321.12
830.011	320.12
835.33	315.79
840.644	302.79
845.952	308.79
851.255	298.79
856.552	290.79
861.844	283.79
867.13	284.12
872.41	293.12
877.686	284.79
882.955	286.12
888.219	276.79
893.478	260.12
898.731	259.79
903.979	250.12
909.221	244.46
914.458	246.79
919.69	246.46
924.916	237.79
930.136	237.12
935.351	237.12
940.561	232.46
945.766	233.46
950.965	228.79
956.158	231.46
961.347	224.12
966.529	217.46
971.707	209.79
976.879	212.46
982.046	205.79
987.208	209.46
992.364	207.12
997.515	203.46
1002.66	208.79
1007.801	212.12
1012.936	211.79
1018.066	210.46
1023.19	214.79
1028.309	210.79
1033.423	205.79
1038.532	203.79
1043.636	212.12
1048.734	208.12
1053.827	209.12
1058.915	202.12
1063.998	194.79
1069.075	199.46
1074.147	195.79
1079.214	200.79
1084.276	205.12
1089.333	201.46
1094.385	203.12
1099.431	206.12
1104.472	199.12
1109.509	192.79
1114.54	190.12
1119.565	190.79
1124.586	186.46
1129.602	179.12
1134.613	184.46
1139.618	177.12
1144.619	186.12
1149.614	182.46
1154.604	182.12
1159.589	179.79
1164.57	178.79
1169.545	178.79
1174.515	179.46
1179.48	179.46
1184.44	171.46
1189.395	176.12
1194.345	172.79
1199.29	177.79
1204.23	176.46
1209.165	172.79
1214.095	175.46
1219.021	179.79
1223.941	177.46
1228.856	180.79
1233.766	180.12
1238.672	179.79
1243.572	177.79
1248.467	178.79
1253.358	178.46
1258.244	168.46
1263.124	167.46
1268	170.12
1272.871	154.12
1277.737	158.79
1282.599	154.46
1287.455	158.46
1292.306	154.46
1297.153	154.46
1301.995	156.46
1306.832	155.12
1311.664	158.46
1316.491	160.46
1321.314	155.46
1326.132	150.12
1330.945	142.46
1335.753	143.12
1340.556	141.46
1345.354	139.46
1350.148	138.79
1354.937	137.12
1359.722	134.46
1364.501	140.46
1369.276	137.46
1374.046	140.46
1378.811	134.46
1383.572	136.79
1388.327	129.46
1393.079	135.12
1397.825	136.46
1402.567	135.12
1407.304	129.79
1412.036	123.79
1416.764	122.79
1421.487	128.79
1426.205	129.12
1430.919	126.79
1435.628	134.46
1440.333	134.79
1445.032	131.12
1449.727	127.46
1454.418	135.46
1459.104	129.79
1463.785	130.12
1468.462	127.46
1473.134	127.79
1477.802	120.46
1482.465	120.12
1487.123	117.79
1491.777	120.79
1496.426	130.46
1501.071	126.12
1505.711	134.12
1510.347	136.46
1514.978	137.12
1519.604	143.79
1524.226	144.12
1528.844	134.46
1533.457	140.79
1538.065	142.46
1542.669	138.46
1547.269	138.79
1551.864	137.79
1556.454	141.12
1561.041	141.12
1565.622	140.79
1570.199	149.79
1574.772	146.46
1579.34	150.79
1583.904	161.12
1588.464	165.12
1593.019	172.79
1597.569	173.79
1602.115	177.12
1606.657	180.46
1611.195	188.12
1615.728	197.12
1620.256	201.46
1624.78	211.46
1629.3	206.79
1633.816	214.12
1638.327	213.79
1642.834	219.46
1647.336	218.79
1651.834	214.46
1656.328	221.79
1660.817	221.12
1665.302	206.79
1669.783	209.46
1674.259	196.79
1678.732	191.12
1683.199	175.12
1687.663	164.46
1692.122	150.12
1696.577	146.46
1701.028	136.12
1705.474	131.12
1709.917	126.79
1714.355	120.12
1718.788	114.46
1723.218	104.79
1727.643	101.79
1732.064	95.79
1736.481	91.46
1740.893	84.12
1745.301	82.46
1749.705	68.46
1754.105	73.46
1758.501	63.12
1762.893	63.46
1767.28	59.12
1771.663	59.12
1776.042	59.46
1780.417	61.79
1784.787	53.12
1789.154	57.12
1793.516	53.79
1797.874	51.46
1802.228	52.46
1806.578	51.79
1810.924	51.12
1815.266	45.46
1819.603	43.46
1823.937	47.79
1828.266	38.12
1832.591	42.79
1836.913	38.79
1841.23	39.46
1845.543	40.12
1849.852	39.79
1854.156	38.79
1858.457	38.79
1862.754	44.79
1867.047	40.12
1871.335	41.46
1875.62	44.46
1879.9	40.79
1884.177	46.12
1888.449	38.79
1892.718	40.46
1896.982	42.12
1901.243	41.46
1905.499	39.79
1909.752	36.12
1914	40.12
1918.245	36.79
1922.485	38.79
1926.722	39.46
1930.954	39.12
1935.183	41.46
1939.408	38.46
1943.628	45.46
1947.845	46.12
1952.058	47.12
1956.267	38.79
1960.472	42.79
1964.673	44.12
1968.87	42.12
1973.063	39.46
1977.252	41.79
1981.438	42.79
1985.619	39.12
1989.797	41.12
1993.971	41.79
1998.14	36.79
2002.306	41.79
2006.469	42.46
2010.627	39.46
2014.781	38.79
2018.932	32.46
2023.078	42.12
2027.221	30.46
2031.36	40.46
2035.495	36.46
2039.627	37.12
2043.754	36.12
2047.878	38.12
2051.998	38.46
2056.114	36.79
2060.226	38.12
2064.334	36.12
2068.439	42.46
2072.54	45.12
2076.637	39.46
2080.73	47.79
2084.82	42.46
2088.906	42.12
2092.988	47.46
2097.066	47.46
2101.14	42.12
2105.211	42.46
2109.278	44.46
2113.342	42.12
2117.401	43.79
2121.457	42.12
2125.509	39.79
2129.558	43.46
2133.602	38.46
2137.643	41.12
2141.681	38.79
2145.714	37.12
2149.744	36.79
2153.77	33.46
2157.793	32.12
2161.812	32.46
2165.827	33.46
2169.838	32.12
2173.846	30.46
2177.851	26.46
2181.851	28.12
2185.848	25.46
2189.841	23.12
2193.831	24.46
2197.817	23.46
2201.799	24.12
2205.778	21.12
2209.753	20.12
2213.725	19.46
2217.693	18.79
2221.657	20.12
2225.618	19.12
2229.575	18.79
2233.529	20.46
2237.479	17.46
2241.425	15.46
2245.368	10.79
2249.307	11.12
2253.243	11.46
2257.175	10.79
2261.104	9.46
2265.029	6.12
2268.95	8.12
2272.868	7.46
2276.783	6.12
2280.694	5.12
2284.601	6.46
2288.505	6.12
2292.405	3.79
2296.302	5.46
2300.195	5.79
2304.085	2.12
2307.971	7.46
2311.854	1.12
2315.734	0.46
2319.609	1.46
2323.482	-5.54
2327.351	0.12
2331.216	-2.21
2335.078	-0.54
2338.937	0.79
2342.792	-4.21
2346.643	-3.21
2350.492	-5.88
2354.336	-6.54
2358.178	-3.88
2362.015	-4.54
2365.85	-5.21
2369.681	-2.88
2373.508	-4.88
2377.333	-2.21
2381.153	-0.54
2384.971	-1.54
2388.785	-1.54
2392.595	-4.21
2396.402	-4.21
2400.206	-2.54
2404.007	-4.88
2407.804	-3.21
2411.597	-5.54
2415.388	-5.88
2419.174	-10.21
2422.958	-11.21
2426.738	-8.21
2430.515	-10.54
2434.289	-7.88
2438.059	-10.21
2441.825	-8.54
2445.589	-15.21
2449.349	-12.88
2453.106	-12.54
2456.859	-10.21
2460.61	-11.21
2464.356	-13.21
2468.1	-10.88
2471.84	-9.54
2475.577	-8.54
2479.311	-9.54
2483.041	-12.88
2486.768	-6.88
2490.492	-9.21
2494.213	-12.54
2497.93	-14.54
2501.644	-6.54
2505.355	-16.21
2509.062	-10.54
2512.766	-11.54
2516.467	-14.21
2520.165	-13.88
2523.859	-15.21
2527.551	-12.54
2531.239	-14.88
2534.923	-16.88
2538.605	-14.21
2542.283	-11.88
2545.958	-12.88
2549.63	-10.54
2553.299	-11.88
2556.964	-13.21
2560.626	-12.54
2564.285	-14.21
2567.941	-13.54
2571.594	-12.54
2575.243	-12.54
2578.89	-12.54
2582.533	-12.54
2586.173	-13.88
2589.809	-11.88
2593.443	-11.88
2597.073	-12.21
2600.701	-14.54
2604.325	-15.21
2607.946	-13.88
2611.564	-19.21
2615.178	-15.54
2618.79	-14.54
2622.398	-11.21
2626.004	-13.21
2629.606	-17.88
2633.205	-16.21
2636.801	-17.21
2640.394	-16.54
2643.983	-16.54
2647.57	-17.21
2651.153	-19.54
2654.734	-18.54
2658.311	-14.88
2661.885	-17.21
2665.456	-14.21
2669.025	-17.88
2672.589	-16.54
2676.151	-14.54
2679.71	-16.88
2683.266	-13.21
2686.819	-14.54
2690.368	-15.21
2693.915	-13.88
2697.458	-15.88
2700.999	-16.54
2704.536	-13.21
2708.071	-16.21
2711.602	-14.21
2715.13	-15.88
2718.656	-18.21
2722.178	-15.21
2725.697	-16.88
2729.214	-14.88
2732.727	-15.21
2736.237	-15.88
2739.744	-16.54
2743.249	-19.54
2746.75	-17.88
2750.248	-17.54
2753.743	-17.21
2757.236	-11.54
2760.725	-14.54
2764.211	-14.21
2767.695	-14.21
2771.175	-15.21
2774.652	-11.88
2778.127	-11.88
2781.598	-10.54
2785.067	-10.54
2788.532	-12.21
2791.995	-9.54
2795.455	-9.21
2798.911	-9.21
2802.365	-10.21
2805.816	-6.54
2809.264	-5.88
2812.709	-10.54
2816.151	-7.21
2819.59	-11.21
2823.026	-6.88
2826.46	-4.88
2829.89	-7.21
2833.318	-7.54
2836.742	-2.88
2840.164	-5.54
2843.583	-4.54
2846.999	-1.54
2850.412	-6.54
2853.822	-2.88
2857.229	3.46
2860.634	-0.54
2864.035	4.79
2867.434	1.12
2870.83	3.46
2874.223	3.12
2877.613	10.46
2881	3.79
2884.385	11.79
2887.766	10.12
2891.145	8.46
2894.521	11.12
2897.894	12.46
2901.264	14.46
2904.631	13.12
2907.996	15.46
2911.358	14.46
2914.717	15.79
2918.073	19.46
2921.426	13.12
2924.777	19.46
2928.124	15.12
2931.469	21.46
2934.811	27.79
2938.15	22.46
2941.487	25.79
2944.821	25.46
2948.152	25.79
2951.48	31.12
2954.805	29.46
2958.128	29.79
2961.447	34.12
2964.765	37.46
2968.079	40.46
2971.39	41.79
2974.699	42.12
2978.005	44.12
2981.308	44.79
2984.609	53.46
2987.907	51.12
2991.202	54.79
2994.494	60.46
2997.784	64.46
3001.07	66.12
3004.355	61.12
3007.636	70.46
3010.915	68.46
3014.191	71.12
3017.464	71.46
3020.734	75.12
3024.002	74.12
3027.267	78.46
3030.53	81.79
3033.789	79.79
3037.046	87.12
3040.301	91.12
3043.552	93.79
3046.801	95.46
3050.048	100.79
3053.291	110.12
3056.532	112.46
3059.771	121.79
3063.006	122.46
3066.239	124.79
3069.469	132.12
3072.697	138.46
3075.922	141.12
3079.144	144.46
3082.364	151.12
3085.581	150.79
3088.795	156.46
3092.007	167.12
3095.216	173.12
3098.423	176.46
3101.627	176.79
3104.828	180.12
3108.026	190.46
3111.222	193.12
3114.416	204.46
3117.607	214.12
3120.795	211.46
3123.98	226.12
3127.163	228.79
3130.344	233.79
3133.521	240.12
3136.696	246.79
3139.869	255.12
3143.039	258.46
3146.206	261.79
3149.371	265.79
3152.533	271.12
3155.693	272.12
3158.85	277.79
3162.005	283.12
3165.157	278.12
3168.306	283.46
3171.453	278.12
3174.597	281.79
3177.739	285.79
3180.878	290.46
3184.014	293.79
3187.149	282.46
3190.28	295.46
3193.409	291.46
3196.536	288.12
3199.659	294.79
3202.781	293.46
3205.9	302.79
3209.016	290.12
3212.13	292.79
3215.241	293.46
3218.35	298.12
3221.456	294.12
3224.56	291.79
3227.661	292.79
3230.76	280.46
3233.856	279.79
3236.95	283.12
3240.041	283.79
3243.13	276.79
3246.216	279.79
3249.3	275.12
3252.382	280.12
3255.46	276.46
3258.537	274.79
3261.611	279.12
3264.682	277.46
3267.751	271.46
3270.818	270.46
3273.882	272.46
3276.943	269.46
3280.002	266.79
3283.059	266.12
3286.113	259.12
3289.165	253.12
3292.214	257.12
3295.261	245.46
3298.306	255.46
3301.348	239.12
3304.387	243.46
3307.425	239.46
3310.459	239.46
3313.492	232.46
3316.521	231.46
3319.549	230.12
3322.574	228.12
3325.597	232.12
3328.617	223.79
3331.635	216.46
3334.65	215.79
3337.663	222.12
3340.674	218.79
3343.682	220.79
3346.688	219.12
3349.691	221.79
3352.692	211.79
3355.691	214.12
3358.687	213.46
3361.681	211.79
3364.673	207.46
3367.662	204.79
3370.649	208.79
3373.633	207.12
3376.615	200.12
3379.595	198.79
3382.572	204.79
3385.547	201.46
3388.52	194.12
3391.49	195.46
3394.458	185.12
3397.424	190.12
3400.387	186.12
3403.348	187.79
3406.307	182.46
3409.263	176.46
3412.217	181.79
3415.168	176.79
3418.118	175.12
3421.065	171.79
3424.009	167.46
3426.951	171.46
3429.891	166.79
3432.829	165.79
3435.764	154.12
3438.697	153.79
3441.628	151.79
3444.557	153.79
3447.483	150.46
3450.407	145.46
3453.328	142.46
3456.247	137.79
3459.164	127.79
3462.079	127.46
3464.991	125.46
3467.902	121.79
3470.809	117.46
3473.715	113.46
3476.618	110.46
3479.519	108.79
3482.418	105.79
3485.315	99.46
3488.209	96.79
3491.101	95.12
3493.99	93.12
3496.878	90.12
3499.763	81.79
3502.646	82.46
3505.527	80.12
3508.405	74.12
3511.281	73.12
3514.155	69.12
3517.027	69.79
3519.897	64.46
3522.764	62.79
3525.629	58.12
3528.492	54.46
3531.352	50.79
3534.211	54.79
3537.067	47.12
3539.921	46.79
3542.773	38.79
3545.622	32.79
3548.469	36.12
3551.315	33.79
3554.157	32.79
3556.998	25.79
3559.837	26.79
3562.673	27.46
3565.507	23.12
3568.339	25.12
3571.169	19.46
3573.996	18.46
3576.822	19.12
3579.645	14.46
3582.466	12.12
3585.285	12.12
3588.101	6.79
3590.916	6.12
3593.728	7.79
3596.538	4.46
3599.346	5.79
3602.152	3.46
3604.956	-0.88
3607.757	4.46
3610.556	1.12
3613.354	-1.88
3616.149	-0.21
3618.942	-0.54
3621.732	-3.54
3624.521	-4.54
3627.307	-6.88
3630.092	-7.21
3632.874	-6.54
3635.654	-9.21
3638.432	-7.21
3641.208	-11.88
3643.982	-11.21
3646.753	-14.21
3649.523	-14.54
3652.29	-13.54
3655.055	-15.88
3657.818	-16.54
3660.579	-19.21
3663.338	-20.54
3666.095	-16.21
3668.849	-16.54
3671.602	-19.21
3674.352	-18.21
3677.101	-17.54
3679.847	-20.54
3682.591	-19.54
3685.333	-18.88
3688.073	-19.21
3690.811	-21.54
3693.547	-20.54
3696.281	-21.88
3699.013	-24.88
3701.742	-26.21
3704.47	-23.21
3707.195	-24.54
3709.919	-26.54
3712.64	-27.54
3715.359	-26.88
3718.076	-28.88
3720.792	-31.21
3723.505	-26.88
3726.216	-27.88
3728.925	-29.54
3731.632	-28.54
3734.336	-28.88
3737.039	-27.88
3739.74	-23.54
3742.439	-27.21
3745.136	-26.54
3747.83	-27.54
3750.523	-27.88
3753.213	-28.54
3755.902	-29.21
3758.589	-25.54
3761.273	-28.88
3763.956	-27.54
3766.636	-28.54
3769.315	-28.54
3771.991	-25.21
3774.665	-30.21
3777.338	-32.88
3780.008	-29.21
3782.677	-31.21
3785.343	-30.21
3788.007	-31.54
3790.67	-30.54
3793.33	-32.88
3795.989	-31.88
3798.645	-30.88
3801.299	-29.88
3803.952	-29.54
3806.602	-31.21
3809.251	-33.21
3811.897	-32.88
3814.542	-35.88
3817.184	-33.21
3819.825	-27.88
3822.463	-32.21
3825.1	-32.88
3827.735	-33.21
3830.367	-29.54
3832.998	-31.21
3835.627	-30.54
3838.253	-30.21
3840.878	-30.21
3843.501	-29.54
3846.122	-32.21
3848.741	-28.88
3851.358	-30.54
3853.973	-30.88
3856.586	-31.21
3859.197	-29.88
3861.806	-30.88
3864.414	-33.21
3867.019	-33.88
3869.622	-33.88
3872.224	-30.88
3874.823	-30.88
3877.421	-29.21
3880.016	-24.21
3882.61	-20.88
3885.202	-17.21
3887.792	-22.88
3890.38	-23.54
3892.966	-28.54
3895.55	-32.88
3898.132	-29.54
3900.713	-30.88
3903.291	-28.21
3905.868	-30.88
3908.442	-30.54
3911.015	-29.88
3913.586	-27.88
3916.155	-31.21
3918.722	-33.88
3921.287	-34.21
3923.85	-31.21
3926.411	-32.21
3928.971	-33.54
3931.528	-31.54
3934.084	-32.88
3936.638	-33.21
3939.19	-37.88
3941.74	-32.88
3944.288	-35.54
3946.834	-34.88
3949.378	-34.88
3951.921	-34.21
3954.462	-29.88
3957	-31.88
3959.537	-30.88
3962.072	-30.88
3964.606	-35.88
3967.137	-31.88
3969.667	-28.54
3972.194	-32.88
3974.72	-29.88
3977.244	-32.21
3979.766	-34.21
3982.286	-29.54
3984.805	-30.88
3987.321	-29.54
3989.836	-30.88
3992.349	-30.88
3994.86	-29.88
3997.369	-34.54
3999.877	-34.54
4002.382	-30.54
4004.886	-33.54
4007.388	-32.21
4009.888	-30.88
4012.386	-33.21
4014.883	-32.21
4017.377	-33.54
4019.87	-32.88
4022.361	-34.88
4024.85	-31.54
4027.338	-33.88
4029.823	-35.21
4032.307	-32.88
4034.789	-31.88
4037.269	-31.88
4039.747	-29.88
4042.224	-31.21
4044.699	-32.21
4047.172	-31.21
4049.643	-30.54
4052.112	-30.88
4054.58	-29.88
4057.046	-31.88
4059.51	-33.54
4061.972	-30.88
4064.432	-32.21
4066.891	-29.54
4069.348	-33.88
4071.803	-31.88
4074.256	-30.21
4076.708	-34.54
4079.158	-34.88
4081.606	-34.21
4084.052	-34.88
4086.497	-35.54
4088.939	-33.54
4091.38	-34.54
4093.819	-32.54
4096.257	-34.54
4098.693	-37.54
4101.127	-37.21
4103.559	-35.54
4105.989	-20.21
4108.418	-15.21
4110.845	-20.21
4113.27	-19.21
4115.694	-12.54
4118.115	-13.88
4120.535	-33.21
4122.954	-33.88
4125.37	-30.88
4127.785	-31.21
4130.198	-32.21
4132.609	-30.88
4135.019	-32.21
4137.427	-32.54
4139.833	-30.88
4142.237	-34.21
