Data from Saline_log8 (I=1 T=5x1 V=3ml)_RamanShift_1.txt Node
Date: Mon Jun 05 14:30:10 IDT 2017
User: aro
Spectrometer: QEPB0276
Trigger mode: 0
Integration Time (sec): 5.000000E0
Scans to average: 1
Electric dark correction enabled: true
Nonlinearity correction enabled: false
Boxcar width: 0
XAxis mode: Raman Shifts
Number of Pixels in Spectrum: 1044
>>>>>Begin Spectral Data<<<<<
160.701	-3.75
166.742	4.92
172.777	26.92
178.805	100.25
184.826	265.58
190.841	532.58
196.849	848.92
202.85	1048.92
208.845	1091.25
214.833	1070.25
220.815	1022.92
226.789	1001.92
232.758	966.25
238.719	944.58
244.674	924.58
250.623	891.25
256.565	841.58
262.5	810.25
268.429	785.92
274.351	750.92
280.267	736.92
286.176	709.58
292.079	697.58
297.975	672.92
303.865	668.58
309.748	655.25
315.625	644.92
321.495	637.92
327.359	644.25
333.217	631.92
339.068	634.25
344.912	632.58
350.751	639.92
356.583	627.92
362.408	637.92
368.227	641.25
374.04	661.92
379.847	665.58
385.647	677.58
391.44	683.92
397.228	660.25
403.009	664.92
408.784	680.92
414.553	743.92
420.315	797.58
426.071	794.92
431.821	742.58
437.565	688.92
443.302	675.92
449.033	663.25
454.758	641.58
460.477	641.92
466.189	646.25
471.896	631.25
477.596	617.92
483.29	615.58
488.978	616.92
494.66	608.92
500.335	587.92
506.005	576.58
511.668	543.58
517.325	526.25
522.977	501.92
528.622	499.58
534.261	485.92
539.894	472.25
545.521	468.25
551.141	465.25
556.756	450.25
562.365	446.92
567.968	444.92
573.565	445.25
579.155	437.58
584.74	447.92
590.319	439.92
595.892	424.58
601.459	426.58
607.02	417.92
612.575	406.92
618.124	411.92
623.667	397.25
629.204	396.25
634.735	401.92
640.261	409.58
645.781	433.92
651.294	437.25
656.802	411.25
662.304	401.25
667.8	375.25
673.29	374.58
678.775	373.25
684.254	363.25
689.726	360.25
695.193	354.58
700.655	352.58
706.11	346.92
711.56	347.58
717.004	344.92
722.442	342.92
727.874	333.58
733.301	330.25
738.722	336.92
744.137	331.25
749.547	336.58
754.951	338.58
760.349	343.92
765.741	335.92
771.128	326.92
776.509	328.58
781.885	336.58
787.254	329.92
792.618	337.25
797.977	323.92
803.33	322.58
808.677	319.58
814.019	317.92
819.355	318.58
824.686	300.25
830.011	305.25
835.33	295.92
840.644	287.92
845.952	283.92
851.255	277.92
856.552	269.92
861.844	275.92
867.13	265.25
872.41	268.25
877.686	256.92
882.955	253.25
888.219	253.92
893.478	245.25
898.731	237.92
903.979	231.25
909.221	232.58
914.458	232.92
919.69	231.58
924.916	230.92
930.136	229.25
935.351	221.25
940.561	223.58
945.766	219.58
950.965	209.92
956.158	203.58
961.347	206.25
966.529	208.58
971.707	200.92
976.879	191.58
982.046	201.92
987.208	194.58
992.364	185.25
997.515	188.58
1002.66	195.92
1007.801	195.25
1012.936	194.92
1018.066	196.58
1023.19	202.92
1028.309	197.92
1033.423	195.92
1038.532	193.92
1043.636	201.25
1048.734	199.25
1053.827	192.25
1058.915	189.25
1063.998	189.92
1069.075	188.58
1074.147	192.92
1079.214	183.92
1084.276	195.25
1089.333	184.58
1094.385	184.25
1099.431	192.25
1104.472	183.25
1109.509	178.92
1114.54	179.25
1119.565	171.92
1124.586	172.58
1129.602	170.25
1134.613	172.58
1139.618	170.25
1144.619	165.25
1149.614	168.58
1154.604	168.25
1159.589	171.92
1164.57	173.92
1169.545	174.92
1174.515	167.58
1179.48	171.58
1184.44	167.58
1189.395	170.25
1194.345	168.92
1199.29	165.92
1204.23	170.58
1209.165	168.92
1214.095	166.58
1219.021	172.92
1223.941	171.58
1228.856	172.92
1233.766	172.25
1238.672	163.92
1243.572	164.92
1248.467	164.92
1253.358	164.58
1258.244	157.58
1263.124	155.58
1268	158.25
1272.871	146.25
1277.737	151.92
1282.599	148.58
1287.455	145.58
1292.306	151.58
1297.153	142.58
1301.995	148.58
1306.832	152.25
1311.664	142.58
1316.491	151.58
1321.314	153.58
1326.132	150.25
1330.945	147.58
1335.753	138.25
1340.556	136.58
1345.354	133.58
1350.148	132.92
1354.937	127.25
1359.722	130.58
1364.501	131.58
1369.276	128.58
1374.046	130.58
1378.811	127.58
1383.572	130.92
1388.327	129.58
1393.079	123.25
1397.825	123.58
1402.567	120.25
1407.304	118.92
1412.036	117.92
1416.764	118.92
1421.487	116.92
1426.205	129.25
1430.919	116.92
1435.628	121.58
1440.333	118.92
1445.032	124.25
1449.727	119.58
1454.418	123.58
1459.104	123.92
1463.785	115.25
1468.462	112.58
1473.134	117.92
1477.802	116.58
1482.465	114.25
1487.123	113.92
1491.777	114.92
1496.426	117.58
1501.071	120.25
1505.711	121.25
1510.347	125.58
1514.978	125.25
1519.604	127.92
1524.226	131.25
1528.844	130.58
1533.457	127.92
1538.065	128.58
1542.669	125.58
1547.269	136.92
1551.864	134.92
1556.454	129.25
1561.041	133.25
1565.622	136.92
1570.199	141.92
1574.772	143.58
1579.34	147.92
1583.904	154.25
1588.464	154.25
1593.019	164.92
1597.569	166.92
1602.115	164.25
1606.657	172.58
1611.195	176.25
1615.728	181.25
1620.256	186.58
1624.78	185.58
1629.3	195.92
1633.816	200.25
1638.327	199.92
1642.834	203.58
1647.336	194.92
1651.834	200.58
1656.328	199.92
1660.817	204.25
1665.302	190.92
1669.783	188.58
1674.259	184.92
1678.732	171.25
1683.199	163.25
1687.663	158.58
1692.122	150.25
1696.577	142.58
1701.028	133.25
1705.474	127.25
1709.917	128.92
1714.355	120.25
1718.788	111.58
1723.218	103.92
1727.643	101.92
1732.064	92.92
1736.481	84.58
1740.893	84.25
1745.301	70.58
1749.705	73.58
1754.105	69.58
1758.501	63.25
1762.893	58.58
1767.28	53.25
1771.663	56.25
1776.042	54.58
1780.417	48.92
1784.787	51.25
1789.154	46.25
1793.516	50.92
1797.874	51.58
1802.228	53.58
1806.578	52.92
1810.924	53.25
1815.266	48.58
1819.603	44.58
1823.937	49.92
1828.266	45.25
1832.591	43.92
1836.913	37.92
1841.23	39.58
1845.543	36.25
1849.852	38.92
1854.156	39.92
1858.457	37.92
1862.754	41.92
1867.047	38.25
1871.335	37.58
1875.62	41.58
1879.9	34.92
1884.177	41.25
1888.449	36.92
1892.718	42.58
1896.982	38.25
1901.243	38.58
1905.499	33.92
1909.752	38.25
1914	42.25
1918.245	39.92
1922.485	39.92
1926.722	38.58
1930.954	42.25
1935.183	45.58
1939.408	45.58
1943.628	37.58
1947.845	44.25
1952.058	43.25
1956.267	38.92
1960.472	43.92
1964.673	42.25
1968.87	44.25
1973.063	38.58
1977.252	39.92
1981.438	38.92
1985.619	40.25
1989.797	39.25
1993.971	34.92
1998.14	35.92
2002.306	36.92
2006.469	38.58
2010.627	40.58
2014.781	39.92
2018.932	36.58
2023.078	37.25
2027.221	41.58
2031.36	36.58
2035.495	36.58
2039.627	37.25
2043.754	38.25
2047.878	37.25
2051.998	40.58
2056.114	39.92
2060.226	42.25
2064.334	40.25
2068.439	44.58
2072.54	46.25
2076.637	44.58
2080.73	41.92
2084.82	43.58
2088.906	46.25
2092.988	38.58
2097.066	39.58
2101.14	45.25
2105.211	39.58
2109.278	39.58
2113.342	43.25
2117.401	36.92
2121.457	41.25
2125.509	38.92
2129.558	39.58
2133.602	39.58
2137.643	34.25
2141.681	33.92
2145.714	36.25
2149.744	38.92
2153.77	32.58
2157.793	35.25
2161.812	32.58
2165.827	31.58
2169.838	31.25
2173.846	31.58
2177.851	27.58
2181.851	26.25
2185.848	28.58
2189.841	24.25
2193.831	23.58
2197.817	23.58
2201.799	23.25
2205.778	22.25
2209.753	19.25
2213.725	22.58
2217.693	20.92
2221.657	18.25
2225.618	19.25
2229.575	20.92
2233.529	18.58
2237.479	17.58
2241.425	12.58
2245.368	16.92
2249.307	14.25
2253.243	11.58
2257.175	8.92
2261.104	12.58
2265.029	9.25
2268.95	11.25
2272.868	11.58
2276.783	11.25
2280.694	7.25
2284.601	6.58
2288.505	7.25
2292.405	6.92
2296.302	5.58
2300.195	5.92
2304.085	2.25
2307.971	7.58
2311.854	4.25
2315.734	2.58
2319.609	0.58
2323.482	-3.42
2327.351	-0.75
2331.216	0.92
2335.078	-1.42
2338.937	-0.08
2342.792	-2.08
2346.643	-1.08
2350.492	-0.75
2354.336	-3.42
2358.178	-2.75
2362.015	-2.42
2365.85	0.92
2369.681	-1.75
2373.508	-4.75
2377.333	-3.08
2381.153	-1.42
2384.971	-0.42
2388.785	-0.42
2392.595	-0.08
2396.402	-3.08
2400.206	-2.42
2404.007	-5.75
2407.804	-4.08
2411.597	-2.42
2415.388	-4.75
2419.174	-10.08
2422.958	-7.08
2426.738	-7.08
2430.515	-7.42
2434.289	-7.75
2438.059	-6.08
2441.825	-3.42
2445.589	-8.08
2449.349	-5.75
2453.106	-6.42
2456.859	-5.08
2460.61	-6.08
2464.356	-4.08
2468.1	-7.75
2471.84	-9.42
2475.577	-6.42
2479.311	-8.42
2483.041	-7.75
2486.768	-5.75
2490.492	-7.08
2494.213	-6.42
2497.93	-11.42
2501.644	-10.42
2505.355	-12.08
2509.062	-10.42
2512.766	-12.42
2516.467	-13.08
2520.165	-8.75
2523.859	-12.08
2527.551	-14.42
2531.239	-10.75
2534.923	-13.75
2538.605	-11.08
2542.283	-11.75
2545.958	-5.75
2549.63	-9.42
2553.299	-7.75
2556.964	-8.08
2560.626	-9.42
2564.285	-10.08
2567.941	-10.42
2571.594	-9.42
2575.243	-9.42
2578.89	-10.42
2582.533	-7.42
2586.173	-10.75
2589.809	-8.75
2593.443	-13.75
2597.073	-14.08
2600.701	-11.42
2604.325	-14.08
2607.946	-15.75
2611.564	-12.08
2615.178	-14.42
2618.79	-16.42
2622.398	-14.08
2626.004	-12.08
2629.606	-12.75
2633.205	-12.08
2636.801	-13.08
2640.394	-10.42
2643.983	-10.42
2647.57	-11.08
2651.153	-16.42
2654.734	-11.42
2658.311	-14.75
2661.885	-13.08
2665.456	-14.08
2669.025	-14.75
2672.589	-14.42
2676.151	-16.42
2679.71	-12.75
2683.266	-14.08
2686.819	-13.42
2690.368	-15.08
2693.915	-16.75
2697.458	-14.75
2700.999	-14.42
2704.536	-14.08
2708.071	-15.08
2711.602	-15.08
2715.13	-13.75
2718.656	-15.08
2722.178	-17.08
2725.697	-15.75
2729.214	-12.75
2732.727	-11.08
2736.237	-11.75
2739.744	-10.42
2743.249	-12.42
2746.75	-10.75
2750.248	-13.42
2753.743	-9.08
2757.236	-7.42
2760.725	-9.42
2764.211	-12.08
2767.695	-11.08
2771.175	-10.08
2774.652	-9.75
2778.127	-12.75
2781.598	-10.42
2785.067	-13.42
2788.532	-11.08
2791.995	-10.42
2795.455	-13.08
2798.911	-14.08
2802.365	-8.08
2805.816	-9.42
2809.264	-6.75
2812.709	-6.42
2816.151	-4.08
2819.59	-7.08
2823.026	-1.75
2826.46	-2.75
2829.89	-3.08
2833.318	0.58
2836.742	-1.75
2840.164	-1.42
2843.583	-1.42
2846.999	3.58
2850.412	-4.42
2853.822	-1.75
2857.229	1.58
2860.634	2.58
2864.035	1.92
2867.434	2.25
2870.83	1.58
2874.223	2.25
2877.613	1.58
2881	5.92
2884.385	4.92
2887.766	5.25
2891.145	3.58
2894.521	8.25
2897.894	3.58
2901.264	11.58
2904.631	8.25
2907.996	10.58
2911.358	14.58
2914.717	18.92
2918.073	15.58
2921.426	14.25
2924.777	18.58
2928.124	19.25
2931.469	20.58
2934.811	20.92
2938.15	25.58
2941.487	21.92
2944.821	23.58
2948.152	23.92
2951.48	25.25
2954.805	29.58
2958.128	28.92
2961.447	29.25
2964.765	29.58
2968.079	34.58
2971.39	34.92
2974.699	37.25
2978.005	40.25
2981.308	43.92
2984.609	46.58
2987.907	44.25
2991.202	52.92
2994.494	51.58
2997.784	55.58
3001.07	58.25
3004.355	53.25
3007.636	63.58
3010.915	65.58
3014.191	66.25
3017.464	68.58
3020.734	69.25
3024.002	70.25
3027.267	71.58
3030.53	77.92
3033.789	76.92
3037.046	78.25
3040.301	84.25
3043.552	87.92
3046.801	97.58
3050.048	94.92
3053.291	99.25
3056.532	108.58
3059.771	104.92
3063.006	107.58
3066.239	111.92
3069.469	118.25
3072.697	128.58
3075.922	130.25
3079.144	139.58
3082.364	138.25
3085.581	140.92
3088.795	145.58
3092.007	153.25
3095.216	158.25
3098.423	161.58
3101.627	166.92
3104.828	172.25
3108.026	182.58
3111.222	185.25
3114.416	193.58
3117.607	192.25
3120.795	197.58
3123.98	205.25
3127.163	212.92
3130.344	212.92
3133.521	227.25
3136.696	223.92
3139.869	239.25
3143.039	234.58
3146.206	245.92
3149.371	244.92
3152.533	252.25
3155.693	248.25
3158.85	249.92
3162.005	250.25
3165.157	258.25
3168.306	252.58
3171.453	257.25
3174.597	259.92
3177.739	258.92
3180.878	261.58
3184.014	270.92
3187.149	270.58
3190.28	267.58
3193.409	272.58
3196.536	268.25
3199.659	272.92
3202.781	271.58
3205.9	268.92
3209.016	269.25
3212.13	274.92
3215.241	269.58
3218.35	269.25
3221.456	274.25
3224.56	264.92
3227.661	262.92
3230.76	262.58
3233.856	263.92
3236.95	262.25
3240.041	253.92
3243.13	249.92
3246.216	249.92
3249.3	251.25
3252.382	258.25
3255.46	254.58
3258.537	255.92
3261.611	256.25
3264.682	250.58
3267.751	253.58
3270.818	253.58
3273.882	250.58
3276.943	251.58
3280.002	247.92
3283.059	244.25
3286.113	241.25
3289.165	244.25
3292.214	235.25
3295.261	238.58
3298.306	229.58
3301.348	220.25
3304.387	222.58
3307.425	212.58
3310.459	214.58
3313.492	214.58
3316.521	213.58
3319.549	203.25
3322.574	208.25
3325.597	203.25
3328.617	204.92
3331.635	206.58
3334.65	202.92
3337.663	198.25
3340.674	198.92
3343.682	196.92
3346.688	196.25
3349.691	201.92
3352.692	197.92
3355.691	199.25
3358.687	201.58
3361.681	195.92
3364.673	196.58
3367.662	192.92
3370.649	195.92
3373.633	186.25
3376.615	185.25
3379.595	183.92
3382.572	170.92
3385.547	180.58
3388.52	177.25
3391.49	169.58
3394.458	171.25
3397.424	168.25
3400.387	166.25
3403.348	162.92
3406.307	163.58
3409.263	153.58
3412.217	162.92
3415.168	159.92
3418.118	164.25
3421.065	150.92
3424.009	152.58
3426.951	154.58
3429.891	152.92
3432.829	148.92
3435.764	145.25
3438.697	146.92
3441.628	141.92
3444.557	135.92
3447.483	135.58
3450.407	129.58
3453.328	126.58
3456.247	123.92
3459.164	117.92
3462.079	116.58
3464.991	114.58
3467.902	109.92
3470.809	111.58
3473.715	103.58
3476.618	99.58
3479.519	100.92
3482.418	94.92
3485.315	92.58
3488.209	90.92
3491.101	83.25
3493.99	81.25
3496.878	80.25
3499.763	73.92
3502.646	74.58
3505.527	75.25
3508.405	74.25
3511.281	66.25
3514.155	68.25
3517.027	62.92
3519.897	59.58
3522.764	59.92
3525.629	55.25
3528.492	54.58
3531.352	47.92
3534.211	44.92
3537.067	40.25
3539.921	40.92
3542.773	41.92
3545.622	32.92
3548.469	37.25
3551.315	29.92
3554.157	29.92
3556.998	27.92
3559.837	25.92
3562.673	22.58
3565.507	23.25
3568.339	22.25
3571.169	19.58
3573.996	15.58
3576.822	16.25
3579.645	9.58
3582.466	12.25
3585.285	10.25
3588.101	10.92
3590.916	8.25
3593.728	4.92
3596.538	7.58
3599.346	6.92
3602.152	2.58
3604.956	1.25
3607.757	3.58
3610.556	-1.75
3613.354	2.25
3616.149	1.92
3618.942	1.58
3621.732	0.58
3624.521	-3.42
3627.307	-4.75
3630.092	-7.08
3632.874	-7.42
3635.654	-8.08
3638.432	-10.08
3641.208	-7.75
3643.982	-11.08
3646.753	-11.08
3649.523	-15.42
3652.29	-13.42
3655.055	-12.75
3657.818	-14.42
3660.579	-15.08
3663.338	-16.42
3666.095	-17.08
3668.849	-16.42
3671.602	-17.08
3674.352	-18.08
3677.101	-14.42
3679.847	-17.42
3682.591	-15.42
3685.333	-15.75
3688.073	-16.08
3690.811	-17.42
3693.547	-19.42
3696.281	-21.75
3699.013	-22.75
3701.742	-21.08
3704.47	-19.08
3707.195	-24.42
3709.919	-25.42
3712.64	-27.42
3715.359	-26.75
3718.076	-25.75
3720.792	-25.08
3723.505	-28.75
3726.216	-24.75
3728.925	-23.42
3731.632	-20.42
3734.336	-22.75
3737.039	-24.75
3739.74	-21.42
3742.439	-24.08
3745.136	-23.42
3747.83	-25.42
3750.523	-25.75
3753.213	-25.42
3755.902	-30.08
3758.589	-26.42
3761.273	-25.75
3763.956	-28.42
3766.636	-26.42
3769.315	-28.42
3771.991	-28.08
3774.665	-33.08
3777.338	-29.75
3780.008	-27.08
3782.677	-29.08
3785.343	-26.08
3788.007	-28.42
3790.67	-28.42
3793.33	-27.75
3795.989	-25.75
3798.645	-22.75
3801.299	-26.75
3803.952	-25.42
3806.602	-27.08
3809.251	-29.08
3811.897	-27.75
3814.542	-28.75
3817.184	-28.08
3819.825	-28.75
3822.463	-27.08
3825.1	-27.75
3827.735	-24.08
3830.367	-26.42
3832.998	-25.08
3835.627	-29.42
3838.253	-29.08
3840.878	-27.08
3843.501	-27.42
3846.122	-30.08
3848.741	-29.75
3851.358	-30.42
3853.973	-33.75
3856.586	-30.08
3859.197	-27.75
3861.806	-25.75
3864.414	-30.08
3867.019	-28.75
3869.622	-31.75
3872.224	-26.75
3874.823	-24.75
3877.421	-27.08
3880.016	-21.08
3882.61	-16.75
3885.202	-11.08
3887.792	-18.75
3890.38	-19.42
3892.966	-28.42
3895.55	-28.75
3898.132	-29.42
3900.713	-26.75
3903.291	-31.08
3905.868	-26.75
3908.442	-31.42
3911.015	-29.75
3913.586	-28.75
3916.155	-32.08
3918.722	-34.75
3921.287	-31.08
3923.85	-31.08
3926.411	-29.08
3928.971	-29.42
3931.528	-27.42
3934.084	-25.75
3936.638	-26.08
3939.19	-29.75
3941.74	-29.75
3944.288	-29.42
3946.834	-29.75
3949.378	-25.75
3951.921	-26.08
3954.462	-28.75
3957	-29.75
3959.537	-27.75
3962.072	-29.75
3964.606	-29.75
3967.137	-28.75
3969.667	-30.42
3972.194	-30.75
3974.72	-29.75
3977.244	-32.08
3979.766	-30.08
3982.286	-30.42
3984.805	-29.75
3987.321	-30.42
3989.836	-29.75
3992.349	-27.75
3994.86	-29.75
3997.369	-34.42
3999.877	-28.42
4002.382	-31.42
4004.886	-28.42
4007.388	-25.08
4009.888	-25.75
4012.386	-27.08
4014.883	-29.08
4017.377	-28.42
4019.87	-26.75
4022.361	-28.75
4024.85	-27.42
4027.338	-28.75
4029.823	-29.08
4032.307	-28.75
4034.789	-28.75
4037.269	-31.75
4039.747	-27.75
4042.224	-31.08
4044.699	-30.08
4047.172	-32.08
4049.643	-25.42
4052.112	-30.75
4054.58	-29.75
4057.046	-24.75
4059.51	-29.42
4061.972	-30.75
4064.432	-29.08
4066.891	-29.42
4069.348	-27.75
4071.803	-27.75
4074.256	-29.08
4076.708	-30.42
4079.158	-25.75
4081.606	-29.08
4084.052	-28.75
4086.497	-31.42
4088.939	-26.42
4091.38	-30.42
4093.819	-29.42
4096.257	-32.42
4098.693	-33.42
4101.127	-32.08
4103.559	-33.42
4105.989	-17.08
4108.418	-14.08
4110.845	-14.08
4113.27	-10.08
4115.694	-9.42
4118.115	-7.75
4120.535	-29.08
4122.954	-29.75
4125.37	-30.75
4127.785	-30.08
4130.198	-30.08
4132.609	-29.75
4135.019	-32.08
4137.427	-33.42
4139.833	-32.75
4142.237	-30.08
