Data from Saline_1 (I=1 T=5x1 V=3ml)_RamanShift_5.txt Node
Date: Mon Jun 05 14:01:27 IDT 2017
User: aro
Spectrometer: QEPB0276
Trigger mode: 0
Integration Time (sec): 5.000000E0
Scans to average: 1
Electric dark correction enabled: true
Nonlinearity correction enabled: false
Boxcar width: 0
XAxis mode: Raman Shifts
Number of Pixels in Spectrum: 1044
>>>>>Begin Spectral Data<<<<<
160.701	-25.5
166.742	4.17
172.777	88.17
178.805	374.5
184.826	1042.83
190.841	2173.83
196.849	3487.17
202.85	4320.17
208.845	4512.5
214.833	4377.5
220.815	4158.17
226.789	4019.17
232.758	3872.5
238.719	3728.83
244.674	3554.83
250.623	3390.5
256.565	3195.83
262.5	3050.5
268.429	2899.17
274.351	2739.17
280.267	2621.17
286.176	2520.83
292.079	2434.83
297.975	2339.17
303.865	2252.83
309.748	2186.5
315.625	2122.17
321.495	2096.17
327.359	2072.5
333.217	2069.17
339.068	2057.5
344.912	2000.83
350.751	2022.17
356.583	2014.17
362.408	2016.17
368.227	2013.5
374.04	2016.17
379.847	2036.83
385.647	2085.83
391.44	2076.17
397.228	2061.5
403.009	2069.17
408.784	2104.17
414.553	2164.17
420.315	2216.83
426.071	2235.17
431.821	2158.83
437.565	2093.17
443.302	2052.17
449.033	2042.5
454.758	2021.83
460.477	1986.17
466.189	1994.5
471.896	1958.5
477.596	1962.17
483.29	1929.83
488.978	1931.17
494.66	1916.17
500.335	1884.17
506.005	1850.83
511.668	1804.83
517.325	1759.5
522.977	1715.17
528.622	1702.83
534.261	1676.17
539.894	1650.5
545.521	1633.5
551.141	1598.5
556.756	1589.5
562.365	1594.17
567.968	1555.17
573.565	1533.5
579.155	1519.83
584.74	1508.17
590.319	1493.17
595.892	1481.83
601.459	1469.83
607.02	1435.17
612.575	1434.17
618.124	1404.17
623.667	1391.5
629.204	1375.5
634.735	1370.17
640.261	1378.83
645.781	1386.17
651.294	1383.5
656.802	1341.5
662.304	1325.5
667.8	1282.5
673.29	1276.83
678.775	1262.5
684.254	1251.5
689.726	1252.5
695.193	1226.83
700.655	1206.83
706.11	1201.17
711.56	1160.83
717.004	1176.17
722.442	1147.17
727.874	1145.83
733.301	1131.5
738.722	1107.17
744.137	1115.5
749.547	1111.83
754.951	1094.83
760.349	1091.17
765.741	1064.17
771.128	1055.17
776.509	1050.83
781.885	1053.83
787.254	1044.17
792.618	1037.5
797.977	1013.17
803.33	1001.83
808.677	991.83
814.019	974.17
819.355	946.83
824.686	933.5
830.011	923.5
835.33	922.17
840.644	905.17
845.952	887.17
851.255	878.17
856.552	864.17
861.844	861.17
867.13	833.5
872.41	838.5
877.686	843.17
882.955	825.5
888.219	813.17
893.478	785.5
898.731	748.17
903.979	723.5
909.221	694.83
914.458	694.17
919.69	672.83
924.916	680.17
930.136	663.5
935.351	676.5
940.561	667.83
945.766	641.83
950.965	629.17
956.158	634.83
961.347	614.5
966.529	617.83
971.707	586.17
976.879	581.83
982.046	564.17
987.208	553.83
992.364	563.5
997.515	566.83
1002.66	555.17
1007.801	551.5
1012.936	570.17
1018.066	567.83
1023.19	571.17
1028.309	572.17
1033.423	581.17
1038.532	576.17
1043.636	559.5
1048.734	552.5
1053.827	555.5
1058.915	537.5
1063.998	535.17
1069.075	530.83
1074.147	529.17
1079.214	533.17
1084.276	534.5
1089.333	538.83
1094.385	538.5
1099.431	530.5
1104.472	526.5
1109.509	509.17
1114.54	516.5
1119.565	506.17
1124.586	493.83
1129.602	490.5
1134.613	481.83
1139.618	482.5
1144.619	477.5
1149.614	480.83
1154.604	480.5
1159.589	478.17
1164.57	488.17
1169.545	479.17
1174.515	472.83
1179.48	473.83
1184.44	462.83
1189.395	460.5
1194.345	467.17
1199.29	464.17
1204.23	449.83
1209.165	468.17
1214.095	463.83
1219.021	470.17
1223.941	463.83
1228.856	472.17
1233.766	473.5
1238.672	469.17
1243.572	471.17
1248.467	474.17
1253.358	453.83
1258.244	451.83
1263.124	445.83
1268	428.5
1272.871	421.5
1277.737	420.17
1282.599	417.83
1287.455	424.83
1292.306	419.83
1297.153	414.83
1301.995	414.83
1306.832	411.5
1311.664	413.83
1316.491	421.83
1321.314	412.83
1326.132	402.5
1330.945	391.83
1335.753	388.5
1340.556	371.83
1345.354	359.83
1350.148	352.17
1354.937	353.5
1359.722	367.83
1364.501	366.83
1369.276	363.83
1374.046	355.83
1378.811	359.83
1383.572	368.17
1388.327	360.83
1393.079	356.5
1397.825	346.83
1402.567	340.5
1407.304	332.17
1412.036	327.17
1416.764	319.17
1421.487	317.17
1426.205	333.5
1430.919	331.17
1435.628	335.83
1440.333	349.17
1445.032	351.5
1449.727	359.83
1454.418	350.83
1459.104	348.17
1463.785	340.5
1468.462	342.83
1473.134	330.17
1477.802	327.83
1482.465	325.5
1487.123	332.17
1491.777	330.17
1496.426	331.83
1501.071	343.5
1505.711	353.5
1510.347	348.83
1514.978	372.5
1519.604	368.17
1524.226	374.5
1528.844	383.83
1533.457	383.17
1538.065	380.83
1542.669	385.83
1547.269	391.17
1551.864	394.17
1556.454	403.5
1561.041	417.5
1565.622	421.17
1570.199	430.17
1574.772	439.83
1579.34	462.17
1583.904	489.5
1588.464	490.5
1593.019	515.17
1597.569	533.17
1602.115	550.5
1606.657	571.83
1611.195	593.5
1615.728	617.5
1620.256	639.83
1624.78	660.83
1629.3	674.17
1633.816	688.5
1638.327	696.17
1642.834	721.83
1647.336	726.17
1651.834	713.83
1656.328	715.17
1660.817	698.5
1665.302	683.17
1669.783	650.83
1674.259	631.17
1678.732	574.5
1683.199	564.5
1687.663	517.83
1692.122	484.5
1696.577	452.83
1701.028	419.5
1705.474	395.5
1709.917	367.17
1714.355	348.5
1718.788	322.83
1723.218	306.17
1727.643	280.17
1732.064	252.17
1736.481	234.83
1740.893	215.5
1745.301	196.83
1749.705	186.83
1754.105	168.83
1758.501	153.5
1762.893	151.83
1767.28	136.5
1771.663	130.5
1776.042	123.83
1780.417	122.17
1784.787	120.5
1789.154	116.5
1793.516	110.17
1797.874	118.83
1802.228	112.83
1806.578	108.17
1810.924	105.5
1815.266	96.83
1819.603	91.83
1823.937	87.17
1828.266	77.5
1832.591	76.17
1836.913	71.17
1841.23	71.83
1845.543	68.5
1849.852	66.17
1854.156	69.17
1858.457	69.17
1862.754	69.17
1867.047	66.5
1871.335	74.83
1875.62	70.83
1879.9	74.17
1884.177	72.5
1888.449	76.17
1892.718	67.83
1896.982	68.5
1901.243	73.83
1905.499	71.17
1909.752	67.5
1914	71.5
1918.245	76.17
1922.485	77.17
1926.722	75.83
1930.954	78.5
1935.183	84.83
1939.408	83.83
1943.628	83.83
1947.845	86.5
1952.058	89.5
1956.267	82.17
1960.472	86.17
1964.673	79.5
1968.87	87.5
1973.063	76.83
1977.252	84.17
1981.438	81.17
1985.619	84.5
1989.797	81.5
1993.971	86.17
1998.14	78.17
2002.306	80.17
2006.469	82.83
2010.627	87.83
2014.781	85.17
2018.932	81.83
2023.078	82.5
2027.221	84.83
2031.36	89.83
2035.495	92.83
2039.627	89.5
2043.754	88.5
2047.878	97.5
2051.998	100.83
2056.114	99.17
2060.226	99.5
2064.334	100.5
2068.439	99.83
2072.54	102.5
2076.637	107.83
2080.73	106.17
2084.82	109.83
2088.906	107.5
2092.988	106.83
2097.066	107.83
2101.14	104.5
2105.211	106.83
2109.278	102.83
2113.342	103.5
2117.401	101.17
2121.457	102.5
2125.509	98.17
2129.558	96.83
2133.602	97.83
2137.643	98.5
2141.681	94.17
2145.714	93.5
2149.744	89.17
2153.77	86.83
2157.793	72.5
2161.812	75.83
2165.827	72.83
2169.838	65.5
2173.846	64.83
2177.851	60.83
2181.851	53.5
2185.848	55.83
2189.841	42.5
2193.831	51.83
2197.817	44.83
2201.799	45.5
2205.778	39.5
2209.753	40.5
2213.725	40.83
2217.693	37.17
2221.657	39.5
2225.618	36.5
2229.575	34.17
2233.529	27.83
2237.479	22.83
2241.425	26.83
2245.368	21.17
2249.307	16.5
2253.243	14.83
2257.175	9.17
2261.104	3.83
2265.029	2.5
2268.95	2.5
2272.868	-4.17
2276.783	-7.5
2280.694	-4.5
2284.601	-10.17
2288.505	-11.5
2292.405	-11.83
2296.302	-13.17
2300.195	-14.83
2304.085	-14.5
2307.971	-14.17
2311.854	-16.5
2315.734	-20.17
2319.609	-22.17
2323.482	-26.17
2327.351	-26.5
2331.216	-20.83
2335.078	-20.17
2338.937	-28.83
2342.792	-32.83
2346.643	-30.83
2350.492	-36.5
2354.336	-39.17
2358.178	-41.5
2362.015	-35.17
2365.85	-37.83
2369.681	-37.5
2373.508	-35.5
2377.333	-37.83
2381.153	-36.17
2384.971	-35.17
2388.785	-37.17
2392.595	-37.83
2396.402	-41.83
2400.206	-39.17
2404.007	-41.5
2407.804	-41.83
2411.597	-46.17
2415.388	-45.5
2419.174	-46.83
2422.958	-49.83
2426.738	-48.83
2430.515	-51.17
2434.289	-48.5
2438.059	-53.83
2441.825	-49.17
2445.589	-50.83
2449.349	-51.5
2453.106	-54.17
2456.859	-51.83
2460.61	-56.83
2464.356	-52.83
2468.1	-55.5
2471.84	-49.17
2475.577	-52.17
2479.311	-52.17
2483.041	-55.5
2486.768	-54.5
2490.492	-54.83
2494.213	-54.17
2497.93	-59.17
2501.644	-62.17
2505.355	-56.83
2509.062	-57.17
2512.766	-59.17
2516.467	-58.83
2520.165	-62.5
2523.859	-59.83
2527.551	-59.17
2531.239	-60.5
2534.923	-63.5
2538.605	-58.83
2542.283	-60.5
2545.958	-58.5
2549.63	-56.17
2553.299	-58.5
2556.964	-59.83
2560.626	-58.17
2564.285	-58.83
2567.941	-63.17
2571.594	-57.17
2575.243	-61.17
2578.89	-60.17
2582.533	-63.17
2586.173	-66.5
2589.809	-65.5
2593.443	-67.5
2597.073	-64.83
2600.701	-64.17
2604.325	-65.83
2607.946	-67.5
2611.564	-66.83
2615.178	-67.17
2618.79	-62.17
2622.398	-63.83
2626.004	-62.83
2629.606	-65.5
2633.205	-64.83
2636.801	-63.83
2640.394	-62.17
2643.983	-63.17
2647.57	-62.83
2651.153	-66.17
2654.734	-60.17
2658.311	-67.5
2661.885	-68.83
2665.456	-70.83
2669.025	-66.5
2672.589	-69.17
2676.151	-68.17
2679.71	-67.5
2683.266	-64.83
2686.819	-70.17
2690.368	-63.83
2693.915	-65.5
2697.458	-63.5
2700.999	-62.17
2704.536	-59.83
2708.071	-58.83
2711.602	-63.83
2715.13	-62.5
2718.656	-64.83
2722.178	-59.83
2725.697	-57.5
2729.214	-60.5
2732.727	-59.83
2736.237	-59.5
2739.744	-61.17
2743.249	-59.17
2746.75	-62.5
2750.248	-59.17
2753.743	-57.83
2757.236	-55.17
2760.725	-54.17
2764.211	-52.83
2767.695	-46.83
2771.175	-52.83
2774.652	-50.5
2778.127	-46.5
2781.598	-42.17
2785.067	-43.17
2788.532	-46.83
2791.995	-39.17
2795.455	-43.83
2798.911	-41.83
2802.365	-44.83
2805.816	-40.17
2809.264	-38.5
2812.709	-40.17
2816.151	-36.83
2819.59	-34.83
2823.026	-29.5
2826.46	-28.5
2829.89	-25.83
2833.318	-22.17
2836.742	-17.5
2840.164	-16.17
2843.583	-18.17
2846.999	-14.17
2850.412	-13.17
2853.822	-11.5
2857.229	-6.17
2860.634	-2.17
2864.035	-1.83
2867.434	4.5
2870.83	4.83
2874.223	10.5
2877.613	19.83
2881	17.17
2884.385	20.17
2887.766	24.5
2891.145	24.83
2894.521	28.5
2897.894	31.83
2901.264	27.83
2904.631	32.5
2907.996	39.83
2911.358	44.83
2914.717	52.17
2918.073	50.83
2921.426	54.5
2924.777	58.83
2928.124	58.5
2931.469	68.83
2934.811	75.17
2938.15	81.83
2941.487	86.17
2944.821	84.83
2948.152	88.17
2951.48	96.5
2954.805	102.83
2958.128	106.17
2961.447	109.5
2964.765	116.83
2968.079	124.83
2971.39	140.17
2974.699	135.5
2978.005	147.5
2981.308	161.17
2984.609	160.83
2987.907	173.5
2991.202	185.17
2994.494	185.83
2997.784	200.83
3001.07	202.5
3004.355	209.5
3007.636	218.83
3010.915	226.83
3014.191	241.5
3017.464	246.83
3020.734	252.5
3024.002	255.5
3027.267	266.83
3030.53	272.17
3033.789	284.17
3037.046	297.5
3040.301	301.5
3043.552	317.17
3046.801	330.83
3050.048	337.17
3053.291	366.5
3056.532	375.83
3059.771	388.17
3063.006	404.83
3066.239	426.17
3069.469	440.5
3072.697	458.83
3075.922	474.5
3079.144	495.83
3082.364	503.5
3085.581	520.17
3088.795	529.83
3092.007	550.5
3095.216	561.5
3098.423	587.83
3101.627	605.17
3104.828	634.5
3108.026	639.83
3111.222	667.5
3114.416	674.83
3117.607	704.5
3120.795	717.83
3123.98	739.5
3127.163	771.17
3130.344	787.17
3133.521	815.5
3136.696	831.17
3139.869	861.5
3143.039	865.83
3146.206	878.17
3149.371	890.17
3152.533	897.5
3155.693	916.5
3158.85	919.17
3162.005	926.5
3165.157	933.5
3168.306	944.83
3171.453	941.5
3174.597	956.17
3177.739	972.17
3180.878	968.83
3184.014	967.17
3187.149	978.83
3190.28	984.83
3193.409	984.83
3196.536	995.5
3199.659	1000.17
3202.781	983.83
3205.9	993.17
3209.016	994.5
3212.13	991.17
3215.241	984.83
3218.35	994.5
3221.456	982.5
3224.56	983.17
3227.661	979.17
3230.76	965.83
3233.856	966.17
3236.95	952.5
3240.041	963.17
3243.13	945.17
3246.216	941.17
3249.3	960.5
3252.382	936.5
3255.46	948.83
3258.537	936.17
3261.611	929.5
3264.682	929.83
3267.751	932.83
3270.818	929.83
3273.882	925.83
3276.943	904.83
3280.002	906.17
3283.059	889.5
3286.113	893.5
3289.165	875.5
3292.214	868.5
3295.261	848.83
3298.306	835.83
3301.348	831.5
3304.387	819.83
3307.425	790.83
3310.459	792.83
3313.492	790.83
3316.521	790.83
3319.549	767.5
3322.574	764.5
3325.597	754.5
3328.617	751.17
3331.635	742.83
3334.65	744.17
3337.663	736.5
3340.674	735.17
3343.682	730.17
3346.688	747.5
3349.691	735.17
3352.692	728.17
3355.691	738.5
3358.687	716.83
3361.681	709.17
3364.673	711.83
3367.662	693.17
3370.649	702.17
3373.633	700.5
3376.615	660.5
3379.595	671.17
3382.572	668.17
3385.547	653.83
3388.52	643.5
3391.49	620.83
3394.458	618.5
3397.424	627.5
3400.387	616.5
3403.348	612.17
3406.307	600.83
3409.263	591.83
3412.217	585.17
3415.168	576.17
3418.118	587.5
3421.065	577.17
3424.009	560.83
3426.951	563.83
3429.891	553.17
3432.829	550.17
3435.764	523.5
3438.697	523.17
3441.628	512.17
3444.557	489.17
3447.483	477.83
3450.407	466.83
3453.328	455.83
3456.247	442.17
3459.164	429.17
3462.079	422.83
3464.991	404.83
3467.902	400.17
3470.809	386.83
3473.715	367.83
3476.618	353.83
3479.519	350.17
3482.418	343.17
3485.315	331.83
3488.209	324.17
3491.101	311.5
3493.99	297.5
3496.878	306.5
3499.763	289.17
3502.646	283.83
3505.527	268.5
3508.405	260.5
3511.281	251.5
3514.155	239.5
3517.027	226.17
3519.897	208.83
3522.764	207.17
3525.629	191.5
3528.492	185.83
3531.352	170.17
3534.211	160.17
3537.067	152.5
3539.921	144.17
3542.773	141.17
3545.622	121.17
3548.469	119.5
3551.315	111.17
3554.157	105.17
3556.998	97.17
3559.837	87.17
3562.673	83.83
3565.507	76.5
3568.339	73.5
3571.169	70.83
3573.996	61.83
3576.822	57.5
3579.645	50.83
3582.466	44.5
3585.285	35.5
3588.101	36.17
3590.916	29.5
3593.728	26.17
3596.538	16.83
3599.346	19.17
3602.152	6.83
3604.956	9.5
3607.757	8.83
3610.556	1.5
3613.354	-4.5
3616.149	-9.83
3618.942	-13.17
3621.732	-12.17
3624.521	-17.17
3627.307	-21.5
3630.092	-29.83
3632.874	-31.17
3635.654	-32.83
3638.432	-35.83
3641.208	-36.5
3643.982	-40.83
3646.753	-40.83
3649.523	-44.17
3652.29	-43.17
3655.055	-51.5
3657.818	-52.17
3660.579	-54.83
3663.338	-52.17
3666.095	-59.83
3668.849	-59.17
3671.602	-59.83
3674.352	-59.83
3677.101	-65.17
3679.847	-68.17
3682.591	-66.17
3685.333	-72.5
3688.073	-69.83
3690.811	-76.17
3693.547	-76.17
3696.281	-81.5
3699.013	-83.5
3701.742	-79.83
3704.47	-81.83
3707.195	-82.17
3709.919	-85.17
3712.64	-82.17
3715.359	-83.5
3718.076	-83.5
3720.792	-87.83
3723.505	-89.5
3726.216	-88.5
3728.925	-88.17
3731.632	-92.17
3734.336	-90.5
3737.039	-92.5
3739.74	-89.17
3742.439	-92.83
3745.136	-94.17
3747.83	-97.17
3750.523	-95.5
3753.213	-98.17
3755.902	-99.83
3758.589	-95.17
3761.273	-100.5
3763.956	-98.17
3766.636	-96.17
3769.315	-94.17
3771.991	-97.83
3774.665	-99.83
3777.338	-96.5
3780.008	-95.83
3782.677	-96.83
3785.343	-96.83
3788.007	-95.17
3790.67	-98.17
3793.33	-99.5
3795.989	-100.5
3798.645	-100.5
3801.299	-99.5
3803.952	-101.17
3806.602	-103.83
3809.251	-102.83
3811.897	-102.5
3814.542	-102.5
3817.184	-105.83
3819.825	-101.5
3822.463	-101.83
3825.1	-103.5
3827.735	-101.83
3830.367	-102.17
3832.998	-99.83
3835.627	-101.17
3838.253	-100.83
3840.878	-100.83
3843.501	-101.17
3846.122	-102.83
3848.741	-99.5
3851.358	-104.17
3853.973	-103.5
3856.586	-103.83
3859.197	-104.5
3861.806	-103.5
3864.414	-104.83
3867.019	-104.5
3869.622	-102.5
3872.224	-100.5
3874.823	-100.5
3877.421	-98.83
3880.016	-92.83
3882.61	-83.5
3885.202	-79.83
3887.792	-89.5
3890.38	-96.17
3892.966	-96.17
3895.55	-103.5
3898.132	-103.17
3900.713	-107.5
3903.291	-103.83
3905.868	-102.5
3908.442	-104.17
3911.015	-107.5
3913.586	-107.5
3916.155	-106.83
3918.722	-108.5
3921.287	-104.83
3923.85	-109.83
3926.411	-105.83
3928.971	-103.17
3931.528	-105.17
3934.084	-104.5
3936.638	-106.83
3939.19	-106.5
3941.74	-105.5
3944.288	-102.17
3946.834	-107.5
3949.378	-106.5
3951.921	-104.83
3954.462	-105.5
3957	-102.5
3959.537	-102.5
3962.072	-105.5
3964.606	-105.5
3967.137	-107.5
3969.667	-105.17
3972.194	-107.5
3974.72	-106.5
3977.244	-105.83
3979.766	-106.83
3982.286	-104.17
3984.805	-104.5
3987.321	-102.17
3989.836	-102.5
3992.349	-103.5
3994.86	-105.5
3997.369	-104.17
3999.877	-102.17
4002.382	-104.17
4004.886	-101.17
4007.388	-99.83
4009.888	-102.5
4012.386	-101.83
4014.883	-104.83
4017.377	-107.17
4019.87	-107.5
4022.361	-106.5
4024.85	-104.17
4027.338	-106.5
4029.823	-109.83
4032.307	-106.5
4034.789	-105.5
4037.269	-104.5
4039.747	-104.5
4042.224	-105.83
4044.699	-105.83
4047.172	-104.83
4049.643	-105.17
4052.112	-104.5
4054.58	-102.5
4057.046	-100.5
4059.51	-106.17
4061.972	-106.5
4064.432	-106.83
4066.891	-106.17
4069.348	-106.5
4071.803	-105.5
4074.256	-105.83
4076.708	-108.17
4079.158	-108.5
4081.606	-107.83
4084.052	-103.5
4086.497	-106.17
4088.939	-103.17
4091.38	-106.17
4093.819	-106.17
4096.257	-110.17
4098.693	-109.17
4101.127	-108.83
4103.559	-109.17
4105.989	-68.83
4108.418	-64.83
4110.845	-63.83
4113.27	-58.83
4115.694	-52.17
4118.115	-43.5
4120.535	-103.83
4122.954	-103.5
4125.37	-101.5
4127.785	-103.83
4130.198	-104.83
4132.609	-101.5
4135.019	-109.83
4137.427	-111.17
4139.833	-109.5
4142.237	-110.83
