Data from Saline_1 (I=1 T=5x1 V=3ml)_RamanShift_1.txt Node
Date: Mon Jun 05 13:56:17 IDT 2017
User: aro
Spectrometer: QEPB0276
Trigger mode: 0
Integration Time (sec): 5.000000E0
Scans to average: 1
Electric dark correction enabled: true
Nonlinearity correction enabled: false
Boxcar width: 0
XAxis mode: Raman Shifts
Number of Pixels in Spectrum: 1044
>>>>>Begin Spectral Data<<<<<
160.701	-29.62
166.742	8.04
172.777	92.04
178.805	375.38
184.826	1081.71
190.841	2241.71
196.849	3584.04
202.85	4460.04
208.845	4686.38
214.833	4512.38
220.815	4319.04
226.789	4137.04
232.758	3999.38
238.719	3894.71
244.674	3702.71
250.623	3518.38
256.565	3356.71
262.5	3145.38
268.429	3002.04
274.351	2847.04
280.267	2713.04
286.176	2625.71
292.079	2515.71
297.975	2430.04
303.865	2316.71
309.748	2281.38
315.625	2219.04
321.495	2186.04
327.359	2153.38
333.217	2118.04
339.068	2103.38
344.912	2090.71
350.751	2092.04
356.583	2075.04
362.408	2087.04
368.227	2085.38
374.04	2095.04
379.847	2147.71
385.647	2123.71
391.44	2156.04
397.228	2120.38
403.009	2148.04
408.784	2182.04
414.553	2226.04
420.315	2310.71
426.071	2320.04
431.821	2219.71
437.565	2158.04
443.302	2125.04
449.033	2098.38
454.758	2099.71
460.477	2074.04
466.189	2055.38
471.896	2042.38
477.596	2029.04
483.29	2009.71
488.978	1989.04
494.66	1975.04
500.335	1957.04
506.005	1900.71
511.668	1864.71
517.325	1805.38
522.977	1777.04
528.622	1767.71
534.261	1732.04
539.894	1708.38
545.521	1694.38
551.141	1673.38
556.756	1634.38
562.365	1647.04
567.968	1614.04
573.565	1616.38
579.155	1588.71
584.74	1565.04
590.319	1550.04
595.892	1541.71
601.459	1506.71
607.02	1501.04
612.575	1493.04
618.124	1480.04
623.667	1443.38
629.204	1440.38
634.735	1418.04
640.261	1414.71
645.781	1446.04
651.294	1427.38
656.802	1409.38
662.304	1360.38
667.8	1342.38
673.29	1325.71
678.775	1309.38
684.254	1276.38
689.726	1285.38
695.193	1264.71
700.655	1257.71
706.11	1231.04
711.56	1226.71
717.004	1217.04
722.442	1194.04
727.874	1192.71
733.301	1179.38
738.722	1152.04
744.137	1159.38
749.547	1160.71
754.951	1156.71
760.349	1122.04
765.741	1110.04
771.128	1101.04
776.509	1102.71
781.885	1095.71
787.254	1098.04
792.618	1069.38
797.977	1058.04
803.33	1041.71
808.677	1033.71
814.019	1011.04
819.355	999.71
824.686	971.38
830.011	962.38
835.33	946.04
840.644	938.04
845.952	922.04
851.255	915.04
856.552	913.04
861.844	896.04
867.13	878.38
872.41	870.38
877.686	862.04
882.955	843.38
888.219	809.04
893.478	791.38
898.731	775.04
903.979	743.38
909.221	740.71
914.458	715.04
919.69	713.71
924.916	709.04
930.136	695.38
935.351	706.38
940.561	689.71
945.766	682.71
950.965	674.04
956.158	657.71
961.347	653.38
966.529	643.71
971.707	614.04
976.879	600.71
982.046	593.04
987.208	597.71
992.364	590.38
997.515	587.71
1002.66	592.04
1007.801	596.38
1012.936	594.04
1018.066	599.71
1023.19	591.04
1028.309	598.04
1033.423	584.04
1038.532	577.04
1043.636	583.38
1048.734	571.38
1053.827	559.38
1058.915	557.38
1063.998	550.04
1069.075	548.71
1074.147	548.04
1079.214	557.04
1084.276	548.38
1089.333	559.71
1094.385	552.38
1099.431	557.38
1104.472	546.38
1109.509	542.04
1114.54	523.38
1119.565	528.04
1124.586	521.71
1129.602	509.38
1134.613	498.71
1139.618	494.38
1144.619	501.38
1149.614	493.71
1154.604	501.38
1159.589	501.04
1164.57	502.04
1169.545	499.04
1174.515	509.71
1179.48	497.71
1184.44	496.71
1189.395	484.38
1194.345	491.04
1199.29	486.04
1204.23	477.71
1209.165	486.04
1214.095	483.71
1219.021	491.04
1223.941	492.71
1228.856	491.04
1233.766	493.38
1238.672	494.04
1243.572	495.04
1248.467	483.04
1253.358	476.71
1258.244	461.71
1263.124	454.71
1268	447.38
1272.871	429.38
1277.737	448.04
1282.599	435.71
1287.455	442.71
1292.306	434.71
1297.153	436.71
1301.995	437.71
1306.832	439.38
1311.664	430.71
1316.491	437.71
1321.314	432.71
1326.132	423.38
1330.945	416.71
1335.753	408.38
1340.556	405.71
1345.354	388.71
1350.148	388.04
1354.937	391.38
1359.722	377.71
1364.501	379.71
1369.276	381.71
1374.046	372.71
1378.811	383.71
1383.572	374.04
1388.327	381.71
1393.079	379.38
1397.825	360.71
1402.567	359.38
1407.304	346.04
1412.036	341.04
1416.764	349.04
1421.487	344.04
1426.205	346.38
1430.919	347.04
1435.628	359.71
1440.333	352.04
1445.032	351.38
1449.727	358.71
1454.418	350.71
1459.104	373.04
1463.785	359.38
1468.462	356.71
1473.134	342.04
1477.802	343.71
1482.465	343.38
1487.123	335.04
1491.777	341.04
1496.426	348.71
1501.071	361.38
1505.711	368.38
1510.347	373.71
1514.978	380.38
1519.604	386.04
1524.226	403.38
1528.844	397.71
1533.457	399.04
1538.065	403.71
1542.669	408.71
1547.269	405.04
1551.864	420.04
1556.454	418.38
1561.041	428.38
1565.622	444.04
1570.199	460.04
1574.772	463.71
1579.34	490.04
1583.904	505.38
1588.464	521.38
1593.019	544.04
1597.569	560.04
1602.115	584.38
1606.657	598.71
1611.195	611.38
1615.728	647.38
1620.256	662.71
1624.78	680.71
1629.3	694.04
1633.816	730.38
1638.327	732.04
1642.834	747.71
1647.336	759.04
1651.834	757.71
1656.328	758.04
1660.817	739.38
1665.302	714.04
1669.783	682.71
1674.259	651.04
1678.732	615.38
1683.199	574.38
1687.663	535.71
1692.122	497.38
1696.577	467.71
1701.028	438.38
1705.474	419.38
1709.917	391.04
1714.355	363.38
1718.788	338.71
1723.218	315.04
1727.643	289.04
1732.064	270.04
1736.481	256.71
1740.893	233.38
1745.301	211.71
1749.705	195.71
1754.105	185.71
1758.501	167.38
1762.893	160.71
1767.28	148.38
1771.663	139.38
1776.042	133.71
1780.417	131.04
1784.787	132.38
1789.154	130.38
1793.516	122.04
1797.874	119.71
1802.228	116.71
1806.578	109.04
1810.924	113.38
1815.266	110.71
1819.603	101.71
1823.937	98.04
1828.266	92.38
1832.591	93.04
1836.913	81.04
1841.23	84.71
1845.543	81.38
1849.852	78.04
1854.156	77.04
1858.457	71.04
1862.754	85.04
1867.047	79.38
1871.335	78.71
1875.62	77.71
1879.9	75.04
1884.177	88.38
1888.449	77.04
1892.718	76.71
1896.982	74.38
1901.243	80.71
1905.499	82.04
1909.752	81.38
1914	80.38
1918.245	86.04
1922.485	89.04
1926.722	86.71
1930.954	100.38
1935.183	98.71
1939.408	96.71
1943.628	95.71
1947.845	102.38
1952.058	90.38
1956.267	92.04
1960.472	98.04
1964.673	90.38
1968.87	91.38
1973.063	83.71
1977.252	90.04
1981.438	87.04
1985.619	83.38
1989.797	90.38
1993.971	95.04
1998.14	90.04
2002.306	94.04
2006.469	98.71
2010.627	96.71
2014.781	94.04
2018.932	96.71
2023.078	100.38
2027.221	102.71
2031.36	99.71
2035.495	99.71
2039.627	93.38
2043.754	96.38
2047.878	98.38
2051.998	97.71
2056.114	103.04
2060.226	108.38
2064.334	104.38
2068.439	110.71
2072.54	110.38
2076.637	111.71
2080.73	116.04
2084.82	118.71
2088.906	122.38
2092.988	112.71
2097.066	122.71
2101.14	122.38
2105.211	113.71
2109.278	113.71
2113.342	108.38
2117.401	110.04
2121.457	102.38
2125.509	110.04
2129.558	104.71
2133.602	96.71
2137.643	97.38
2141.681	90.04
2145.714	96.38
2149.744	92.04
2153.77	86.71
2157.793	87.38
2161.812	90.71
2165.827	79.71
2169.838	78.38
2173.846	78.71
2177.851	68.71
2181.851	65.38
2185.848	58.71
2189.841	58.38
2193.831	53.71
2197.817	51.71
2201.799	47.38
2205.778	47.38
2209.753	40.38
2213.725	40.71
2217.693	42.04
2221.657	41.38
2225.618	37.38
2229.575	35.04
2233.529	36.71
2237.479	27.71
2241.425	23.71
2245.368	26.04
2249.307	18.38
2253.243	21.71
2257.175	11.04
2261.104	15.71
2265.029	10.38
2268.95	6.38
2272.868	4.71
2276.783	1.38
2280.694	1.38
2284.601	0.71
2288.505	-6.62
2292.405	-2.96
2296.302	-9.29
2300.195	-11.96
2304.085	-13.62
2307.971	-17.29
2311.854	-14.62
2315.734	-20.29
2319.609	-20.29
2323.482	-30.29
2327.351	-26.62
2331.216	-20.96
2335.078	-27.29
2338.937	-23.96
2342.792	-29.96
2346.643	-32.96
2350.492	-33.62
2354.336	-32.29
2358.178	-33.62
2362.015	-31.29
2365.85	-30.96
2369.681	-37.62
2373.508	-35.62
2377.333	-32.96
2381.153	-35.29
2384.971	-37.29
2388.785	-33.29
2392.595	-36.96
2396.402	-42.96
2400.206	-41.29
2404.007	-44.62
2407.804	-44.96
2411.597	-42.29
2415.388	-48.62
2419.174	-45.96
2422.958	-46.96
2426.738	-43.96
2430.515	-48.29
2434.289	-41.62
2438.059	-47.96
2441.825	-47.29
2445.589	-48.96
2449.349	-45.62
2453.106	-51.29
2456.859	-47.96
2460.61	-51.96
2464.356	-50.96
2468.1	-48.62
2471.84	-51.29
2475.577	-56.29
2479.311	-57.29
2483.041	-53.62
2486.768	-56.62
2490.492	-48.96
2494.213	-51.29
2497.93	-54.29
2501.644	-53.29
2505.355	-58.96
2509.062	-55.29
2512.766	-58.29
2516.467	-56.96
2520.165	-57.62
2523.859	-55.96
2527.551	-55.29
2531.239	-52.62
2534.923	-59.62
2538.605	-58.96
2542.283	-58.62
2545.958	-52.62
2549.63	-59.29
2553.299	-63.62
2556.964	-59.96
2560.626	-61.29
2564.285	-60.96
2567.941	-59.29
2571.594	-60.29
2575.243	-60.29
2578.89	-60.29
2582.533	-56.29
2586.173	-62.62
2589.809	-59.62
2593.443	-62.62
2597.073	-58.96
2600.701	-61.29
2604.325	-62.96
2607.946	-58.62
2611.564	-65.96
2615.178	-63.29
2618.79	-59.29
2622.398	-63.96
2626.004	-60.96
2629.606	-64.62
2633.205	-62.96
2636.801	-65.96
2640.394	-60.29
2643.983	-67.29
2647.57	-63.96
2651.153	-65.29
2654.734	-64.29
2658.311	-62.62
2661.885	-62.96
2665.456	-64.96
2669.025	-64.62
2672.589	-62.29
2676.151	-61.29
2679.71	-60.62
2683.266	-58.96
2686.819	-63.29
2690.368	-57.96
2693.915	-63.62
2697.458	-61.62
2700.999	-64.29
2704.536	-61.96
2708.071	-61.96
2711.602	-65.96
2715.13	-65.62
2718.656	-63.96
2722.178	-64.96
2725.697	-62.62
2729.214	-58.62
2732.727	-53.96
2736.237	-52.62
2739.744	-57.29
2743.249	-58.29
2746.75	-56.62
2750.248	-56.29
2753.743	-51.96
2757.236	-53.29
2760.725	-46.29
2764.211	-49.96
2767.695	-48.96
2771.175	-51.96
2774.652	-51.62
2778.127	-50.62
2781.598	-50.29
2785.067	-46.29
2788.532	-41.96
2791.995	-43.29
2795.455	-44.96
2798.911	-40.96
2802.365	-41.96
2805.816	-37.29
2809.264	-31.62
2812.709	-34.29
2816.151	-28.96
2819.59	-30.96
2823.026	-24.62
2826.46	-28.62
2829.89	-22.96
2833.318	-23.29
2836.742	-19.62
2840.164	-22.29
2843.583	-19.29
2846.999	-13.29
2850.412	-13.29
2853.822	-7.62
2857.229	-4.29
2860.634	-4.29
2864.035	7.04
2867.434	6.38
2870.83	10.71
2874.223	9.38
2877.613	12.71
2881	20.04
2884.385	23.04
2887.766	25.38
2891.145	24.71
2894.521	27.38
2897.894	22.71
2901.264	33.71
2904.631	30.38
2907.996	38.71
2911.358	39.71
2914.717	48.04
2918.073	53.71
2921.426	48.38
2924.777	56.71
2928.124	64.38
2931.469	63.71
2934.811	76.04
2938.15	79.71
2941.487	87.04
2944.821	88.71
2948.152	94.04
2951.48	92.38
2954.805	94.71
2958.128	111.04
2961.447	114.38
2964.765	118.71
2968.079	130.71
2971.39	135.04
2974.699	148.38
2978.005	153.38
2981.308	155.04
2984.609	165.71
2987.907	171.38
2991.202	185.04
2994.494	198.71
2997.784	208.71
3001.07	220.38
3004.355	223.38
3007.636	231.71
3010.915	242.71
3014.191	248.38
3017.464	262.71
3020.734	264.38
3024.002	273.38
3027.267	289.71
3030.53	295.04
3033.789	298.04
3037.046	306.38
3040.301	319.38
3043.552	333.04
3046.801	346.71
3050.048	346.04
3053.291	370.38
3056.532	398.71
3059.771	401.04
3063.006	423.71
3066.239	444.04
3069.469	460.38
3072.697	479.71
3075.922	506.38
3079.144	513.71
3082.364	529.38
3085.581	551.04
3088.795	551.71
3092.007	583.38
3095.216	597.38
3098.423	613.71
3101.627	637.04
3104.828	645.38
3108.026	663.71
3111.222	677.38
3114.416	720.71
3117.607	724.38
3120.795	749.71
3123.98	768.38
3127.163	800.04
3130.344	801.04
3133.521	839.38
3136.696	858.04
3139.869	878.38
3143.039	899.71
3146.206	925.04
3149.371	927.04
3152.533	936.38
3155.693	956.38
3158.85	950.04
3162.005	961.38
3165.157	965.38
3168.306	973.71
3171.453	981.38
3174.597	985.04
3177.739	976.04
3180.878	1011.71
3184.014	1005.04
3187.149	1013.71
3190.28	1023.71
3193.409	1013.71
3196.536	1033.38
3199.659	1034.04
3202.781	1057.71
3205.9	1046.04
3209.016	1054.38
3212.13	1042.04
3215.241	1043.71
3218.35	1044.38
3221.456	1031.38
3224.56	1026.04
3227.661	1018.04
3230.76	1004.71
3233.856	1020.04
3236.95	988.38
3240.041	991.04
3243.13	983.04
3246.216	984.04
3249.3	977.38
3252.382	976.38
3255.46	962.71
3258.537	979.04
3261.611	970.38
3264.682	962.71
3267.751	964.71
3270.818	963.71
3273.882	952.71
3276.943	946.71
3280.002	945.04
3283.059	937.38
3286.113	922.38
3289.165	922.38
3292.214	914.38
3295.261	899.71
3298.306	860.71
3301.348	859.38
3304.387	839.71
3307.425	835.71
3310.459	823.71
3313.492	826.71
3316.521	802.71
3319.549	802.38
3322.574	790.38
3325.597	783.38
3328.617	773.04
3331.635	768.71
3334.65	781.04
3337.663	767.38
3340.674	766.04
3343.682	775.04
3346.688	755.38
3349.691	763.04
3352.692	768.04
3355.691	756.38
3358.687	740.71
3361.681	747.04
3364.673	731.71
3367.662	719.04
3370.649	713.04
3373.633	715.38
3376.615	706.38
3379.595	691.04
3382.572	686.04
3385.547	683.71
3388.52	670.38
3391.49	667.71
3394.458	651.38
3397.424	654.38
3400.387	644.38
3403.348	637.04
3406.307	621.71
3409.263	616.71
3412.217	628.04
3415.168	609.04
3418.118	609.38
3421.065	595.04
3424.009	577.71
3426.951	586.71
3429.891	558.04
3432.829	563.04
3435.764	552.38
3438.697	538.04
3441.628	534.04
3444.557	518.04
3447.483	497.71
3450.407	490.71
3453.328	471.71
3456.247	468.04
3459.164	444.04
3462.079	437.71
3464.991	432.71
3467.902	414.04
3470.809	401.71
3473.715	386.71
3476.618	376.71
3479.519	368.04
3482.418	348.04
3485.315	344.71
3488.209	338.04
3491.101	332.38
3493.99	323.38
3496.878	314.38
3499.763	299.04
3502.646	287.71
3505.527	274.38
3508.405	269.38
3511.281	257.38
3514.155	249.38
3517.027	236.04
3519.897	230.71
3522.764	215.04
3525.629	202.38
3528.492	192.71
3531.352	186.04
3534.211	172.04
3537.067	159.38
3539.921	152.04
3542.773	138.04
3545.622	128.04
3548.469	119.38
3551.315	112.04
3554.157	107.04
3556.998	101.04
3559.837	96.04
3562.673	85.71
3565.507	84.38
3568.339	79.38
3571.169	72.71
3573.996	63.71
3576.822	60.38
3579.645	49.71
3582.466	51.38
3585.285	43.38
3588.101	46.04
3590.916	33.38
3593.728	25.04
3596.538	28.71
3599.346	17.04
3602.152	10.71
3604.956	11.38
3607.757	3.71
3610.556	3.38
3613.354	-0.62
3616.149	-11.96
3618.942	-13.29
3621.732	-16.29
3624.521	-14.29
3627.307	-19.62
3630.092	-20.96
3632.874	-26.29
3635.654	-28.96
3638.432	-26.96
3641.208	-34.62
3643.982	-35.96
3646.753	-39.96
3649.523	-41.29
3652.29	-41.29
3655.055	-46.62
3657.818	-47.29
3660.579	-50.96
3663.338	-55.29
3666.095	-53.96
3668.849	-61.29
3671.602	-60.96
3674.352	-58.96
3677.101	-67.29
3679.847	-70.29
3682.591	-72.29
3685.333	-69.62
3688.073	-74.96
3690.811	-73.29
3693.547	-76.29
3696.281	-76.62
3699.013	-80.62
3701.742	-80.96
3704.47	-82.96
3707.195	-81.29
3709.919	-82.29
3712.64	-85.29
3715.359	-83.62
3718.076	-86.62
3720.792	-82.96
3723.505	-87.62
3726.216	-92.62
3728.925	-88.29
3731.632	-88.29
3734.336	-90.62
3737.039	-87.62
3739.74	-95.29
3742.439	-92.96
3745.136	-97.29
3747.83	-96.29
3750.523	-92.62
3753.213	-97.29
3755.902	-95.96
3758.589	-95.29
3761.273	-96.62
3763.956	-96.29
3766.636	-95.29
3769.315	-94.29
3771.991	-94.96
3774.665	-97.96
3777.338	-95.62
3780.008	-94.96
3782.677	-98.96
3785.343	-92.96
3788.007	-98.29
3790.67	-103.29
3793.33	-100.62
3795.989	-98.62
3798.645	-100.62
3801.299	-101.62
3803.952	-99.29
3806.602	-101.96
3809.251	-100.96
3811.897	-102.62
3814.542	-102.62
3817.184	-102.96
3819.825	-100.62
3822.463	-100.96
3825.1	-98.62
3827.735	-101.96
3830.367	-101.29
3832.998	-101.96
3835.627	-101.29
3838.253	-101.96
3840.878	-104.96
3843.501	-104.29
3846.122	-103.96
3848.741	-103.62
3851.358	-106.29
3853.973	-104.62
3856.586	-102.96
3859.197	-104.62
3861.806	-105.62
3864.414	-103.96
3867.019	-106.62
3869.622	-102.62
3872.224	-99.62
3874.823	-100.62
3877.421	-94.96
3880.016	-89.96
3882.61	-82.62
3885.202	-80.96
3887.792	-87.62
3890.38	-94.29
3892.966	-101.29
3895.55	-101.62
3898.132	-106.29
3900.713	-105.62
3903.291	-107.96
3905.868	-106.62
3908.442	-106.29
3911.015	-104.62
3913.586	-105.62
3916.155	-107.96
3918.722	-106.62
3921.287	-104.96
3923.85	-108.96
3926.411	-104.96
3928.971	-103.29
3931.528	-105.29
3934.084	-103.62
3936.638	-104.96
3939.19	-106.62
3941.74	-105.62
3944.288	-107.29
3946.834	-105.62
3949.378	-105.62
3951.921	-105.96
3954.462	-105.62
3957	-103.62
3959.537	-107.62
3962.072	-108.62
3964.606	-111.62
3967.137	-108.62
3969.667	-108.29
3972.194	-109.62
3974.72	-105.62
3977.244	-103.96
3979.766	-103.96
3982.286	-101.29
3984.805	-99.62
3987.321	-101.29
3989.836	-102.62
3992.349	-101.62
3994.86	-102.62
3997.369	-105.29
3999.877	-106.29
4002.382	-105.29
4004.886	-103.29
4007.388	-104.96
4009.888	-106.62
4012.386	-105.96
4014.883	-104.96
4017.377	-104.29
4019.87	-105.62
4022.361	-103.62
4024.85	-103.29
4027.338	-104.62
4029.823	-105.96
4032.307	-101.62
4034.789	-104.62
4037.269	-102.62
4039.747	-104.62
4042.224	-103.96
4044.699	-102.96
4047.172	-103.96
4049.643	-105.29
4052.112	-105.62
4054.58	-108.62
4057.046	-107.62
4059.51	-107.29
4061.972	-107.62
4064.432	-107.96
4066.891	-107.29
4069.348	-104.62
4071.803	-106.62
4074.256	-105.96
4076.708	-105.29
4079.158	-104.62
4081.606	-102.96
4084.052	-103.62
4086.497	-107.29
4088.939	-102.29
4091.38	-105.29
4093.819	-106.29
4096.257	-108.29
4098.693	-108.29
4101.127	-109.96
4103.559	-110.29
4105.989	-62.96
4108.418	-62.96
4110.845	-59.96
4113.27	-56.96
4115.694	-48.29
4118.115	-43.62
4120.535	-100.96
4122.954	-103.62
4125.37	-101.62
4127.785	-104.96
4130.198	-103.96
4132.609	-102.62
4135.019	-109.96
4137.427	-112.29
4139.833	-109.62
4142.237	-113.96
