Data from Saline_log8 (I=1 T=5x1 V=3ml)_RamanShift_7.txt Node
Date: Mon Jun 05 14:37:20 IDT 2017
User: aro
Spectrometer: QEPB0276
Trigger mode: 0
Integration Time (sec): 5.000000E0
Scans to average: 1
Electric dark correction enabled: true
Nonlinearity correction enabled: false
Boxcar width: 0
XAxis mode: Raman Shifts
Number of Pixels in Spectrum: 1044
>>>>>Begin Spectral Data<<<<<
160.701	-1.12
166.742	4.54
172.777	22.54
178.805	96.88
184.826	268.21
190.841	551.21
196.849	865.54
202.85	1075.54
208.845	1123.88
214.833	1097.88
220.815	1057.54
226.789	1027.54
232.758	990.88
238.719	967.21
244.674	948.21
250.623	901.88
256.565	864.21
262.5	838.88
268.429	802.54
274.351	781.54
280.267	756.54
286.176	735.21
292.079	723.21
297.975	711.54
303.865	689.21
309.748	677.88
315.625	670.54
321.495	663.54
327.359	663.88
333.217	658.54
339.068	667.88
344.912	647.21
350.751	656.54
356.583	662.54
362.408	661.54
368.227	674.88
374.04	678.54
379.847	705.21
385.647	711.21
391.44	698.54
397.228	696.88
403.009	691.54
408.784	713.54
414.553	771.54
420.315	819.21
426.071	829.54
431.821	765.21
437.565	715.54
443.302	692.54
449.033	695.88
454.758	669.21
460.477	680.54
466.189	668.88
471.896	647.88
477.596	644.54
483.29	644.21
488.978	638.54
494.66	643.54
500.335	629.54
506.005	610.21
511.668	581.21
517.325	555.88
522.977	539.54
528.622	528.21
534.261	508.54
539.894	505.88
545.521	483.88
551.141	489.88
556.756	484.88
562.365	475.54
567.968	473.54
573.565	483.88
579.155	466.21
584.74	457.54
590.319	464.54
595.892	454.21
601.459	451.21
607.02	453.54
612.575	437.54
618.124	436.54
623.667	425.88
629.204	421.88
634.735	427.54
640.261	442.21
645.781	449.54
651.294	450.88
656.802	435.88
662.304	416.88
667.8	400.88
673.29	401.21
678.775	398.88
684.254	390.88
689.726	384.88
695.193	385.21
700.655	380.21
706.11	373.54
711.56	370.21
717.004	368.54
722.442	365.54
727.874	361.21
733.301	356.88
738.722	359.54
744.137	364.88
749.547	359.21
754.951	367.21
760.349	354.54
765.741	354.54
771.128	353.54
776.509	356.21
781.885	353.21
787.254	348.54
792.618	352.88
797.977	346.54
803.33	345.21
808.677	350.21
814.019	330.54
819.355	324.21
824.686	317.88
830.011	316.88
835.33	314.54
840.644	309.54
845.952	301.54
851.255	310.54
856.552	303.54
861.844	299.54
867.13	288.88
872.41	284.88
877.686	289.54
882.955	289.88
888.219	283.54
893.478	266.88
898.731	261.54
903.979	260.88
909.221	255.21
914.458	251.54
919.69	248.21
924.916	247.54
930.136	247.88
935.351	239.88
940.561	234.21
945.766	238.21
950.965	232.54
956.158	227.21
961.347	226.88
966.529	221.21
971.707	215.54
976.879	216.21
982.046	208.54
987.208	209.21
992.364	207.88
997.515	214.21
1002.66	212.54
1007.801	222.88
1012.936	222.54
1018.066	215.21
1023.19	216.54
1028.309	218.54
1033.423	211.54
1038.532	222.54
1043.636	219.88
1048.734	213.88
1053.827	219.88
1058.915	217.88
1063.998	205.54
1069.075	206.21
1074.147	205.54
1079.214	203.54
1084.276	205.88
1089.333	208.21
1094.385	211.88
1099.431	206.88
1104.472	205.88
1109.509	195.54
1114.54	191.88
1119.565	193.54
1124.586	188.21
1129.602	186.88
1134.613	190.21
1139.618	183.88
1144.619	184.88
1149.614	181.21
1154.604	188.88
1159.589	183.54
1164.57	186.54
1169.545	185.54
1174.515	191.21
1179.48	182.21
1184.44	183.21
1189.395	182.88
1194.345	177.54
1199.29	178.54
1204.23	178.21
1209.165	180.54
1214.095	180.21
1219.021	184.54
1223.941	181.21
1228.856	185.54
1233.766	181.88
1238.672	183.54
1243.572	184.54
1248.467	177.54
1253.358	175.21
1258.244	172.21
1263.124	174.21
1268	167.88
1272.871	163.88
1277.737	163.54
1282.599	162.21
1287.455	164.21
1292.306	164.21
1297.153	159.21
1301.995	164.21
1306.832	165.88
1311.664	159.21
1316.491	165.21
1321.314	162.21
1326.132	154.88
1330.945	160.21
1335.753	157.88
1340.556	145.21
1345.354	145.21
1350.148	142.54
1354.937	143.88
1359.722	142.21
1364.501	143.21
1369.276	148.21
1374.046	143.21
1378.811	143.21
1383.572	139.54
1388.327	144.21
1393.079	143.88
1397.825	138.21
1402.567	137.88
1407.304	132.54
1412.036	130.54
1416.764	127.54
1421.487	131.54
1426.205	132.88
1430.919	129.54
1435.628	134.21
1440.333	133.54
1445.032	141.88
1449.727	139.21
1454.418	137.21
1459.104	139.54
1463.785	135.88
1468.462	133.21
1473.134	125.54
1477.802	134.21
1482.465	128.88
1487.123	131.54
1491.777	124.54
1496.426	134.21
1501.071	132.88
1505.711	139.88
1510.347	138.21
1514.978	137.88
1519.604	149.54
1524.226	147.88
1528.844	148.21
1533.457	143.54
1538.065	148.21
1542.669	143.21
1547.269	143.54
1551.864	141.54
1556.454	146.88
1561.041	147.88
1565.622	147.54
1570.199	152.54
1574.772	155.21
1579.34	160.54
1583.904	159.88
1588.464	168.88
1593.019	170.54
1597.569	172.54
1602.115	178.88
1606.657	179.21
1611.195	192.88
1615.728	195.88
1620.256	196.21
1624.78	196.21
1629.3	215.54
1633.816	206.88
1638.327	221.54
1642.834	219.21
1647.336	222.54
1651.834	218.21
1656.328	223.54
1660.817	222.88
1665.302	208.54
1669.783	201.21
1674.259	197.54
1678.732	188.88
1683.199	179.88
1687.663	169.21
1692.122	159.88
1696.577	157.21
1701.028	143.88
1705.474	137.88
1709.917	136.54
1714.355	127.88
1718.788	119.21
1723.218	115.54
1727.643	105.54
1732.064	108.54
1736.481	95.21
1740.893	93.88
1745.301	83.21
1749.705	81.21
1754.105	80.21
1758.501	76.88
1762.893	73.21
1767.28	68.88
1771.663	69.88
1776.042	67.21
1780.417	69.54
1784.787	65.88
1789.154	64.88
1793.516	74.54
1797.874	63.21
1802.228	63.21
1806.578	63.54
1810.924	58.88
1815.266	57.21
1819.603	55.21
1823.937	54.54
1828.266	50.88
1832.591	52.54
1836.913	47.54
1841.23	48.21
1845.543	47.88
1849.852	48.54
1854.156	46.54
1858.457	46.54
1862.754	50.54
1867.047	49.88
1871.335	46.21
1875.62	52.21
1879.9	49.54
1884.177	47.88
1888.449	52.54
1892.718	46.21
1896.982	52.88
1901.243	46.21
1905.499	45.54
1909.752	51.88
1914	47.88
1918.245	48.54
1922.485	52.54
1926.722	57.21
1930.954	50.88
1935.183	56.21
1939.408	57.21
1943.628	51.21
1947.845	52.88
1952.058	53.88
1956.267	48.54
1960.472	50.54
1964.673	44.88
1968.87	45.88
1973.063	41.21
1977.252	49.54
1981.438	50.54
1985.619	48.88
1989.797	47.88
1993.971	49.54
1998.14	48.54
2002.306	43.54
2006.469	47.21
2010.627	49.21
2014.781	48.54
2018.932	52.21
2023.078	49.88
2027.221	49.21
2031.36	45.21
2035.495	41.21
2039.627	45.88
2043.754	48.88
2047.878	46.88
2051.998	46.21
2056.114	46.54
2060.226	45.88
2064.334	48.88
2068.439	47.21
2072.54	48.88
2076.637	51.21
2080.73	54.54
2084.82	54.21
2088.906	52.88
2092.988	51.21
2097.066	55.21
2101.14	49.88
2105.211	55.21
2109.278	49.21
2113.342	51.88
2117.401	47.54
2121.457	49.88
2125.509	49.54
2129.558	44.21
2133.602	45.21
2137.643	39.88
2141.681	43.54
2145.714	39.88
2149.744	37.54
2153.77	41.21
2157.793	38.88
2161.812	36.21
2165.827	38.21
2169.838	33.88
2173.846	38.21
2177.851	28.21
2181.851	28.88
2185.848	29.21
2189.841	32.88
2193.831	31.21
2197.817	32.21
2201.799	25.88
2205.778	26.88
2209.753	27.88
2213.725	26.21
2217.693	29.54
2221.657	25.88
2225.618	22.88
2229.575	23.54
2233.529	24.21
2237.479	23.21
2241.425	23.21
2245.368	17.54
2249.307	19.88
2253.243	18.21
2257.175	13.54
2261.104	12.21
2265.029	14.88
2268.95	14.88
2272.868	12.21
2276.783	11.88
2280.694	9.88
2284.601	14.21
2288.505	13.88
2292.405	9.54
2296.302	8.21
2300.195	9.54
2304.085	9.88
2307.971	8.21
2311.854	4.88
2315.734	4.21
2319.609	5.21
2323.482	0.21
2327.351	0.88
2331.216	2.54
2335.078	1.21
2338.937	-1.46
2342.792	2.54
2346.643	-2.46
2350.492	-1.12
2354.336	1.21
2358.178	-0.12
2362.015	3.21
2365.85	2.54
2369.681	-0.12
2373.508	2.88
2377.333	-0.46
2381.153	-1.79
2384.971	3.21
2388.785	5.21
2392.595	4.54
2396.402	0.54
2400.206	-0.79
2404.007	0.88
2407.804	-0.46
2411.597	-3.79
2415.388	-0.12
2419.174	-7.46
2422.958	-6.46
2426.738	-2.46
2430.515	-6.79
2434.289	-6.12
2438.059	-7.46
2441.825	-3.79
2445.589	-7.46
2449.349	-7.12
2453.106	-5.79
2456.859	-7.46
2460.61	-7.46
2464.356	-4.46
2468.1	-4.12
2471.84	-2.79
2475.577	-4.79
2479.311	-5.79
2483.041	-7.12
2486.768	-5.12
2490.492	-7.46
2494.213	-2.79
2497.93	-9.79
2501.644	-6.79
2505.355	-11.46
2509.062	-8.79
2512.766	-12.79
2516.467	-11.46
2520.165	-7.12
2523.859	-8.46
2527.551	-7.79
2531.239	-13.12
2534.923	-8.12
2538.605	-9.46
2542.283	-5.12
2545.958	-7.12
2549.63	-4.79
2553.299	-8.12
2556.964	-6.46
2560.626	-4.79
2564.285	-7.46
2567.941	-8.79
2571.594	-5.79
2575.243	-8.79
2578.89	-8.79
2582.533	-5.79
2586.173	-11.12
2589.809	-9.12
2593.443	-11.12
2597.073	-11.46
2600.701	-10.79
2604.325	-11.46
2607.946	-11.12
2611.564	-11.46
2615.178	-14.79
2618.79	-11.79
2622.398	-12.46
2626.004	-11.46
2629.606	-12.12
2633.205	-13.46
2636.801	-13.46
2640.394	-8.79
2643.983	-11.79
2647.57	-11.46
2651.153	-13.79
2654.734	-10.79
2658.311	-10.12
2661.885	-11.46
2665.456	-10.46
2669.025	-14.12
2672.589	-11.79
2676.151	-13.79
2679.71	-12.12
2683.266	-12.46
2686.819	-13.79
2690.368	-10.46
2693.915	-14.12
2697.458	-13.12
2700.999	-13.79
2704.536	-11.46
2708.071	-11.46
2711.602	-14.46
2715.13	-14.12
2718.656	-14.46
2722.178	-12.46
2725.697	-13.12
2729.214	-12.12
2732.727	-10.46
2736.237	-13.12
2739.744	-11.79
2743.249	-7.79
2746.75	-12.12
2750.248	-12.79
2753.743	-8.46
2757.236	-9.79
2760.725	-8.79
2764.211	-12.46
2767.695	-9.46
2771.175	-8.46
2774.652	-11.12
2778.127	-10.12
2781.598	-5.79
2785.067	-11.79
2788.532	-10.46
2791.995	-6.79
2795.455	-8.46
2798.911	-8.46
2802.365	-5.46
2805.816	-7.79
2809.264	-7.12
2812.709	-9.79
2816.151	-5.46
2819.59	-4.46
2823.026	-6.12
2826.46	-6.12
2829.89	-0.46
2833.318	2.21
2836.742	3.88
2840.164	2.21
2843.583	1.21
2846.999	3.21
2850.412	1.21
2853.822	2.88
2857.229	4.21
2860.634	3.21
2864.035	5.54
2867.434	6.88
2870.83	10.21
2874.223	4.88
2877.613	5.21
2881	6.54
2884.385	10.54
2887.766	5.88
2891.145	5.21
2894.521	8.88
2897.894	9.21
2901.264	8.21
2904.631	12.88
2907.996	13.21
2911.358	14.21
2914.717	20.54
2918.073	22.21
2921.426	20.88
2924.777	18.21
2928.124	19.88
2931.469	27.21
2934.811	30.54
2938.15	29.21
2941.487	30.54
2944.821	26.21
2948.152	27.54
2951.48	30.88
2954.805	31.21
2958.128	36.54
2961.447	34.88
2964.765	34.21
2968.079	38.21
2971.39	39.54
2974.699	42.88
2978.005	41.88
2981.308	44.54
2984.609	47.21
2987.907	49.88
2991.202	50.54
2994.494	53.21
2997.784	58.21
3001.07	59.88
3004.355	64.88
3007.636	67.21
3010.915	65.21
3014.191	69.88
3017.464	73.21
3020.734	72.88
3024.002	73.88
3027.267	78.21
3030.53	77.54
3033.789	84.54
3037.046	85.88
3040.301	88.88
3043.552	90.54
3046.801	97.21
3050.048	100.54
3053.291	100.88
3056.532	99.21
3059.771	109.54
3063.006	113.21
3066.239	117.54
3069.469	121.88
3072.697	129.21
3075.922	132.88
3079.144	141.21
3082.364	142.88
3085.581	139.54
3088.795	152.21
3092.007	154.88
3095.216	162.88
3098.423	165.21
3101.627	170.54
3104.828	178.88
3108.026	182.21
3111.222	188.88
3114.416	192.21
3117.607	200.88
3120.795	204.21
3123.98	207.88
3127.163	213.54
3130.344	227.54
3133.521	225.88
3136.696	231.54
3139.869	234.88
3143.039	241.21
3146.206	244.54
3149.371	246.54
3152.533	252.88
3155.693	255.88
3158.85	255.54
3162.005	256.88
3165.157	264.88
3168.306	256.21
3171.453	259.88
3174.597	268.54
3177.739	272.54
3180.878	273.21
3184.014	273.54
3187.149	277.21
3190.28	279.21
3193.409	277.21
3196.536	274.88
3199.659	276.54
3202.781	284.21
3205.9	288.54
3209.016	282.88
3212.13	279.54
3215.241	282.21
3218.35	286.88
3221.456	273.88
3224.56	270.54
3227.661	279.54
3230.76	271.21
3233.856	262.54
3236.95	267.88
3240.041	263.54
3243.13	259.54
3246.216	256.54
3249.3	264.88
3252.382	266.88
3255.46	264.21
3258.537	255.54
3261.611	258.88
3264.682	262.21
3267.751	260.21
3270.818	262.21
3273.882	260.21
3276.943	257.21
3280.002	252.54
3283.059	253.88
3286.113	244.88
3289.165	244.88
3292.214	237.88
3295.261	233.21
3298.306	233.21
3301.348	224.88
3304.387	229.21
3307.425	221.21
3310.459	220.21
3313.492	213.21
3316.521	213.21
3319.549	210.88
3322.574	218.88
3325.597	214.88
3328.617	214.54
3331.635	211.21
3334.65	208.54
3337.663	208.88
3340.674	214.54
3343.682	208.54
3346.688	204.88
3349.691	210.54
3352.692	204.54
3355.691	202.88
3358.687	208.21
3361.681	201.54
3364.673	200.21
3367.662	195.54
3370.649	199.54
3373.633	196.88
3376.615	184.88
3379.595	192.54
3382.572	183.54
3385.547	181.21
3388.52	180.88
3391.49	178.21
3394.458	173.88
3397.424	176.88
3400.387	178.88
3403.348	169.54
3406.307	173.21
3409.263	171.21
3412.217	169.54
3415.168	163.54
3418.118	163.88
3421.065	168.54
3424.009	165.21
3426.951	162.21
3429.891	155.54
3432.829	152.54
3435.764	149.88
3438.697	150.54
3441.628	148.54
3444.557	147.54
3447.483	141.21
3450.407	135.21
3453.328	133.21
3456.247	125.54
3459.164	119.54
3462.079	119.21
3464.991	115.21
3467.902	113.54
3470.809	113.21
3473.715	106.21
3476.618	109.21
3479.519	100.54
3482.418	98.54
3485.315	94.21
3488.209	94.54
3491.101	91.88
3493.99	92.88
3496.878	93.88
3499.763	84.54
3502.646	83.21
3505.527	82.88
3508.405	74.88
3511.281	70.88
3514.155	67.88
3517.027	62.54
3519.897	64.21
3522.764	59.54
3525.629	53.88
3528.492	54.21
3531.352	49.54
3534.211	45.54
3537.067	42.88
3539.921	42.54
3542.773	42.54
3545.622	36.54
3548.469	31.88
3551.315	33.54
3554.157	30.54
3556.998	31.54
3559.837	27.54
3562.673	30.21
3565.507	26.88
3568.339	24.88
3571.169	23.21
3573.996	23.21
3576.822	18.88
3579.645	16.21
3582.466	10.88
3585.285	10.88
3588.101	12.54
3590.916	10.88
3593.728	5.54
3596.538	7.21
3599.346	6.54
3602.152	1.21
3604.956	1.88
3607.757	1.21
3610.556	-0.12
3613.354	-1.12
3616.149	-0.46
3618.942	-0.79
3621.732	-1.79
3624.521	-4.79
3627.307	-5.12
3630.092	-5.46
3632.874	-4.79
3635.654	-4.46
3638.432	-6.46
3641.208	-7.12
3643.982	-8.46
3646.753	-8.46
3649.523	-9.79
3652.29	-11.79
3655.055	-11.12
3657.818	-13.79
3660.579	-14.46
3663.338	-19.79
3666.095	-14.46
3668.849	-18.79
3671.602	-19.46
3674.352	-15.46
3677.101	-19.79
3679.847	-18.79
3682.591	-21.79
3685.333	-19.12
3688.073	-20.46
3690.811	-18.79
3693.547	-20.79
3696.281	-22.12
3699.013	-24.12
3701.742	-21.46
3704.47	-18.46
3707.195	-20.79
3709.919	-21.79
3712.64	-20.79
3715.359	-21.12
3718.076	-23.12
3720.792	-24.46
3723.505	-25.12
3726.216	-26.12
3728.925	-25.79
3731.632	-23.79
3734.336	-28.12
3737.039	-26.12
3739.74	-24.79
3742.439	-25.46
3745.136	-24.79
3747.83	-26.79
3750.523	-26.12
3753.213	-23.79
3755.902	-29.46
3758.589	-24.79
3761.273	-27.12
3763.956	-26.79
3766.636	-25.79
3769.315	-25.79
3771.991	-25.46
3774.665	-26.46
3777.338	-24.12
3780.008	-26.46
3782.677	-24.46
3785.343	-24.46
3788.007	-25.79
3790.67	-28.79
3793.33	-27.12
3795.989	-29.12
3798.645	-30.12
3801.299	-28.12
3803.952	-26.79
3806.602	-28.46
3809.251	-31.46
3811.897	-31.12
3814.542	-30.12
3817.184	-29.46
3819.825	-30.12
3822.463	-27.46
3825.1	-27.12
3827.735	-25.46
3830.367	-25.79
3832.998	-28.46
3835.627	-27.79
3838.253	-28.46
3840.878	-27.46
3843.501	-27.79
3846.122	-28.46
3848.741	-26.12
3851.358	-29.79
3853.973	-32.12
3856.586	-31.46
3859.197	-31.12
3861.806	-30.12
3864.414	-31.46
3867.019	-32.12
3869.622	-33.12
3872.224	-28.12
3874.823	-28.12
3877.421	-28.46
3880.016	-21.46
3882.61	-15.12
3885.202	-15.46
3887.792	-17.12
3890.38	-19.79
3892.966	-24.79
3895.55	-30.12
3898.132	-27.79
3900.713	-33.12
3903.291	-27.46
3905.868	-27.12
3908.442	-27.79
3911.015	-29.12
3913.586	-29.12
3916.155	-30.46
3918.722	-29.12
3921.287	-28.46
3923.85	-30.46
3926.411	-28.46
3928.971	-29.79
3931.528	-30.79
3934.084	-30.12
3936.638	-32.46
3939.19	-31.12
3941.74	-30.12
3944.288	-31.79
3946.834	-32.12
3949.378	-29.12
3951.921	-29.46
3954.462	-29.12
3957	-27.12
3959.537	-27.12
3962.072	-29.12
3964.606	-29.12
3967.137	-28.12
3969.667	-29.79
3972.194	-29.12
3974.72	-29.12
3977.244	-30.46
3979.766	-26.46
3982.286	-29.79
3984.805	-33.12
3987.321	-32.79
3989.836	-28.12
3992.349	-28.12
3994.86	-28.12
3997.369	-32.79
3999.877	-30.79
4002.382	-31.79
4004.886	-29.79
4007.388	-28.46
4009.888	-28.12
4012.386	-31.46
4014.883	-28.46
4017.377	-29.79
4019.87	-29.12
4022.361	-29.12
4024.85	-27.79
4027.338	-31.12
4029.823	-31.46
4032.307	-28.12
4034.789	-27.12
4037.269	-30.12
4039.747	-26.12
4042.224	-29.46
4044.699	-28.46
4047.172	-29.46
4049.643	-29.79
4052.112	-29.12
4054.58	-29.12
4057.046	-29.12
4059.51	-31.79
4061.972	-30.12
4064.432	-31.46
4066.891	-30.79
4069.348	-31.12
4071.803	-30.12
4074.256	-29.46
4076.708	-31.79
4079.158	-29.12
4081.606	-28.46
4084.052	-28.12
4086.497	-29.79
4088.939	-27.79
4091.38	-28.79
4093.819	-29.79
4096.257	-33.79
4098.693	-34.79
4101.127	-31.46
4103.559	-32.79
4105.989	-18.46
4108.418	-12.46
4110.845	-13.46
4113.27	-10.46
4115.694	-9.79
4118.115	-7.12
4120.535	-27.46
4122.954	-29.12
4125.37	-26.12
4127.785	-27.46
4130.198	-27.46
4132.609	-28.12
4135.019	-29.46
4137.427	-31.79
4139.833	-29.12
4142.237	-32.46
