Data from Saline_log8 (I=1 T=5x1 V=3ml)_RamanShift_6.txt Node
Date: Mon Jun 05 14:36:10 IDT 2017
User: aro
Spectrometer: QEPB0276
Trigger mode: 0
Integration Time (sec): 5.000000E0
Scans to average: 1
Electric dark correction enabled: true
Nonlinearity correction enabled: false
Boxcar width: 0
XAxis mode: Raman Shifts
Number of Pixels in Spectrum: 1044
>>>>>Begin Spectral Data<<<<<
160.701	-5.25
166.742	3.42
172.777	27.42
178.805	102.75
184.826	279.08
190.841	557.08
196.849	869.42
202.85	1112.42
208.845	1153.75
214.833	1108.75
220.815	1067.42
226.789	1046.42
232.758	1009.75
238.719	976.08
244.674	942.08
250.623	919.75
256.565	866.08
262.5	832.75
268.429	804.42
274.351	769.42
280.267	762.42
286.176	738.08
292.079	719.08
297.975	691.42
303.865	691.08
309.748	676.75
315.625	668.42
321.495	664.42
327.359	652.75
333.217	651.42
339.068	642.75
344.912	658.08
350.751	664.42
356.583	642.42
362.408	654.42
368.227	657.75
374.04	666.42
379.847	681.08
385.647	691.08
391.44	691.42
397.228	682.75
403.009	691.42
408.784	701.42
414.553	757.42
420.315	822.08
426.071	828.42
431.821	759.08
437.565	713.42
443.302	686.42
449.033	684.75
454.758	679.08
460.477	671.42
466.189	647.75
471.896	654.75
477.596	646.42
483.29	639.08
488.978	633.42
494.66	626.42
500.335	610.42
506.005	592.08
511.668	563.08
517.325	538.75
522.977	523.42
528.622	518.08
534.261	502.42
539.894	487.75
545.521	485.75
551.141	485.75
556.756	471.75
562.365	473.42
567.968	469.42
573.565	466.75
579.155	460.08
584.74	456.42
590.319	451.42
595.892	447.08
601.459	443.08
607.02	450.42
612.575	427.42
618.124	424.42
623.667	414.75
629.204	406.75
634.735	414.42
640.261	432.08
645.781	440.42
651.294	443.75
656.802	428.75
662.304	400.75
667.8	387.75
673.29	384.08
678.775	378.75
684.254	382.75
689.726	375.75
695.193	367.08
700.655	360.08
706.11	362.42
711.56	362.08
717.004	352.42
722.442	360.42
727.874	354.08
733.301	353.75
738.722	348.42
744.137	359.75
749.547	346.08
754.951	356.08
760.349	348.42
765.741	348.42
771.128	338.42
776.509	341.08
781.885	344.08
787.254	335.42
792.618	340.75
797.977	341.42
803.33	335.08
808.677	330.08
814.019	320.42
819.355	318.08
824.686	317.75
830.011	302.75
835.33	310.42
840.644	299.42
845.952	299.42
851.255	287.42
856.552	291.42
861.844	286.42
867.13	280.75
872.41	280.75
877.686	278.42
882.955	270.75
888.219	264.42
893.478	253.75
898.731	252.42
903.979	236.75
909.221	239.08
914.458	234.42
919.69	235.08
924.916	233.42
930.136	225.75
935.351	226.75
940.561	225.08
945.766	219.08
950.965	220.42
956.158	214.08
961.347	218.75
966.529	207.08
971.707	206.42
976.879	198.08
982.046	205.42
987.208	203.08
992.364	197.75
997.515	202.08
1002.66	204.42
1007.801	201.75
1012.936	205.42
1018.066	214.08
1023.19	206.42
1028.309	210.42
1033.423	206.42
1038.532	204.42
1043.636	210.75
1048.734	199.75
1053.827	196.75
1058.915	201.75
1063.998	190.42
1069.075	195.08
1074.147	192.42
1079.214	195.42
1084.276	198.75
1089.333	196.08
1094.385	194.75
1099.431	193.75
1104.472	196.75
1109.509	189.42
1114.54	191.75
1119.565	186.42
1124.586	179.08
1129.602	184.75
1134.613	178.08
1139.618	175.75
1144.619	176.75
1149.614	181.08
1154.604	185.75
1159.589	174.42
1164.57	180.42
1169.545	176.42
1174.515	173.08
1179.48	180.08
1184.44	165.08
1189.395	172.75
1194.345	172.42
1199.29	169.42
1204.23	169.08
1209.165	171.42
1214.095	176.08
1219.021	172.42
1223.941	174.08
1228.856	176.42
1233.766	172.75
1238.672	178.42
1243.572	178.42
1248.467	166.42
1253.358	165.08
1258.244	163.08
1263.124	160.08
1268	158.75
1272.871	156.75
1277.737	152.42
1282.599	155.08
1287.455	153.08
1292.306	147.08
1297.153	153.08
1301.995	155.08
1306.832	152.75
1311.664	149.08
1316.491	152.08
1321.314	158.08
1326.132	148.75
1330.945	148.08
1335.753	138.75
1340.556	144.08
1345.354	136.08
1350.148	135.42
1354.937	130.75
1359.722	131.08
1364.501	135.08
1369.276	140.08
1374.046	137.08
1378.811	135.08
1383.572	132.42
1388.327	138.08
1393.079	129.75
1397.825	126.08
1402.567	121.75
1407.304	127.42
1412.036	121.42
1416.764	123.42
1421.487	122.42
1426.205	122.75
1430.919	118.42
1435.628	121.08
1440.333	123.42
1445.032	127.75
1449.727	134.08
1454.418	128.08
1459.104	134.42
1463.785	131.75
1468.462	124.08
1473.134	121.42
1477.802	123.08
1482.465	121.75
1487.123	120.42
1491.777	120.42
1496.426	119.08
1501.071	130.75
1505.711	129.75
1510.347	134.08
1514.978	129.75
1519.604	133.42
1524.226	134.75
1528.844	132.08
1533.457	134.42
1538.065	133.08
1542.669	130.08
1547.269	132.42
1551.864	135.42
1556.454	138.75
1561.041	139.75
1565.622	139.42
1570.199	140.42
1574.772	144.08
1579.34	150.42
1583.904	154.75
1588.464	159.75
1593.019	167.42
1597.569	169.42
1602.115	179.75
1606.657	181.08
1611.195	179.75
1615.728	186.75
1620.256	190.08
1624.78	192.08
1629.3	199.42
1633.816	204.75
1638.327	206.42
1642.834	218.08
1647.336	215.42
1651.834	222.08
1656.328	214.42
1660.817	207.75
1665.302	198.42
1669.783	196.08
1674.259	190.42
1678.732	174.75
1683.199	168.75
1687.663	162.08
1692.122	148.75
1696.577	141.08
1701.028	133.75
1705.474	132.75
1709.917	131.42
1714.355	123.75
1718.788	110.08
1723.218	104.42
1727.643	101.42
1732.064	96.42
1736.481	84.08
1740.893	83.75
1745.301	76.08
1749.705	68.08
1754.105	67.08
1758.501	65.75
1762.893	59.08
1767.28	58.75
1771.663	61.75
1776.042	56.08
1780.417	56.42
1784.787	51.75
1789.154	58.75
1793.516	56.42
1797.874	51.08
1802.228	62.08
1806.578	55.42
1810.924	54.75
1815.266	48.08
1819.603	50.08
1823.937	45.42
1828.266	44.75
1832.591	43.42
1836.913	41.42
1841.23	42.08
1845.543	37.75
1849.852	38.42
1854.156	40.42
1858.457	39.42
1862.754	36.42
1867.047	34.75
1871.335	41.08
1875.62	39.08
1879.9	40.42
1884.177	39.75
1888.449	42.42
1892.718	38.08
1896.982	39.75
1901.243	45.08
1905.499	40.42
1909.752	41.75
1914	41.75
1918.245	38.42
1922.485	39.42
1926.722	41.08
1930.954	44.75
1935.183	51.08
1939.408	45.08
1943.628	45.08
1947.845	43.75
1952.058	42.75
1956.267	42.42
1960.472	42.42
1964.673	38.75
1968.87	41.75
1973.063	34.08
1977.252	39.42
1981.438	38.42
1985.619	40.75
1989.797	38.75
1993.971	38.42
1998.14	40.42
2002.306	39.42
2006.469	43.08
2010.627	42.08
2014.781	39.42
2018.932	43.08
2023.078	40.75
2027.221	44.08
2031.36	42.08
2035.495	39.08
2039.627	36.75
2043.754	40.75
2047.878	41.75
2051.998	41.08
2056.114	44.42
2060.226	37.75
2064.334	39.75
2068.439	44.08
2072.54	42.75
2076.637	42.08
2080.73	43.42
2084.82	44.08
2088.906	42.75
2092.988	46.08
2097.066	43.08
2101.14	45.75
2105.211	44.08
2109.278	43.08
2113.342	43.75
2117.401	41.42
2121.457	43.75
2125.509	39.42
2129.558	43.08
2133.602	40.08
2137.643	40.75
2141.681	37.42
2145.714	40.75
2149.744	38.42
2153.77	37.08
2157.793	33.75
2161.812	31.08
2165.827	32.08
2169.838	28.75
2173.846	28.08
2177.851	23.08
2181.851	24.75
2185.848	21.08
2189.841	23.75
2193.831	18.08
2197.817	25.08
2201.799	23.75
2205.778	20.75
2209.753	19.75
2213.725	19.08
2217.693	22.42
2221.657	20.75
2225.618	20.75
2229.575	22.42
2233.529	16.08
2237.479	17.08
2241.425	19.08
2245.368	21.42
2249.307	18.75
2253.243	14.08
2257.175	8.42
2261.104	11.08
2265.029	11.75
2268.95	9.75
2272.868	6.08
2276.783	7.75
2280.694	5.75
2284.601	2.08
2288.505	6.75
2292.405	6.42
2296.302	7.08
2300.195	4.42
2304.085	0.75
2307.971	6.08
2311.854	3.75
2315.734	4.08
2319.609	1.08
2323.482	-0.92
2327.351	-1.25
2331.216	3.42
2335.078	3.08
2338.937	-1.58
2342.792	-2.58
2346.643	-0.58
2350.492	-1.25
2354.336	0.08
2358.178	-3.25
2362.015	-1.92
2365.85	-4.58
2369.681	-2.25
2373.508	-5.25
2377.333	-5.58
2381.153	-2.92
2384.971	-6.92
2388.785	-2.92
2392.595	-1.58
2396.402	-8.58
2400.206	-5.92
2404.007	-4.25
2407.804	-4.58
2411.597	-8.92
2415.388	-6.25
2419.174	-8.58
2422.958	-6.58
2426.738	-4.58
2430.515	-7.92
2434.289	-7.25
2438.059	-6.58
2441.825	-6.92
2445.589	-6.58
2449.349	-9.25
2453.106	-4.92
2456.859	-5.58
2460.61	-7.58
2464.356	-7.58
2468.1	-9.25
2471.84	-6.92
2475.577	-4.92
2479.311	-6.92
2483.041	-11.25
2486.768	-8.25
2490.492	-10.58
2494.213	-7.92
2497.93	-12.92
2501.644	-10.92
2505.355	-13.58
2509.062	-10.92
2512.766	-13.92
2516.467	-11.58
2520.165	-12.25
2523.859	-11.58
2527.551	-8.92
2531.239	-11.25
2534.923	-9.25
2538.605	-9.58
2542.283	-10.25
2545.958	-5.25
2549.63	-9.92
2553.299	-8.25
2556.964	-6.58
2560.626	-9.92
2564.285	-10.58
2567.941	-11.92
2571.594	-8.92
2575.243	-11.92
2578.89	-8.92
2582.533	-9.92
2586.173	-16.25
2589.809	-15.25
2593.443	-14.25
2597.073	-12.58
2600.701	-14.92
2604.325	-15.58
2607.946	-15.25
2611.564	-15.58
2615.178	-16.92
2618.79	-17.92
2622.398	-11.58
2626.004	-12.58
2629.606	-12.25
2633.205	-14.58
2636.801	-12.58
2640.394	-11.92
2643.983	-11.92
2647.57	-12.58
2651.153	-10.92
2654.734	-11.92
2658.311	-11.25
2661.885	-13.58
2665.456	-11.58
2669.025	-14.25
2672.589	-15.92
2676.151	-14.92
2679.71	-13.25
2683.266	-14.58
2686.819	-17.92
2690.368	-14.58
2693.915	-18.25
2697.458	-14.25
2700.999	-14.92
2704.536	-13.58
2708.071	-14.58
2711.602	-13.58
2715.13	-15.25
2718.656	-16.58
2722.178	-13.58
2725.697	-16.25
2729.214	-10.25
2732.727	-12.58
2736.237	-13.25
2739.744	-11.92
2743.249	-10.92
2746.75	-11.25
2750.248	-13.92
2753.743	-8.58
2757.236	-10.92
2760.725	-7.92
2764.211	-13.58
2767.695	-10.58
2771.175	-12.58
2774.652	-10.25
2778.127	-10.25
2781.598	-8.92
2785.067	-10.92
2788.532	-12.58
2791.995	-10.92
2795.455	-11.58
2798.911	-9.58
2802.365	-13.58
2805.816	-6.92
2809.264	-6.25
2812.709	-6.92
2816.151	-5.58
2819.59	-6.58
2823.026	-6.25
2826.46	-3.25
2829.89	-3.58
2833.318	0.08
2836.742	0.75
2840.164	-1.92
2843.583	-1.92
2846.999	2.08
2850.412	-2.92
2853.822	2.75
2857.229	3.08
2860.634	2.08
2864.035	2.42
2867.434	6.75
2870.83	5.08
2874.223	3.75
2877.613	7.08
2881	6.42
2884.385	8.42
2887.766	7.75
2891.145	8.08
2894.521	9.75
2897.894	10.08
2901.264	13.08
2904.631	15.75
2907.996	13.08
2911.358	14.08
2914.717	18.42
2918.073	17.08
2921.426	19.75
2924.777	19.08
2928.124	21.75
2931.469	25.08
2934.811	21.42
2938.15	28.08
2941.487	24.42
2944.821	30.08
2948.152	22.42
2951.48	29.75
2954.805	30.08
2958.128	29.42
2961.447	29.75
2964.765	34.08
2968.079	35.08
2971.39	37.42
2974.699	40.75
2978.005	41.75
2981.308	48.42
2984.609	53.08
2987.907	49.75
2991.202	53.42
2994.494	54.08
2997.784	61.08
3001.07	58.75
3004.355	61.75
3007.636	66.08
3010.915	67.08
3014.191	64.75
3017.464	68.08
3020.734	73.75
3024.002	75.75
3027.267	80.08
3030.53	76.42
3033.789	81.42
3037.046	79.75
3040.301	86.75
3043.552	91.42
3046.801	95.08
3050.048	93.42
3053.291	102.75
3056.532	105.08
3059.771	109.42
3063.006	120.08
3066.239	121.42
3069.469	124.75
3072.697	129.08
3075.922	132.75
3079.144	138.08
3082.364	145.75
3085.581	144.42
3088.795	153.08
3092.007	150.75
3095.216	157.75
3098.423	163.08
3101.627	172.42
3104.828	173.75
3108.026	178.08
3111.222	178.75
3114.416	194.08
3117.607	196.75
3120.795	204.08
3123.98	207.75
3127.163	214.42
3130.344	219.42
3133.521	226.75
3136.696	232.42
3139.869	237.75
3143.039	243.08
3146.206	250.42
3149.371	254.42
3152.533	256.75
3155.693	258.75
3158.85	256.42
3162.005	261.75
3165.157	264.75
3168.306	259.08
3171.453	264.75
3174.597	267.42
3177.739	264.42
3180.878	270.08
3184.014	267.42
3187.149	273.08
3190.28	279.08
3193.409	269.08
3196.536	278.75
3199.659	270.42
3202.781	276.08
3205.9	279.42
3209.016	271.75
3212.13	277.42
3215.241	283.08
3218.35	277.75
3221.456	285.75
3224.56	274.42
3227.661	274.42
3230.76	272.08
3233.856	265.42
3236.95	270.75
3240.041	273.42
3243.13	262.42
3246.216	266.42
3249.3	265.75
3252.382	262.75
3255.46	255.08
3258.537	261.42
3261.611	258.75
3264.682	267.08
3267.751	252.08
3270.818	257.08
3273.882	256.08
3276.943	249.08
3280.002	256.42
3283.059	254.75
3286.113	247.75
3289.165	241.75
3292.214	238.75
3295.261	232.08
3298.306	237.08
3301.348	234.75
3304.387	228.08
3307.425	224.08
3310.459	221.08
3313.492	222.08
3316.521	219.08
3319.549	214.75
3322.574	210.75
3325.597	214.75
3328.617	209.42
3331.635	202.08
3334.65	211.42
3337.663	204.75
3340.674	204.42
3343.682	204.42
3346.688	206.75
3349.691	201.42
3352.692	198.42
3355.691	202.75
3358.687	205.08
3361.681	202.42
3364.673	199.08
3367.662	198.42
3370.649	194.42
3373.633	198.75
3376.615	188.75
3379.595	183.42
3382.572	190.42
3385.547	178.08
3388.52	182.75
3391.49	179.08
3394.458	178.75
3397.424	172.75
3400.387	177.75
3403.348	168.42
3406.307	170.08
3409.263	159.08
3412.217	172.42
3415.168	164.42
3418.118	163.75
3421.065	161.42
3424.009	159.08
3426.951	158.08
3429.891	150.42
3432.829	154.42
3435.764	149.75
3438.697	141.42
3441.628	145.42
3444.557	139.42
3447.483	143.08
3450.407	131.08
3453.328	132.08
3456.247	131.42
3459.164	120.42
3462.079	124.08
3464.991	119.08
3467.902	116.42
3470.809	118.08
3473.715	103.08
3476.618	100.08
3479.519	97.42
3482.418	98.42
3485.315	93.08
3488.209	94.42
3491.101	89.75
3493.99	89.75
3496.878	82.75
3499.763	77.42
3502.646	78.08
3505.527	80.75
3508.405	70.75
3511.281	71.75
3514.155	69.75
3517.027	70.42
3519.897	60.08
3522.764	60.42
3525.629	62.75
3528.492	52.08
3531.352	49.42
3534.211	44.42
3537.067	43.75
3539.921	40.42
3542.773	38.42
3545.622	33.42
3548.469	34.75
3551.315	36.42
3554.157	29.42
3556.998	27.42
3559.837	28.42
3562.673	27.08
3565.507	24.75
3568.339	21.75
3571.169	19.08
3573.996	16.08
3576.822	18.75
3579.645	12.08
3582.466	10.75
3585.285	13.75
3588.101	10.42
3590.916	10.75
3593.728	7.42
3596.538	4.08
3599.346	4.42
3602.152	5.08
3604.956	-0.25
3607.757	2.08
3610.556	-1.25
3613.354	1.75
3616.149	0.42
3618.942	0.08
3621.732	-2.92
3624.521	-2.92
3627.307	-4.25
3630.092	-3.58
3632.874	-9.92
3635.654	-11.58
3638.432	-9.58
3641.208	-13.25
3643.982	-12.58
3646.753	-9.58
3649.523	-15.92
3652.29	-13.92
3655.055	-18.25
3657.818	-13.92
3660.579	-16.58
3663.338	-16.92
3666.095	-16.58
3668.849	-14.92
3671.602	-15.58
3674.352	-15.58
3677.101	-15.92
3679.847	-19.92
3682.591	-19.92
3685.333	-19.25
3688.073	-17.58
3690.811	-18.92
3693.547	-16.92
3696.281	-20.25
3699.013	-22.25
3701.742	-23.58
3704.47	-22.58
3707.195	-24.92
3709.919	-26.92
3712.64	-24.92
3715.359	-25.25
3718.076	-25.25
3720.792	-28.58
3723.505	-28.25
3726.216	-30.25
3728.925	-26.92
3731.632	-26.92
3734.336	-27.25
3737.039	-26.25
3739.74	-22.92
3742.439	-26.58
3745.136	-26.92
3747.83	-27.92
3750.523	-27.25
3753.213	-27.92
3755.902	-26.58
3758.589	-26.92
3761.273	-27.25
3763.956	-27.92
3766.636	-25.92
3769.315	-28.92
3771.991	-27.58
3774.665	-30.58
3777.338	-27.25
3780.008	-28.58
3782.677	-27.58
3785.343	-26.58
3788.007	-26.92
3790.67	-29.92
3793.33	-31.25
3795.989	-28.25
3798.645	-29.25
3801.299	-31.25
3803.952	-31.92
3806.602	-27.58
3809.251	-30.58
3811.897	-31.25
3814.542	-30.25
3817.184	-34.58
3819.825	-28.25
3822.463	-30.58
3825.1	-26.25
3827.735	-28.58
3830.367	-26.92
3832.998	-26.58
3835.627	-27.92
3838.253	-28.58
3840.878	-28.58
3843.501	-26.92
3846.122	-30.58
3848.741	-27.25
3851.358	-27.92
3853.973	-31.25
3856.586	-29.58
3859.197	-28.25
3861.806	-33.25
3864.414	-30.58
3867.019	-30.25
3869.622	-32.25
3872.224	-27.25
3874.823	-29.25
3877.421	-25.58
3880.016	-22.58
3882.61	-19.25
3885.202	-16.58
3887.792	-20.25
3890.38	-22.92
3892.966	-27.92
3895.55	-28.25
3898.132	-29.92
3900.713	-30.25
3903.291	-26.58
3905.868	-26.25
3908.442	-30.92
3911.015	-29.25
3913.586	-30.25
3916.155	-30.58
3918.722	-30.25
3921.287	-29.58
3923.85	-28.58
3926.411	-29.58
3928.971	-31.92
3931.528	-30.92
3934.084	-31.25
3936.638	-32.58
3939.19	-34.25
3941.74	-34.25
3944.288	-30.92
3946.834	-31.25
3949.378	-32.25
3951.921	-30.58
3954.462	-29.25
3957	-32.25
3959.537	-28.25
3962.072	-30.25
3964.606	-30.25
3967.137	-29.25
3969.667	-27.92
3972.194	-30.25
3974.72	-29.25
3977.244	-28.58
3979.766	-27.58
3982.286	-29.92
3984.805	-29.25
3987.321	-29.92
3989.836	-29.25
3992.349	-28.25
3994.86	-32.25
3997.369	-32.92
3999.877	-33.92
4002.382	-33.92
4004.886	-30.92
4007.388	-31.58
4009.888	-30.25
4012.386	-33.58
4014.883	-29.58
4017.377	-30.92
4019.87	-32.25
4022.361	-34.25
4024.85	-30.92
4027.338	-31.25
4029.823	-32.58
4032.307	-29.25
4034.789	-28.25
4037.269	-25.25
4039.747	-28.25
4042.224	-30.58
4044.699	-28.58
4047.172	-29.58
4049.643	-31.92
4052.112	-29.25
4054.58	-33.25
4057.046	-30.25
4059.51	-30.92
4061.972	-31.25
4064.432	-32.58
4066.891	-30.92
4069.348	-30.25
4071.803	-30.25
4074.256	-32.58
4076.708	-31.92
4079.158	-30.25
4081.606	-29.58
4084.052	-30.25
4086.497	-30.92
4088.939	-28.92
4091.38	-29.92
4093.819	-32.92
4096.257	-32.92
4098.693	-32.92
4101.127	-34.58
4103.559	-34.92
4105.989	-17.58
4108.418	-14.58
4110.845	-13.58
4113.27	-14.58
4115.694	-11.92
4118.115	-8.25
4120.535	-30.58
4122.954	-30.25
4125.37	-26.25
4127.785	-27.58
4130.198	-30.58
4132.609	-28.25
4135.019	-29.58
4137.427	-33.92
4139.833	-32.25
4142.237	-32.58
