Data from Saline_1 (I=1 T=5x1 V=3ml)_RamanShift_10.txt Node
Date: Mon Jun 05 14:07:52 IDT 2017
User: aro
Spectrometer: QEPB0276
Trigger mode: 0
Integration Time (sec): 5.000000E0
Scans to average: 1
Electric dark correction enabled: true
Nonlinearity correction enabled: false
Boxcar width: 0
XAxis mode: Raman Shifts
Number of Pixels in Spectrum: 1044
>>>>>Begin Spectral Data<<<<<
160.701	-28.88
166.742	2.79
172.777	88.79
178.805	376.12
184.826	1064.46
190.841	2250.46
196.849	3568.79
202.85	4480.79
208.845	4672.12
214.833	4502.12
220.815	4295.79
226.789	4139.79
232.758	4010.12
238.719	3877.46
244.674	3718.46
250.623	3513.12
256.565	3345.46
262.5	3168.12
268.429	3015.79
274.351	2864.79
280.267	2734.79
286.176	2638.46
292.079	2522.46
297.975	2446.79
303.865	2356.46
309.748	2298.12
315.625	2241.79
321.495	2214.79
327.359	2165.12
333.217	2154.79
339.068	2132.12
344.912	2114.46
350.751	2092.79
356.583	2116.79
362.408	2092.79
368.227	2105.12
374.04	2128.79
379.847	2145.46
385.647	2165.46
391.44	2179.79
397.228	2158.12
403.009	2148.79
408.784	2228.79
414.553	2252.79
420.315	2343.46
426.071	2331.79
431.821	2253.46
437.565	2178.79
443.302	2160.79
449.033	2145.12
454.758	2117.46
460.477	2089.79
466.189	2088.12
471.896	2059.12
477.596	2067.79
483.29	2032.46
488.978	2014.79
494.66	2009.79
500.335	1984.79
506.005	1932.46
511.668	1899.46
517.325	1838.12
522.977	1790.79
528.622	1762.46
534.261	1739.79
539.894	1735.12
545.521	1709.12
551.141	1690.12
556.756	1665.12
562.365	1651.79
567.968	1639.79
573.565	1623.12
579.155	1621.46
584.74	1599.79
590.319	1571.79
595.892	1564.46
601.459	1533.46
607.02	1531.79
612.575	1504.79
618.124	1496.79
623.667	1480.12
629.204	1450.12
634.735	1437.79
640.261	1440.46
645.781	1444.79
651.294	1445.12
656.802	1418.12
662.304	1376.12
667.8	1379.12
673.29	1342.46
678.775	1331.12
684.254	1315.12
689.726	1325.12
695.193	1289.46
700.655	1285.46
706.11	1276.79
711.56	1245.46
717.004	1229.79
722.442	1219.79
727.874	1199.46
733.301	1202.12
738.722	1179.79
744.137	1168.12
749.547	1154.46
754.951	1179.46
760.349	1154.79
765.741	1141.79
771.128	1118.79
776.509	1121.46
781.885	1117.46
787.254	1113.79
792.618	1092.12
797.977	1080.79
803.33	1049.46
808.677	1049.46
814.019	1039.79
819.355	1012.46
824.686	988.12
830.011	993.12
835.33	965.79
840.644	956.79
845.952	937.79
851.255	929.79
856.552	921.79
861.844	904.79
867.13	912.12
872.41	888.12
877.686	889.79
882.955	876.12
888.219	859.79
893.478	832.12
898.731	785.79
903.979	769.12
909.221	758.46
914.458	740.79
919.69	746.46
924.916	722.79
930.136	715.12
935.351	708.12
940.561	698.46
945.766	694.46
950.965	692.79
956.158	679.46
961.347	663.12
966.529	653.46
971.707	637.79
976.879	630.46
982.046	617.79
987.208	602.46
992.364	605.12
997.515	614.46
1002.66	607.79
1007.801	609.12
1012.936	617.79
1018.066	611.46
1023.19	610.79
1028.309	619.79
1033.423	605.79
1038.532	605.79
1043.636	611.12
1048.734	592.12
1053.827	590.12
1058.915	579.12
1063.998	573.79
1069.075	562.46
1074.147	561.79
1079.214	565.79
1084.276	583.12
1089.333	579.46
1094.385	579.12
1099.431	574.12
1104.472	573.12
1109.509	564.79
1114.54	545.12
1119.565	541.79
1124.586	534.46
1129.602	533.12
1134.613	525.46
1139.618	520.12
1144.619	517.12
1149.614	521.46
1154.604	526.12
1159.589	517.79
1164.57	520.79
1169.545	524.79
1174.515	516.46
1179.48	514.46
1184.44	503.46
1189.395	511.12
1194.345	497.79
1199.29	505.79
1204.23	504.46
1209.165	496.79
1214.095	504.46
1219.021	516.79
1223.941	501.46
1228.856	507.79
1233.766	512.12
1238.672	509.79
1243.572	506.79
1248.467	498.79
1253.358	498.46
1258.244	484.46
1263.124	476.46
1268	473.12
1272.871	468.12
1277.737	451.79
1282.599	444.46
1287.455	456.46
1292.306	462.46
1297.153	459.46
1301.995	462.46
1306.832	452.12
1311.664	447.46
1316.491	448.46
1321.314	453.46
1326.132	450.12
1330.945	435.46
1335.753	431.12
1340.556	410.46
1345.354	403.46
1350.148	400.79
1354.937	402.12
1359.722	391.46
1364.501	404.46
1369.276	400.46
1374.046	387.46
1378.811	403.46
1383.572	390.79
1388.327	379.46
1393.079	388.12
1397.825	378.46
1402.567	364.12
1407.304	376.79
1412.036	356.79
1416.764	357.79
1421.487	363.79
1426.205	367.12
1430.919	354.79
1435.628	356.46
1440.333	361.79
1445.032	372.12
1449.727	383.46
1454.418	379.46
1459.104	382.79
1463.785	391.12
1468.462	369.46
1473.134	367.79
1477.802	351.46
1482.465	365.12
1487.123	359.79
1491.777	365.79
1496.426	361.46
1501.071	371.12
1505.711	378.12
1510.347	388.46
1514.978	389.12
1519.604	393.79
1524.226	411.12
1528.844	410.46
1533.457	412.79
1538.065	411.46
1542.669	410.46
1547.269	416.79
1551.864	428.79
1556.454	429.12
1561.041	438.12
1565.622	452.79
1570.199	462.79
1574.772	475.46
1579.34	489.79
1583.904	520.12
1588.464	538.12
1593.019	563.79
1597.569	567.79
1602.115	597.12
1606.657	609.46
1611.195	621.12
1615.728	643.12
1620.256	667.46
1624.78	692.46
1629.3	707.79
1633.816	725.12
1638.327	750.79
1642.834	747.46
1647.336	761.79
1651.834	770.46
1656.328	755.79
1660.817	750.12
1665.302	732.79
1669.783	697.46
1674.259	662.79
1678.732	627.12
1683.199	593.12
1687.663	553.46
1692.122	508.12
1696.577	471.46
1701.028	436.12
1705.474	414.12
1709.917	387.79
1714.355	360.12
1718.788	351.46
1723.218	315.79
1727.643	293.79
1732.064	276.79
1736.481	263.46
1740.893	238.12
1745.301	217.46
1749.705	212.46
1754.105	200.46
1758.501	179.12
1762.893	163.46
1767.28	157.12
1771.663	157.12
1776.042	148.46
1780.417	137.79
1784.787	144.12
1789.154	134.12
1793.516	131.79
1797.874	131.46
1802.228	123.46
1806.578	111.79
1810.924	111.12
1815.266	109.46
1819.603	107.46
1823.937	98.79
1828.266	97.12
1832.591	96.79
1836.913	89.79
1841.23	92.46
1845.543	91.12
1849.852	84.79
1854.156	85.79
1858.457	92.79
1862.754	91.79
1867.047	89.12
1871.335	87.46
1875.62	90.46
1879.9	85.79
1884.177	91.12
1888.449	84.79
1892.718	84.46
1896.982	90.12
1901.243	86.46
1905.499	85.79
1909.752	87.12
1914	95.12
1918.245	87.79
1922.485	93.79
1926.722	95.46
1930.954	100.12
1935.183	103.46
1939.408	103.46
1943.628	102.46
1947.845	109.12
1952.058	102.12
1956.267	97.79
1960.472	100.79
1964.673	98.12
1968.87	96.12
1973.063	93.46
1977.252	93.79
1981.438	96.79
1985.619	88.12
1989.797	94.12
1993.971	93.79
1998.14	95.79
2002.306	102.79
2006.469	105.46
2010.627	101.46
2014.781	103.79
2018.932	108.46
2023.078	107.12
2027.221	105.46
2031.36	104.46
2035.495	105.46
2039.627	98.12
2043.754	106.12
2047.878	101.12
2051.998	109.46
2056.114	107.79
2060.226	113.12
2064.334	118.12
2068.439	108.46
2072.54	114.12
2076.637	117.46
2080.73	126.79
2084.82	118.46
2088.906	124.12
2092.988	119.46
2097.066	123.46
2101.14	118.12
2105.211	123.46
2109.278	116.46
2113.342	119.12
2117.401	118.79
2121.457	112.12
2125.509	105.79
2129.558	104.46
2133.602	104.46
2137.643	104.12
2141.681	94.79
2145.714	94.12
2149.744	94.79
2153.77	97.46
2157.793	89.12
2161.812	90.46
2165.827	82.46
2169.838	78.12
2173.846	75.46
2177.851	69.46
2181.851	71.12
2185.848	62.46
2189.841	62.12
2193.831	55.46
2197.817	55.46
2201.799	56.12
2205.778	52.12
2209.753	50.12
2213.725	50.46
2217.693	44.79
2221.657	43.12
2225.618	41.12
2229.575	34.79
2233.529	34.46
2237.479	34.46
2241.425	30.46
2245.368	35.79
2249.307	22.12
2253.243	24.46
2257.175	16.79
2261.104	16.46
2265.029	12.12
2268.95	14.12
2272.868	6.46
2276.783	5.12
2280.694	-1.88
2284.601	-6.54
2288.505	-6.88
2292.405	-5.21
2296.302	-3.54
2300.195	-7.21
2304.085	-11.88
2307.971	-10.54
2311.854	-11.88
2315.734	-16.54
2319.609	-19.54
2323.482	-16.54
2327.351	-20.88
2331.216	-16.21
2335.078	-18.54
2338.937	-27.21
2342.792	-30.21
2346.643	-25.21
2350.492	-31.88
2354.336	-29.54
2358.178	-36.88
2362.015	-30.54
2365.85	-30.21
2369.681	-31.88
2373.508	-36.88
2377.333	-35.21
2381.153	-36.54
2384.971	-34.54
2388.785	-32.54
2392.595	-37.21
2396.402	-36.21
2400.206	-36.54
2404.007	-34.88
2407.804	-38.21
2411.597	-37.54
2415.388	-41.88
2419.174	-43.21
2422.958	-40.21
2426.738	-43.21
2430.515	-43.54
2434.289	-45.88
2438.059	-47.21
2441.825	-44.54
2445.589	-45.21
2449.349	-48.88
2453.106	-50.54
2456.859	-48.21
2460.61	-50.21
2464.356	-51.21
2468.1	-50.88
2471.84	-50.54
2475.577	-50.54
2479.311	-49.54
2483.041	-47.88
2486.768	-50.88
2490.492	-52.21
2494.213	-49.54
2497.93	-59.54
2501.644	-49.54
2505.355	-54.21
2509.062	-48.54
2512.766	-57.54
2516.467	-58.21
2520.165	-56.88
2523.859	-60.21
2527.551	-56.54
2531.239	-57.88
2534.923	-53.88
2538.605	-58.21
2542.283	-52.88
2545.958	-50.88
2549.63	-51.54
2553.299	-55.88
2556.964	-53.21
2560.626	-56.54
2564.285	-56.21
2567.941	-56.54
2571.594	-55.54
2575.243	-60.54
2578.89	-55.54
2582.533	-58.54
2586.173	-59.88
2589.809	-63.88
2593.443	-60.88
2597.073	-61.21
2600.701	-62.54
2604.325	-58.21
2607.946	-61.88
2611.564	-61.21
2615.178	-57.54
2618.79	-59.54
2622.398	-57.21
2626.004	-57.21
2629.606	-57.88
2633.205	-57.21
2636.801	-62.21
2640.394	-60.54
2643.983	-64.54
2647.57	-63.21
2651.153	-64.54
2654.734	-60.54
2658.311	-63.88
2661.885	-62.21
2665.456	-59.21
2669.025	-63.88
2672.589	-62.54
2676.151	-59.54
2679.71	-62.88
2683.266	-62.21
2686.819	-61.54
2690.368	-59.21
2693.915	-63.88
2697.458	-59.88
2700.999	-58.54
2704.536	-62.21
2708.071	-62.21
2711.602	-63.21
2715.13	-63.88
2718.656	-62.21
2722.178	-59.21
2725.697	-63.88
2729.214	-57.88
2732.727	-59.21
2736.237	-58.88
2739.744	-58.54
2743.249	-55.54
2746.75	-56.88
2750.248	-51.54
2753.743	-49.21
2757.236	-49.54
2760.725	-46.54
2764.211	-48.21
2767.695	-50.21
2771.175	-48.21
2774.652	-39.88
2778.127	-47.88
2781.598	-44.54
2785.067	-46.54
2788.532	-51.21
2791.995	-42.54
2795.455	-46.21
2798.911	-40.21
2802.365	-42.21
2805.816	-36.54
2809.264	-35.88
2812.709	-36.54
2816.151	-31.21
2819.59	-28.21
2823.026	-22.88
2826.46	-26.88
2829.89	-21.21
2833.318	-22.54
2836.742	-14.88
2840.164	-12.54
2843.583	-13.54
2846.999	-13.54
2850.412	-9.54
2853.822	-10.88
2857.229	-6.54
2860.634	3.46
2864.035	-0.21
2867.434	1.12
2870.83	2.46
2874.223	9.12
2877.613	17.46
2881	21.79
2884.385	27.79
2887.766	26.12
2891.145	31.46
2894.521	27.12
2897.894	37.46
2901.264	35.46
2904.631	36.12
2907.996	44.46
2911.358	43.46
2914.717	44.79
2918.073	58.46
2921.426	54.12
2924.777	58.46
2928.124	64.12
2931.469	68.46
2934.811	77.79
2938.15	87.46
2941.487	87.79
2944.821	87.46
2948.152	97.79
2951.48	99.12
2954.805	101.46
2958.128	111.79
2961.447	108.12
2964.765	119.46
2968.079	128.46
2971.39	131.79
2974.699	140.12
2978.005	147.12
2981.308	155.79
2984.609	160.46
2987.907	175.12
2991.202	179.79
2994.494	193.46
2997.784	204.46
3001.07	212.12
3004.355	219.12
3007.636	225.46
3010.915	241.46
3014.191	241.12
3017.464	256.46
3020.734	264.12
3024.002	268.12
3027.267	274.46
3030.53	289.79
3033.789	292.79
3037.046	312.12
3040.301	323.12
3043.552	328.79
3046.801	348.46
3050.048	362.79
3053.291	377.12
3056.532	380.46
3059.771	408.79
3063.006	422.46
3066.239	424.79
3069.469	443.12
3072.697	469.46
3075.922	483.12
3079.144	501.46
3082.364	516.12
3085.581	529.79
3088.795	562.46
3092.007	574.12
3095.216	590.12
3098.423	613.46
3101.627	624.79
3104.828	644.12
3108.026	652.46
3111.222	671.12
3114.416	691.46
3117.607	709.12
3120.795	740.46
3123.98	759.12
3127.163	784.79
3130.344	814.79
3133.521	826.12
3136.696	840.79
3139.869	864.12
3143.039	869.46
3146.206	898.79
3149.371	910.79
3152.533	924.12
3155.693	926.12
3158.85	936.79
3162.005	945.12
3165.157	968.12
3168.306	953.46
3171.453	963.12
3174.597	981.79
3177.739	973.79
3180.878	977.46
3184.014	992.79
3187.149	987.46
3190.28	1000.46
3193.409	1004.46
3196.536	1014.12
3199.659	1013.79
3202.781	1013.46
3205.9	1018.79
3209.016	1022.12
3212.13	1036.79
3215.241	1028.46
3218.35	1019.12
3221.456	1026.12
3224.56	998.79
3227.661	1000.79
3230.76	993.46
3233.856	990.79
3236.95	987.12
3240.041	972.79
3243.13	964.79
3246.216	966.79
3249.3	961.12
3252.382	969.12
3255.46	966.46
3258.537	955.79
3261.611	957.12
3264.682	955.46
3267.751	947.46
3270.818	946.46
3273.882	943.46
3276.943	930.46
3280.002	929.79
3283.059	933.12
3286.113	900.12
3289.165	897.12
3292.214	888.12
3295.261	873.46
3298.306	851.46
3301.348	854.12
3304.387	850.46
3307.425	814.46
3310.459	816.46
3313.492	810.46
3316.521	795.46
3319.549	782.12
3322.574	783.12
3325.597	776.12
3328.617	777.79
3331.635	756.46
3334.65	759.79
3337.663	760.12
3340.674	762.79
3343.682	755.79
3346.688	757.12
3349.691	763.79
3352.692	754.79
3355.691	750.12
3358.687	747.46
3361.681	730.79
3364.673	722.46
3367.662	722.79
3370.649	702.79
3373.633	705.12
3376.615	698.12
3379.595	684.79
3382.572	678.79
3385.547	668.46
3388.52	654.12
3391.49	647.46
3394.458	632.12
3397.424	642.12
3400.387	631.12
3403.348	632.79
3406.307	614.46
3409.263	614.46
3412.217	611.79
3415.168	599.79
3418.118	591.12
3421.065	585.79
3424.009	595.46
3426.951	593.46
3429.891	561.79
3432.829	556.79
3435.764	549.12
3438.697	530.79
3441.628	524.79
3444.557	519.79
3447.483	498.46
3450.407	493.46
3453.328	469.46
3456.247	455.79
3459.164	441.79
3462.079	428.46
3464.991	416.46
3467.902	418.79
3470.809	391.46
3473.715	383.46
3476.618	366.46
3479.519	371.79
3482.418	354.79
3485.315	353.46
3488.209	338.79
3491.101	319.12
3493.99	316.12
3496.878	312.12
3499.763	299.79
3502.646	283.46
3505.527	281.12
3508.405	271.12
3511.281	257.12
3514.155	250.12
3517.027	230.79
3519.897	222.46
3522.764	217.79
3525.629	199.12
3528.492	185.46
3531.352	176.79
3534.211	167.79
3537.067	157.12
3539.921	150.79
3542.773	138.79
3545.622	128.79
3548.469	124.12
3551.315	115.79
3554.157	103.79
3556.998	101.79
3559.837	95.79
3562.673	93.46
3565.507	85.12
3568.339	74.12
3571.169	67.46
3573.996	61.46
3576.822	61.12
3579.645	52.46
3582.466	49.12
3585.285	47.12
3588.101	41.79
3590.916	39.12
3593.728	23.79
3596.538	27.46
3599.346	19.79
3602.152	13.46
3604.956	5.12
3607.757	0.46
3610.556	-0.88
3613.354	-7.88
3616.149	-13.21
3618.942	-13.54
3621.732	-9.54
3624.521	-18.54
3627.307	-19.88
3630.092	-26.21
3632.874	-26.54
3635.654	-28.21
3638.432	-30.21
3641.208	-30.88
3643.982	-38.21
3646.753	-35.21
3649.523	-45.54
3652.29	-43.54
3655.055	-48.88
3657.818	-54.54
3660.579	-50.21
3663.338	-56.54
3666.095	-58.21
3668.849	-61.54
3671.602	-66.21
3674.352	-63.21
3677.101	-67.54
3679.847	-67.54
3682.591	-68.54
3685.333	-67.88
3688.073	-74.21
3690.811	-75.54
3693.547	-73.54
3696.281	-76.88
3699.013	-79.88
3701.742	-82.21
3704.47	-78.21
3707.195	-86.54
3709.919	-82.54
3712.64	-86.54
3715.359	-87.88
3718.076	-88.88
3720.792	-86.21
3723.505	-90.88
3726.216	-93.88
3728.925	-90.54
3731.632	-92.54
3734.336	-88.88
3737.039	-91.88
3739.74	-90.54
3742.439	-91.21
3745.136	-92.54
3747.83	-92.54
3750.523	-93.88
3753.213	-94.54
3755.902	-101.21
3758.589	-95.54
3761.273	-96.88
3763.956	-95.54
3766.636	-98.54
3769.315	-99.54
3771.991	-101.21
3774.665	-101.21
3777.338	-102.88
3780.008	-103.21
3782.677	-100.21
3785.343	-101.21
3788.007	-100.54
3790.67	-98.54
3793.33	-101.88
3795.989	-98.88
3798.645	-100.88
3801.299	-98.88
3803.952	-100.54
3806.602	-101.21
3809.251	-99.21
3811.897	-100.88
3814.542	-104.88
3817.184	-103.21
3819.825	-99.88
3822.463	-103.21
3825.1	-105.88
3827.735	-107.21
3830.367	-105.54
3832.998	-105.21
3835.627	-104.54
3838.253	-105.21
3840.878	-102.21
3843.501	-105.54
3846.122	-105.21
3848.741	-102.88
3851.358	-103.54
3853.973	-102.88
3856.586	-103.21
3859.197	-102.88
3861.806	-102.88
3864.414	-104.21
3867.019	-106.88
3869.622	-105.88
3872.224	-102.88
3874.823	-101.88
3877.421	-98.21
3880.016	-94.21
3882.61	-85.88
3885.202	-85.21
3887.792	-86.88
3890.38	-96.54
3892.966	-103.54
3895.55	-102.88
3898.132	-103.54
3900.713	-108.88
3903.291	-103.21
3905.868	-102.88
3908.442	-104.54
3911.015	-108.88
3913.586	-106.88
3916.155	-108.21
3918.722	-109.88
3921.287	-110.21
3923.85	-108.21
3926.411	-110.21
3928.971	-107.54
3931.528	-106.54
3934.084	-108.88
3936.638	-106.21
3939.19	-109.88
3941.74	-109.88
3944.288	-108.54
3946.834	-105.88
3949.378	-106.88
3951.921	-105.21
3954.462	-106.88
3957	-106.88
3959.537	-103.88
3962.072	-105.88
3964.606	-108.88
3967.137	-107.88
3969.667	-104.54
3972.194	-106.88
3974.72	-107.88
3977.244	-107.21
3979.766	-106.21
3982.286	-104.54
3984.805	-107.88
3987.321	-107.54
3989.836	-102.88
3992.349	-103.88
3994.86	-104.88
3997.369	-106.54
3999.877	-105.54
4002.382	-103.54
4004.886	-103.54
4007.388	-101.21
4009.888	-101.88
4012.386	-106.21
4014.883	-105.21
4017.377	-103.54
4019.87	-108.88
4022.361	-106.88
4024.85	-105.54
4027.338	-105.88
4029.823	-109.21
4032.307	-108.88
4034.789	-108.88
4037.269	-108.88
4039.747	-101.88
4042.224	-105.21
4044.699	-107.21
4047.172	-106.21
4049.643	-104.54
4052.112	-102.88
4054.58	-105.88
4057.046	-101.88
4059.51	-105.54
4061.972	-105.88
4064.432	-103.21
4066.891	-107.54
4069.348	-104.88
4071.803	-102.88
4074.256	-108.21
4076.708	-109.54
4079.158	-108.88
4081.606	-109.21
4084.052	-108.88
4086.497	-106.54
4088.939	-107.54
4091.38	-107.54
4093.819	-107.54
4096.257	-109.54
4098.693	-110.54
4101.127	-109.21
4103.559	-107.54
4105.989	-68.21
4108.418	-62.21
4110.845	-60.21
4113.27	-53.21
4115.694	-51.54
4118.115	-39.88
4120.535	-105.21
4122.954	-103.88
4125.37	-103.88
4127.785	-104.21
4130.198	-106.21
4132.609	-104.88
4135.019	-109.21
4137.427	-109.54
4139.833	-108.88
4142.237	-111.21
