Data from Saline_1 (I=1 T=5x1 V=3ml)_RamanShift_6.txt Node
Date: Mon Jun 05 14:02:47 IDT 2017
User: aro
Spectrometer: QEPB0276
Trigger mode: 0
Integration Time (sec): 5.000000E0
Scans to average: 1
Electric dark correction enabled: true
Nonlinearity correction enabled: false
Boxcar width: 0
XAxis mode: Raman Shifts
Number of Pixels in Spectrum: 1044
>>>>>Begin Spectral Data<<<<<
160.701	-31.25
166.742	1.42
172.777	92.42
178.805	390.75
184.826	1082.08
190.841	2297.08
196.849	3632.42
202.85	4532.42
208.845	4708.75
214.833	4578.75
220.815	4342.42
226.789	4240.42
232.758	4069.75
238.719	3940.08
244.674	3763.08
250.623	3589.75
256.565	3394.08
262.5	3220.75
268.429	3057.42
274.351	2926.42
280.267	2785.42
286.176	2672.08
292.079	2568.08
297.975	2465.42
303.865	2387.08
309.748	2344.75
315.625	2288.42
321.495	2244.42
327.359	2202.75
333.217	2159.42
339.068	2178.75
344.912	2173.08
350.751	2159.42
356.583	2155.42
362.408	2157.42
368.227	2153.75
374.04	2157.42
379.847	2190.08
385.647	2218.08
391.44	2213.42
397.228	2191.75
403.009	2220.42
408.784	2243.42
414.553	2300.42
420.315	2367.08
426.071	2356.42
431.821	2302.08
437.565	2256.42
443.302	2194.42
449.033	2182.75
454.758	2172.08
460.477	2142.42
466.189	2118.75
471.896	2088.75
477.596	2086.42
483.29	2071.08
488.978	2067.42
494.66	2036.42
500.335	2014.42
506.005	1984.08
511.668	1932.08
517.325	1891.75
522.977	1852.42
528.622	1821.08
534.261	1793.42
539.894	1756.75
545.521	1735.75
551.141	1727.75
556.756	1713.75
562.365	1700.42
567.968	1677.42
573.565	1661.75
579.155	1649.08
584.74	1628.42
590.319	1620.42
595.892	1593.08
601.459	1581.08
607.02	1567.42
612.575	1542.42
618.124	1505.42
623.667	1489.75
629.204	1471.75
634.735	1483.42
640.261	1494.08
645.781	1466.42
651.294	1492.75
656.802	1465.75
662.304	1424.75
667.8	1398.75
673.29	1393.08
678.775	1367.75
684.254	1369.75
689.726	1348.75
695.193	1340.08
700.655	1311.08
706.11	1295.42
711.56	1289.08
717.004	1254.42
722.442	1262.42
727.874	1241.08
733.301	1229.75
738.722	1224.42
744.137	1216.75
749.547	1201.08
754.951	1193.08
760.349	1198.42
765.741	1177.42
771.128	1154.42
776.509	1147.08
781.885	1145.08
787.254	1150.42
792.618	1129.75
797.977	1118.42
803.33	1088.08
808.677	1078.08
814.019	1051.42
819.355	1031.08
824.686	1028.75
830.011	1009.75
835.33	1005.42
840.644	981.42
845.952	993.42
851.255	956.42
856.552	945.42
861.844	927.42
867.13	929.75
872.41	928.75
877.686	924.42
882.955	912.75
888.219	905.42
893.478	861.75
898.731	831.42
903.979	798.75
909.221	780.08
914.458	770.42
919.69	762.08
924.916	760.42
930.136	745.75
935.351	726.75
940.561	719.08
945.766	717.08
950.965	711.42
956.158	700.08
961.347	691.75
966.529	672.08
971.707	662.42
976.879	641.08
982.046	641.42
987.208	616.08
992.364	620.75
997.515	627.08
1002.66	641.42
1007.801	638.75
1012.936	642.42
1018.066	641.08
1023.19	626.42
1028.309	632.42
1033.423	635.42
1038.532	639.42
1043.636	625.75
1048.734	623.75
1053.827	611.75
1058.915	606.75
1063.998	598.42
1069.075	587.08
1074.147	592.42
1079.214	598.42
1084.276	596.75
1089.333	605.08
1094.385	600.75
1099.431	600.75
1104.472	586.75
1109.509	583.42
1114.54	585.75
1119.565	568.42
1124.586	560.08
1129.602	543.75
1134.613	546.08
1139.618	539.75
1144.619	538.75
1149.614	543.08
1154.604	546.75
1159.589	547.42
1164.57	541.42
1169.545	544.42
1174.515	545.08
1179.48	529.08
1184.44	534.08
1189.395	519.75
1194.345	521.42
1199.29	514.42
1204.23	523.08
1209.165	512.42
1214.095	526.08
1219.021	522.42
1223.941	528.08
1228.856	536.42
1233.766	535.75
1238.672	530.42
1243.572	520.42
1248.467	527.42
1253.358	511.08
1258.244	505.08
1263.124	503.08
1268	487.75
1272.871	476.75
1277.737	475.42
1282.599	468.08
1287.455	464.08
1292.306	472.08
1297.153	468.08
1301.995	470.08
1306.832	471.75
1311.664	478.08
1316.491	466.08
1321.314	463.08
1326.132	473.75
1330.945	447.08
1335.753	433.75
1340.556	428.08
1345.354	417.08
1350.148	417.42
1354.937	411.75
1359.722	400.08
1364.501	408.08
1369.276	405.08
1374.046	395.08
1378.811	399.08
1383.572	404.42
1388.327	404.08
1393.079	398.75
1397.825	384.08
1402.567	385.75
1407.304	380.42
1412.036	371.42
1416.764	372.42
1421.487	373.42
1426.205	376.75
1430.919	373.42
1435.628	374.08
1440.333	383.42
1445.032	389.75
1449.727	398.08
1454.418	399.08
1459.104	405.42
1463.785	395.75
1468.462	389.08
1473.134	373.42
1477.802	378.08
1482.465	370.75
1487.123	369.42
1491.777	360.42
1496.426	370.08
1501.071	369.75
1505.711	383.75
1510.347	389.08
1514.978	396.75
1519.604	410.42
1524.226	405.75
1528.844	411.08
1533.457	406.42
1538.065	414.08
1542.669	421.08
1547.269	428.42
1551.864	430.42
1556.454	443.75
1561.041	453.75
1565.622	453.42
1570.199	474.42
1574.772	488.08
1579.34	515.42
1583.904	524.75
1588.464	556.75
1593.019	567.42
1597.569	579.42
1602.115	600.75
1606.657	623.08
1611.195	636.75
1615.728	651.75
1620.256	679.08
1624.78	700.08
1629.3	718.42
1633.816	745.75
1638.327	757.42
1642.834	757.08
1647.336	774.42
1651.834	777.08
1656.328	766.42
1660.817	756.75
1665.302	735.42
1669.783	691.08
1674.259	664.42
1678.732	634.75
1683.199	596.75
1687.663	563.08
1692.122	507.75
1696.577	468.08
1701.028	451.75
1705.474	419.75
1709.917	399.42
1714.355	361.75
1718.788	346.08
1723.218	324.42
1727.643	298.42
1732.064	275.42
1736.481	260.08
1740.893	242.75
1745.301	222.08
1749.705	203.08
1754.105	193.08
1758.501	183.75
1762.893	172.08
1767.28	151.75
1771.663	145.75
1776.042	150.08
1780.417	136.42
1784.787	132.75
1789.154	130.75
1793.516	127.42
1797.874	125.08
1802.228	122.08
1806.578	112.42
1810.924	116.75
1815.266	106.08
1819.603	103.08
1823.937	101.42
1828.266	97.75
1832.591	102.42
1836.913	87.42
1841.23	91.08
1845.543	88.75
1849.852	83.42
1854.156	85.42
1858.457	83.42
1862.754	89.42
1867.047	80.75
1871.335	77.08
1875.62	83.08
1879.9	95.42
1884.177	84.75
1888.449	79.42
1892.718	80.08
1896.982	88.75
1901.243	86.08
1905.499	83.42
1909.752	85.75
1914	76.75
1918.245	83.42
1922.485	88.42
1926.722	87.08
1930.954	87.75
1935.183	91.08
1939.408	90.08
1943.628	93.08
1947.845	100.75
1952.058	94.75
1956.267	91.42
1960.472	94.42
1964.673	91.75
1968.87	94.75
1973.063	90.08
1977.252	92.42
1981.438	90.42
1985.619	88.75
1989.797	88.75
1993.971	99.42
1998.14	92.42
2002.306	92.42
2006.469	93.08
2010.627	98.08
2014.781	103.42
2018.932	98.08
2023.078	91.75
2027.221	96.08
2031.36	106.08
2035.495	92.08
2039.627	99.75
2043.754	96.75
2047.878	105.75
2051.998	105.08
2056.114	100.42
2060.226	107.75
2064.334	106.75
2068.439	116.08
2072.54	110.75
2076.637	117.08
2080.73	119.42
2084.82	121.08
2088.906	111.75
2092.988	114.08
2097.066	114.08
2101.14	116.75
2105.211	114.08
2109.278	107.08
2113.342	108.75
2117.401	109.42
2121.457	100.75
2125.509	100.42
2129.558	105.08
2133.602	97.08
2137.643	93.75
2141.681	98.42
2145.714	99.75
2149.744	89.42
2153.77	96.08
2157.793	88.75
2161.812	80.08
2165.827	81.08
2169.838	76.75
2173.846	67.08
2177.851	69.08
2181.851	64.75
2185.848	56.08
2189.841	54.75
2193.831	55.08
2197.817	50.08
2201.799	45.75
2205.778	44.75
2209.753	40.75
2213.725	45.08
2217.693	44.42
2221.657	38.75
2225.618	34.75
2229.575	41.42
2233.529	33.08
2237.479	33.08
2241.425	29.08
2245.368	22.42
2249.307	18.75
2253.243	15.08
2257.175	9.42
2261.104	6.08
2265.029	2.75
2268.95	-0.25
2272.868	2.08
2276.783	-3.25
2280.694	-0.25
2284.601	-2.92
2288.505	-8.25
2292.405	-9.58
2296.302	-8.92
2300.195	-10.58
2304.085	-12.25
2307.971	-11.92
2311.854	-15.25
2315.734	-16.92
2319.609	-19.92
2323.482	-26.92
2327.351	-23.25
2331.216	-23.58
2335.078	-23.92
2338.937	-27.58
2342.792	-31.58
2346.643	-34.58
2350.492	-32.25
2354.336	-34.92
2358.178	-40.25
2362.015	-32.92
2365.85	-37.58
2369.681	-32.25
2373.508	-35.25
2377.333	-35.58
2381.153	-37.92
2384.971	-35.92
2388.785	-36.92
2392.595	-41.58
2396.402	-39.58
2400.206	-38.92
2404.007	-43.25
2407.804	-42.58
2411.597	-41.92
2415.388	-47.25
2419.174	-52.58
2422.958	-46.58
2426.738	-44.58
2430.515	-48.92
2434.289	-49.25
2438.059	-50.58
2441.825	-46.92
2445.589	-49.58
2449.349	-47.25
2453.106	-51.92
2456.859	-49.58
2460.61	-52.58
2464.356	-52.58
2468.1	-53.25
2471.84	-51.92
2475.577	-52.92
2479.311	-52.92
2483.041	-55.25
2486.768	-52.25
2490.492	-57.58
2494.213	-52.92
2497.93	-57.92
2501.644	-58.92
2505.355	-58.58
2509.062	-57.92
2512.766	-59.92
2516.467	-56.58
2520.165	-59.25
2523.859	-59.58
2527.551	-55.92
2531.239	-52.25
2534.923	-56.25
2538.605	-61.58
2542.283	-59.25
2545.958	-58.25
2549.63	-57.92
2553.299	-59.25
2556.964	-59.58
2560.626	-59.92
2564.285	-56.58
2567.941	-59.92
2571.594	-57.92
2575.243	-63.92
2578.89	-66.92
2582.533	-63.92
2586.173	-66.25
2589.809	-65.25
2593.443	-65.25
2597.073	-63.58
2600.701	-67.92
2604.325	-63.58
2607.946	-68.25
2611.564	-67.58
2615.178	-65.92
2618.79	-63.92
2622.398	-61.58
2626.004	-63.58
2629.606	-65.25
2633.205	-63.58
2636.801	-66.58
2640.394	-64.92
2643.983	-68.92
2647.57	-66.58
2651.153	-70.92
2654.734	-67.92
2658.311	-66.25
2661.885	-73.58
2665.456	-66.58
2669.025	-70.25
2672.589	-65.92
2676.151	-65.92
2679.71	-63.25
2683.266	-63.58
2686.819	-68.92
2690.368	-61.58
2693.915	-63.25
2697.458	-66.25
2700.999	-64.92
2704.536	-63.58
2708.071	-65.58
2711.602	-67.58
2715.13	-65.25
2718.656	-65.58
2722.178	-64.58
2725.697	-67.25
2729.214	-58.25
2732.727	-60.58
2736.237	-63.25
2739.744	-61.92
2743.249	-62.92
2746.75	-58.25
2750.248	-58.92
2753.743	-55.58
2757.236	-54.92
2760.725	-50.92
2764.211	-52.58
2767.695	-51.58
2771.175	-49.58
2774.652	-45.25
2778.127	-51.25
2781.598	-46.92
2785.067	-47.92
2788.532	-48.58
2791.995	-48.92
2795.455	-45.58
2798.911	-45.58
2802.365	-44.58
2805.816	-45.92
2809.264	-37.25
2812.709	-35.92
2816.151	-36.58
2819.59	-30.58
2823.026	-32.25
2826.46	-32.25
2829.89	-26.58
2833.318	-14.92
2836.742	-21.25
2840.164	-17.92
2843.583	-10.92
2846.999	-11.92
2850.412	-11.92
2853.822	-8.25
2857.229	-2.92
2860.634	-4.92
2864.035	-0.58
2867.434	0.75
2870.83	6.08
2874.223	10.75
2877.613	16.08
2881	12.42
2884.385	23.42
2887.766	22.75
2891.145	27.08
2894.521	32.75
2897.894	36.08
2901.264	36.08
2904.631	38.75
2907.996	38.08
2911.358	46.08
2914.717	46.42
2918.073	57.08
2921.426	56.75
2924.777	65.08
2928.124	61.75
2931.469	71.08
2934.811	82.42
2938.15	87.08
2941.487	92.42
2944.821	95.08
2948.152	93.42
2951.48	94.75
2954.805	104.08
2958.128	107.42
2961.447	103.75
2964.765	122.08
2968.079	123.08
2971.39	134.42
2974.699	145.75
2978.005	149.75
2981.308	156.42
2984.609	168.08
2987.907	179.75
2991.202	192.42
2994.494	196.08
2997.784	214.08
3001.07	216.75
3004.355	225.75
3007.636	235.08
3010.915	232.08
3014.191	244.75
3017.464	252.08
3020.734	258.75
3024.002	266.75
3027.267	270.08
3030.53	289.42
3033.789	290.42
3037.046	306.75
3040.301	315.75
3043.552	321.42
3046.801	341.08
3050.048	351.42
3053.291	374.75
3056.532	383.08
3059.771	410.42
3063.006	420.08
3066.239	432.42
3069.469	457.75
3072.697	473.08
3075.922	484.75
3079.144	508.08
3082.364	527.75
3085.581	538.42
3088.795	552.08
3092.007	582.75
3095.216	578.75
3098.423	607.08
3101.627	616.42
3104.828	640.75
3108.026	667.08
3111.222	688.75
3114.416	724.08
3117.607	730.75
3120.795	736.08
3123.98	779.75
3127.163	789.42
3130.344	826.42
3133.521	833.75
3136.696	853.42
3139.869	877.75
3143.039	897.08
3146.206	908.42
3149.371	923.42
3152.533	939.75
3155.693	931.75
3158.85	958.42
3162.005	962.75
3165.157	961.75
3168.306	967.08
3171.453	968.75
3174.597	979.42
3177.739	978.42
3180.878	977.08
3184.014	1004.42
3187.149	1009.08
3190.28	1018.08
3193.409	1030.08
3196.536	1021.75
3199.659	1011.42
3202.781	1034.08
3205.9	1047.42
3209.016	1035.75
3212.13	1030.42
3215.241	1029.08
3218.35	1038.75
3221.456	1029.75
3224.56	1013.42
3227.661	1017.42
3230.76	1011.08
3233.856	987.42
3236.95	989.75
3240.041	988.42
3243.13	984.42
3246.216	986.42
3249.3	975.75
3252.382	978.75
3255.46	975.08
3258.537	976.42
3261.611	967.75
3264.682	967.08
3267.751	968.08
3270.818	957.08
3273.882	945.08
3276.943	939.08
3280.002	939.42
3283.059	930.75
3286.113	907.75
3289.165	917.75
3292.214	898.75
3295.261	874.08
3298.306	866.08
3301.348	859.75
3304.387	836.08
3307.425	826.08
3310.459	819.08
3313.492	805.08
3316.521	805.08
3319.549	790.75
3322.574	782.75
3325.597	775.75
3328.617	775.42
3331.635	772.08
3334.65	776.42
3337.663	770.75
3340.674	765.42
3343.682	768.42
3346.688	768.75
3349.691	761.42
3352.692	755.42
3355.691	743.75
3358.687	742.08
3361.681	727.42
3364.673	720.08
3367.662	722.42
3370.649	719.42
3373.633	708.75
3376.615	698.75
3379.595	681.42
3382.572	677.42
3385.547	670.08
3388.52	668.75
3391.49	659.08
3394.458	649.75
3397.424	641.75
3400.387	629.75
3403.348	618.42
3406.307	616.08
3409.263	606.08
3412.217	605.42
3415.168	614.42
3418.118	601.75
3421.065	592.42
3424.009	585.08
3426.951	579.08
3429.891	582.42
3432.829	570.42
3435.764	547.75
3438.697	540.42
3441.628	535.42
3444.557	514.42
3447.483	508.08
3450.407	492.08
3453.328	480.08
3456.247	459.42
3459.164	447.42
3462.079	435.08
3464.991	422.08
3467.902	414.42
3470.809	391.08
3473.715	385.08
3476.618	372.08
3479.519	361.42
3482.418	347.42
3485.315	343.08
3488.209	331.42
3491.101	319.75
3493.99	321.75
3496.878	306.75
3499.763	297.42
3502.646	291.08
3505.527	274.75
3508.405	264.75
3511.281	251.75
3514.155	241.75
3517.027	237.42
3519.897	220.08
3522.764	215.42
3525.629	198.75
3528.492	185.08
3531.352	173.42
3534.211	164.42
3537.067	154.75
3539.921	144.42
3542.773	137.42
3545.622	125.42
3548.469	122.75
3551.315	115.42
3554.157	107.42
3556.998	99.42
3559.837	96.42
3562.673	84.08
3565.507	76.75
3568.339	75.75
3571.169	67.08
3573.996	61.08
3576.822	51.75
3579.645	47.08
3582.466	43.75
3585.285	35.75
3588.101	30.42
3590.916	21.75
3593.728	23.42
3596.538	20.08
3599.346	11.42
3602.152	8.08
3604.956	5.75
3607.757	-3.92
3610.556	-6.25
3613.354	-8.25
3616.149	-9.58
3618.942	-15.92
3621.732	-21.92
3624.521	-24.92
3627.307	-26.25
3630.092	-33.58
3632.874	-29.92
3635.654	-35.58
3638.432	-36.58
3641.208	-40.25
3643.982	-44.58
3646.753	-43.58
3649.523	-44.92
3652.29	-49.92
3655.055	-53.25
3657.818	-52.92
3660.579	-60.58
3663.338	-63.92
3666.095	-61.58
3668.849	-63.92
3671.602	-65.58
3674.352	-67.58
3677.101	-70.92
3679.847	-67.92
3682.591	-75.92
3685.333	-76.25
3688.073	-78.58
3690.811	-83.92
3693.547	-86.92
3696.281	-81.25
3699.013	-86.25
3701.742	-84.58
3704.47	-84.58
3707.195	-85.92
3709.919	-85.92
3712.64	-90.92
3715.359	-90.25
3718.076	-89.25
3720.792	-92.58
3723.505	-92.25
3726.216	-94.25
3728.925	-90.92
3731.632	-93.92
3734.336	-95.25
3737.039	-99.25
3739.74	-92.92
3742.439	-100.58
3745.136	-99.92
3747.83	-102.92
3750.523	-103.25
3753.213	-100.92
3755.902	-104.58
3758.589	-101.92
3761.273	-100.25
3763.956	-102.92
3766.636	-101.92
3769.315	-101.92
3771.991	-100.58
3774.665	-104.58
3777.338	-101.25
3780.008	-104.58
3782.677	-100.58
3785.343	-100.58
3788.007	-106.92
3790.67	-107.92
3793.33	-102.25
3795.989	-105.25
3798.645	-109.25
3801.299	-109.25
3803.952	-105.92
3806.602	-106.58
3809.251	-108.58
3811.897	-108.25
3814.542	-108.25
3817.184	-108.58
3819.825	-106.25
3822.463	-106.58
3825.1	-108.25
3827.735	-107.58
3830.367	-104.92
3832.998	-105.58
3835.627	-104.92
3838.253	-107.58
3840.878	-108.58
3843.501	-107.92
3846.122	-108.58
3848.741	-107.25
3851.358	-107.92
3853.973	-110.25
3856.586	-109.58
3859.197	-109.25
3861.806	-109.25
3864.414	-110.58
3867.019	-110.25
3869.622	-105.25
3872.224	-107.25
3874.823	-106.25
3877.421	-102.58
3880.016	-96.58
3882.61	-88.25
3885.202	-86.58
3887.792	-92.25
3890.38	-99.92
3892.966	-103.92
3895.55	-106.25
3898.132	-107.92
3900.713	-111.25
3903.291	-110.58
3905.868	-112.25
3908.442	-113.92
3911.015	-112.25
3913.586	-114.25
3916.155	-113.58
3918.722	-114.25
3921.287	-113.58
3923.85	-113.58
3926.411	-112.58
3928.971	-110.92
3931.528	-110.92
3934.084	-111.25
3936.638	-111.58
3939.19	-112.25
3941.74	-111.25
3944.288	-112.92
3946.834	-114.25
3949.378	-111.25
3951.921	-107.58
3954.462	-109.25
3957	-109.25
3959.537	-110.25
3962.072	-111.25
3964.606	-115.25
3967.137	-111.25
3969.667	-110.92
3972.194	-114.25
3974.72	-112.25
3977.244	-112.58
3979.766	-111.58
3982.286	-109.92
3984.805	-109.25
3987.321	-108.92
3989.836	-107.25
3992.349	-109.25
3994.86	-110.25
3997.369	-107.92
3999.877	-108.92
4002.382	-107.92
4004.886	-104.92
4007.388	-105.58
4009.888	-107.25
4012.386	-109.58
4014.883	-110.58
4017.377	-109.92
4019.87	-111.25
4022.361	-112.25
4024.85	-111.92
4027.338	-115.25
4029.823	-113.58
4032.307	-113.25
4034.789	-110.25
4037.269	-109.25
4039.747	-109.25
4042.224	-109.58
4044.699	-110.58
4047.172	-110.58
4049.643	-108.92
4052.112	-108.25
4054.58	-110.25
4057.046	-109.25
4059.51	-109.92
4061.972	-106.25
4064.432	-112.58
4066.891	-110.92
4069.348	-110.25
4071.803	-111.25
4074.256	-112.58
4076.708	-111.92
4079.158	-113.25
4081.606	-115.58
4084.052	-113.25
4086.497	-111.92
4088.939	-110.92
4091.38	-112.92
4093.819	-114.92
4096.257	-111.92
4098.693	-112.92
4101.127	-113.58
4103.559	-114.92
4105.989	-72.58
4108.418	-70.58
4110.845	-67.58
4113.27	-59.58
4115.694	-52.92
4118.115	-47.25
4120.535	-109.58
4122.954	-112.25
4125.37	-109.25
4127.785	-109.58
4130.198	-108.58
4132.609	-110.25
4135.019	-112.58
4137.427	-113.92
4139.833	-111.25
4142.237	-115.58
