Data from Saline_log5 (I=1 T=5x1 V=3ml)_RamanShift_2.txt Node
Date: Mon Jun 05 14:17:16 IDT 2017
User: aro
Spectrometer: QEPB0276
Trigger mode: 0
Integration Time (sec): 5.000000E0
Scans to average: 1
Electric dark correction enabled: true
Nonlinearity correction enabled: false
Boxcar width: 0
XAxis mode: Raman Shifts
Number of Pixels in Spectrum: 1044
>>>>>Begin Spectral Data<<<<<
160.701	-29.62
166.742	-0.96
172.777	90.04
178.805	390.38
184.826	1129.71
190.841	2321.71
196.849	3692.04
202.85	4599.04
208.845	4811.38
214.833	4609.38
220.815	4429.04
226.789	4272.04
232.758	4119.38
238.719	3981.71
244.674	3812.71
250.623	3608.38
256.565	3435.71
262.5	3254.38
268.429	3075.04
274.351	2945.04
280.267	2788.04
286.176	2664.71
292.079	2562.71
297.975	2481.04
303.865	2406.71
309.748	2326.38
315.625	2283.04
321.495	2247.04
327.359	2190.38
333.217	2200.04
339.068	2167.38
344.912	2131.71
350.751	2140.04
356.583	2150.04
362.408	2113.04
368.227	2143.38
374.04	2157.04
379.847	2188.71
385.647	2203.71
391.44	2169.04
397.228	2184.38
403.009	2184.04
408.784	2218.04
414.553	2297.04
420.315	2360.71
426.071	2370.04
431.821	2280.71
437.565	2208.04
443.302	2187.04
449.033	2173.38
454.758	2144.71
460.477	2128.04
466.189	2123.38
471.896	2088.38
477.596	2084.04
483.29	2052.71
488.978	2039.04
494.66	2034.04
500.335	1975.04
506.005	1956.71
511.668	1903.71
517.325	1855.38
522.977	1808.04
528.622	1798.71
534.261	1771.04
539.894	1748.38
545.521	1718.38
551.141	1710.38
556.756	1698.38
562.365	1687.04
567.968	1669.04
573.565	1664.38
579.155	1626.71
584.74	1616.04
590.319	1604.04
595.892	1564.71
601.459	1561.71
607.02	1544.04
612.575	1530.04
618.124	1496.04
623.667	1475.38
629.204	1468.38
634.735	1457.04
640.261	1461.71
645.781	1473.04
651.294	1464.38
656.802	1432.38
662.304	1402.38
667.8	1362.38
673.29	1356.71
678.775	1330.38
684.254	1351.38
689.726	1331.38
695.193	1297.71
700.655	1302.71
706.11	1268.04
711.56	1266.71
717.004	1250.04
722.442	1236.04
727.874	1219.71
733.301	1205.38
738.722	1186.04
744.137	1185.38
749.547	1170.71
754.951	1169.71
760.349	1152.04
765.741	1153.04
771.128	1138.04
776.509	1131.71
781.885	1121.71
787.254	1116.04
792.618	1093.38
797.977	1103.04
803.33	1074.71
808.677	1059.71
814.019	1046.04
819.355	1014.71
824.686	1003.38
830.011	997.38
835.33	976.04
840.644	969.04
845.952	942.04
851.255	946.04
856.552	923.04
861.844	915.04
867.13	911.38
872.41	904.38
877.686	904.04
882.955	896.38
888.219	870.04
893.478	821.38
898.731	798.04
903.979	767.38
909.221	758.71
914.458	749.04
919.69	734.71
924.916	729.04
930.136	718.38
935.351	707.38
940.561	705.71
945.766	694.71
950.965	680.04
956.158	670.71
961.347	650.38
966.529	640.71
971.707	630.04
976.879	613.71
982.046	617.04
987.208	603.71
992.364	603.38
997.515	601.71
1002.66	611.04
1007.801	598.38
1012.936	615.04
1018.066	599.71
1023.19	614.04
1028.309	616.04
1033.423	610.04
1038.532	602.04
1043.636	602.38
1048.734	586.38
1053.827	591.38
1058.915	581.38
1063.998	583.04
1069.075	575.71
1074.147	570.04
1079.214	567.04
1084.276	575.38
1089.333	575.71
1094.385	580.38
1099.431	568.38
1104.472	570.38
1109.509	562.04
1114.54	558.38
1119.565	542.04
1124.586	531.71
1129.602	515.38
1134.613	519.71
1139.618	505.38
1144.619	518.38
1149.614	516.71
1154.604	512.38
1159.589	518.04
1164.57	510.04
1169.545	511.04
1174.515	509.71
1179.48	514.71
1184.44	502.71
1189.395	497.38
1194.345	500.04
1199.29	498.04
1204.23	491.71
1209.165	497.04
1214.095	495.71
1219.021	494.04
1223.941	508.71
1228.856	506.04
1233.766	512.38
1238.672	502.04
1243.572	507.04
1248.467	506.04
1253.358	477.71
1258.244	489.71
1263.124	467.71
1268	469.38
1272.871	456.38
1277.737	459.04
1282.599	450.71
1287.455	454.71
1292.306	443.71
1297.153	449.71
1301.995	444.71
1306.832	441.38
1311.664	455.71
1316.491	452.71
1321.314	451.71
1326.132	432.38
1330.945	427.71
1335.753	418.38
1340.556	406.71
1345.354	396.71
1350.148	398.04
1354.937	408.38
1359.722	385.71
1364.501	392.71
1369.276	387.71
1374.046	383.71
1378.811	379.71
1383.572	377.04
1388.327	388.71
1393.079	383.38
1397.825	367.71
1402.567	358.38
1407.304	359.04
1412.036	353.04
1416.764	357.04
1421.487	362.04
1426.205	352.38
1430.919	352.04
1435.628	376.71
1440.333	362.04
1445.032	380.38
1449.727	391.71
1454.418	382.71
1459.104	389.04
1463.785	376.38
1468.462	373.71
1473.134	359.04
1477.802	351.71
1482.465	357.38
1487.123	361.04
1491.777	356.04
1496.426	361.71
1501.071	373.38
1505.711	375.38
1510.347	382.71
1514.978	389.38
1519.604	400.04
1524.226	401.38
1528.844	406.71
1533.457	392.04
1538.065	409.71
1542.669	410.71
1547.269	429.04
1551.864	426.04
1556.454	437.38
1561.041	446.38
1565.622	442.04
1570.199	464.04
1574.772	480.71
1579.34	485.04
1583.904	518.38
1588.464	546.38
1593.019	556.04
1597.569	580.04
1602.115	586.38
1606.657	619.71
1611.195	636.38
1615.728	659.38
1620.256	688.71
1624.78	705.71
1629.3	733.04
1633.816	738.38
1638.327	758.04
1642.834	772.71
1647.336	790.04
1651.834	774.71
1656.328	764.04
1660.817	754.38
1665.302	730.04
1669.783	698.71
1674.259	668.04
1678.732	636.38
1683.199	593.38
1687.663	544.71
1692.122	514.38
1696.577	473.71
1701.028	452.38
1705.474	421.38
1709.917	393.04
1714.355	364.38
1718.788	344.71
1723.218	323.04
1727.643	295.04
1732.064	277.04
1736.481	256.71
1740.893	236.38
1745.301	222.71
1749.705	202.71
1754.105	179.71
1758.501	180.38
1762.893	160.71
1767.28	143.38
1771.663	142.38
1776.042	138.71
1780.417	135.04
1784.787	128.38
1789.154	124.38
1793.516	120.04
1797.874	123.71
1802.228	116.71
1806.578	106.04
1810.924	108.38
1815.266	114.71
1819.603	93.71
1823.937	91.04
1828.266	94.38
1832.591	88.04
1836.913	89.04
1841.23	81.71
1845.543	81.38
1849.852	79.04
1854.156	75.04
1858.457	84.04
1862.754	75.04
1867.047	78.38
1871.335	78.71
1875.62	85.71
1879.9	77.04
1884.177	76.38
1888.449	71.04
1892.718	72.71
1896.982	82.38
1901.243	76.71
1905.499	75.04
1909.752	76.38
1914	79.38
1918.245	86.04
1922.485	82.04
1926.722	88.71
1930.954	93.38
1935.183	96.71
1939.408	95.71
1943.628	87.71
1947.845	94.38
1952.058	102.38
1956.267	92.04
1960.472	94.04
1964.673	90.38
1968.87	90.38
1973.063	87.71
1977.252	88.04
1981.438	87.04
1985.619	84.38
1989.797	86.38
1993.971	89.04
1998.14	92.04
2002.306	83.04
2006.469	93.71
2010.627	92.71
2014.781	95.04
2018.932	101.71
2023.078	100.38
2027.221	96.71
2031.36	104.71
2035.495	96.71
2039.627	91.38
2043.754	99.38
2047.878	105.38
2051.998	102.71
2056.114	100.04
2060.226	102.38
2064.334	111.38
2068.439	112.71
2072.54	109.38
2076.637	108.71
2080.73	115.04
2084.82	124.71
2088.906	117.38
2092.988	122.71
2097.066	118.71
2101.14	119.38
2105.211	119.71
2109.278	116.71
2113.342	116.38
2117.401	110.04
2121.457	103.38
2125.509	107.04
2129.558	103.71
2133.602	100.71
2137.643	101.38
2141.681	100.04
2145.714	97.38
2149.744	90.04
2153.77	90.71
2157.793	79.38
2161.812	83.71
2165.827	78.71
2169.838	81.38
2173.846	75.71
2177.851	67.71
2181.851	64.38
2185.848	61.71
2189.841	55.38
2193.831	53.71
2197.817	50.71
2201.799	49.38
2205.778	46.38
2209.753	38.38
2213.725	40.71
2217.693	45.04
2221.657	46.38
2225.618	34.38
2229.575	36.04
2233.529	37.71
2237.479	27.71
2241.425	27.71
2245.368	23.04
2249.307	14.38
2253.243	13.71
2257.175	14.04
2261.104	11.71
2265.029	4.38
2268.95	-0.62
2272.868	1.71
2276.783	-0.62
2280.694	-4.62
2284.601	-4.29
2288.505	-10.62
2292.405	-5.96
2296.302	-8.29
2300.195	-9.96
2304.085	-15.62
2307.971	-16.29
2311.854	-15.62
2315.734	-20.29
2319.609	-23.29
2323.482	-26.29
2327.351	-27.62
2331.216	-24.96
2335.078	-31.29
2338.937	-33.96
2342.792	-36.96
2346.643	-36.96
2350.492	-32.62
2354.336	-38.29
2358.178	-35.62
2362.015	-34.29
2365.85	-32.96
2369.681	-36.62
2373.508	-35.62
2377.333	-42.96
2381.153	-38.29
2384.971	-38.29
2388.785	-35.29
2392.595	-39.96
2396.402	-42.96
2400.206	-41.29
2404.007	-44.62
2407.804	-46.96
2411.597	-47.29
2415.388	-47.62
2419.174	-45.96
2422.958	-50.96
2426.738	-47.96
2430.515	-49.29
2434.289	-46.62
2438.059	-53.96
2441.825	-49.29
2445.589	-50.96
2449.349	-48.62
2453.106	-48.29
2456.859	-51.96
2460.61	-52.96
2464.356	-51.96
2468.1	-54.62
2471.84	-54.29
2475.577	-54.29
2479.311	-55.29
2483.041	-59.62
2486.768	-59.62
2490.492	-57.96
2494.213	-51.29
2497.93	-59.29
2501.644	-56.29
2505.355	-58.96
2509.062	-59.29
2512.766	-57.29
2516.467	-56.96
2520.165	-57.62
2523.859	-55.96
2527.551	-56.29
2531.239	-62.62
2534.923	-58.62
2538.605	-62.96
2542.283	-61.62
2545.958	-59.62
2549.63	-62.29
2553.299	-60.62
2556.964	-61.96
2560.626	-63.29
2564.285	-65.96
2567.941	-58.29
2571.594	-58.29
2575.243	-62.29
2578.89	-60.29
2582.533	-61.29
2586.173	-65.62
2589.809	-61.62
2593.443	-65.62
2597.073	-64.96
2600.701	-63.29
2604.325	-64.96
2607.946	-64.62
2611.564	-67.96
2615.178	-67.29
2618.79	-67.29
2622.398	-63.96
2626.004	-65.96
2629.606	-67.62
2633.205	-67.96
2636.801	-67.96
2640.394	-70.29
2643.983	-69.29
2647.57	-69.96
2651.153	-69.29
2654.734	-67.29
2658.311	-63.62
2661.885	-67.96
2665.456	-64.96
2669.025	-66.62
2672.589	-65.29
2676.151	-68.29
2679.71	-63.62
2683.266	-64.96
2686.819	-64.29
2690.368	-65.96
2693.915	-67.62
2697.458	-60.62
2700.999	-64.29
2704.536	-66.96
2708.071	-63.96
2711.602	-67.96
2715.13	-66.62
2718.656	-64.96
2722.178	-65.96
2725.697	-65.62
2729.214	-59.62
2732.727	-56.96
2736.237	-58.62
2739.744	-62.29
2743.249	-59.29
2746.75	-56.62
2750.248	-53.29
2753.743	-53.96
2757.236	-51.29
2760.725	-50.29
2764.211	-50.96
2767.695	-51.96
2771.175	-47.96
2774.652	-47.62
2778.127	-51.62
2781.598	-49.29
2785.067	-43.29
2788.532	-48.96
2791.995	-49.29
2795.455	-45.96
2798.911	-46.96
2802.365	-40.96
2805.816	-35.29
2809.264	-31.62
2812.709	-34.29
2816.151	-35.96
2819.59	-30.96
2823.026	-26.62
2826.46	-23.62
2829.89	-22.96
2833.318	-19.29
2836.742	-17.62
2840.164	-17.29
2843.583	-15.29
2846.999	-11.29
2850.412	-10.29
2853.822	-10.62
2857.229	-4.29
2860.634	-0.29
2864.035	-2.96
2867.434	4.38
2870.83	10.71
2874.223	10.38
2877.613	13.71
2881	25.04
2884.385	26.04
2887.766	30.38
2891.145	31.71
2894.521	38.38
2897.894	39.71
2901.264	39.71
2904.631	42.38
2907.996	44.71
2911.358	48.71
2914.717	52.04
2918.073	56.71
2921.426	59.38
2924.777	70.71
2928.124	71.38
2931.469	76.71
2934.811	94.04
2938.15	94.71
2941.487	98.04
2944.821	104.71
2948.152	103.04
2951.48	109.38
2954.805	108.71
2958.128	123.04
2961.447	118.38
2964.765	125.71
2968.079	134.71
2971.39	145.04
2974.699	150.38
2978.005	162.38
2981.308	171.04
2984.609	182.71
2987.907	181.38
2991.202	197.04
2994.494	200.71
2997.784	208.71
3001.07	219.38
3004.355	230.38
3007.636	242.71
3010.915	250.71
3014.191	258.38
3017.464	262.71
3020.734	277.38
3024.002	294.38
3027.267	281.71
3030.53	302.04
3033.789	313.04
3037.046	327.38
3040.301	332.38
3043.552	349.04
3046.801	359.71
3050.048	381.04
3053.291	385.38
3056.532	399.71
3059.771	416.04
3063.006	431.71
3066.239	452.04
3069.469	476.38
3072.697	497.71
3075.922	507.38
3079.144	520.71
3082.364	550.38
3085.581	562.04
3088.795	578.71
3092.007	605.38
3095.216	616.38
3098.423	625.71
3101.627	649.04
3104.828	678.38
3108.026	704.71
3111.222	709.38
3114.416	738.71
3117.607	765.38
3120.795	771.71
3123.98	800.38
3127.163	828.04
3130.344	846.04
3133.521	853.38
3136.696	875.04
3139.869	913.38
3143.039	922.71
3146.206	945.04
3149.371	949.04
3152.533	970.38
3155.693	966.38
3158.85	983.04
3162.005	999.38
3165.157	994.38
3168.306	990.71
3171.453	1019.38
3174.597	1028.04
3177.739	1026.04
3180.878	1019.71
3184.014	1031.04
3187.149	1041.71
3190.28	1037.71
3193.409	1049.71
3196.536	1041.38
3199.659	1056.04
3202.781	1069.71
3205.9	1065.04
3209.016	1066.38
3212.13	1077.04
3215.241	1050.71
3218.35	1052.38
3221.456	1048.38
3224.56	1048.04
3227.661	1050.04
3230.76	1033.71
3233.856	1039.04
3236.95	1022.38
3240.041	1018.04
3243.13	1021.04
3246.216	1021.04
3249.3	1008.38
3252.382	1004.38
3255.46	1002.71
3258.537	994.04
3261.611	994.38
3264.682	989.71
3267.751	981.71
3270.818	989.71
3273.882	988.71
3276.943	972.71
3280.002	981.04
3283.059	954.38
3286.113	939.38
3289.165	935.38
3292.214	930.38
3295.261	919.71
3298.306	888.71
3301.348	878.38
3304.387	871.71
3307.425	858.71
3310.459	842.71
3313.492	843.71
3316.521	826.71
3319.549	821.38
3322.574	812.38
3325.597	801.38
3328.617	807.04
3331.635	792.71
3334.65	786.04
3337.663	779.38
3340.674	776.04
3343.682	794.04
3346.688	779.38
3349.691	785.04
3352.692	778.04
3355.691	768.38
3358.687	768.71
3361.681	760.04
3364.673	749.71
3367.662	752.04
3370.649	743.04
3373.633	737.38
3376.615	721.38
3379.595	717.04
3382.572	695.04
3385.547	687.71
3388.52	688.38
3391.49	678.71
3394.458	676.38
3397.424	667.38
3400.387	661.38
3403.348	658.04
3406.307	647.71
3409.263	641.71
3412.217	640.04
3415.168	633.04
3418.118	629.38
3421.065	618.04
3424.009	614.71
3426.951	606.71
3429.891	588.04
3432.829	580.04
3435.764	565.38
3438.697	562.04
3441.628	555.04
3444.557	546.04
3447.483	518.71
3450.407	507.71
3453.328	497.71
3456.247	482.04
3459.164	467.04
3462.079	450.71
3464.991	434.71
3467.902	420.04
3470.809	410.71
3473.715	391.71
3476.618	392.71
3479.519	372.04
3482.418	365.04
3485.315	358.71
3488.209	349.04
3491.101	335.38
3493.99	328.38
3496.878	318.38
3499.763	319.04
3502.646	299.71
3505.527	288.38
3508.405	280.38
3511.281	268.38
3514.155	262.38
3517.027	244.04
3519.897	239.71
3522.764	218.04
3525.629	211.38
3528.492	199.71
3531.352	184.04
3534.211	176.04
3537.067	155.38
3539.921	147.04
3542.773	144.04
3545.622	132.04
3548.469	120.38
3551.315	119.04
3554.157	112.04
3556.998	108.04
3559.837	101.04
3562.673	91.71
3565.507	87.38
3568.339	84.38
3571.169	76.71
3573.996	66.71
3576.822	65.38
3579.645	57.71
3582.466	49.38
3585.285	42.38
3588.101	38.04
3590.916	38.38
3593.728	29.04
3596.538	20.71
3599.346	19.04
3602.152	10.71
3604.956	6.38
3607.757	2.71
3610.556	-1.62
3613.354	0.38
3616.149	-5.96
3618.942	-10.29
3621.732	-14.29
3624.521	-17.29
3627.307	-20.62
3630.092	-29.96
3632.874	-23.29
3635.654	-27.96
3638.432	-28.96
3641.208	-31.62
3643.982	-36.96
3646.753	-40.96
3649.523	-44.29
3652.29	-46.29
3655.055	-49.62
3657.818	-51.29
3660.579	-55.96
3663.338	-60.29
3666.095	-58.96
3668.849	-65.29
3671.602	-63.96
3674.352	-64.96
3677.101	-66.29
3679.847	-68.29
3682.591	-69.29
3685.333	-71.62
3688.073	-71.96
3690.811	-77.29
3693.547	-77.29
3696.281	-79.62
3699.013	-79.62
3701.742	-85.96
3704.47	-82.96
3707.195	-83.29
3709.919	-88.29
3712.64	-92.29
3715.359	-91.62
3718.076	-91.62
3720.792	-92.96
3723.505	-89.62
3726.216	-92.62
3728.925	-93.29
3731.632	-91.29
3734.336	-93.62
3737.039	-94.62
3739.74	-92.29
3742.439	-94.96
3745.136	-97.29
3747.83	-96.29
3750.523	-96.62
3753.213	-96.29
3755.902	-100.96
3758.589	-97.29
3761.273	-99.62
3763.956	-100.29
3766.636	-102.29
3769.315	-102.29
3771.991	-103.96
3774.665	-100.96
3777.338	-100.62
3780.008	-101.96
3782.677	-104.96
3785.343	-99.96
3788.007	-103.29
3790.67	-103.29
3793.33	-102.62
3795.989	-101.62
3798.645	-103.62
3801.299	-103.62
3803.952	-102.29
3806.602	-103.96
3809.251	-102.96
3811.897	-105.62
3814.542	-107.62
3817.184	-104.96
3819.825	-106.62
3822.463	-104.96
3825.1	-107.62
3827.735	-107.96
3830.367	-109.29
3832.998	-107.96
3835.627	-106.29
3838.253	-108.96
3840.878	-106.96
3843.501	-106.29
3846.122	-105.96
3848.741	-106.62
3851.358	-108.29
3853.973	-106.62
3856.586	-106.96
3859.197	-105.62
3861.806	-103.62
3864.414	-106.96
3867.019	-103.62
3869.622	-108.62
3872.224	-107.62
3874.823	-104.62
3877.421	-99.96
3880.016	-94.96
3882.61	-93.62
3885.202	-85.96
3887.792	-90.62
3890.38	-98.29
3892.966	-106.29
3895.55	-108.62
3898.132	-108.29
3900.713	-110.62
3903.291	-109.96
3905.868	-107.62
3908.442	-107.29
3911.015	-107.62
3913.586	-107.62
3916.155	-107.96
3918.722	-112.62
3921.287	-108.96
3923.85	-109.96
3926.411	-107.96
3928.971	-109.29
3931.528	-111.29
3934.084	-111.62
3936.638	-111.96
3939.19	-112.62
3941.74	-109.62
3944.288	-112.29
3946.834	-111.62
3949.378	-110.62
3951.921	-105.96
3954.462	-106.62
3957	-107.62
3959.537	-108.62
3962.072	-109.62
3964.606	-108.62
3967.137	-106.62
3969.667	-108.29
3972.194	-110.62
3974.72	-108.62
3977.244	-109.96
3979.766	-110.96
3982.286	-108.29
3984.805	-109.62
3987.321	-109.29
3989.836	-107.62
3992.349	-109.62
3994.86	-109.62
3997.369	-111.29
3999.877	-109.29
4002.382	-107.29
4004.886	-107.29
4007.388	-105.96
4009.888	-106.62
4012.386	-104.96
4014.883	-104.96
4017.377	-107.29
4019.87	-107.62
4022.361	-108.62
4024.85	-107.29
4027.338	-107.62
4029.823	-109.96
4032.307	-107.62
4034.789	-109.62
4037.269	-110.62
4039.747	-109.62
4042.224	-110.96
4044.699	-111.96
4047.172	-107.96
4049.643	-110.29
4052.112	-107.62
4054.58	-107.62
4057.046	-109.62
4059.51	-109.29
4061.972	-108.62
4064.432	-108.96
4066.891	-109.29
4069.348	-108.62
4071.803	-106.62
4074.256	-106.96
4076.708	-109.29
4079.158	-109.62
4081.606	-112.96
4084.052	-110.62
4086.497	-111.29
4088.939	-108.29
4091.38	-111.29
4093.819	-110.29
4096.257	-115.29
4098.693	-115.29
4101.127	-113.96
4103.559	-115.29
4105.989	-74.96
4108.418	-68.96
4110.845	-64.96
4113.27	-62.96
4115.694	-53.29
4118.115	-42.62
4120.535	-109.96
4122.954	-109.62
4125.37	-107.62
4127.785	-109.96
4130.198	-107.96
4132.609	-108.62
4135.019	-110.96
4137.427	-111.29
4139.833	-111.62
4142.237	-115.96
