Data from Saline_log8 (I=1 T=5x1 V=3ml)_RamanShift_4.txt Node
Date: Mon Jun 05 14:34:05 IDT 2017
User: aro
Spectrometer: QEPB0276
Trigger mode: 0
Integration Time (sec): 5.000000E0
Scans to average: 1
Electric dark correction enabled: true
Nonlinearity correction enabled: false
Boxcar width: 0
XAxis mode: Raman Shifts
Number of Pixels in Spectrum: 1044
>>>>>Begin Spectral Data<<<<<
160.701	-5.38
166.742	3.29
172.777	23.29
178.805	90.62
184.826	242.96
190.841	492.96
196.849	775.29
202.85	973.29
208.845	1015.62
214.833	983.62
220.815	953.29
226.789	926.29
232.758	905.62
238.719	868.96
244.674	844.96
250.623	811.62
256.565	777.96
262.5	747.62
268.429	713.29
274.351	692.29
280.267	668.29
286.176	665.96
292.079	640.96
297.975	635.29
303.865	614.96
309.748	604.62
315.625	597.29
321.495	593.29
327.359	578.62
333.217	584.29
339.068	582.62
344.912	586.96
350.751	584.29
356.583	595.29
362.408	589.29
368.227	590.62
374.04	605.29
379.847	623.96
385.647	636.96
391.44	624.29
397.228	618.62
403.009	638.29
408.784	647.29
414.553	702.29
420.315	749.96
426.071	761.29
431.821	691.96
437.565	646.29
443.302	628.29
449.033	617.62
454.758	613.96
460.477	614.29
466.189	598.62
471.896	593.62
477.596	579.29
483.29	576.96
488.978	587.29
494.66	572.29
500.335	551.29
506.005	533.96
511.668	500.96
517.325	481.62
522.977	469.29
528.622	453.96
534.261	433.29
539.894	432.62
545.521	424.62
551.141	427.62
556.756	418.62
562.365	419.29
567.968	416.29
573.565	408.62
579.155	398.96
584.74	400.29
590.319	388.29
595.892	387.96
601.459	387.96
607.02	386.29
612.575	391.29
618.124	371.29
623.667	369.62
629.204	364.62
634.735	363.29
640.261	382.96
645.781	389.29
651.294	402.62
656.802	377.62
662.304	357.62
667.8	333.62
673.29	341.96
678.775	336.62
684.254	332.62
689.726	329.62
695.193	324.96
700.655	328.96
706.11	320.29
711.56	311.96
717.004	313.29
722.442	308.29
727.874	302.96
733.301	305.62
738.722	296.29
744.137	307.62
749.547	305.96
754.951	311.96
760.349	306.29
765.741	291.29
771.128	303.29
776.509	300.96
781.885	298.96
787.254	303.29
792.618	300.62
797.977	296.29
803.33	293.96
808.677	299.96
814.019	287.29
819.355	282.96
824.686	279.62
830.011	270.62
835.33	266.29
840.644	261.29
845.952	271.29
851.255	257.29
856.552	252.29
861.844	248.29
867.13	236.62
872.41	239.62
877.686	235.29
882.955	235.62
888.219	230.29
893.478	224.62
898.731	215.29
903.979	212.62
909.221	213.96
914.458	201.29
919.69	200.96
924.916	212.29
930.136	200.62
935.351	201.62
940.561	203.96
945.766	195.96
950.965	195.29
956.158	196.96
961.347	185.62
966.529	179.96
971.707	178.29
976.879	179.96
982.046	174.29
987.208	175.96
992.364	168.62
997.515	183.96
1002.66	174.29
1007.801	171.62
1012.936	171.29
1018.066	170.96
1023.19	189.29
1028.309	187.29
1033.423	181.29
1038.532	181.29
1043.636	179.62
1048.734	177.62
1053.827	175.62
1058.915	174.62
1063.998	173.29
1069.075	171.96
1074.147	172.29
1079.214	164.29
1084.276	169.62
1089.333	178.96
1094.385	170.62
1099.431	170.62
1104.472	168.62
1109.509	164.29
1114.54	162.62
1119.565	157.29
1124.586	155.96
1129.602	158.62
1134.613	156.96
1139.618	150.62
1144.619	157.62
1149.614	153.96
1154.604	155.62
1159.589	154.29
1164.57	159.29
1169.545	156.29
1174.515	162.96
1179.48	157.96
1184.44	153.96
1189.395	150.62
1194.345	149.29
1199.29	144.29
1204.23	147.96
1209.165	150.29
1214.095	153.96
1219.021	153.29
1223.941	147.96
1228.856	154.29
1233.766	152.62
1238.672	152.29
1243.572	148.29
1248.467	154.29
1253.358	139.96
1258.244	141.96
1263.124	138.96
1268	136.62
1272.871	134.62
1277.737	132.29
1282.599	128.96
1287.455	135.96
1292.306	128.96
1297.153	126.96
1301.995	133.96
1306.832	134.62
1311.664	130.96
1316.491	141.96
1321.314	137.96
1326.132	129.62
1330.945	129.96
1335.753	124.62
1340.556	125.96
1345.354	121.96
1350.148	118.29
1354.937	120.62
1359.722	120.96
1364.501	114.96
1369.276	115.96
1374.046	120.96
1378.811	117.96
1383.572	115.29
1388.327	115.96
1393.079	112.62
1397.825	109.96
1402.567	112.62
1407.304	110.29
1412.036	109.29
1416.764	106.29
1421.487	112.29
1426.205	107.62
1430.919	105.29
1435.628	112.96
1440.333	108.29
1445.032	113.62
1449.727	113.96
1454.418	109.96
1459.104	112.29
1463.785	110.62
1468.462	105.96
1473.134	102.29
1477.802	106.96
1482.465	106.62
1487.123	105.29
1491.777	102.29
1496.426	107.96
1501.071	107.62
1505.711	111.62
1510.347	113.96
1514.978	112.62
1519.604	117.29
1524.226	114.62
1528.844	117.96
1533.457	124.29
1538.065	120.96
1542.669	117.96
1547.269	118.29
1551.864	122.29
1556.454	124.62
1561.041	124.62
1565.622	122.29
1570.199	125.29
1574.772	132.96
1579.34	135.29
1583.904	142.62
1588.464	140.62
1593.019	149.29
1597.569	155.29
1602.115	147.62
1606.657	155.96
1611.195	159.62
1615.728	167.62
1620.256	167.96
1624.78	173.96
1629.3	176.29
1633.816	184.62
1638.327	186.29
1642.834	182.96
1647.336	189.29
1651.834	185.96
1656.328	189.29
1660.817	184.62
1665.302	190.29
1669.783	178.96
1674.259	176.29
1678.732	161.62
1683.199	150.62
1687.663	148.96
1692.122	140.62
1696.577	123.96
1701.028	122.62
1705.474	109.62
1709.917	109.29
1714.355	104.62
1718.788	99.96
1723.218	96.29
1727.643	88.29
1732.064	85.29
1736.481	76.96
1740.893	74.62
1745.301	68.96
1749.705	62.96
1754.105	61.96
1758.501	58.62
1762.893	58.96
1767.28	53.62
1771.663	49.62
1776.042	55.96
1780.417	54.29
1784.787	53.62
1789.154	49.62
1793.516	50.29
1797.874	45.96
1802.228	48.96
1806.578	48.29
1810.924	47.62
1815.266	46.96
1819.603	40.96
1823.937	44.29
1828.266	37.62
1832.591	40.29
1836.913	35.29
1841.23	33.96
1845.543	33.62
1849.852	36.29
1854.156	34.29
1858.457	38.29
1862.754	37.29
1867.047	32.62
1871.335	36.96
1875.62	35.96
1879.9	34.29
1884.177	35.62
1888.449	36.29
1892.718	35.96
1896.982	33.62
1901.243	35.96
1905.499	37.29
1909.752	32.62
1914	41.62
1918.245	39.29
1922.485	40.29
1926.722	34.96
1930.954	39.62
1935.183	44.96
1939.408	41.96
1943.628	42.96
1947.845	38.62
1952.058	40.62
1956.267	40.29
1960.472	40.29
1964.673	35.62
1968.87	34.62
1973.063	35.96
1977.252	35.29
1981.438	29.29
1985.619	34.62
1989.797	34.62
1993.971	36.29
1998.14	33.29
2002.306	36.29
2006.469	37.96
2010.627	33.96
2014.781	32.29
2018.932	39.96
2023.078	42.62
2027.221	38.96
2031.36	39.96
2035.495	31.96
2039.627	40.62
2043.754	35.62
2047.878	33.62
2051.998	40.96
2056.114	35.29
2060.226	39.62
2064.334	37.62
2068.439	36.96
2072.54	39.62
2076.637	34.96
2080.73	44.29
2084.82	35.96
2088.906	38.62
2092.988	38.96
2097.066	38.96
2101.14	37.62
2105.211	39.96
2109.278	34.96
2113.342	40.62
2117.401	40.29
2121.457	36.62
2125.509	36.29
2129.558	39.96
2133.602	38.96
2137.643	37.62
2141.681	33.29
2145.714	41.62
2149.744	37.29
2153.77	31.96
2157.793	33.62
2161.812	30.96
2165.827	26.96
2169.838	29.62
2173.846	28.96
2177.851	18.96
2181.851	23.62
2185.848	20.96
2189.841	19.62
2193.831	17.96
2197.817	22.96
2201.799	19.62
2205.778	17.62
2209.753	14.62
2213.725	22.96
2217.693	19.29
2221.657	20.62
2225.618	18.62
2229.575	24.29
2233.529	19.96
2237.479	18.96
2241.425	17.96
2245.368	17.29
2249.307	16.62
2253.243	13.96
2257.175	15.29
2261.104	9.96
2265.029	8.62
2268.95	5.62
2272.868	6.96
2276.783	5.62
2280.694	4.62
2284.601	5.96
2288.505	4.62
2292.405	1.29
2296.302	4.96
2300.195	7.29
2304.085	4.62
2307.971	7.96
2311.854	9.62
2315.734	4.96
2319.609	3.96
2323.482	1.96
2327.351	2.62
2331.216	5.29
2335.078	2.96
2338.937	1.29
2342.792	1.29
2346.643	2.29
2350.492	-0.38
2354.336	-3.04
2358.178	-1.38
2362.015	0.96
2365.85	-5.71
2369.681	-2.38
2373.508	-4.38
2377.333	-2.71
2381.153	-6.04
2384.971	-1.04
2388.785	-2.04
2392.595	-3.71
2396.402	-1.71
2400.206	-4.04
2404.007	-3.38
2407.804	-1.71
2411.597	-4.04
2415.388	-3.38
2419.174	-5.71
2422.958	-4.71
2426.738	-4.71
2430.515	-7.04
2434.289	-3.38
2438.059	-9.71
2441.825	-5.04
2445.589	-6.71
2449.349	-2.38
2453.106	-7.04
2456.859	-6.71
2460.61	-4.71
2464.356	-9.71
2468.1	-9.38
2471.84	-6.04
2475.577	-5.04
2479.311	-10.04
2483.041	-12.38
2486.768	-10.38
2490.492	-9.71
2494.213	-7.04
2497.93	-10.04
2501.644	-8.04
2505.355	-8.71
2509.062	-7.04
2512.766	-10.04
2516.467	-11.71
2520.165	-10.38
2523.859	-6.71
2527.551	-8.04
2531.239	-6.38
2534.923	-12.38
2538.605	-8.71
2542.283	-7.38
2545.958	-2.38
2549.63	-7.04
2553.299	-9.38
2556.964	-9.71
2560.626	-10.04
2564.285	-12.71
2567.941	-9.04
2571.594	-12.04
2575.243	-11.04
2578.89	-11.04
2582.533	-9.04
2586.173	-12.38
2589.809	-10.38
2593.443	-13.38
2597.073	-8.71
2600.701	-9.04
2604.325	-11.71
2607.946	-13.38
2611.564	-7.71
2615.178	-12.04
2618.79	-11.04
2622.398	-7.71
2626.004	-9.71
2629.606	-7.38
2633.205	-9.71
2636.801	-12.71
2640.394	-8.04
2643.983	-9.04
2647.57	-12.71
2651.153	-15.04
2654.734	-14.04
2658.311	-10.38
2661.885	-13.71
2665.456	-14.71
2669.025	-14.38
2672.589	-14.04
2676.151	-11.04
2679.71	-12.38
2683.266	-10.71
2686.819	-11.04
2690.368	-9.71
2693.915	-10.38
2697.458	-8.38
2700.999	-11.04
2704.536	-11.71
2708.071	-11.71
2711.602	-9.71
2715.13	-8.38
2718.656	-10.71
2722.178	-11.71
2725.697	-11.38
2729.214	-10.38
2732.727	-5.71
2736.237	-12.38
2739.744	-11.04
2743.249	-11.04
2746.75	-14.38
2750.248	-15.04
2753.743	-11.71
2757.236	-5.04
2760.725	-11.04
2764.211	-11.71
2767.695	-13.71
2771.175	-7.71
2774.652	-5.38
2778.127	-10.38
2781.598	-6.04
2785.067	-6.04
2788.532	-6.71
2791.995	-7.04
2795.455	-8.71
2798.911	-7.71
2802.365	-5.71
2805.816	-7.04
2809.264	-7.38
2812.709	-6.04
2816.151	-7.71
2819.59	-4.71
2823.026	-4.38
2826.46	-6.38
2829.89	-8.71
2833.318	-4.04
2836.742	-1.38
2840.164	-3.04
2843.583	-1.04
2846.999	-3.04
2850.412	-2.04
2853.822	2.62
2857.229	1.96
2860.634	3.96
2864.035	3.29
2867.434	5.62
2870.83	8.96
2874.223	7.62
2877.613	5.96
2881	11.29
2884.385	8.29
2887.766	9.62
2891.145	9.96
2894.521	11.62
2897.894	10.96
2901.264	15.96
2904.631	12.62
2907.996	8.96
2911.358	11.96
2914.717	13.29
2918.073	17.96
2921.426	17.62
2924.777	19.96
2928.124	19.62
2931.469	19.96
2934.811	23.29
2938.15	19.96
2941.487	20.29
2944.821	25.96
2948.152	27.29
2951.48	24.62
2954.805	27.96
2958.128	30.29
2961.447	28.62
2964.765	31.96
2968.079	35.96
2971.39	34.29
2974.699	37.62
2978.005	40.62
2981.308	43.29
2984.609	46.96
2987.907	47.62
2991.202	46.29
2994.494	46.96
2997.784	53.96
3001.07	52.62
3004.355	61.62
3007.636	55.96
3010.915	60.96
3014.191	63.62
3017.464	61.96
3020.734	59.62
3024.002	69.62
3027.267	66.96
3030.53	71.29
3033.789	75.29
3037.046	78.62
3040.301	77.62
3043.552	76.29
3046.801	88.96
3050.048	93.29
3053.291	92.62
3056.532	98.96
3059.771	103.29
3063.006	109.96
3066.239	114.29
3069.469	114.62
3072.697	120.96
3075.922	121.62
3079.144	128.96
3082.364	128.62
3085.581	133.29
3088.795	135.96
3092.007	142.62
3095.216	145.62
3098.423	146.96
3101.627	145.29
3104.828	160.62
3108.026	164.96
3111.222	170.62
3114.416	176.96
3117.607	184.62
3120.795	186.96
3123.98	190.62
3127.163	196.29
3130.344	207.29
3133.521	209.62
3136.696	210.29
3139.869	211.62
3143.039	226.96
3146.206	224.29
3149.371	225.29
3152.533	229.62
3155.693	233.62
3158.85	235.29
3162.005	243.62
3165.157	242.62
3168.306	236.96
3171.453	239.62
3174.597	236.29
3177.739	243.29
3180.878	249.96
3184.014	248.29
3187.149	248.96
3190.28	252.96
3193.409	244.96
3196.536	242.62
3199.659	256.29
3202.781	252.96
3205.9	253.29
3209.016	254.62
3212.13	255.29
3215.241	246.96
3218.35	254.62
3221.456	251.62
3224.56	256.29
3227.661	249.29
3230.76	251.96
3233.856	243.29
3236.95	245.62
3240.041	246.29
3243.13	244.29
3246.216	245.29
3249.3	241.62
3252.382	236.62
3255.46	237.96
3258.537	238.29
3261.611	239.62
3264.682	241.96
3267.751	234.96
3270.818	236.96
3273.882	237.96
3276.943	233.96
3280.002	227.29
3283.059	228.62
3286.113	221.62
3289.165	215.62
3292.214	222.62
3295.261	219.96
3298.306	212.96
3301.348	209.62
3304.387	202.96
3307.425	203.96
3310.459	197.96
3313.492	209.96
3316.521	196.96
3319.549	203.62
3322.574	201.62
3325.597	193.62
3328.617	192.29
3331.635	192.96
3334.65	193.29
3337.663	183.62
3340.674	194.29
3343.682	194.29
3346.688	187.62
3349.691	190.29
3352.692	187.29
3355.691	188.62
3358.687	190.96
3361.681	186.29
3364.673	180.96
3367.662	180.29
3370.649	183.29
3373.633	183.62
3376.615	170.62
3379.595	175.29
3382.572	168.29
3385.547	172.96
3388.52	165.62
3391.49	166.96
3394.458	160.62
3397.424	155.62
3400.387	158.62
3403.348	162.29
3406.307	155.96
3409.263	150.96
3412.217	159.29
3415.168	150.29
3418.118	152.62
3421.065	149.29
3424.009	148.96
3426.951	147.96
3429.891	149.29
3432.829	144.29
3435.764	140.62
3438.697	129.29
3441.628	134.29
3444.557	135.29
3447.483	125.96
3450.407	126.96
3453.328	116.96
3456.247	116.29
3459.164	110.29
3462.079	112.96
3464.991	107.96
3467.902	101.29
3470.809	98.96
3473.715	101.96
3476.618	97.96
3479.519	89.29
3482.418	90.29
3485.315	87.96
3488.209	88.29
3491.101	88.62
3493.99	79.62
3496.878	79.62
3499.763	75.29
3502.646	72.96
3505.527	71.62
3508.405	68.62
3511.281	67.62
3514.155	61.62
3517.027	60.29
3519.897	54.96
3522.764	54.29
3525.629	55.62
3528.492	49.96
3531.352	45.29
3534.211	44.29
3537.067	40.62
3539.921	37.29
3542.773	38.29
3545.622	30.29
3548.469	32.62
3551.315	29.29
3554.157	31.29
3556.998	28.29
3559.837	27.29
3562.673	26.96
3565.507	28.62
3568.339	21.62
3571.169	25.96
3573.996	15.96
3576.822	22.62
3579.645	14.96
3582.466	13.62
3585.285	12.62
3588.101	10.29
3590.916	6.62
3593.728	7.29
3596.538	7.96
3599.346	4.29
3602.152	1.96
3604.956	5.62
3607.757	2.96
3610.556	4.62
3613.354	-2.38
3616.149	2.29
3618.942	1.96
3621.732	0.96
3624.521	-6.04
3627.307	-1.38
3630.092	-0.71
3632.874	-4.04
3635.654	-7.71
3638.432	-4.71
3641.208	-6.38
3643.982	-7.71
3646.753	-3.71
3649.523	-9.04
3652.29	-9.04
3655.055	-11.38
3657.818	-11.04
3660.579	-16.71
3663.338	-12.04
3666.095	-14.71
3668.849	-17.04
3671.602	-13.71
3674.352	-13.71
3677.101	-13.04
3679.847	-14.04
3682.591	-14.04
3685.333	-17.38
3688.073	-11.71
3690.811	-16.04
3693.547	-16.04
3696.281	-16.38
3699.013	-19.38
3701.742	-20.71
3704.47	-17.71
3707.195	-17.04
3709.919	-19.04
3712.64	-22.04
3715.359	-24.38
3718.076	-22.38
3720.792	-19.71
3723.505	-19.38
3726.216	-24.38
3728.925	-22.04
3731.632	-20.04
3734.336	-23.38
3737.039	-21.38
3739.74	-20.04
3742.439	-22.71
3745.136	-22.04
3747.83	-22.04
3750.523	-21.38
3753.213	-20.04
3755.902	-24.71
3758.589	-21.04
3761.273	-23.38
3763.956	-23.04
3766.636	-21.04
3769.315	-22.04
3771.991	-24.71
3774.665	-27.71
3777.338	-25.38
3780.008	-27.71
3782.677	-24.71
3785.343	-24.71
3788.007	-24.04
3790.67	-23.04
3793.33	-24.38
3795.989	-24.38
3798.645	-26.38
3801.299	-24.38
3803.952	-26.04
3806.602	-24.71
3809.251	-27.71
3811.897	-24.38
3814.542	-28.38
3817.184	-26.71
3819.825	-24.38
3822.463	-23.71
3825.1	-25.38
3827.735	-23.71
3830.367	-26.04
3832.998	-23.71
3835.627	-25.04
3838.253	-25.71
3840.878	-23.71
3843.501	-23.04
3846.122	-22.71
3848.741	-23.38
3851.358	-23.04
3853.973	-23.38
3856.586	-25.71
3859.197	-27.38
3861.806	-25.38
3864.414	-27.71
3867.019	-27.38
3869.622	-26.38
3872.224	-25.38
3874.823	-25.38
3877.421	-20.71
3880.016	-16.71
3882.61	-13.38
3885.202	-12.71
3887.792	-16.38
3890.38	-15.04
3892.966	-22.04
3895.55	-20.38
3898.132	-26.04
3900.713	-23.38
3903.291	-25.71
3905.868	-23.38
3908.442	-26.04
3911.015	-26.38
3913.586	-23.38
3916.155	-26.71
3918.722	-28.38
3921.287	-26.71
3923.85	-27.71
3926.411	-26.71
3928.971	-29.04
3931.528	-27.04
3934.084	-27.38
3936.638	-26.71
3939.19	-26.38
3941.74	-28.38
3944.288	-25.04
3946.834	-26.38
3949.378	-27.38
3951.921	-24.71
3954.462	-24.38
3957	-22.38
3959.537	-22.38
3962.072	-23.38
3964.606	-26.38
3967.137	-28.38
3969.667	-22.04
3972.194	-29.38
3974.72	-27.38
3977.244	-28.71
3979.766	-26.71
3982.286	-25.04
3984.805	-26.38
3987.321	-28.04
3989.836	-25.38
3992.349	-24.38
3994.86	-27.38
3997.369	-28.04
3999.877	-28.04
4002.382	-25.04
4004.886	-23.04
4007.388	-23.71
4009.888	-26.38
4012.386	-25.71
4014.883	-23.71
4017.377	-24.04
4019.87	-24.38
4022.361	-25.38
4024.85	-25.04
4027.338	-23.38
4029.823	-26.71
4032.307	-25.38
4034.789	-24.38
4037.269	-28.38
4039.747	-22.38
4042.224	-25.71
4044.699	-27.71
4047.172	-28.71
4049.643	-28.04
4052.112	-25.38
4054.58	-28.38
4057.046	-24.38
4059.51	-29.04
4061.972	-28.38
4064.432	-30.71
4066.891	-27.04
4069.348	-26.38
4071.803	-23.38
4074.256	-26.71
4076.708	-26.04
4079.158	-24.38
4081.606	-25.71
4084.052	-24.38
4086.497	-26.04
4088.939	-25.04
4091.38	-26.04
4093.819	-25.04
4096.257	-31.04
4098.693	-30.04
4101.127	-28.71
4103.559	-29.04
4105.989	-14.71
4108.418	-14.71
4110.845	-12.71
4113.27	-8.71
4115.694	-7.04
4118.115	-5.38
4120.535	-24.71
4122.954	-24.38
4125.37	-23.38
4127.785	-23.71
4130.198	-26.71
4132.609	-22.38
4135.019	-26.71
4137.427	-30.04
4139.833	-26.38
4142.237	-28.71
