Data from .5_RamanShift_02.txt Node
Date: Wed Mar 21 15:14:27 IST 2018
User: aro
Spectrometer: QEPB0276
Trigger mode: 0
Integration Time (sec): 5.000000E0
Scans to average: 1
Electric dark correction enabled: true
Nonlinearity correction enabled: false
Boxcar width: 0
XAxis mode: Raman Shifts
Number of Pixels in Spectrum: 1044
>>>>>Begin Spectral Data<<<<<
160.701	-1.5
166.742	1.5
172.777	4.5
178.805	15.5
184.826	40.5
190.841	74.5
196.849	121.5
202.85	149.5
208.845	155.5
214.833	149.5
220.815	152.5
226.789	148.5
232.758	153.5
238.719	153.5
244.674	144.5
250.623	149.5
256.565	154.5
262.5	146.5
268.429	141.5
274.351	135.5
280.267	138.5
286.176	129.5
292.079	132.5
297.975	133.5
303.865	129.5
309.748	135.5
315.625	129.5
321.495	131.5
327.359	130.5
333.217	124.5
339.068	133.5
344.912	126.5
350.751	127.5
356.583	131.5
362.408	129.5
368.227	133.5
374.04	143.5
379.847	144.5
385.647	147.5
391.44	144.5
397.228	139.5
403.009	139.5
408.784	143.5
414.553	167.5
420.315	176.5
426.071	176.5
431.821	154.5
437.565	139.5
443.302	138.5
449.033	131.5
454.758	125.5
460.477	126.5
466.189	123.5
471.896	117.5
477.596	124.5
483.29	126.5
488.978	125.5
494.66	122.5
500.335	122.5
506.005	112.5
511.668	100.5
517.325	99.5
522.977	98.5
528.622	90.5
534.261	88.5
539.894	85.5
545.521	90.5
551.141	92.5
556.756	85.5
562.365	83.5
567.968	84.5
573.565	77.5
579.155	81.5
584.74	78.5
590.319	82.5
595.892	77.5
601.459	78.5
607.02	81.5
612.575	79.5
618.124	76.5
623.667	78.5
629.204	71.5
634.735	71.5
640.261	80.5
645.781	82.5
651.294	83.5
656.802	80.5
662.304	72.5
667.8	68.5
673.29	70.5
678.775	71.5
684.254	66.5
689.726	65.5
695.193	69.5
700.655	66.5
706.11	61.5
711.56	67.5
717.004	67.5
722.442	64.5
727.874	69.5
733.301	67.5
738.722	64.5
744.137	61.5
749.547	66.5
754.951	67.5
760.349	70.5
765.741	66.5
771.128	63.5
776.509	69.5
781.885	68.5
787.254	67.5
792.618	70.5
797.977	64.5
803.33	58.5
808.677	66.5
814.019	70.5
819.355	62.5
824.686	66.5
830.011	65.5
835.33	61.5
840.644	63.5
845.952	67.5
851.255	68.5
856.552	60.5
861.844	55.5
867.13	62.5
872.41	63.5
877.686	62.5
882.955	56.5
888.219	53.5
893.478	52.5
898.731	51.5
903.979	48.5
909.221	48.5
914.458	47.5
919.69	43.5
924.916	51.5
930.136	48.5
935.351	53.5
940.561	51.5
945.766	52.5
950.965	49.5
956.158	52.5
961.347	47.5
966.529	44.5
971.707	50.5
976.879	43.5
982.046	43.5
987.208	44.5
992.364	50.5
997.515	45.5
1002.66	46.5
1007.801	46.5
1012.936	46.5
1018.066	48.5
1023.19	49.5
1028.309	44.5
1033.423	47.5
1038.532	50.5
1043.636	49.5
1048.734	44.5
1053.827	43.5
1058.915	42.5
1063.998	40.5
1069.075	39.5
1074.147	43.5
1079.214	41.5
1084.276	43.5
1089.333	46.5
1094.385	45.5
1099.431	42.5
1104.472	39.5
1109.509	41.5
1114.54	42.5
1119.565	39.5
1124.586	38.5
1129.602	38.5
1134.613	41.5
1139.618	43.5
1144.619	38.5
1149.614	44.5
1154.604	45.5
1159.589	41.5
1164.57	37.5
1169.545	41.5
1174.515	42.5
1179.48	44.5
1184.44	42.5
1189.395	41.5
1194.345	43.5
1199.29	43.5
1204.23	44.5
1209.165	40.5
1214.095	41.5
1219.021	45.5
1223.941	43.5
1228.856	44.5
1233.766	41.5
1238.672	44.5
1243.572	40.5
1248.467	40.5
1253.358	42.5
1258.244	38.5
1263.124	41.5
1268	35.5
1272.871	34.5
1277.737	35.5
1282.599	36.5
1287.455	38.5
1292.306	39.5
1297.153	38.5
1301.995	38.5
1306.832	33.5
1311.664	34.5
1316.491	37.5
1321.314	35.5
1326.132	35.5
1330.945	33.5
1335.753	32.5
1340.556	29.5
1345.354	32.5
1350.148	34.5
1354.937	31.5
1359.722	28.5
1364.501	27.5
1369.276	34.5
1374.046	31.5
1378.811	35.5
1383.572	33.5
1388.327	30.5
1393.079	34.5
1397.825	28.5
1402.567	25.5
1407.304	30.5
1412.036	34.5
1416.764	30.5
1421.487	29.5
1426.205	29.5
1430.919	32.5
1435.628	30.5
1440.333	34.5
1445.032	35.5
1449.727	35.5
1454.418	27.5
1459.104	31.5
1463.785	32.5
1468.462	33.5
1473.134	35.5
1477.802	33.5
1482.465	31.5
1487.123	27.5
1491.777	29.5
1496.426	23.5
1501.071	27.5
1505.711	28.5
1510.347	30.5
1514.978	28.5
1519.604	33.5
1524.226	32.5
1528.844	31.5
1533.457	33.5
1538.065	28.5
1542.669	27.5
1547.269	25.5
1551.864	25.5
1556.454	29.5
1561.041	32.5
1565.622	35.5
1570.199	29.5
1574.772	31.5
1579.34	32.5
1583.904	26.5
1588.464	26.5
1593.019	24.5
1597.569	30.5
1602.115	30.5
1606.657	31.5
1611.195	30.5
1615.728	32.5
1620.256	28.5
1624.78	31.5
1629.3	32.5
1633.816	34.5
1638.327	31.5
1642.834	33.5
1647.336	33.5
1651.834	36.5
1656.328	34.5
1660.817	39.5
1665.302	31.5
1669.783	33.5
1674.259	30.5
1678.732	23.5
1683.199	25.5
1687.663	26.5
1692.122	27.5
1696.577	26.5
1701.028	29.5
1705.474	24.5
1709.917	24.5
1714.355	25.5
1718.788	22.5
1723.218	22.5
1727.643	20.5
1732.064	22.5
1736.481	22.5
1740.893	20.5
1745.301	22.5
1749.705	18.5
1754.105	19.5
1758.501	19.5
1762.893	12.5
1767.28	15.5
1771.663	15.5
1776.042	20.5
1780.417	30.5
1784.787	27.5
1789.154	21.5
1793.516	16.5
1797.874	21.5
1802.228	14.5
1806.578	15.5
1810.924	13.5
1815.266	10.5
1819.603	13.5
1823.937	12.5
1828.266	12.5
1832.591	16.5
1836.913	13.5
1841.23	12.5
1845.543	11.5
1849.852	11.5
1854.156	11.5
1858.457	16.5
1862.754	10.5
1867.047	8.5
1871.335	12.5
1875.62	13.5
1879.9	13.5
1884.177	15.5
1888.449	15.5
1892.718	13.5
1896.982	12.5
1901.243	17.5
1905.499	17.5
1909.752	13.5
1914	11.5
1918.245	14.5
1922.485	16.5
1926.722	14.5
1930.954	14.5
1935.183	13.5
1939.408	11.5
1943.628	10.5
1947.845	14.5
1952.058	12.5
1956.267	13.5
1960.472	14.5
1964.673	12.5
1968.87	12.5
1973.063	16.5
1977.252	12.5
1981.438	13.5
1985.619	12.5
1989.797	13.5
1993.971	8.5
1998.14	15.5
2002.306	10.5
2006.469	8.5
2010.627	11.5
2014.781	10.5
2018.932	16.5
2023.078	11.5
2027.221	8.5
2031.36	8.5
2035.495	10.5
2039.627	4.5
2043.754	4.5
2047.878	4.5
2051.998	7.5
2056.114	10.5
2060.226	7.5
2064.334	12.5
2068.439	10.5
2072.54	17.5
2076.637	10.5
2080.73	10.5
2084.82	10.5
2088.906	4.5
2092.988	8.5
2097.066	10.5
2101.14	11.5
2105.211	13.5
2109.278	12.5
2113.342	11.5
2117.401	13.5
2121.457	13.5
2125.509	6.5
2129.558	9.5
2133.602	9.5
2137.643	11.5
2141.681	11.5
2145.714	13.5
2149.744	13.5
2153.77	13.5
2157.793	11.5
2161.812	11.5
2165.827	6.5
2169.838	9.5
2173.846	14.5
2177.851	10.5
2181.851	7.5
2185.848	7.5
2189.841	11.5
2193.831	12.5
2197.817	7.5
2201.799	8.5
2205.778	3.5
2209.753	5.5
2213.725	6.5
2217.693	4.5
2221.657	10.5
2225.618	9.5
2229.575	9.5
2233.529	6.5
2237.479	6.5
2241.425	6.5
2245.368	4.5
2249.307	4.5
2253.243	5.5
2257.175	5.5
2261.104	5.5
2265.029	4.5
2268.95	3.5
2272.868	3.5
2276.783	6.5
2280.694	0.5
2284.601	4.5
2288.505	2.5
2292.405	1.5
2296.302	5.5
2300.195	3.5
2304.085	6.5
2307.971	8.5
2311.854	8.5
2315.734	6.5
2319.609	5.5
2323.482	6.5
2327.351	4.5
2331.216	8.5
2335.078	1.5
2338.937	3.5
2342.792	4.5
2346.643	2.5
2350.492	7.5
2354.336	6.5
2358.178	6.5
2362.015	7.5
2365.85	3.5
2369.681	6.5
2373.508	-1.5
2377.333	0.5
2381.153	0.5
2384.971	-0.5
2388.785	5.5
2392.595	6.5
2396.402	6.5
2400.206	4.5
2404.007	-0.5
2407.804	-0.5
2411.597	-2.5
2415.388	3.5
2419.174	-0.5
2422.958	0.5
2426.738	1.5
2430.515	4.5
2434.289	7.5
2438.059	4.5
2441.825	6.5
2445.589	3.5
2449.349	1.5
2453.106	5.5
2456.859	4.5
2460.61	4.5
2464.356	3.5
2468.1	5.5
2471.84	3.5
2475.577	6.5
2479.311	5.5
2483.041	2.5
2486.768	4.5
2490.492	-0.5
2494.213	1.5
2497.93	2.5
2501.644	3.5
2505.355	7.5
2509.062	5.5
2512.766	1.5
2516.467	3.5
2520.165	3.5
2523.859	1.5
2527.551	0.5
2531.239	-0.5
2534.923	3.5
2538.605	1.5
2542.283	2.5
2545.958	1.5
2549.63	-1.5
2553.299	-1.5
2556.964	1.5
2560.626	2.5
2564.285	-0.5
2567.941	-1.5
2571.594	-1.5
2575.243	-3.5
2578.89	2.5
2582.533	1.5
2586.173	-0.5
2589.809	4.5
2593.443	1.5
2597.073	3.5
2600.701	1.5
2604.325	-0.5
2607.946	3.5
2611.564	-1.5
2615.178	2.5
2618.79	1.5
2622.398	-2.5
2626.004	5.5
2629.606	6.5
2633.205	4.5
2636.801	1.5
2640.394	0.5
2643.983	3.5
2647.57	2.5
2651.153	0.5
2654.734	1.5
2658.311	2.5
2661.885	3.5
2665.456	4.5
2669.025	2.5
2672.589	4.5
2676.151	-1.5
2679.71	-0.5
2683.266	-1.5
2686.819	1.5
2690.368	-2.5
2693.915	4.5
2697.458	1.5
2700.999	3.5
2704.536	-0.5
2708.071	-1.5
2711.602	-2.5
2715.13	-0.5
2718.656	-4.5
2722.178	-0.5
2725.697	-2.5
2729.214	1.5
2732.727	2.5
2736.237	2.5
2739.744	1.5
2743.249	-1.5
2746.75	-0.5
2750.248	-0.5
2753.743	-0.5
2757.236	1.5
2760.725	0.5
2764.211	-0.5
2767.695	-0.5
2771.175	2.5
2774.652	1.5
2778.127	0.5
2781.598	2.5
2785.067	-0.5
2788.532	-2.5
2791.995	-0.5
2795.455	4.5
2798.911	5.5
2802.365	5.5
2805.816	5.5
2809.264	4.5
2812.709	0.5
2816.151	-1.5
2819.59	1.5
2823.026	-1.5
2826.46	2.5
2829.89	1.5
2833.318	7.5
2836.742	7.5
2840.164	2.5
2843.583	6.5
2846.999	-0.5
2850.412	-1.5
2853.822	-0.5
2857.229	-3.5
2860.634	3.5
2864.035	3.5
2867.434	-1.5
2870.83	1.5
2874.223	4.5
2877.613	13.5
2881	16.5
2884.385	7.5
2887.766	0.5
2891.145	-0.5
2894.521	4.5
2897.894	4.5
2901.264	2.5
2904.631	2.5
2907.996	7.5
2911.358	4.5
2914.717	3.5
2918.073	1.5
2921.426	2.5
2924.777	5.5
2928.124	1.5
2931.469	4.5
2934.811	7.5
2938.15	7.5
2941.487	7.5
2944.821	8.5
2948.152	4.5
2951.48	5.5
2954.805	5.5
2958.128	5.5
2961.447	6.5
2964.765	5.5
2968.079	8.5
2971.39	9.5
2974.699	5.5
2978.005	2.5
2981.308	6.5
2984.609	6.5
2987.907	3.5
2991.202	5.5
2994.494	6.5
2997.784	-0.5
3001.07	5.5
3004.355	7.5
3007.636	6.5
3010.915	5.5
3014.191	5.5
3017.464	5.5
3020.734	2.5
3024.002	4.5
3027.267	7.5
3030.53	7.5
3033.789	8.5
3037.046	10.5
3040.301	8.5
3043.552	4.5
3046.801	7.5
3050.048	6.5
3053.291	4.5
3056.532	8.5
3059.771	6.5
3063.006	9.5
3066.239	11.5
3069.469	12.5
3072.697	12.5
3075.922	7.5
3079.144	8.5
3082.364	8.5
3085.581	14.5
3088.795	13.5
3092.007	15.5
3095.216	13.5
3098.423	16.5
3101.627	16.5
3104.828	16.5
3108.026	13.5
3111.222	15.5
3114.416	15.5
3117.607	16.5
3120.795	18.5
3123.98	18.5
3127.163	21.5
3130.344	21.5
3133.521	21.5
3136.696	22.5
3139.869	19.5
3143.039	20.5
3146.206	17.5
3149.371	19.5
3152.533	21.5
3155.693	24.5
3158.85	24.5
3162.005	23.5
3165.157	25.5
3168.306	22.5
3171.453	26.5
3174.597	23.5
3177.739	25.5
3180.878	19.5
3184.014	26.5
3187.149	21.5
3190.28	19.5
3193.409	27.5
3196.536	28.5
3199.659	23.5
3202.781	19.5
3205.9	22.5
3209.016	21.5
3212.13	19.5
3215.241	23.5
3218.35	20.5
3221.456	26.5
3224.56	23.5
3227.661	21.5
3230.76	21.5
3233.856	19.5
3236.95	21.5
3240.041	18.5
3243.13	23.5
3246.216	23.5
3249.3	16.5
3252.382	17.5
3255.46	24.5
3258.537	19.5
3261.611	22.5
3264.682	21.5
3267.751	21.5
3270.818	19.5
3273.882	18.5
3276.943	21.5
3280.002	17.5
3283.059	20.5
3286.113	21.5
3289.165	19.5
3292.214	19.5
3295.261	19.5
3298.306	21.5
3301.348	16.5
3304.387	20.5
3307.425	15.5
3310.459	17.5
3313.492	21.5
3316.521	17.5
3319.549	19.5
3322.574	18.5
3325.597	15.5
3328.617	13.5
3331.635	20.5
3334.65	17.5
3337.663	14.5
3340.674	15.5
3343.682	13.5
3346.688	19.5
3349.691	20.5
3352.692	13.5
3355.691	16.5
3358.687	14.5
3361.681	17.5
3364.673	12.5
3367.662	11.5
3370.649	10.5
3373.633	15.5
3376.615	15.5
3379.595	12.5
3382.572	15.5
3385.547	13.5
3388.52	16.5
3391.49	12.5
3394.458	13.5
3397.424	8.5
3400.387	8.5
3403.348	13.5
3406.307	11.5
3409.263	9.5
3412.217	10.5
3415.168	8.5
3418.118	20.5
3421.065	12.5
3424.009	10.5
3426.951	12.5
3429.891	14.5
3432.829	11.5
3435.764	11.5
3438.697	12.5
3441.628	9.5
3444.557	14.5
3447.483	13.5
3450.407	9.5
3453.328	9.5
3456.247	8.5
3459.164	8.5
3462.079	10.5
3464.991	7.5
3467.902	9.5
3470.809	11.5
3473.715	8.5
3476.618	7.5
3479.519	11.5
3482.418	9.5
3485.315	8.5
3488.209	8.5
3491.101	8.5
3493.99	8.5
3496.878	5.5
3499.763	4.5
3502.646	4.5
3505.527	5.5
3508.405	3.5
3511.281	4.5
3514.155	4.5
3517.027	2.5
3519.897	-0.5
3522.764	0.5
3525.629	4.5
3528.492	1.5
3531.352	1.5
3534.211	5.5
3537.067	5.5
3539.921	5.5
3542.773	5.5
3545.622	5.5
3548.469	3.5
3551.315	1.5
3554.157	5.5
3556.998	3.5
3559.837	0.5
3562.673	4.5
3565.507	5.5
3568.339	2.5
3571.169	7.5
3573.996	0.5
3576.822	0.5
3579.645	2.5
3582.466	0.5
3585.285	4.5
3588.101	3.5
3590.916	1.5
3593.728	4.5
3596.538	5.5
3599.346	2.5
3602.152	2.5
3604.956	5.5
3607.757	-0.5
3610.556	-2.5
3613.354	-1.5
3616.149	-1.5
3618.942	-0.5
3621.732	-2.5
3624.521	1.5
3627.307	2.5
3630.092	-2.5
3632.874	-1.5
3635.654	-0.5
3638.432	-1.5
3641.208	-3.5
3643.982	-3.5
3646.753	-5.5
3649.523	-1.5
3652.29	0.5
3655.055	2.5
3657.818	1.5
3660.579	-0.5
3663.338	-5.5
3666.095	-3.5
3668.849	-5.5
3671.602	-3.5
3674.352	-0.5
3677.101	0.5
3679.847	0.5
3682.591	-0.5
3685.333	-1.5
3688.073	1.5
3690.811	-1.5
3693.547	-6.5
3696.281	-4.5
3699.013	-4.5
3701.742	-5.5
3704.47	-0.5
3707.195	0.5
3709.919	0.5
3712.64	-2.5
3715.359	-1.5
3718.076	-0.5
3720.792	-4.5
3723.505	-4.5
3726.216	-2.5
3728.925	-6.5
3731.632	-4.5
3734.336	-2.5
3737.039	-5.5
3739.74	-1.5
3742.439	-0.5
3745.136	-5.5
3747.83	-4.5
3750.523	-5.5
3753.213	-5.5
3755.902	-10.5
3758.589	-3.5
3761.273	-6.5
3763.956	-4.5
3766.636	-7.5
3769.315	-1.5
3771.991	-5.5
3774.665	-1.5
3777.338	-3.5
3780.008	-3.5
3782.677	-5.5
3785.343	-4.5
3788.007	-5.5
3790.67	-5.5
3793.33	-2.5
3795.989	-0.5
3798.645	-3.5
3801.299	1.5
3803.952	-2.5
3806.602	-3.5
3809.251	-0.5
3811.897	-2.5
3814.542	-0.5
3817.184	-1.5
3819.825	1.5
3822.463	-0.5
3825.1	1.5
3827.735	-2.5
3830.367	-4.5
3832.998	-4.5
3835.627	-5.5
3838.253	-1.5
3840.878	-4.5
3843.501	-3.5
3846.122	-2.5
3848.741	-2.5
3851.358	-6.5
3853.973	-5.5
3856.586	-2.5
3859.197	-5.5
3861.806	-3.5
3864.414	-3.5
3867.019	-7.5
3869.622	-6.5
3872.224	-1.5
3874.823	-3.5
3877.421	-1.5
3880.016	-0.5
3882.61	0.5
3885.202	-0.5
3887.792	0.5
3890.38	-6.5
3892.966	-5.5
3895.55	-5.5
3898.132	-5.5
3900.713	-0.5
3903.291	-5.5
3905.868	-3.5
3908.442	-2.5
3911.015	-4.5
3913.586	-8.5
3916.155	-5.5
3918.722	-2.5
3921.287	-4.5
3923.85	-1.5
3926.411	-1.5
3928.971	-0.5
3931.528	-0.5
3934.084	-3.5
3936.638	-2.5
3939.19	-5.5
3941.74	-5.5
3944.288	-1.5
3946.834	-7.5
3949.378	-1.5
3951.921	-1.5
3954.462	-3.5
3957	-2.5
3959.537	-3.5
3962.072	-5.5
3964.606	-3.5
3967.137	-4.5
3969.667	-4.5
3972.194	-7.5
3974.72	-1.5
3977.244	-2.5
3979.766	-2.5
3982.286	-1.5
3984.805	-5.5
3987.321	-4.5
3989.836	-6.5
3992.349	-10.5
3994.86	-5.5
3997.369	-9.5
3999.877	-7.5
4002.382	-1.5
4004.886	-10.5
4007.388	-2.5
4009.888	-0.5
4012.386	-5.5
4014.883	-4.5
4017.377	-2.5
4019.87	-4.5
4022.361	-0.5
4024.85	-6.5
4027.338	2.5
4029.823	-2.5
4032.307	-2.5
4034.789	0.5
4037.269	-2.5
4039.747	-1.5
4042.224	-7.5
4044.699	-1.5
4047.172	-2.5
4049.643	-4.5
4052.112	0.5
4054.58	-1.5
4057.046	-3.5
4059.51	-3.5
4061.972	-5.5
4064.432	-2.5
4066.891	-4.5
4069.348	-8.5
4071.803	-5.5
4074.256	-3.5
4076.708	-2.5
4079.158	-3.5
4081.606	-3.5
4084.052	-4.5
4086.497	-2.5
4088.939	-6.5
4091.38	-6.5
4093.819	-4.5
4096.257	-4.5
4098.693	-5.5
4101.127	-2.5
4103.559	-2.5
4105.989	1.5
4108.418	2.5
4110.845	1.5
4113.27	3.5
4115.694	-1.5
4118.115	1.5
4120.535	-3.5
4122.954	-1.5
4125.37	-4.5
4127.785	-7.5
4130.198	-8.5
4132.609	-5.5
4135.019	-6.5
4137.427	-5.5
4139.833	-4.5
4142.237	-3.5
