Data from etoh_RamanShift_02.txt Node
Date: Wed Mar 21 14:56:03 IST 2018
User: aro
Spectrometer: QEPB0276
Trigger mode: 0
Integration Time (sec): 5.000000E0
Scans to average: 1
Electric dark correction enabled: true
Nonlinearity correction enabled: false
Boxcar width: 0
XAxis mode: Raman Shifts
Number of Pixels in Spectrum: 1044
>>>>>Begin Spectral Data<<<<<
160.701	1.2
166.742	3.2
172.777	12.2
178.805	22.2
184.826	63.2
190.841	141.2
196.849	223.2
202.85	280.2
208.845	302.2
214.833	285.2
220.815	284.2
226.789	269.2
232.758	271.2
238.719	268.2
244.674	264.2
250.623	262.2
256.565	249.2
262.5	250.2
268.429	243.2
274.351	241.2
280.267	233.2
286.176	226.2
292.079	220.2
297.975	215.2
303.865	204.2
309.748	208.2
315.625	200.2
321.495	197.2
327.359	194.2
333.217	186.2
339.068	192.2
344.912	193.2
350.751	186.2
356.583	191.2
362.408	195.2
368.227	195.2
374.04	199.2
379.847	208.2
385.647	216.2
391.44	216.2
397.228	216.2
403.009	223.2
408.784	241.2
414.553	274.2
420.315	323.2
426.071	373.2
431.821	401.2
437.565	423.2
443.302	419.2
449.033	384.2
454.758	328.2
460.477	289.2
466.189	265.2
471.896	231.2
477.596	223.2
483.29	210.2
488.978	207.2
494.66	192.2
500.335	195.2
506.005	180.2
511.668	168.2
517.325	154.2
522.977	151.2
528.622	143.2
534.261	137.2
539.894	133.2
545.521	132.2
551.141	132.2
556.756	124.2
562.365	129.2
567.968	127.2
573.565	114.2
579.155	122.2
584.74	118.2
590.319	117.2
595.892	124.2
601.459	121.2
607.02	118.2
612.575	121.2
618.124	116.2
623.667	118.2
629.204	116.2
634.735	110.2
640.261	110.2
645.781	130.2
651.294	124.2
656.802	121.2
662.304	113.2
667.8	104.2
673.29	102.2
678.775	108.2
684.254	100.2
689.726	97.2
695.193	102.2
700.655	97.2
706.11	97.2
711.56	101.2
717.004	101.2
722.442	101.2
727.874	109.2
733.301	104.2
738.722	102.2
744.137	103.2
749.547	101.2
754.951	111.2
760.349	119.2
765.741	107.2
771.128	109.2
776.509	116.2
781.885	113.2
787.254	119.2
792.618	117.2
797.977	125.2
803.33	123.2
808.677	128.2
814.019	135.2
819.355	133.2
824.686	136.2
830.011	142.2
835.33	148.2
840.644	154.2
845.952	169.2
851.255	193.2
856.552	222.2
861.844	284.2
867.13	402.2
872.41	684.2
877.686	1172.2
882.955	1728.2
888.219	1888.2
893.478	1481.2
898.731	873.2
903.979	461.2
909.221	298.2
914.458	215.2
919.69	176.2
924.916	155.2
930.136	139.2
935.351	133.2
940.561	125.2
945.766	118.2
950.965	107.2
956.158	113.2
961.347	106.2
966.529	103.2
971.707	103.2
976.879	107.2
982.046	108.2
987.208	114.2
992.364	113.2
997.515	120.2
1002.66	139.2
1007.801	150.2
1012.936	179.2
1018.066	202.2
1023.19	246.2
1028.309	276.2
1033.423	326.2
1038.532	392.2
1043.636	502.2
1048.734	652.2
1053.827	712.2
1058.915	666.2
1063.998	566.2
1069.075	458.2
1074.147	436.2
1079.214	469.2
1084.276	555.2
1089.333	658.2
1094.385	719.2
1099.431	696.2
1104.472	576.2
1109.509	445.2
1114.54	346.2
1119.565	292.2
1124.586	270.2
1129.602	253.2
1134.613	224.2
1139.618	194.2
1144.619	178.2
1149.614	158.2
1154.604	145.2
1159.589	130.2
1164.57	124.2
1169.545	119.2
1174.515	107.2
1179.48	112.2
1184.44	99.2
1189.395	91.2
1194.345	97.2
1199.29	100.2
1204.23	90.2
1209.165	91.2
1214.095	94.2
1219.021	96.2
1223.941	93.2
1228.856	106.2
1233.766	105.2
1238.672	116.2
1243.572	119.2
1248.467	132.2
1253.358	131.2
1258.244	153.2
1263.124	164.2
1268	203.2
1272.871	251.2
1277.737	311.2
1282.599	348.2
1287.455	333.2
1292.306	282.2
1297.153	223.2
1301.995	190.2
1306.832	161.2
1311.664	147.2
1316.491	141.2
1321.314	138.2
1326.132	130.2
1330.945	127.2
1335.753	129.2
1340.556	131.2
1345.354	123.2
1350.148	124.2
1354.937	127.2
1359.722	129.2
1364.501	127.2
1369.276	131.2
1374.046	144.2
1378.811	163.2
1383.572	180.2
1388.327	189.2
1393.079	197.2
1397.825	204.2
1402.567	207.2
1407.304	221.2
1412.036	230.2
1416.764	243.2
1421.487	270.2
1426.205	285.2
1430.919	314.2
1435.628	347.2
1440.333	397.2
1445.032	476.2
1449.727	611.2
1454.418	776.2
1459.104	908.2
1463.785	868.2
1468.462	688.2
1473.134	529.2
1477.802	425.2
1482.465	395.2
1487.123	389.2
1491.777	365.2
1496.426	311.2
1501.071	264.2
1505.711	219.2
1510.347	190.2
1514.978	171.2
1519.604	157.2
1524.226	146.2
1528.844	136.2
1533.457	131.2
1538.065	120.2
1542.669	110.2
1547.269	98.2
1551.864	97.2
1556.454	95.2
1561.041	90.2
1565.622	85.2
1570.199	85.2
1574.772	78.2
1579.34	81.2
1583.904	76.2
1588.464	71.2
1593.019	64.2
1597.569	72.2
1602.115	71.2
1606.657	71.2
1611.195	78.2
1615.728	73.2
1620.256	69.2
1624.78	73.2
1629.3	72.2
1633.816	66.2
1638.327	68.2
1642.834	68.2
1647.336	67.2
1651.834	68.2
1656.328	62.2
1660.817	67.2
1665.302	61.2
1669.783	63.2
1674.259	59.2
1678.732	55.2
1683.199	48.2
1687.663	54.2
1692.122	48.2
1696.577	49.2
1701.028	48.2
1705.474	45.2
1709.917	40.2
1714.355	45.2
1718.788	40.2
1723.218	38.2
1727.643	38.2
1732.064	33.2
1736.481	39.2
1740.893	39.2
1745.301	39.2
1749.705	36.2
1754.105	36.2
1758.501	34.2
1762.893	30.2
1767.28	31.2
1771.663	25.2
1776.042	29.2
1780.417	31.2
1784.787	31.2
1789.154	28.2
1793.516	23.2
1797.874	26.2
1802.228	23.2
1806.578	24.2
1810.924	24.2
1815.266	18.2
1819.603	17.2
1823.937	20.2
1828.266	21.2
1832.591	18.2
1836.913	19.2
1841.23	19.2
1845.543	17.2
1849.852	18.2
1854.156	19.2
1858.457	18.2
1862.754	18.2
1867.047	20.2
1871.335	22.2
1875.62	23.2
1879.9	25.2
1884.177	27.2
1888.449	24.2
1892.718	25.2
1896.982	22.2
1901.243	24.2
1905.499	22.2
1909.752	20.2
1914	16.2
1918.245	17.2
1922.485	24.2
1926.722	21.2
1930.954	18.2
1935.183	19.2
1939.408	18.2
1943.628	15.2
1947.845	16.2
1952.058	14.2
1956.267	14.2
1960.472	17.2
1964.673	17.2
1968.87	16.2
1973.063	17.2
1977.252	17.2
1981.438	14.2
1985.619	17.2
1989.797	19.2
1993.971	15.2
1998.14	21.2
2002.306	15.2
2006.469	18.2
2010.627	22.2
2014.781	19.2
2018.932	23.2
2023.078	18.2
2027.221	16.2
2031.36	17.2
2035.495	17.2
2039.627	14.2
2043.754	12.2
2047.878	13.2
2051.998	15.2
2056.114	18.2
2060.226	13.2
2064.334	21.2
2068.439	22.2
2072.54	20.2
2076.637	16.2
2080.73	12.2
2084.82	15.2
2088.906	15.2
2092.988	19.2
2097.066	22.2
2101.14	19.2
2105.211	22.2
2109.278	22.2
2113.342	18.2
2117.401	21.2
2121.457	19.2
2125.509	14.2
2129.558	14.2
2133.602	16.2
2137.643	14.2
2141.681	17.2
2145.714	21.2
2149.744	18.2
2153.77	16.2
2157.793	19.2
2161.812	16.2
2165.827	13.2
2169.838	22.2
2173.846	16.2
2177.851	16.2
2181.851	17.2
2185.848	17.2
2189.841	18.2
2193.831	19.2
2197.817	15.2
2201.799	14.2
2205.778	10.2
2209.753	10.2
2213.725	14.2
2217.693	16.2
2221.657	21.2
2225.618	20.2
2229.575	19.2
2233.529	19.2
2237.479	19.2
2241.425	15.2
2245.368	14.2
2249.307	13.2
2253.243	18.2
2257.175	21.2
2261.104	23.2
2265.029	23.2
2268.95	17.2
2272.868	18.2
2276.783	20.2
2280.694	15.2
2284.601	16.2
2288.505	15.2
2292.405	15.2
2296.302	11.2
2300.195	10.2
2304.085	16.2
2307.971	13.2
2311.854	15.2
2315.734	13.2
2319.609	14.2
2323.482	13.2
2327.351	14.2
2331.216	15.2
2335.078	10.2
2338.937	13.2
2342.792	15.2
2346.643	11.2
2350.492	14.2
2354.336	15.2
2358.178	15.2
2362.015	16.2
2365.85	13.2
2369.681	16.2
2373.508	12.2
2377.333	9.2
2381.153	12.2
2384.971	14.2
2388.785	12.2
2392.595	14.2
2396.402	13.2
2400.206	12.2
2404.007	10.2
2407.804	9.2
2411.597	9.2
2415.388	9.2
2419.174	9.2
2422.958	15.2
2426.738	12.2
2430.515	13.2
2434.289	14.2
2438.059	17.2
2441.825	17.2
2445.589	12.2
2449.349	14.2
2453.106	11.2
2456.859	15.2
2460.61	16.2
2464.356	14.2
2468.1	15.2
2471.84	16.2
2475.577	16.2
2479.311	18.2
2483.041	13.2
2486.768	15.2
2490.492	11.2
2494.213	13.2
2497.93	12.2
2501.644	13.2
2505.355	15.2
2509.062	16.2
2512.766	11.2
2516.467	19.2
2520.165	12.2
2523.859	11.2
2527.551	11.2
2531.239	14.2
2534.923	17.2
2538.605	22.2
2542.283	20.2
2545.958	22.2
2549.63	21.2
2553.299	21.2
2556.964	22.2
2560.626	22.2
2564.285	25.2
2567.941	21.2
2571.594	20.2
2575.243	14.2
2578.89	21.2
2582.533	21.2
2586.173	20.2
2589.809	17.2
2593.443	17.2
2597.073	18.2
2600.701	18.2
2604.325	15.2
2607.946	17.2
2611.564	16.2
2615.178	18.2
2618.79	21.2
2622.398	18.2
2626.004	24.2
2629.606	23.2
2633.205	22.2
2636.801	18.2
2640.394	20.2
2643.983	26.2
2647.57	24.2
2651.153	23.2
2654.734	22.2
2658.311	24.2
2661.885	25.2
2665.456	21.2
2669.025	26.2
2672.589	27.2
2676.151	26.2
2679.71	27.2
2683.266	24.2
2686.819	29.2
2690.368	31.2
2693.915	38.2
2697.458	40.2
2700.999	48.2
2704.536	49.2
2708.071	53.2
2711.602	60.2
2715.13	68.2
2718.656	74.2
2722.178	79.2
2725.697	80.2
2729.214	80.2
2732.727	84.2
2736.237	82.2
2739.744	74.2
2743.249	72.2
2746.75	66.2
2750.248	69.2
2753.743	72.2
2757.236	67.2
2760.725	65.2
2764.211	62.2
2767.695	63.2
2771.175	60.2
2774.652	62.2
2778.127	57.2
2781.598	55.2
2785.067	59.2
2788.532	56.2
2791.995	57.2
2795.455	66.2
2798.911	75.2
2802.365	75.2
2805.816	81.2
2809.264	83.2
2812.709	89.2
2816.151	97.2
2819.59	105.2
2823.026	112.2
2826.46	124.2
2829.89	139.2
2833.318	151.2
2836.742	175.2
2840.164	175.2
2843.583	199.2
2846.999	204.2
2850.412	218.2
2853.822	226.2
2857.229	240.2
2860.634	257.2
2864.035	279.2
2867.434	307.2
2870.83	353.2
2874.223	405.2
2877.613	461.2
2881	505.2
2884.385	548.2
2887.766	542.2
2891.145	535.2
2894.521	531.2
2897.894	533.2
2901.264	506.2
2904.631	498.2
2907.996	482.2
2911.358	469.2
2914.717	474.2
2918.073	485.2
2921.426	515.2
2924.777	572.2
2928.124	630.2
2931.469	703.2
2934.811	747.2
2938.15	753.2
2941.487	688.2
2944.821	615.2
2948.152	538.2
2951.48	482.2
2954.805	425.2
2958.128	386.2
2961.447	365.2
2964.765	348.2
2968.079	333.2
2971.39	335.2
2974.699	332.2
2978.005	332.2
2981.308	334.2
2984.609	310.2
2987.907	286.2
2991.202	265.2
2994.494	227.2
2997.784	200.2
3001.07	178.2
3004.355	158.2
3007.636	141.2
3010.915	124.2
3014.191	116.2
3017.464	104.2
3020.734	93.2
3024.002	85.2
3027.267	77.2
3030.53	80.2
3033.789	70.2
3037.046	70.2
3040.301	59.2
3043.552	56.2
3046.801	56.2
3050.048	56.2
3053.291	52.2
3056.532	54.2
3059.771	53.2
3063.006	52.2
3066.239	51.2
3069.469	53.2
3072.697	50.2
3075.922	46.2
3079.144	42.2
3082.364	50.2
3085.581	45.2
3088.795	47.2
3092.007	41.2
3095.216	44.2
3098.423	43.2
3101.627	42.2
3104.828	38.2
3108.026	34.2
3111.222	35.2
3114.416	34.2
3117.607	33.2
3120.795	40.2
3123.98	40.2
3127.163	41.2
3130.344	40.2
3133.521	41.2
3136.696	43.2
3139.869	43.2
3143.039	42.2
3146.206	40.2
3149.371	39.2
3152.533	47.2
3155.693	45.2
3158.85	46.2
3162.005	46.2
3165.157	46.2
3168.306	45.2
3171.453	44.2
3174.597	41.2
3177.739	41.2
3180.878	39.2
3184.014	39.2
3187.149	40.2
3190.28	40.2
3193.409	42.2
3196.536	43.2
3199.659	44.2
3202.781	41.2
3205.9	39.2
3209.016	39.2
3212.13	43.2
3215.241	40.2
3218.35	41.2
3221.456	47.2
3224.56	36.2
3227.661	46.2
3230.76	43.2
3233.856	43.2
3236.95	35.2
3240.041	37.2
3243.13	40.2
3246.216	41.2
3249.3	35.2
3252.382	37.2
3255.46	43.2
3258.537	40.2
3261.611	39.2
3264.682	32.2
3267.751	34.2
3270.818	32.2
3273.882	30.2
3276.943	30.2
3280.002	33.2
3283.059	33.2
3286.113	34.2
3289.165	32.2
3292.214	36.2
3295.261	29.2
3298.306	28.2
3301.348	31.2
3304.387	28.2
3307.425	26.2
3310.459	28.2
3313.492	27.2
3316.521	28.2
3319.549	35.2
3322.574	30.2
3325.597	28.2
3328.617	27.2
3331.635	31.2
3334.65	31.2
3337.663	29.2
3340.674	26.2
3343.682	29.2
3346.688	34.2
3349.691	36.2
3352.692	26.2
3355.691	34.2
3358.687	30.2
3361.681	27.2
3364.673	27.2
3367.662	27.2
3370.649	26.2
3373.633	23.2
3376.615	29.2
3379.595	24.2
3382.572	28.2
3385.547	25.2
3388.52	21.2
3391.49	23.2
3394.458	22.2
3397.424	19.2
3400.387	21.2
3403.348	22.2
3406.307	19.2
3409.263	17.2
3412.217	20.2
3415.168	23.2
3418.118	25.2
3421.065	22.2
3424.009	23.2
3426.951	21.2
3429.891	23.2
3432.829	19.2
3435.764	16.2
3438.697	20.2
3441.628	16.2
3444.557	19.2
3447.483	20.2
3450.407	13.2
3453.328	14.2
3456.247	16.2
3459.164	10.2
3462.079	14.2
3464.991	9.2
3467.902	9.2
3470.809	10.2
3473.715	12.2
3476.618	8.2
3479.519	14.2
3482.418	13.2
3485.315	10.2
3488.209	8.2
3491.101	7.2
3493.99	9.2
3496.878	9.2
3499.763	10.2
3502.646	9.2
3505.527	10.2
3508.405	7.2
3511.281	6.2
3514.155	7.2
3517.027	2.2
3519.897	2.2
3522.764	0.2
3525.629	3.2
3528.492	2.2
3531.352	2.2
3534.211	2.2
3537.067	3.2
3539.921	2.2
3542.773	-1.8
3545.622	-0.8
3548.469	-3.8
3551.315	-2.8
3554.157	-2.8
3556.998	-1.8
3559.837	1.2
3562.673	-1.8
3565.507	-1.8
3568.339	-2.8
3571.169	3.2
3573.996	-2.8
3576.822	-0.8
3579.645	-0.8
3582.466	-4.8
3585.285	-1.8
3588.101	-0.8
3590.916	-1.8
3593.728	0.2
3596.538	-0.8
3599.346	-2.8
3602.152	0.2
3604.956	0.2
3607.757	-6.8
3610.556	-4.8
3613.354	-9.8
3616.149	-8.8
3618.942	-8.8
3621.732	-8.8
3624.521	-5.8
3627.307	-2.8
3630.092	-9.8
3632.874	-6.8
3635.654	-7.8
3638.432	-10.8
3641.208	-9.8
3643.982	-4.8
3646.753	-8.8
3649.523	-4.8
3652.29	-4.8
3655.055	-3.8
3657.818	-2.8
3660.579	-3.8
3663.338	-7.8
3666.095	-7.8
3668.849	-7.8
3671.602	-6.8
3674.352	-5.8
3677.101	-5.8
3679.847	-5.8
3682.591	-5.8
3685.333	-9.8
3688.073	-8.8
3690.811	-8.8
3693.547	-12.8
3696.281	-9.8
3699.013	-11.8
3701.742	-11.8
3704.47	-8.8
3707.195	-9.8
3709.919	-6.8
3712.64	-9.8
3715.359	-5.8
3718.076	-6.8
3720.792	-12.8
3723.505	-10.8
3726.216	-7.8
3728.925	-10.8
3731.632	-8.8
3734.336	-6.8
3737.039	-7.8
3739.74	-4.8
3742.439	-3.8
3745.136	-10.8
3747.83	-7.8
3750.523	-10.8
3753.213	-8.8
3755.902	-12.8
3758.589	-8.8
3761.273	-12.8
3763.956	-11.8
3766.636	-8.8
3769.315	-8.8
3771.991	-10.8
3774.665	-9.8
3777.338	-9.8
3780.008	-12.8
3782.677	-10.8
3785.343	-10.8
3788.007	-11.8
3790.67	-8.8
3793.33	-9.8
3795.989	-6.8
3798.645	-3.8
3801.299	-8.8
3803.952	-9.8
3806.602	-7.8
3809.251	-9.8
3811.897	-10.8
3814.542	-6.8
3817.184	-7.8
3819.825	-7.8
3822.463	-6.8
3825.1	-6.8
3827.735	-8.8
3830.367	-11.8
3832.998	-11.8
3835.627	-14.8
3838.253	-10.8
3840.878	-10.8
3843.501	-11.8
3846.122	-9.8
3848.741	-11.8
3851.358	-13.8
3853.973	-10.8
3856.586	-11.8
3859.197	-11.8
3861.806	-6.8
3864.414	-7.8
3867.019	-14.8
3869.622	-7.8
3872.224	-5.8
3874.823	-4.8
3877.421	-1.8
3880.016	-1.8
3882.61	-0.8
3885.202	-2.8
3887.792	-3.8
3890.38	-10.8
3892.966	-12.8
3895.55	-9.8
3898.132	-7.8
3900.713	-6.8
3903.291	-10.8
3905.868	-10.8
3908.442	-10.8
3911.015	-12.8
3913.586	-12.8
3916.155	-13.8
3918.722	-12.8
3921.287	-11.8
3923.85	-10.8
3926.411	-9.8
3928.971	-7.8
3931.528	-8.8
3934.084	-7.8
3936.638	-6.8
3939.19	-8.8
3941.74	-10.8
3944.288	-8.8
3946.834	-10.8
3949.378	-8.8
3951.921	-6.8
3954.462	-5.8
3957	-5.8
3959.537	-10.8
3962.072	-11.8
3964.606	-9.8
3967.137	-8.8
3969.667	-10.8
3972.194	-12.8
3974.72	-8.8
3977.244	-11.8
3979.766	-9.8
3982.286	-5.8
3984.805	-10.8
3987.321	-11.8
3989.836	-10.8
3992.349	-12.8
3994.86	-11.8
3997.369	-8.8
3999.877	-7.8
4002.382	-3.8
4004.886	-8.8
4007.388	-5.8
4009.888	-4.8
4012.386	-9.8
4014.883	-10.8
4017.377	-9.8
4019.87	-12.8
4022.361	-7.8
4024.85	-14.8
4027.338	-6.8
4029.823	-12.8
4032.307	-12.8
4034.789	-11.8
4037.269	-12.8
4039.747	-12.8
4042.224	-13.8
4044.699	-9.8
4047.172	-6.8
4049.643	-10.8
4052.112	-10.8
4054.58	-9.8
4057.046	-7.8
4059.51	-9.8
4061.972	-12.8
4064.432	-9.8
4066.891	-10.8
4069.348	-11.8
4071.803	-8.8
4074.256	-9.8
4076.708	-10.8
4079.158	-9.8
4081.606	-5.8
4084.052	-9.8
4086.497	-10.8
4088.939	-11.8
4091.38	-11.8
4093.819	-11.8
4096.257	-12.8
4098.693	-13.8
4101.127	-12.8
4103.559	-8.8
4105.989	0.2
4108.418	-2.8
4110.845	1.2
4113.27	-1.8
4115.694	-0.8
4118.115	0.2
4120.535	-8.8
4122.954	-10.8
4125.37	-8.8
4127.785	-13.8
4130.198	-9.8
4132.609	-10.8
4135.019	-9.8
4137.427	-10.8
4139.833	-8.8
4142.237	-9.8
