Data from 0CFU1_RamanShift_1.txt Node
Date: Thu Feb 02 11:40:59 IST 2017
User: aro
Spectrometer: QEPB0276
Trigger mode: 0
Integration Time (sec): 5.000000E0
Scans to average: 1
Electric dark correction enabled: true
Nonlinearity correction enabled: false
Boxcar width: 0
XAxis mode: Raman Shifts
Number of Pixels in Spectrum: 1044
>>>>>Begin Spectral Data<<<<<
160.701	-4.38
166.742	0.62
172.777	19.62
178.805	71.62
184.826	175.62
190.841	341.62
196.849	537.62
202.85	658.62
208.845	709.62
214.833	703.62
220.815	672.62
226.789	654.62
232.758	643.62
238.719	637.62
244.674	628.62
250.623	615.62
256.565	604.62
262.5	587.62
268.429	565.62
274.351	555.62
280.267	548.62
286.176	530.62
292.079	540.62
297.975	523.62
303.865	513.62
309.748	525.62
315.625	517.62
321.495	506.62
327.359	514.62
333.217	511.62
339.068	509.62
344.912	527.62
350.751	537.62
356.583	534.62
362.408	541.62
368.227	532.62
374.04	519.62
379.847	517.62
385.647	524.62
391.44	516.62
397.228	534.62
403.009	527.62
408.784	538.62
414.553	533.62
420.315	535.62
426.071	549.62
431.821	540.62
437.565	553.62
443.302	546.62
449.033	532.62
454.758	542.62
460.477	527.62
466.189	534.62
471.896	518.62
477.596	528.62
483.29	508.62
488.978	505.62
494.66	485.62
500.335	479.62
506.005	456.62
511.668	447.62
517.325	414.62
522.977	396.62
528.622	383.62
534.261	374.62
539.894	359.62
545.521	356.62
551.141	354.62
556.756	350.62
562.365	324.62
567.968	329.62
573.565	330.62
579.155	330.62
584.74	331.62
590.319	325.62
595.892	328.62
601.459	333.62
607.02	323.62
612.575	328.62
618.124	313.62
623.667	311.62
629.204	302.62
634.735	299.62
640.261	301.62
645.781	295.62
651.294	292.62
656.802	293.62
662.304	284.62
667.8	289.62
673.29	286.62
678.775	278.62
684.254	278.62
689.726	284.62
695.193	273.62
700.655	265.62
706.11	277.62
711.56	280.62
717.004	271.62
722.442	259.62
727.874	269.62
733.301	262.62
738.722	263.62
744.137	266.62
749.547	266.62
754.951	272.62
760.349	269.62
765.741	269.62
771.128	260.62
776.509	264.62
781.885	265.62
787.254	264.62
792.618	275.62
797.977	278.62
803.33	271.62
808.677	274.62
814.019	274.62
819.355	266.62
824.686	264.62
830.011	263.62
835.33	276.62
840.644	276.62
845.952	276.62
851.255	275.62
856.552	283.62
861.844	289.62
867.13	284.62
872.41	284.62
877.686	290.62
882.955	284.62
888.219	275.62
893.478	282.62
898.731	265.62
903.979	260.62
909.221	248.62
914.458	253.62
919.69	254.62
924.916	242.62
930.136	244.62
935.351	243.62
940.561	241.62
945.766	239.62
950.965	246.62
956.158	248.62
961.347	228.62
966.529	226.62
971.707	221.62
976.879	214.62
982.046	218.62
987.208	220.62
992.364	221.62
997.515	221.62
1002.66	226.62
1007.801	238.62
1012.936	237.62
1018.066	243.62
1023.19	239.62
1028.309	250.62
1033.423	249.62
1038.532	244.62
1043.636	251.62
1048.734	255.62
1053.827	248.62
1058.915	252.62
1063.998	263.62
1069.075	270.62
1074.147	279.62
1079.214	272.62
1084.276	273.62
1089.333	285.62
1094.385	279.62
1099.431	272.62
1104.472	261.62
1109.509	249.62
1114.54	244.62
1119.565	247.62
1124.586	249.62
1129.602	252.62
1134.613	242.62
1139.618	234.62
1144.619	216.62
1149.614	209.62
1154.604	206.62
1159.589	206.62
1164.57	208.62
1169.545	207.62
1174.515	196.62
1179.48	197.62
1184.44	188.62
1189.395	183.62
1194.345	181.62
1199.29	185.62
1204.23	181.62
1209.165	187.62
1214.095	188.62
1219.021	190.62
1223.941	190.62
1228.856	195.62
1233.766	194.62
1238.672	201.62
1243.572	206.62
1248.467	207.62
1253.358	209.62
1258.244	218.62
1263.124	213.62
1268	226.62
1272.871	212.62
1277.737	212.62
1282.599	212.62
1287.455	202.62
1292.306	213.62
1297.153	226.62
1301.995	234.62
1306.832	249.62
1311.664	245.62
1316.491	227.62
1321.314	219.62
1326.132	201.62
1330.945	199.62
1335.753	197.62
1340.556	184.62
1345.354	195.62
1350.148	187.62
1354.937	183.62
1359.722	174.62
1364.501	168.62
1369.276	175.62
1374.046	174.62
1378.811	172.62
1383.572	169.62
1388.327	167.62
1393.079	162.62
1397.825	157.62
1402.567	160.62
1407.304	160.62
1412.036	159.62
1416.764	167.62
1421.487	165.62
1426.205	173.62
1430.919	176.62
1435.628	194.62
1440.333	221.62
1445.032	251.62
1449.727	255.62
1454.418	254.62
1459.104	244.62
1463.785	221.62
1468.462	208.62
1473.134	194.62
1477.802	180.62
1482.465	159.62
1487.123	145.62
1491.777	127.62
1496.426	130.62
1501.071	114.62
1505.711	117.62
1510.347	119.62
1514.978	121.62
1519.604	123.62
1524.226	119.62
1528.844	115.62
1533.457	117.62
1538.065	113.62
1542.669	110.62
1547.269	121.62
1551.864	117.62
1556.454	124.62
1561.041	119.62
1565.622	112.62
1570.199	116.62
1574.772	113.62
1579.34	124.62
1583.904	122.62
1588.464	128.62
1593.019	122.62
1597.569	127.62
1602.115	125.62
1606.657	134.62
1611.195	127.62
1615.728	133.62
1620.256	134.62
1624.78	132.62
1629.3	140.62
1633.816	134.62
1638.327	143.62
1642.834	145.62
1647.336	147.62
1651.834	156.62
1656.328	157.62
1660.817	159.62
1665.302	158.62
1669.783	155.62
1674.259	149.62
1678.732	140.62
1683.199	131.62
1687.663	120.62
1692.122	114.62
1696.577	109.62
1701.028	111.62
1705.474	107.62
1709.917	93.62
1714.355	96.62
1718.788	87.62
1723.218	85.62
1727.643	85.62
1732.064	84.62
1736.481	86.62
1740.893	85.62
1745.301	79.62
1749.705	75.62
1754.105	72.62
1758.501	67.62
1762.893	70.62
1767.28	66.62
1771.663	66.62
1776.042	65.62
1780.417	58.62
1784.787	55.62
1789.154	55.62
1793.516	63.62
1797.874	56.62
1802.228	63.62
1806.578	63.62
1810.924	57.62
1815.266	56.62
1819.603	53.62
1823.937	60.62
1828.266	51.62
1832.591	54.62
1836.913	51.62
1841.23	48.62
1845.543	50.62
1849.852	46.62
1854.156	52.62
1858.457	55.62
1862.754	50.62
1867.047	50.62
1871.335	47.62
1875.62	46.62
1879.9	43.62
1884.177	42.62
1888.449	51.62
1892.718	46.62
1896.982	53.62
1901.243	47.62
1905.499	50.62
1909.752	42.62
1914	46.62
1918.245	45.62
1922.485	41.62
1926.722	51.62
1930.954	50.62
1935.183	47.62
1939.408	47.62
1943.628	43.62
1947.845	45.62
1952.058	50.62
1956.267	47.62
1960.472	52.62
1964.673	45.62
1968.87	44.62
1973.063	44.62
1977.252	43.62
1981.438	41.62
1985.619	40.62
1989.797	40.62
1993.971	43.62
1998.14	45.62
2002.306	40.62
2006.469	35.62
2010.627	36.62
2014.781	44.62
2018.932	45.62
2023.078	45.62
2027.221	44.62
2031.36	35.62
2035.495	37.62
2039.627	36.62
2043.754	38.62
2047.878	36.62
2051.998	39.62
2056.114	38.62
2060.226	38.62
2064.334	42.62
2068.439	39.62
2072.54	37.62
2076.637	42.62
2080.73	41.62
2084.82	45.62
2088.906	43.62
2092.988	40.62
2097.066	40.62
2101.14	44.62
2105.211	42.62
2109.278	41.62
2113.342	41.62
2117.401	41.62
2121.457	37.62
2125.509	32.62
2129.558	41.62
2133.602	35.62
2137.643	44.62
2141.681	35.62
2145.714	37.62
2149.744	38.62
2153.77	39.62
2157.793	33.62
2161.812	35.62
2165.827	33.62
2169.838	34.62
2173.846	32.62
2177.851	31.62
2181.851	30.62
2185.848	31.62
2189.841	30.62
2193.831	32.62
2197.817	26.62
2201.799	27.62
2205.778	30.62
2209.753	27.62
2213.725	25.62
2217.693	31.62
2221.657	27.62
2225.618	20.62
2229.575	23.62
2233.529	26.62
2237.479	25.62
2241.425	23.62
2245.368	24.62
2249.307	27.62
2253.243	24.62
2257.175	23.62
2261.104	20.62
2265.029	24.62
2268.95	18.62
2272.868	18.62
2276.783	18.62
2280.694	20.62
2284.601	16.62
2288.505	18.62
2292.405	14.62
2296.302	18.62
2300.195	16.62
2304.085	15.62
2307.971	12.62
2311.854	14.62
2315.734	11.62
2319.609	10.62
2323.482	15.62
2327.351	16.62
2331.216	16.62
2335.078	13.62
2338.937	17.62
2342.792	16.62
2346.643	12.62
2350.492	12.62
2354.336	7.62
2358.178	5.62
2362.015	6.62
2365.85	9.62
2369.681	7.62
2373.508	12.62
2377.333	11.62
2381.153	12.62
2384.971	7.62
2388.785	5.62
2392.595	10.62
2396.402	6.62
2400.206	7.62
2404.007	7.62
2407.804	9.62
2411.597	11.62
2415.388	4.62
2419.174	4.62
2422.958	5.62
2426.738	5.62
2430.515	11.62
2434.289	7.62
2438.059	6.62
2441.825	6.62
2445.589	4.62
2449.349	8.62
2453.106	3.62
2456.859	4.62
2460.61	5.62
2464.356	7.62
2468.1	2.62
2471.84	6.62
2475.577	7.62
2479.311	3.62
2483.041	3.62
2486.768	5.62
2490.492	4.62
2494.213	6.62
2497.93	4.62
2501.644	3.62
2505.355	2.62
2509.062	5.62
2512.766	4.62
2516.467	3.62
2520.165	3.62
2523.859	2.62
2527.551	5.62
2531.239	7.62
2534.923	2.62
2538.605	3.62
2542.283	2.62
2545.958	0.62
2549.63	2.62
2553.299	3.62
2556.964	4.62
2560.626	5.62
2564.285	1.62
2567.941	0.62
2571.594	4.62
2575.243	2.62
2578.89	2.62
2582.533	3.62
2586.173	5.62
2589.809	5.62
2593.443	4.62
2597.073	-0.38
2600.701	3.62
2604.325	2.62
2607.946	6.62
2611.564	2.62
2615.178	5.62
2618.79	4.62
2622.398	6.62
2626.004	3.62
2629.606	1.62
2633.205	4.62
2636.801	0.62
2640.394	7.62
2643.983	4.62
2647.57	1.62
2651.153	0.62
2654.734	0.62
2658.311	4.62
2661.885	3.62
2665.456	2.62
2669.025	3.62
2672.589	-1.38
2676.151	5.62
2679.71	1.62
2683.266	4.62
2686.819	5.62
2690.368	5.62
2693.915	2.62
2697.458	5.62
2700.999	-1.38
2704.536	3.62
2708.071	0.62
2711.602	2.62
2715.13	3.62
2718.656	3.62
2722.178	3.62
2725.697	4.62
2729.214	4.62
2732.727	11.62
2736.237	4.62
2739.744	11.62
2743.249	6.62
2746.75	6.62
2750.248	3.62
2753.743	2.62
2757.236	1.62
2760.725	6.62
2764.211	9.62
2767.695	5.62
2771.175	5.62
2774.652	4.62
2778.127	3.62
2781.598	5.62
2785.067	2.62
2788.532	1.62
2791.995	8.62
2795.455	5.62
2798.911	5.62
2802.365	4.62
2805.816	4.62
2809.264	9.62
2812.709	9.62
2816.151	11.62
2819.59	18.62
2823.026	17.62
2826.46	15.62
2829.89	20.62
2833.318	20.62
2836.742	28.62
2840.164	35.62
2843.583	41.62
2846.999	51.62
2850.412	62.62
2853.822	68.62
2857.229	74.62
2860.634	80.62
2864.035	82.62
2867.434	82.62
2870.83	86.62
2874.223	87.62
2877.613	87.62
2881	96.62
2884.385	100.62
2887.766	108.62
2891.145	109.62
2894.521	104.62
2897.894	100.62
2901.264	96.62
2904.631	97.62
2907.996	91.62
2911.358	95.62
2914.717	93.62
2918.073	96.62
2921.426	91.62
2924.777	97.62
2928.124	88.62
2931.469	91.62
2934.811	89.62
2938.15	91.62
2941.487	87.62
2944.821	86.62
2948.152	76.62
2951.48	72.62
2954.805	66.62
2958.128	64.62
2961.447	67.62
2964.765	61.62
2968.079	57.62
2971.39	58.62
2974.699	49.62
2978.005	46.62
2981.308	48.62
2984.609	48.62
2987.907	40.62
2991.202	41.62
2994.494	33.62
2997.784	32.62
3001.07	34.62
3004.355	38.62
3007.636	35.62
3010.915	36.62
3014.191	36.62
3017.464	30.62
3020.734	30.62
3024.002	30.62
3027.267	23.62
3030.53	30.62
3033.789	31.62
3037.046	29.62
3040.301	30.62
3043.552	27.62
3046.801	25.62
3050.048	28.62
3053.291	33.62
3056.532	35.62
3059.771	38.62
3063.006	38.62
3066.239	38.62
3069.469	37.62
3072.697	37.62
3075.922	42.62
3079.144	45.62
3082.364	44.62
3085.581	43.62
3088.795	48.62
3092.007	42.62
3095.216	46.62
3098.423	44.62
3101.627	53.62
3104.828	53.62
3108.026	52.62
3111.222	55.62
3114.416	53.62
3117.607	58.62
3120.795	56.62
3123.98	58.62
3127.163	63.62
3130.344	67.62
3133.521	63.62
3136.696	66.62
3139.869	62.62
3143.039	72.62
3146.206	74.62
3149.371	72.62
3152.533	72.62
3155.693	69.62
3158.85	69.62
3162.005	75.62
3165.157	77.62
3168.306	78.62
3171.453	73.62
3174.597	70.62
3177.739	71.62
3180.878	71.62
3184.014	76.62
3187.149	73.62
3190.28	79.62
3193.409	80.62
3196.536	79.62
3199.659	74.62
3202.781	79.62
3205.9	78.62
3209.016	84.62
3212.13	81.62
3215.241	80.62
3218.35	72.62
3221.456	74.62
3224.56	71.62
3227.661	76.62
3230.76	72.62
3233.856	75.62
3236.95	64.62
3240.041	71.62
3243.13	72.62
3246.216	70.62
3249.3	70.62
3252.382	66.62
3255.46	68.62
3258.537	70.62
3261.611	68.62
3264.682	66.62
3267.751	63.62
3270.818	69.62
3273.882	65.62
3276.943	71.62
3280.002	68.62
3283.059	63.62
3286.113	61.62
3289.165	66.62
3292.214	60.62
3295.261	60.62
3298.306	60.62
3301.348	60.62
3304.387	52.62
3307.425	60.62
3310.459	53.62
3313.492	52.62
3316.521	55.62
3319.549	54.62
3322.574	55.62
3325.597	51.62
3328.617	53.62
3331.635	46.62
3334.65	48.62
3337.663	50.62
3340.674	54.62
3343.682	58.62
3346.688	52.62
3349.691	50.62
3352.692	51.62
3355.691	50.62
3358.687	49.62
3361.681	50.62
3364.673	52.62
3367.662	51.62
3370.649	53.62
3373.633	49.62
3376.615	42.62
3379.595	40.62
3382.572	41.62
3385.547	40.62
3388.52	47.62
3391.49	41.62
3394.458	44.62
3397.424	41.62
3400.387	38.62
3403.348	39.62
3406.307	34.62
3409.263	37.62
3412.217	41.62
3415.168	36.62
3418.118	37.62
3421.065	34.62
3424.009	27.62
3426.951	33.62
3429.891	34.62
3432.829	38.62
3435.764	32.62
3438.697	35.62
3441.628	27.62
3444.557	27.62
3447.483	24.62
3450.407	30.62
3453.328	25.62
3456.247	27.62
3459.164	25.62
3462.079	24.62
3464.991	20.62
3467.902	17.62
3470.809	20.62
3473.715	20.62
3476.618	17.62
3479.519	19.62
3482.418	12.62
3485.315	12.62
3488.209	10.62
3491.101	5.62
3493.99	9.62
3496.878	14.62
3499.763	13.62
3502.646	9.62
3505.527	5.62
3508.405	9.62
3511.281	3.62
3514.155	9.62
3517.027	6.62
3519.897	8.62
3522.764	8.62
3525.629	4.62
3528.492	0.62
3531.352	0.62
3534.211	-2.38
3537.067	-1.38
3539.921	-4.38
3542.773	0.62
3545.622	0.62
3548.469	-3.38
3551.315	-6.38
3554.157	-9.38
3556.998	-4.38
3559.837	-6.38
3562.673	-1.38
3565.507	-7.38
3568.339	-5.38
3571.169	-9.38
3573.996	-6.38
3576.822	-9.38
3579.645	-7.38
3582.466	-6.38
3585.285	-9.38
3588.101	-8.38
3590.916	-12.38
3593.728	-13.38
3596.538	-14.38
3599.346	-15.38
3602.152	-13.38
3604.956	-9.38
3607.757	-14.38
3610.556	-11.38
3613.354	-14.38
3616.149	-15.38
3618.942	-13.38
3621.732	-14.38
3624.521	-19.38
3627.307	-13.38
3630.092	-14.38
3632.874	-12.38
3635.654	-17.38
3638.432	-19.38
3641.208	-17.38
3643.982	-16.38
3646.753	-12.38
3649.523	-14.38
3652.29	-17.38
3655.055	-22.38
3657.818	-23.38
3660.579	-20.38
3663.338	-19.38
3666.095	-13.38
3668.849	-17.38
3671.602	-14.38
3674.352	-18.38
3677.101	-18.38
3679.847	-25.38
3682.591	-17.38
3685.333	-16.38
3688.073	-17.38
3690.811	-18.38
3693.547	-23.38
3696.281	-20.38
3699.013	-19.38
3701.742	-21.38
3704.47	-16.38
3707.195	-16.38
3709.919	-19.38
3712.64	-22.38
3715.359	-20.38
3718.076	-18.38
3720.792	-24.38
3723.505	-15.38
3726.216	-17.38
3728.925	-21.38
3731.632	-22.38
3734.336	-22.38
3737.039	-18.38
3739.74	-23.38
3742.439	-20.38
3745.136	-18.38
3747.83	-17.38
3750.523	-17.38
3753.213	-24.38
3755.902	-25.38
3758.589	-25.38
3761.273	-26.38
3763.956	-20.38
3766.636	-19.38
3769.315	-18.38
3771.991	-23.38
3774.665	-24.38
3777.338	-20.38
3780.008	-23.38
3782.677	-20.38
3785.343	-20.38
3788.007	-18.38
3790.67	-20.38
3793.33	-25.38
3795.989	-21.38
3798.645	-24.38
3801.299	-19.38
3803.952	-23.38
3806.602	-18.38
3809.251	-22.38
3811.897	-18.38
3814.542	-23.38
3817.184	-22.38
3819.825	-23.38
3822.463	-18.38
3825.1	-19.38
3827.735	-17.38
3830.367	-22.38
3832.998	-21.38
3835.627	-25.38
3838.253	-19.38
3840.878	-20.38
3843.501	-17.38
3846.122	-21.38
3848.741	-17.38
3851.358	-21.38
3853.973	-21.38
3856.586	-19.38
3859.197	-22.38
3861.806	-19.38
3864.414	-18.38
3867.019	-19.38
3869.622	-21.38
3872.224	-26.38
3874.823	-26.38
3877.421	-21.38
3880.016	-18.38
3882.61	-16.38
3885.202	-11.38
3887.792	-10.38
3890.38	-18.38
3892.966	-23.38
3895.55	-17.38
3898.132	-21.38
3900.713	-18.38
3903.291	-22.38
3905.868	-20.38
3908.442	-24.38
3911.015	-24.38
3913.586	-23.38
3916.155	-25.38
3918.722	-22.38
3921.287	-17.38
3923.85	-23.38
3926.411	-25.38
3928.971	-20.38
3931.528	-22.38
3934.084	-24.38
3936.638	-18.38
3939.19	-24.38
3941.74	-16.38
3944.288	-21.38
3946.834	-24.38
3949.378	-24.38
3951.921	-21.38
3954.462	-20.38
3957	-19.38
3959.537	-23.38
3962.072	-20.38
3964.606	-22.38
3967.137	-20.38
3969.667	-23.38
3972.194	-23.38
3974.72	-21.38
3977.244	-21.38
3979.766	-22.38
3982.286	-18.38
3984.805	-23.38
3987.321	-25.38
3989.836	-23.38
3992.349	-18.38
3994.86	-19.38
3997.369	-21.38
3999.877	-22.38
4002.382	-23.38
4004.886	-22.38
4007.388	-21.38
4009.888	-22.38
4012.386	-20.38
4014.883	-22.38
4017.377	-21.38
4019.87	-24.38
4022.361	-17.38
4024.85	-24.38
4027.338	-23.38
4029.823	-23.38
4032.307	-21.38
4034.789	-21.38
4037.269	-20.38
4039.747	-21.38
4042.224	-20.38
4044.699	-25.38
4047.172	-24.38
4049.643	-23.38
4052.112	-19.38
4054.58	-19.38
4057.046	-19.38
4059.51	-22.38
4061.972	-24.38
4064.432	-24.38
4066.891	-21.38
4069.348	-23.38
4071.803	-22.38
4074.256	-19.38
4076.708	-17.38
4079.158	-22.38
4081.606	-21.38
4084.052	-22.38
4086.497	-21.38
4088.939	-19.38
4091.38	-21.38
4093.819	-24.38
4096.257	-21.38
4098.693	-24.38
4101.127	-22.38
4103.559	-27.38
4105.989	-10.38
4108.418	-11.38
4110.845	-8.38
4113.27	-10.38
4115.694	-5.38
4118.115	-9.38
4120.535	-19.38
4122.954	-25.38
4125.37	-24.38
4127.785	-18.38
4130.198	-20.38
4132.609	-20.38
4135.019	-21.38
4137.427	-22.38
4139.833	-20.38
4142.237	-23.38
