Data from 0CFU2_RamanShift_1.txt Node
Date: Thu Feb 02 11:43:29 IST 2017
User: aro
Spectrometer: QEPB0276
Trigger mode: 0
Integration Time (sec): 5.000000E0
Scans to average: 1
Electric dark correction enabled: true
Nonlinearity correction enabled: false
Boxcar width: 0
XAxis mode: Raman Shifts
Number of Pixels in Spectrum: 1044
>>>>>Begin Spectral Data<<<<<
160.701	-2.12
166.742	4.88
172.777	21.88
178.805	80.88
184.826	204.88
190.841	388.88
196.849	604.88
202.85	748.88
208.845	806.88
214.833	776.88
220.815	770.88
226.789	767.88
232.758	741.88
238.719	745.88
244.674	736.88
250.623	709.88
256.565	691.88
262.5	686.88
268.429	671.88
274.351	663.88
280.267	644.88
286.176	634.88
292.079	628.88
297.975	628.88
303.865	624.88
309.748	625.88
315.625	616.88
321.495	618.88
327.359	610.88
333.217	621.88
339.068	616.88
344.912	617.88
350.751	628.88
356.583	638.88
362.408	632.88
368.227	629.88
374.04	637.88
379.847	613.88
385.647	616.88
391.44	620.88
397.228	628.88
403.009	629.88
408.784	651.88
414.553	634.88
420.315	645.88
426.071	659.88
431.821	646.88
437.565	646.88
443.302	648.88
449.033	654.88
454.758	640.88
460.477	627.88
466.189	630.88
471.896	613.88
477.596	610.88
483.29	602.88
488.978	603.88
494.66	594.88
500.335	574.88
506.005	560.88
511.668	536.88
517.325	507.88
522.977	505.88
528.622	478.88
534.261	459.88
539.894	458.88
545.521	452.88
551.141	443.88
556.756	445.88
562.365	434.88
567.968	424.88
573.565	428.88
579.155	429.88
584.74	426.88
590.319	428.88
595.892	422.88
601.459	429.88
607.02	414.88
612.575	408.88
618.124	408.88
623.667	401.88
629.204	396.88
634.735	388.88
640.261	385.88
645.781	381.88
651.294	385.88
656.802	374.88
662.304	380.88
667.8	372.88
673.29	377.88
678.775	370.88
684.254	357.88
689.726	361.88
695.193	357.88
700.655	351.88
706.11	364.88
711.56	361.88
717.004	359.88
722.442	347.88
727.874	357.88
733.301	348.88
738.722	350.88
744.137	344.88
749.547	350.88
754.951	349.88
760.349	341.88
765.741	346.88
771.128	348.88
776.509	350.88
781.885	344.88
787.254	358.88
792.618	352.88
797.977	361.88
803.33	350.88
808.677	349.88
814.019	350.88
819.355	347.88
824.686	349.88
830.011	352.88
835.33	354.88
840.644	354.88
845.952	355.88
851.255	358.88
856.552	362.88
861.844	364.88
867.13	367.88
872.41	355.88
877.686	366.88
882.955	357.88
888.219	359.88
893.478	356.88
898.731	341.88
903.979	341.88
909.221	323.88
914.458	323.88
919.69	328.88
924.916	324.88
930.136	317.88
935.351	317.88
940.561	310.88
945.766	311.88
950.965	323.88
956.158	318.88
961.347	299.88
966.529	296.88
971.707	289.88
976.879	288.88
982.046	290.88
987.208	283.88
992.364	290.88
997.515	292.88
1002.66	288.88
1007.801	297.88
1012.936	304.88
1018.066	313.88
1023.19	312.88
1028.309	320.88
1033.423	316.88
1038.532	308.88
1043.636	312.88
1048.734	316.88
1053.827	313.88
1058.915	327.88
1063.998	320.88
1069.075	344.88
1074.147	345.88
1079.214	343.88
1084.276	339.88
1089.333	354.88
1094.385	338.88
1099.431	338.88
1104.472	328.88
1109.509	330.88
1114.54	311.88
1119.565	303.88
1124.586	313.88
1129.602	308.88
1134.613	311.88
1139.618	298.88
1144.619	284.88
1149.614	276.88
1154.604	266.88
1159.589	267.88
1164.57	263.88
1169.545	266.88
1174.515	256.88
1179.48	261.88
1184.44	249.88
1189.395	245.88
1194.345	232.88
1199.29	237.88
1204.23	237.88
1209.165	239.88
1214.095	240.88
1219.021	247.88
1223.941	235.88
1228.856	249.88
1233.766	250.88
1238.672	258.88
1243.572	267.88
1248.467	278.88
1253.358	271.88
1258.244	267.88
1263.124	267.88
1268	264.88
1272.871	264.88
1277.737	261.88
1282.599	262.88
1287.455	254.88
1292.306	266.88
1297.153	275.88
1301.995	285.88
1306.832	299.88
1311.664	294.88
1316.491	280.88
1321.314	276.88
1326.132	250.88
1330.945	249.88
1335.753	242.88
1340.556	232.88
1345.354	229.88
1350.148	231.88
1354.937	225.88
1359.722	222.88
1364.501	225.88
1369.276	220.88
1374.046	222.88
1378.811	221.88
1383.572	219.88
1388.327	213.88
1393.079	207.88
1397.825	206.88
1402.567	201.88
1407.304	199.88
1412.036	201.88
1416.764	204.88
1421.487	211.88
1426.205	219.88
1430.919	227.88
1435.628	241.88
1440.333	272.88
1445.032	289.88
1449.727	297.88
1454.418	288.88
1459.104	283.88
1463.785	278.88
1468.462	258.88
1473.134	241.88
1477.802	220.88
1482.465	200.88
1487.123	183.88
1491.777	166.88
1496.426	165.88
1501.071	159.88
1505.711	155.88
1510.347	161.88
1514.978	165.88
1519.604	159.88
1524.226	159.88
1528.844	158.88
1533.457	155.88
1538.065	158.88
1542.669	154.88
1547.269	152.88
1551.864	161.88
1556.454	158.88
1561.041	153.88
1565.622	157.88
1570.199	152.88
1574.772	155.88
1579.34	158.88
1583.904	154.88
1588.464	164.88
1593.019	160.88
1597.569	159.88
1602.115	155.88
1606.657	164.88
1611.195	169.88
1615.728	165.88
1620.256	163.88
1624.78	166.88
1629.3	171.88
1633.816	170.88
1638.327	172.88
1642.834	179.88
1647.336	180.88
1651.834	188.88
1656.328	192.88
1660.817	194.88
1665.302	191.88
1669.783	184.88
1674.259	171.88
1678.732	172.88
1683.199	166.88
1687.663	144.88
1692.122	147.88
1696.577	138.88
1701.028	142.88
1705.474	133.88
1709.917	125.88
1714.355	126.88
1718.788	121.88
1723.218	115.88
1727.643	118.88
1732.064	113.88
1736.481	111.88
1740.893	114.88
1745.301	108.88
1749.705	106.88
1754.105	98.88
1758.501	98.88
1762.893	94.88
1767.28	86.88
1771.663	90.88
1776.042	85.88
1780.417	81.88
1784.787	81.88
1789.154	84.88
1793.516	91.88
1797.874	85.88
1802.228	88.88
1806.578	87.88
1810.924	88.88
1815.266	75.88
1819.603	81.88
1823.937	79.88
1828.266	74.88
1832.591	70.88
1836.913	73.88
1841.23	74.88
1845.543	75.88
1849.852	70.88
1854.156	71.88
1858.457	71.88
1862.754	67.88
1867.047	66.88
1871.335	74.88
1875.62	73.88
1879.9	68.88
1884.177	66.88
1888.449	73.88
1892.718	69.88
1896.982	72.88
1901.243	63.88
1905.499	71.88
1909.752	67.88
1914	69.88
1918.245	69.88
1922.485	64.88
1926.722	67.88
1930.954	68.88
1935.183	67.88
1939.408	72.88
1943.628	72.88
1947.845	66.88
1952.058	63.88
1956.267	69.88
1960.472	69.88
1964.673	66.88
1968.87	63.88
1973.063	68.88
1977.252	60.88
1981.438	57.88
1985.619	60.88
1989.797	58.88
1993.971	56.88
1998.14	60.88
2002.306	59.88
2006.469	57.88
2010.627	53.88
2014.781	60.88
2018.932	63.88
2023.078	61.88
2027.221	57.88
2031.36	53.88
2035.495	54.88
2039.627	54.88
2043.754	58.88
2047.878	53.88
2051.998	48.88
2056.114	52.88
2060.226	57.88
2064.334	59.88
2068.439	52.88
2072.54	56.88
2076.637	56.88
2080.73	56.88
2084.82	57.88
2088.906	63.88
2092.988	61.88
2097.066	55.88
2101.14	60.88
2105.211	57.88
2109.278	55.88
2113.342	52.88
2117.401	50.88
2121.457	57.88
2125.509	51.88
2129.558	52.88
2133.602	46.88
2137.643	52.88
2141.681	46.88
2145.714	48.88
2149.744	52.88
2153.77	52.88
2157.793	49.88
2161.812	46.88
2165.827	41.88
2169.838	40.88
2173.846	42.88
2177.851	37.88
2181.851	41.88
2185.848	41.88
2189.841	46.88
2193.831	43.88
2197.817	34.88
2201.799	38.88
2205.778	38.88
2209.753	40.88
2213.725	38.88
2217.693	41.88
2221.657	38.88
2225.618	36.88
2229.575	31.88
2233.529	35.88
2237.479	34.88
2241.425	35.88
2245.368	38.88
2249.307	35.88
2253.243	30.88
2257.175	27.88
2261.104	29.88
2265.029	27.88
2268.95	30.88
2272.868	30.88
2276.783	31.88
2280.694	24.88
2284.601	22.88
2288.505	21.88
2292.405	25.88
2296.302	24.88
2300.195	25.88
2304.085	27.88
2307.971	28.88
2311.854	20.88
2315.734	20.88
2319.609	19.88
2323.482	21.88
2327.351	24.88
2331.216	24.88
2335.078	22.88
2338.937	21.88
2342.792	16.88
2346.643	16.88
2350.492	17.88
2354.336	16.88
2358.178	19.88
2362.015	20.88
2365.85	15.88
2369.681	12.88
2373.508	12.88
2377.333	13.88
2381.153	16.88
2384.971	14.88
2388.785	18.88
2392.595	16.88
2396.402	13.88
2400.206	14.88
2404.007	11.88
2407.804	18.88
2411.597	14.88
2415.388	12.88
2419.174	14.88
2422.958	13.88
2426.738	11.88
2430.515	5.88
2434.289	9.88
2438.059	10.88
2441.825	12.88
2445.589	9.88
2449.349	11.88
2453.106	4.88
2456.859	7.88
2460.61	5.88
2464.356	7.88
2468.1	8.88
2471.84	13.88
2475.577	11.88
2479.311	4.88
2483.041	9.88
2486.768	8.88
2490.492	7.88
2494.213	5.88
2497.93	7.88
2501.644	9.88
2505.355	7.88
2509.062	8.88
2512.766	8.88
2516.467	7.88
2520.165	3.88
2523.859	7.88
2527.551	8.88
2531.239	10.88
2534.923	3.88
2538.605	5.88
2542.283	4.88
2545.958	7.88
2549.63	7.88
2553.299	12.88
2556.964	6.88
2560.626	10.88
2564.285	6.88
2567.941	5.88
2571.594	5.88
2575.243	6.88
2578.89	8.88
2582.533	10.88
2586.173	7.88
2589.809	9.88
2593.443	6.88
2597.073	1.88
2600.701	4.88
2604.325	5.88
2607.946	9.88
2611.564	7.88
2615.178	5.88
2618.79	5.88
2622.398	1.88
2626.004	4.88
2629.606	7.88
2633.205	9.88
2636.801	4.88
2640.394	6.88
2643.983	6.88
2647.57	3.88
2651.153	1.88
2654.734	0.88
2658.311	1.88
2661.885	5.88
2665.456	2.88
2669.025	6.88
2672.589	0.88
2676.151	0.88
2679.71	-0.12
2683.266	4.88
2686.819	2.88
2690.368	7.88
2693.915	1.88
2697.458	7.88
2700.999	-0.12
2704.536	6.88
2708.071	2.88
2711.602	0.88
2715.13	2.88
2718.656	6.88
2722.178	6.88
2725.697	0.88
2729.214	5.88
2732.727	9.88
2736.237	4.88
2739.744	13.88
2743.249	5.88
2746.75	8.88
2750.248	4.88
2753.743	5.88
2757.236	5.88
2760.725	7.88
2764.211	7.88
2767.695	2.88
2771.175	8.88
2774.652	5.88
2778.127	4.88
2781.598	5.88
2785.067	1.88
2788.532	6.88
2791.995	7.88
2795.455	5.88
2798.911	5.88
2802.365	9.88
2805.816	6.88
2809.264	11.88
2812.709	11.88
2816.151	7.88
2819.59	11.88
2823.026	14.88
2826.46	18.88
2829.89	24.88
2833.318	22.88
2836.742	28.88
2840.164	34.88
2843.583	39.88
2846.999	51.88
2850.412	64.88
2853.822	72.88
2857.229	81.88
2860.634	80.88
2864.035	83.88
2867.434	84.88
2870.83	84.88
2874.223	86.88
2877.613	94.88
2881	91.88
2884.385	103.88
2887.766	101.88
2891.145	101.88
2894.521	98.88
2897.894	99.88
2901.264	98.88
2904.631	94.88
2907.996	97.88
2911.358	94.88
2914.717	95.88
2918.073	92.88
2921.426	87.88
2924.777	88.88
2928.124	92.88
2931.469	91.88
2934.811	90.88
2938.15	87.88
2941.487	85.88
2944.821	83.88
2948.152	72.88
2951.48	74.88
2954.805	69.88
2958.128	62.88
2961.447	65.88
2964.765	57.88
2968.079	53.88
2971.39	56.88
2974.699	50.88
2978.005	48.88
2981.308	50.88
2984.609	47.88
2987.907	42.88
2991.202	38.88
2994.494	34.88
2997.784	34.88
3001.07	37.88
3004.355	39.88
3007.636	36.88
3010.915	33.88
3014.191	29.88
3017.464	29.88
3020.734	26.88
3024.002	33.88
3027.267	31.88
3030.53	35.88
3033.789	31.88
3037.046	29.88
3040.301	28.88
3043.552	28.88
3046.801	29.88
3050.048	35.88
3053.291	36.88
3056.532	33.88
3059.771	38.88
3063.006	38.88
3066.239	39.88
3069.469	38.88
3072.697	41.88
3075.922	46.88
3079.144	44.88
3082.364	44.88
3085.581	38.88
3088.795	47.88
3092.007	45.88
3095.216	56.88
3098.423	52.88
3101.627	54.88
3104.828	55.88
3108.026	56.88
3111.222	52.88
3114.416	56.88
3117.607	57.88
3120.795	61.88
3123.98	62.88
3127.163	68.88
3130.344	67.88
3133.521	65.88
3136.696	65.88
3139.869	65.88
3143.039	73.88
3146.206	82.88
3149.371	77.88
3152.533	75.88
3155.693	73.88
3158.85	71.88
3162.005	74.88
3165.157	78.88
3168.306	76.88
3171.453	78.88
3174.597	80.88
3177.739	74.88
3180.878	73.88
3184.014	77.88
3187.149	78.88
3190.28	75.88
3193.409	83.88
3196.536	78.88
3199.659	78.88
3202.781	73.88
3205.9	70.88
3209.016	82.88
3212.13	79.88
3215.241	83.88
3218.35	79.88
3221.456	76.88
3224.56	79.88
3227.661	75.88
3230.76	72.88
3233.856	77.88
3236.95	74.88
3240.041	75.88
3243.13	75.88
3246.216	75.88
3249.3	70.88
3252.382	70.88
3255.46	67.88
3258.537	76.88
3261.611	72.88
3264.682	66.88
3267.751	65.88
3270.818	68.88
3273.882	63.88
3276.943	69.88
3280.002	66.88
3283.059	70.88
3286.113	68.88
3289.165	66.88
3292.214	62.88
3295.261	58.88
3298.306	70.88
3301.348	60.88
3304.387	56.88
3307.425	62.88
3310.459	56.88
3313.492	53.88
3316.521	55.88
3319.549	57.88
3322.574	54.88
3325.597	52.88
3328.617	54.88
3331.635	48.88
3334.65	52.88
3337.663	53.88
3340.674	47.88
3343.682	49.88
3346.688	49.88
3349.691	54.88
3352.692	49.88
3355.691	48.88
3358.687	44.88
3361.681	48.88
3364.673	50.88
3367.662	51.88
3370.649	51.88
3373.633	49.88
3376.615	43.88
3379.595	41.88
3382.572	41.88
3385.547	42.88
3388.52	41.88
3391.49	43.88
3394.458	43.88
3397.424	43.88
3400.387	36.88
3403.348	31.88
3406.307	37.88
3409.263	38.88
3412.217	37.88
3415.168	35.88
3418.118	37.88
3421.065	34.88
3424.009	32.88
3426.951	33.88
3429.891	36.88
3432.829	33.88
3435.764	27.88
3438.697	31.88
3441.628	26.88
3444.557	22.88
3447.483	22.88
3450.407	32.88
3453.328	26.88
3456.247	27.88
3459.164	22.88
3462.079	18.88
3464.991	17.88
3467.902	18.88
3470.809	19.88
3473.715	16.88
3476.618	15.88
3479.519	13.88
3482.418	10.88
3485.315	12.88
3488.209	10.88
3491.101	7.88
3493.99	9.88
3496.878	12.88
3499.763	10.88
3502.646	8.88
3505.527	3.88
3508.405	5.88
3511.281	4.88
3514.155	5.88
3517.027	2.88
3519.897	4.88
3522.764	1.88
3525.629	0.88
3528.492	-5.12
3531.352	-3.12
3534.211	-1.12
3537.067	-0.12
3539.921	-2.12
3542.773	-3.12
3545.622	-6.12
3548.469	-11.12
3551.315	-8.12
3554.157	-9.12
3556.998	-7.12
3559.837	-5.12
3562.673	-3.12
3565.507	-14.12
3568.339	-10.12
3571.169	-12.12
3573.996	-10.12
3576.822	-6.12
3579.645	-11.12
3582.466	-8.12
3585.285	-9.12
3588.101	-10.12
3590.916	-19.12
3593.728	-14.12
3596.538	-18.12
3599.346	-15.12
3602.152	-13.12
3604.956	-14.12
3607.757	-14.12
3610.556	-16.12
3613.354	-16.12
3616.149	-19.12
3618.942	-13.12
3621.732	-21.12
3624.521	-22.12
3627.307	-17.12
3630.092	-19.12
3632.874	-19.12
3635.654	-17.12
3638.432	-19.12
3641.208	-16.12
3643.982	-17.12
3646.753	-19.12
3649.523	-17.12
3652.29	-20.12
3655.055	-20.12
3657.818	-23.12
3660.579	-20.12
3663.338	-19.12
3666.095	-16.12
3668.849	-18.12
3671.602	-21.12
3674.352	-24.12
3677.101	-18.12
3679.847	-23.12
3682.591	-22.12
3685.333	-23.12
3688.073	-22.12
3690.811	-24.12
3693.547	-24.12
3696.281	-21.12
3699.013	-23.12
3701.742	-22.12
3704.47	-21.12
3707.195	-24.12
3709.919	-22.12
3712.64	-28.12
3715.359	-23.12
3718.076	-19.12
3720.792	-25.12
3723.505	-17.12
3726.216	-21.12
3728.925	-26.12
3731.632	-26.12
3734.336	-24.12
3737.039	-22.12
3739.74	-24.12
3742.439	-21.12
3745.136	-21.12
3747.83	-22.12
3750.523	-24.12
3753.213	-28.12
3755.902	-24.12
3758.589	-24.12
3761.273	-24.12
3763.956	-22.12
3766.636	-23.12
3769.315	-23.12
3771.991	-25.12
3774.665	-27.12
3777.338	-22.12
3780.008	-23.12
3782.677	-21.12
3785.343	-23.12
3788.007	-23.12
3790.67	-24.12
3793.33	-29.12
3795.989	-27.12
3798.645	-23.12
3801.299	-20.12
3803.952	-26.12
3806.602	-22.12
3809.251	-24.12
3811.897	-22.12
3814.542	-26.12
3817.184	-25.12
3819.825	-25.12
3822.463	-21.12
3825.1	-21.12
3827.735	-21.12
3830.367	-25.12
3832.998	-24.12
3835.627	-25.12
3838.253	-21.12
3840.878	-27.12
3843.501	-20.12
3846.122	-24.12
3848.741	-21.12
3851.358	-23.12
3853.973	-26.12
3856.586	-26.12
3859.197	-25.12
3861.806	-23.12
3864.414	-22.12
3867.019	-23.12
3869.622	-24.12
3872.224	-27.12
3874.823	-27.12
3877.421	-24.12
3880.016	-23.12
3882.61	-16.12
3885.202	-12.12
3887.792	-14.12
3890.38	-20.12
3892.966	-24.12
3895.55	-26.12
3898.132	-25.12
3900.713	-19.12
3903.291	-20.12
3905.868	-20.12
3908.442	-27.12
3911.015	-26.12
3913.586	-30.12
3916.155	-27.12
3918.722	-26.12
3921.287	-20.12
3923.85	-24.12
3926.411	-24.12
3928.971	-23.12
3931.528	-28.12
3934.084	-27.12
3936.638	-21.12
3939.19	-26.12
3941.74	-21.12
3944.288	-28.12
3946.834	-28.12
3949.378	-27.12
3951.921	-25.12
3954.462	-21.12
3957	-23.12
3959.537	-22.12
3962.072	-21.12
3964.606	-25.12
3967.137	-25.12
3969.667	-24.12
3972.194	-24.12
3974.72	-26.12
3977.244	-22.12
3979.766	-22.12
3982.286	-20.12
3984.805	-23.12
3987.321	-28.12
3989.836	-29.12
3992.349	-24.12
3994.86	-24.12
3997.369	-22.12
3999.877	-23.12
4002.382	-25.12
4004.886	-23.12
4007.388	-25.12
4009.888	-25.12
4012.386	-26.12
4014.883	-25.12
4017.377	-22.12
4019.87	-21.12
4022.361	-23.12
4024.85	-29.12
4027.338	-27.12
4029.823	-26.12
4032.307	-24.12
4034.789	-22.12
4037.269	-21.12
4039.747	-25.12
4042.224	-24.12
4044.699	-34.12
4047.172	-28.12
4049.643	-29.12
4052.112	-21.12
4054.58	-20.12
4057.046	-21.12
4059.51	-28.12
4061.972	-27.12
4064.432	-24.12
4066.891	-22.12
4069.348	-24.12
4071.803	-21.12
4074.256	-24.12
4076.708	-22.12
4079.158	-25.12
4081.606	-24.12
4084.052	-25.12
4086.497	-21.12
4088.939	-20.12
4091.38	-21.12
4093.819	-25.12
4096.257	-23.12
4098.693	-27.12
4101.127	-24.12
4103.559	-29.12
4105.989	-11.12
4108.418	-12.12
4110.845	-9.12
4113.27	-10.12
4115.694	-7.12
4118.115	-9.12
4120.535	-23.12
4122.954	-29.12
4125.37	-28.12
4127.785	-24.12
4130.198	-24.12
4132.609	-22.12
4135.019	-24.12
4137.427	-30.12
4139.833	-24.12
4142.237	-27.12
