Data from 10000CFU3_C_RamanShift_1.txt Node
Date: Thu Feb 02 15:11:05 IST 2017
User: aro
Spectrometer: QEPB0276
Trigger mode: 0
Integration Time (sec): 5.000000E0
Scans to average: 1
Electric dark correction enabled: true
Nonlinearity correction enabled: false
Boxcar width: 0
XAxis mode: Raman Shifts
Number of Pixels in Spectrum: 1044
>>>>>Begin Spectral Data<<<<<
160.701	-6.25
166.742	1.75
172.777	24.75
178.805	84.75
184.826	213.75
190.841	407.75
196.849	634.75
202.85	783.75
208.845	822.75
214.833	814.75
220.815	798.75
226.789	784.75
232.758	789.75
238.719	785.75
244.674	761.75
250.623	750.75
256.565	737.75
262.5	715.75
268.429	694.75
274.351	697.75
280.267	673.75
286.176	654.75
292.079	671.75
297.975	641.75
303.865	653.75
309.748	659.75
315.625	649.75
321.495	644.75
327.359	649.75
333.217	647.75
339.068	645.75
344.912	666.75
350.751	665.75
356.583	671.75
362.408	669.75
368.227	657.75
374.04	647.75
379.847	643.75
385.647	642.75
391.44	652.75
397.228	656.75
403.009	664.75
408.784	666.75
414.553	665.75
420.315	679.75
426.071	669.75
431.821	684.75
437.565	680.75
443.302	678.75
449.033	669.75
454.758	662.75
460.477	657.75
466.189	655.75
471.896	648.75
477.596	641.75
483.29	633.75
488.978	622.75
494.66	619.75
500.335	607.75
506.005	572.75
511.668	564.75
517.325	534.75
522.977	520.75
528.622	510.75
534.261	488.75
539.894	483.75
545.521	469.75
551.141	468.75
556.756	465.75
562.365	451.75
567.968	457.75
573.565	449.75
579.155	453.75
584.74	451.75
590.319	439.75
595.892	449.75
601.459	445.75
607.02	431.75
612.575	433.75
618.124	433.75
623.667	429.75
629.204	422.75
634.735	408.75
640.261	412.75
645.781	409.75
651.294	402.75
656.802	406.75
662.304	391.75
667.8	399.75
673.29	389.75
678.775	392.75
684.254	391.75
689.726	386.75
695.193	374.75
700.655	375.75
706.11	379.75
711.56	390.75
717.004	381.75
722.442	379.75
727.874	375.75
733.301	374.75
738.722	361.75
744.137	367.75
749.547	364.75
754.951	366.75
760.349	368.75
765.741	371.75
771.128	359.75
776.509	373.75
781.885	376.75
787.254	374.75
792.618	378.75
797.977	368.75
803.33	376.75
808.677	364.75
814.019	378.75
819.355	372.75
824.686	364.75
830.011	368.75
835.33	377.75
840.644	379.75
845.952	378.75
851.255	377.75
856.552	372.75
861.844	392.75
867.13	388.75
872.41	391.75
877.686	383.75
882.955	384.75
888.219	379.75
893.478	371.75
898.731	361.75
903.979	357.75
909.221	344.75
914.458	347.75
919.69	342.75
924.916	340.75
930.136	331.75
935.351	339.75
940.561	327.75
945.766	337.75
950.965	330.75
956.158	337.75
961.347	325.75
966.529	316.75
971.707	315.75
976.879	305.75
982.046	304.75
987.208	305.75
992.364	308.75
997.515	303.75
1002.66	308.75
1007.801	323.75
1012.936	329.75
1018.066	329.75
1023.19	321.75
1028.309	333.75
1033.423	333.75
1038.532	333.75
1043.636	344.75
1048.734	328.75
1053.827	338.75
1058.915	350.75
1063.998	348.75
1069.075	359.75
1074.147	358.75
1079.214	362.75
1084.276	355.75
1089.333	376.75
1094.385	368.75
1099.431	364.75
1104.472	350.75
1109.509	341.75
1114.54	331.75
1119.565	329.75
1124.586	332.75
1129.602	332.75
1134.613	331.75
1139.618	316.75
1144.619	297.75
1149.614	295.75
1154.604	287.75
1159.589	290.75
1164.57	284.75
1169.545	279.75
1174.515	273.75
1179.48	265.75
1184.44	258.75
1189.395	262.75
1194.345	261.75
1199.29	252.75
1204.23	253.75
1209.165	256.75
1214.095	264.75
1219.021	260.75
1223.941	263.75
1228.856	264.75
1233.766	273.75
1238.672	279.75
1243.572	287.75
1248.467	286.75
1253.358	285.75
1258.244	293.75
1263.124	292.75
1268	290.75
1272.871	286.75
1277.737	285.75
1282.599	277.75
1287.455	270.75
1292.306	277.75
1297.153	300.75
1301.995	310.75
1306.832	314.75
1311.664	305.75
1316.491	299.75
1321.314	290.75
1326.132	263.75
1330.945	261.75
1335.753	246.75
1340.556	251.75
1345.354	244.75
1350.148	243.75
1354.937	241.75
1359.722	234.75
1364.501	231.75
1369.276	229.75
1374.046	231.75
1378.811	233.75
1383.572	236.75
1388.327	233.75
1393.079	223.75
1397.825	220.75
1402.567	214.75
1407.304	212.75
1412.036	218.75
1416.764	211.75
1421.487	221.75
1426.205	229.75
1430.919	239.75
1435.628	249.75
1440.333	286.75
1445.032	306.75
1449.727	315.75
1454.418	300.75
1459.104	298.75
1463.785	285.75
1468.462	275.75
1473.134	258.75
1477.802	231.75
1482.465	210.75
1487.123	194.75
1491.777	177.75
1496.426	171.75
1501.071	169.75
1505.711	172.75
1510.347	169.75
1514.978	171.75
1519.604	169.75
1524.226	178.75
1528.844	171.75
1533.457	170.75
1538.065	165.75
1542.669	163.75
1547.269	165.75
1551.864	162.75
1556.454	173.75
1561.041	168.75
1565.622	166.75
1570.199	167.75
1574.772	153.75
1579.34	171.75
1583.904	161.75
1588.464	171.75
1593.019	170.75
1597.569	173.75
1602.115	169.75
1606.657	182.75
1611.195	173.75
1615.728	176.75
1620.256	177.75
1624.78	183.75
1629.3	181.75
1633.816	183.75
1638.327	184.75
1642.834	191.75
1647.336	185.75
1651.834	199.75
1656.328	201.75
1660.817	202.75
1665.302	199.75
1669.783	195.75
1674.259	185.75
1678.732	183.75
1683.199	168.75
1687.663	166.75
1692.122	153.75
1696.577	146.75
1701.028	147.75
1705.474	142.75
1709.917	133.75
1714.355	136.75
1718.788	121.75
1723.218	120.75
1727.643	119.75
1732.064	115.75
1736.481	123.75
1740.893	115.75
1745.301	118.75
1749.705	111.75
1754.105	112.75
1758.501	97.75
1762.893	101.75
1767.28	92.75
1771.663	92.75
1776.042	93.75
1780.417	91.75
1784.787	92.75
1789.154	86.75
1793.516	91.75
1797.874	91.75
1802.228	91.75
1806.578	87.75
1810.924	90.75
1815.266	84.75
1819.603	84.75
1823.937	85.75
1828.266	79.75
1832.591	76.75
1836.913	77.75
1841.23	75.75
1845.543	73.75
1849.852	71.75
1854.156	75.75
1858.457	79.75
1862.754	77.75
1867.047	76.75
1871.335	75.75
1875.62	77.75
1879.9	75.75
1884.177	71.75
1888.449	74.75
1892.718	70.75
1896.982	77.75
1901.243	80.75
1905.499	80.75
1909.752	73.75
1914	77.75
1918.245	65.75
1922.485	68.75
1926.722	73.75
1930.954	69.75
1935.183	71.75
1939.408	72.75
1943.628	71.75
1947.845	70.75
1952.058	74.75
1956.267	75.75
1960.472	69.75
1964.673	66.75
1968.87	70.75
1973.063	66.75
1977.252	56.75
1981.438	63.75
1985.619	59.75
1989.797	60.75
1993.971	60.75
1998.14	61.75
2002.306	65.75
2006.469	61.75
2010.627	56.75
2014.781	62.75
2018.932	65.75
2023.078	67.75
2027.221	62.75
2031.36	60.75
2035.495	51.75
2039.627	54.75
2043.754	55.75
2047.878	54.75
2051.998	57.75
2056.114	56.75
2060.226	62.75
2064.334	55.75
2068.439	52.75
2072.54	60.75
2076.637	56.75
2080.73	56.75
2084.82	58.75
2088.906	66.75
2092.988	59.75
2097.066	58.75
2101.14	56.75
2105.211	59.75
2109.278	52.75
2113.342	52.75
2117.401	52.75
2121.457	54.75
2125.509	51.75
2129.558	57.75
2133.602	55.75
2137.643	56.75
2141.681	49.75
2145.714	52.75
2149.744	51.75
2153.77	50.75
2157.793	46.75
2161.812	49.75
2165.827	44.75
2169.838	49.75
2173.846	48.75
2177.851	48.75
2181.851	41.75
2185.848	44.75
2189.841	41.75
2193.831	38.75
2197.817	40.75
2201.799	43.75
2205.778	44.75
2209.753	43.75
2213.725	41.75
2217.693	41.75
2221.657	35.75
2225.618	36.75
2229.575	32.75
2233.529	37.75
2237.479	35.75
2241.425	41.75
2245.368	36.75
2249.307	35.75
2253.243	28.75
2257.175	30.75
2261.104	30.75
2265.029	35.75
2268.95	32.75
2272.868	30.75
2276.783	26.75
2280.694	30.75
2284.601	26.75
2288.505	28.75
2292.405	27.75
2296.302	26.75
2300.195	25.75
2304.085	25.75
2307.971	27.75
2311.854	22.75
2315.734	23.75
2319.609	21.75
2323.482	24.75
2327.351	24.75
2331.216	23.75
2335.078	22.75
2338.937	23.75
2342.792	20.75
2346.643	15.75
2350.492	19.75
2354.336	15.75
2358.178	19.75
2362.015	15.75
2365.85	16.75
2369.681	16.75
2373.508	17.75
2377.333	19.75
2381.153	19.75
2384.971	19.75
2388.785	17.75
2392.595	11.75
2396.402	12.75
2400.206	14.75
2404.007	15.75
2407.804	20.75
2411.597	19.75
2415.388	11.75
2419.174	12.75
2422.958	10.75
2426.738	11.75
2430.515	9.75
2434.289	15.75
2438.059	13.75
2441.825	12.75
2445.589	13.75
2449.349	13.75
2453.106	13.75
2456.859	8.75
2460.61	8.75
2464.356	11.75
2468.1	8.75
2471.84	11.75
2475.577	12.75
2479.311	8.75
2483.041	7.75
2486.768	10.75
2490.492	9.75
2494.213	10.75
2497.93	8.75
2501.644	3.75
2505.355	11.75
2509.062	7.75
2512.766	11.75
2516.467	9.75
2520.165	9.75
2523.859	9.75
2527.551	9.75
2531.239	6.75
2534.923	4.75
2538.605	6.75
2542.283	6.75
2545.958	12.75
2549.63	8.75
2553.299	10.75
2556.964	5.75
2560.626	7.75
2564.285	0.75
2567.941	6.75
2571.594	8.75
2575.243	9.75
2578.89	13.75
2582.533	7.75
2586.173	5.75
2589.809	7.75
2593.443	8.75
2597.073	3.75
2600.701	5.75
2604.325	7.75
2607.946	7.75
2611.564	11.75
2615.178	7.75
2618.79	10.75
2622.398	9.75
2626.004	5.75
2629.606	8.75
2633.205	4.75
2636.801	5.75
2640.394	10.75
2643.983	9.75
2647.57	5.75
2651.153	5.75
2654.734	2.75
2658.311	4.75
2661.885	5.75
2665.456	1.75
2669.025	4.75
2672.589	0.75
2676.151	5.75
2679.71	5.75
2683.266	5.75
2686.819	5.75
2690.368	3.75
2693.915	0.75
2697.458	5.75
2700.999	2.75
2704.536	6.75
2708.071	6.75
2711.602	7.75
2715.13	5.75
2718.656	5.75
2722.178	3.75
2725.697	4.75
2729.214	9.75
2732.727	7.75
2736.237	9.75
2739.744	14.75
2743.249	10.75
2746.75	4.75
2750.248	6.75
2753.743	8.75
2757.236	3.75
2760.725	5.75
2764.211	7.75
2767.695	6.75
2771.175	10.75
2774.652	7.75
2778.127	1.75
2781.598	3.75
2785.067	6.75
2788.532	5.75
2791.995	8.75
2795.455	6.75
2798.911	4.75
2802.365	6.75
2805.816	8.75
2809.264	15.75
2812.709	14.75
2816.151	14.75
2819.59	15.75
2823.026	13.75
2826.46	17.75
2829.89	21.75
2833.318	28.75
2836.742	30.75
2840.164	37.75
2843.583	50.75
2846.999	57.75
2850.412	66.75
2853.822	73.75
2857.229	86.75
2860.634	87.75
2864.035	83.75
2867.434	88.75
2870.83	89.75
2874.223	92.75
2877.613	94.75
2881	104.75
2884.385	116.75
2887.766	113.75
2891.145	116.75
2894.521	110.75
2897.894	106.75
2901.264	108.75
2904.631	104.75
2907.996	106.75
2911.358	103.75
2914.717	100.75
2918.073	101.75
2921.426	93.75
2924.777	98.75
2928.124	97.75
2931.469	96.75
2934.811	101.75
2938.15	99.75
2941.487	92.75
2944.821	80.75
2948.152	75.75
2951.48	77.75
2954.805	72.75
2958.128	67.75
2961.447	68.75
2964.765	67.75
2968.079	59.75
2971.39	60.75
2974.699	50.75
2978.005	50.75
2981.308	43.75
2984.609	48.75
2987.907	45.75
2991.202	44.75
2994.494	36.75
2997.784	38.75
3001.07	40.75
3004.355	42.75
3007.636	40.75
3010.915	40.75
3014.191	36.75
3017.464	31.75
3020.734	22.75
3024.002	32.75
3027.267	26.75
3030.53	38.75
3033.789	35.75
3037.046	30.75
3040.301	35.75
3043.552	29.75
3046.801	31.75
3050.048	34.75
3053.291	33.75
3056.532	38.75
3059.771	41.75
3063.006	40.75
3066.239	39.75
3069.469	43.75
3072.697	39.75
3075.922	47.75
3079.144	44.75
3082.364	50.75
3085.581	44.75
3088.795	53.75
3092.007	46.75
3095.216	55.75
3098.423	53.75
3101.627	51.75
3104.828	54.75
3108.026	51.75
3111.222	59.75
3114.416	59.75
3117.607	65.75
3120.795	63.75
3123.98	66.75
3127.163	72.75
3130.344	69.75
3133.521	69.75
3136.696	67.75
3139.869	71.75
3143.039	79.75
3146.206	85.75
3149.371	80.75
3152.533	81.75
3155.693	77.75
3158.85	75.75
3162.005	76.75
3165.157	85.75
3168.306	83.75
3171.453	82.75
3174.597	81.75
3177.739	84.75
3180.878	83.75
3184.014	82.75
3187.149	78.75
3190.28	85.75
3193.409	78.75
3196.536	80.75
3199.659	80.75
3202.781	84.75
3205.9	83.75
3209.016	83.75
3212.13	87.75
3215.241	90.75
3218.35	82.75
3221.456	77.75
3224.56	81.75
3227.661	82.75
3230.76	78.75
3233.856	78.75
3236.95	76.75
3240.041	73.75
3243.13	80.75
3246.216	78.75
3249.3	76.75
3252.382	72.75
3255.46	67.75
3258.537	71.75
3261.611	71.75
3264.682	72.75
3267.751	72.75
3270.818	75.75
3273.882	65.75
3276.943	75.75
3280.002	65.75
3283.059	77.75
3286.113	65.75
3289.165	66.75
3292.214	65.75
3295.261	67.75
3298.306	66.75
3301.348	70.75
3304.387	61.75
3307.425	65.75
3310.459	60.75
3313.492	57.75
3316.521	53.75
3319.549	58.75
3322.574	55.75
3325.597	54.75
3328.617	58.75
3331.635	52.75
3334.65	57.75
3337.663	54.75
3340.674	51.75
3343.682	53.75
3346.688	51.75
3349.691	58.75
3352.692	56.75
3355.691	49.75
3358.687	51.75
3361.681	50.75
3364.673	48.75
3367.662	52.75
3370.649	47.75
3373.633	50.75
3376.615	43.75
3379.595	45.75
3382.572	44.75
3385.547	46.75
3388.52	44.75
3391.49	46.75
3394.458	45.75
3397.424	39.75
3400.387	35.75
3403.348	42.75
3406.307	40.75
3409.263	40.75
3412.217	39.75
3415.168	37.75
3418.118	39.75
3421.065	32.75
3424.009	33.75
3426.951	36.75
3429.891	32.75
3432.829	35.75
3435.764	32.75
3438.697	36.75
3441.628	31.75
3444.557	26.75
3447.483	27.75
3450.407	23.75
3453.328	24.75
3456.247	25.75
3459.164	23.75
3462.079	21.75
3464.991	19.75
3467.902	20.75
3470.809	17.75
3473.715	17.75
3476.618	18.75
3479.519	12.75
3482.418	11.75
3485.315	10.75
3488.209	9.75
3491.101	10.75
3493.99	13.75
3496.878	10.75
3499.763	8.75
3502.646	5.75
3505.527	9.75
3508.405	4.75
3511.281	3.75
3514.155	8.75
3517.027	5.75
3519.897	6.75
3522.764	3.75
3525.629	-0.25
3528.492	-1.25
3531.352	-5.25
3534.211	-5.25
3537.067	-2.25
3539.921	-1.25
3542.773	-0.25
3545.622	-4.25
3548.469	-7.25
3551.315	-10.25
3554.157	-9.25
3556.998	-10.25
3559.837	-5.25
3562.673	-7.25
3565.507	-11.25
3568.339	-5.25
3571.169	-10.25
3573.996	-9.25
3576.822	-8.25
3579.645	-17.25
3582.466	-11.25
3585.285	-13.25
3588.101	-12.25
3590.916	-19.25
3593.728	-16.25
3596.538	-16.25
3599.346	-18.25
3602.152	-16.25
3604.956	-16.25
3607.757	-16.25
3610.556	-18.25
3613.354	-17.25
3616.149	-21.25
3618.942	-15.25
3621.732	-18.25
3624.521	-18.25
3627.307	-16.25
3630.092	-18.25
3632.874	-20.25
3635.654	-20.25
3638.432	-19.25
3641.208	-17.25
3643.982	-16.25
3646.753	-17.25
3649.523	-16.25
3652.29	-21.25
3655.055	-23.25
3657.818	-29.25
3660.579	-21.25
3663.338	-22.25
3666.095	-16.25
3668.849	-18.25
3671.602	-19.25
3674.352	-24.25
3677.101	-21.25
3679.847	-24.25
3682.591	-26.25
3685.333	-21.25
3688.073	-21.25
3690.811	-25.25
3693.547	-27.25
3696.281	-23.25
3699.013	-24.25
3701.742	-26.25
3704.47	-23.25
3707.195	-23.25
3709.919	-22.25
3712.64	-27.25
3715.359	-26.25
3718.076	-21.25
3720.792	-27.25
3723.505	-18.25
3726.216	-22.25
3728.925	-27.25
3731.632	-26.25
3734.336	-27.25
3737.039	-23.25
3739.74	-27.25
3742.439	-21.25
3745.136	-23.25
3747.83	-23.25
3750.523	-23.25
3753.213	-31.25
3755.902	-28.25
3758.589	-26.25
3761.273	-24.25
3763.956	-21.25
3766.636	-23.25
3769.315	-20.25
3771.991	-24.25
3774.665	-27.25
3777.338	-26.25
3780.008	-26.25
3782.677	-26.25
3785.343	-25.25
3788.007	-21.25
3790.67	-24.25
3793.33	-27.25
3795.989	-27.25
3798.645	-26.25
3801.299	-24.25
3803.952	-28.25
3806.602	-25.25
3809.251	-26.25
3811.897	-22.25
3814.542	-25.25
3817.184	-26.25
3819.825	-26.25
3822.463	-23.25
3825.1	-26.25
3827.735	-24.25
3830.367	-27.25
3832.998	-23.25
3835.627	-28.25
3838.253	-22.25
3840.878	-24.25
3843.501	-20.25
3846.122	-27.25
3848.741	-24.25
3851.358	-28.25
3853.973	-30.25
3856.586	-25.25
3859.197	-26.25
3861.806	-23.25
3864.414	-24.25
3867.019	-26.25
3869.622	-25.25
3872.224	-28.25
3874.823	-29.25
3877.421	-24.25
3880.016	-21.25
3882.61	-19.25
3885.202	-12.25
3887.792	-10.25
3890.38	-19.25
3892.966	-27.25
3895.55	-26.25
3898.132	-27.25
3900.713	-21.25
3903.291	-24.25
3905.868	-21.25
3908.442	-26.25
3911.015	-24.25
3913.586	-27.25
3916.155	-28.25
3918.722	-27.25
3921.287	-25.25
3923.85	-27.25
3926.411	-25.25
3928.971	-22.25
3931.528	-26.25
3934.084	-26.25
3936.638	-24.25
3939.19	-27.25
3941.74	-25.25
3944.288	-28.25
3946.834	-25.25
3949.378	-27.25
3951.921	-24.25
3954.462	-23.25
3957	-21.25
3959.537	-26.25
3962.072	-25.25
3964.606	-29.25
3967.137	-26.25
3969.667	-29.25
3972.194	-25.25
3974.72	-27.25
3977.244	-22.25
3979.766	-23.25
3982.286	-20.25
3984.805	-26.25
3987.321	-27.25
3989.836	-27.25
3992.349	-28.25
3994.86	-25.25
3997.369	-24.25
3999.877	-26.25
4002.382	-24.25
4004.886	-22.25
4007.388	-26.25
4009.888	-30.25
4012.386	-25.25
4014.883	-25.25
4017.377	-23.25
4019.87	-25.25
4022.361	-21.25
4024.85	-29.25
4027.338	-27.25
4029.823	-27.25
4032.307	-27.25
4034.789	-27.25
4037.269	-25.25
4039.747	-23.25
4042.224	-23.25
4044.699	-29.25
4047.172	-30.25
4049.643	-27.25
4052.112	-21.25
4054.58	-21.25
4057.046	-23.25
4059.51	-29.25
4061.972	-24.25
4064.432	-25.25
4066.891	-23.25
4069.348	-24.25
4071.803	-27.25
4074.256	-25.25
4076.708	-27.25
4079.158	-29.25
4081.606	-26.25
4084.052	-24.25
4086.497	-22.25
4088.939	-21.25
4091.38	-22.25
4093.819	-25.25
4096.257	-27.25
4098.693	-30.25
4101.127	-25.25
4103.559	-29.25
4105.989	-10.25
4108.418	-13.25
4110.845	-9.25
4113.27	-11.25
4115.694	-8.25
4118.115	-13.25
4120.535	-26.25
4122.954	-28.25
4125.37	-25.25
4127.785	-25.25
4130.198	-23.25
4132.609	-25.25
4135.019	-26.25
4137.427	-26.25
4139.833	-24.25
4142.237	-28.25
