Data from 10000000CFU1_D_RamanShift_1.txt Node
Date: Thu Feb 02 12:25:38 IST 2017
User: aro
Spectrometer: QEPB0276
Trigger mode: 0
Integration Time (sec): 5.000000E0
Scans to average: 1
Electric dark correction enabled: true
Nonlinearity correction enabled: false
Boxcar width: 0
XAxis mode: Raman Shifts
Number of Pixels in Spectrum: 1044
>>>>>Begin Spectral Data<<<<<
160.701	-5.38
166.742	-0.38
172.777	23.62
178.805	85.62
184.826	206.62
190.841	402.62
196.849	626.62
202.85	778.62
208.845	821.62
214.833	813.62
220.815	796.62
226.789	769.62
232.758	766.62
238.719	758.62
244.674	756.62
250.623	742.62
256.565	724.62
262.5	696.62
268.429	685.62
274.351	664.62
280.267	657.62
286.176	659.62
292.079	652.62
297.975	655.62
303.865	638.62
309.748	637.62
315.625	633.62
321.495	627.62
327.359	632.62
333.217	631.62
339.068	642.62
344.912	642.62
350.751	646.62
356.583	650.62
362.408	654.62
368.227	653.62
374.04	637.62
379.847	636.62
385.647	633.62
391.44	636.62
397.228	640.62
403.009	640.62
408.784	658.62
414.553	650.62
420.315	658.62
426.071	658.62
431.821	661.62
437.565	665.62
443.302	664.62
449.033	664.62
454.758	658.62
460.477	644.62
466.189	642.62
471.896	630.62
477.596	625.62
483.29	620.62
488.978	620.62
494.66	603.62
500.335	595.62
506.005	559.62
511.668	550.62
517.325	521.62
522.977	511.62
528.622	492.62
534.261	476.62
539.894	473.62
545.521	464.62
551.141	455.62
556.756	453.62
562.365	447.62
567.968	442.62
573.565	441.62
579.155	436.62
584.74	436.62
590.319	429.62
595.892	436.62
601.459	435.62
607.02	425.62
612.575	421.62
618.124	421.62
623.667	422.62
629.204	410.62
634.735	403.62
640.261	395.62
645.781	396.62
651.294	401.62
656.802	387.62
662.304	383.62
667.8	378.62
673.29	380.62
678.775	383.62
684.254	371.62
689.726	373.62
695.193	375.62
700.655	372.62
706.11	373.62
711.56	374.62
717.004	364.62
722.442	366.62
727.874	366.62
733.301	365.62
738.722	359.62
744.137	362.62
749.547	359.62
754.951	349.62
760.349	365.62
765.741	361.62
771.128	359.62
776.509	359.62
781.885	365.62
787.254	357.62
792.618	361.62
797.977	362.62
803.33	359.62
808.677	359.62
814.019	359.62
819.355	359.62
824.686	359.62
830.011	352.62
835.33	364.62
840.644	366.62
845.952	361.62
851.255	376.62
856.552	372.62
861.844	378.62
867.13	374.62
872.41	373.62
877.686	378.62
882.955	375.62
888.219	371.62
893.478	360.62
898.731	348.62
903.979	349.62
909.221	339.62
914.458	332.62
919.69	331.62
924.916	325.62
930.136	327.62
935.351	326.62
940.561	325.62
945.766	322.62
950.965	325.62
956.158	321.62
961.347	312.62
966.529	307.62
971.707	301.62
976.879	298.62
982.046	295.62
987.208	299.62
992.364	290.62
997.515	294.62
1002.66	307.62
1007.801	307.62
1012.936	316.62
1018.066	323.62
1023.19	320.62
1028.309	323.62
1033.423	323.62
1038.532	321.62
1043.636	323.62
1048.734	328.62
1053.827	322.62
1058.915	328.62
1063.998	337.62
1069.075	351.62
1074.147	355.62
1079.214	349.62
1084.276	358.62
1089.333	358.62
1094.385	346.62
1099.431	356.62
1104.472	344.62
1109.509	321.62
1114.54	315.62
1119.565	325.62
1124.586	327.62
1129.602	334.62
1134.613	324.62
1139.618	304.62
1144.619	288.62
1149.614	274.62
1154.604	279.62
1159.589	274.62
1164.57	277.62
1169.545	277.62
1174.515	264.62
1179.48	264.62
1184.44	259.62
1189.395	238.62
1194.345	244.62
1199.29	244.62
1204.23	249.62
1209.165	252.62
1214.095	256.62
1219.021	254.62
1223.941	253.62
1228.856	258.62
1233.766	263.62
1238.672	271.62
1243.572	277.62
1248.467	284.62
1253.358	284.62
1258.244	289.62
1263.124	280.62
1268	280.62
1272.871	275.62
1277.737	268.62
1282.599	276.62
1287.455	261.62
1292.306	269.62
1297.153	283.62
1301.995	300.62
1306.832	310.62
1311.664	291.62
1316.491	288.62
1321.314	291.62
1326.132	269.62
1330.945	258.62
1335.753	249.62
1340.556	239.62
1345.354	251.62
1350.148	238.62
1354.937	239.62
1359.722	225.62
1364.501	228.62
1369.276	225.62
1374.046	230.62
1378.811	228.62
1383.572	229.62
1388.327	219.62
1393.079	217.62
1397.825	209.62
1402.567	206.62
1407.304	205.62
1412.036	208.62
1416.764	214.62
1421.487	218.62
1426.205	221.62
1430.919	225.62
1435.628	251.62
1440.333	282.62
1445.032	297.62
1449.727	311.62
1454.418	303.62
1459.104	288.62
1463.785	286.62
1468.462	275.62
1473.134	248.62
1477.802	226.62
1482.465	203.62
1487.123	182.62
1491.777	165.62
1496.426	177.62
1501.071	162.62
1505.711	165.62
1510.347	166.62
1514.978	166.62
1519.604	168.62
1524.226	165.62
1528.844	167.62
1533.457	160.62
1538.065	161.62
1542.669	165.62
1547.269	160.62
1551.864	165.62
1556.454	160.62
1561.041	164.62
1565.622	160.62
1570.199	158.62
1574.772	148.62
1579.34	161.62
1583.904	165.62
1588.464	164.62
1593.019	166.62
1597.569	166.62
1602.115	165.62
1606.657	169.62
1611.195	166.62
1615.728	170.62
1620.256	165.62
1624.78	178.62
1629.3	177.62
1633.816	174.62
1638.327	184.62
1642.834	186.62
1647.336	196.62
1651.834	184.62
1656.328	204.62
1660.817	204.62
1665.302	195.62
1669.783	191.62
1674.259	192.62
1678.732	179.62
1683.199	169.62
1687.663	158.62
1692.122	154.62
1696.577	149.62
1701.028	141.62
1705.474	134.62
1709.917	129.62
1714.355	132.62
1718.788	117.62
1723.218	119.62
1727.643	115.62
1732.064	117.62
1736.481	113.62
1740.893	110.62
1745.301	114.62
1749.705	109.62
1754.105	109.62
1758.501	97.62
1762.893	94.62
1767.28	92.62
1771.663	92.62
1776.042	92.62
1780.417	84.62
1784.787	84.62
1789.154	84.62
1793.516	82.62
1797.874	86.62
1802.228	88.62
1806.578	93.62
1810.924	86.62
1815.266	81.62
1819.603	75.62
1823.937	73.62
1828.266	79.62
1832.591	72.62
1836.913	78.62
1841.23	75.62
1845.543	71.62
1849.852	67.62
1854.156	67.62
1858.457	77.62
1862.754	74.62
1867.047	75.62
1871.335	76.62
1875.62	70.62
1879.9	66.62
1884.177	67.62
1888.449	73.62
1892.718	71.62
1896.982	69.62
1901.243	69.62
1905.499	71.62
1909.752	69.62
1914	68.62
1918.245	64.62
1922.485	64.62
1926.722	69.62
1930.954	65.62
1935.183	71.62
1939.408	73.62
1943.628	71.62
1947.845	66.62
1952.058	68.62
1956.267	68.62
1960.472	66.62
1964.673	64.62
1968.87	61.62
1973.063	61.62
1977.252	61.62
1981.438	61.62
1985.619	63.62
1989.797	57.62
1993.971	59.62
1998.14	60.62
2002.306	62.62
2006.469	57.62
2010.627	58.62
2014.781	59.62
2018.932	58.62
2023.078	58.62
2027.221	57.62
2031.36	57.62
2035.495	50.62
2039.627	55.62
2043.754	56.62
2047.878	56.62
2051.998	54.62
2056.114	51.62
2060.226	52.62
2064.334	56.62
2068.439	56.62
2072.54	54.62
2076.637	60.62
2080.73	55.62
2084.82	58.62
2088.906	59.62
2092.988	54.62
2097.066	55.62
2101.14	59.62
2105.211	50.62
2109.278	53.62
2113.342	54.62
2117.401	52.62
2121.457	53.62
2125.509	55.62
2129.558	53.62
2133.602	53.62
2137.643	55.62
2141.681	54.62
2145.714	50.62
2149.744	52.62
2153.77	53.62
2157.793	45.62
2161.812	49.62
2165.827	43.62
2169.838	47.62
2173.846	48.62
2177.851	44.62
2181.851	46.62
2185.848	35.62
2189.841	40.62
2193.831	42.62
2197.817	43.62
2201.799	40.62
2205.778	40.62
2209.753	41.62
2213.725	41.62
2217.693	40.62
2221.657	33.62
2225.618	37.62
2229.575	34.62
2233.529	34.62
2237.479	36.62
2241.425	37.62
2245.368	32.62
2249.307	33.62
2253.243	31.62
2257.175	32.62
2261.104	29.62
2265.029	34.62
2268.95	29.62
2272.868	29.62
2276.783	31.62
2280.694	27.62
2284.601	23.62
2288.505	27.62
2292.405	22.62
2296.302	30.62
2300.195	26.62
2304.085	25.62
2307.971	22.62
2311.854	16.62
2315.734	17.62
2319.609	20.62
2323.482	26.62
2327.351	27.62
2331.216	22.62
2335.078	22.62
2338.937	23.62
2342.792	18.62
2346.643	19.62
2350.492	21.62
2354.336	14.62
2358.178	17.62
2362.015	16.62
2365.85	16.62
2369.681	15.62
2373.508	15.62
2377.333	14.62
2381.153	17.62
2384.971	17.62
2388.785	18.62
2392.595	16.62
2396.402	8.62
2400.206	13.62
2404.007	14.62
2407.804	15.62
2411.597	18.62
2415.388	14.62
2419.174	9.62
2422.958	11.62
2426.738	9.62
2430.515	8.62
2434.289	12.62
2438.059	16.62
2441.825	12.62
2445.589	8.62
2449.349	10.62
2453.106	9.62
2456.859	10.62
2460.61	5.62
2464.356	11.62
2468.1	9.62
2471.84	13.62
2475.577	8.62
2479.311	5.62
2483.041	4.62
2486.768	13.62
2490.492	7.62
2494.213	10.62
2497.93	11.62
2501.644	8.62
2505.355	7.62
2509.062	8.62
2512.766	6.62
2516.467	8.62
2520.165	8.62
2523.859	7.62
2527.551	9.62
2531.239	13.62
2534.923	6.62
2538.605	5.62
2542.283	2.62
2545.958	7.62
2549.63	4.62
2553.299	14.62
2556.964	5.62
2560.626	7.62
2564.285	3.62
2567.941	5.62
2571.594	5.62
2575.243	7.62
2578.89	12.62
2582.533	7.62
2586.173	11.62
2589.809	6.62
2593.443	8.62
2597.073	4.62
2600.701	4.62
2604.325	4.62
2607.946	10.62
2611.564	5.62
2615.178	6.62
2618.79	7.62
2622.398	5.62
2626.004	5.62
2629.606	6.62
2633.205	6.62
2636.801	7.62
2640.394	8.62
2643.983	3.62
2647.57	4.62
2651.153	2.62
2654.734	2.62
2658.311	5.62
2661.885	5.62
2665.456	6.62
2669.025	4.62
2672.589	3.62
2676.151	2.62
2679.71	1.62
2683.266	4.62
2686.819	1.62
2690.368	5.62
2693.915	5.62
2697.458	5.62
2700.999	0.62
2704.536	5.62
2708.071	3.62
2711.602	4.62
2715.13	6.62
2718.656	8.62
2722.178	8.62
2725.697	6.62
2729.214	4.62
2732.727	10.62
2736.237	7.62
2739.744	11.62
2743.249	7.62
2746.75	7.62
2750.248	4.62
2753.743	2.62
2757.236	3.62
2760.725	2.62
2764.211	8.62
2767.695	5.62
2771.175	7.62
2774.652	5.62
2778.127	7.62
2781.598	8.62
2785.067	2.62
2788.532	0.62
2791.995	4.62
2795.455	9.62
2798.911	5.62
2802.365	8.62
2805.816	6.62
2809.264	14.62
2812.709	6.62
2816.151	12.62
2819.59	14.62
2823.026	16.62
2826.46	18.62
2829.89	21.62
2833.318	23.62
2836.742	25.62
2840.164	35.62
2843.583	46.62
2846.999	60.62
2850.412	67.62
2853.822	79.62
2857.229	84.62
2860.634	89.62
2864.035	85.62
2867.434	95.62
2870.83	87.62
2874.223	92.62
2877.613	95.62
2881	101.62
2884.385	112.62
2887.766	113.62
2891.145	112.62
2894.521	107.62
2897.894	108.62
2901.264	112.62
2904.631	106.62
2907.996	107.62
2911.358	105.62
2914.717	95.62
2918.073	100.62
2921.426	96.62
2924.777	96.62
2928.124	96.62
2931.469	97.62
2934.811	92.62
2938.15	93.62
2941.487	91.62
2944.821	88.62
2948.152	80.62
2951.48	74.62
2954.805	71.62
2958.128	72.62
2961.447	69.62
2964.765	64.62
2968.079	57.62
2971.39	59.62
2974.699	53.62
2978.005	53.62
2981.308	48.62
2984.609	48.62
2987.907	44.62
2991.202	42.62
2994.494	37.62
2997.784	40.62
3001.07	40.62
3004.355	44.62
3007.636	37.62
3010.915	39.62
3014.191	35.62
3017.464	36.62
3020.734	28.62
3024.002	31.62
3027.267	26.62
3030.53	37.62
3033.789	36.62
3037.046	30.62
3040.301	30.62
3043.552	29.62
3046.801	29.62
3050.048	35.62
3053.291	37.62
3056.532	37.62
3059.771	37.62
3063.006	42.62
3066.239	41.62
3069.469	44.62
3072.697	38.62
3075.922	48.62
3079.144	49.62
3082.364	46.62
3085.581	47.62
3088.795	49.62
3092.007	46.62
3095.216	56.62
3098.423	51.62
3101.627	62.62
3104.828	59.62
3108.026	58.62
3111.222	59.62
3114.416	62.62
3117.607	63.62
3120.795	63.62
3123.98	62.62
3127.163	72.62
3130.344	71.62
3133.521	76.62
3136.696	71.62
3139.869	75.62
3143.039	79.62
3146.206	81.62
3149.371	82.62
3152.533	79.62
3155.693	79.62
3158.85	78.62
3162.005	80.62
3165.157	90.62
3168.306	82.62
3171.453	89.62
3174.597	72.62
3177.739	81.62
3180.878	83.62
3184.014	84.62
3187.149	83.62
3190.28	87.62
3193.409	85.62
3196.536	85.62
3199.659	80.62
3202.781	80.62
3205.9	83.62
3209.016	88.62
3212.13	94.62
3215.241	88.62
3218.35	82.62
3221.456	83.62
3224.56	76.62
3227.661	74.62
3230.76	78.62
3233.856	81.62
3236.95	76.62
3240.041	78.62
3243.13	82.62
3246.216	74.62
3249.3	75.62
3252.382	77.62
3255.46	72.62
3258.537	77.62
3261.611	75.62
3264.682	72.62
3267.751	78.62
3270.818	71.62
3273.882	69.62
3276.943	69.62
3280.002	68.62
3283.059	72.62
3286.113	75.62
3289.165	70.62
3292.214	60.62
3295.261	63.62
3298.306	67.62
3301.348	69.62
3304.387	62.62
3307.425	69.62
3310.459	62.62
3313.492	63.62
3316.521	60.62
3319.549	59.62
3322.574	55.62
3325.597	55.62
3328.617	55.62
3331.635	57.62
3334.65	60.62
3337.663	49.62
3340.674	55.62
3343.682	53.62
3346.688	51.62
3349.691	53.62
3352.692	51.62
3355.691	51.62
3358.687	56.62
3361.681	52.62
3364.673	51.62
3367.662	51.62
3370.649	51.62
3373.633	50.62
3376.615	50.62
3379.595	46.62
3382.572	44.62
3385.547	44.62
3388.52	44.62
3391.49	46.62
3394.458	42.62
3397.424	41.62
3400.387	40.62
3403.348	40.62
3406.307	38.62
3409.263	43.62
3412.217	41.62
3415.168	37.62
3418.118	38.62
3421.065	35.62
3424.009	34.62
3426.951	36.62
3429.891	36.62
3432.829	37.62
3435.764	32.62
3438.697	32.62
3441.628	27.62
3444.557	28.62
3447.483	28.62
3450.407	28.62
3453.328	28.62
3456.247	30.62
3459.164	25.62
3462.079	21.62
3464.991	20.62
3467.902	16.62
3470.809	19.62
3473.715	23.62
3476.618	20.62
3479.519	15.62
3482.418	12.62
3485.315	15.62
3488.209	10.62
3491.101	8.62
3493.99	10.62
3496.878	11.62
3499.763	9.62
3502.646	6.62
3505.527	2.62
3508.405	8.62
3511.281	1.62
3514.155	7.62
3517.027	7.62
3519.897	7.62
3522.764	2.62
3525.629	0.62
3528.492	1.62
3531.352	-1.38
3534.211	-4.38
3537.067	-4.38
3539.921	-1.38
3542.773	-2.38
3545.622	-1.38
3548.469	-4.38
3551.315	-9.38
3554.157	-9.38
3556.998	-7.38
3559.837	-7.38
3562.673	-4.38
3565.507	-9.38
3568.339	-8.38
3571.169	-9.38
3573.996	-11.38
3576.822	-12.38
3579.645	-16.38
3582.466	-9.38
3585.285	-12.38
3588.101	-9.38
3590.916	-13.38
3593.728	-14.38
3596.538	-17.38
3599.346	-14.38
3602.152	-16.38
3604.956	-13.38
3607.757	-16.38
3610.556	-14.38
3613.354	-18.38
3616.149	-20.38
3618.942	-16.38
3621.732	-19.38
3624.521	-20.38
3627.307	-16.38
3630.092	-17.38
3632.874	-16.38
3635.654	-21.38
3638.432	-19.38
3641.208	-19.38
3643.982	-18.38
3646.753	-21.38
3649.523	-21.38
3652.29	-20.38
3655.055	-19.38
3657.818	-22.38
3660.579	-19.38
3663.338	-21.38
3666.095	-19.38
3668.849	-21.38
3671.602	-21.38
3674.352	-22.38
3677.101	-21.38
3679.847	-22.38
3682.591	-20.38
3685.333	-23.38
3688.073	-22.38
3690.811	-24.38
3693.547	-28.38
3696.281	-25.38
3699.013	-23.38
3701.742	-25.38
3704.47	-22.38
3707.195	-22.38
3709.919	-21.38
3712.64	-29.38
3715.359	-26.38
3718.076	-20.38
3720.792	-26.38
3723.505	-19.38
3726.216	-18.38
3728.925	-26.38
3731.632	-25.38
3734.336	-25.38
3737.039	-23.38
3739.74	-27.38
3742.439	-22.38
3745.136	-25.38
3747.83	-23.38
3750.523	-23.38
3753.213	-27.38
3755.902	-26.38
3758.589	-25.38
3761.273	-25.38
3763.956	-21.38
3766.636	-24.38
3769.315	-21.38
3771.991	-26.38
3774.665	-27.38
3777.338	-24.38
3780.008	-23.38
3782.677	-24.38
3785.343	-23.38
3788.007	-24.38
3790.67	-24.38
3793.33	-28.38
3795.989	-27.38
3798.645	-24.38
3801.299	-20.38
3803.952	-24.38
3806.602	-22.38
3809.251	-25.38
3811.897	-26.38
3814.542	-27.38
3817.184	-26.38
3819.825	-25.38
3822.463	-20.38
3825.1	-22.38
3827.735	-22.38
3830.367	-25.38
3832.998	-24.38
3835.627	-24.38
3838.253	-22.38
3840.878	-24.38
3843.501	-21.38
3846.122	-24.38
3848.741	-19.38
3851.358	-27.38
3853.973	-27.38
3856.586	-25.38
3859.197	-25.38
3861.806	-22.38
3864.414	-23.38
3867.019	-23.38
3869.622	-23.38
3872.224	-30.38
3874.823	-26.38
3877.421	-22.38
3880.016	-23.38
3882.61	-18.38
3885.202	-13.38
3887.792	-13.38
3890.38	-18.38
3892.966	-27.38
3895.55	-24.38
3898.132	-25.38
3900.713	-20.38
3903.291	-23.38
3905.868	-21.38
3908.442	-27.38
3911.015	-24.38
3913.586	-29.38
3916.155	-26.38
3918.722	-26.38
3921.287	-18.38
3923.85	-24.38
3926.411	-24.38
3928.971	-19.38
3931.528	-27.38
3934.084	-28.38
3936.638	-26.38
3939.19	-27.38
3941.74	-21.38
3944.288	-23.38
3946.834	-25.38
3949.378	-29.38
3951.921	-23.38
3954.462	-25.38
3957	-24.38
3959.537	-22.38
3962.072	-21.38
3964.606	-23.38
3967.137	-21.38
3969.667	-27.38
3972.194	-28.38
3974.72	-28.38
3977.244	-21.38
3979.766	-25.38
3982.286	-20.38
3984.805	-23.38
3987.321	-27.38
3989.836	-28.38
3992.349	-25.38
3994.86	-24.38
3997.369	-25.38
3999.877	-23.38
4002.382	-26.38
4004.886	-26.38
4007.388	-24.38
4009.888	-26.38
4012.386	-24.38
4014.883	-26.38
4017.377	-21.38
4019.87	-23.38
4022.361	-21.38
4024.85	-28.38
4027.338	-27.38
4029.823	-25.38
4032.307	-26.38
4034.789	-23.38
4037.269	-22.38
4039.747	-24.38
4042.224	-22.38
4044.699	-32.38
4047.172	-28.38
4049.643	-28.38
4052.112	-24.38
4054.58	-20.38
4057.046	-22.38
4059.51	-27.38
4061.972	-28.38
4064.432	-27.38
4066.891	-23.38
4069.348	-25.38
4071.803	-21.38
4074.256	-24.38
4076.708	-23.38
4079.158	-27.38
4081.606	-26.38
4084.052	-25.38
4086.497	-23.38
4088.939	-22.38
4091.38	-22.38
4093.819	-21.38
4096.257	-24.38
4098.693	-29.38
4101.127	-27.38
4103.559	-31.38
4105.989	-12.38
4108.418	-10.38
4110.845	-7.38
4113.27	-7.38
4115.694	-11.38
4118.115	-15.38
4120.535	-25.38
4122.954	-29.38
4125.37	-27.38
4127.785	-23.38
4130.198	-25.38
4132.609	-23.38
4135.019	-23.38
4137.427	-28.38
4139.833	-24.38
4142.237	-27.38
