Data from 10000CFU3_A_RamanShift_1.txt Node
Date: Thu Feb 02 13:53:45 IST 2017
User: aro
Spectrometer: QEPB0276
Trigger mode: 0
Integration Time (sec): 5.000000E0
Scans to average: 1
Electric dark correction enabled: true
Nonlinearity correction enabled: false
Boxcar width: 0
XAxis mode: Raman Shifts
Number of Pixels in Spectrum: 1044
>>>>>Begin Spectral Data<<<<<
160.701	-6.75
166.742	0.25
172.777	26.25
178.805	91.25
184.826	227.25
190.841	444.25
196.849	685.25
202.85	864.25
208.845	914.25
214.833	900.25
220.815	863.25
226.789	866.25
232.758	857.25
238.719	852.25
244.674	834.25
250.623	820.25
256.565	791.25
262.5	775.25
268.429	746.25
274.351	726.25
280.267	722.25
286.176	722.25
292.079	713.25
297.975	704.25
303.865	695.25
309.748	696.25
315.625	690.25
321.495	694.25
327.359	688.25
333.217	685.25
339.068	692.25
344.912	701.25
350.751	700.25
356.583	703.25
362.408	707.25
368.227	707.25
374.04	694.25
379.847	693.25
385.647	690.25
391.44	692.25
397.228	691.25
403.009	701.25
408.784	697.25
414.553	714.25
420.315	717.25
426.071	718.25
431.821	731.25
437.565	721.25
443.302	728.25
449.033	720.25
454.758	714.25
460.477	698.25
466.189	702.25
471.896	690.25
477.596	683.25
483.29	680.25
488.978	669.25
494.66	657.25
500.335	644.25
506.005	617.25
511.668	619.25
517.325	584.25
522.977	569.25
528.622	541.25
534.261	534.25
539.894	515.25
545.521	521.25
551.141	502.25
556.756	504.25
562.365	501.25
567.968	486.25
573.565	484.25
579.155	475.25
584.74	481.25
590.319	481.25
595.892	481.25
601.459	481.25
607.02	477.25
612.575	481.25
618.124	457.25
623.667	467.25
629.204	455.25
634.735	450.25
640.261	446.25
645.781	441.25
651.294	438.25
656.802	439.25
662.304	432.25
667.8	431.25
673.29	427.25
678.775	437.25
684.254	420.25
689.726	416.25
695.193	420.25
700.655	417.25
706.11	409.25
711.56	416.25
717.004	416.25
722.442	417.25
727.874	416.25
733.301	402.25
738.722	400.25
744.137	397.25
749.547	400.25
754.951	395.25
760.349	399.25
765.741	405.25
771.128	401.25
776.509	402.25
781.885	396.25
787.254	399.25
792.618	402.25
797.977	413.25
803.33	400.25
808.677	404.25
814.019	402.25
819.355	402.25
824.686	395.25
830.011	407.25
835.33	407.25
840.644	417.25
845.952	411.25
851.255	412.25
856.552	417.25
861.844	423.25
867.13	426.25
872.41	427.25
877.686	429.25
882.955	420.25
888.219	417.25
893.478	417.25
898.731	395.25
903.979	393.25
909.221	371.25
914.458	377.25
919.69	372.25
924.916	374.25
930.136	372.25
935.351	375.25
940.561	359.25
945.766	362.25
950.965	368.25
956.158	370.25
961.347	360.25
966.529	344.25
971.707	338.25
976.879	338.25
982.046	327.25
987.208	329.25
992.364	345.25
997.515	338.25
1002.66	336.25
1007.801	346.25
1012.936	357.25
1018.066	364.25
1023.19	361.25
1028.309	373.25
1033.423	364.25
1038.532	362.25
1043.636	375.25
1048.734	362.25
1053.827	368.25
1058.915	381.25
1063.998	384.25
1069.075	394.25
1074.147	404.25
1079.214	402.25
1084.276	398.25
1089.333	415.25
1094.385	407.25
1099.431	395.25
1104.472	382.25
1109.509	375.25
1114.54	365.25
1119.565	365.25
1124.586	370.25
1129.602	373.25
1134.613	359.25
1139.618	350.25
1144.619	320.25
1149.614	316.25
1154.604	311.25
1159.589	316.25
1164.57	313.25
1169.545	304.25
1174.515	295.25
1179.48	299.25
1184.44	290.25
1189.395	280.25
1194.345	286.25
1199.29	276.25
1204.23	276.25
1209.165	288.25
1214.095	287.25
1219.021	287.25
1223.941	298.25
1228.856	295.25
1233.766	297.25
1238.672	309.25
1243.572	316.25
1248.467	317.25
1253.358	314.25
1258.244	329.25
1263.124	326.25
1268	327.25
1272.871	319.25
1277.737	318.25
1282.599	305.25
1287.455	300.25
1292.306	312.25
1297.153	321.25
1301.995	344.25
1306.832	353.25
1311.664	341.25
1316.491	333.25
1321.314	322.25
1326.132	312.25
1330.945	291.25
1335.753	278.25
1340.556	276.25
1345.354	269.25
1350.148	274.25
1354.937	266.25
1359.722	256.25
1364.501	261.25
1369.276	260.25
1374.046	262.25
1378.811	260.25
1383.572	261.25
1388.327	254.25
1393.079	253.25
1397.825	241.25
1402.567	247.25
1407.304	239.25
1412.036	239.25
1416.764	246.25
1421.487	244.25
1426.205	254.25
1430.919	267.25
1435.628	288.25
1440.333	314.25
1445.032	346.25
1449.727	351.25
1454.418	338.25
1459.104	341.25
1463.785	315.25
1468.462	305.25
1473.134	275.25
1477.802	249.25
1482.465	232.25
1487.123	211.25
1491.777	194.25
1496.426	192.25
1501.071	195.25
1505.711	194.25
1510.347	190.25
1514.978	195.25
1519.604	194.25
1524.226	194.25
1528.844	186.25
1533.457	188.25
1538.065	180.25
1542.669	183.25
1547.269	187.25
1551.864	186.25
1556.454	183.25
1561.041	189.25
1565.622	185.25
1570.199	181.25
1574.772	183.25
1579.34	186.25
1583.904	188.25
1588.464	189.25
1593.019	193.25
1597.569	191.25
1602.115	185.25
1606.657	190.25
1611.195	193.25
1615.728	191.25
1620.256	194.25
1624.78	197.25
1629.3	203.25
1633.816	203.25
1638.327	209.25
1642.834	209.25
1647.336	219.25
1651.834	225.25
1656.328	231.25
1660.817	229.25
1665.302	234.25
1669.783	213.25
1674.259	213.25
1678.732	207.25
1683.199	188.25
1687.663	178.25
1692.122	179.25
1696.577	166.25
1701.028	165.25
1705.474	158.25
1709.917	155.25
1714.355	147.25
1718.788	140.25
1723.218	137.25
1727.643	133.25
1732.064	139.25
1736.481	133.25
1740.893	132.25
1745.301	131.25
1749.705	122.25
1754.105	123.25
1758.501	112.25
1762.893	106.25
1767.28	110.25
1771.663	107.25
1776.042	101.25
1780.417	99.25
1784.787	94.25
1789.154	97.25
1793.516	100.25
1797.874	96.25
1802.228	97.25
1806.578	102.25
1810.924	102.25
1815.266	102.25
1819.603	93.25
1823.937	93.25
1828.266	94.25
1832.591	85.25
1836.913	89.25
1841.23	88.25
1845.543	84.25
1849.852	80.25
1854.156	89.25
1858.457	86.25
1862.754	81.25
1867.047	80.25
1871.335	82.25
1875.62	81.25
1879.9	80.25
1884.177	80.25
1888.449	81.25
1892.718	83.25
1896.982	83.25
1901.243	83.25
1905.499	80.25
1909.752	79.25
1914	81.25
1918.245	80.25
1922.485	80.25
1926.722	82.25
1930.954	80.25
1935.183	79.25
1939.408	86.25
1943.628	76.25
1947.845	74.25
1952.058	79.25
1956.267	83.25
1960.472	78.25
1964.673	79.25
1968.87	72.25
1973.063	76.25
1977.252	73.25
1981.438	75.25
1985.619	67.25
1989.797	69.25
1993.971	74.25
1998.14	73.25
2002.306	72.25
2006.469	65.25
2010.627	65.25
2014.781	73.25
2018.932	72.25
2023.078	70.25
2027.221	73.25
2031.36	61.25
2035.495	66.25
2039.627	68.25
2043.754	61.25
2047.878	63.25
2051.998	61.25
2056.114	63.25
2060.226	60.25
2064.334	68.25
2068.439	65.25
2072.54	66.25
2076.637	67.25
2080.73	65.25
2084.82	69.25
2088.906	74.25
2092.988	68.25
2097.066	68.25
2101.14	69.25
2105.211	67.25
2109.278	62.25
2113.342	66.25
2117.401	60.25
2121.457	63.25
2125.509	63.25
2129.558	64.25
2133.602	65.25
2137.643	67.25
2141.681	60.25
2145.714	57.25
2149.744	56.25
2153.77	62.25
2157.793	55.25
2161.812	60.25
2165.827	53.25
2169.838	57.25
2173.846	52.25
2177.851	49.25
2181.851	60.25
2185.848	51.25
2189.841	51.25
2193.831	50.25
2197.817	48.25
2201.799	49.25
2205.778	50.25
2209.753	46.25
2213.725	46.25
2217.693	47.25
2221.657	46.25
2225.618	46.25
2229.575	43.25
2233.529	46.25
2237.479	46.25
2241.425	40.25
2245.368	39.25
2249.307	43.25
2253.243	40.25
2257.175	42.25
2261.104	38.25
2265.029	43.25
2268.95	37.25
2272.868	37.25
2276.783	32.25
2280.694	37.25
2284.601	33.25
2288.505	33.25
2292.405	31.25
2296.302	32.25
2300.195	33.25
2304.085	31.25
2307.971	27.25
2311.854	30.25
2315.734	29.25
2319.609	27.25
2323.482	31.25
2327.351	34.25
2331.216	30.25
2335.078	30.25
2338.937	27.25
2342.792	22.25
2346.643	24.25
2350.492	24.25
2354.336	24.25
2358.178	25.25
2362.015	22.25
2365.85	19.25
2369.681	21.25
2373.508	25.25
2377.333	21.25
2381.153	28.25
2384.971	23.25
2388.785	22.25
2392.595	20.25
2396.402	17.25
2400.206	19.25
2404.007	18.25
2407.804	20.25
2411.597	24.25
2415.388	18.25
2419.174	19.25
2422.958	14.25
2426.738	16.25
2430.515	13.25
2434.289	20.25
2438.059	21.25
2441.825	19.25
2445.589	17.25
2449.349	13.25
2453.106	14.25
2456.859	12.25
2460.61	9.25
2464.356	17.25
2468.1	15.25
2471.84	16.25
2475.577	15.25
2479.311	11.25
2483.041	12.25
2486.768	12.25
2490.492	11.25
2494.213	14.25
2497.93	14.25
2501.644	13.25
2505.355	13.25
2509.062	14.25
2512.766	9.25
2516.467	16.25
2520.165	12.25
2523.859	13.25
2527.551	13.25
2531.239	16.25
2534.923	11.25
2538.605	9.25
2542.283	10.25
2545.958	14.25
2549.63	12.25
2553.299	16.25
2556.964	16.25
2560.626	14.25
2564.285	11.25
2567.941	5.25
2571.594	7.25
2575.243	12.25
2578.89	15.25
2582.533	13.25
2586.173	14.25
2589.809	10.25
2593.443	11.25
2597.073	9.25
2600.701	11.25
2604.325	10.25
2607.946	8.25
2611.564	10.25
2615.178	12.25
2618.79	11.25
2622.398	15.25
2626.004	14.25
2629.606	10.25
2633.205	14.25
2636.801	9.25
2640.394	14.25
2643.983	9.25
2647.57	11.25
2651.153	8.25
2654.734	6.25
2658.311	10.25
2661.885	9.25
2665.456	5.25
2669.025	7.25
2672.589	7.25
2676.151	6.25
2679.71	8.25
2683.266	9.25
2686.819	7.25
2690.368	8.25
2693.915	5.25
2697.458	9.25
2700.999	3.25
2704.536	12.25
2708.071	10.25
2711.602	10.25
2715.13	8.25
2718.656	7.25
2722.178	8.25
2725.697	8.25
2729.214	13.25
2732.727	16.25
2736.237	12.25
2739.744	18.25
2743.249	12.25
2746.75	12.25
2750.248	9.25
2753.743	12.25
2757.236	11.25
2760.725	13.25
2764.211	14.25
2767.695	10.25
2771.175	10.25
2774.652	6.25
2778.127	8.25
2781.598	9.25
2785.067	13.25
2788.532	11.25
2791.995	12.25
2795.455	14.25
2798.911	11.25
2802.365	13.25
2805.816	11.25
2809.264	20.25
2812.709	18.25
2816.151	19.25
2819.59	24.25
2823.026	21.25
2826.46	29.25
2829.89	29.25
2833.318	30.25
2836.742	37.25
2840.164	48.25
2843.583	55.25
2846.999	67.25
2850.412	86.25
2853.822	91.25
2857.229	99.25
2860.634	100.25
2864.035	105.25
2867.434	108.25
2870.83	114.25
2874.223	112.25
2877.613	119.25
2881	124.25
2884.385	127.25
2887.766	132.25
2891.145	138.25
2894.521	130.25
2897.894	128.25
2901.264	128.25
2904.631	130.25
2907.996	123.25
2911.358	122.25
2914.717	120.25
2918.073	126.25
2921.426	118.25
2924.777	117.25
2928.124	114.25
2931.469	120.25
2934.811	111.25
2938.15	117.25
2941.487	107.25
2944.821	107.25
2948.152	95.25
2951.48	94.25
2954.805	87.25
2958.128	81.25
2961.447	81.25
2964.765	74.25
2968.079	71.25
2971.39	71.25
2974.699	65.25
2978.005	62.25
2981.308	65.25
2984.609	60.25
2987.907	57.25
2991.202	56.25
2994.494	50.25
2997.784	51.25
3001.07	52.25
3004.355	49.25
3007.636	49.25
3010.915	51.25
3014.191	48.25
3017.464	40.25
3020.734	39.25
3024.002	37.25
3027.267	35.25
3030.53	40.25
3033.789	45.25
3037.046	41.25
3040.301	39.25
3043.552	42.25
3046.801	37.25
3050.048	43.25
3053.291	46.25
3056.532	47.25
3059.771	44.25
3063.006	45.25
3066.239	55.25
3069.469	58.25
3072.697	54.25
3075.922	58.25
3079.144	59.25
3082.364	59.25
3085.581	54.25
3088.795	59.25
3092.007	60.25
3095.216	66.25
3098.423	64.25
3101.627	73.25
3104.828	75.25
3108.026	72.25
3111.222	68.25
3114.416	71.25
3117.607	75.25
3120.795	79.25
3123.98	80.25
3127.163	88.25
3130.344	86.25
3133.521	85.25
3136.696	83.25
3139.869	86.25
3143.039	88.25
3146.206	100.25
3149.371	102.25
3152.533	94.25
3155.693	97.25
3158.85	95.25
3162.005	97.25
3165.157	98.25
3168.306	99.25
3171.453	101.25
3174.597	103.25
3177.739	98.25
3180.878	102.25
3184.014	101.25
3187.149	96.25
3190.28	101.25
3193.409	105.25
3196.536	104.25
3199.659	102.25
3202.781	102.25
3205.9	103.25
3209.016	103.25
3212.13	103.25
3215.241	98.25
3218.35	102.25
3221.456	95.25
3224.56	97.25
3227.661	95.25
3230.76	98.25
3233.856	94.25
3236.95	89.25
3240.041	89.25
3243.13	96.25
3246.216	93.25
3249.3	96.25
3252.382	90.25
3255.46	86.25
3258.537	92.25
3261.611	87.25
3264.682	86.25
3267.751	85.25
3270.818	90.25
3273.882	82.25
3276.943	91.25
3280.002	82.25
3283.059	85.25
3286.113	87.25
3289.165	84.25
3292.214	78.25
3295.261	82.25
3298.306	82.25
3301.348	82.25
3304.387	71.25
3307.425	75.25
3310.459	70.25
3313.492	74.25
3316.521	68.25
3319.549	68.25
3322.574	66.25
3325.597	64.25
3328.617	76.25
3331.635	65.25
3334.65	73.25
3337.663	61.25
3340.674	64.25
3343.682	66.25
3346.688	63.25
3349.691	63.25
3352.692	65.25
3355.691	68.25
3358.687	64.25
3361.681	62.25
3364.673	64.25
3367.662	62.25
3370.649	63.25
3373.633	65.25
3376.615	60.25
3379.595	58.25
3382.572	57.25
3385.547	56.25
3388.52	51.25
3391.49	54.25
3394.458	53.25
3397.424	52.25
3400.387	45.25
3403.348	52.25
3406.307	48.25
3409.263	49.25
3412.217	49.25
3415.168	44.25
3418.118	41.25
3421.065	45.25
3424.009	41.25
3426.951	44.25
3429.891	45.25
3432.829	45.25
3435.764	41.25
3438.697	39.25
3441.628	36.25
3444.557	37.25
3447.483	34.25
3450.407	41.25
3453.328	35.25
3456.247	34.25
3459.164	33.25
3462.079	30.25
3464.991	22.25
3467.902	26.25
3470.809	23.25
3473.715	26.25
3476.618	24.25
3479.519	20.25
3482.418	15.25
3485.315	19.25
3488.209	12.25
3491.101	14.25
3493.99	12.25
3496.878	17.25
3499.763	16.25
3502.646	16.25
3505.527	8.25
3508.405	11.25
3511.281	9.25
3514.155	12.25
3517.027	9.25
3519.897	5.25
3522.764	7.25
3525.629	4.25
3528.492	6.25
3531.352	2.25
3534.211	-1.75
3537.067	0.25
3539.921	-1.75
3542.773	-0.75
3545.622	-0.75
3548.469	0.25
3551.315	-6.75
3554.157	-8.75
3556.998	-4.75
3559.837	-3.75
3562.673	-3.75
3565.507	-9.75
3568.339	-6.75
3571.169	-9.75
3573.996	-8.75
3576.822	-7.75
3579.645	-10.75
3582.466	-9.75
3585.285	-9.75
3588.101	-9.75
3590.916	-14.75
3593.728	-13.75
3596.538	-15.75
3599.346	-14.75
3602.152	-14.75
3604.956	-12.75
3607.757	-16.75
3610.556	-15.75
3613.354	-17.75
3616.149	-20.75
3618.942	-15.75
3621.732	-19.75
3624.521	-17.75
3627.307	-14.75
3630.092	-18.75
3632.874	-18.75
3635.654	-18.75
3638.432	-19.75
3641.208	-19.75
3643.982	-16.75
3646.753	-18.75
3649.523	-19.75
3652.29	-19.75
3655.055	-24.75
3657.818	-27.75
3660.579	-17.75
3663.338	-17.75
3666.095	-15.75
3668.849	-20.75
3671.602	-21.75
3674.352	-23.75
3677.101	-21.75
3679.847	-22.75
3682.591	-21.75
3685.333	-16.75
3688.073	-19.75
3690.811	-22.75
3693.547	-29.75
3696.281	-25.75
3699.013	-27.75
3701.742	-24.75
3704.47	-21.75
3707.195	-21.75
3709.919	-19.75
3712.64	-25.75
3715.359	-23.75
3718.076	-24.75
3720.792	-27.75
3723.505	-19.75
3726.216	-20.75
3728.925	-23.75
3731.632	-25.75
3734.336	-24.75
3737.039	-22.75
3739.74	-27.75
3742.439	-24.75
3745.136	-25.75
3747.83	-21.75
3750.523	-19.75
3753.213	-25.75
3755.902	-26.75
3758.589	-26.75
3761.273	-28.75
3763.956	-26.75
3766.636	-23.75
3769.315	-20.75
3771.991	-26.75
3774.665	-26.75
3777.338	-22.75
3780.008	-25.75
3782.677	-26.75
3785.343	-25.75
3788.007	-27.75
3790.67	-25.75
3793.33	-24.75
3795.989	-26.75
3798.645	-25.75
3801.299	-24.75
3803.952	-29.75
3806.602	-29.75
3809.251	-25.75
3811.897	-21.75
3814.542	-26.75
3817.184	-22.75
3819.825	-26.75
3822.463	-20.75
3825.1	-26.75
3827.735	-23.75
3830.367	-25.75
3832.998	-22.75
3835.627	-22.75
3838.253	-22.75
3840.878	-28.75
3843.501	-23.75
3846.122	-30.75
3848.741	-23.75
3851.358	-26.75
3853.973	-22.75
3856.586	-24.75
3859.197	-25.75
3861.806	-22.75
3864.414	-25.75
3867.019	-27.75
3869.622	-25.75
3872.224	-27.75
3874.823	-25.75
3877.421	-21.75
3880.016	-19.75
3882.61	-17.75
3885.202	-14.75
3887.792	-18.75
3890.38	-21.75
3892.966	-28.75
3895.55	-21.75
3898.132	-23.75
3900.713	-21.75
3903.291	-26.75
3905.868	-23.75
3908.442	-28.75
3911.015	-24.75
3913.586	-27.75
3916.155	-26.75
3918.722	-26.75
3921.287	-18.75
3923.85	-26.75
3926.411	-25.75
3928.971	-22.75
3931.528	-25.75
3934.084	-31.75
3936.638	-22.75
3939.19	-27.75
3941.74	-23.75
3944.288	-25.75
3946.834	-25.75
3949.378	-29.75
3951.921	-26.75
3954.462	-23.75
3957	-24.75
3959.537	-23.75
3962.072	-25.75
3964.606	-25.75
3967.137	-24.75
3969.667	-29.75
3972.194	-25.75
3974.72	-25.75
3977.244	-20.75
3979.766	-21.75
3982.286	-22.75
3984.805	-22.75
3987.321	-28.75
3989.836	-32.75
3992.349	-26.75
3994.86	-25.75
3997.369	-23.75
3999.877	-24.75
4002.382	-24.75
4004.886	-25.75
4007.388	-29.75
4009.888	-27.75
4012.386	-24.75
4014.883	-27.75
4017.377	-23.75
4019.87	-22.75
4022.361	-25.75
4024.85	-28.75
4027.338	-27.75
4029.823	-29.75
4032.307	-27.75
4034.789	-22.75
4037.269	-22.75
4039.747	-23.75
4042.224	-23.75
4044.699	-29.75
4047.172	-29.75
4049.643	-29.75
4052.112	-24.75
4054.58	-21.75
4057.046	-23.75
4059.51	-27.75
4061.972	-27.75
4064.432	-25.75
4066.891	-27.75
4069.348	-26.75
4071.803	-24.75
4074.256	-26.75
4076.708	-20.75
4079.158	-23.75
4081.606	-25.75
4084.052	-22.75
4086.497	-21.75
4088.939	-26.75
4091.38	-26.75
4093.819	-24.75
4096.257	-23.75
4098.693	-30.75
4101.127	-25.75
4103.559	-31.75
4105.989	-14.75
4108.418	-14.75
4110.845	-9.75
4113.27	-11.75
4115.694	-8.75
4118.115	-13.75
4120.535	-24.75
4122.954	-26.75
4125.37	-23.75
4127.785	-22.75
4130.198	-23.75
4132.609	-27.75
4135.019	-28.75
4137.427	-30.75
4139.833	-24.75
4142.237	-26.75
