Data from 1000000CFU1_B_RamanShift_1.txt Node
Date: Thu Feb 02 14:39:30 IST 2017
User: aro
Spectrometer: QEPB0276
Trigger mode: 0
Integration Time (sec): 5.000000E0
Scans to average: 1
Electric dark correction enabled: true
Nonlinearity correction enabled: false
Boxcar width: 0
XAxis mode: Raman Shifts
Number of Pixels in Spectrum: 1044
>>>>>Begin Spectral Data<<<<<
160.701	-5.62
166.742	-0.62
172.777	27.38
178.805	83.38
184.826	207.38
190.841	408.38
196.849	632.38
202.85	797.38
208.845	833.38
214.833	823.38
220.815	804.38
226.789	791.38
232.758	786.38
238.719	785.38
244.674	780.38
250.623	754.38
256.565	736.38
262.5	718.38
268.429	702.38
274.351	686.38
280.267	675.38
286.176	677.38
292.079	674.38
297.975	663.38
303.865	664.38
309.748	653.38
315.625	647.38
321.495	645.38
327.359	648.38
333.217	648.38
339.068	653.38
344.912	670.38
350.751	656.38
356.583	671.38
362.408	667.38
368.227	664.38
374.04	664.38
379.847	658.38
385.647	656.38
391.44	661.38
397.228	658.38
403.009	661.38
408.784	665.38
414.553	672.38
420.315	675.38
426.071	682.38
431.821	690.38
437.565	683.38
443.302	682.38
449.033	680.38
454.758	684.38
460.477	663.38
466.189	660.38
471.896	652.38
477.596	654.38
483.29	641.38
488.978	636.38
494.66	622.38
500.335	602.38
506.005	577.38
511.668	569.38
517.325	548.38
522.977	517.38
528.622	514.38
534.261	502.38
539.894	484.38
545.521	482.38
551.141	472.38
556.756	475.38
562.365	465.38
567.968	460.38
573.565	449.38
579.155	450.38
584.74	446.38
590.319	454.38
595.892	446.38
601.459	451.38
607.02	437.38
612.575	447.38
618.124	434.38
623.667	424.38
629.204	424.38
634.735	423.38
640.261	416.38
645.781	411.38
651.294	409.38
656.802	413.38
662.304	407.38
667.8	400.38
673.29	404.38
678.775	392.38
684.254	396.38
689.726	386.38
695.193	385.38
700.655	380.38
706.11	385.38
711.56	392.38
717.004	391.38
722.442	381.38
727.874	379.38
733.301	372.38
738.722	380.38
744.137	371.38
749.547	364.38
754.951	368.38
760.349	374.38
765.741	386.38
771.128	370.38
776.509	374.38
781.885	386.38
787.254	375.38
792.618	376.38
797.977	392.38
803.33	371.38
808.677	385.38
814.019	373.38
819.355	365.38
824.686	364.38
830.011	374.38
835.33	373.38
840.644	383.38
845.952	380.38
851.255	386.38
856.552	395.38
861.844	394.38
867.13	391.38
872.41	390.38
877.686	389.38
882.955	398.38
888.219	392.38
893.478	377.38
898.731	370.38
903.979	367.38
909.221	356.38
914.458	356.38
919.69	353.38
924.916	343.38
930.136	341.38
935.351	346.38
940.561	340.38
945.766	340.38
950.965	346.38
956.158	334.38
961.347	334.38
966.529	319.38
971.707	315.38
976.879	322.38
982.046	304.38
987.208	313.38
992.364	314.38
997.515	316.38
1002.66	321.38
1007.801	329.38
1012.936	328.38
1018.066	329.38
1023.19	335.38
1028.309	341.38
1033.423	336.38
1038.532	347.38
1043.636	342.38
1048.734	336.38
1053.827	339.38
1058.915	344.38
1063.998	352.38
1069.075	363.38
1074.147	379.38
1079.214	371.38
1084.276	374.38
1089.333	382.38
1094.385	379.38
1099.431	357.38
1104.472	356.38
1109.509	343.38
1114.54	342.38
1119.565	333.38
1124.586	344.38
1129.602	352.38
1134.613	336.38
1139.618	319.38
1144.619	299.38
1149.614	298.38
1154.604	291.38
1159.589	294.38
1164.57	293.38
1169.545	291.38
1174.515	279.38
1179.48	272.38
1184.44	264.38
1189.395	260.38
1194.345	261.38
1199.29	258.38
1204.23	262.38
1209.165	260.38
1214.095	270.38
1219.021	269.38
1223.941	265.38
1228.856	267.38
1233.766	274.38
1238.672	281.38
1243.572	296.38
1248.467	293.38
1253.358	287.38
1258.244	295.38
1263.124	297.38
1268	299.38
1272.871	283.38
1277.737	279.38
1282.599	278.38
1287.455	283.38
1292.306	284.38
1297.153	303.38
1301.995	316.38
1306.832	320.38
1311.664	303.38
1316.491	301.38
1321.314	299.38
1326.132	285.38
1330.945	274.38
1335.753	260.38
1340.556	256.38
1345.354	256.38
1350.148	257.38
1354.937	245.38
1359.722	240.38
1364.501	241.38
1369.276	240.38
1374.046	242.38
1378.811	242.38
1383.572	240.38
1388.327	239.38
1393.079	229.38
1397.825	227.38
1402.567	220.38
1407.304	215.38
1412.036	223.38
1416.764	233.38
1421.487	231.38
1426.205	235.38
1430.919	239.38
1435.628	266.38
1440.333	288.38
1445.032	308.38
1449.727	320.38
1454.418	307.38
1459.104	303.38
1463.785	289.38
1468.462	285.38
1473.134	265.38
1477.802	240.38
1482.465	209.38
1487.123	194.38
1491.777	187.38
1496.426	180.38
1501.071	173.38
1505.711	173.38
1510.347	175.38
1514.978	177.38
1519.604	177.38
1524.226	177.38
1528.844	170.38
1533.457	174.38
1538.065	173.38
1542.669	169.38
1547.269	175.38
1551.864	171.38
1556.454	176.38
1561.041	163.38
1565.622	163.38
1570.199	166.38
1574.772	166.38
1579.34	169.38
1583.904	173.38
1588.464	177.38
1593.019	175.38
1597.569	179.38
1602.115	181.38
1606.657	174.38
1611.195	174.38
1615.728	173.38
1620.256	186.38
1624.78	183.38
1629.3	182.38
1633.816	185.38
1638.327	191.38
1642.834	186.38
1647.336	188.38
1651.834	200.38
1656.328	214.38
1660.817	212.38
1665.302	206.38
1669.783	197.38
1674.259	193.38
1678.732	190.38
1683.199	177.38
1687.663	164.38
1692.122	158.38
1696.577	153.38
1701.028	150.38
1705.474	139.38
1709.917	140.38
1714.355	137.38
1718.788	129.38
1723.218	124.38
1727.643	118.38
1732.064	123.38
1736.481	123.38
1740.893	119.38
1745.301	121.38
1749.705	119.38
1754.105	111.38
1758.501	106.38
1762.893	97.38
1767.28	96.38
1771.663	97.38
1776.042	96.38
1780.417	96.38
1784.787	90.38
1789.154	94.38
1793.516	93.38
1797.874	102.38
1802.228	95.38
1806.578	95.38
1810.924	93.38
1815.266	85.38
1819.603	86.38
1823.937	87.38
1828.266	88.38
1832.591	83.38
1836.913	82.38
1841.23	80.38
1845.543	81.38
1849.852	73.38
1854.156	76.38
1858.457	81.38
1862.754	79.38
1867.047	78.38
1871.335	77.38
1875.62	78.38
1879.9	76.38
1884.177	74.38
1888.449	73.38
1892.718	78.38
1896.982	78.38
1901.243	76.38
1905.499	79.38
1909.752	80.38
1914	72.38
1918.245	74.38
1922.485	68.38
1926.722	71.38
1930.954	73.38
1935.183	74.38
1939.408	78.38
1943.628	76.38
1947.845	74.38
1952.058	72.38
1956.267	73.38
1960.472	75.38
1964.673	72.38
1968.87	71.38
1973.063	71.38
1977.252	66.38
1981.438	66.38
1985.619	69.38
1989.797	63.38
1993.971	67.38
1998.14	63.38
2002.306	61.38
2006.469	61.38
2010.627	61.38
2014.781	63.38
2018.932	71.38
2023.078	64.38
2027.221	64.38
2031.36	57.38
2035.495	59.38
2039.627	57.38
2043.754	60.38
2047.878	55.38
2051.998	62.38
2056.114	62.38
2060.226	58.38
2064.334	61.38
2068.439	60.38
2072.54	52.38
2076.637	59.38
2080.73	59.38
2084.82	65.38
2088.906	67.38
2092.988	67.38
2097.066	58.38
2101.14	63.38
2105.211	61.38
2109.278	61.38
2113.342	57.38
2117.401	62.38
2121.457	57.38
2125.509	55.38
2129.558	57.38
2133.602	59.38
2137.643	61.38
2141.681	53.38
2145.714	55.38
2149.744	51.38
2153.77	56.38
2157.793	49.38
2161.812	55.38
2165.827	49.38
2169.838	50.38
2173.846	54.38
2177.851	46.38
2181.851	50.38
2185.848	46.38
2189.841	40.38
2193.831	44.38
2197.817	42.38
2201.799	46.38
2205.778	43.38
2209.753	47.38
2213.725	44.38
2217.693	43.38
2221.657	36.38
2225.618	37.38
2229.575	40.38
2233.529	33.38
2237.479	37.38
2241.425	41.38
2245.368	40.38
2249.307	38.38
2253.243	33.38
2257.175	34.38
2261.104	32.38
2265.029	34.38
2268.95	35.38
2272.868	33.38
2276.783	31.38
2280.694	34.38
2284.601	29.38
2288.505	26.38
2292.405	27.38
2296.302	24.38
2300.195	26.38
2304.085	30.38
2307.971	30.38
2311.854	27.38
2315.734	25.38
2319.609	23.38
2323.482	22.38
2327.351	26.38
2331.216	25.38
2335.078	28.38
2338.937	25.38
2342.792	24.38
2346.643	21.38
2350.492	22.38
2354.336	19.38
2358.178	16.38
2362.015	20.38
2365.85	17.38
2369.681	15.38
2373.508	21.38
2377.333	25.38
2381.153	23.38
2384.971	17.38
2388.785	19.38
2392.595	19.38
2396.402	9.38
2400.206	17.38
2404.007	20.38
2407.804	17.38
2411.597	18.38
2415.388	17.38
2419.174	14.38
2422.958	14.38
2426.738	10.38
2430.515	9.38
2434.289	16.38
2438.059	21.38
2441.825	14.38
2445.589	13.38
2449.349	13.38
2453.106	10.38
2456.859	7.38
2460.61	11.38
2464.356	16.38
2468.1	12.38
2471.84	15.38
2475.577	16.38
2479.311	11.38
2483.041	11.38
2486.768	13.38
2490.492	8.38
2494.213	10.38
2497.93	13.38
2501.644	14.38
2505.355	11.38
2509.062	12.38
2512.766	10.38
2516.467	11.38
2520.165	6.38
2523.859	11.38
2527.551	10.38
2531.239	13.38
2534.923	10.38
2538.605	9.38
2542.283	9.38
2545.958	11.38
2549.63	12.38
2553.299	11.38
2556.964	6.38
2560.626	10.38
2564.285	9.38
2567.941	11.38
2571.594	11.38
2575.243	11.38
2578.89	13.38
2582.533	10.38
2586.173	11.38
2589.809	6.38
2593.443	9.38
2597.073	8.38
2600.701	9.38
2604.325	10.38
2607.946	11.38
2611.564	5.38
2615.178	8.38
2618.79	8.38
2622.398	8.38
2626.004	11.38
2629.606	12.38
2633.205	11.38
2636.801	7.38
2640.394	13.38
2643.983	8.38
2647.57	4.38
2651.153	4.38
2654.734	5.38
2658.311	12.38
2661.885	11.38
2665.456	7.38
2669.025	6.38
2672.589	2.38
2676.151	7.38
2679.71	3.38
2683.266	7.38
2686.819	8.38
2690.368	5.38
2693.915	9.38
2697.458	8.38
2700.999	5.38
2704.536	6.38
2708.071	9.38
2711.602	7.38
2715.13	7.38
2718.656	5.38
2722.178	10.38
2725.697	6.38
2729.214	7.38
2732.727	12.38
2736.237	11.38
2739.744	10.38
2743.249	10.38
2746.75	7.38
2750.248	10.38
2753.743	10.38
2757.236	8.38
2760.725	11.38
2764.211	11.38
2767.695	7.38
2771.175	9.38
2774.652	6.38
2778.127	8.38
2781.598	8.38
2785.067	10.38
2788.532	4.38
2791.995	13.38
2795.455	9.38
2798.911	7.38
2802.365	7.38
2805.816	10.38
2809.264	12.38
2812.709	20.38
2816.151	15.38
2819.59	18.38
2823.026	12.38
2826.46	19.38
2829.89	23.38
2833.318	24.38
2836.742	38.38
2840.164	46.38
2843.583	52.38
2846.999	59.38
2850.412	71.38
2853.822	79.38
2857.229	87.38
2860.634	90.38
2864.035	87.38
2867.434	92.38
2870.83	90.38
2874.223	90.38
2877.613	101.38
2881	107.38
2884.385	117.38
2887.766	114.38
2891.145	117.38
2894.521	116.38
2897.894	111.38
2901.264	113.38
2904.631	102.38
2907.996	106.38
2911.358	106.38
2914.717	102.38
2918.073	101.38
2921.426	94.38
2924.777	99.38
2928.124	102.38
2931.469	99.38
2934.811	98.38
2938.15	96.38
2941.487	92.38
2944.821	86.38
2948.152	79.38
2951.48	82.38
2954.805	73.38
2958.128	70.38
2961.447	73.38
2964.765	62.38
2968.079	62.38
2971.39	61.38
2974.699	56.38
2978.005	52.38
2981.308	50.38
2984.609	49.38
2987.907	48.38
2991.202	47.38
2994.494	43.38
2997.784	38.38
3001.07	41.38
3004.355	42.38
3007.636	35.38
3010.915	42.38
3014.191	35.38
3017.464	31.38
3020.734	33.38
3024.002	30.38
3027.267	31.38
3030.53	33.38
3033.789	36.38
3037.046	32.38
3040.301	38.38
3043.552	33.38
3046.801	36.38
3050.048	36.38
3053.291	32.38
3056.532	36.38
3059.771	34.38
3063.006	41.38
3066.239	40.38
3069.469	44.38
3072.697	43.38
3075.922	50.38
3079.144	47.38
3082.364	46.38
3085.581	44.38
3088.795	53.38
3092.007	51.38
3095.216	59.38
3098.423	57.38
3101.627	57.38
3104.828	59.38
3108.026	55.38
3111.222	59.38
3114.416	61.38
3117.607	62.38
3120.795	63.38
3123.98	68.38
3127.163	68.38
3130.344	72.38
3133.521	70.38
3136.696	70.38
3139.869	70.38
3143.039	74.38
3146.206	78.38
3149.371	86.38
3152.533	80.38
3155.693	76.38
3158.85	76.38
3162.005	81.38
3165.157	79.38
3168.306	79.38
3171.453	79.38
3174.597	82.38
3177.739	84.38
3180.878	86.38
3184.014	86.38
3187.149	87.38
3190.28	86.38
3193.409	88.38
3196.536	80.38
3199.659	79.38
3202.781	83.38
3205.9	85.38
3209.016	91.38
3212.13	91.38
3215.241	87.38
3218.35	84.38
3221.456	83.38
3224.56	79.38
3227.661	78.38
3230.76	78.38
3233.856	77.38
3236.95	76.38
3240.041	79.38
3243.13	79.38
3246.216	77.38
3249.3	78.38
3252.382	79.38
3255.46	75.38
3258.537	76.38
3261.611	78.38
3264.682	73.38
3267.751	76.38
3270.818	74.38
3273.882	73.38
3276.943	73.38
3280.002	70.38
3283.059	71.38
3286.113	70.38
3289.165	68.38
3292.214	67.38
3295.261	67.38
3298.306	68.38
3301.348	64.38
3304.387	61.38
3307.425	55.38
3310.459	58.38
3313.492	58.38
3316.521	56.38
3319.549	58.38
3322.574	59.38
3325.597	60.38
3328.617	59.38
3331.635	53.38
3334.65	54.38
3337.663	47.38
3340.674	52.38
3343.682	56.38
3346.688	56.38
3349.691	58.38
3352.692	52.38
3355.691	52.38
3358.687	51.38
3361.681	52.38
3364.673	53.38
3367.662	53.38
3370.649	51.38
3373.633	52.38
3376.615	52.38
3379.595	42.38
3382.572	48.38
3385.547	48.38
3388.52	45.38
3391.49	42.38
3394.458	47.38
3397.424	41.38
3400.387	38.38
3403.348	43.38
3406.307	45.38
3409.263	36.38
3412.217	43.38
3415.168	37.38
3418.118	35.38
3421.065	33.38
3424.009	31.38
3426.951	37.38
3429.891	41.38
3432.829	36.38
3435.764	33.38
3438.697	32.38
3441.628	31.38
3444.557	23.38
3447.483	26.38
3450.407	28.38
3453.328	24.38
3456.247	27.38
3459.164	25.38
3462.079	19.38
3464.991	21.38
3467.902	18.38
3470.809	15.38
3473.715	15.38
3476.618	17.38
3479.519	15.38
3482.418	13.38
3485.315	15.38
3488.209	13.38
3491.101	14.38
3493.99	12.38
3496.878	14.38
3499.763	10.38
3502.646	6.38
3505.527	7.38
3508.405	8.38
3511.281	9.38
3514.155	9.38
3517.027	9.38
3519.897	6.38
3522.764	3.38
3525.629	-0.62
3528.492	1.38
3531.352	-3.62
3534.211	2.38
3537.067	0.38
3539.921	-2.62
3542.773	-3.62
3545.622	-1.62
3548.469	-7.62
3551.315	-9.62
3554.157	-6.62
3556.998	-7.62
3559.837	-5.62
3562.673	-1.62
3565.507	-8.62
3568.339	-9.62
3571.169	-7.62
3573.996	-9.62
3576.822	-10.62
3579.645	-11.62
3582.466	-7.62
3585.285	-7.62
3588.101	-8.62
3590.916	-16.62
3593.728	-16.62
3596.538	-17.62
3599.346	-16.62
3602.152	-16.62
3604.956	-9.62
3607.757	-14.62
3610.556	-13.62
3613.354	-16.62
3616.149	-15.62
3618.942	-12.62
3621.732	-20.62
3624.521	-19.62
3627.307	-14.62
3630.092	-18.62
3632.874	-17.62
3635.654	-14.62
3638.432	-20.62
3641.208	-16.62
3643.982	-15.62
3646.753	-17.62
3649.523	-17.62
3652.29	-19.62
3655.055	-23.62
3657.818	-18.62
3660.579	-17.62
3663.338	-17.62
3666.095	-14.62
3668.849	-18.62
3671.602	-18.62
3674.352	-21.62
3677.101	-21.62
3679.847	-21.62
3682.591	-23.62
3685.333	-15.62
3688.073	-19.62
3690.811	-19.62
3693.547	-25.62
3696.281	-22.62
3699.013	-23.62
3701.742	-23.62
3704.47	-17.62
3707.195	-21.62
3709.919	-18.62
3712.64	-26.62
3715.359	-22.62
3718.076	-19.62
3720.792	-26.62
3723.505	-19.62
3726.216	-20.62
3728.925	-22.62
3731.632	-23.62
3734.336	-22.62
3737.039	-22.62
3739.74	-23.62
3742.439	-23.62
3745.136	-24.62
3747.83	-25.62
3750.523	-19.62
3753.213	-26.62
3755.902	-24.62
3758.589	-22.62
3761.273	-23.62
3763.956	-23.62
3766.636	-21.62
3769.315	-23.62
3771.991	-25.62
3774.665	-27.62
3777.338	-19.62
3780.008	-20.62
3782.677	-21.62
3785.343	-22.62
3788.007	-21.62
3790.67	-24.62
3793.33	-29.62
3795.989	-24.62
3798.645	-23.62
3801.299	-22.62
3803.952	-22.62
3806.602	-20.62
3809.251	-22.62
3811.897	-24.62
3814.542	-24.62
3817.184	-25.62
3819.825	-26.62
3822.463	-16.62
3825.1	-21.62
3827.735	-21.62
3830.367	-23.62
3832.998	-22.62
3835.627	-24.62
3838.253	-20.62
3840.878	-25.62
3843.501	-22.62
3846.122	-23.62
3848.741	-20.62
3851.358	-22.62
3853.973	-23.62
3856.586	-23.62
3859.197	-25.62
3861.806	-24.62
3864.414	-23.62
3867.019	-19.62
3869.622	-19.62
3872.224	-26.62
3874.823	-27.62
3877.421	-22.62
3880.016	-20.62
3882.61	-21.62
3885.202	-12.62
3887.792	-12.62
3890.38	-19.62
3892.966	-21.62
3895.55	-23.62
3898.132	-22.62
3900.713	-19.62
3903.291	-23.62
3905.868	-23.62
3908.442	-24.62
3911.015	-22.62
3913.586	-25.62
3916.155	-21.62
3918.722	-22.62
3921.287	-19.62
3923.85	-24.62
3926.411	-25.62
3928.971	-23.62
3931.528	-23.62
3934.084	-23.62
3936.638	-23.62
3939.19	-24.62
3941.74	-22.62
3944.288	-23.62
3946.834	-24.62
3949.378	-26.62
3951.921	-23.62
3954.462	-21.62
3957	-25.62
3959.537	-19.62
3962.072	-23.62
3964.606	-20.62
3967.137	-25.62
3969.667	-28.62
3972.194	-25.62
3974.72	-24.62
3977.244	-20.62
3979.766	-19.62
3982.286	-18.62
3984.805	-22.62
3987.321	-26.62
3989.836	-25.62
3992.349	-26.62
3994.86	-23.62
3997.369	-24.62
3999.877	-23.62
4002.382	-26.62
4004.886	-22.62
4007.388	-25.62
4009.888	-25.62
4012.386	-22.62
4014.883	-21.62
4017.377	-23.62
4019.87	-20.62
4022.361	-21.62
4024.85	-24.62
4027.338	-26.62
4029.823	-26.62
4032.307	-26.62
4034.789	-23.62
4037.269	-22.62
4039.747	-23.62
4042.224	-23.62
4044.699	-26.62
4047.172	-28.62
4049.643	-21.62
4052.112	-22.62
4054.58	-20.62
4057.046	-20.62
4059.51	-26.62
4061.972	-26.62
4064.432	-21.62
4066.891	-21.62
4069.348	-23.62
4071.803	-24.62
4074.256	-24.62
4076.708	-24.62
4079.158	-23.62
4081.606	-23.62
4084.052	-17.62
4086.497	-19.62
4088.939	-20.62
4091.38	-20.62
4093.819	-26.62
4096.257	-21.62
4098.693	-25.62
4101.127	-29.62
4103.559	-30.62
4105.989	-10.62
4108.418	-10.62
4110.845	-5.62
4113.27	-4.62
4115.694	-9.62
4118.115	-6.62
4120.535	-25.62
4122.954	-26.62
4125.37	-24.62
4127.785	-18.62
4130.198	-20.62
4132.609	-24.62
4135.019	-26.62
4137.427	-27.62
4139.833	-24.62
4142.237	-25.62
