Data from 1000CFU3_B_RamanShift_1.txt Node
Date: Thu Feb 02 14:31:10 IST 2017
User: aro
Spectrometer: QEPB0276
Trigger mode: 0
Integration Time (sec): 5.000000E0
Scans to average: 1
Electric dark correction enabled: true
Nonlinearity correction enabled: false
Boxcar width: 0
XAxis mode: Raman Shifts
Number of Pixels in Spectrum: 1044
>>>>>Begin Spectral Data<<<<<
160.701	-4.5
166.742	0.5
172.777	18.5
178.805	92.5
184.826	217.5
190.841	428.5
196.849	661.5
202.85	819.5
208.845	864.5
214.833	851.5
220.815	827.5
226.789	823.5
232.758	813.5
238.719	803.5
244.674	785.5
250.623	775.5
256.565	760.5
262.5	739.5
268.429	717.5
274.351	699.5
280.267	691.5
286.176	694.5
292.079	694.5
297.975	677.5
303.865	674.5
309.748	668.5
315.625	655.5
321.495	659.5
327.359	649.5
333.217	668.5
339.068	672.5
344.912	677.5
350.751	690.5
356.583	677.5
362.408	678.5
368.227	675.5
374.04	670.5
379.847	666.5
385.647	674.5
391.44	672.5
397.228	673.5
403.009	681.5
408.784	682.5
414.553	691.5
420.315	701.5
426.071	693.5
431.821	705.5
437.565	702.5
443.302	697.5
449.033	692.5
454.758	686.5
460.477	675.5
466.189	669.5
471.896	663.5
477.596	664.5
483.29	651.5
488.978	637.5
494.66	640.5
500.335	623.5
506.005	590.5
511.668	580.5
517.325	556.5
522.977	533.5
528.622	531.5
534.261	510.5
539.894	500.5
545.521	487.5
551.141	489.5
556.756	477.5
562.365	471.5
567.968	473.5
573.565	468.5
579.155	459.5
584.74	470.5
590.319	464.5
595.892	461.5
601.459	457.5
607.02	459.5
612.575	449.5
618.124	446.5
623.667	447.5
629.204	435.5
634.735	431.5
640.261	421.5
645.781	423.5
651.294	429.5
656.802	415.5
662.304	414.5
667.8	414.5
673.29	414.5
678.775	404.5
684.254	398.5
689.726	396.5
695.193	390.5
700.655	395.5
706.11	399.5
711.56	396.5
717.004	404.5
722.442	393.5
727.874	403.5
733.301	380.5
738.722	388.5
744.137	379.5
749.547	382.5
754.951	378.5
760.349	395.5
765.741	379.5
771.128	382.5
776.509	381.5
781.885	392.5
787.254	382.5
792.618	386.5
797.977	386.5
803.33	389.5
808.677	392.5
814.019	381.5
819.355	388.5
824.686	385.5
830.011	384.5
835.33	392.5
840.644	386.5
845.952	391.5
851.255	397.5
856.552	406.5
861.844	401.5
867.13	399.5
872.41	398.5
877.686	408.5
882.955	404.5
888.219	392.5
893.478	397.5
898.731	385.5
903.979	369.5
909.221	366.5
914.458	359.5
919.69	358.5
924.916	355.5
930.136	344.5
935.351	348.5
940.561	353.5
945.766	349.5
950.965	354.5
956.158	353.5
961.347	340.5
966.529	333.5
971.707	329.5
976.879	318.5
982.046	323.5
987.208	322.5
992.364	326.5
997.515	320.5
1002.66	330.5
1007.801	338.5
1012.936	338.5
1018.066	348.5
1023.19	338.5
1028.309	357.5
1033.423	358.5
1038.532	349.5
1043.636	356.5
1048.734	353.5
1053.827	354.5
1058.915	355.5
1063.998	366.5
1069.075	383.5
1074.147	374.5
1079.214	374.5
1084.276	382.5
1089.333	387.5
1094.385	385.5
1099.431	382.5
1104.472	368.5
1109.509	361.5
1114.54	347.5
1119.565	353.5
1124.586	350.5
1129.602	361.5
1134.613	347.5
1139.618	335.5
1144.619	313.5
1149.614	300.5
1154.604	297.5
1159.589	295.5
1164.57	296.5
1169.545	286.5
1174.515	292.5
1179.48	287.5
1184.44	285.5
1189.395	277.5
1194.345	272.5
1199.29	273.5
1204.23	266.5
1209.165	268.5
1214.095	282.5
1219.021	277.5
1223.941	269.5
1228.856	281.5
1233.766	287.5
1238.672	292.5
1243.572	302.5
1248.467	305.5
1253.358	305.5
1258.244	301.5
1263.124	301.5
1268	301.5
1272.871	298.5
1277.737	297.5
1282.599	296.5
1287.455	288.5
1292.306	299.5
1297.153	314.5
1301.995	327.5
1306.832	334.5
1311.664	322.5
1316.491	314.5
1321.314	306.5
1326.132	289.5
1330.945	271.5
1335.753	269.5
1340.556	261.5
1345.354	262.5
1350.148	265.5
1354.937	256.5
1359.722	252.5
1364.501	256.5
1369.276	247.5
1374.046	246.5
1378.811	249.5
1383.572	246.5
1388.327	240.5
1393.079	229.5
1397.825	230.5
1402.567	230.5
1407.304	228.5
1412.036	225.5
1416.764	231.5
1421.487	231.5
1426.205	244.5
1430.919	244.5
1435.628	273.5
1440.333	306.5
1445.032	324.5
1449.727	336.5
1454.418	329.5
1459.104	318.5
1463.785	304.5
1468.462	289.5
1473.134	260.5
1477.802	243.5
1482.465	218.5
1487.123	205.5
1491.777	195.5
1496.426	186.5
1501.071	182.5
1505.711	181.5
1510.347	179.5
1514.978	182.5
1519.604	182.5
1524.226	179.5
1528.844	175.5
1533.457	177.5
1538.065	177.5
1542.669	166.5
1547.269	180.5
1551.864	176.5
1556.454	175.5
1561.041	175.5
1565.622	171.5
1570.199	178.5
1574.772	172.5
1579.34	176.5
1583.904	174.5
1588.464	178.5
1593.019	174.5
1597.569	173.5
1602.115	182.5
1606.657	177.5
1611.195	183.5
1615.728	188.5
1620.256	188.5
1624.78	185.5
1629.3	189.5
1633.816	183.5
1638.327	195.5
1642.834	196.5
1647.336	202.5
1651.834	206.5
1656.328	210.5
1660.817	218.5
1665.302	214.5
1669.783	205.5
1674.259	201.5
1678.732	192.5
1683.199	180.5
1687.663	168.5
1692.122	159.5
1696.577	156.5
1701.028	154.5
1705.474	150.5
1709.917	144.5
1714.355	143.5
1718.788	136.5
1723.218	124.5
1727.643	121.5
1732.064	120.5
1736.481	128.5
1740.893	123.5
1745.301	128.5
1749.705	121.5
1754.105	118.5
1758.501	105.5
1762.893	108.5
1767.28	96.5
1771.663	99.5
1776.042	95.5
1780.417	95.5
1784.787	99.5
1789.154	97.5
1793.516	92.5
1797.874	94.5
1802.228	89.5
1806.578	97.5
1810.924	92.5
1815.266	87.5
1819.603	94.5
1823.937	89.5
1828.266	83.5
1832.591	85.5
1836.913	84.5
1841.23	76.5
1845.543	79.5
1849.852	83.5
1854.156	85.5
1858.457	83.5
1862.754	78.5
1867.047	78.5
1871.335	75.5
1875.62	78.5
1879.9	70.5
1884.177	77.5
1888.449	82.5
1892.718	74.5
1896.982	76.5
1901.243	77.5
1905.499	83.5
1909.752	80.5
1914	76.5
1918.245	71.5
1922.485	71.5
1926.722	75.5
1930.954	77.5
1935.183	79.5
1939.408	75.5
1943.628	75.5
1947.845	75.5
1952.058	74.5
1956.267	78.5
1960.472	79.5
1964.673	73.5
1968.87	74.5
1973.063	70.5
1977.252	63.5
1981.438	68.5
1985.619	67.5
1989.797	63.5
1993.971	65.5
1998.14	64.5
2002.306	66.5
2006.469	64.5
2010.627	62.5
2014.781	67.5
2018.932	69.5
2023.078	67.5
2027.221	62.5
2031.36	61.5
2035.495	60.5
2039.627	60.5
2043.754	61.5
2047.878	63.5
2051.998	58.5
2056.114	59.5
2060.226	63.5
2064.334	62.5
2068.439	60.5
2072.54	61.5
2076.637	63.5
2080.73	63.5
2084.82	67.5
2088.906	65.5
2092.988	65.5
2097.066	61.5
2101.14	60.5
2105.211	57.5
2109.278	53.5
2113.342	62.5
2117.401	59.5
2121.457	64.5
2125.509	58.5
2129.558	63.5
2133.602	57.5
2137.643	56.5
2141.681	55.5
2145.714	55.5
2149.744	55.5
2153.77	58.5
2157.793	51.5
2161.812	57.5
2165.827	46.5
2169.838	44.5
2173.846	48.5
2177.851	49.5
2181.851	47.5
2185.848	48.5
2189.841	46.5
2193.831	46.5
2197.817	46.5
2201.799	41.5
2205.778	43.5
2209.753	44.5
2213.725	44.5
2217.693	48.5
2221.657	43.5
2225.618	36.5
2229.575	34.5
2233.529	36.5
2237.479	37.5
2241.425	41.5
2245.368	44.5
2249.307	40.5
2253.243	37.5
2257.175	36.5
2261.104	40.5
2265.029	39.5
2268.95	31.5
2272.868	33.5
2276.783	36.5
2280.694	34.5
2284.601	28.5
2288.505	28.5
2292.405	28.5
2296.302	29.5
2300.195	27.5
2304.085	26.5
2307.971	24.5
2311.854	26.5
2315.734	24.5
2319.609	25.5
2323.482	24.5
2327.351	27.5
2331.216	26.5
2335.078	24.5
2338.937	22.5
2342.792	22.5
2346.643	19.5
2350.492	19.5
2354.336	19.5
2358.178	20.5
2362.015	19.5
2365.85	18.5
2369.681	16.5
2373.508	17.5
2377.333	20.5
2381.153	22.5
2384.971	20.5
2388.785	21.5
2392.595	20.5
2396.402	15.5
2400.206	20.5
2404.007	12.5
2407.804	16.5
2411.597	19.5
2415.388	15.5
2419.174	18.5
2422.958	14.5
2426.738	16.5
2430.515	13.5
2434.289	15.5
2438.059	17.5
2441.825	13.5
2445.589	18.5
2449.349	13.5
2453.106	17.5
2456.859	13.5
2460.61	11.5
2464.356	16.5
2468.1	12.5
2471.84	11.5
2475.577	13.5
2479.311	11.5
2483.041	11.5
2486.768	13.5
2490.492	11.5
2494.213	12.5
2497.93	10.5
2501.644	8.5
2505.355	9.5
2509.062	10.5
2512.766	15.5
2516.467	13.5
2520.165	12.5
2523.859	8.5
2527.551	9.5
2531.239	12.5
2534.923	5.5
2538.605	5.5
2542.283	7.5
2545.958	8.5
2549.63	10.5
2553.299	12.5
2556.964	9.5
2560.626	12.5
2564.285	6.5
2567.941	8.5
2571.594	9.5
2575.243	9.5
2578.89	11.5
2582.533	9.5
2586.173	7.5
2589.809	7.5
2593.443	8.5
2597.073	5.5
2600.701	5.5
2604.325	12.5
2607.946	11.5
2611.564	11.5
2615.178	9.5
2618.79	9.5
2622.398	10.5
2626.004	4.5
2629.606	7.5
2633.205	5.5
2636.801	7.5
2640.394	11.5
2643.983	8.5
2647.57	8.5
2651.153	6.5
2654.734	2.5
2658.311	10.5
2661.885	9.5
2665.456	5.5
2669.025	7.5
2672.589	3.5
2676.151	4.5
2679.71	6.5
2683.266	9.5
2686.819	2.5
2690.368	2.5
2693.915	8.5
2697.458	8.5
2700.999	5.5
2704.536	9.5
2708.071	7.5
2711.602	9.5
2715.13	8.5
2718.656	8.5
2722.178	6.5
2725.697	6.5
2729.214	8.5
2732.727	14.5
2736.237	13.5
2739.744	16.5
2743.249	13.5
2746.75	8.5
2750.248	6.5
2753.743	5.5
2757.236	6.5
2760.725	11.5
2764.211	15.5
2767.695	10.5
2771.175	8.5
2774.652	7.5
2778.127	8.5
2781.598	7.5
2785.067	5.5
2788.532	7.5
2791.995	10.5
2795.455	9.5
2798.911	7.5
2802.365	7.5
2805.816	12.5
2809.264	16.5
2812.709	13.5
2816.151	13.5
2819.59	19.5
2823.026	21.5
2826.46	25.5
2829.89	27.5
2833.318	32.5
2836.742	32.5
2840.164	42.5
2843.583	50.5
2846.999	63.5
2850.412	80.5
2853.822	85.5
2857.229	90.5
2860.634	97.5
2864.035	97.5
2867.434	99.5
2870.83	96.5
2874.223	104.5
2877.613	104.5
2881	113.5
2884.385	122.5
2887.766	123.5
2891.145	131.5
2894.521	122.5
2897.894	119.5
2901.264	114.5
2904.631	109.5
2907.996	121.5
2911.358	112.5
2914.717	110.5
2918.073	113.5
2921.426	105.5
2924.777	108.5
2928.124	104.5
2931.469	103.5
2934.811	103.5
2938.15	99.5
2941.487	96.5
2944.821	95.5
2948.152	85.5
2951.48	85.5
2954.805	84.5
2958.128	76.5
2961.447	72.5
2964.765	68.5
2968.079	64.5
2971.39	57.5
2974.699	59.5
2978.005	54.5
2981.308	53.5
2984.609	50.5
2987.907	54.5
2991.202	53.5
2994.494	43.5
2997.784	40.5
3001.07	39.5
3004.355	41.5
3007.636	39.5
3010.915	39.5
3014.191	38.5
3017.464	37.5
3020.734	35.5
3024.002	36.5
3027.267	30.5
3030.53	34.5
3033.789	37.5
3037.046	31.5
3040.301	36.5
3043.552	35.5
3046.801	41.5
3050.048	39.5
3053.291	43.5
3056.532	41.5
3059.771	40.5
3063.006	40.5
3066.239	44.5
3069.469	50.5
3072.697	44.5
3075.922	49.5
3079.144	51.5
3082.364	49.5
3085.581	46.5
3088.795	55.5
3092.007	55.5
3095.216	56.5
3098.423	58.5
3101.627	59.5
3104.828	63.5
3108.026	57.5
3111.222	62.5
3114.416	63.5
3117.607	66.5
3120.795	75.5
3123.98	73.5
3127.163	77.5
3130.344	74.5
3133.521	71.5
3136.696	73.5
3139.869	75.5
3143.039	85.5
3146.206	85.5
3149.371	87.5
3152.533	82.5
3155.693	84.5
3158.85	79.5
3162.005	83.5
3165.157	90.5
3168.306	84.5
3171.453	91.5
3174.597	84.5
3177.739	87.5
3180.878	86.5
3184.014	88.5
3187.149	92.5
3190.28	88.5
3193.409	94.5
3196.536	93.5
3199.659	90.5
3202.781	87.5
3205.9	82.5
3209.016	92.5
3212.13	88.5
3215.241	95.5
3218.35	91.5
3221.456	84.5
3224.56	82.5
3227.661	81.5
3230.76	83.5
3233.856	84.5
3236.95	80.5
3240.041	84.5
3243.13	89.5
3246.216	79.5
3249.3	82.5
3252.382	75.5
3255.46	76.5
3258.537	78.5
3261.611	77.5
3264.682	80.5
3267.751	76.5
3270.818	77.5
3273.882	75.5
3276.943	75.5
3280.002	72.5
3283.059	79.5
3286.113	73.5
3289.165	70.5
3292.214	71.5
3295.261	69.5
3298.306	72.5
3301.348	76.5
3304.387	64.5
3307.425	69.5
3310.459	64.5
3313.492	63.5
3316.521	58.5
3319.549	59.5
3322.574	60.5
3325.597	62.5
3328.617	60.5
3331.635	55.5
3334.65	57.5
3337.663	55.5
3340.674	54.5
3343.682	61.5
3346.688	54.5
3349.691	64.5
3352.692	55.5
3355.691	59.5
3358.687	57.5
3361.681	53.5
3364.673	53.5
3367.662	53.5
3370.649	54.5
3373.633	54.5
3376.615	45.5
3379.595	45.5
3382.572	44.5
3385.547	48.5
3388.52	47.5
3391.49	44.5
3394.458	47.5
3397.424	42.5
3400.387	40.5
3403.348	44.5
3406.307	40.5
3409.263	44.5
3412.217	45.5
3415.168	45.5
3418.118	38.5
3421.065	36.5
3424.009	38.5
3426.951	39.5
3429.891	37.5
3432.829	41.5
3435.764	35.5
3438.697	39.5
3441.628	29.5
3444.557	27.5
3447.483	29.5
3450.407	32.5
3453.328	27.5
3456.247	25.5
3459.164	28.5
3462.079	27.5
3464.991	23.5
3467.902	18.5
3470.809	19.5
3473.715	18.5
3476.618	21.5
3479.519	19.5
3482.418	13.5
3485.315	14.5
3488.209	9.5
3491.101	12.5
3493.99	12.5
3496.878	15.5
3499.763	7.5
3502.646	12.5
3505.527	13.5
3508.405	7.5
3511.281	5.5
3514.155	10.5
3517.027	5.5
3519.897	6.5
3522.764	1.5
3525.629	2.5
3528.492	-0.5
3531.352	-0.5
3534.211	-0.5
3537.067	-2.5
3539.921	-2.5
3542.773	-4.5
3545.622	-3.5
3548.469	-7.5
3551.315	-6.5
3554.157	-7.5
3556.998	-3.5
3559.837	-4.5
3562.673	-6.5
3565.507	-8.5
3568.339	-11.5
3571.169	-13.5
3573.996	-14.5
3576.822	-11.5
3579.645	-13.5
3582.466	-7.5
3585.285	-7.5
3588.101	-12.5
3590.916	-17.5
3593.728	-15.5
3596.538	-18.5
3599.346	-15.5
3602.152	-16.5
3604.956	-12.5
3607.757	-13.5
3610.556	-15.5
3613.354	-17.5
3616.149	-21.5
3618.942	-16.5
3621.732	-21.5
3624.521	-16.5
3627.307	-15.5
3630.092	-16.5
3632.874	-20.5
3635.654	-19.5
3638.432	-20.5
3641.208	-19.5
3643.982	-21.5
3646.753	-16.5
3649.523	-20.5
3652.29	-18.5
3655.055	-19.5
3657.818	-23.5
3660.579	-21.5
3663.338	-18.5
3666.095	-15.5
3668.849	-20.5
3671.602	-21.5
3674.352	-24.5
3677.101	-21.5
3679.847	-23.5
3682.591	-21.5
3685.333	-21.5
3688.073	-23.5
3690.811	-24.5
3693.547	-28.5
3696.281	-25.5
3699.013	-24.5
3701.742	-24.5
3704.47	-20.5
3707.195	-20.5
3709.919	-27.5
3712.64	-26.5
3715.359	-25.5
3718.076	-25.5
3720.792	-29.5
3723.505	-20.5
3726.216	-21.5
3728.925	-24.5
3731.632	-23.5
3734.336	-24.5
3737.039	-23.5
3739.74	-28.5
3742.439	-28.5
3745.136	-23.5
3747.83	-21.5
3750.523	-22.5
3753.213	-24.5
3755.902	-26.5
3758.589	-28.5
3761.273	-28.5
3763.956	-25.5
3766.636	-25.5
3769.315	-23.5
3771.991	-23.5
3774.665	-28.5
3777.338	-25.5
3780.008	-22.5
3782.677	-25.5
3785.343	-28.5
3788.007	-25.5
3790.67	-24.5
3793.33	-24.5
3795.989	-24.5
3798.645	-25.5
3801.299	-24.5
3803.952	-27.5
3806.602	-27.5
3809.251	-26.5
3811.897	-25.5
3814.542	-28.5
3817.184	-25.5
3819.825	-24.5
3822.463	-21.5
3825.1	-24.5
3827.735	-25.5
3830.367	-25.5
3832.998	-26.5
3835.627	-24.5
3838.253	-20.5
3840.878	-22.5
3843.501	-23.5
3846.122	-26.5
3848.741	-24.5
3851.358	-27.5
3853.973	-27.5
3856.586	-26.5
3859.197	-28.5
3861.806	-24.5
3864.414	-23.5
3867.019	-21.5
3869.622	-24.5
3872.224	-26.5
3874.823	-30.5
3877.421	-22.5
3880.016	-23.5
3882.61	-16.5
3885.202	-11.5
3887.792	-13.5
3890.38	-18.5
3892.966	-27.5
3895.55	-28.5
3898.132	-29.5
3900.713	-23.5
3903.291	-24.5
3905.868	-22.5
3908.442	-25.5
3911.015	-23.5
3913.586	-27.5
3916.155	-29.5
3918.722	-26.5
3921.287	-23.5
3923.85	-26.5
3926.411	-23.5
3928.971	-22.5
3931.528	-27.5
3934.084	-29.5
3936.638	-25.5
3939.19	-27.5
3941.74	-25.5
3944.288	-27.5
3946.834	-24.5
3949.378	-25.5
3951.921	-24.5
3954.462	-23.5
3957	-25.5
3959.537	-25.5
3962.072	-25.5
3964.606	-26.5
3967.137	-25.5
3969.667	-26.5
3972.194	-26.5
3974.72	-25.5
3977.244	-24.5
3979.766	-23.5
3982.286	-21.5
3984.805	-26.5
3987.321	-27.5
3989.836	-31.5
3992.349	-25.5
3994.86	-25.5
3997.369	-25.5
3999.877	-24.5
4002.382	-26.5
4004.886	-25.5
4007.388	-26.5
4009.888	-24.5
4012.386	-24.5
4014.883	-25.5
4017.377	-24.5
4019.87	-24.5
4022.361	-22.5
4024.85	-29.5
4027.338	-27.5
4029.823	-29.5
4032.307	-29.5
4034.789	-23.5
4037.269	-23.5
4039.747	-25.5
4042.224	-24.5
4044.699	-28.5
4047.172	-28.5
4049.643	-27.5
4052.112	-25.5
4054.58	-27.5
4057.046	-22.5
4059.51	-27.5
4061.972	-25.5
4064.432	-22.5
4066.891	-26.5
4069.348	-24.5
4071.803	-26.5
4074.256	-27.5
4076.708	-22.5
4079.158	-26.5
4081.606	-26.5
4084.052	-23.5
4086.497	-24.5
4088.939	-23.5
4091.38	-24.5
4093.819	-27.5
4096.257	-22.5
4098.693	-28.5
4101.127	-28.5
4103.559	-29.5
4105.989	-10.5
4108.418	-13.5
4110.845	-7.5
4113.27	-8.5
4115.694	-9.5
4118.115	-12.5
4120.535	-27.5
4122.954	-29.5
4125.37	-26.5
4127.785	-20.5
4130.198	-23.5
4132.609	-22.5
4135.019	-25.5
4137.427	-27.5
4139.833	-25.5
4142.237	-28.5
