Data from 1000CFU3_C_RamanShift_1.txt Node
Date: Thu Feb 02 15:07:30 IST 2017
User: aro
Spectrometer: QEPB0276
Trigger mode: 0
Integration Time (sec): 5.000000E0
Scans to average: 1
Electric dark correction enabled: true
Nonlinearity correction enabled: false
Boxcar width: 0
XAxis mode: Raman Shifts
Number of Pixels in Spectrum: 1044
>>>>>Begin Spectral Data<<<<<
160.701	-5.75
166.742	3.25
172.777	20.25
178.805	82.25
184.826	200.25
190.841	387.25
196.849	603.25
202.85	752.25
208.845	792.25
214.833	781.25
220.815	785.25
226.789	764.25
232.758	752.25
238.719	744.25
244.674	739.25
250.623	726.25
256.565	699.25
262.5	677.25
268.429	666.25
274.351	649.25
280.267	654.25
286.176	642.25
292.079	634.25
297.975	631.25
303.865	628.25
309.748	633.25
315.625	633.25
321.495	620.25
327.359	632.25
333.217	618.25
339.068	627.25
344.912	646.25
350.751	636.25
356.583	641.25
362.408	654.25
368.227	631.25
374.04	642.25
379.847	631.25
385.647	626.25
391.44	637.25
397.228	641.25
403.009	632.25
408.784	645.25
414.553	649.25
420.315	658.25
426.071	651.25
431.821	662.25
437.565	651.25
443.302	661.25
449.033	653.25
454.758	644.25
460.477	652.25
466.189	635.25
471.896	626.25
477.596	614.25
483.29	627.25
488.978	609.25
494.66	607.25
500.335	595.25
506.005	560.25
511.668	541.25
517.325	518.25
522.977	505.25
528.622	493.25
534.261	470.25
539.894	466.25
545.521	459.25
551.141	457.25
556.756	450.25
562.365	441.25
567.968	439.25
573.565	434.25
579.155	424.25
584.74	428.25
590.319	424.25
595.892	430.25
601.459	432.25
607.02	426.25
612.575	421.25
618.124	423.25
623.667	408.25
629.204	406.25
634.735	396.25
640.261	393.25
645.781	396.25
651.294	396.25
656.802	391.25
662.304	385.25
667.8	381.25
673.29	373.25
678.775	369.25
684.254	377.25
689.726	365.25
695.193	368.25
700.655	359.25
706.11	369.25
711.56	374.25
717.004	370.25
722.442	358.25
727.874	362.25
733.301	360.25
738.722	357.25
744.137	355.25
749.547	355.25
754.951	355.25
760.349	356.25
765.741	356.25
771.128	357.25
776.509	355.25
781.885	358.25
787.254	352.25
792.618	364.25
797.977	367.25
803.33	354.25
808.677	360.25
814.019	359.25
819.355	350.25
824.686	355.25
830.011	350.25
835.33	361.25
840.644	356.25
845.952	362.25
851.255	366.25
856.552	362.25
861.844	370.25
867.13	369.25
872.41	367.25
877.686	364.25
882.955	363.25
888.219	362.25
893.478	354.25
898.731	337.25
903.979	345.25
909.221	334.25
914.458	332.25
919.69	322.25
924.916	328.25
930.136	323.25
935.351	325.25
940.561	330.25
945.766	313.25
950.965	317.25
956.158	327.25
961.347	311.25
966.529	306.25
971.707	301.25
976.879	291.25
982.046	285.25
987.208	294.25
992.364	295.25
997.515	294.25
1002.66	300.25
1007.801	305.25
1012.936	316.25
1018.066	312.25
1023.19	308.25
1028.309	317.25
1033.423	326.25
1038.532	318.25
1043.636	327.25
1048.734	321.25
1053.827	322.25
1058.915	332.25
1063.998	330.25
1069.075	345.25
1074.147	342.25
1079.214	339.25
1084.276	353.25
1089.333	363.25
1094.385	357.25
1099.431	348.25
1104.472	339.25
1109.509	327.25
1114.54	326.25
1119.565	318.25
1124.586	320.25
1129.602	316.25
1134.613	301.25
1139.618	298.25
1144.619	282.25
1149.614	275.25
1154.604	271.25
1159.589	272.25
1164.57	279.25
1169.545	273.25
1174.515	264.25
1179.48	261.25
1184.44	258.25
1189.395	249.25
1194.345	244.25
1199.29	246.25
1204.23	245.25
1209.165	243.25
1214.095	252.25
1219.021	256.25
1223.941	247.25
1228.856	259.25
1233.766	264.25
1238.672	268.25
1243.572	271.25
1248.467	276.25
1253.358	274.25
1258.244	284.25
1263.124	275.25
1268	282.25
1272.871	277.25
1277.737	270.25
1282.599	258.25
1287.455	259.25
1292.306	268.25
1297.153	289.25
1301.995	293.25
1306.832	299.25
1311.664	294.25
1316.491	282.25
1321.314	281.25
1326.132	262.25
1330.945	252.25
1335.753	242.25
1340.556	240.25
1345.354	241.25
1350.148	238.25
1354.937	233.25
1359.722	236.25
1364.501	227.25
1369.276	223.25
1374.046	225.25
1378.811	217.25
1383.572	217.25
1388.327	217.25
1393.079	208.25
1397.825	205.25
1402.567	209.25
1407.304	203.25
1412.036	212.25
1416.764	201.25
1421.487	212.25
1426.205	221.25
1430.919	221.25
1435.628	245.25
1440.333	267.25
1445.032	290.25
1449.727	302.25
1454.418	290.25
1459.104	294.25
1463.785	269.25
1468.462	261.25
1473.134	244.25
1477.802	223.25
1482.465	208.25
1487.123	185.25
1491.777	177.25
1496.426	171.25
1501.071	165.25
1505.711	164.25
1510.347	165.25
1514.978	163.25
1519.604	166.25
1524.226	162.25
1528.844	160.25
1533.457	155.25
1538.065	158.25
1542.669	155.25
1547.269	158.25
1551.864	157.25
1556.454	161.25
1561.041	160.25
1565.622	152.25
1570.199	151.25
1574.772	155.25
1579.34	158.25
1583.904	160.25
1588.464	158.25
1593.019	157.25
1597.569	157.25
1602.115	159.25
1606.657	168.25
1611.195	173.25
1615.728	166.25
1620.256	166.25
1624.78	166.25
1629.3	171.25
1633.816	171.25
1638.327	170.25
1642.834	181.25
1647.336	185.25
1651.834	194.25
1656.328	197.25
1660.817	197.25
1665.302	189.25
1669.783	186.25
1674.259	179.25
1678.732	175.25
1683.199	163.25
1687.663	159.25
1692.122	145.25
1696.577	140.25
1701.028	134.25
1705.474	134.25
1709.917	128.25
1714.355	122.25
1718.788	115.25
1723.218	113.25
1727.643	116.25
1732.064	115.25
1736.481	115.25
1740.893	108.25
1745.301	103.25
1749.705	105.25
1754.105	101.25
1758.501	96.25
1762.893	89.25
1767.28	91.25
1771.663	91.25
1776.042	88.25
1780.417	88.25
1784.787	80.25
1789.154	80.25
1793.516	82.25
1797.874	86.25
1802.228	83.25
1806.578	89.25
1810.924	87.25
1815.266	80.25
1819.603	79.25
1823.937	76.25
1828.266	73.25
1832.591	75.25
1836.913	75.25
1841.23	72.25
1845.543	70.25
1849.852	74.25
1854.156	69.25
1858.457	75.25
1862.754	68.25
1867.047	68.25
1871.335	74.25
1875.62	72.25
1879.9	74.25
1884.177	72.25
1888.449	75.25
1892.718	65.25
1896.982	66.25
1901.243	66.25
1905.499	67.25
1909.752	66.25
1914	71.25
1918.245	64.25
1922.485	70.25
1926.722	72.25
1930.954	64.25
1935.183	68.25
1939.408	65.25
1943.628	70.25
1947.845	59.25
1952.058	69.25
1956.267	65.25
1960.472	69.25
1964.673	65.25
1968.87	63.25
1973.063	60.25
1977.252	54.25
1981.438	59.25
1985.619	59.25
1989.797	56.25
1993.971	61.25
1998.14	59.25
2002.306	58.25
2006.469	58.25
2010.627	60.25
2014.781	57.25
2018.932	56.25
2023.078	58.25
2027.221	59.25
2031.36	52.25
2035.495	55.25
2039.627	58.25
2043.754	53.25
2047.878	56.25
2051.998	54.25
2056.114	52.25
2060.226	52.25
2064.334	54.25
2068.439	49.25
2072.54	51.25
2076.637	56.25
2080.73	57.25
2084.82	54.25
2088.906	58.25
2092.988	56.25
2097.066	53.25
2101.14	54.25
2105.211	49.25
2109.278	48.25
2113.342	56.25
2117.401	50.25
2121.457	53.25
2125.509	53.25
2129.558	53.25
2133.602	46.25
2137.643	53.25
2141.681	45.25
2145.714	48.25
2149.744	51.25
2153.77	48.25
2157.793	48.25
2161.812	47.25
2165.827	42.25
2169.838	43.25
2173.846	42.25
2177.851	37.25
2181.851	40.25
2185.848	39.25
2189.841	40.25
2193.831	41.25
2197.817	40.25
2201.799	40.25
2205.778	40.25
2209.753	38.25
2213.725	35.25
2217.693	36.25
2221.657	33.25
2225.618	35.25
2229.575	33.25
2233.529	33.25
2237.479	33.25
2241.425	36.25
2245.368	31.25
2249.307	29.25
2253.243	32.25
2257.175	29.25
2261.104	27.25
2265.029	31.25
2268.95	33.25
2272.868	31.25
2276.783	29.25
2280.694	30.25
2284.601	21.25
2288.505	20.25
2292.405	21.25
2296.302	27.25
2300.195	21.25
2304.085	24.25
2307.971	23.25
2311.854	21.25
2315.734	19.25
2319.609	17.25
2323.482	24.25
2327.351	24.25
2331.216	26.25
2335.078	25.25
2338.937	23.25
2342.792	22.25
2346.643	18.25
2350.492	17.25
2354.336	16.25
2358.178	14.25
2362.015	13.25
2365.85	16.25
2369.681	15.25
2373.508	16.25
2377.333	19.25
2381.153	20.25
2384.971	16.25
2388.785	14.25
2392.595	12.25
2396.402	12.25
2400.206	15.25
2404.007	12.25
2407.804	16.25
2411.597	16.25
2415.388	15.25
2419.174	13.25
2422.958	10.25
2426.738	9.25
2430.515	10.25
2434.289	9.25
2438.059	10.25
2441.825	12.25
2445.589	10.25
2449.349	9.25
2453.106	6.25
2456.859	6.25
2460.61	8.25
2464.356	11.25
2468.1	9.25
2471.84	9.25
2475.577	10.25
2479.311	7.25
2483.041	9.25
2486.768	6.25
2490.492	9.25
2494.213	7.25
2497.93	9.25
2501.644	5.25
2505.355	5.25
2509.062	7.25
2512.766	11.25
2516.467	10.25
2520.165	8.25
2523.859	9.25
2527.551	7.25
2531.239	9.25
2534.923	3.25
2538.605	2.25
2542.283	3.25
2545.958	5.25
2549.63	6.25
2553.299	8.25
2556.964	6.25
2560.626	7.25
2564.285	4.25
2567.941	6.25
2571.594	7.25
2575.243	3.25
2578.89	8.25
2582.533	9.25
2586.173	8.25
2589.809	7.25
2593.443	7.25
2597.073	4.25
2600.701	5.25
2604.325	5.25
2607.946	5.25
2611.564	4.25
2615.178	4.25
2618.79	5.25
2622.398	9.25
2626.004	6.25
2629.606	8.25
2633.205	7.25
2636.801	6.25
2640.394	10.25
2643.983	5.25
2647.57	4.25
2651.153	2.25
2654.734	2.25
2658.311	5.25
2661.885	7.25
2665.456	5.25
2669.025	1.25
2672.589	-4.75
2676.151	-1.75
2679.71	0.25
2683.266	7.25
2686.819	6.25
2690.368	6.25
2693.915	4.25
2697.458	5.25
2700.999	0.25
2704.536	4.25
2708.071	5.25
2711.602	2.25
2715.13	3.25
2718.656	6.25
2722.178	7.25
2725.697	3.25
2729.214	8.25
2732.727	5.25
2736.237	7.25
2739.744	8.25
2743.249	4.25
2746.75	4.25
2750.248	2.25
2753.743	7.25
2757.236	8.25
2760.725	6.25
2764.211	6.25
2767.695	3.25
2771.175	4.25
2774.652	-1.75
2778.127	2.25
2781.598	4.25
2785.067	3.25
2788.532	6.25
2791.995	10.25
2795.455	6.25
2798.911	5.25
2802.365	0.25
2805.816	4.25
2809.264	11.25
2812.709	13.25
2816.151	11.25
2819.59	18.25
2823.026	15.25
2826.46	21.25
2829.89	20.25
2833.318	16.25
2836.742	23.25
2840.164	35.25
2843.583	41.25
2846.999	52.25
2850.412	68.25
2853.822	69.25
2857.229	80.25
2860.634	84.25
2864.035	78.25
2867.434	79.25
2870.83	84.25
2874.223	86.25
2877.613	88.25
2881	97.25
2884.385	104.25
2887.766	110.25
2891.145	104.25
2894.521	103.25
2897.894	93.25
2901.264	99.25
2904.631	94.25
2907.996	95.25
2911.358	91.25
2914.717	95.25
2918.073	93.25
2921.426	90.25
2924.777	91.25
2928.124	88.25
2931.469	88.25
2934.811	92.25
2938.15	88.25
2941.487	84.25
2944.821	82.25
2948.152	75.25
2951.48	72.25
2954.805	63.25
2958.128	61.25
2961.447	62.25
2964.765	60.25
2968.079	53.25
2971.39	51.25
2974.699	49.25
2978.005	45.25
2981.308	42.25
2984.609	43.25
2987.907	39.25
2991.202	37.25
2994.494	33.25
2997.784	36.25
3001.07	37.25
3004.355	34.25
3007.636	34.25
3010.915	32.25
3014.191	30.25
3017.464	32.25
3020.734	24.25
3024.002	26.25
3027.267	26.25
3030.53	28.25
3033.789	35.25
3037.046	28.25
3040.301	27.25
3043.552	22.25
3046.801	24.25
3050.048	29.25
3053.291	33.25
3056.532	32.25
3059.771	34.25
3063.006	34.25
3066.239	42.25
3069.469	36.25
3072.697	38.25
3075.922	38.25
3079.144	40.25
3082.364	42.25
3085.581	38.25
3088.795	51.25
3092.007	44.25
3095.216	48.25
3098.423	49.25
3101.627	50.25
3104.828	55.25
3108.026	52.25
3111.222	56.25
3114.416	56.25
3117.607	56.25
3120.795	58.25
3123.98	59.25
3127.163	64.25
3130.344	59.25
3133.521	60.25
3136.696	57.25
3139.869	64.25
3143.039	75.25
3146.206	72.25
3149.371	73.25
3152.533	71.25
3155.693	68.25
3158.85	70.25
3162.005	73.25
3165.157	79.25
3168.306	75.25
3171.453	79.25
3174.597	72.25
3177.739	74.25
3180.878	76.25
3184.014	73.25
3187.149	68.25
3190.28	74.25
3193.409	77.25
3196.536	75.25
3199.659	82.25
3202.781	80.25
3205.9	77.25
3209.016	74.25
3212.13	77.25
3215.241	78.25
3218.35	78.25
3221.456	74.25
3224.56	74.25
3227.661	72.25
3230.76	75.25
3233.856	71.25
3236.95	71.25
3240.041	69.25
3243.13	69.25
3246.216	69.25
3249.3	72.25
3252.382	69.25
3255.46	69.25
3258.537	71.25
3261.611	67.25
3264.682	67.25
3267.751	63.25
3270.818	63.25
3273.882	60.25
3276.943	65.25
3280.002	62.25
3283.059	69.25
3286.113	68.25
3289.165	57.25
3292.214	58.25
3295.261	55.25
3298.306	57.25
3301.348	55.25
3304.387	57.25
3307.425	57.25
3310.459	51.25
3313.492	53.25
3316.521	51.25
3319.549	49.25
3322.574	43.25
3325.597	51.25
3328.617	51.25
3331.635	47.25
3334.65	49.25
3337.663	48.25
3340.674	50.25
3343.682	45.25
3346.688	48.25
3349.691	45.25
3352.692	45.25
3355.691	46.25
3358.687	48.25
3361.681	49.25
3364.673	52.25
3367.662	49.25
3370.649	44.25
3373.633	41.25
3376.615	43.25
3379.595	35.25
3382.572	38.25
3385.547	39.25
3388.52	39.25
3391.49	40.25
3394.458	39.25
3397.424	39.25
3400.387	33.25
3403.348	33.25
3406.307	35.25
3409.263	39.25
3412.217	38.25
3415.168	39.25
3418.118	32.25
3421.065	31.25
3424.009	27.25
3426.951	29.25
3429.891	32.25
3432.829	34.25
3435.764	28.25
3438.697	29.25
3441.628	24.25
3444.557	27.25
3447.483	20.25
3450.407	21.25
3453.328	23.25
3456.247	23.25
3459.164	20.25
3462.079	21.25
3464.991	22.25
3467.902	18.25
3470.809	18.25
3473.715	16.25
3476.618	13.25
3479.519	9.25
3482.418	10.25
3485.315	6.25
3488.209	6.25
3491.101	7.25
3493.99	11.25
3496.878	8.25
3499.763	10.25
3502.646	6.25
3505.527	2.25
3508.405	2.25
3511.281	-0.75
3514.155	6.25
3517.027	4.25
3519.897	3.25
3522.764	1.25
3525.629	0.25
3528.492	-0.75
3531.352	-5.75
3534.211	-4.75
3537.067	-3.75
3539.921	-4.75
3542.773	-5.75
3545.622	-3.75
3548.469	-7.75
3551.315	-5.75
3554.157	-13.75
3556.998	-7.75
3559.837	-9.75
3562.673	-8.75
3565.507	-13.75
3568.339	-11.75
3571.169	-8.75
3573.996	-8.75
3576.822	-10.75
3579.645	-13.75
3582.466	-11.75
3585.285	-13.75
3588.101	-12.75
3590.916	-18.75
3593.728	-16.75
3596.538	-17.75
3599.346	-15.75
3602.152	-11.75
3604.956	-15.75
3607.757	-16.75
3610.556	-16.75
3613.354	-19.75
3616.149	-20.75
3618.942	-18.75
3621.732	-20.75
3624.521	-16.75
3627.307	-15.75
3630.092	-18.75
3632.874	-16.75
3635.654	-19.75
3638.432	-20.75
3641.208	-21.75
3643.982	-18.75
3646.753	-19.75
3649.523	-19.75
3652.29	-20.75
3655.055	-22.75
3657.818	-25.75
3660.579	-19.75
3663.338	-21.75
3666.095	-17.75
3668.849	-17.75
3671.602	-20.75
3674.352	-23.75
3677.101	-23.75
3679.847	-24.75
3682.591	-21.75
3685.333	-20.75
3688.073	-22.75
3690.811	-21.75
3693.547	-28.75
3696.281	-23.75
3699.013	-25.75
3701.742	-25.75
3704.47	-24.75
3707.195	-22.75
3709.919	-24.75
3712.64	-27.75
3715.359	-23.75
3718.076	-20.75
3720.792	-28.75
3723.505	-20.75
3726.216	-23.75
3728.925	-24.75
3731.632	-23.75
3734.336	-25.75
3737.039	-21.75
3739.74	-27.75
3742.439	-20.75
3745.136	-26.75
3747.83	-24.75
3750.523	-22.75
3753.213	-26.75
3755.902	-21.75
3758.589	-25.75
3761.273	-22.75
3763.956	-22.75
3766.636	-21.75
3769.315	-22.75
3771.991	-25.75
3774.665	-29.75
3777.338	-25.75
3780.008	-20.75
3782.677	-18.75
3785.343	-24.75
3788.007	-22.75
3790.67	-24.75
3793.33	-27.75
3795.989	-28.75
3798.645	-30.75
3801.299	-25.75
3803.952	-25.75
3806.602	-23.75
3809.251	-25.75
3811.897	-22.75
3814.542	-27.75
3817.184	-26.75
3819.825	-26.75
3822.463	-22.75
3825.1	-22.75
3827.735	-20.75
3830.367	-25.75
3832.998	-22.75
3835.627	-22.75
3838.253	-24.75
3840.878	-26.75
3843.501	-21.75
3846.122	-25.75
3848.741	-23.75
3851.358	-24.75
3853.973	-24.75
3856.586	-24.75
3859.197	-25.75
3861.806	-22.75
3864.414	-26.75
3867.019	-23.75
3869.622	-24.75
3872.224	-27.75
3874.823	-25.75
3877.421	-21.75
3880.016	-21.75
3882.61	-14.75
3885.202	-10.75
3887.792	-13.75
3890.38	-21.75
3892.966	-27.75
3895.55	-27.75
3898.132	-23.75
3900.713	-22.75
3903.291	-21.75
3905.868	-25.75
3908.442	-23.75
3911.015	-23.75
3913.586	-27.75
3916.155	-28.75
3918.722	-26.75
3921.287	-23.75
3923.85	-25.75
3926.411	-24.75
3928.971	-21.75
3931.528	-25.75
3934.084	-27.75
3936.638	-26.75
3939.19	-27.75
3941.74	-25.75
3944.288	-27.75
3946.834	-27.75
3949.378	-24.75
3951.921	-23.75
3954.462	-22.75
3957	-25.75
3959.537	-22.75
3962.072	-24.75
3964.606	-26.75
3967.137	-23.75
3969.667	-25.75
3972.194	-26.75
3974.72	-26.75
3977.244	-20.75
3979.766	-24.75
3982.286	-22.75
3984.805	-25.75
3987.321	-27.75
3989.836	-30.75
3992.349	-27.75
3994.86	-25.75
3997.369	-23.75
3999.877	-20.75
4002.382	-24.75
4004.886	-23.75
4007.388	-26.75
4009.888	-28.75
4012.386	-27.75
4014.883	-26.75
4017.377	-23.75
4019.87	-23.75
4022.361	-21.75
4024.85	-24.75
4027.338	-25.75
4029.823	-27.75
4032.307	-27.75
4034.789	-25.75
4037.269	-24.75
4039.747	-23.75
4042.224	-24.75
4044.699	-26.75
4047.172	-26.75
4049.643	-26.75
4052.112	-22.75
4054.58	-23.75
4057.046	-24.75
4059.51	-29.75
4061.972	-27.75
4064.432	-24.75
4066.891	-22.75
4069.348	-24.75
4071.803	-22.75
4074.256	-24.75
4076.708	-23.75
4079.158	-25.75
4081.606	-27.75
4084.052	-21.75
4086.497	-23.75
4088.939	-22.75
4091.38	-21.75
4093.819	-21.75
4096.257	-25.75
4098.693	-27.75
4101.127	-27.75
4103.559	-28.75
4105.989	-9.75
4108.418	-7.75
4110.845	-9.75
4113.27	-10.75
4115.694	-8.75
4118.115	-11.75
4120.535	-23.75
4122.954	-28.75
4125.37	-28.75
4127.785	-23.75
4130.198	-21.75
4132.609	-25.75
4135.019	-25.75
4137.427	-25.75
4139.833	-22.75
4142.237	-25.75
