Data from 100000CFU1_B_RamanShift_1.txt Node
Date: Thu Feb 02 14:36:25 IST 2017
User: aro
Spectrometer: QEPB0276
Trigger mode: 0
Integration Time (sec): 5.000000E0
Scans to average: 1
Electric dark correction enabled: true
Nonlinearity correction enabled: false
Boxcar width: 0
XAxis mode: Raman Shifts
Number of Pixels in Spectrum: 1044
>>>>>Begin Spectral Data<<<<<
160.701	-7.12
166.742	5.88
172.777	22.88
178.805	81.88
184.826	214.88
190.841	407.88
196.849	634.88
202.85	786.88
208.845	845.88
214.833	835.88
220.815	801.88
226.789	795.88
232.758	801.88
238.719	784.88
244.674	767.88
250.623	743.88
256.565	719.88
262.5	707.88
268.429	694.88
274.351	687.88
280.267	669.88
286.176	651.88
292.079	657.88
297.975	648.88
303.865	645.88
309.748	637.88
315.625	645.88
321.495	637.88
327.359	643.88
333.217	644.88
339.068	641.88
344.912	647.88
350.751	647.88
356.583	649.88
362.408	662.88
368.227	649.88
374.04	644.88
379.847	642.88
385.647	639.88
391.44	630.88
397.228	648.88
403.009	645.88
408.784	650.88
414.553	666.88
420.315	677.88
426.071	661.88
431.821	672.88
437.565	663.88
443.302	662.88
449.033	655.88
454.758	663.88
460.477	648.88
466.189	639.88
471.896	634.88
477.596	630.88
483.29	619.88
488.978	611.88
494.66	601.88
500.335	583.88
506.005	568.88
511.668	540.88
517.325	527.88
522.977	512.88
528.622	493.88
534.261	477.88
539.894	473.88
545.521	471.88
551.141	470.88
556.756	461.88
562.365	439.88
567.968	439.88
573.565	433.88
579.155	433.88
584.74	433.88
590.319	444.88
595.892	433.88
601.459	432.88
607.02	426.88
612.575	424.88
618.124	415.88
623.667	415.88
629.204	407.88
634.735	399.88
640.261	398.88
645.781	399.88
651.294	395.88
656.802	386.88
662.304	388.88
667.8	383.88
673.29	387.88
678.775	379.88
684.254	381.88
689.726	373.88
695.193	377.88
700.655	374.88
706.11	371.88
711.56	372.88
717.004	363.88
722.442	372.88
727.874	368.88
733.301	368.88
738.722	362.88
744.137	356.88
749.547	358.88
754.951	356.88
760.349	361.88
765.741	359.88
771.128	358.88
776.509	356.88
781.885	357.88
787.254	361.88
792.618	361.88
797.977	369.88
803.33	360.88
808.677	362.88
814.019	363.88
819.355	359.88
824.686	355.88
830.011	362.88
835.33	364.88
840.644	372.88
845.952	365.88
851.255	375.88
856.552	362.88
861.844	376.88
867.13	374.88
872.41	376.88
877.686	386.88
882.955	379.88
888.219	372.88
893.478	363.88
898.731	358.88
903.979	344.88
909.221	334.88
914.458	335.88
919.69	340.88
924.916	328.88
930.136	331.88
935.351	333.88
940.561	333.88
945.766	320.88
950.965	330.88
956.158	327.88
961.347	312.88
966.529	304.88
971.707	308.88
976.879	299.88
982.046	294.88
987.208	302.88
992.364	296.88
997.515	309.88
1002.66	304.88
1007.801	312.88
1012.936	321.88
1018.066	319.88
1023.19	325.88
1028.309	334.88
1033.423	334.88
1038.532	331.88
1043.636	331.88
1048.734	329.88
1053.827	334.88
1058.915	337.88
1063.998	339.88
1069.075	347.88
1074.147	363.88
1079.214	351.88
1084.276	360.88
1089.333	373.88
1094.385	365.88
1099.431	356.88
1104.472	344.88
1109.509	335.88
1114.54	323.88
1119.565	325.88
1124.586	330.88
1129.602	333.88
1134.613	334.88
1139.618	312.88
1144.619	293.88
1149.614	284.88
1154.604	284.88
1159.589	280.88
1164.57	273.88
1169.545	268.88
1174.515	272.88
1179.48	266.88
1184.44	255.88
1189.395	253.88
1194.345	255.88
1199.29	248.88
1204.23	258.88
1209.165	249.88
1214.095	258.88
1219.021	253.88
1223.941	243.88
1228.856	261.88
1233.766	265.88
1238.672	275.88
1243.572	279.88
1248.467	285.88
1253.358	281.88
1258.244	288.88
1263.124	283.88
1268	292.88
1272.871	271.88
1277.737	275.88
1282.599	270.88
1287.455	269.88
1292.306	275.88
1297.153	293.88
1301.995	312.88
1306.832	313.88
1311.664	301.88
1316.491	290.88
1321.314	286.88
1326.132	269.88
1330.945	262.88
1335.753	254.88
1340.556	248.88
1345.354	242.88
1350.148	241.88
1354.937	234.88
1359.722	232.88
1364.501	235.88
1369.276	233.88
1374.046	238.88
1378.811	237.88
1383.572	231.88
1388.327	224.88
1393.079	220.88
1397.825	207.88
1402.567	215.88
1407.304	209.88
1412.036	217.88
1416.764	214.88
1421.487	224.88
1426.205	224.88
1430.919	233.88
1435.628	254.88
1440.333	285.88
1445.032	306.88
1449.727	315.88
1454.418	308.88
1459.104	303.88
1463.785	285.88
1468.462	273.88
1473.134	250.88
1477.802	222.88
1482.465	207.88
1487.123	195.88
1491.777	178.88
1496.426	172.88
1501.071	171.88
1505.711	168.88
1510.347	165.88
1514.978	170.88
1519.604	165.88
1524.226	165.88
1528.844	162.88
1533.457	164.88
1538.065	161.88
1542.669	155.88
1547.269	158.88
1551.864	168.88
1556.454	162.88
1561.041	159.88
1565.622	161.88
1570.199	162.88
1574.772	155.88
1579.34	163.88
1583.904	168.88
1588.464	163.88
1593.019	167.88
1597.569	165.88
1602.115	166.88
1606.657	170.88
1611.195	177.88
1615.728	173.88
1620.256	180.88
1624.78	182.88
1629.3	177.88
1633.816	176.88
1638.327	176.88
1642.834	189.88
1647.336	191.88
1651.834	200.88
1656.328	200.88
1660.817	208.88
1665.302	202.88
1669.783	197.88
1674.259	183.88
1678.732	183.88
1683.199	169.88
1687.663	161.88
1692.122	152.88
1696.577	146.88
1701.028	143.88
1705.474	131.88
1709.917	131.88
1714.355	126.88
1718.788	124.88
1723.218	122.88
1727.643	118.88
1732.064	118.88
1736.481	118.88
1740.893	114.88
1745.301	111.88
1749.705	106.88
1754.105	103.88
1758.501	100.88
1762.893	93.88
1767.28	95.88
1771.663	98.88
1776.042	85.88
1780.417	87.88
1784.787	81.88
1789.154	88.88
1793.516	88.88
1797.874	86.88
1802.228	91.88
1806.578	86.88
1810.924	89.88
1815.266	81.88
1819.603	78.88
1823.937	80.88
1828.266	74.88
1832.591	68.88
1836.913	76.88
1841.23	76.88
1845.543	76.88
1849.852	68.88
1854.156	71.88
1858.457	73.88
1862.754	71.88
1867.047	66.88
1871.335	73.88
1875.62	70.88
1879.9	69.88
1884.177	73.88
1888.449	70.88
1892.718	67.88
1896.982	67.88
1901.243	70.88
1905.499	70.88
1909.752	70.88
1914	73.88
1918.245	72.88
1922.485	62.88
1926.722	74.88
1930.954	67.88
1935.183	65.88
1939.408	72.88
1943.628	72.88
1947.845	69.88
1952.058	72.88
1956.267	75.88
1960.472	69.88
1964.673	60.88
1968.87	62.88
1973.063	66.88
1977.252	62.88
1981.438	64.88
1985.619	65.88
1989.797	60.88
1993.971	62.88
1998.14	59.88
2002.306	58.88
2006.469	52.88
2010.627	56.88
2014.781	60.88
2018.932	64.88
2023.078	66.88
2027.221	68.88
2031.36	60.88
2035.495	56.88
2039.627	58.88
2043.754	58.88
2047.878	54.88
2051.998	52.88
2056.114	54.88
2060.226	55.88
2064.334	60.88
2068.439	59.88
2072.54	52.88
2076.637	57.88
2080.73	59.88
2084.82	61.88
2088.906	66.88
2092.988	59.88
2097.066	56.88
2101.14	57.88
2105.211	55.88
2109.278	49.88
2113.342	53.88
2117.401	55.88
2121.457	58.88
2125.509	50.88
2129.558	58.88
2133.602	53.88
2137.643	53.88
2141.681	51.88
2145.714	53.88
2149.744	47.88
2153.77	46.88
2157.793	48.88
2161.812	49.88
2165.827	45.88
2169.838	49.88
2173.846	49.88
2177.851	42.88
2181.851	46.88
2185.848	45.88
2189.841	42.88
2193.831	41.88
2197.817	43.88
2201.799	44.88
2205.778	41.88
2209.753	40.88
2213.725	40.88
2217.693	40.88
2221.657	33.88
2225.618	31.88
2229.575	36.88
2233.529	35.88
2237.479	39.88
2241.425	37.88
2245.368	37.88
2249.307	39.88
2253.243	32.88
2257.175	30.88
2261.104	30.88
2265.029	36.88
2268.95	30.88
2272.868	33.88
2276.783	29.88
2280.694	28.88
2284.601	28.88
2288.505	27.88
2292.405	23.88
2296.302	28.88
2300.195	23.88
2304.085	26.88
2307.971	23.88
2311.854	24.88
2315.734	21.88
2319.609	19.88
2323.482	26.88
2327.351	26.88
2331.216	25.88
2335.078	21.88
2338.937	20.88
2342.792	22.88
2346.643	18.88
2350.492	24.88
2354.336	17.88
2358.178	18.88
2362.015	14.88
2365.85	15.88
2369.681	13.88
2373.508	16.88
2377.333	17.88
2381.153	23.88
2384.971	14.88
2388.785	17.88
2392.595	16.88
2396.402	14.88
2400.206	13.88
2404.007	14.88
2407.804	14.88
2411.597	14.88
2415.388	11.88
2419.174	14.88
2422.958	9.88
2426.738	12.88
2430.515	10.88
2434.289	12.88
2438.059	12.88
2441.825	10.88
2445.589	5.88
2449.349	11.88
2453.106	11.88
2456.859	9.88
2460.61	8.88
2464.356	15.88
2468.1	6.88
2471.84	11.88
2475.577	8.88
2479.311	8.88
2483.041	9.88
2486.768	11.88
2490.492	9.88
2494.213	10.88
2497.93	8.88
2501.644	8.88
2505.355	5.88
2509.062	5.88
2512.766	6.88
2516.467	9.88
2520.165	9.88
2523.859	12.88
2527.551	8.88
2531.239	6.88
2534.923	3.88
2538.605	3.88
2542.283	4.88
2545.958	6.88
2549.63	11.88
2553.299	9.88
2556.964	4.88
2560.626	15.88
2564.285	2.88
2567.941	1.88
2571.594	7.88
2575.243	4.88
2578.89	7.88
2582.533	8.88
2586.173	7.88
2589.809	12.88
2593.443	7.88
2597.073	2.88
2600.701	4.88
2604.325	5.88
2607.946	1.88
2611.564	4.88
2615.178	6.88
2618.79	7.88
2622.398	6.88
2626.004	7.88
2629.606	5.88
2633.205	4.88
2636.801	4.88
2640.394	4.88
2643.983	2.88
2647.57	4.88
2651.153	3.88
2654.734	5.88
2658.311	6.88
2661.885	8.88
2665.456	1.88
2669.025	5.88
2672.589	-1.12
2676.151	5.88
2679.71	5.88
2683.266	4.88
2686.819	6.88
2690.368	8.88
2693.915	0.88
2697.458	5.88
2700.999	-0.12
2704.536	3.88
2708.071	3.88
2711.602	8.88
2715.13	5.88
2718.656	7.88
2722.178	7.88
2725.697	2.88
2729.214	3.88
2732.727	6.88
2736.237	5.88
2739.744	10.88
2743.249	9.88
2746.75	3.88
2750.248	7.88
2753.743	6.88
2757.236	5.88
2760.725	5.88
2764.211	9.88
2767.695	4.88
2771.175	8.88
2774.652	6.88
2778.127	6.88
2781.598	7.88
2785.067	4.88
2788.532	5.88
2791.995	7.88
2795.455	11.88
2798.911	6.88
2802.365	6.88
2805.816	10.88
2809.264	13.88
2812.709	18.88
2816.151	13.88
2819.59	16.88
2823.026	19.88
2826.46	19.88
2829.89	22.88
2833.318	23.88
2836.742	30.88
2840.164	43.88
2843.583	46.88
2846.999	62.88
2850.412	71.88
2853.822	81.88
2857.229	86.88
2860.634	92.88
2864.035	92.88
2867.434	93.88
2870.83	93.88
2874.223	98.88
2877.613	103.88
2881	110.88
2884.385	122.88
2887.766	119.88
2891.145	116.88
2894.521	121.88
2897.894	112.88
2901.264	113.88
2904.631	108.88
2907.996	104.88
2911.358	107.88
2914.717	108.88
2918.073	107.88
2921.426	104.88
2924.777	108.88
2928.124	104.88
2931.469	106.88
2934.811	102.88
2938.15	99.88
2941.487	96.88
2944.821	92.88
2948.152	81.88
2951.48	75.88
2954.805	74.88
2958.128	74.88
2961.447	72.88
2964.765	68.88
2968.079	69.88
2971.39	66.88
2974.699	53.88
2978.005	57.88
2981.308	51.88
2984.609	52.88
2987.907	47.88
2991.202	52.88
2994.494	43.88
2997.784	42.88
3001.07	42.88
3004.355	40.88
3007.636	36.88
3010.915	39.88
3014.191	37.88
3017.464	37.88
3020.734	36.88
3024.002	33.88
3027.267	31.88
3030.53	35.88
3033.789	38.88
3037.046	31.88
3040.301	33.88
3043.552	29.88
3046.801	36.88
3050.048	40.88
3053.291	40.88
3056.532	37.88
3059.771	42.88
3063.006	39.88
3066.239	43.88
3069.469	47.88
3072.697	43.88
3075.922	55.88
3079.144	53.88
3082.364	55.88
3085.581	47.88
3088.795	54.88
3092.007	48.88
3095.216	60.88
3098.423	59.88
3101.627	59.88
3104.828	64.88
3108.026	63.88
3111.222	58.88
3114.416	66.88
3117.607	60.88
3120.795	66.88
3123.98	65.88
3127.163	74.88
3130.344	75.88
3133.521	78.88
3136.696	75.88
3139.869	74.88
3143.039	83.88
3146.206	86.88
3149.371	81.88
3152.533	81.88
3155.693	83.88
3158.85	83.88
3162.005	85.88
3165.157	86.88
3168.306	90.88
3171.453	87.88
3174.597	80.88
3177.739	89.88
3180.878	92.88
3184.014	88.88
3187.149	90.88
3190.28	92.88
3193.409	92.88
3196.536	91.88
3199.659	90.88
3202.781	86.88
3205.9	86.88
3209.016	93.88
3212.13	89.88
3215.241	91.88
3218.35	86.88
3221.456	84.88
3224.56	79.88
3227.661	80.88
3230.76	78.88
3233.856	79.88
3236.95	80.88
3240.041	81.88
3243.13	83.88
3246.216	80.88
3249.3	83.88
3252.382	75.88
3255.46	76.88
3258.537	77.88
3261.611	76.88
3264.682	76.88
3267.751	81.88
3270.818	78.88
3273.882	70.88
3276.943	77.88
3280.002	68.88
3283.059	75.88
3286.113	74.88
3289.165	70.88
3292.214	72.88
3295.261	73.88
3298.306	70.88
3301.348	68.88
3304.387	66.88
3307.425	64.88
3310.459	62.88
3313.492	61.88
3316.521	56.88
3319.549	64.88
3322.574	55.88
3325.597	62.88
3328.617	60.88
3331.635	58.88
3334.65	58.88
3337.663	53.88
3340.674	56.88
3343.682	57.88
3346.688	51.88
3349.691	59.88
3352.692	57.88
3355.691	56.88
3358.687	59.88
3361.681	53.88
3364.673	60.88
3367.662	55.88
3370.649	57.88
3373.633	54.88
3376.615	50.88
3379.595	46.88
3382.572	46.88
3385.547	47.88
3388.52	47.88
3391.49	46.88
3394.458	47.88
3397.424	46.88
3400.387	41.88
3403.348	45.88
3406.307	35.88
3409.263	40.88
3412.217	41.88
3415.168	44.88
3418.118	36.88
3421.065	41.88
3424.009	36.88
3426.951	38.88
3429.891	37.88
3432.829	34.88
3435.764	35.88
3438.697	33.88
3441.628	31.88
3444.557	31.88
3447.483	29.88
3450.407	33.88
3453.328	28.88
3456.247	26.88
3459.164	21.88
3462.079	22.88
3464.991	23.88
3467.902	22.88
3470.809	23.88
3473.715	20.88
3476.618	18.88
3479.519	13.88
3482.418	11.88
3485.315	14.88
3488.209	9.88
3491.101	10.88
3493.99	15.88
3496.878	15.88
3499.763	11.88
3502.646	12.88
3505.527	9.88
3508.405	5.88
3511.281	2.88
3514.155	8.88
3517.027	5.88
3519.897	7.88
3522.764	2.88
3525.629	3.88
3528.492	-1.12
3531.352	-0.12
3534.211	-1.12
3537.067	-4.12
3539.921	-2.12
3542.773	-4.12
3545.622	-2.12
3548.469	-5.12
3551.315	-6.12
3554.157	-8.12
3556.998	-7.12
3559.837	-7.12
3562.673	-4.12
3565.507	-10.12
3568.339	-6.12
3571.169	-8.12
3573.996	-9.12
3576.822	-9.12
3579.645	-12.12
3582.466	-7.12
3585.285	-10.12
3588.101	-11.12
3590.916	-17.12
3593.728	-16.12
3596.538	-17.12
3599.346	-15.12
3602.152	-16.12
3604.956	-17.12
3607.757	-16.12
3610.556	-18.12
3613.354	-22.12
3616.149	-20.12
3618.942	-17.12
3621.732	-20.12
3624.521	-17.12
3627.307	-16.12
3630.092	-16.12
3632.874	-18.12
3635.654	-21.12
3638.432	-21.12
3641.208	-19.12
3643.982	-17.12
3646.753	-17.12
3649.523	-16.12
3652.29	-18.12
3655.055	-21.12
3657.818	-25.12
3660.579	-18.12
3663.338	-22.12
3666.095	-20.12
3668.849	-20.12
3671.602	-19.12
3674.352	-20.12
3677.101	-19.12
3679.847	-22.12
3682.591	-21.12
3685.333	-21.12
3688.073	-21.12
3690.811	-28.12
3693.547	-28.12
3696.281	-23.12
3699.013	-24.12
3701.742	-22.12
3704.47	-21.12
3707.195	-23.12
3709.919	-23.12
3712.64	-30.12
3715.359	-27.12
3718.076	-24.12
3720.792	-26.12
3723.505	-20.12
3726.216	-20.12
3728.925	-25.12
3731.632	-24.12
3734.336	-23.12
3737.039	-23.12
3739.74	-26.12
3742.439	-26.12
3745.136	-25.12
3747.83	-22.12
3750.523	-19.12
3753.213	-23.12
3755.902	-25.12
3758.589	-26.12
3761.273	-27.12
3763.956	-24.12
3766.636	-25.12
3769.315	-22.12
3771.991	-25.12
3774.665	-27.12
3777.338	-23.12
3780.008	-21.12
3782.677	-26.12
3785.343	-27.12
3788.007	-25.12
3790.67	-26.12
3793.33	-27.12
3795.989	-25.12
3798.645	-26.12
3801.299	-24.12
3803.952	-27.12
3806.602	-26.12
3809.251	-28.12
3811.897	-27.12
3814.542	-29.12
3817.184	-22.12
3819.825	-26.12
3822.463	-20.12
3825.1	-23.12
3827.735	-22.12
3830.367	-27.12
3832.998	-25.12
3835.627	-26.12
3838.253	-21.12
3840.878	-27.12
3843.501	-21.12
3846.122	-29.12
3848.741	-22.12
3851.358	-28.12
3853.973	-28.12
3856.586	-30.12
3859.197	-27.12
3861.806	-24.12
3864.414	-26.12
3867.019	-23.12
3869.622	-23.12
3872.224	-27.12
3874.823	-26.12
3877.421	-21.12
3880.016	-22.12
3882.61	-18.12
3885.202	-14.12
3887.792	-15.12
3890.38	-19.12
3892.966	-24.12
3895.55	-24.12
3898.132	-27.12
3900.713	-21.12
3903.291	-26.12
3905.868	-25.12
3908.442	-25.12
3911.015	-23.12
3913.586	-31.12
3916.155	-26.12
3918.722	-26.12
3921.287	-20.12
3923.85	-26.12
3926.411	-26.12
3928.971	-25.12
3931.528	-26.12
3934.084	-27.12
3936.638	-24.12
3939.19	-26.12
3941.74	-23.12
3944.288	-25.12
3946.834	-25.12
3949.378	-27.12
3951.921	-24.12
3954.462	-26.12
3957	-25.12
3959.537	-24.12
3962.072	-22.12
3964.606	-27.12
3967.137	-22.12
3969.667	-26.12
3972.194	-27.12
3974.72	-27.12
3977.244	-25.12
3979.766	-25.12
3982.286	-20.12
3984.805	-23.12
3987.321	-26.12
3989.836	-25.12
3992.349	-25.12
3994.86	-25.12
3997.369	-25.12
3999.877	-26.12
4002.382	-25.12
4004.886	-25.12
4007.388	-23.12
4009.888	-26.12
4012.386	-25.12
4014.883	-26.12
4017.377	-28.12
4019.87	-25.12
4022.361	-27.12
4024.85	-29.12
4027.338	-28.12
4029.823	-25.12
4032.307	-25.12
4034.789	-23.12
4037.269	-25.12
4039.747	-26.12
4042.224	-26.12
4044.699	-31.12
4047.172	-29.12
4049.643	-28.12
4052.112	-22.12
4054.58	-22.12
4057.046	-21.12
4059.51	-27.12
4061.972	-27.12
4064.432	-27.12
4066.891	-27.12
4069.348	-27.12
4071.803	-24.12
4074.256	-23.12
4076.708	-24.12
4079.158	-27.12
4081.606	-26.12
4084.052	-26.12
4086.497	-27.12
4088.939	-24.12
4091.38	-25.12
4093.819	-25.12
4096.257	-26.12
4098.693	-28.12
4101.127	-24.12
4103.559	-28.12
4105.989	-12.12
4108.418	-11.12
4110.845	-9.12
4113.27	-14.12
4115.694	-13.12
4118.115	-14.12
4120.535	-23.12
4122.954	-27.12
4125.37	-24.12
4127.785	-23.12
4130.198	-23.12
4132.609	-27.12
4135.019	-27.12
4137.427	-29.12
4139.833	-23.12
4142.237	-24.12
