Data from 1000CFU1_A_RamanShift_1.txt Node
Date: Thu Feb 02 13:48:00 IST 2017
User: aro
Spectrometer: QEPB0276
Trigger mode: 0
Integration Time (sec): 5.000000E0
Scans to average: 1
Electric dark correction enabled: true
Nonlinearity correction enabled: false
Boxcar width: 0
XAxis mode: Raman Shifts
Number of Pixels in Spectrum: 1044
>>>>>Begin Spectral Data<<<<<
160.701	-5.25
166.742	-0.25
172.777	27.75
178.805	85.75
184.826	221.75
190.841	429.75
196.849	672.75
202.85	820.75
208.845	864.75
214.833	853.75
220.815	853.75
226.789	826.75
232.758	817.75
238.719	810.75
244.674	792.75
250.623	783.75
256.565	758.75
262.5	734.75
268.429	728.75
274.351	712.75
280.267	699.75
286.176	688.75
292.079	675.75
297.975	675.75
303.865	670.75
309.748	668.75
315.625	664.75
321.495	660.75
327.359	657.75
333.217	672.75
339.068	657.75
344.912	672.75
350.751	684.75
356.583	686.75
362.408	685.75
368.227	680.75
374.04	667.75
379.847	660.75
385.647	668.75
391.44	664.75
397.228	673.75
403.009	671.75
408.784	683.75
414.553	688.75
420.315	683.75
426.071	690.75
431.821	702.75
437.565	693.75
443.302	697.75
449.033	692.75
454.758	686.75
460.477	670.75
466.189	668.75
471.896	664.75
477.596	666.75
483.29	652.75
488.978	640.75
494.66	636.75
500.335	609.75
506.005	592.75
511.668	575.75
517.325	545.75
522.977	527.75
528.622	514.75
534.261	509.75
539.894	509.75
545.521	484.75
551.141	468.75
556.756	478.75
562.365	469.75
567.968	466.75
573.565	468.75
579.155	452.75
584.74	461.75
590.319	457.75
595.892	455.75
601.459	452.75
607.02	444.75
612.575	447.75
618.124	439.75
623.667	440.75
629.204	428.75
634.735	417.75
640.261	419.75
645.781	422.75
651.294	411.75
656.802	421.75
662.304	411.75
667.8	405.75
673.29	403.75
678.775	409.75
684.254	392.75
689.726	381.75
695.193	384.75
700.655	390.75
706.11	401.75
711.56	398.75
717.004	388.75
722.442	393.75
727.874	379.75
733.301	377.75
738.722	377.75
744.137	371.75
749.547	382.75
754.951	373.75
760.349	383.75
765.741	376.75
771.128	383.75
776.509	378.75
781.885	380.75
787.254	373.75
792.618	379.75
797.977	387.75
803.33	384.75
808.677	379.75
814.019	369.75
819.355	379.75
824.686	365.75
830.011	386.75
835.33	385.75
840.644	389.75
845.952	389.75
851.255	389.75
856.552	385.75
861.844	396.75
867.13	400.75
872.41	397.75
877.686	401.75
882.955	398.75
888.219	393.75
893.478	390.75
898.731	369.75
903.979	363.75
909.221	351.75
914.458	352.75
919.69	352.75
924.916	344.75
930.136	340.75
935.351	345.75
940.561	341.75
945.766	342.75
950.965	338.75
956.158	334.75
961.347	334.75
966.529	322.75
971.707	317.75
976.879	318.75
982.046	308.75
987.208	312.75
992.364	318.75
997.515	311.75
1002.66	320.75
1007.801	325.75
1012.936	334.75
1018.066	348.75
1023.19	333.75
1028.309	340.75
1033.423	343.75
1038.532	346.75
1043.636	347.75
1048.734	344.75
1053.827	341.75
1058.915	363.75
1063.998	362.75
1069.075	364.75
1074.147	365.75
1079.214	371.75
1084.276	382.75
1089.333	379.75
1094.385	375.75
1099.431	383.75
1104.472	366.75
1109.509	346.75
1114.54	351.75
1119.565	351.75
1124.586	343.75
1129.602	355.75
1134.613	344.75
1139.618	328.75
1144.619	310.75
1149.614	295.75
1154.604	294.75
1159.589	296.75
1164.57	292.75
1169.545	289.75
1174.515	282.75
1179.48	283.75
1184.44	266.75
1189.395	264.75
1194.345	259.75
1199.29	260.75
1204.23	258.75
1209.165	263.75
1214.095	265.75
1219.021	273.75
1223.941	267.75
1228.856	281.75
1233.766	279.75
1238.672	285.75
1243.572	291.75
1248.467	295.75
1253.358	298.75
1258.244	304.75
1263.124	300.75
1268	299.75
1272.871	295.75
1277.737	284.75
1282.599	277.75
1287.455	282.75
1292.306	295.75
1297.153	301.75
1301.995	328.75
1306.832	321.75
1311.664	320.75
1316.491	304.75
1321.314	300.75
1326.132	282.75
1330.945	269.75
1335.753	261.75
1340.556	254.75
1345.354	257.75
1350.148	258.75
1354.937	246.75
1359.722	239.75
1364.501	240.75
1369.276	238.75
1374.046	236.75
1378.811	241.75
1383.572	239.75
1388.327	239.75
1393.079	231.75
1397.825	225.75
1402.567	219.75
1407.304	214.75
1412.036	218.75
1416.764	228.75
1421.487	232.75
1426.205	242.75
1430.919	244.75
1435.628	269.75
1440.333	296.75
1445.032	316.75
1449.727	332.75
1454.418	315.75
1459.104	306.75
1463.785	295.75
1468.462	286.75
1473.134	264.75
1477.802	242.75
1482.465	216.75
1487.123	197.75
1491.777	179.75
1496.426	182.75
1501.071	178.75
1505.711	174.75
1510.347	175.75
1514.978	175.75
1519.604	169.75
1524.226	169.75
1528.844	168.75
1533.457	170.75
1538.065	172.75
1542.669	173.75
1547.269	176.75
1551.864	178.75
1556.454	172.75
1561.041	177.75
1565.622	169.75
1570.199	166.75
1574.772	170.75
1579.34	170.75
1583.904	172.75
1588.464	183.75
1593.019	174.75
1597.569	179.75
1602.115	178.75
1606.657	178.75
1611.195	179.75
1615.728	180.75
1620.256	184.75
1624.78	184.75
1629.3	192.75
1633.816	187.75
1638.327	188.75
1642.834	184.75
1647.336	202.75
1651.834	200.75
1656.328	210.75
1660.817	213.75
1665.302	208.75
1669.783	195.75
1674.259	197.75
1678.732	185.75
1683.199	181.75
1687.663	168.75
1692.122	159.75
1696.577	155.75
1701.028	152.75
1705.474	145.75
1709.917	139.75
1714.355	135.75
1718.788	128.75
1723.218	121.75
1727.643	122.75
1732.064	129.75
1736.481	124.75
1740.893	121.75
1745.301	122.75
1749.705	116.75
1754.105	109.75
1758.501	101.75
1762.893	98.75
1767.28	94.75
1771.663	91.75
1776.042	90.75
1780.417	93.75
1784.787	91.75
1789.154	87.75
1793.516	88.75
1797.874	88.75
1802.228	91.75
1806.578	91.75
1810.924	92.75
1815.266	85.75
1819.603	87.75
1823.937	86.75
1828.266	80.75
1832.591	72.75
1836.913	79.75
1841.23	77.75
1845.543	78.75
1849.852	75.75
1854.156	76.75
1858.457	81.75
1862.754	72.75
1867.047	77.75
1871.335	75.75
1875.62	77.75
1879.9	72.75
1884.177	76.75
1888.449	80.75
1892.718	80.75
1896.982	76.75
1901.243	72.75
1905.499	75.75
1909.752	75.75
1914	69.75
1918.245	73.75
1922.485	65.75
1926.722	74.75
1930.954	71.75
1935.183	68.75
1939.408	74.75
1943.628	70.75
1947.845	71.75
1952.058	72.75
1956.267	74.75
1960.472	72.75
1964.673	70.75
1968.87	69.75
1973.063	70.75
1977.252	61.75
1981.438	62.75
1985.619	62.75
1989.797	62.75
1993.971	64.75
1998.14	59.75
2002.306	70.75
2006.469	61.75
2010.627	63.75
2014.781	60.75
2018.932	60.75
2023.078	60.75
2027.221	63.75
2031.36	56.75
2035.495	60.75
2039.627	60.75
2043.754	58.75
2047.878	59.75
2051.998	53.75
2056.114	59.75
2060.226	56.75
2064.334	57.75
2068.439	59.75
2072.54	58.75
2076.637	66.75
2080.73	62.75
2084.82	58.75
2088.906	60.75
2092.988	58.75
2097.066	56.75
2101.14	64.75
2105.211	60.75
2109.278	55.75
2113.342	58.75
2117.401	59.75
2121.457	57.75
2125.509	53.75
2129.558	59.75
2133.602	54.75
2137.643	58.75
2141.681	54.75
2145.714	54.75
2149.744	52.75
2153.77	57.75
2157.793	51.75
2161.812	50.75
2165.827	47.75
2169.838	52.75
2173.846	49.75
2177.851	49.75
2181.851	47.75
2185.848	42.75
2189.841	40.75
2193.831	39.75
2197.817	39.75
2201.799	46.75
2205.778	49.75
2209.753	43.75
2213.725	40.75
2217.693	42.75
2221.657	36.75
2225.618	35.75
2229.575	37.75
2233.529	35.75
2237.479	36.75
2241.425	41.75
2245.368	42.75
2249.307	36.75
2253.243	30.75
2257.175	32.75
2261.104	31.75
2265.029	34.75
2268.95	37.75
2272.868	32.75
2276.783	28.75
2280.694	28.75
2284.601	25.75
2288.505	25.75
2292.405	26.75
2296.302	27.75
2300.195	30.75
2304.085	30.75
2307.971	26.75
2311.854	22.75
2315.734	22.75
2319.609	19.75
2323.482	21.75
2327.351	26.75
2331.216	23.75
2335.078	26.75
2338.937	27.75
2342.792	21.75
2346.643	18.75
2350.492	21.75
2354.336	15.75
2358.178	17.75
2362.015	18.75
2365.85	19.75
2369.681	19.75
2373.508	17.75
2377.333	18.75
2381.153	16.75
2384.971	14.75
2388.785	14.75
2392.595	15.75
2396.402	14.75
2400.206	17.75
2404.007	15.75
2407.804	16.75
2411.597	14.75
2415.388	12.75
2419.174	14.75
2422.958	16.75
2426.738	13.75
2430.515	15.75
2434.289	16.75
2438.059	15.75
2441.825	11.75
2445.589	11.75
2449.349	5.75
2453.106	8.75
2456.859	12.75
2460.61	10.75
2464.356	11.75
2468.1	11.75
2471.84	12.75
2475.577	10.75
2479.311	2.75
2483.041	12.75
2486.768	15.75
2490.492	12.75
2494.213	11.75
2497.93	9.75
2501.644	6.75
2505.355	9.75
2509.062	7.75
2512.766	8.75
2516.467	10.75
2520.165	9.75
2523.859	10.75
2527.551	10.75
2531.239	7.75
2534.923	3.75
2538.605	2.75
2542.283	6.75
2545.958	9.75
2549.63	11.75
2553.299	11.75
2556.964	6.75
2560.626	8.75
2564.285	2.75
2567.941	1.75
2571.594	6.75
2575.243	11.75
2578.89	12.75
2582.533	6.75
2586.173	9.75
2589.809	6.75
2593.443	10.75
2597.073	2.75
2600.701	7.75
2604.325	6.75
2607.946	13.75
2611.564	6.75
2615.178	11.75
2618.79	5.75
2622.398	8.75
2626.004	4.75
2629.606	10.75
2633.205	8.75
2636.801	7.75
2640.394	10.75
2643.983	11.75
2647.57	2.75
2651.153	4.75
2654.734	1.75
2658.311	6.75
2661.885	7.75
2665.456	7.75
2669.025	2.75
2672.589	2.75
2676.151	2.75
2679.71	3.75
2683.266	4.75
2686.819	5.75
2690.368	5.75
2693.915	3.75
2697.458	8.75
2700.999	1.75
2704.536	11.75
2708.071	5.75
2711.602	-0.25
2715.13	3.75
2718.656	9.75
2722.178	9.75
2725.697	5.75
2729.214	8.75
2732.727	12.75
2736.237	9.75
2739.744	10.75
2743.249	7.75
2746.75	8.75
2750.248	6.75
2753.743	5.75
2757.236	3.75
2760.725	8.75
2764.211	12.75
2767.695	7.75
2771.175	8.75
2774.652	5.75
2778.127	5.75
2781.598	5.75
2785.067	5.75
2788.532	2.75
2791.995	8.75
2795.455	5.75
2798.911	8.75
2802.365	8.75
2805.816	14.75
2809.264	15.75
2812.709	15.75
2816.151	14.75
2819.59	18.75
2823.026	16.75
2826.46	20.75
2829.89	24.75
2833.318	25.75
2836.742	29.75
2840.164	43.75
2843.583	48.75
2846.999	62.75
2850.412	70.75
2853.822	82.75
2857.229	87.75
2860.634	93.75
2864.035	92.75
2867.434	93.75
2870.83	102.75
2874.223	105.75
2877.613	106.75
2881	105.75
2884.385	124.75
2887.766	126.75
2891.145	122.75
2894.521	124.75
2897.894	116.75
2901.264	111.75
2904.631	109.75
2907.996	112.75
2911.358	107.75
2914.717	108.75
2918.073	114.75
2921.426	108.75
2924.777	110.75
2928.124	108.75
2931.469	107.75
2934.811	109.75
2938.15	105.75
2941.487	99.75
2944.821	95.75
2948.152	85.75
2951.48	83.75
2954.805	82.75
2958.128	73.75
2961.447	72.75
2964.765	70.75
2968.079	69.75
2971.39	63.75
2974.699	60.75
2978.005	53.75
2981.308	58.75
2984.609	51.75
2987.907	48.75
2991.202	46.75
2994.494	45.75
2997.784	40.75
3001.07	41.75
3004.355	43.75
3007.636	44.75
3010.915	39.75
3014.191	37.75
3017.464	34.75
3020.734	33.75
3024.002	34.75
3027.267	38.75
3030.53	36.75
3033.789	42.75
3037.046	32.75
3040.301	36.75
3043.552	30.75
3046.801	30.75
3050.048	33.75
3053.291	40.75
3056.532	44.75
3059.771	43.75
3063.006	49.75
3066.239	47.75
3069.469	44.75
3072.697	45.75
3075.922	54.75
3079.144	50.75
3082.364	56.75
3085.581	50.75
3088.795	51.75
3092.007	51.75
3095.216	60.75
3098.423	62.75
3101.627	60.75
3104.828	66.75
3108.026	68.75
3111.222	66.75
3114.416	69.75
3117.607	70.75
3120.795	71.75
3123.98	71.75
3127.163	77.75
3130.344	77.75
3133.521	79.75
3136.696	73.75
3139.869	81.75
3143.039	89.75
3146.206	91.75
3149.371	92.75
3152.533	87.75
3155.693	88.75
3158.85	83.75
3162.005	91.75
3165.157	95.75
3168.306	90.75
3171.453	95.75
3174.597	96.75
3177.739	87.75
3180.878	93.75
3184.014	90.75
3187.149	88.75
3190.28	92.75
3193.409	97.75
3196.536	91.75
3199.659	94.75
3202.781	94.75
3205.9	87.75
3209.016	90.75
3212.13	95.75
3215.241	88.75
3218.35	96.75
3221.456	87.75
3224.56	89.75
3227.661	95.75
3230.76	91.75
3233.856	86.75
3236.95	83.75
3240.041	88.75
3243.13	83.75
3246.216	85.75
3249.3	85.75
3252.382	83.75
3255.46	84.75
3258.537	85.75
3261.611	82.75
3264.682	79.75
3267.751	76.75
3270.818	82.75
3273.882	77.75
3276.943	82.75
3280.002	74.75
3283.059	78.75
3286.113	78.75
3289.165	79.75
3292.214	72.75
3295.261	70.75
3298.306	72.75
3301.348	68.75
3304.387	72.75
3307.425	65.75
3310.459	63.75
3313.492	68.75
3316.521	59.75
3319.549	61.75
3322.574	64.75
3325.597	63.75
3328.617	66.75
3331.635	62.75
3334.65	60.75
3337.663	56.75
3340.674	61.75
3343.682	63.75
3346.688	58.75
3349.691	61.75
3352.692	58.75
3355.691	58.75
3358.687	61.75
3361.681	53.75
3364.673	62.75
3367.662	58.75
3370.649	57.75
3373.633	59.75
3376.615	54.75
3379.595	53.75
3382.572	53.75
3385.547	49.75
3388.52	49.75
3391.49	47.75
3394.458	47.75
3397.424	46.75
3400.387	42.75
3403.348	49.75
3406.307	42.75
3409.263	45.75
3412.217	45.75
3415.168	41.75
3418.118	41.75
3421.065	40.75
3424.009	38.75
3426.951	42.75
3429.891	42.75
3432.829	41.75
3435.764	35.75
3438.697	36.75
3441.628	25.75
3444.557	31.75
3447.483	34.75
3450.407	31.75
3453.328	31.75
3456.247	28.75
3459.164	25.75
3462.079	21.75
3464.991	20.75
3467.902	19.75
3470.809	20.75
3473.715	20.75
3476.618	20.75
3479.519	17.75
3482.418	15.75
3485.315	12.75
3488.209	12.75
3491.101	9.75
3493.99	13.75
3496.878	12.75
3499.763	13.75
3502.646	13.75
3505.527	8.75
3508.405	9.75
3511.281	6.75
3514.155	3.75
3517.027	5.75
3519.897	5.75
3522.764	4.75
3525.629	6.75
3528.492	-0.25
3531.352	0.75
3534.211	1.75
3537.067	-1.25
3539.921	-2.25
3542.773	-3.25
3545.622	-3.25
3548.469	-3.25
3551.315	-8.25
3554.157	-7.25
3556.998	-5.25
3559.837	-4.25
3562.673	-5.25
3565.507	-13.25
3568.339	-7.25
3571.169	-9.25
3573.996	-7.25
3576.822	-9.25
3579.645	-11.25
3582.466	-6.25
3585.285	-11.25
3588.101	-10.25
3590.916	-14.25
3593.728	-17.25
3596.538	-14.25
3599.346	-17.25
3602.152	-13.25
3604.956	-16.25
3607.757	-13.25
3610.556	-17.25
3613.354	-19.25
3616.149	-19.25
3618.942	-12.25
3621.732	-19.25
3624.521	-16.25
3627.307	-18.25
3630.092	-20.25
3632.874	-22.25
3635.654	-23.25
3638.432	-21.25
3641.208	-18.25
3643.982	-16.25
3646.753	-18.25
3649.523	-19.25
3652.29	-19.25
3655.055	-23.25
3657.818	-27.25
3660.579	-22.25
3663.338	-23.25
3666.095	-18.25
3668.849	-17.25
3671.602	-20.25
3674.352	-23.25
3677.101	-24.25
3679.847	-24.25
3682.591	-25.25
3685.333	-22.25
3688.073	-19.25
3690.811	-22.25
3693.547	-31.25
3696.281	-22.25
3699.013	-25.25
3701.742	-26.25
3704.47	-23.25
3707.195	-24.25
3709.919	-22.25
3712.64	-29.25
3715.359	-23.25
3718.076	-22.25
3720.792	-31.25
3723.505	-24.25
3726.216	-23.25
3728.925	-24.25
3731.632	-24.25
3734.336	-21.25
3737.039	-22.25
3739.74	-28.25
3742.439	-23.25
3745.136	-26.25
3747.83	-23.25
3750.523	-25.25
3753.213	-27.25
3755.902	-23.25
3758.589	-27.25
3761.273	-27.25
3763.956	-22.25
3766.636	-27.25
3769.315	-25.25
3771.991	-30.25
3774.665	-30.25
3777.338	-21.25
3780.008	-23.25
3782.677	-24.25
3785.343	-27.25
3788.007	-25.25
3790.67	-29.25
3793.33	-28.25
3795.989	-28.25
3798.645	-26.25
3801.299	-22.25
3803.952	-24.25
3806.602	-26.25
3809.251	-26.25
3811.897	-26.25
3814.542	-26.25
3817.184	-26.25
3819.825	-25.25
3822.463	-21.25
3825.1	-26.25
3827.735	-23.25
3830.367	-26.25
3832.998	-29.25
3835.627	-29.25
3838.253	-22.25
3840.878	-26.25
3843.501	-22.25
3846.122	-25.25
3848.741	-24.25
3851.358	-26.25
3853.973	-28.25
3856.586	-28.25
3859.197	-27.25
3861.806	-25.25
3864.414	-24.25
3867.019	-23.25
3869.622	-24.25
3872.224	-28.25
3874.823	-29.25
3877.421	-26.25
3880.016	-24.25
3882.61	-16.25
3885.202	-11.25
3887.792	-15.25
3890.38	-20.25
3892.966	-26.25
3895.55	-24.25
3898.132	-27.25
3900.713	-27.25
3903.291	-25.25
3905.868	-22.25
3908.442	-26.25
3911.015	-26.25
3913.586	-30.25
3916.155	-29.25
3918.722	-27.25
3921.287	-24.25
3923.85	-24.25
3926.411	-27.25
3928.971	-23.25
3931.528	-27.25
3934.084	-27.25
3936.638	-26.25
3939.19	-29.25
3941.74	-24.25
3944.288	-29.25
3946.834	-27.25
3949.378	-29.25
3951.921	-24.25
3954.462	-25.25
3957	-29.25
3959.537	-25.25
3962.072	-25.25
3964.606	-24.25
3967.137	-25.25
3969.667	-27.25
3972.194	-28.25
3974.72	-28.25
3977.244	-26.25
3979.766	-26.25
3982.286	-22.25
3984.805	-23.25
3987.321	-25.25
3989.836	-29.25
3992.349	-27.25
3994.86	-25.25
3997.369	-25.25
3999.877	-27.25
4002.382	-27.25
4004.886	-23.25
4007.388	-25.25
4009.888	-24.25
4012.386	-22.25
4014.883	-28.25
4017.377	-27.25
4019.87	-28.25
4022.361	-24.25
4024.85	-30.25
4027.338	-25.25
4029.823	-25.25
4032.307	-28.25
4034.789	-26.25
4037.269	-26.25
4039.747	-26.25
4042.224	-27.25
4044.699	-30.25
4047.172	-27.25
4049.643	-27.25
4052.112	-23.25
4054.58	-22.25
4057.046	-25.25
4059.51	-33.25
4061.972	-28.25
4064.432	-25.25
4066.891	-22.25
4069.348	-25.25
4071.803	-25.25
4074.256	-26.25
4076.708	-26.25
4079.158	-28.25
4081.606	-28.25
4084.052	-26.25
4086.497	-23.25
4088.939	-22.25
4091.38	-26.25
4093.819	-26.25
4096.257	-26.25
4098.693	-28.25
4101.127	-23.25
4103.559	-28.25
4105.989	-11.25
4108.418	-13.25
4110.845	-10.25
4113.27	-15.25
4115.694	-8.25
4118.115	-11.25
4120.535	-27.25
4122.954	-30.25
4125.37	-28.25
4127.785	-24.25
4130.198	-22.25
4132.609	-24.25
4135.019	-25.25
4137.427	-28.25
4139.833	-27.25
4142.237	-27.25
