Data from 10000000CFU2_D_RamanShift_1.txt Node
Date: Thu Feb 02 12:27:18 IST 2017
User: aro
Spectrometer: QEPB0276
Trigger mode: 0
Integration Time (sec): 5.000000E0
Scans to average: 1
Electric dark correction enabled: true
Nonlinearity correction enabled: false
Boxcar width: 0
XAxis mode: Raman Shifts
Number of Pixels in Spectrum: 1044
>>>>>Begin Spectral Data<<<<<
160.701	-1.75
166.742	0.25
172.777	23.25
178.805	83.25
184.826	219.25
190.841	429.25
196.849	662.25
202.85	816.25
208.845	877.25
214.833	842.25
220.815	837.25
226.789	818.25
232.758	825.25
238.719	806.25
244.674	797.25
250.623	773.25
256.565	766.25
262.5	743.25
268.429	723.25
274.351	714.25
280.267	689.25
286.176	681.25
292.079	694.25
297.975	684.25
303.865	676.25
309.748	669.25
315.625	658.25
321.495	652.25
327.359	666.25
333.217	665.25
339.068	663.25
344.912	679.25
350.751	685.25
356.583	694.25
362.408	698.25
368.227	676.25
374.04	678.25
379.847	668.25
385.647	678.25
391.44	670.25
397.228	685.25
403.009	670.25
408.784	677.25
414.553	693.25
420.315	693.25
426.071	689.25
431.821	703.25
437.565	699.25
443.302	693.25
449.033	685.25
454.758	694.25
460.477	676.25
466.189	681.25
471.896	666.25
477.596	665.25
483.29	650.25
488.978	652.25
494.66	624.25
500.335	622.25
506.005	588.25
511.668	588.25
517.325	558.25
522.977	545.25
528.622	526.25
534.261	511.25
539.894	501.25
545.521	494.25
551.141	485.25
556.756	491.25
562.365	479.25
567.968	484.25
573.565	460.25
579.155	471.25
584.74	456.25
590.319	463.25
595.892	457.25
601.459	467.25
607.02	464.25
612.575	454.25
618.124	446.25
623.667	442.25
629.204	434.25
634.735	427.25
640.261	423.25
645.781	429.25
651.294	421.25
656.802	433.25
662.304	410.25
667.8	401.25
673.29	403.25
678.775	403.25
684.254	401.25
689.726	408.25
695.193	393.25
700.655	399.25
706.11	396.25
711.56	393.25
717.004	393.25
722.442	394.25
727.874	394.25
733.301	392.25
738.722	386.25
744.137	386.25
749.547	387.25
754.951	376.25
760.349	382.25
765.741	385.25
771.128	385.25
776.509	386.25
781.885	380.25
787.254	389.25
792.618	391.25
797.977	390.25
803.33	380.25
808.677	383.25
814.019	382.25
819.355	385.25
824.686	385.25
830.011	387.25
835.33	381.25
840.644	391.25
845.952	401.25
851.255	400.25
856.552	405.25
861.844	408.25
867.13	408.25
872.41	403.25
877.686	401.25
882.955	402.25
888.219	400.25
893.478	393.25
898.731	378.25
903.979	377.25
909.221	362.25
914.458	357.25
919.69	356.25
924.916	354.25
930.136	350.25
935.351	355.25
940.561	352.25
945.766	353.25
950.965	350.25
956.158	344.25
961.347	334.25
966.529	329.25
971.707	324.25
976.879	323.25
982.046	319.25
987.208	324.25
992.364	314.25
997.515	311.25
1002.66	336.25
1007.801	341.25
1012.936	339.25
1018.066	346.25
1023.19	348.25
1028.309	352.25
1033.423	350.25
1038.532	350.25
1043.636	347.25
1048.734	346.25
1053.827	353.25
1058.915	354.25
1063.998	364.25
1069.075	375.25
1074.147	381.25
1079.214	379.25
1084.276	377.25
1089.333	398.25
1094.385	384.25
1099.431	385.25
1104.472	364.25
1109.509	354.25
1114.54	354.25
1119.565	353.25
1124.586	355.25
1129.602	355.25
1134.613	348.25
1139.618	334.25
1144.619	319.25
1149.614	301.25
1154.604	301.25
1159.589	291.25
1164.57	300.25
1169.545	299.25
1174.515	285.25
1179.48	282.25
1184.44	273.25
1189.395	269.25
1194.345	264.25
1199.29	269.25
1204.23	271.25
1209.165	274.25
1214.095	276.25
1219.021	282.25
1223.941	271.25
1228.856	285.25
1233.766	282.25
1238.672	287.25
1243.572	298.25
1248.467	297.25
1253.358	303.25
1258.244	305.25
1263.124	303.25
1268	304.25
1272.871	292.25
1277.737	296.25
1282.599	287.25
1287.455	285.25
1292.306	298.25
1297.153	309.25
1301.995	331.25
1306.832	336.25
1311.664	330.25
1316.491	314.25
1321.314	296.25
1326.132	289.25
1330.945	282.25
1335.753	266.25
1340.556	263.25
1345.354	262.25
1350.148	261.25
1354.937	253.25
1359.722	251.25
1364.501	245.25
1369.276	243.25
1374.046	247.25
1378.811	242.25
1383.572	248.25
1388.327	244.25
1393.079	237.25
1397.825	233.25
1402.567	229.25
1407.304	219.25
1412.036	228.25
1416.764	226.25
1421.487	240.25
1426.205	243.25
1430.919	252.25
1435.628	271.25
1440.333	297.25
1445.032	321.25
1449.727	329.25
1454.418	321.25
1459.104	323.25
1463.785	299.25
1468.462	296.25
1473.134	270.25
1477.802	243.25
1482.465	222.25
1487.123	204.25
1491.777	189.25
1496.426	183.25
1501.071	185.25
1505.711	179.25
1510.347	179.25
1514.978	187.25
1519.604	187.25
1524.226	176.25
1528.844	171.25
1533.457	178.25
1538.065	178.25
1542.669	178.25
1547.269	174.25
1551.864	174.25
1556.454	170.25
1561.041	179.25
1565.622	175.25
1570.199	169.25
1574.772	173.25
1579.34	174.25
1583.904	177.25
1588.464	181.25
1593.019	177.25
1597.569	179.25
1602.115	177.25
1606.657	186.25
1611.195	186.25
1615.728	193.25
1620.256	184.25
1624.78	192.25
1629.3	194.25
1633.816	191.25
1638.327	186.25
1642.834	201.25
1647.336	200.25
1651.834	210.25
1656.328	212.25
1660.817	216.25
1665.302	213.25
1669.783	205.25
1674.259	199.25
1678.732	195.25
1683.199	188.25
1687.663	174.25
1692.122	152.25
1696.577	153.25
1701.028	148.25
1705.474	150.25
1709.917	143.25
1714.355	145.25
1718.788	130.25
1723.218	127.25
1727.643	130.25
1732.064	122.25
1736.481	128.25
1740.893	119.25
1745.301	127.25
1749.705	122.25
1754.105	112.25
1758.501	109.25
1762.893	106.25
1767.28	92.25
1771.663	98.25
1776.042	95.25
1780.417	94.25
1784.787	94.25
1789.154	96.25
1793.516	93.25
1797.874	96.25
1802.228	95.25
1806.578	96.25
1810.924	94.25
1815.266	91.25
1819.603	89.25
1823.937	88.25
1828.266	89.25
1832.591	83.25
1836.913	80.25
1841.23	79.25
1845.543	79.25
1849.852	79.25
1854.156	87.25
1858.457	83.25
1862.754	79.25
1867.047	77.25
1871.335	81.25
1875.62	76.25
1879.9	83.25
1884.177	74.25
1888.449	79.25
1892.718	77.25
1896.982	80.25
1901.243	78.25
1905.499	77.25
1909.752	76.25
1914	77.25
1918.245	72.25
1922.485	79.25
1926.722	80.25
1930.954	77.25
1935.183	78.25
1939.408	78.25
1943.628	72.25
1947.845	74.25
1952.058	76.25
1956.267	76.25
1960.472	77.25
1964.673	76.25
1968.87	76.25
1973.063	68.25
1977.252	62.25
1981.438	70.25
1985.619	69.25
1989.797	66.25
1993.971	70.25
1998.14	65.25
2002.306	64.25
2006.469	63.25
2010.627	64.25
2014.781	69.25
2018.932	65.25
2023.078	67.25
2027.221	66.25
2031.36	67.25
2035.495	58.25
2039.627	66.25
2043.754	59.25
2047.878	59.25
2051.998	59.25
2056.114	66.25
2060.226	60.25
2064.334	61.25
2068.439	64.25
2072.54	60.25
2076.637	58.25
2080.73	66.25
2084.82	69.25
2088.906	73.25
2092.988	67.25
2097.066	64.25
2101.14	60.25
2105.211	60.25
2109.278	56.25
2113.342	62.25
2117.401	60.25
2121.457	62.25
2125.509	61.25
2129.558	57.25
2133.602	54.25
2137.643	58.25
2141.681	53.25
2145.714	53.25
2149.744	58.25
2153.77	59.25
2157.793	54.25
2161.812	59.25
2165.827	51.25
2169.838	48.25
2173.846	44.25
2177.851	49.25
2181.851	46.25
2185.848	51.25
2189.841	47.25
2193.831	48.25
2197.817	42.25
2201.799	42.25
2205.778	39.25
2209.753	43.25
2213.725	44.25
2217.693	49.25
2221.657	42.25
2225.618	39.25
2229.575	34.25
2233.529	38.25
2237.479	36.25
2241.425	40.25
2245.368	42.25
2249.307	42.25
2253.243	38.25
2257.175	40.25
2261.104	36.25
2265.029	35.25
2268.95	34.25
2272.868	33.25
2276.783	32.25
2280.694	32.25
2284.601	30.25
2288.505	32.25
2292.405	27.25
2296.302	31.25
2300.195	24.25
2304.085	27.25
2307.971	28.25
2311.854	25.25
2315.734	27.25
2319.609	25.25
2323.482	29.25
2327.351	29.25
2331.216	26.25
2335.078	27.25
2338.937	27.25
2342.792	20.25
2346.643	23.25
2350.492	20.25
2354.336	21.25
2358.178	20.25
2362.015	17.25
2365.85	18.25
2369.681	19.25
2373.508	22.25
2377.333	19.25
2381.153	22.25
2384.971	21.25
2388.785	17.25
2392.595	17.25
2396.402	14.25
2400.206	15.25
2404.007	19.25
2407.804	22.25
2411.597	20.25
2415.388	16.25
2419.174	19.25
2422.958	12.25
2426.738	14.25
2430.515	13.25
2434.289	14.25
2438.059	20.25
2441.825	17.25
2445.589	14.25
2449.349	10.25
2453.106	8.25
2456.859	13.25
2460.61	11.25
2464.356	17.25
2468.1	12.25
2471.84	18.25
2475.577	14.25
2479.311	7.25
2483.041	10.25
2486.768	11.25
2490.492	9.25
2494.213	14.25
2497.93	13.25
2501.644	9.25
2505.355	11.25
2509.062	10.25
2512.766	8.25
2516.467	12.25
2520.165	8.25
2523.859	12.25
2527.551	11.25
2531.239	11.25
2534.923	7.25
2538.605	6.25
2542.283	5.25
2545.958	10.25
2549.63	11.25
2553.299	10.25
2556.964	11.25
2560.626	14.25
2564.285	6.25
2567.941	5.25
2571.594	6.25
2575.243	7.25
2578.89	14.25
2582.533	10.25
2586.173	11.25
2589.809	10.25
2593.443	8.25
2597.073	7.25
2600.701	5.25
2604.325	8.25
2607.946	12.25
2611.564	11.25
2615.178	10.25
2618.79	14.25
2622.398	12.25
2626.004	10.25
2629.606	8.25
2633.205	7.25
2636.801	9.25
2640.394	12.25
2643.983	6.25
2647.57	7.25
2651.153	4.25
2654.734	6.25
2658.311	7.25
2661.885	7.25
2665.456	8.25
2669.025	9.25
2672.589	1.25
2676.151	4.25
2679.71	5.25
2683.266	7.25
2686.819	5.25
2690.368	9.25
2693.915	7.25
2697.458	9.25
2700.999	3.25
2704.536	7.25
2708.071	4.25
2711.602	5.25
2715.13	4.25
2718.656	5.25
2722.178	6.25
2725.697	5.25
2729.214	8.25
2732.727	10.25
2736.237	8.25
2739.744	15.25
2743.249	13.25
2746.75	12.25
2750.248	11.25
2753.743	11.25
2757.236	7.25
2760.725	9.25
2764.211	11.25
2767.695	8.25
2771.175	11.25
2774.652	9.25
2778.127	9.25
2781.598	6.25
2785.067	6.25
2788.532	6.25
2791.995	9.25
2795.455	7.25
2798.911	8.25
2802.365	10.25
2805.816	10.25
2809.264	15.25
2812.709	14.25
2816.151	15.25
2819.59	19.25
2823.026	18.25
2826.46	27.25
2829.89	28.25
2833.318	26.25
2836.742	29.25
2840.164	41.25
2843.583	54.25
2846.999	65.25
2850.412	83.25
2853.822	90.25
2857.229	96.25
2860.634	95.25
2864.035	97.25
2867.434	98.25
2870.83	103.25
2874.223	103.25
2877.613	113.25
2881	115.25
2884.385	128.25
2887.766	130.25
2891.145	128.25
2894.521	118.25
2897.894	116.25
2901.264	115.25
2904.631	118.25
2907.996	121.25
2911.358	114.25
2914.717	115.25
2918.073	114.25
2921.426	104.25
2924.777	108.25
2928.124	107.25
2931.469	107.25
2934.811	110.25
2938.15	105.25
2941.487	107.25
2944.821	92.25
2948.152	87.25
2951.48	79.25
2954.805	82.25
2958.128	78.25
2961.447	81.25
2964.765	65.25
2968.079	64.25
2971.39	61.25
2974.699	56.25
2978.005	57.25
2981.308	58.25
2984.609	53.25
2987.907	51.25
2991.202	51.25
2994.494	50.25
2997.784	41.25
3001.07	39.25
3004.355	43.25
3007.636	40.25
3010.915	48.25
3014.191	43.25
3017.464	36.25
3020.734	33.25
3024.002	34.25
3027.267	38.25
3030.53	35.25
3033.789	38.25
3037.046	31.25
3040.301	37.25
3043.552	33.25
3046.801	35.25
3050.048	40.25
3053.291	42.25
3056.532	42.25
3059.771	47.25
3063.006	46.25
3066.239	44.25
3069.469	47.25
3072.697	51.25
3075.922	55.25
3079.144	53.25
3082.364	54.25
3085.581	50.25
3088.795	60.25
3092.007	51.25
3095.216	56.25
3098.423	58.25
3101.627	60.25
3104.828	61.25
3108.026	67.25
3111.222	66.25
3114.416	71.25
3117.607	74.25
3120.795	67.25
3123.98	70.25
3127.163	77.25
3130.344	77.25
3133.521	78.25
3136.696	84.25
3139.869	82.25
3143.039	84.25
3146.206	89.25
3149.371	91.25
3152.533	87.25
3155.693	87.25
3158.85	89.25
3162.005	86.25
3165.157	94.25
3168.306	91.25
3171.453	92.25
3174.597	90.25
3177.739	91.25
3180.878	93.25
3184.014	94.25
3187.149	91.25
3190.28	94.25
3193.409	93.25
3196.536	94.25
3199.659	90.25
3202.781	89.25
3205.9	94.25
3209.016	94.25
3212.13	96.25
3215.241	86.25
3218.35	96.25
3221.456	89.25
3224.56	86.25
3227.661	90.25
3230.76	86.25
3233.856	91.25
3236.95	88.25
3240.041	81.25
3243.13	81.25
3246.216	84.25
3249.3	80.25
3252.382	81.25
3255.46	82.25
3258.537	81.25
3261.611	76.25
3264.682	77.25
3267.751	80.25
3270.818	78.25
3273.882	72.25
3276.943	78.25
3280.002	76.25
3283.059	72.25
3286.113	78.25
3289.165	76.25
3292.214	70.25
3295.261	67.25
3298.306	71.25
3301.348	75.25
3304.387	67.25
3307.425	69.25
3310.459	61.25
3313.492	54.25
3316.521	68.25
3319.549	63.25
3322.574	65.25
3325.597	64.25
3328.617	58.25
3331.635	60.25
3334.65	62.25
3337.663	55.25
3340.674	62.25
3343.682	62.25
3346.688	59.25
3349.691	57.25
3352.692	58.25
3355.691	56.25
3358.687	52.25
3361.681	56.25
3364.673	56.25
3367.662	55.25
3370.649	57.25
3373.633	56.25
3376.615	53.25
3379.595	47.25
3382.572	46.25
3385.547	48.25
3388.52	45.25
3391.49	46.25
3394.458	53.25
3397.424	48.25
3400.387	43.25
3403.348	47.25
3406.307	40.25
3409.263	42.25
3412.217	45.25
3415.168	42.25
3418.118	43.25
3421.065	41.25
3424.009	37.25
3426.951	40.25
3429.891	38.25
3432.829	37.25
3435.764	38.25
3438.697	34.25
3441.628	33.25
3444.557	33.25
3447.483	29.25
3450.407	33.25
3453.328	29.25
3456.247	30.25
3459.164	24.25
3462.079	24.25
3464.991	23.25
3467.902	21.25
3470.809	23.25
3473.715	18.25
3476.618	17.25
3479.519	15.25
3482.418	11.25
3485.315	14.25
3488.209	14.25
3491.101	13.25
3493.99	14.25
3496.878	18.25
3499.763	14.25
3502.646	13.25
3505.527	7.25
3508.405	5.25
3511.281	6.25
3514.155	9.25
3517.027	8.25
3519.897	13.25
3522.764	5.25
3525.629	3.25
3528.492	1.25
3531.352	-3.75
3534.211	-1.75
3537.067	0.25
3539.921	1.25
3542.773	-3.75
3545.622	-4.75
3548.469	-7.75
3551.315	-7.75
3554.157	-6.75
3556.998	-7.75
3559.837	-3.75
3562.673	-3.75
3565.507	-10.75
3568.339	-6.75
3571.169	-12.75
3573.996	-11.75
3576.822	-9.75
3579.645	-11.75
3582.466	-7.75
3585.285	-8.75
3588.101	-7.75
3590.916	-16.75
3593.728	-13.75
3596.538	-17.75
3599.346	-14.75
3602.152	-12.75
3604.956	-10.75
3607.757	-15.75
3610.556	-14.75
3613.354	-22.75
3616.149	-21.75
3618.942	-14.75
3621.732	-20.75
3624.521	-17.75
3627.307	-15.75
3630.092	-16.75
3632.874	-18.75
3635.654	-23.75
3638.432	-20.75
3641.208	-18.75
3643.982	-17.75
3646.753	-14.75
3649.523	-19.75
3652.29	-19.75
3655.055	-21.75
3657.818	-26.75
3660.579	-21.75
3663.338	-21.75
3666.095	-17.75
3668.849	-17.75
3671.602	-17.75
3674.352	-24.75
3677.101	-20.75
3679.847	-22.75
3682.591	-25.75
3685.333	-23.75
3688.073	-21.75
3690.811	-24.75
3693.547	-29.75
3696.281	-21.75
3699.013	-21.75
3701.742	-25.75
3704.47	-23.75
3707.195	-24.75
3709.919	-24.75
3712.64	-24.75
3715.359	-21.75
3718.076	-20.75
3720.792	-27.75
3723.505	-22.75
3726.216	-21.75
3728.925	-26.75
3731.632	-25.75
3734.336	-23.75
3737.039	-21.75
3739.74	-26.75
3742.439	-22.75
3745.136	-26.75
3747.83	-22.75
3750.523	-27.75
3753.213	-24.75
3755.902	-24.75
3758.589	-24.75
3761.273	-24.75
3763.956	-21.75
3766.636	-23.75
3769.315	-24.75
3771.991	-25.75
3774.665	-29.75
3777.338	-21.75
3780.008	-22.75
3782.677	-23.75
3785.343	-24.75
3788.007	-23.75
3790.67	-25.75
3793.33	-30.75
3795.989	-26.75
3798.645	-25.75
3801.299	-20.75
3803.952	-24.75
3806.602	-24.75
3809.251	-25.75
3811.897	-24.75
3814.542	-27.75
3817.184	-24.75
3819.825	-25.75
3822.463	-22.75
3825.1	-24.75
3827.735	-22.75
3830.367	-25.75
3832.998	-25.75
3835.627	-25.75
3838.253	-24.75
3840.878	-24.75
3843.501	-21.75
3846.122	-27.75
3848.741	-20.75
3851.358	-27.75
3853.973	-26.75
3856.586	-26.75
3859.197	-25.75
3861.806	-23.75
3864.414	-22.75
3867.019	-22.75
3869.622	-25.75
3872.224	-30.75
3874.823	-28.75
3877.421	-23.75
3880.016	-24.75
3882.61	-19.75
3885.202	-12.75
3887.792	-14.75
3890.38	-18.75
3892.966	-26.75
3895.55	-24.75
3898.132	-26.75
3900.713	-20.75
3903.291	-23.75
3905.868	-21.75
3908.442	-25.75
3911.015	-24.75
3913.586	-26.75
3916.155	-27.75
3918.722	-26.75
3921.287	-20.75
3923.85	-24.75
3926.411	-25.75
3928.971	-23.75
3931.528	-26.75
3934.084	-28.75
3936.638	-27.75
3939.19	-27.75
3941.74	-23.75
3944.288	-22.75
3946.834	-24.75
3949.378	-27.75
3951.921	-25.75
3954.462	-23.75
3957	-26.75
3959.537	-24.75
3962.072	-21.75
3964.606	-24.75
3967.137	-20.75
3969.667	-28.75
3972.194	-29.75
3974.72	-24.75
3977.244	-21.75
3979.766	-24.75
3982.286	-20.75
3984.805	-23.75
3987.321	-24.75
3989.836	-27.75
3992.349	-25.75
3994.86	-25.75
3997.369	-23.75
3999.877	-23.75
4002.382	-21.75
4004.886	-22.75
4007.388	-27.75
4009.888	-27.75
4012.386	-25.75
4014.883	-27.75
4017.377	-24.75
4019.87	-23.75
4022.361	-22.75
4024.85	-28.75
4027.338	-26.75
4029.823	-26.75
4032.307	-26.75
4034.789	-24.75
4037.269	-22.75
4039.747	-23.75
4042.224	-25.75
4044.699	-28.75
4047.172	-27.75
4049.643	-27.75
4052.112	-23.75
4054.58	-23.75
4057.046	-21.75
4059.51	-27.75
4061.972	-26.75
4064.432	-27.75
4066.891	-24.75
4069.348	-27.75
4071.803	-27.75
4074.256	-24.75
4076.708	-21.75
4079.158	-24.75
4081.606	-23.75
4084.052	-24.75
4086.497	-23.75
4088.939	-27.75
4091.38	-25.75
4093.819	-26.75
4096.257	-24.75
4098.693	-28.75
4101.127	-25.75
4103.559	-28.75
4105.989	-11.75
4108.418	-13.75
4110.845	-7.75
4113.27	-10.75
4115.694	-7.75
4118.115	-9.75
4120.535	-26.75
4122.954	-26.75
4125.37	-25.75
4127.785	-22.75
4130.198	-24.75
4132.609	-27.75
4135.019	-25.75
4137.427	-29.75
4139.833	-21.75
4142.237	-27.75
