Data from 10000CFU3_D_RamanShift_1.txt Node
Date: Thu Feb 02 12:14:38 IST 2017
User: aro
Spectrometer: QEPB0276
Trigger mode: 0
Integration Time (sec): 5.000000E0
Scans to average: 1
Electric dark correction enabled: true
Nonlinearity correction enabled: false
Boxcar width: 0
XAxis mode: Raman Shifts
Number of Pixels in Spectrum: 1044
>>>>>Begin Spectral Data<<<<<
160.701	-7.5
166.742	2.5
172.777	22.5
178.805	85.5
184.826	204.5
190.841	415.5
196.849	639.5
202.85	784.5
208.845	836.5
214.833	819.5
220.815	794.5
226.789	797.5
232.758	775.5
238.719	765.5
244.674	755.5
250.623	737.5
256.565	731.5
262.5	708.5
268.429	701.5
274.351	670.5
280.267	671.5
286.176	657.5
292.079	661.5
297.975	633.5
303.865	643.5
309.748	647.5
315.625	631.5
321.495	633.5
327.359	634.5
333.217	624.5
339.068	638.5
344.912	654.5
350.751	649.5
356.583	663.5
362.408	657.5
368.227	651.5
374.04	641.5
379.847	629.5
385.647	625.5
391.44	631.5
397.228	647.5
403.009	647.5
408.784	646.5
414.553	649.5
420.315	661.5
426.071	657.5
431.821	667.5
437.565	665.5
443.302	675.5
449.033	661.5
454.758	655.5
460.477	649.5
466.189	640.5
471.896	641.5
477.596	628.5
483.29	621.5
488.978	607.5
494.66	599.5
500.335	588.5
506.005	559.5
511.668	551.5
517.325	528.5
522.977	514.5
528.622	499.5
534.261	480.5
539.894	468.5
545.521	464.5
551.141	462.5
556.756	463.5
562.365	457.5
567.968	443.5
573.565	441.5
579.155	450.5
584.74	435.5
590.319	443.5
595.892	437.5
601.459	440.5
607.02	435.5
612.575	420.5
618.124	418.5
623.667	418.5
629.204	420.5
634.735	409.5
640.261	404.5
645.781	413.5
651.294	403.5
656.802	395.5
662.304	391.5
667.8	385.5
673.29	377.5
678.775	385.5
684.254	382.5
689.726	376.5
695.193	379.5
700.655	375.5
706.11	374.5
711.56	375.5
717.004	364.5
722.442	371.5
727.874	372.5
733.301	369.5
738.722	356.5
744.137	365.5
749.547	364.5
754.951	355.5
760.349	358.5
765.741	362.5
771.128	362.5
776.509	365.5
781.885	370.5
787.254	368.5
792.618	375.5
797.977	365.5
803.33	368.5
808.677	363.5
814.019	363.5
819.355	360.5
824.686	352.5
830.011	362.5
835.33	360.5
840.644	372.5
845.952	364.5
851.255	377.5
856.552	379.5
861.844	371.5
867.13	380.5
872.41	377.5
877.686	374.5
882.955	375.5
888.219	370.5
893.478	373.5
898.731	353.5
903.979	354.5
909.221	337.5
914.458	336.5
919.69	335.5
924.916	332.5
930.136	333.5
935.351	338.5
940.561	328.5
945.766	323.5
950.965	319.5
956.158	317.5
961.347	317.5
966.529	314.5
971.707	302.5
976.879	303.5
982.046	300.5
987.208	296.5
992.364	295.5
997.515	299.5
1002.66	308.5
1007.801	319.5
1012.936	318.5
1018.066	327.5
1023.19	316.5
1028.309	331.5
1033.423	337.5
1038.532	323.5
1043.636	326.5
1048.734	332.5
1053.827	333.5
1058.915	336.5
1063.998	353.5
1069.075	344.5
1074.147	360.5
1079.214	355.5
1084.276	354.5
1089.333	361.5
1094.385	362.5
1099.431	350.5
1104.472	343.5
1109.509	335.5
1114.54	326.5
1119.565	333.5
1124.586	333.5
1129.602	334.5
1134.613	325.5
1139.618	311.5
1144.619	296.5
1149.614	280.5
1154.604	280.5
1159.589	271.5
1164.57	276.5
1169.545	274.5
1174.515	274.5
1179.48	265.5
1184.44	256.5
1189.395	260.5
1194.345	246.5
1199.29	249.5
1204.23	244.5
1209.165	254.5
1214.095	261.5
1219.021	259.5
1223.941	254.5
1228.856	268.5
1233.766	268.5
1238.672	269.5
1243.572	273.5
1248.467	282.5
1253.358	283.5
1258.244	286.5
1263.124	282.5
1268	292.5
1272.871	277.5
1277.737	274.5
1282.599	267.5
1287.455	264.5
1292.306	277.5
1297.153	294.5
1301.995	299.5
1306.832	310.5
1311.664	304.5
1316.491	290.5
1321.314	281.5
1326.132	267.5
1330.945	265.5
1335.753	252.5
1340.556	249.5
1345.354	246.5
1350.148	244.5
1354.937	238.5
1359.722	234.5
1364.501	226.5
1369.276	238.5
1374.046	240.5
1378.811	234.5
1383.572	234.5
1388.327	228.5
1393.079	223.5
1397.825	212.5
1402.567	212.5
1407.304	206.5
1412.036	218.5
1416.764	218.5
1421.487	228.5
1426.205	230.5
1430.919	231.5
1435.628	254.5
1440.333	272.5
1445.032	299.5
1449.727	316.5
1454.418	308.5
1459.104	295.5
1463.785	284.5
1468.462	266.5
1473.134	245.5
1477.802	224.5
1482.465	210.5
1487.123	189.5
1491.777	181.5
1496.426	173.5
1501.071	166.5
1505.711	162.5
1510.347	165.5
1514.978	175.5
1519.604	172.5
1524.226	174.5
1528.844	172.5
1533.457	168.5
1538.065	161.5
1542.669	167.5
1547.269	169.5
1551.864	168.5
1556.454	165.5
1561.041	173.5
1565.622	164.5
1570.199	166.5
1574.772	158.5
1579.34	160.5
1583.904	162.5
1588.464	161.5
1593.019	172.5
1597.569	176.5
1602.115	166.5
1606.657	174.5
1611.195	170.5
1615.728	171.5
1620.256	175.5
1624.78	179.5
1629.3	184.5
1633.816	182.5
1638.327	186.5
1642.834	193.5
1647.336	197.5
1651.834	193.5
1656.328	201.5
1660.817	199.5
1665.302	202.5
1669.783	196.5
1674.259	187.5
1678.732	183.5
1683.199	173.5
1687.663	167.5
1692.122	149.5
1696.577	152.5
1701.028	147.5
1705.474	144.5
1709.917	139.5
1714.355	140.5
1718.788	129.5
1723.218	128.5
1727.643	129.5
1732.064	118.5
1736.481	120.5
1740.893	111.5
1745.301	114.5
1749.705	114.5
1754.105	109.5
1758.501	104.5
1762.893	96.5
1767.28	95.5
1771.663	98.5
1776.042	101.5
1780.417	90.5
1784.787	89.5
1789.154	86.5
1793.516	89.5
1797.874	89.5
1802.228	97.5
1806.578	98.5
1810.924	91.5
1815.266	87.5
1819.603	82.5
1823.937	83.5
1828.266	80.5
1832.591	79.5
1836.913	80.5
1841.23	80.5
1845.543	76.5
1849.852	74.5
1854.156	77.5
1858.457	73.5
1862.754	76.5
1867.047	77.5
1871.335	75.5
1875.62	72.5
1879.9	73.5
1884.177	71.5
1888.449	73.5
1892.718	70.5
1896.982	74.5
1901.243	75.5
1905.499	77.5
1909.752	71.5
1914	77.5
1918.245	65.5
1922.485	64.5
1926.722	73.5
1930.954	72.5
1935.183	73.5
1939.408	73.5
1943.628	77.5
1947.845	72.5
1952.058	77.5
1956.267	71.5
1960.472	74.5
1964.673	74.5
1968.87	68.5
1973.063	65.5
1977.252	65.5
1981.438	63.5
1985.619	58.5
1989.797	59.5
1993.971	61.5
1998.14	67.5
2002.306	62.5
2006.469	57.5
2010.627	55.5
2014.781	57.5
2018.932	62.5
2023.078	62.5
2027.221	63.5
2031.36	60.5
2035.495	58.5
2039.627	57.5
2043.754	55.5
2047.878	57.5
2051.998	55.5
2056.114	61.5
2060.226	55.5
2064.334	59.5
2068.439	57.5
2072.54	53.5
2076.637	59.5
2080.73	61.5
2084.82	63.5
2088.906	69.5
2092.988	59.5
2097.066	56.5
2101.14	57.5
2105.211	60.5
2109.278	56.5
2113.342	59.5
2117.401	57.5
2121.457	60.5
2125.509	55.5
2129.558	60.5
2133.602	50.5
2137.643	57.5
2141.681	49.5
2145.714	52.5
2149.744	52.5
2153.77	53.5
2157.793	52.5
2161.812	48.5
2165.827	46.5
2169.838	45.5
2173.846	47.5
2177.851	46.5
2181.851	47.5
2185.848	47.5
2189.841	43.5
2193.831	40.5
2197.817	41.5
2201.799	42.5
2205.778	39.5
2209.753	41.5
2213.725	41.5
2217.693	46.5
2221.657	42.5
2225.618	36.5
2229.575	36.5
2233.529	35.5
2237.479	38.5
2241.425	41.5
2245.368	40.5
2249.307	39.5
2253.243	33.5
2257.175	31.5
2261.104	32.5
2265.029	34.5
2268.95	30.5
2272.868	31.5
2276.783	32.5
2280.694	31.5
2284.601	28.5
2288.505	29.5
2292.405	21.5
2296.302	28.5
2300.195	25.5
2304.085	29.5
2307.971	24.5
2311.854	23.5
2315.734	27.5
2319.609	21.5
2323.482	20.5
2327.351	27.5
2331.216	26.5
2335.078	24.5
2338.937	26.5
2342.792	21.5
2346.643	20.5
2350.492	20.5
2354.336	18.5
2358.178	18.5
2362.015	17.5
2365.85	18.5
2369.681	20.5
2373.508	18.5
2377.333	16.5
2381.153	19.5
2384.971	13.5
2388.785	13.5
2392.595	18.5
2396.402	12.5
2400.206	17.5
2404.007	19.5
2407.804	16.5
2411.597	18.5
2415.388	10.5
2419.174	12.5
2422.958	10.5
2426.738	13.5
2430.515	13.5
2434.289	13.5
2438.059	15.5
2441.825	14.5
2445.589	13.5
2449.349	14.5
2453.106	8.5
2456.859	13.5
2460.61	16.5
2464.356	17.5
2468.1	11.5
2471.84	14.5
2475.577	7.5
2479.311	5.5
2483.041	6.5
2486.768	13.5
2490.492	9.5
2494.213	9.5
2497.93	9.5
2501.644	9.5
2505.355	6.5
2509.062	9.5
2512.766	9.5
2516.467	11.5
2520.165	10.5
2523.859	12.5
2527.551	12.5
2531.239	12.5
2534.923	6.5
2538.605	6.5
2542.283	5.5
2545.958	8.5
2549.63	10.5
2553.299	11.5
2556.964	10.5
2560.626	8.5
2564.285	5.5
2567.941	4.5
2571.594	10.5
2575.243	10.5
2578.89	12.5
2582.533	9.5
2586.173	10.5
2589.809	11.5
2593.443	9.5
2597.073	5.5
2600.701	9.5
2604.325	9.5
2607.946	7.5
2611.564	6.5
2615.178	8.5
2618.79	10.5
2622.398	11.5
2626.004	10.5
2629.606	6.5
2633.205	11.5
2636.801	7.5
2640.394	8.5
2643.983	7.5
2647.57	7.5
2651.153	3.5
2654.734	1.5
2658.311	6.5
2661.885	10.5
2665.456	4.5
2669.025	6.5
2672.589	3.5
2676.151	3.5
2679.71	5.5
2683.266	10.5
2686.819	7.5
2690.368	4.5
2693.915	7.5
2697.458	6.5
2700.999	2.5
2704.536	6.5
2708.071	3.5
2711.602	5.5
2715.13	3.5
2718.656	9.5
2722.178	9.5
2725.697	9.5
2729.214	10.5
2732.727	12.5
2736.237	9.5
2739.744	13.5
2743.249	12.5
2746.75	6.5
2750.248	10.5
2753.743	8.5
2757.236	6.5
2760.725	12.5
2764.211	11.5
2767.695	5.5
2771.175	8.5
2774.652	6.5
2778.127	6.5
2781.598	8.5
2785.067	9.5
2788.532	7.5
2791.995	10.5
2795.455	7.5
2798.911	6.5
2802.365	8.5
2805.816	11.5
2809.264	12.5
2812.709	15.5
2816.151	18.5
2819.59	14.5
2823.026	15.5
2826.46	16.5
2829.89	22.5
2833.318	25.5
2836.742	33.5
2840.164	43.5
2843.583	45.5
2846.999	54.5
2850.412	69.5
2853.822	77.5
2857.229	87.5
2860.634	91.5
2864.035	90.5
2867.434	89.5
2870.83	97.5
2874.223	98.5
2877.613	96.5
2881	104.5
2884.385	108.5
2887.766	117.5
2891.145	114.5
2894.521	112.5
2897.894	108.5
2901.264	111.5
2904.631	105.5
2907.996	101.5
2911.358	105.5
2914.717	105.5
2918.073	103.5
2921.426	101.5
2924.777	100.5
2928.124	99.5
2931.469	100.5
2934.811	98.5
2938.15	93.5
2941.487	95.5
2944.821	94.5
2948.152	81.5
2951.48	74.5
2954.805	73.5
2958.128	67.5
2961.447	65.5
2964.765	59.5
2968.079	61.5
2971.39	61.5
2974.699	55.5
2978.005	54.5
2981.308	51.5
2984.609	50.5
2987.907	46.5
2991.202	46.5
2994.494	42.5
2997.784	43.5
3001.07	42.5
3004.355	44.5
3007.636	39.5
3010.915	42.5
3014.191	41.5
3017.464	30.5
3020.734	40.5
3024.002	34.5
3027.267	33.5
3030.53	36.5
3033.789	39.5
3037.046	33.5
3040.301	37.5
3043.552	31.5
3046.801	37.5
3050.048	37.5
3053.291	37.5
3056.532	39.5
3059.771	36.5
3063.006	38.5
3066.239	46.5
3069.469	45.5
3072.697	51.5
3075.922	55.5
3079.144	50.5
3082.364	52.5
3085.581	51.5
3088.795	55.5
3092.007	52.5
3095.216	54.5
3098.423	55.5
3101.627	67.5
3104.828	66.5
3108.026	64.5
3111.222	61.5
3114.416	66.5
3117.607	65.5
3120.795	63.5
3123.98	70.5
3127.163	79.5
3130.344	70.5
3133.521	71.5
3136.696	73.5
3139.869	75.5
3143.039	76.5
3146.206	85.5
3149.371	84.5
3152.533	81.5
3155.693	85.5
3158.85	85.5
3162.005	88.5
3165.157	86.5
3168.306	85.5
3171.453	90.5
3174.597	83.5
3177.739	87.5
3180.878	88.5
3184.014	88.5
3187.149	82.5
3190.28	87.5
3193.409	84.5
3196.536	92.5
3199.659	91.5
3202.781	92.5
3205.9	85.5
3209.016	92.5
3212.13	83.5
3215.241	86.5
3218.35	88.5
3221.456	83.5
3224.56	86.5
3227.661	87.5
3230.76	86.5
3233.856	80.5
3236.95	78.5
3240.041	82.5
3243.13	81.5
3246.216	83.5
3249.3	81.5
3252.382	82.5
3255.46	81.5
3258.537	80.5
3261.611	75.5
3264.682	72.5
3267.751	75.5
3270.818	80.5
3273.882	79.5
3276.943	79.5
3280.002	74.5
3283.059	75.5
3286.113	71.5
3289.165	68.5
3292.214	72.5
3295.261	66.5
3298.306	70.5
3301.348	69.5
3304.387	62.5
3307.425	65.5
3310.459	62.5
3313.492	61.5
3316.521	61.5
3319.549	61.5
3322.574	62.5
3325.597	62.5
3328.617	59.5
3331.635	54.5
3334.65	59.5
3337.663	52.5
3340.674	57.5
3343.682	60.5
3346.688	59.5
3349.691	61.5
3352.692	57.5
3355.691	57.5
3358.687	52.5
3361.681	58.5
3364.673	56.5
3367.662	58.5
3370.649	59.5
3373.633	54.5
3376.615	56.5
3379.595	49.5
3382.572	49.5
3385.547	48.5
3388.52	48.5
3391.49	48.5
3394.458	42.5
3397.424	42.5
3400.387	42.5
3403.348	42.5
3406.307	41.5
3409.263	43.5
3412.217	47.5
3415.168	39.5
3418.118	37.5
3421.065	38.5
3424.009	31.5
3426.951	38.5
3429.891	38.5
3432.829	43.5
3435.764	35.5
3438.697	37.5
3441.628	30.5
3444.557	30.5
3447.483	30.5
3450.407	27.5
3453.328	28.5
3456.247	29.5
3459.164	31.5
3462.079	24.5
3464.991	24.5
3467.902	22.5
3470.809	19.5
3473.715	19.5
3476.618	21.5
3479.519	22.5
3482.418	12.5
3485.315	13.5
3488.209	11.5
3491.101	8.5
3493.99	9.5
3496.878	12.5
3499.763	16.5
3502.646	10.5
3505.527	12.5
3508.405	11.5
3511.281	4.5
3514.155	8.5
3517.027	8.5
3519.897	8.5
3522.764	5.5
3525.629	1.5
3528.492	0.5
3531.352	-3.5
3534.211	-1.5
3537.067	-2.5
3539.921	0.5
3542.773	2.5
3545.622	-3.5
3548.469	-3.5
3551.315	-7.5
3554.157	-3.5
3556.998	-5.5
3559.837	-5.5
3562.673	-3.5
3565.507	-5.5
3568.339	-7.5
3571.169	-10.5
3573.996	-9.5
3576.822	-8.5
3579.645	-12.5
3582.466	-10.5
3585.285	-8.5
3588.101	-7.5
3590.916	-13.5
3593.728	-12.5
3596.538	-15.5
3599.346	-15.5
3602.152	-14.5
3604.956	-11.5
3607.757	-11.5
3610.556	-14.5
3613.354	-15.5
3616.149	-16.5
3618.942	-14.5
3621.732	-18.5
3624.521	-17.5
3627.307	-13.5
3630.092	-15.5
3632.874	-17.5
3635.654	-19.5
3638.432	-17.5
3641.208	-18.5
3643.982	-19.5
3646.753	-15.5
3649.523	-14.5
3652.29	-17.5
3655.055	-17.5
3657.818	-23.5
3660.579	-18.5
3663.338	-22.5
3666.095	-15.5
3668.849	-17.5
3671.602	-17.5
3674.352	-21.5
3677.101	-19.5
3679.847	-20.5
3682.591	-21.5
3685.333	-22.5
3688.073	-22.5
3690.811	-24.5
3693.547	-26.5
3696.281	-19.5
3699.013	-21.5
3701.742	-26.5
3704.47	-20.5
3707.195	-21.5
3709.919	-22.5
3712.64	-27.5
3715.359	-19.5
3718.076	-21.5
3720.792	-27.5
3723.505	-19.5
3726.216	-22.5
3728.925	-24.5
3731.632	-24.5
3734.336	-23.5
3737.039	-23.5
3739.74	-23.5
3742.439	-25.5
3745.136	-20.5
3747.83	-21.5
3750.523	-23.5
3753.213	-25.5
3755.902	-22.5
3758.589	-24.5
3761.273	-22.5
3763.956	-22.5
3766.636	-21.5
3769.315	-22.5
3771.991	-26.5
3774.665	-27.5
3777.338	-24.5
3780.008	-18.5
3782.677	-19.5
3785.343	-22.5
3788.007	-21.5
3790.67	-23.5
3793.33	-26.5
3795.989	-24.5
3798.645	-23.5
3801.299	-22.5
3803.952	-22.5
3806.602	-23.5
3809.251	-26.5
3811.897	-24.5
3814.542	-27.5
3817.184	-23.5
3819.825	-23.5
3822.463	-19.5
3825.1	-24.5
3827.735	-22.5
3830.367	-23.5
3832.998	-26.5
3835.627	-27.5
3838.253	-20.5
3840.878	-19.5
3843.501	-19.5
3846.122	-23.5
3848.741	-23.5
3851.358	-25.5
3853.973	-26.5
3856.586	-22.5
3859.197	-27.5
3861.806	-23.5
3864.414	-21.5
3867.019	-19.5
3869.622	-23.5
3872.224	-25.5
3874.823	-28.5
3877.421	-25.5
3880.016	-23.5
3882.61	-17.5
3885.202	-11.5
3887.792	-15.5
3890.38	-19.5
3892.966	-23.5
3895.55	-23.5
3898.132	-24.5
3900.713	-22.5
3903.291	-23.5
3905.868	-18.5
3908.442	-24.5
3911.015	-23.5
3913.586	-27.5
3916.155	-22.5
3918.722	-28.5
3921.287	-22.5
3923.85	-22.5
3926.411	-26.5
3928.971	-20.5
3931.528	-23.5
3934.084	-25.5
3936.638	-24.5
3939.19	-26.5
3941.74	-21.5
3944.288	-27.5
3946.834	-26.5
3949.378	-24.5
3951.921	-21.5
3954.462	-22.5
3957	-23.5
3959.537	-21.5
3962.072	-22.5
3964.606	-24.5
3967.137	-22.5
3969.667	-29.5
3972.194	-22.5
3974.72	-24.5
3977.244	-21.5
3979.766	-22.5
3982.286	-20.5
3984.805	-26.5
3987.321	-26.5
3989.836	-26.5
3992.349	-23.5
3994.86	-22.5
3997.369	-21.5
3999.877	-23.5
4002.382	-25.5
4004.886	-24.5
4007.388	-26.5
4009.888	-25.5
4012.386	-24.5
4014.883	-22.5
4017.377	-22.5
4019.87	-25.5
4022.361	-22.5
4024.85	-26.5
4027.338	-28.5
4029.823	-26.5
4032.307	-24.5
4034.789	-20.5
4037.269	-21.5
4039.747	-24.5
4042.224	-23.5
4044.699	-29.5
4047.172	-23.5
4049.643	-22.5
4052.112	-19.5
4054.58	-20.5
4057.046	-21.5
4059.51	-28.5
4061.972	-26.5
4064.432	-23.5
4066.891	-22.5
4069.348	-24.5
4071.803	-22.5
4074.256	-24.5
4076.708	-23.5
4079.158	-27.5
4081.606	-27.5
4084.052	-23.5
4086.497	-21.5
4088.939	-21.5
4091.38	-20.5
4093.819	-23.5
4096.257	-21.5
4098.693	-24.5
4101.127	-26.5
4103.559	-29.5
4105.989	-11.5
4108.418	-11.5
4110.845	-7.5
4113.27	-9.5
4115.694	-11.5
4118.115	-8.5
4120.535	-23.5
4122.954	-29.5
4125.37	-25.5
4127.785	-21.5
4130.198	-20.5
4132.609	-23.5
4135.019	-23.5
4137.427	-27.5
4139.833	-24.5
4142.237	-27.5
