Data from 10000000CFU3_D_RamanShift_1.txt Node
Date: Thu Feb 02 12:28:28 IST 2017
User: aro
Spectrometer: QEPB0276
Trigger mode: 0
Integration Time (sec): 5.000000E0
Scans to average: 1
Electric dark correction enabled: true
Nonlinearity correction enabled: false
Boxcar width: 0
XAxis mode: Raman Shifts
Number of Pixels in Spectrum: 1044
>>>>>Begin Spectral Data<<<<<
160.701	-3.62
166.742	3.38
172.777	24.38
178.805	82.38
184.826	207.38
190.841	411.38
196.849	639.38
202.85	793.38
208.845	828.38
214.833	825.38
220.815	815.38
226.789	788.38
232.758	800.38
238.719	775.38
244.674	772.38
250.623	758.38
256.565	742.38
262.5	717.38
268.429	711.38
274.351	687.38
280.267	684.38
286.176	674.38
292.079	675.38
297.975	665.38
303.865	668.38
309.748	663.38
315.625	659.38
321.495	651.38
327.359	656.38
333.217	660.38
339.068	654.38
344.912	661.38
350.751	659.38
356.583	672.38
362.408	681.38
368.227	662.38
374.04	659.38
379.847	641.38
385.647	656.38
391.44	659.38
397.228	672.38
403.009	670.38
408.784	668.38
414.553	669.38
420.315	680.38
426.071	690.38
431.821	690.38
437.565	681.38
443.302	692.38
449.033	678.38
454.758	676.38
460.477	660.38
466.189	660.38
471.896	649.38
477.596	634.38
483.29	639.38
488.978	630.38
494.66	618.38
500.335	602.38
506.005	577.38
511.668	581.38
517.325	544.38
522.977	524.38
528.622	516.38
534.261	497.38
539.894	499.38
545.521	478.38
551.141	470.38
556.756	470.38
562.365	463.38
567.968	475.38
573.565	453.38
579.155	461.38
584.74	456.38
590.319	450.38
595.892	454.38
601.459	462.38
607.02	439.38
612.575	439.38
618.124	445.38
623.667	429.38
629.204	433.38
634.735	417.38
640.261	415.38
645.781	414.38
651.294	422.38
656.802	417.38
662.304	407.38
667.8	393.38
673.29	402.38
678.775	394.38
684.254	394.38
689.726	392.38
695.193	389.38
700.655	384.38
706.11	386.38
711.56	394.38
717.004	385.38
722.442	382.38
727.874	380.38
733.301	388.38
738.722	375.38
744.137	381.38
749.547	374.38
754.951	373.38
760.349	393.38
765.741	384.38
771.128	374.38
776.509	375.38
781.885	372.38
787.254	388.38
792.618	375.38
797.977	384.38
803.33	380.38
808.677	382.38
814.019	373.38
819.355	362.38
824.686	371.38
830.011	373.38
835.33	383.38
840.644	385.38
845.952	376.38
851.255	389.38
856.552	387.38
861.844	396.38
867.13	397.38
872.41	397.38
877.686	396.38
882.955	393.38
888.219	390.38
893.478	384.38
898.731	359.38
903.979	361.38
909.221	359.38
914.458	352.38
919.69	349.38
924.916	343.38
930.136	340.38
935.351	342.38
940.561	339.38
945.766	346.38
950.965	347.38
956.158	342.38
961.347	333.38
966.529	316.38
971.707	312.38
976.879	316.38
982.046	315.38
987.208	311.38
992.364	313.38
997.515	310.38
1002.66	320.38
1007.801	336.38
1012.936	329.38
1018.066	327.38
1023.19	331.38
1028.309	342.38
1033.423	342.38
1038.532	343.38
1043.636	344.38
1048.734	342.38
1053.827	347.38
1058.915	356.38
1063.998	345.38
1069.075	363.38
1074.147	364.38
1079.214	376.38
1084.276	369.38
1089.333	386.38
1094.385	373.38
1099.431	366.38
1104.472	356.38
1109.509	344.38
1114.54	335.38
1119.565	337.38
1124.586	340.38
1129.602	335.38
1134.613	333.38
1139.618	320.38
1144.619	296.38
1149.614	299.38
1154.604	290.38
1159.589	296.38
1164.57	288.38
1169.545	282.38
1174.515	279.38
1179.48	285.38
1184.44	268.38
1189.395	259.38
1194.345	259.38
1199.29	268.38
1204.23	260.38
1209.165	263.38
1214.095	268.38
1219.021	269.38
1223.941	262.38
1228.856	268.38
1233.766	275.38
1238.672	279.38
1243.572	285.38
1248.467	285.38
1253.358	294.38
1258.244	299.38
1263.124	290.38
1268	295.38
1272.871	285.38
1277.737	286.38
1282.599	290.38
1287.455	273.38
1292.306	291.38
1297.153	301.38
1301.995	316.38
1306.832	317.38
1311.664	315.38
1316.491	306.38
1321.314	290.38
1326.132	279.38
1330.945	274.38
1335.753	257.38
1340.556	257.38
1345.354	256.38
1350.148	253.38
1354.937	254.38
1359.722	239.38
1364.501	230.38
1369.276	240.38
1374.046	239.38
1378.811	246.38
1383.572	241.38
1388.327	239.38
1393.079	231.38
1397.825	230.38
1402.567	222.38
1407.304	215.38
1412.036	219.38
1416.764	222.38
1421.487	226.38
1426.205	237.38
1430.919	238.38
1435.628	264.38
1440.333	283.38
1445.032	306.38
1449.727	307.38
1454.418	316.38
1459.104	300.38
1463.785	293.38
1468.462	279.38
1473.134	255.38
1477.802	231.38
1482.465	215.38
1487.123	199.38
1491.777	184.38
1496.426	173.38
1501.071	179.38
1505.711	176.38
1510.347	178.38
1514.978	180.38
1519.604	179.38
1524.226	178.38
1528.844	176.38
1533.457	174.38
1538.065	176.38
1542.669	169.38
1547.269	172.38
1551.864	168.38
1556.454	167.38
1561.041	168.38
1565.622	173.38
1570.199	165.38
1574.772	170.38
1579.34	174.38
1583.904	167.38
1588.464	170.38
1593.019	174.38
1597.569	175.38
1602.115	178.38
1606.657	178.38
1611.195	175.38
1615.728	182.38
1620.256	186.38
1624.78	177.38
1629.3	182.38
1633.816	183.38
1638.327	191.38
1642.834	195.38
1647.336	196.38
1651.834	204.38
1656.328	209.38
1660.817	205.38
1665.302	210.38
1669.783	195.38
1674.259	185.38
1678.732	189.38
1683.199	178.38
1687.663	164.38
1692.122	152.38
1696.577	151.38
1701.028	151.38
1705.474	142.38
1709.917	142.38
1714.355	142.38
1718.788	134.38
1723.218	126.38
1727.643	124.38
1732.064	124.38
1736.481	123.38
1740.893	121.38
1745.301	124.38
1749.705	113.38
1754.105	113.38
1758.501	106.38
1762.893	97.38
1767.28	94.38
1771.663	100.38
1776.042	92.38
1780.417	94.38
1784.787	92.38
1789.154	91.38
1793.516	91.38
1797.874	92.38
1802.228	99.38
1806.578	96.38
1810.924	98.38
1815.266	90.38
1819.603	86.38
1823.937	84.38
1828.266	85.38
1832.591	80.38
1836.913	84.38
1841.23	79.38
1845.543	78.38
1849.852	74.38
1854.156	78.38
1858.457	77.38
1862.754	80.38
1867.047	80.38
1871.335	78.38
1875.62	80.38
1879.9	76.38
1884.177	76.38
1888.449	80.38
1892.718	73.38
1896.982	73.38
1901.243	76.38
1905.499	79.38
1909.752	73.38
1914	78.38
1918.245	76.38
1922.485	74.38
1926.722	74.38
1930.954	70.38
1935.183	73.38
1939.408	77.38
1943.628	80.38
1947.845	72.38
1952.058	76.38
1956.267	75.38
1960.472	70.38
1964.673	70.38
1968.87	71.38
1973.063	67.38
1977.252	69.38
1981.438	72.38
1985.619	62.38
1989.797	68.38
1993.971	63.38
1998.14	64.38
2002.306	65.38
2006.469	65.38
2010.627	61.38
2014.781	61.38
2018.932	64.38
2023.078	67.38
2027.221	65.38
2031.36	59.38
2035.495	59.38
2039.627	63.38
2043.754	57.38
2047.878	61.38
2051.998	61.38
2056.114	62.38
2060.226	58.38
2064.334	56.38
2068.439	58.38
2072.54	57.38
2076.637	64.38
2080.73	63.38
2084.82	64.38
2088.906	68.38
2092.988	58.38
2097.066	58.38
2101.14	61.38
2105.211	59.38
2109.278	54.38
2113.342	62.38
2117.401	62.38
2121.457	62.38
2125.509	58.38
2129.558	58.38
2133.602	55.38
2137.643	61.38
2141.681	56.38
2145.714	57.38
2149.744	54.38
2153.77	55.38
2157.793	51.38
2161.812	49.38
2165.827	47.38
2169.838	50.38
2173.846	49.38
2177.851	50.38
2181.851	48.38
2185.848	48.38
2189.841	42.38
2193.831	42.38
2197.817	41.38
2201.799	43.38
2205.778	46.38
2209.753	43.38
2213.725	43.38
2217.693	49.38
2221.657	39.38
2225.618	39.38
2229.575	38.38
2233.529	42.38
2237.479	36.38
2241.425	43.38
2245.368	40.38
2249.307	40.38
2253.243	33.38
2257.175	34.38
2261.104	33.38
2265.029	34.38
2268.95	32.38
2272.868	34.38
2276.783	31.38
2280.694	32.38
2284.601	26.38
2288.505	27.38
2292.405	25.38
2296.302	31.38
2300.195	33.38
2304.085	27.38
2307.971	29.38
2311.854	24.38
2315.734	22.38
2319.609	21.38
2323.482	26.38
2327.351	30.38
2331.216	30.38
2335.078	29.38
2338.937	24.38
2342.792	24.38
2346.643	17.38
2350.492	18.38
2354.336	17.38
2358.178	21.38
2362.015	17.38
2365.85	20.38
2369.681	23.38
2373.508	23.38
2377.333	21.38
2381.153	22.38
2384.971	14.38
2388.785	22.38
2392.595	22.38
2396.402	15.38
2400.206	20.38
2404.007	19.38
2407.804	20.38
2411.597	19.38
2415.388	13.38
2419.174	14.38
2422.958	15.38
2426.738	16.38
2430.515	14.38
2434.289	14.38
2438.059	15.38
2441.825	13.38
2445.589	9.38
2449.349	13.38
2453.106	12.38
2456.859	11.38
2460.61	15.38
2464.356	15.38
2468.1	15.38
2471.84	16.38
2475.577	13.38
2479.311	6.38
2483.041	9.38
2486.768	13.38
2490.492	16.38
2494.213	15.38
2497.93	12.38
2501.644	12.38
2505.355	11.38
2509.062	9.38
2512.766	9.38
2516.467	14.38
2520.165	8.38
2523.859	10.38
2527.551	12.38
2531.239	12.38
2534.923	6.38
2538.605	7.38
2542.283	5.38
2545.958	11.38
2549.63	11.38
2553.299	11.38
2556.964	8.38
2560.626	16.38
2564.285	10.38
2567.941	7.38
2571.594	10.38
2575.243	11.38
2578.89	12.38
2582.533	13.38
2586.173	12.38
2589.809	8.38
2593.443	8.38
2597.073	3.38
2600.701	6.38
2604.325	10.38
2607.946	9.38
2611.564	11.38
2615.178	9.38
2618.79	10.38
2622.398	7.38
2626.004	6.38
2629.606	6.38
2633.205	10.38
2636.801	8.38
2640.394	11.38
2643.983	6.38
2647.57	6.38
2651.153	5.38
2654.734	4.38
2658.311	8.38
2661.885	9.38
2665.456	8.38
2669.025	9.38
2672.589	2.38
2676.151	7.38
2679.71	5.38
2683.266	6.38
2686.819	10.38
2690.368	6.38
2693.915	6.38
2697.458	9.38
2700.999	1.38
2704.536	6.38
2708.071	5.38
2711.602	8.38
2715.13	5.38
2718.656	7.38
2722.178	5.38
2725.697	7.38
2729.214	10.38
2732.727	11.38
2736.237	14.38
2739.744	13.38
2743.249	8.38
2746.75	9.38
2750.248	7.38
2753.743	8.38
2757.236	11.38
2760.725	9.38
2764.211	9.38
2767.695	7.38
2771.175	13.38
2774.652	7.38
2778.127	7.38
2781.598	9.38
2785.067	6.38
2788.532	11.38
2791.995	11.38
2795.455	7.38
2798.911	7.38
2802.365	10.38
2805.816	8.38
2809.264	15.38
2812.709	15.38
2816.151	13.38
2819.59	15.38
2823.026	19.38
2826.46	20.38
2829.89	30.38
2833.318	27.38
2836.742	30.38
2840.164	40.38
2843.583	52.38
2846.999	59.38
2850.412	67.38
2853.822	75.38
2857.229	88.38
2860.634	91.38
2864.035	84.38
2867.434	95.38
2870.83	89.38
2874.223	92.38
2877.613	100.38
2881	101.38
2884.385	118.38
2887.766	115.38
2891.145	113.38
2894.521	111.38
2897.894	104.38
2901.264	103.38
2904.631	104.38
2907.996	104.38
2911.358	105.38
2914.717	106.38
2918.073	105.38
2921.426	103.38
2924.777	101.38
2928.124	97.38
2931.469	97.38
2934.811	98.38
2938.15	97.38
2941.487	99.38
2944.821	94.38
2948.152	78.38
2951.48	73.38
2954.805	72.38
2958.128	72.38
2961.447	69.38
2964.765	64.38
2968.079	59.38
2971.39	62.38
2974.699	55.38
2978.005	49.38
2981.308	49.38
2984.609	50.38
2987.907	48.38
2991.202	47.38
2994.494	45.38
2997.784	43.38
3001.07	39.38
3004.355	39.38
3007.636	39.38
3010.915	40.38
3014.191	37.38
3017.464	37.38
3020.734	33.38
3024.002	30.38
3027.267	27.38
3030.53	31.38
3033.789	34.38
3037.046	32.38
3040.301	33.38
3043.552	33.38
3046.801	35.38
3050.048	33.38
3053.291	35.38
3056.532	38.38
3059.771	42.38
3063.006	44.38
3066.239	43.38
3069.469	45.38
3072.697	43.38
3075.922	50.38
3079.144	48.38
3082.364	52.38
3085.581	43.38
3088.795	52.38
3092.007	51.38
3095.216	55.38
3098.423	57.38
3101.627	56.38
3104.828	60.38
3108.026	61.38
3111.222	57.38
3114.416	66.38
3117.607	61.38
3120.795	66.38
3123.98	67.38
3127.163	71.38
3130.344	72.38
3133.521	76.38
3136.696	74.38
3139.869	78.38
3143.039	84.38
3146.206	82.38
3149.371	83.38
3152.533	79.38
3155.693	85.38
3158.85	79.38
3162.005	83.38
3165.157	88.38
3168.306	79.38
3171.453	88.38
3174.597	78.38
3177.739	84.38
3180.878	85.38
3184.014	86.38
3187.149	82.38
3190.28	88.38
3193.409	87.38
3196.536	85.38
3199.659	79.38
3202.781	81.38
3205.9	87.38
3209.016	83.38
3212.13	87.38
3215.241	85.38
3218.35	80.38
3221.456	86.38
3224.56	78.38
3227.661	82.38
3230.76	85.38
3233.856	77.38
3236.95	76.38
3240.041	82.38
3243.13	77.38
3246.216	73.38
3249.3	77.38
3252.382	75.38
3255.46	75.38
3258.537	80.38
3261.611	72.38
3264.682	74.38
3267.751	73.38
3270.818	73.38
3273.882	69.38
3276.943	74.38
3280.002	69.38
3283.059	75.38
3286.113	71.38
3289.165	69.38
3292.214	68.38
3295.261	64.38
3298.306	66.38
3301.348	69.38
3304.387	67.38
3307.425	62.38
3310.459	62.38
3313.492	55.38
3316.521	50.38
3319.549	56.38
3322.574	58.38
3325.597	60.38
3328.617	57.38
3331.635	56.38
3334.65	62.38
3337.663	48.38
3340.674	49.38
3343.682	55.38
3346.688	58.38
3349.691	56.38
3352.692	53.38
3355.691	54.38
3358.687	54.38
3361.681	47.38
3364.673	51.38
3367.662	58.38
3370.649	56.38
3373.633	49.38
3376.615	50.38
3379.595	45.38
3382.572	43.38
3385.547	48.38
3388.52	45.38
3391.49	45.38
3394.458	43.38
3397.424	43.38
3400.387	38.38
3403.348	44.38
3406.307	38.38
3409.263	40.38
3412.217	43.38
3415.168	40.38
3418.118	40.38
3421.065	34.38
3424.009	32.38
3426.951	36.38
3429.891	36.38
3432.829	32.38
3435.764	30.38
3438.697	35.38
3441.628	31.38
3444.557	28.38
3447.483	25.38
3450.407	30.38
3453.328	23.38
3456.247	25.38
3459.164	23.38
3462.079	23.38
3464.991	24.38
3467.902	16.38
3470.809	21.38
3473.715	19.38
3476.618	15.38
3479.519	15.38
3482.418	13.38
3485.315	13.38
3488.209	12.38
3491.101	11.38
3493.99	14.38
3496.878	12.38
3499.763	11.38
3502.646	8.38
3505.527	8.38
3508.405	7.38
3511.281	5.38
3514.155	9.38
3517.027	5.38
3519.897	5.38
3522.764	0.38
3525.629	-1.62
3528.492	-3.62
3531.352	-0.62
3534.211	-1.62
3537.067	-2.62
3539.921	-2.62
3542.773	-4.62
3545.622	-5.62
3548.469	-5.62
3551.315	-8.62
3554.157	-8.62
3556.998	-9.62
3559.837	-2.62
3562.673	-3.62
3565.507	-11.62
3568.339	-9.62
3571.169	-13.62
3573.996	-11.62
3576.822	-8.62
3579.645	-9.62
3582.466	-6.62
3585.285	-7.62
3588.101	-7.62
3590.916	-18.62
3593.728	-15.62
3596.538	-18.62
3599.346	-15.62
3602.152	-12.62
3604.956	-10.62
3607.757	-14.62
3610.556	-14.62
3613.354	-19.62
3616.149	-20.62
3618.942	-15.62
3621.732	-17.62
3624.521	-17.62
3627.307	-14.62
3630.092	-17.62
3632.874	-18.62
3635.654	-18.62
3638.432	-18.62
3641.208	-17.62
3643.982	-19.62
3646.753	-16.62
3649.523	-13.62
3652.29	-17.62
3655.055	-20.62
3657.818	-23.62
3660.579	-22.62
3663.338	-21.62
3666.095	-15.62
3668.849	-18.62
3671.602	-17.62
3674.352	-22.62
3677.101	-16.62
3679.847	-21.62
3682.591	-22.62
3685.333	-18.62
3688.073	-21.62
3690.811	-24.62
3693.547	-26.62
3696.281	-22.62
3699.013	-23.62
3701.742	-21.62
3704.47	-21.62
3707.195	-23.62
3709.919	-24.62
3712.64	-31.62
3715.359	-25.62
3718.076	-21.62
3720.792	-23.62
3723.505	-19.62
3726.216	-20.62
3728.925	-26.62
3731.632	-28.62
3734.336	-25.62
3737.039	-21.62
3739.74	-25.62
3742.439	-19.62
3745.136	-21.62
3747.83	-22.62
3750.523	-21.62
3753.213	-25.62
3755.902	-26.62
3758.589	-25.62
3761.273	-25.62
3763.956	-21.62
3766.636	-21.62
3769.315	-20.62
3771.991	-28.62
3774.665	-26.62
3777.338	-25.62
3780.008	-24.62
3782.677	-19.62
3785.343	-21.62
3788.007	-22.62
3790.67	-23.62
3793.33	-30.62
3795.989	-26.62
3798.645	-23.62
3801.299	-22.62
3803.952	-22.62
3806.602	-23.62
3809.251	-25.62
3811.897	-22.62
3814.542	-28.62
3817.184	-24.62
3819.825	-24.62
3822.463	-20.62
3825.1	-23.62
3827.735	-18.62
3830.367	-24.62
3832.998	-24.62
3835.627	-26.62
3838.253	-22.62
3840.878	-26.62
3843.501	-20.62
3846.122	-23.62
3848.741	-20.62
3851.358	-24.62
3853.973	-24.62
3856.586	-26.62
3859.197	-28.62
3861.806	-23.62
3864.414	-24.62
3867.019	-21.62
3869.622	-23.62
3872.224	-27.62
3874.823	-27.62
3877.421	-18.62
3880.016	-23.62
3882.61	-16.62
3885.202	-9.62
3887.792	-13.62
3890.38	-16.62
3892.966	-27.62
3895.55	-24.62
3898.132	-24.62
3900.713	-20.62
3903.291	-22.62
3905.868	-23.62
3908.442	-24.62
3911.015	-20.62
3913.586	-26.62
3916.155	-24.62
3918.722	-28.62
3921.287	-22.62
3923.85	-24.62
3926.411	-24.62
3928.971	-20.62
3931.528	-24.62
3934.084	-26.62
3936.638	-23.62
3939.19	-26.62
3941.74	-21.62
3944.288	-25.62
3946.834	-22.62
3949.378	-25.62
3951.921	-22.62
3954.462	-25.62
3957	-23.62
3959.537	-25.62
3962.072	-24.62
3964.606	-27.62
3967.137	-23.62
3969.667	-24.62
3972.194	-25.62
3974.72	-23.62
3977.244	-23.62
3979.766	-26.62
3982.286	-23.62
3984.805	-26.62
3987.321	-24.62
3989.836	-26.62
3992.349	-26.62
3994.86	-22.62
3997.369	-23.62
3999.877	-23.62
4002.382	-24.62
4004.886	-23.62
4007.388	-22.62
4009.888	-23.62
4012.386	-23.62
4014.883	-24.62
4017.377	-23.62
4019.87	-27.62
4022.361	-22.62
4024.85	-27.62
4027.338	-23.62
4029.823	-24.62
4032.307	-26.62
4034.789	-21.62
4037.269	-24.62
4039.747	-27.62
4042.224	-25.62
4044.699	-29.62
4047.172	-26.62
4049.643	-22.62
4052.112	-22.62
4054.58	-23.62
4057.046	-20.62
4059.51	-29.62
4061.972	-27.62
4064.432	-23.62
4066.891	-21.62
4069.348	-23.62
4071.803	-22.62
4074.256	-23.62
4076.708	-23.62
4079.158	-26.62
4081.606	-26.62
4084.052	-22.62
4086.497	-21.62
4088.939	-19.62
4091.38	-21.62
4093.819	-25.62
4096.257	-23.62
4098.693	-28.62
4101.127	-24.62
4103.559	-26.62
4105.989	-8.62
4108.418	-8.62
4110.845	-8.62
4113.27	-9.62
4115.694	-10.62
4118.115	-10.62
4120.535	-25.62
4122.954	-29.62
4125.37	-23.62
4127.785	-20.62
4130.198	-19.62
4132.609	-25.62
4135.019	-25.62
4137.427	-28.62
4139.833	-24.62
4142.237	-27.62
