Data from 10000CFU2_C_RamanShift_1.txt Node
Date: Thu Feb 02 15:09:55 IST 2017
User: aro
Spectrometer: QEPB0276
Trigger mode: 0
Integration Time (sec): 5.000000E0
Scans to average: 1
Electric dark correction enabled: true
Nonlinearity correction enabled: false
Boxcar width: 0
XAxis mode: Raman Shifts
Number of Pixels in Spectrum: 1044
>>>>>Begin Spectral Data<<<<<
160.701	-5.88
166.742	1.12
172.777	26.12
178.805	88.12
184.826	222.12
190.841	422.12
196.849	662.12
202.85	818.12
208.845	889.12
214.833	857.12
220.815	850.12
226.789	839.12
232.758	824.12
238.719	807.12
244.674	799.12
250.623	787.12
256.565	773.12
262.5	742.12
268.429	732.12
274.351	729.12
280.267	714.12
286.176	700.12
292.079	699.12
297.975	688.12
303.865	684.12
309.748	677.12
315.625	675.12
321.495	668.12
327.359	677.12
333.217	685.12
339.068	678.12
344.912	689.12
350.751	692.12
356.583	695.12
362.408	702.12
368.227	689.12
374.04	682.12
379.847	681.12
385.647	687.12
391.44	681.12
397.228	672.12
403.009	693.12
408.784	691.12
414.553	698.12
420.315	697.12
426.071	709.12
431.821	722.12
437.565	703.12
443.302	717.12
449.033	692.12
454.758	696.12
460.477	689.12
466.189	679.12
471.896	675.12
477.596	670.12
483.29	665.12
488.978	655.12
494.66	649.12
500.335	632.12
506.005	613.12
511.668	583.12
517.325	573.12
522.977	550.12
528.622	535.12
534.261	524.12
539.894	517.12
545.521	510.12
551.141	501.12
556.756	493.12
562.365	483.12
567.968	484.12
573.565	476.12
579.155	479.12
584.74	471.12
590.319	457.12
595.892	478.12
601.459	469.12
607.02	473.12
612.575	460.12
618.124	451.12
623.667	448.12
629.204	447.12
634.735	435.12
640.261	432.12
645.781	433.12
651.294	433.12
656.802	429.12
662.304	426.12
667.8	423.12
673.29	420.12
678.775	413.12
684.254	418.12
689.726	419.12
695.193	403.12
700.655	405.12
706.11	414.12
711.56	409.12
717.004	404.12
722.442	398.12
727.874	405.12
733.301	392.12
738.722	389.12
744.137	394.12
749.547	386.12
754.951	393.12
760.349	390.12
765.741	398.12
771.128	398.12
776.509	394.12
781.885	401.12
787.254	390.12
792.618	392.12
797.977	399.12
803.33	401.12
808.677	396.12
814.019	389.12
819.355	392.12
824.686	395.12
830.011	389.12
835.33	397.12
840.644	402.12
845.952	397.12
851.255	405.12
856.552	413.12
861.844	419.12
867.13	417.12
872.41	405.12
877.686	412.12
882.955	413.12
888.219	408.12
893.478	396.12
898.731	387.12
903.979	382.12
909.221	366.12
914.458	369.12
919.69	372.12
924.916	354.12
930.136	355.12
935.351	362.12
940.561	361.12
945.766	363.12
950.965	353.12
956.158	359.12
961.347	347.12
966.529	343.12
971.707	332.12
976.879	328.12
982.046	322.12
987.208	330.12
992.364	331.12
997.515	332.12
1002.66	344.12
1007.801	340.12
1012.936	350.12
1018.066	354.12
1023.19	360.12
1028.309	354.12
1033.423	350.12
1038.532	367.12
1043.636	355.12
1048.734	358.12
1053.827	358.12
1058.915	371.12
1063.998	365.12
1069.075	393.12
1074.147	389.12
1079.214	387.12
1084.276	387.12
1089.333	396.12
1094.385	396.12
1099.431	392.12
1104.472	378.12
1109.509	366.12
1114.54	361.12
1119.565	358.12
1124.586	360.12
1129.602	359.12
1134.613	355.12
1139.618	339.12
1144.619	328.12
1149.614	312.12
1154.604	305.12
1159.589	308.12
1164.57	301.12
1169.545	303.12
1174.515	288.12
1179.48	286.12
1184.44	276.12
1189.395	276.12
1194.345	270.12
1199.29	275.12
1204.23	277.12
1209.165	271.12
1214.095	282.12
1219.021	279.12
1223.941	280.12
1228.856	281.12
1233.766	290.12
1238.672	297.12
1243.572	302.12
1248.467	300.12
1253.358	301.12
1258.244	311.12
1263.124	307.12
1268	322.12
1272.871	302.12
1277.737	295.12
1282.599	291.12
1287.455	290.12
1292.306	311.12
1297.153	318.12
1301.995	332.12
1306.832	334.12
1311.664	327.12
1316.491	319.12
1321.314	306.12
1326.132	292.12
1330.945	281.12
1335.753	276.12
1340.556	268.12
1345.354	265.12
1350.148	261.12
1354.937	256.12
1359.722	254.12
1364.501	251.12
1369.276	241.12
1374.046	253.12
1378.811	249.12
1383.572	247.12
1388.327	240.12
1393.079	237.12
1397.825	235.12
1402.567	228.12
1407.304	227.12
1412.036	237.12
1416.764	234.12
1421.487	241.12
1426.205	250.12
1430.919	256.12
1435.628	268.12
1440.333	300.12
1445.032	321.12
1449.727	328.12
1454.418	324.12
1459.104	321.12
1463.785	305.12
1468.462	296.12
1473.134	264.12
1477.802	242.12
1482.465	222.12
1487.123	207.12
1491.777	188.12
1496.426	189.12
1501.071	183.12
1505.711	185.12
1510.347	186.12
1514.978	190.12
1519.604	184.12
1524.226	179.12
1528.844	176.12
1533.457	181.12
1538.065	181.12
1542.669	173.12
1547.269	183.12
1551.864	180.12
1556.454	181.12
1561.041	170.12
1565.622	170.12
1570.199	169.12
1574.772	172.12
1579.34	177.12
1583.904	180.12
1588.464	184.12
1593.019	185.12
1597.569	187.12
1602.115	181.12
1606.657	182.12
1611.195	189.12
1615.728	184.12
1620.256	192.12
1624.78	194.12
1629.3	195.12
1633.816	196.12
1638.327	191.12
1642.834	201.12
1647.336	205.12
1651.834	207.12
1656.328	216.12
1660.817	219.12
1665.302	213.12
1669.783	209.12
1674.259	200.12
1678.732	194.12
1683.199	178.12
1687.663	174.12
1692.122	156.12
1696.577	156.12
1701.028	154.12
1705.474	142.12
1709.917	149.12
1714.355	146.12
1718.788	133.12
1723.218	134.12
1727.643	128.12
1732.064	127.12
1736.481	125.12
1740.893	121.12
1745.301	122.12
1749.705	121.12
1754.105	120.12
1758.501	109.12
1762.893	100.12
1767.28	103.12
1771.663	97.12
1776.042	99.12
1780.417	95.12
1784.787	96.12
1789.154	96.12
1793.516	97.12
1797.874	105.12
1802.228	96.12
1806.578	98.12
1810.924	95.12
1815.266	89.12
1819.603	89.12
1823.937	92.12
1828.266	86.12
1832.591	85.12
1836.913	86.12
1841.23	86.12
1845.543	87.12
1849.852	78.12
1854.156	82.12
1858.457	84.12
1862.754	79.12
1867.047	78.12
1871.335	79.12
1875.62	81.12
1879.9	80.12
1884.177	81.12
1888.449	79.12
1892.718	75.12
1896.982	80.12
1901.243	78.12
1905.499	83.12
1909.752	80.12
1914	80.12
1918.245	74.12
1922.485	77.12
1926.722	78.12
1930.954	74.12
1935.183	74.12
1939.408	78.12
1943.628	78.12
1947.845	77.12
1952.058	85.12
1956.267	76.12
1960.472	80.12
1964.673	72.12
1968.87	68.12
1973.063	69.12
1977.252	67.12
1981.438	72.12
1985.619	65.12
1989.797	65.12
1993.971	69.12
1998.14	70.12
2002.306	66.12
2006.469	65.12
2010.627	64.12
2014.781	67.12
2018.932	67.12
2023.078	67.12
2027.221	64.12
2031.36	66.12
2035.495	62.12
2039.627	63.12
2043.754	60.12
2047.878	59.12
2051.998	60.12
2056.114	62.12
2060.226	64.12
2064.334	61.12
2068.439	62.12
2072.54	59.12
2076.637	68.12
2080.73	62.12
2084.82	63.12
2088.906	66.12
2092.988	65.12
2097.066	65.12
2101.14	62.12
2105.211	66.12
2109.278	55.12
2113.342	60.12
2117.401	59.12
2121.457	58.12
2125.509	55.12
2129.558	61.12
2133.602	60.12
2137.643	64.12
2141.681	56.12
2145.714	62.12
2149.744	58.12
2153.77	48.12
2157.793	51.12
2161.812	57.12
2165.827	49.12
2169.838	56.12
2173.846	51.12
2177.851	48.12
2181.851	47.12
2185.848	49.12
2189.841	42.12
2193.831	48.12
2197.817	46.12
2201.799	44.12
2205.778	49.12
2209.753	50.12
2213.725	45.12
2217.693	43.12
2221.657	38.12
2225.618	39.12
2229.575	36.12
2233.529	41.12
2237.479	42.12
2241.425	41.12
2245.368	40.12
2249.307	42.12
2253.243	36.12
2257.175	37.12
2261.104	39.12
2265.029	32.12
2268.95	38.12
2272.868	30.12
2276.783	32.12
2280.694	36.12
2284.601	30.12
2288.505	27.12
2292.405	30.12
2296.302	28.12
2300.195	27.12
2304.085	29.12
2307.971	30.12
2311.854	27.12
2315.734	19.12
2319.609	23.12
2323.482	29.12
2327.351	32.12
2331.216	26.12
2335.078	27.12
2338.937	27.12
2342.792	24.12
2346.643	21.12
2350.492	23.12
2354.336	17.12
2358.178	16.12
2362.015	21.12
2365.85	23.12
2369.681	20.12
2373.508	20.12
2377.333	20.12
2381.153	21.12
2384.971	20.12
2388.785	22.12
2392.595	17.12
2396.402	11.12
2400.206	17.12
2404.007	18.12
2407.804	15.12
2411.597	19.12
2415.388	12.12
2419.174	19.12
2422.958	20.12
2426.738	16.12
2430.515	15.12
2434.289	13.12
2438.059	17.12
2441.825	14.12
2445.589	12.12
2449.349	13.12
2453.106	12.12
2456.859	13.12
2460.61	11.12
2464.356	16.12
2468.1	12.12
2471.84	15.12
2475.577	11.12
2479.311	8.12
2483.041	10.12
2486.768	12.12
2490.492	14.12
2494.213	13.12
2497.93	12.12
2501.644	11.12
2505.355	6.12
2509.062	7.12
2512.766	9.12
2516.467	10.12
2520.165	5.12
2523.859	10.12
2527.551	12.12
2531.239	14.12
2534.923	9.12
2538.605	7.12
2542.283	6.12
2545.958	10.12
2549.63	5.12
2553.299	11.12
2556.964	6.12
2560.626	14.12
2564.285	6.12
2567.941	7.12
2571.594	10.12
2575.243	9.12
2578.89	14.12
2582.533	10.12
2586.173	7.12
2589.809	8.12
2593.443	14.12
2597.073	7.12
2600.701	7.12
2604.325	9.12
2607.946	11.12
2611.564	7.12
2615.178	7.12
2618.79	8.12
2622.398	5.12
2626.004	7.12
2629.606	9.12
2633.205	11.12
2636.801	6.12
2640.394	10.12
2643.983	9.12
2647.57	4.12
2651.153	4.12
2654.734	4.12
2658.311	6.12
2661.885	10.12
2665.456	8.12
2669.025	7.12
2672.589	3.12
2676.151	7.12
2679.71	6.12
2683.266	8.12
2686.819	2.12
2690.368	9.12
2693.915	5.12
2697.458	7.12
2700.999	4.12
2704.536	9.12
2708.071	6.12
2711.602	6.12
2715.13	5.12
2718.656	4.12
2722.178	4.12
2725.697	7.12
2729.214	10.12
2732.727	11.12
2736.237	14.12
2739.744	13.12
2743.249	11.12
2746.75	7.12
2750.248	8.12
2753.743	8.12
2757.236	3.12
2760.725	11.12
2764.211	12.12
2767.695	9.12
2771.175	13.12
2774.652	7.12
2778.127	10.12
2781.598	6.12
2785.067	4.12
2788.532	7.12
2791.995	10.12
2795.455	10.12
2798.911	8.12
2802.365	6.12
2805.816	8.12
2809.264	11.12
2812.709	12.12
2816.151	17.12
2819.59	14.12
2823.026	17.12
2826.46	23.12
2829.89	28.12
2833.318	31.12
2836.742	36.12
2840.164	40.12
2843.583	49.12
2846.999	61.12
2850.412	72.12
2853.822	83.12
2857.229	89.12
2860.634	97.12
2864.035	96.12
2867.434	96.12
2870.83	102.12
2874.223	100.12
2877.613	100.12
2881	111.12
2884.385	118.12
2887.766	124.12
2891.145	125.12
2894.521	119.12
2897.894	115.12
2901.264	115.12
2904.631	114.12
2907.996	113.12
2911.358	106.12
2914.717	105.12
2918.073	111.12
2921.426	106.12
2924.777	105.12
2928.124	100.12
2931.469	108.12
2934.811	107.12
2938.15	103.12
2941.487	98.12
2944.821	91.12
2948.152	81.12
2951.48	82.12
2954.805	78.12
2958.128	73.12
2961.447	72.12
2964.765	71.12
2968.079	65.12
2971.39	64.12
2974.699	56.12
2978.005	53.12
2981.308	46.12
2984.609	48.12
2987.907	47.12
2991.202	50.12
2994.494	45.12
2997.784	46.12
3001.07	43.12
3004.355	43.12
3007.636	40.12
3010.915	38.12
3014.191	35.12
3017.464	34.12
3020.734	36.12
3024.002	33.12
3027.267	32.12
3030.53	32.12
3033.789	36.12
3037.046	33.12
3040.301	34.12
3043.552	35.12
3046.801	35.12
3050.048	36.12
3053.291	43.12
3056.532	40.12
3059.771	41.12
3063.006	41.12
3066.239	46.12
3069.469	45.12
3072.697	45.12
3075.922	50.12
3079.144	49.12
3082.364	50.12
3085.581	49.12
3088.795	58.12
3092.007	53.12
3095.216	57.12
3098.423	51.12
3101.627	61.12
3104.828	60.12
3108.026	63.12
3111.222	64.12
3114.416	66.12
3117.607	69.12
3120.795	65.12
3123.98	68.12
3127.163	72.12
3130.344	70.12
3133.521	75.12
3136.696	77.12
3139.869	74.12
3143.039	83.12
3146.206	86.12
3149.371	91.12
3152.533	81.12
3155.693	84.12
3158.85	85.12
3162.005	87.12
3165.157	89.12
3168.306	87.12
3171.453	89.12
3174.597	85.12
3177.739	84.12
3180.878	89.12
3184.014	87.12
3187.149	80.12
3190.28	87.12
3193.409	91.12
3196.536	84.12
3199.659	83.12
3202.781	90.12
3205.9	88.12
3209.016	91.12
3212.13	88.12
3215.241	88.12
3218.35	86.12
3221.456	84.12
3224.56	83.12
3227.661	88.12
3230.76	84.12
3233.856	82.12
3236.95	75.12
3240.041	83.12
3243.13	80.12
3246.216	78.12
3249.3	81.12
3252.382	77.12
3255.46	76.12
3258.537	80.12
3261.611	74.12
3264.682	74.12
3267.751	78.12
3270.818	75.12
3273.882	75.12
3276.943	74.12
3280.002	69.12
3283.059	78.12
3286.113	72.12
3289.165	71.12
3292.214	71.12
3295.261	67.12
3298.306	72.12
3301.348	63.12
3304.387	65.12
3307.425	65.12
3310.459	66.12
3313.492	63.12
3316.521	62.12
3319.549	63.12
3322.574	58.12
3325.597	58.12
3328.617	52.12
3331.635	59.12
3334.65	57.12
3337.663	54.12
3340.674	55.12
3343.682	58.12
3346.688	57.12
3349.691	56.12
3352.692	53.12
3355.691	57.12
3358.687	55.12
3361.681	55.12
3364.673	54.12
3367.662	54.12
3370.649	51.12
3373.633	54.12
3376.615	47.12
3379.595	48.12
3382.572	46.12
3385.547	48.12
3388.52	44.12
3391.49	51.12
3394.458	47.12
3397.424	42.12
3400.387	37.12
3403.348	47.12
3406.307	38.12
3409.263	42.12
3412.217	44.12
3415.168	42.12
3418.118	41.12
3421.065	39.12
3424.009	34.12
3426.951	36.12
3429.891	36.12
3432.829	34.12
3435.764	34.12
3438.697	37.12
3441.628	35.12
3444.557	31.12
3447.483	28.12
3450.407	32.12
3453.328	26.12
3456.247	29.12
3459.164	23.12
3462.079	23.12
3464.991	21.12
3467.902	21.12
3470.809	21.12
3473.715	16.12
3476.618	20.12
3479.519	16.12
3482.418	10.12
3485.315	16.12
3488.209	11.12
3491.101	13.12
3493.99	15.12
3496.878	13.12
3499.763	8.12
3502.646	8.12
3505.527	6.12
3508.405	8.12
3511.281	2.12
3514.155	6.12
3517.027	6.12
3519.897	6.12
3522.764	3.12
3525.629	1.12
3528.492	-0.88
3531.352	-4.88
3534.211	-3.88
3537.067	-3.88
3539.921	-3.88
3542.773	-1.88
3545.622	-1.88
3548.469	-6.88
3551.315	-7.88
3554.157	-10.88
3556.998	-5.88
3559.837	-7.88
3562.673	-6.88
3565.507	-9.88
3568.339	-7.88
3571.169	-10.88
3573.996	-8.88
3576.822	-8.88
3579.645	-15.88
3582.466	-10.88
3585.285	-10.88
3588.101	-10.88
3590.916	-14.88
3593.728	-14.88
3596.538	-15.88
3599.346	-10.88
3602.152	-12.88
3604.956	-12.88
3607.757	-16.88
3610.556	-19.88
3613.354	-22.88
3616.149	-21.88
3618.942	-16.88
3621.732	-19.88
3624.521	-16.88
3627.307	-16.88
3630.092	-19.88
3632.874	-22.88
3635.654	-21.88
3638.432	-22.88
3641.208	-20.88
3643.982	-19.88
3646.753	-17.88
3649.523	-17.88
3652.29	-16.88
3655.055	-19.88
3657.818	-24.88
3660.579	-21.88
3663.338	-20.88
3666.095	-18.88
3668.849	-17.88
3671.602	-16.88
3674.352	-21.88
3677.101	-21.88
3679.847	-24.88
3682.591	-22.88
3685.333	-23.88
3688.073	-21.88
3690.811	-23.88
3693.547	-30.88
3696.281	-22.88
3699.013	-23.88
3701.742	-22.88
3704.47	-22.88
3707.195	-22.88
3709.919	-23.88
3712.64	-30.88
3715.359	-25.88
3718.076	-20.88
3720.792	-26.88
3723.505	-17.88
3726.216	-22.88
3728.925	-28.88
3731.632	-28.88
3734.336	-26.88
3737.039	-24.88
3739.74	-26.88
3742.439	-24.88
3745.136	-26.88
3747.83	-21.88
3750.523	-22.88
3753.213	-31.88
3755.902	-25.88
3758.589	-28.88
3761.273	-29.88
3763.956	-25.88
3766.636	-23.88
3769.315	-21.88
3771.991	-25.88
3774.665	-27.88
3777.338	-23.88
3780.008	-25.88
3782.677	-26.88
3785.343	-27.88
3788.007	-24.88
3790.67	-25.88
3793.33	-28.88
3795.989	-24.88
3798.645	-26.88
3801.299	-24.88
3803.952	-27.88
3806.602	-27.88
3809.251	-27.88
3811.897	-26.88
3814.542	-27.88
3817.184	-24.88
3819.825	-25.88
3822.463	-22.88
3825.1	-27.88
3827.735	-23.88
3830.367	-27.88
3832.998	-27.88
3835.627	-27.88
3838.253	-22.88
3840.878	-26.88
3843.501	-21.88
3846.122	-24.88
3848.741	-23.88
3851.358	-25.88
3853.973	-23.88
3856.586	-27.88
3859.197	-28.88
3861.806	-26.88
3864.414	-25.88
3867.019	-23.88
3869.622	-26.88
3872.224	-26.88
3874.823	-27.88
3877.421	-22.88
3880.016	-20.88
3882.61	-19.88
3885.202	-14.88
3887.792	-16.88
3890.38	-20.88
3892.966	-24.88
3895.55	-20.88
3898.132	-25.88
3900.713	-20.88
3903.291	-23.88
3905.868	-25.88
3908.442	-29.88
3911.015	-29.88
3913.586	-28.88
3916.155	-26.88
3918.722	-25.88
3921.287	-19.88
3923.85	-23.88
3926.411	-23.88
3928.971	-21.88
3931.528	-27.88
3934.084	-29.88
3936.638	-27.88
3939.19	-28.88
3941.74	-23.88
3944.288	-26.88
3946.834	-25.88
3949.378	-25.88
3951.921	-25.88
3954.462	-24.88
3957	-25.88
3959.537	-27.88
3962.072	-24.88
3964.606	-25.88
3967.137	-24.88
3969.667	-25.88
3972.194	-25.88
3974.72	-29.88
3977.244	-24.88
3979.766	-27.88
3982.286	-22.88
3984.805	-25.88
3987.321	-25.88
3989.836	-28.88
3992.349	-22.88
3994.86	-21.88
3997.369	-24.88
3999.877	-23.88
4002.382	-27.88
4004.886	-27.88
4007.388	-24.88
4009.888	-26.88
4012.386	-25.88
4014.883	-23.88
4017.377	-23.88
4019.87	-24.88
4022.361	-24.88
4024.85	-30.88
4027.338	-28.88
4029.823	-28.88
4032.307	-28.88
4034.789	-25.88
4037.269	-21.88
4039.747	-23.88
4042.224	-24.88
4044.699	-30.88
4047.172	-30.88
4049.643	-28.88
4052.112	-25.88
4054.58	-25.88
4057.046	-22.88
4059.51	-28.88
4061.972	-27.88
4064.432	-24.88
4066.891	-25.88
4069.348	-25.88
4071.803	-25.88
4074.256	-26.88
4076.708	-24.88
4079.158	-26.88
4081.606	-28.88
4084.052	-22.88
4086.497	-20.88
4088.939	-22.88
4091.38	-23.88
4093.819	-27.88
4096.257	-26.88
4098.693	-28.88
4101.127	-25.88
4103.559	-27.88
4105.989	-11.88
4108.418	-8.88
4110.845	-10.88
4113.27	-12.88
4115.694	-10.88
4118.115	-14.88
4120.535	-26.88
4122.954	-30.88
4125.37	-25.88
4127.785	-23.88
4130.198	-24.88
4132.609	-23.88
4135.019	-25.88
4137.427	-29.88
4139.833	-23.88
4142.237	-29.88
