Data from 100000CFU2_C_RamanShift_1.txt Node
Date: Thu Feb 02 15:13:30 IST 2017
User: aro
Spectrometer: QEPB0276
Trigger mode: 0
Integration Time (sec): 5.000000E0
Scans to average: 1
Electric dark correction enabled: true
Nonlinearity correction enabled: false
Boxcar width: 0
XAxis mode: Raman Shifts
Number of Pixels in Spectrum: 1044
>>>>>Begin Spectral Data<<<<<
160.701	-3.88
166.742	0.12
172.777	22.12
178.805	83.12
184.826	201.12
190.841	391.12
196.849	601.12
202.85	753.12
208.845	788.12
214.833	777.12
220.815	770.12
226.789	758.12
232.758	755.12
238.719	742.12
244.674	728.12
250.623	708.12
256.565	701.12
262.5	674.12
268.429	662.12
274.351	645.12
280.267	640.12
286.176	632.12
292.079	648.12
297.975	631.12
303.865	617.12
309.748	614.12
315.625	614.12
321.495	618.12
327.359	614.12
333.217	630.12
339.068	626.12
344.912	614.12
350.751	629.12
356.583	634.12
362.408	648.12
368.227	630.12
374.04	618.12
379.847	626.12
385.647	627.12
391.44	625.12
397.228	632.12
403.009	632.12
408.784	634.12
414.553	638.12
420.315	635.12
426.071	634.12
431.821	655.12
437.565	648.12
443.302	646.12
449.033	647.12
454.758	629.12
460.477	628.12
466.189	624.12
471.896	614.12
477.596	605.12
483.29	602.12
488.978	594.12
494.66	594.12
500.335	574.12
506.005	554.12
511.668	537.12
517.325	505.12
522.977	495.12
528.622	487.12
534.261	461.12
539.894	462.12
545.521	448.12
551.141	452.12
556.756	433.12
562.365	439.12
567.968	430.12
573.565	418.12
579.155	442.12
584.74	419.12
590.319	419.12
595.892	429.12
601.459	419.12
607.02	416.12
612.575	414.12
618.124	408.12
623.667	397.12
629.204	391.12
634.735	388.12
640.261	387.12
645.781	385.12
651.294	387.12
656.802	384.12
662.304	379.12
667.8	372.12
673.29	378.12
678.775	362.12
684.254	360.12
689.726	356.12
695.193	358.12
700.655	358.12
706.11	365.12
711.56	358.12
717.004	362.12
722.442	357.12
727.874	353.12
733.301	347.12
738.722	346.12
744.137	349.12
749.547	353.12
754.951	350.12
760.349	353.12
765.741	348.12
771.128	348.12
776.509	359.12
781.885	358.12
787.254	355.12
792.618	352.12
797.977	356.12
803.33	349.12
808.677	350.12
814.019	350.12
819.355	354.12
824.686	345.12
830.011	349.12
835.33	357.12
840.644	357.12
845.952	356.12
851.255	367.12
856.552	353.12
861.844	367.12
867.13	370.12
872.41	363.12
877.686	367.12
882.955	372.12
888.219	355.12
893.478	351.12
898.731	346.12
903.979	334.12
909.221	328.12
914.458	324.12
919.69	313.12
924.916	324.12
930.136	318.12
935.351	315.12
940.561	310.12
945.766	320.12
950.965	316.12
956.158	313.12
961.347	305.12
966.529	296.12
971.707	292.12
976.879	292.12
982.046	282.12
987.208	288.12
992.364	288.12
997.515	293.12
1002.66	305.12
1007.801	307.12
1012.936	303.12
1018.066	314.12
1023.19	311.12
1028.309	313.12
1033.423	312.12
1038.532	317.12
1043.636	307.12
1048.734	325.12
1053.827	314.12
1058.915	321.12
1063.998	334.12
1069.075	343.12
1074.147	346.12
1079.214	346.12
1084.276	346.12
1089.333	357.12
1094.385	344.12
1099.431	335.12
1104.472	333.12
1109.509	333.12
1114.54	310.12
1119.565	318.12
1124.586	315.12
1129.602	315.12
1134.613	309.12
1139.618	297.12
1144.619	277.12
1149.614	279.12
1154.604	277.12
1159.589	267.12
1164.57	266.12
1169.545	260.12
1174.515	257.12
1179.48	259.12
1184.44	249.12
1189.395	241.12
1194.345	234.12
1199.29	247.12
1204.23	240.12
1209.165	251.12
1214.095	250.12
1219.021	252.12
1223.941	248.12
1228.856	248.12
1233.766	251.12
1238.672	255.12
1243.572	274.12
1248.467	279.12
1253.358	273.12
1258.244	275.12
1263.124	278.12
1268	280.12
1272.871	265.12
1277.737	257.12
1282.599	255.12
1287.455	248.12
1292.306	260.12
1297.153	285.12
1301.995	297.12
1306.832	298.12
1311.664	294.12
1316.491	284.12
1321.314	279.12
1326.132	254.12
1330.945	249.12
1335.753	241.12
1340.556	244.12
1345.354	237.12
1350.148	234.12
1354.937	229.12
1359.722	232.12
1364.501	227.12
1369.276	222.12
1374.046	218.12
1378.811	228.12
1383.572	225.12
1388.327	217.12
1393.079	219.12
1397.825	202.12
1402.567	202.12
1407.304	199.12
1412.036	208.12
1416.764	201.12
1421.487	210.12
1426.205	221.12
1430.919	228.12
1435.628	247.12
1440.333	276.12
1445.032	287.12
1449.727	296.12
1454.418	285.12
1459.104	287.12
1463.785	269.12
1468.462	262.12
1473.134	242.12
1477.802	218.12
1482.465	198.12
1487.123	189.12
1491.777	177.12
1496.426	175.12
1501.071	163.12
1505.711	160.12
1510.347	157.12
1514.978	169.12
1519.604	164.12
1524.226	162.12
1528.844	164.12
1533.457	165.12
1538.065	160.12
1542.669	158.12
1547.269	156.12
1551.864	159.12
1556.454	161.12
1561.041	152.12
1565.622	155.12
1570.199	156.12
1574.772	156.12
1579.34	160.12
1583.904	161.12
1588.464	157.12
1593.019	160.12
1597.569	161.12
1602.115	152.12
1606.657	170.12
1611.195	165.12
1615.728	171.12
1620.256	166.12
1624.78	169.12
1629.3	168.12
1633.816	166.12
1638.327	174.12
1642.834	176.12
1647.336	184.12
1651.834	193.12
1656.328	193.12
1660.817	190.12
1665.302	194.12
1669.783	187.12
1674.259	172.12
1678.732	175.12
1683.199	168.12
1687.663	159.12
1692.122	150.12
1696.577	143.12
1701.028	148.12
1705.474	140.12
1709.917	128.12
1714.355	131.12
1718.788	120.12
1723.218	113.12
1727.643	118.12
1732.064	109.12
1736.481	115.12
1740.893	110.12
1745.301	111.12
1749.705	108.12
1754.105	99.12
1758.501	98.12
1762.893	92.12
1767.28	88.12
1771.663	93.12
1776.042	89.12
1780.417	85.12
1784.787	89.12
1789.154	82.12
1793.516	84.12
1797.874	85.12
1802.228	83.12
1806.578	89.12
1810.924	84.12
1815.266	84.12
1819.603	81.12
1823.937	77.12
1828.266	81.12
1832.591	74.12
1836.913	75.12
1841.23	70.12
1845.543	76.12
1849.852	69.12
1854.156	71.12
1858.457	76.12
1862.754	73.12
1867.047	70.12
1871.335	67.12
1875.62	74.12
1879.9	71.12
1884.177	73.12
1888.449	69.12
1892.718	70.12
1896.982	72.12
1901.243	73.12
1905.499	71.12
1909.752	72.12
1914	68.12
1918.245	67.12
1922.485	62.12
1926.722	73.12
1930.954	71.12
1935.183	68.12
1939.408	70.12
1943.628	70.12
1947.845	69.12
1952.058	67.12
1956.267	64.12
1960.472	67.12
1964.673	65.12
1968.87	62.12
1973.063	67.12
1977.252	62.12
1981.438	66.12
1985.619	59.12
1989.797	58.12
1993.971	61.12
1998.14	58.12
2002.306	64.12
2006.469	59.12
2010.627	59.12
2014.781	61.12
2018.932	63.12
2023.078	60.12
2027.221	60.12
2031.36	55.12
2035.495	54.12
2039.627	58.12
2043.754	57.12
2047.878	56.12
2051.998	57.12
2056.114	58.12
2060.226	51.12
2064.334	53.12
2068.439	55.12
2072.54	53.12
2076.637	55.12
2080.73	59.12
2084.82	60.12
2088.906	64.12
2092.988	56.12
2097.066	54.12
2101.14	62.12
2105.211	54.12
2109.278	54.12
2113.342	55.12
2117.401	58.12
2121.457	63.12
2125.509	56.12
2129.558	52.12
2133.602	50.12
2137.643	56.12
2141.681	45.12
2145.714	50.12
2149.744	51.12
2153.77	50.12
2157.793	45.12
2161.812	49.12
2165.827	43.12
2169.838	42.12
2173.846	44.12
2177.851	39.12
2181.851	47.12
2185.848	42.12
2189.841	39.12
2193.831	41.12
2197.817	40.12
2201.799	42.12
2205.778	40.12
2209.753	38.12
2213.725	41.12
2217.693	41.12
2221.657	35.12
2225.618	37.12
2229.575	34.12
2233.529	32.12
2237.479	34.12
2241.425	38.12
2245.368	37.12
2249.307	34.12
2253.243	31.12
2257.175	33.12
2261.104	30.12
2265.029	34.12
2268.95	30.12
2272.868	34.12
2276.783	26.12
2280.694	28.12
2284.601	21.12
2288.505	26.12
2292.405	26.12
2296.302	27.12
2300.195	25.12
2304.085	26.12
2307.971	29.12
2311.854	20.12
2315.734	22.12
2319.609	21.12
2323.482	19.12
2327.351	27.12
2331.216	26.12
2335.078	25.12
2338.937	25.12
2342.792	20.12
2346.643	21.12
2350.492	19.12
2354.336	15.12
2358.178	19.12
2362.015	18.12
2365.85	16.12
2369.681	15.12
2373.508	18.12
2377.333	19.12
2381.153	18.12
2384.971	16.12
2388.785	16.12
2392.595	15.12
2396.402	14.12
2400.206	15.12
2404.007	15.12
2407.804	20.12
2411.597	15.12
2415.388	12.12
2419.174	16.12
2422.958	14.12
2426.738	8.12
2430.515	10.12
2434.289	12.12
2438.059	18.12
2441.825	13.12
2445.589	15.12
2449.349	12.12
2453.106	8.12
2456.859	7.12
2460.61	9.12
2464.356	13.12
2468.1	11.12
2471.84	12.12
2475.577	13.12
2479.311	9.12
2483.041	11.12
2486.768	8.12
2490.492	13.12
2494.213	4.12
2497.93	7.12
2501.644	4.12
2505.355	8.12
2509.062	8.12
2512.766	9.12
2516.467	9.12
2520.165	10.12
2523.859	5.12
2527.551	6.12
2531.239	11.12
2534.923	5.12
2538.605	6.12
2542.283	7.12
2545.958	9.12
2549.63	10.12
2553.299	11.12
2556.964	10.12
2560.626	10.12
2564.285	3.12
2567.941	2.12
2571.594	8.12
2575.243	7.12
2578.89	11.12
2582.533	9.12
2586.173	10.12
2589.809	7.12
2593.443	6.12
2597.073	4.12
2600.701	4.12
2604.325	7.12
2607.946	8.12
2611.564	6.12
2615.178	12.12
2618.79	8.12
2622.398	7.12
2626.004	8.12
2629.606	10.12
2633.205	10.12
2636.801	7.12
2640.394	4.12
2643.983	7.12
2647.57	6.12
2651.153	6.12
2654.734	3.12
2658.311	10.12
2661.885	7.12
2665.456	7.12
2669.025	5.12
2672.589	-1.88
2676.151	2.12
2679.71	6.12
2683.266	5.12
2686.819	10.12
2690.368	4.12
2693.915	3.12
2697.458	5.12
2700.999	0.12
2704.536	3.12
2708.071	5.12
2711.602	4.12
2715.13	6.12
2718.656	10.12
2722.178	5.12
2725.697	6.12
2729.214	7.12
2732.727	8.12
2736.237	8.12
2739.744	10.12
2743.249	13.12
2746.75	7.12
2750.248	8.12
2753.743	7.12
2757.236	11.12
2760.725	6.12
2764.211	11.12
2767.695	6.12
2771.175	9.12
2774.652	3.12
2778.127	5.12
2781.598	5.12
2785.067	10.12
2788.532	8.12
2791.995	12.12
2795.455	5.12
2798.911	8.12
2802.365	6.12
2805.816	9.12
2809.264	12.12
2812.709	12.12
2816.151	14.12
2819.59	19.12
2823.026	15.12
2826.46	20.12
2829.89	24.12
2833.318	20.12
2836.742	28.12
2840.164	42.12
2843.583	43.12
2846.999	54.12
2850.412	64.12
2853.822	76.12
2857.229	80.12
2860.634	82.12
2864.035	80.12
2867.434	84.12
2870.83	83.12
2874.223	88.12
2877.613	98.12
2881	95.12
2884.385	110.12
2887.766	107.12
2891.145	108.12
2894.521	105.12
2897.894	101.12
2901.264	100.12
2904.631	98.12
2907.996	97.12
2911.358	96.12
2914.717	98.12
2918.073	92.12
2921.426	93.12
2924.777	95.12
2928.124	94.12
2931.469	91.12
2934.811	88.12
2938.15	86.12
2941.487	87.12
2944.821	85.12
2948.152	77.12
2951.48	75.12
2954.805	67.12
2958.128	67.12
2961.447	65.12
2964.765	57.12
2968.079	55.12
2971.39	62.12
2974.699	52.12
2978.005	51.12
2981.308	46.12
2984.609	47.12
2987.907	42.12
2991.202	43.12
2994.494	34.12
2997.784	39.12
3001.07	36.12
3004.355	41.12
3007.636	36.12
3010.915	40.12
3014.191	34.12
3017.464	32.12
3020.734	32.12
3024.002	31.12
3027.267	27.12
3030.53	31.12
3033.789	34.12
3037.046	29.12
3040.301	34.12
3043.552	28.12
3046.801	30.12
3050.048	36.12
3053.291	38.12
3056.532	37.12
3059.771	37.12
3063.006	40.12
3066.239	42.12
3069.469	40.12
3072.697	40.12
3075.922	46.12
3079.144	45.12
3082.364	46.12
3085.581	46.12
3088.795	49.12
3092.007	46.12
3095.216	50.12
3098.423	57.12
3101.627	56.12
3104.828	57.12
3108.026	59.12
3111.222	60.12
3114.416	54.12
3117.607	60.12
3120.795	63.12
3123.98	65.12
3127.163	70.12
3130.344	67.12
3133.521	68.12
3136.696	69.12
3139.869	72.12
3143.039	77.12
3146.206	76.12
3149.371	80.12
3152.533	78.12
3155.693	78.12
3158.85	75.12
3162.005	79.12
3165.157	79.12
3168.306	83.12
3171.453	79.12
3174.597	76.12
3177.739	77.12
3180.878	75.12
3184.014	79.12
3187.149	77.12
3190.28	81.12
3193.409	85.12
3196.536	80.12
3199.659	81.12
3202.781	76.12
3205.9	79.12
3209.016	79.12
3212.13	85.12
3215.241	84.12
3218.35	81.12
3221.456	79.12
3224.56	75.12
3227.661	76.12
3230.76	76.12
3233.856	73.12
3236.95	74.12
3240.041	72.12
3243.13	79.12
3246.216	76.12
3249.3	76.12
3252.382	73.12
3255.46	75.12
3258.537	74.12
3261.611	70.12
3264.682	67.12
3267.751	68.12
3270.818	67.12
3273.882	65.12
3276.943	72.12
3280.002	69.12
3283.059	70.12
3286.113	69.12
3289.165	65.12
3292.214	58.12
3295.261	60.12
3298.306	68.12
3301.348	61.12
3304.387	60.12
3307.425	57.12
3310.459	57.12
3313.492	58.12
3316.521	48.12
3319.549	54.12
3322.574	56.12
3325.597	58.12
3328.617	54.12
3331.635	53.12
3334.65	57.12
3337.663	55.12
3340.674	53.12
3343.682	52.12
3346.688	52.12
3349.691	55.12
3352.692	52.12
3355.691	54.12
3358.687	51.12
3361.681	49.12
3364.673	52.12
3367.662	53.12
3370.649	49.12
3373.633	46.12
3376.615	41.12
3379.595	42.12
3382.572	41.12
3385.547	47.12
3388.52	40.12
3391.49	45.12
3394.458	42.12
3397.424	38.12
3400.387	36.12
3403.348	37.12
3406.307	35.12
3409.263	37.12
3412.217	42.12
3415.168	39.12
3418.118	40.12
3421.065	39.12
3424.009	32.12
3426.951	34.12
3429.891	31.12
3432.829	36.12
3435.764	33.12
3438.697	35.12
3441.628	26.12
3444.557	29.12
3447.483	26.12
3450.407	30.12
3453.328	27.12
3456.247	27.12
3459.164	26.12
3462.079	20.12
3464.991	23.12
3467.902	20.12
3470.809	21.12
3473.715	23.12
3476.618	18.12
3479.519	15.12
3482.418	6.12
3485.315	12.12
3488.209	12.12
3491.101	10.12
3493.99	15.12
3496.878	12.12
3499.763	15.12
3502.646	7.12
3505.527	4.12
3508.405	6.12
3511.281	4.12
3514.155	7.12
3517.027	7.12
3519.897	9.12
3522.764	7.12
3525.629	2.12
3528.492	-0.88
3531.352	-1.88
3534.211	-0.88
3537.067	0.12
3539.921	0.12
3542.773	-3.88
3545.622	-2.88
3548.469	-6.88
3551.315	-7.88
3554.157	-8.88
3556.998	-6.88
3559.837	-4.88
3562.673	-3.88
3565.507	-6.88
3568.339	-7.88
3571.169	-7.88
3573.996	-5.88
3576.822	-9.88
3579.645	-13.88
3582.466	-7.88
3585.285	-8.88
3588.101	-6.88
3590.916	-13.88
3593.728	-12.88
3596.538	-14.88
3599.346	-12.88
3602.152	-13.88
3604.956	-11.88
3607.757	-11.88
3610.556	-14.88
3613.354	-17.88
3616.149	-16.88
3618.942	-13.88
3621.732	-17.88
3624.521	-14.88
3627.307	-11.88
3630.092	-17.88
3632.874	-20.88
3635.654	-17.88
3638.432	-20.88
3641.208	-16.88
3643.982	-16.88
3646.753	-14.88
3649.523	-14.88
3652.29	-14.88
3655.055	-21.88
3657.818	-20.88
3660.579	-18.88
3663.338	-18.88
3666.095	-15.88
3668.849	-14.88
3671.602	-17.88
3674.352	-23.88
3677.101	-21.88
3679.847	-22.88
3682.591	-22.88
3685.333	-22.88
3688.073	-18.88
3690.811	-21.88
3693.547	-22.88
3696.281	-20.88
3699.013	-22.88
3701.742	-23.88
3704.47	-20.88
3707.195	-23.88
3709.919	-22.88
3712.64	-25.88
3715.359	-21.88
3718.076	-18.88
3720.792	-25.88
3723.505	-16.88
3726.216	-19.88
3728.925	-23.88
3731.632	-22.88
3734.336	-24.88
3737.039	-20.88
3739.74	-21.88
3742.439	-18.88
3745.136	-21.88
3747.83	-19.88
3750.523	-19.88
3753.213	-28.88
3755.902	-21.88
3758.589	-25.88
3761.273	-22.88
3763.956	-22.88
3766.636	-20.88
3769.315	-18.88
3771.991	-24.88
3774.665	-25.88
3777.338	-24.88
3780.008	-25.88
3782.677	-22.88
3785.343	-23.88
3788.007	-21.88
3790.67	-18.88
3793.33	-23.88
3795.989	-24.88
3798.645	-23.88
3801.299	-23.88
3803.952	-22.88
3806.602	-25.88
3809.251	-22.88
3811.897	-22.88
3814.542	-24.88
3817.184	-20.88
3819.825	-23.88
3822.463	-20.88
3825.1	-21.88
3827.735	-20.88
3830.367	-26.88
3832.998	-23.88
3835.627	-22.88
3838.253	-18.88
3840.878	-24.88
3843.501	-18.88
3846.122	-26.88
3848.741	-22.88
3851.358	-26.88
3853.973	-23.88
3856.586	-22.88
3859.197	-22.88
3861.806	-20.88
3864.414	-22.88
3867.019	-18.88
3869.622	-23.88
3872.224	-25.88
3874.823	-25.88
3877.421	-20.88
3880.016	-20.88
3882.61	-15.88
3885.202	-10.88
3887.792	-11.88
3890.38	-16.88
3892.966	-20.88
3895.55	-22.88
3898.132	-22.88
3900.713	-20.88
3903.291	-24.88
3905.868	-23.88
3908.442	-23.88
3911.015	-23.88
3913.586	-27.88
3916.155	-23.88
3918.722	-23.88
3921.287	-19.88
3923.85	-22.88
3926.411	-23.88
3928.971	-22.88
3931.528	-27.88
3934.084	-27.88
3936.638	-25.88
3939.19	-21.88
3941.74	-20.88
3944.288	-23.88
3946.834	-24.88
3949.378	-25.88
3951.921	-21.88
3954.462	-23.88
3957	-25.88
3959.537	-19.88
3962.072	-22.88
3964.606	-21.88
3967.137	-21.88
3969.667	-22.88
3972.194	-23.88
3974.72	-25.88
3977.244	-21.88
3979.766	-23.88
3982.286	-21.88
3984.805	-21.88
3987.321	-23.88
3989.836	-24.88
3992.349	-21.88
3994.86	-22.88
3997.369	-21.88
3999.877	-22.88
4002.382	-21.88
4004.886	-22.88
4007.388	-24.88
4009.888	-25.88
4012.386	-20.88
4014.883	-21.88
4017.377	-20.88
4019.87	-21.88
4022.361	-19.88
4024.85	-25.88
4027.338	-26.88
4029.823	-25.88
4032.307	-26.88
4034.789	-20.88
4037.269	-20.88
4039.747	-20.88
4042.224	-20.88
4044.699	-26.88
4047.172	-25.88
4049.643	-24.88
4052.112	-21.88
4054.58	-20.88
4057.046	-18.88
4059.51	-22.88
4061.972	-23.88
4064.432	-21.88
4066.891	-22.88
4069.348	-23.88
4071.803	-21.88
4074.256	-25.88
4076.708	-24.88
4079.158	-23.88
4081.606	-19.88
4084.052	-19.88
4086.497	-19.88
4088.939	-21.88
4091.38	-21.88
4093.819	-22.88
4096.257	-23.88
4098.693	-27.88
4101.127	-26.88
4103.559	-25.88
4105.989	-6.88
4108.418	-11.88
4110.845	-5.88
4113.27	-8.88
4115.694	-4.88
4118.115	-13.88
4120.535	-22.88
4122.954	-24.88
4125.37	-24.88
4127.785	-18.88
4130.198	-20.88
4132.609	-21.88
4135.019	-24.88
4137.427	-26.88
4139.833	-25.88
4142.237	-23.88
