Data from 10000000CFU1_A_RamanShift_1.txt Node
Date: Thu Feb 02 14:02:15 IST 2017
User: aro
Spectrometer: QEPB0276
Trigger mode: 0
Integration Time (sec): 5.000000E0
Scans to average: 1
Electric dark correction enabled: true
Nonlinearity correction enabled: false
Boxcar width: 0
XAxis mode: Raman Shifts
Number of Pixels in Spectrum: 1044
>>>>>Begin Spectral Data<<<<<
160.701	-1.62
166.742	3.38
172.777	26.38
178.805	84.38
184.826	216.38
190.841	414.38
196.849	646.38
202.85	795.38
208.845	845.38
214.833	834.38
220.815	817.38
226.789	798.38
232.758	796.38
238.719	792.38
244.674	781.38
250.623	775.38
256.565	740.38
262.5	727.38
268.429	712.38
274.351	706.38
280.267	697.38
286.176	676.38
292.079	676.38
297.975	667.38
303.865	659.38
309.748	662.38
315.625	659.38
321.495	642.38
327.359	643.38
333.217	654.38
339.068	656.38
344.912	671.38
350.751	671.38
356.583	687.38
362.408	684.38
368.227	673.38
374.04	671.38
379.847	663.38
385.647	664.38
391.44	657.38
397.228	675.38
403.009	677.38
408.784	681.38
414.553	671.38
420.315	681.38
426.071	681.38
431.821	690.38
437.565	680.38
443.302	679.38
449.033	680.38
454.758	666.38
460.477	672.38
466.189	676.38
471.896	657.38
477.596	661.38
483.29	646.38
488.978	633.38
494.66	614.38
500.335	613.38
506.005	600.38
511.668	570.38
517.325	553.38
522.977	528.38
528.622	514.38
534.261	508.38
539.894	498.38
545.521	489.38
551.141	483.38
556.756	478.38
562.365	453.38
567.968	463.38
573.565	454.38
579.155	457.38
584.74	450.38
590.319	457.38
595.892	445.38
601.459	457.38
607.02	437.38
612.575	447.38
618.124	439.38
623.667	433.38
629.204	431.38
634.735	418.38
640.261	414.38
645.781	422.38
651.294	410.38
656.802	413.38
662.304	396.38
667.8	396.38
673.29	399.38
678.775	394.38
684.254	398.38
689.726	393.38
695.193	390.38
700.655	385.38
706.11	385.38
711.56	388.38
717.004	392.38
722.442	383.38
727.874	377.38
733.301	374.38
738.722	380.38
744.137	367.38
749.547	375.38
754.951	370.38
760.349	375.38
765.741	378.38
771.128	371.38
776.509	380.38
781.885	374.38
787.254	370.38
792.618	378.38
797.977	378.38
803.33	376.38
808.677	378.38
814.019	371.38
819.355	381.38
824.686	374.38
830.011	376.38
835.33	392.38
840.644	387.38
845.952	378.38
851.255	387.38
856.552	385.38
861.844	394.38
867.13	390.38
872.41	390.38
877.686	390.38
882.955	391.38
888.219	382.38
893.478	385.38
898.731	363.38
903.979	368.38
909.221	352.38
914.458	345.38
919.69	341.38
924.916	346.38
930.136	327.38
935.351	340.38
940.561	340.38
945.766	336.38
950.965	338.38
956.158	335.38
961.347	339.38
966.529	316.38
971.707	312.38
976.879	309.38
982.046	310.38
987.208	306.38
992.364	307.38
997.515	317.38
1002.66	323.38
1007.801	326.38
1012.936	330.38
1018.066	341.38
1023.19	338.38
1028.309	340.38
1033.423	347.38
1038.532	337.38
1043.636	335.38
1048.734	341.38
1053.827	336.38
1058.915	349.38
1063.998	352.38
1069.075	361.38
1074.147	376.38
1079.214	370.38
1084.276	369.38
1089.333	376.38
1094.385	364.38
1099.431	362.38
1104.472	363.38
1109.509	350.38
1114.54	341.38
1119.565	339.38
1124.586	340.38
1129.602	340.38
1134.613	326.38
1139.618	323.38
1144.619	297.38
1149.614	292.38
1154.604	296.38
1159.589	291.38
1164.57	286.38
1169.545	280.38
1174.515	276.38
1179.48	272.38
1184.44	264.38
1189.395	268.38
1194.345	257.38
1199.29	259.38
1204.23	267.38
1209.165	260.38
1214.095	266.38
1219.021	263.38
1223.941	263.38
1228.856	267.38
1233.766	274.38
1238.672	279.38
1243.572	290.38
1248.467	287.38
1253.358	278.38
1258.244	300.38
1263.124	294.38
1268	291.38
1272.871	292.38
1277.737	281.38
1282.599	280.38
1287.455	286.38
1292.306	289.38
1297.153	298.38
1301.995	314.38
1306.832	318.38
1311.664	311.38
1316.491	301.38
1321.314	288.38
1326.132	277.38
1330.945	270.38
1335.753	256.38
1340.556	250.38
1345.354	257.38
1350.148	246.38
1354.937	243.38
1359.722	238.38
1364.501	236.38
1369.276	236.38
1374.046	240.38
1378.811	240.38
1383.572	237.38
1388.327	236.38
1393.079	223.38
1397.825	224.38
1402.567	218.38
1407.304	214.38
1412.036	216.38
1416.764	221.38
1421.487	231.38
1426.205	233.38
1430.919	243.38
1435.628	262.38
1440.333	288.38
1445.032	306.38
1449.727	317.38
1454.418	314.38
1459.104	304.38
1463.785	296.38
1468.462	279.38
1473.134	256.38
1477.802	237.38
1482.465	211.38
1487.123	197.38
1491.777	180.38
1496.426	182.38
1501.071	178.38
1505.711	176.38
1510.347	175.38
1514.978	175.38
1519.604	171.38
1524.226	169.38
1528.844	165.38
1533.457	174.38
1538.065	175.38
1542.669	175.38
1547.269	164.38
1551.864	168.38
1556.454	168.38
1561.041	168.38
1565.622	161.38
1570.199	159.38
1574.772	170.38
1579.34	171.38
1583.904	168.38
1588.464	169.38
1593.019	171.38
1597.569	166.38
1602.115	175.38
1606.657	179.38
1611.195	182.38
1615.728	178.38
1620.256	177.38
1624.78	190.38
1629.3	180.38
1633.816	182.38
1638.327	179.38
1642.834	192.38
1647.336	195.38
1651.834	203.38
1656.328	206.38
1660.817	207.38
1665.302	208.38
1669.783	194.38
1674.259	190.38
1678.732	183.38
1683.199	179.38
1687.663	170.38
1692.122	150.38
1696.577	154.38
1701.028	146.38
1705.474	136.38
1709.917	134.38
1714.355	138.38
1718.788	129.38
1723.218	125.38
1727.643	126.38
1732.064	117.38
1736.481	116.38
1740.893	113.38
1745.301	117.38
1749.705	112.38
1754.105	110.38
1758.501	101.38
1762.893	102.38
1767.28	98.38
1771.663	89.38
1776.042	98.38
1780.417	91.38
1784.787	90.38
1789.154	87.38
1793.516	93.38
1797.874	91.38
1802.228	91.38
1806.578	91.38
1810.924	89.38
1815.266	86.38
1819.603	85.38
1823.937	87.38
1828.266	79.38
1832.591	76.38
1836.913	77.38
1841.23	71.38
1845.543	78.38
1849.852	76.38
1854.156	75.38
1858.457	80.38
1862.754	76.38
1867.047	71.38
1871.335	76.38
1875.62	78.38
1879.9	70.38
1884.177	70.38
1888.449	71.38
1892.718	76.38
1896.982	76.38
1901.243	72.38
1905.499	76.38
1909.752	70.38
1914	72.38
1918.245	70.38
1922.485	69.38
1926.722	78.38
1930.954	73.38
1935.183	74.38
1939.408	73.38
1943.628	72.38
1947.845	71.38
1952.058	68.38
1956.267	76.38
1960.472	68.38
1964.673	71.38
1968.87	67.38
1973.063	73.38
1977.252	61.38
1981.438	68.38
1985.619	63.38
1989.797	60.38
1993.971	64.38
1998.14	63.38
2002.306	65.38
2006.469	60.38
2010.627	59.38
2014.781	64.38
2018.932	60.38
2023.078	61.38
2027.221	63.38
2031.36	59.38
2035.495	59.38
2039.627	59.38
2043.754	60.38
2047.878	57.38
2051.998	57.38
2056.114	54.38
2060.226	53.38
2064.334	54.38
2068.439	55.38
2072.54	61.38
2076.637	60.38
2080.73	59.38
2084.82	61.38
2088.906	65.38
2092.988	55.38
2097.066	51.38
2101.14	62.38
2105.211	56.38
2109.278	55.38
2113.342	56.38
2117.401	57.38
2121.457	54.38
2125.509	52.38
2129.558	55.38
2133.602	53.38
2137.643	53.38
2141.681	52.38
2145.714	56.38
2149.744	52.38
2153.77	52.38
2157.793	48.38
2161.812	48.38
2165.827	44.38
2169.838	44.38
2173.846	45.38
2177.851	43.38
2181.851	52.38
2185.848	48.38
2189.841	41.38
2193.831	44.38
2197.817	39.38
2201.799	37.38
2205.778	40.38
2209.753	41.38
2213.725	45.38
2217.693	44.38
2221.657	38.38
2225.618	34.38
2229.575	37.38
2233.529	37.38
2237.479	39.38
2241.425	41.38
2245.368	37.38
2249.307	35.38
2253.243	35.38
2257.175	28.38
2261.104	27.38
2265.029	34.38
2268.95	33.38
2272.868	35.38
2276.783	30.38
2280.694	34.38
2284.601	24.38
2288.505	26.38
2292.405	25.38
2296.302	26.38
2300.195	25.38
2304.085	28.38
2307.971	31.38
2311.854	21.38
2315.734	21.38
2319.609	18.38
2323.482	23.38
2327.351	24.38
2331.216	25.38
2335.078	25.38
2338.937	25.38
2342.792	20.38
2346.643	19.38
2350.492	19.38
2354.336	16.38
2358.178	19.38
2362.015	14.38
2365.85	17.38
2369.681	18.38
2373.508	17.38
2377.333	18.38
2381.153	19.38
2384.971	15.38
2388.785	14.38
2392.595	15.38
2396.402	13.38
2400.206	16.38
2404.007	15.38
2407.804	20.38
2411.597	13.38
2415.388	13.38
2419.174	14.38
2422.958	10.38
2426.738	10.38
2430.515	11.38
2434.289	16.38
2438.059	16.38
2441.825	14.38
2445.589	14.38
2449.349	13.38
2453.106	8.38
2456.859	7.38
2460.61	11.38
2464.356	16.38
2468.1	14.38
2471.84	13.38
2475.577	12.38
2479.311	7.38
2483.041	9.38
2486.768	6.38
2490.492	8.38
2494.213	10.38
2497.93	11.38
2501.644	10.38
2505.355	8.38
2509.062	9.38
2512.766	8.38
2516.467	9.38
2520.165	6.38
2523.859	9.38
2527.551	8.38
2531.239	15.38
2534.923	10.38
2538.605	9.38
2542.283	4.38
2545.958	6.38
2549.63	9.38
2553.299	6.38
2556.964	8.38
2560.626	11.38
2564.285	6.38
2567.941	9.38
2571.594	9.38
2575.243	7.38
2578.89	6.38
2582.533	6.38
2586.173	11.38
2589.809	5.38
2593.443	13.38
2597.073	5.38
2600.701	6.38
2604.325	8.38
2607.946	9.38
2611.564	5.38
2615.178	4.38
2618.79	8.38
2622.398	10.38
2626.004	10.38
2629.606	8.38
2633.205	6.38
2636.801	5.38
2640.394	6.38
2643.983	2.38
2647.57	3.38
2651.153	5.38
2654.734	7.38
2658.311	6.38
2661.885	8.38
2665.456	6.38
2669.025	3.38
2672.589	-1.62
2676.151	5.38
2679.71	6.38
2683.266	8.38
2686.819	8.38
2690.368	4.38
2693.915	4.38
2697.458	9.38
2700.999	0.38
2704.536	6.38
2708.071	4.38
2711.602	5.38
2715.13	5.38
2718.656	7.38
2722.178	8.38
2725.697	2.38
2729.214	4.38
2732.727	10.38
2736.237	11.38
2739.744	12.38
2743.249	8.38
2746.75	10.38
2750.248	7.38
2753.743	4.38
2757.236	5.38
2760.725	6.38
2764.211	12.38
2767.695	5.38
2771.175	8.38
2774.652	4.38
2778.127	5.38
2781.598	7.38
2785.067	5.38
2788.532	8.38
2791.995	7.38
2795.455	11.38
2798.911	5.38
2802.365	6.38
2805.816	7.38
2809.264	13.38
2812.709	12.38
2816.151	13.38
2819.59	16.38
2823.026	17.38
2826.46	23.38
2829.89	24.38
2833.318	25.38
2836.742	29.38
2840.164	34.38
2843.583	46.38
2846.999	56.38
2850.412	70.38
2853.822	81.38
2857.229	87.38
2860.634	91.38
2864.035	84.38
2867.434	88.38
2870.83	89.38
2874.223	96.38
2877.613	99.38
2881	101.38
2884.385	115.38
2887.766	117.38
2891.145	118.38
2894.521	119.38
2897.894	105.38
2901.264	104.38
2904.631	102.38
2907.996	111.38
2911.358	106.38
2914.717	102.38
2918.073	102.38
2921.426	95.38
2924.777	101.38
2928.124	94.38
2931.469	95.38
2934.811	95.38
2938.15	95.38
2941.487	93.38
2944.821	92.38
2948.152	81.38
2951.48	79.38
2954.805	77.38
2958.128	73.38
2961.447	69.38
2964.765	60.38
2968.079	64.38
2971.39	52.38
2974.699	55.38
2978.005	52.38
2981.308	47.38
2984.609	52.38
2987.907	47.38
2991.202	51.38
2994.494	42.38
2997.784	39.38
3001.07	37.38
3004.355	41.38
3007.636	40.38
3010.915	43.38
3014.191	43.38
3017.464	37.38
3020.734	30.38
3024.002	31.38
3027.267	28.38
3030.53	32.38
3033.789	36.38
3037.046	33.38
3040.301	32.38
3043.552	35.38
3046.801	35.38
3050.048	34.38
3053.291	36.38
3056.532	37.38
3059.771	40.38
3063.006	41.38
3066.239	46.38
3069.469	47.38
3072.697	42.38
3075.922	51.38
3079.144	48.38
3082.364	48.38
3085.581	48.38
3088.795	55.38
3092.007	52.38
3095.216	61.38
3098.423	55.38
3101.627	56.38
3104.828	59.38
3108.026	57.38
3111.222	61.38
3114.416	65.38
3117.607	65.38
3120.795	65.38
3123.98	72.38
3127.163	69.38
3130.344	66.38
3133.521	73.38
3136.696	69.38
3139.869	72.38
3143.039	83.38
3146.206	85.38
3149.371	87.38
3152.533	84.38
3155.693	79.38
3158.85	79.38
3162.005	81.38
3165.157	90.38
3168.306	83.38
3171.453	89.38
3174.597	85.38
3177.739	79.38
3180.878	84.38
3184.014	83.38
3187.149	82.38
3190.28	88.38
3193.409	92.38
3196.536	87.38
3199.659	85.38
3202.781	85.38
3205.9	86.38
3209.016	86.38
3212.13	92.38
3215.241	86.38
3218.35	85.38
3221.456	88.38
3224.56	82.38
3227.661	80.38
3230.76	78.38
3233.856	80.38
3236.95	78.38
3240.041	79.38
3243.13	82.38
3246.216	78.38
3249.3	79.38
3252.382	82.38
3255.46	75.38
3258.537	77.38
3261.611	79.38
3264.682	74.38
3267.751	74.38
3270.818	75.38
3273.882	68.38
3276.943	69.38
3280.002	67.38
3283.059	76.38
3286.113	72.38
3289.165	73.38
3292.214	70.38
3295.261	65.38
3298.306	70.38
3301.348	66.38
3304.387	60.38
3307.425	59.38
3310.459	64.38
3313.492	65.38
3316.521	56.38
3319.549	61.38
3322.574	57.38
3325.597	61.38
3328.617	55.38
3331.635	52.38
3334.65	61.38
3337.663	50.38
3340.674	52.38
3343.682	58.38
3346.688	54.38
3349.691	58.38
3352.692	52.38
3355.691	55.38
3358.687	59.38
3361.681	52.38
3364.673	55.38
3367.662	57.38
3370.649	51.38
3373.633	55.38
3376.615	45.38
3379.595	42.38
3382.572	46.38
3385.547	51.38
3388.52	48.38
3391.49	48.38
3394.458	46.38
3397.424	41.38
3400.387	36.38
3403.348	40.38
3406.307	41.38
3409.263	40.38
3412.217	43.38
3415.168	40.38
3418.118	36.38
3421.065	37.38
3424.009	32.38
3426.951	40.38
3429.891	36.38
3432.829	39.38
3435.764	35.38
3438.697	37.38
3441.628	33.38
3444.557	28.38
3447.483	28.38
3450.407	29.38
3453.328	28.38
3456.247	27.38
3459.164	26.38
3462.079	24.38
3464.991	23.38
3467.902	19.38
3470.809	21.38
3473.715	17.38
3476.618	18.38
3479.519	17.38
3482.418	14.38
3485.315	17.38
3488.209	14.38
3491.101	10.38
3493.99	12.38
3496.878	11.38
3499.763	9.38
3502.646	9.38
3505.527	9.38
3508.405	10.38
3511.281	8.38
3514.155	10.38
3517.027	6.38
3519.897	7.38
3522.764	1.38
3525.629	2.38
3528.492	0.38
3531.352	1.38
3534.211	-2.62
3537.067	-2.62
3539.921	-2.62
3542.773	-0.62
3545.622	-4.62
3548.469	-9.62
3551.315	-12.62
3554.157	-8.62
3556.998	-6.62
3559.837	-3.62
3562.673	-4.62
3565.507	-11.62
3568.339	-10.62
3571.169	-12.62
3573.996	-12.62
3576.822	-13.62
3579.645	-13.62
3582.466	-8.62
3585.285	-8.62
3588.101	-9.62
3590.916	-13.62
3593.728	-15.62
3596.538	-19.62
3599.346	-17.62
3602.152	-17.62
3604.956	-12.62
3607.757	-14.62
3610.556	-13.62
3613.354	-15.62
3616.149	-19.62
3618.942	-19.62
3621.732	-20.62
3624.521	-20.62
3627.307	-16.62
3630.092	-17.62
3632.874	-18.62
3635.654	-18.62
3638.432	-19.62
3641.208	-17.62
3643.982	-20.62
3646.753	-18.62
3649.523	-21.62
3652.29	-20.62
3655.055	-21.62
3657.818	-24.62
3660.579	-17.62
3663.338	-20.62
3666.095	-18.62
3668.849	-20.62
3671.602	-20.62
3674.352	-24.62
3677.101	-20.62
3679.847	-23.62
3682.591	-21.62
3685.333	-22.62
3688.073	-23.62
3690.811	-24.62
3693.547	-29.62
3696.281	-20.62
3699.013	-23.62
3701.742	-23.62
3704.47	-20.62
3707.195	-24.62
3709.919	-23.62
3712.64	-30.62
3715.359	-22.62
3718.076	-21.62
3720.792	-24.62
3723.505	-21.62
3726.216	-21.62
3728.925	-28.62
3731.632	-25.62
3734.336	-29.62
3737.039	-22.62
3739.74	-25.62
3742.439	-23.62
3745.136	-22.62
3747.83	-22.62
3750.523	-22.62
3753.213	-27.62
3755.902	-26.62
3758.589	-27.62
3761.273	-24.62
3763.956	-25.62
3766.636	-19.62
3769.315	-21.62
3771.991	-25.62
3774.665	-28.62
3777.338	-25.62
3780.008	-27.62
3782.677	-26.62
3785.343	-23.62
3788.007	-22.62
3790.67	-20.62
3793.33	-26.62
3795.989	-29.62
3798.645	-27.62
3801.299	-25.62
3803.952	-28.62
3806.602	-25.62
3809.251	-26.62
3811.897	-21.62
3814.542	-24.62
3817.184	-23.62
3819.825	-25.62
3822.463	-21.62
3825.1	-27.62
3827.735	-23.62
3830.367	-26.62
3832.998	-23.62
3835.627	-24.62
3838.253	-23.62
3840.878	-27.62
3843.501	-21.62
3846.122	-27.62
3848.741	-24.62
3851.358	-24.62
3853.973	-22.62
3856.586	-25.62
3859.197	-25.62
3861.806	-24.62
3864.414	-26.62
3867.019	-27.62
3869.622	-26.62
3872.224	-30.62
3874.823	-26.62
3877.421	-21.62
3880.016	-21.62
3882.61	-18.62
3885.202	-12.62
3887.792	-15.62
3890.38	-24.62
3892.966	-24.62
3895.55	-24.62
3898.132	-23.62
3900.713	-21.62
3903.291	-23.62
3905.868	-22.62
3908.442	-25.62
3911.015	-28.62
3913.586	-30.62
3916.155	-27.62
3918.722	-24.62
3921.287	-19.62
3923.85	-26.62
3926.411	-25.62
3928.971	-23.62
3931.528	-29.62
3934.084	-31.62
3936.638	-28.62
3939.19	-27.62
3941.74	-21.62
3944.288	-25.62
3946.834	-27.62
3949.378	-29.62
3951.921	-26.62
3954.462	-25.62
3957	-26.62
3959.537	-25.62
3962.072	-22.62
3964.606	-23.62
3967.137	-22.62
3969.667	-27.62
3972.194	-28.62
3974.72	-28.62
3977.244	-23.62
3979.766	-24.62
3982.286	-19.62
3984.805	-21.62
3987.321	-25.62
3989.836	-29.62
3992.349	-24.62
3994.86	-27.62
3997.369	-26.62
3999.877	-23.62
4002.382	-23.62
4004.886	-23.62
4007.388	-25.62
4009.888	-26.62
4012.386	-26.62
4014.883	-27.62
4017.377	-24.62
4019.87	-24.62
4022.361	-19.62
4024.85	-27.62
4027.338	-26.62
4029.823	-28.62
4032.307	-26.62
4034.789	-24.62
4037.269	-25.62
4039.747	-23.62
4042.224	-23.62
4044.699	-28.62
4047.172	-27.62
4049.643	-27.62
4052.112	-24.62
4054.58	-23.62
4057.046	-23.62
4059.51	-28.62
4061.972	-26.62
4064.432	-22.62
4066.891	-23.62
4069.348	-24.62
4071.803	-25.62
4074.256	-29.62
4076.708	-25.62
4079.158	-27.62
4081.606	-26.62
4084.052	-24.62
4086.497	-22.62
4088.939	-24.62
4091.38	-23.62
4093.819	-26.62
4096.257	-26.62
4098.693	-31.62
4101.127	-27.62
4103.559	-28.62
4105.989	-9.62
4108.418	-12.62
4110.845	-5.62
4113.27	-11.62
4115.694	-11.62
4118.115	-12.62
4120.535	-28.62
4122.954	-30.62
4125.37	-22.62
4127.785	-20.62
4130.198	-20.62
4132.609	-25.62
4135.019	-27.62
4137.427	-29.62
4139.833	-26.62
4142.237	-28.62
