Data from 10000CFU2_D_RamanShift_1.txt Node
Date: Thu Feb 02 12:13:23 IST 2017
User: aro
Spectrometer: QEPB0276
Trigger mode: 0
Integration Time (sec): 5.000000E0
Scans to average: 1
Electric dark correction enabled: true
Nonlinearity correction enabled: false
Boxcar width: 0
XAxis mode: Raman Shifts
Number of Pixels in Spectrum: 1044
>>>>>Begin Spectral Data<<<<<
160.701	-2.38
166.742	-1.38
172.777	18.62
178.805	82.62
184.826	210.62
190.841	411.62
196.849	630.62
202.85	779.62
208.845	824.62
214.833	817.62
220.815	797.62
226.789	782.62
232.758	771.62
238.719	762.62
244.674	751.62
250.623	738.62
256.565	728.62
262.5	712.62
268.429	692.62
274.351	684.62
280.267	663.62
286.176	655.62
292.079	647.62
297.975	634.62
303.865	635.62
309.748	633.62
315.625	627.62
321.495	626.62
327.359	629.62
333.217	634.62
339.068	626.62
344.912	636.62
350.751	633.62
356.583	646.62
362.408	645.62
368.227	648.62
374.04	631.62
379.847	638.62
385.647	630.62
391.44	635.62
397.228	635.62
403.009	634.62
408.784	642.62
414.553	654.62
420.315	660.62
426.071	657.62
431.821	670.62
437.565	659.62
443.302	663.62
449.033	649.62
454.758	647.62
460.477	646.62
466.189	633.62
471.896	626.62
477.596	630.62
483.29	619.62
488.978	615.62
494.66	603.62
500.335	580.62
506.005	568.62
511.668	543.62
517.325	533.62
522.977	504.62
528.622	508.62
534.261	491.62
539.894	467.62
545.521	464.62
551.141	455.62
556.756	452.62
562.365	435.62
567.968	448.62
573.565	433.62
579.155	431.62
584.74	438.62
590.319	436.62
595.892	433.62
601.459	430.62
607.02	423.62
612.575	421.62
618.124	426.62
623.667	406.62
629.204	409.62
634.735	391.62
640.261	404.62
645.781	407.62
651.294	399.62
656.802	400.62
662.304	387.62
667.8	384.62
673.29	378.62
678.775	381.62
684.254	384.62
689.726	372.62
695.193	373.62
700.655	371.62
706.11	377.62
711.56	371.62
717.004	373.62
722.442	369.62
727.874	365.62
733.301	362.62
738.722	350.62
744.137	359.62
749.547	362.62
754.951	358.62
760.349	361.62
765.741	354.62
771.128	356.62
776.509	361.62
781.885	367.62
787.254	367.62
792.618	361.62
797.977	369.62
803.33	357.62
808.677	363.62
814.019	362.62
819.355	357.62
824.686	356.62
830.011	366.62
835.33	364.62
840.644	366.62
845.952	366.62
851.255	374.62
856.552	372.62
861.844	375.62
867.13	374.62
872.41	374.62
877.686	374.62
882.955	378.62
888.219	378.62
893.478	368.62
898.731	353.62
903.979	344.62
909.221	340.62
914.458	332.62
919.69	334.62
924.916	334.62
930.136	333.62
935.351	323.62
940.561	319.62
945.766	325.62
950.965	325.62
956.158	326.62
961.347	322.62
966.529	298.62
971.707	293.62
976.879	298.62
982.046	292.62
987.208	289.62
992.364	293.62
997.515	303.62
1002.66	302.62
1007.801	314.62
1012.936	310.62
1018.066	318.62
1023.19	315.62
1028.309	323.62
1033.423	324.62
1038.532	320.62
1043.636	334.62
1048.734	329.62
1053.827	327.62
1058.915	330.62
1063.998	340.62
1069.075	345.62
1074.147	348.62
1079.214	351.62
1084.276	367.62
1089.333	358.62
1094.385	358.62
1099.431	350.62
1104.472	344.62
1109.509	341.62
1114.54	329.62
1119.565	329.62
1124.586	328.62
1129.602	338.62
1134.613	323.62
1139.618	307.62
1144.619	287.62
1149.614	286.62
1154.604	276.62
1159.589	272.62
1164.57	275.62
1169.545	272.62
1174.515	272.62
1179.48	265.62
1184.44	257.62
1189.395	249.62
1194.345	246.62
1199.29	245.62
1204.23	244.62
1209.165	253.62
1214.095	253.62
1219.021	251.62
1223.941	256.62
1228.856	255.62
1233.766	266.62
1238.672	273.62
1243.572	280.62
1248.467	283.62
1253.358	277.62
1258.244	287.62
1263.124	278.62
1268	292.62
1272.871	266.62
1277.737	272.62
1282.599	272.62
1287.455	269.62
1292.306	276.62
1297.153	290.62
1301.995	307.62
1306.832	304.62
1311.664	300.62
1316.491	297.62
1321.314	287.62
1326.132	264.62
1330.945	261.62
1335.753	248.62
1340.556	244.62
1345.354	239.62
1350.148	241.62
1354.937	237.62
1359.722	232.62
1364.501	228.62
1369.276	237.62
1374.046	233.62
1378.811	234.62
1383.572	227.62
1388.327	227.62
1393.079	218.62
1397.825	217.62
1402.567	208.62
1407.304	207.62
1412.036	215.62
1416.764	208.62
1421.487	216.62
1426.205	225.62
1430.919	226.62
1435.628	253.62
1440.333	275.62
1445.032	303.62
1449.727	314.62
1454.418	298.62
1459.104	286.62
1463.785	271.62
1468.462	268.62
1473.134	250.62
1477.802	220.62
1482.465	204.62
1487.123	189.62
1491.777	175.62
1496.426	165.62
1501.071	167.62
1505.711	165.62
1510.347	160.62
1514.978	172.62
1519.604	172.62
1524.226	169.62
1528.844	157.62
1533.457	165.62
1538.065	164.62
1542.669	164.62
1547.269	168.62
1551.864	165.62
1556.454	163.62
1561.041	170.62
1565.622	158.62
1570.199	158.62
1574.772	163.62
1579.34	163.62
1583.904	166.62
1588.464	162.62
1593.019	170.62
1597.569	169.62
1602.115	160.62
1606.657	169.62
1611.195	172.62
1615.728	170.62
1620.256	180.62
1624.78	183.62
1629.3	178.62
1633.816	176.62
1638.327	176.62
1642.834	175.62
1647.336	196.62
1651.834	196.62
1656.328	206.62
1660.817	203.62
1665.302	199.62
1669.783	195.62
1674.259	181.62
1678.732	181.62
1683.199	171.62
1687.663	158.62
1692.122	154.62
1696.577	145.62
1701.028	139.62
1705.474	141.62
1709.917	133.62
1714.355	137.62
1718.788	122.62
1723.218	117.62
1727.643	121.62
1732.064	120.62
1736.481	116.62
1740.893	109.62
1745.301	114.62
1749.705	111.62
1754.105	104.62
1758.501	103.62
1762.893	98.62
1767.28	91.62
1771.663	95.62
1776.042	88.62
1780.417	92.62
1784.787	81.62
1789.154	80.62
1793.516	89.62
1797.874	92.62
1802.228	88.62
1806.578	91.62
1810.924	86.62
1815.266	80.62
1819.603	78.62
1823.937	79.62
1828.266	80.62
1832.591	78.62
1836.913	74.62
1841.23	79.62
1845.543	74.62
1849.852	72.62
1854.156	71.62
1858.457	80.62
1862.754	76.62
1867.047	76.62
1871.335	69.62
1875.62	72.62
1879.9	74.62
1884.177	72.62
1888.449	75.62
1892.718	75.62
1896.982	68.62
1901.243	68.62
1905.499	67.62
1909.752	69.62
1914	68.62
1918.245	68.62
1922.485	69.62
1926.722	74.62
1930.954	74.62
1935.183	67.62
1939.408	73.62
1943.628	70.62
1947.845	66.62
1952.058	72.62
1956.267	71.62
1960.472	68.62
1964.673	65.62
1968.87	65.62
1973.063	65.62
1977.252	60.62
1981.438	61.62
1985.619	60.62
1989.797	59.62
1993.971	62.62
1998.14	63.62
2002.306	59.62
2006.469	53.62
2010.627	58.62
2014.781	58.62
2018.932	63.62
2023.078	63.62
2027.221	59.62
2031.36	53.62
2035.495	55.62
2039.627	58.62
2043.754	63.62
2047.878	59.62
2051.998	57.62
2056.114	59.62
2060.226	57.62
2064.334	51.62
2068.439	57.62
2072.54	54.62
2076.637	56.62
2080.73	62.62
2084.82	61.62
2088.906	63.62
2092.988	54.62
2097.066	56.62
2101.14	59.62
2105.211	59.62
2109.278	55.62
2113.342	57.62
2117.401	57.62
2121.457	56.62
2125.509	49.62
2129.558	54.62
2133.602	54.62
2137.643	57.62
2141.681	56.62
2145.714	57.62
2149.744	55.62
2153.77	48.62
2157.793	51.62
2161.812	47.62
2165.827	44.62
2169.838	46.62
2173.846	46.62
2177.851	44.62
2181.851	41.62
2185.848	42.62
2189.841	41.62
2193.831	44.62
2197.817	41.62
2201.799	41.62
2205.778	42.62
2209.753	38.62
2213.725	39.62
2217.693	40.62
2221.657	38.62
2225.618	37.62
2229.575	34.62
2233.529	36.62
2237.479	41.62
2241.425	31.62
2245.368	37.62
2249.307	32.62
2253.243	35.62
2257.175	34.62
2261.104	35.62
2265.029	36.62
2268.95	34.62
2272.868	30.62
2276.783	22.62
2280.694	30.62
2284.601	24.62
2288.505	29.62
2292.405	24.62
2296.302	31.62
2300.195	26.62
2304.085	21.62
2307.971	24.62
2311.854	24.62
2315.734	18.62
2319.609	21.62
2323.482	22.62
2327.351	22.62
2331.216	29.62
2335.078	23.62
2338.937	23.62
2342.792	21.62
2346.643	21.62
2350.492	23.62
2354.336	18.62
2358.178	15.62
2362.015	16.62
2365.85	18.62
2369.681	17.62
2373.508	20.62
2377.333	20.62
2381.153	15.62
2384.971	11.62
2388.785	14.62
2392.595	14.62
2396.402	12.62
2400.206	19.62
2404.007	14.62
2407.804	15.62
2411.597	16.62
2415.388	14.62
2419.174	13.62
2422.958	9.62
2426.738	9.62
2430.515	11.62
2434.289	14.62
2438.059	15.62
2441.825	14.62
2445.589	10.62
2449.349	8.62
2453.106	8.62
2456.859	8.62
2460.61	15.62
2464.356	12.62
2468.1	10.62
2471.84	13.62
2475.577	10.62
2479.311	0.62
2483.041	8.62
2486.768	9.62
2490.492	12.62
2494.213	13.62
2497.93	11.62
2501.644	8.62
2505.355	7.62
2509.062	9.62
2512.766	8.62
2516.467	8.62
2520.165	9.62
2523.859	9.62
2527.551	6.62
2531.239	12.62
2534.923	5.62
2538.605	2.62
2542.283	8.62
2545.958	8.62
2549.63	11.62
2553.299	13.62
2556.964	8.62
2560.626	10.62
2564.285	2.62
2567.941	5.62
2571.594	8.62
2575.243	7.62
2578.89	9.62
2582.533	5.62
2586.173	9.62
2589.809	4.62
2593.443	3.62
2597.073	4.62
2600.701	8.62
2604.325	7.62
2607.946	10.62
2611.564	6.62
2615.178	8.62
2618.79	11.62
2622.398	6.62
2626.004	7.62
2629.606	8.62
2633.205	9.62
2636.801	3.62
2640.394	9.62
2643.983	9.62
2647.57	3.62
2651.153	4.62
2654.734	1.62
2658.311	5.62
2661.885	11.62
2665.456	7.62
2669.025	4.62
2672.589	2.62
2676.151	4.62
2679.71	6.62
2683.266	5.62
2686.819	0.62
2690.368	2.62
2693.915	3.62
2697.458	9.62
2700.999	2.62
2704.536	8.62
2708.071	5.62
2711.602	6.62
2715.13	4.62
2718.656	8.62
2722.178	5.62
2725.697	5.62
2729.214	8.62
2732.727	11.62
2736.237	8.62
2739.744	12.62
2743.249	9.62
2746.75	5.62
2750.248	3.62
2753.743	5.62
2757.236	8.62
2760.725	7.62
2764.211	11.62
2767.695	7.62
2771.175	5.62
2774.652	4.62
2778.127	5.62
2781.598	3.62
2785.067	6.62
2788.532	3.62
2791.995	8.62
2795.455	7.62
2798.911	5.62
2802.365	6.62
2805.816	5.62
2809.264	10.62
2812.709	11.62
2816.151	12.62
2819.59	15.62
2823.026	14.62
2826.46	17.62
2829.89	22.62
2833.318	26.62
2836.742	25.62
2840.164	38.62
2843.583	41.62
2846.999	55.62
2850.412	68.62
2853.822	76.62
2857.229	83.62
2860.634	90.62
2864.035	88.62
2867.434	90.62
2870.83	88.62
2874.223	100.62
2877.613	95.62
2881	106.62
2884.385	112.62
2887.766	116.62
2891.145	121.62
2894.521	113.62
2897.894	108.62
2901.264	107.62
2904.631	104.62
2907.996	104.62
2911.358	104.62
2914.717	100.62
2918.073	103.62
2921.426	99.62
2924.777	99.62
2928.124	100.62
2931.469	99.62
2934.811	94.62
2938.15	95.62
2941.487	97.62
2944.821	88.62
2948.152	82.62
2951.48	73.62
2954.805	69.62
2958.128	66.62
2961.447	67.62
2964.765	65.62
2968.079	58.62
2971.39	59.62
2974.699	53.62
2978.005	54.62
2981.308	51.62
2984.609	44.62
2987.907	42.62
2991.202	51.62
2994.494	40.62
2997.784	38.62
3001.07	39.62
3004.355	38.62
3007.636	37.62
3010.915	39.62
3014.191	34.62
3017.464	29.62
3020.734	34.62
3024.002	33.62
3027.267	29.62
3030.53	32.62
3033.789	37.62
3037.046	26.62
3040.301	32.62
3043.552	32.62
3046.801	33.62
3050.048	37.62
3053.291	37.62
3056.532	41.62
3059.771	41.62
3063.006	41.62
3066.239	43.62
3069.469	46.62
3072.697	44.62
3075.922	52.62
3079.144	47.62
3082.364	49.62
3085.581	44.62
3088.795	51.62
3092.007	48.62
3095.216	56.62
3098.423	58.62
3101.627	54.62
3104.828	61.62
3108.026	64.62
3111.222	55.62
3114.416	62.62
3117.607	60.62
3120.795	67.62
3123.98	68.62
3127.163	69.62
3130.344	71.62
3133.521	72.62
3136.696	73.62
3139.869	74.62
3143.039	83.62
3146.206	84.62
3149.371	89.62
3152.533	81.62
3155.693	80.62
3158.85	78.62
3162.005	82.62
3165.157	86.62
3168.306	85.62
3171.453	87.62
3174.597	83.62
3177.739	88.62
3180.878	82.62
3184.014	83.62
3187.149	81.62
3190.28	83.62
3193.409	90.62
3196.536	91.62
3199.659	86.62
3202.781	83.62
3205.9	86.62
3209.016	87.62
3212.13	90.62
3215.241	82.62
3218.35	87.62
3221.456	85.62
3224.56	82.62
3227.661	78.62
3230.76	82.62
3233.856	81.62
3236.95	73.62
3240.041	75.62
3243.13	83.62
3246.216	77.62
3249.3	83.62
3252.382	73.62
3255.46	76.62
3258.537	69.62
3261.611	73.62
3264.682	72.62
3267.751	75.62
3270.818	74.62
3273.882	77.62
3276.943	75.62
3280.002	71.62
3283.059	66.62
3286.113	69.62
3289.165	71.62
3292.214	70.62
3295.261	64.62
3298.306	65.62
3301.348	69.62
3304.387	64.62
3307.425	64.62
3310.459	60.62
3313.492	60.62
3316.521	61.62
3319.549	57.62
3322.574	58.62
3325.597	57.62
3328.617	58.62
3331.635	54.62
3334.65	58.62
3337.663	53.62
3340.674	54.62
3343.682	54.62
3346.688	51.62
3349.691	55.62
3352.692	54.62
3355.691	54.62
3358.687	55.62
3361.681	54.62
3364.673	54.62
3367.662	57.62
3370.649	51.62
3373.633	50.62
3376.615	46.62
3379.595	45.62
3382.572	45.62
3385.547	47.62
3388.52	44.62
3391.49	51.62
3394.458	45.62
3397.424	41.62
3400.387	41.62
3403.348	44.62
3406.307	37.62
3409.263	45.62
3412.217	46.62
3415.168	39.62
3418.118	36.62
3421.065	36.62
3424.009	38.62
3426.951	38.62
3429.891	40.62
3432.829	35.62
3435.764	38.62
3438.697	32.62
3441.628	27.62
3444.557	29.62
3447.483	31.62
3450.407	31.62
3453.328	26.62
3456.247	27.62
3459.164	26.62
3462.079	22.62
3464.991	22.62
3467.902	16.62
3470.809	22.62
3473.715	20.62
3476.618	17.62
3479.519	15.62
3482.418	13.62
3485.315	14.62
3488.209	9.62
3491.101	7.62
3493.99	15.62
3496.878	12.62
3499.763	14.62
3502.646	10.62
3505.527	2.62
3508.405	3.62
3511.281	4.62
3514.155	8.62
3517.027	9.62
3519.897	3.62
3522.764	4.62
3525.629	4.62
3528.492	-0.38
3531.352	-5.38
3534.211	-2.38
3537.067	0.62
3539.921	0.62
3542.773	-4.38
3545.622	-4.38
3548.469	-6.38
3551.315	-12.38
3554.157	-12.38
3556.998	-6.38
3559.837	-4.38
3562.673	-2.38
3565.507	-11.38
3568.339	-10.38
3571.169	-13.38
3573.996	-11.38
3576.822	-9.38
3579.645	-9.38
3582.466	-7.38
3585.285	-7.38
3588.101	-10.38
3590.916	-18.38
3593.728	-15.38
3596.538	-15.38
3599.346	-15.38
3602.152	-18.38
3604.956	-13.38
3607.757	-12.38
3610.556	-16.38
3613.354	-21.38
3616.149	-22.38
3618.942	-16.38
3621.732	-20.38
3624.521	-18.38
3627.307	-15.38
3630.092	-17.38
3632.874	-22.38
3635.654	-21.38
3638.432	-19.38
3641.208	-15.38
3643.982	-18.38
3646.753	-15.38
3649.523	-17.38
3652.29	-18.38
3655.055	-22.38
3657.818	-25.38
3660.579	-19.38
3663.338	-19.38
3666.095	-15.38
3668.849	-19.38
3671.602	-20.38
3674.352	-24.38
3677.101	-21.38
3679.847	-24.38
3682.591	-22.38
3685.333	-18.38
3688.073	-20.38
3690.811	-22.38
3693.547	-28.38
3696.281	-21.38
3699.013	-26.38
3701.742	-26.38
3704.47	-21.38
3707.195	-20.38
3709.919	-21.38
3712.64	-28.38
3715.359	-26.38
3718.076	-22.38
3720.792	-31.38
3723.505	-19.38
3726.216	-21.38
3728.925	-26.38
3731.632	-24.38
3734.336	-24.38
3737.039	-23.38
3739.74	-26.38
3742.439	-24.38
3745.136	-23.38
3747.83	-22.38
3750.523	-21.38
3753.213	-23.38
3755.902	-24.38
3758.589	-26.38
3761.273	-24.38
3763.956	-22.38
3766.636	-23.38
3769.315	-22.38
3771.991	-23.38
3774.665	-28.38
3777.338	-23.38
3780.008	-26.38
3782.677	-23.38
3785.343	-24.38
3788.007	-22.38
3790.67	-24.38
3793.33	-26.38
3795.989	-29.38
3798.645	-27.38
3801.299	-27.38
3803.952	-24.38
3806.602	-24.38
3809.251	-22.38
3811.897	-22.38
3814.542	-26.38
3817.184	-24.38
3819.825	-26.38
3822.463	-23.38
3825.1	-22.38
3827.735	-19.38
3830.367	-22.38
3832.998	-23.38
3835.627	-23.38
3838.253	-24.38
3840.878	-27.38
3843.501	-24.38
3846.122	-25.38
3848.741	-23.38
3851.358	-23.38
3853.973	-22.38
3856.586	-25.38
3859.197	-27.38
3861.806	-23.38
3864.414	-26.38
3867.019	-22.38
3869.622	-25.38
3872.224	-26.38
3874.823	-25.38
3877.421	-21.38
3880.016	-20.38
3882.61	-19.38
3885.202	-14.38
3887.792	-13.38
3890.38	-22.38
3892.966	-24.38
3895.55	-21.38
3898.132	-23.38
3900.713	-22.38
3903.291	-24.38
3905.868	-27.38
3908.442	-26.38
3911.015	-25.38
3913.586	-27.38
3916.155	-28.38
3918.722	-26.38
3921.287	-23.38
3923.85	-28.38
3926.411	-28.38
3928.971	-23.38
3931.528	-27.38
3934.084	-26.38
3936.638	-24.38
3939.19	-24.38
3941.74	-24.38
3944.288	-25.38
3946.834	-27.38
3949.378	-29.38
3951.921	-23.38
3954.462	-23.38
3957	-24.38
3959.537	-21.38
3962.072	-24.38
3964.606	-24.38
3967.137	-25.38
3969.667	-27.38
3972.194	-27.38
3974.72	-25.38
3977.244	-24.38
3979.766	-23.38
3982.286	-20.38
3984.805	-25.38
3987.321	-28.38
3989.836	-28.38
3992.349	-26.38
3994.86	-23.38
3997.369	-25.38
3999.877	-21.38
4002.382	-25.38
4004.886	-22.38
4007.388	-26.38
4009.888	-24.38
4012.386	-23.38
4014.883	-22.38
4017.377	-23.38
4019.87	-25.38
4022.361	-24.38
4024.85	-28.38
4027.338	-29.38
4029.823	-26.38
4032.307	-24.38
4034.789	-21.38
4037.269	-23.38
4039.747	-26.38
4042.224	-26.38
4044.699	-29.38
4047.172	-28.38
4049.643	-25.38
4052.112	-23.38
4054.58	-21.38
4057.046	-21.38
4059.51	-25.38
4061.972	-25.38
4064.432	-24.38
4066.891	-26.38
4069.348	-24.38
4071.803	-21.38
4074.256	-23.38
4076.708	-25.38
4079.158	-26.38
4081.606	-28.38
4084.052	-25.38
4086.497	-25.38
4088.939	-23.38
4091.38	-22.38
4093.819	-23.38
4096.257	-26.38
4098.693	-25.38
4101.127	-25.38
4103.559	-29.38
4105.989	-12.38
4108.418	-12.38
4110.845	-6.38
4113.27	-10.38
4115.694	-8.38
4118.115	-10.38
4120.535	-23.38
4122.954	-26.38
4125.37	-24.38
4127.785	-25.38
4130.198	-24.38
4132.609	-26.38
4135.019	-25.38
4137.427	-25.38
4139.833	-22.38
4142.237	-24.38
