Data from 10000CFU1_A_RamanShift_1.txt Node
Date: Thu Feb 02 13:51:35 IST 2017
User: aro
Spectrometer: QEPB0276
Trigger mode: 0
Integration Time (sec): 5.000000E0
Scans to average: 1
Electric dark correction enabled: true
Nonlinearity correction enabled: false
Boxcar width: 0
XAxis mode: Raman Shifts
Number of Pixels in Spectrum: 1044
>>>>>Begin Spectral Data<<<<<
160.701	0.88
166.742	-1.12
172.777	22.88
178.805	81.88
184.826	218.88
190.841	426.88
196.849	678.88
202.85	828.88
208.845	870.88
214.833	868.88
220.815	850.88
226.789	823.88
232.758	820.88
238.719	833.88
244.674	811.88
250.623	781.88
256.565	750.88
262.5	743.88
268.429	735.88
274.351	715.88
280.267	705.88
286.176	693.88
292.079	695.88
297.975	682.88
303.865	667.88
309.748	663.88
315.625	666.88
321.495	672.88
327.359	671.88
333.217	665.88
339.068	671.88
344.912	684.88
350.751	677.88
356.583	684.88
362.408	695.88
368.227	683.88
374.04	674.88
379.847	675.88
385.647	665.88
391.44	662.88
397.228	683.88
403.009	685.88
408.784	675.88
414.553	685.88
420.315	698.88
426.071	696.88
431.821	705.88
437.565	706.88
443.302	698.88
449.033	686.88
454.758	695.88
460.477	689.88
466.189	686.88
471.896	675.88
477.596	661.88
483.29	647.88
488.978	642.88
494.66	636.88
500.335	619.88
506.005	594.88
511.668	581.88
517.325	550.88
522.977	545.88
528.622	529.88
534.261	513.88
539.894	504.88
545.521	490.88
551.141	489.88
556.756	487.88
562.365	476.88
567.968	465.88
573.565	470.88
579.155	466.88
584.74	460.88
590.319	465.88
595.892	462.88
601.459	469.88
607.02	455.88
612.575	450.88
618.124	439.88
623.667	438.88
629.204	441.88
634.735	422.88
640.261	433.88
645.781	431.88
651.294	422.88
656.802	416.88
662.304	415.88
667.8	413.88
673.29	411.88
678.775	408.88
684.254	400.88
689.726	397.88
695.193	395.88
700.655	387.88
706.11	398.88
711.56	393.88
717.004	397.88
722.442	397.88
727.874	403.88
733.301	387.88
738.722	380.88
744.137	384.88
749.547	380.88
754.951	378.88
760.349	390.88
765.741	388.88
771.128	377.88
776.509	381.88
781.885	387.88
787.254	390.88
792.618	385.88
797.977	388.88
803.33	390.88
808.677	385.88
814.019	388.88
819.355	380.88
824.686	389.88
830.011	385.88
835.33	383.88
840.644	385.88
845.952	391.88
851.255	390.88
856.552	400.88
861.844	398.88
867.13	402.88
872.41	401.88
877.686	403.88
882.955	398.88
888.219	403.88
893.478	389.88
898.731	374.88
903.979	374.88
909.221	360.88
914.458	363.88
919.69	364.88
924.916	351.88
930.136	354.88
935.351	352.88
940.561	351.88
945.766	353.88
950.965	351.88
956.158	348.88
961.347	331.88
966.529	328.88
971.707	326.88
976.879	315.88
982.046	318.88
987.208	321.88
992.364	319.88
997.515	323.88
1002.66	330.88
1007.801	336.88
1012.936	340.88
1018.066	343.88
1023.19	341.88
1028.309	357.88
1033.423	351.88
1038.532	344.88
1043.636	352.88
1048.734	349.88
1053.827	355.88
1058.915	354.88
1063.998	360.88
1069.075	376.88
1074.147	373.88
1079.214	371.88
1084.276	380.88
1089.333	403.88
1094.385	391.88
1099.431	385.88
1104.472	365.88
1109.509	353.88
1114.54	345.88
1119.565	350.88
1124.586	347.88
1129.602	354.88
1134.613	344.88
1139.618	329.88
1144.619	319.88
1149.614	299.88
1154.604	298.88
1159.589	298.88
1164.57	304.88
1169.545	297.88
1174.515	284.88
1179.48	287.88
1184.44	279.88
1189.395	274.88
1194.345	261.88
1199.29	268.88
1204.23	272.88
1209.165	270.88
1214.095	272.88
1219.021	274.88
1223.941	271.88
1228.856	282.88
1233.766	284.88
1238.672	286.88
1243.572	299.88
1248.467	304.88
1253.358	306.88
1258.244	304.88
1263.124	310.88
1268	308.88
1272.871	296.88
1277.737	298.88
1282.599	289.88
1287.455	288.88
1292.306	297.88
1297.153	311.88
1301.995	330.88
1306.832	332.88
1311.664	320.88
1316.491	306.88
1321.314	299.88
1326.132	285.88
1330.945	279.88
1335.753	268.88
1340.556	264.88
1345.354	256.88
1350.148	256.88
1354.937	244.88
1359.722	243.88
1364.501	246.88
1369.276	250.88
1374.046	246.88
1378.811	248.88
1383.572	251.88
1388.327	244.88
1393.079	232.88
1397.825	233.88
1402.567	223.88
1407.304	222.88
1412.036	230.88
1416.764	228.88
1421.487	237.88
1426.205	240.88
1430.919	251.88
1435.628	276.88
1440.333	302.88
1445.032	318.88
1449.727	331.88
1454.418	324.88
1459.104	317.88
1463.785	304.88
1468.462	289.88
1473.134	259.88
1477.802	238.88
1482.465	211.88
1487.123	200.88
1491.777	185.88
1496.426	186.88
1501.071	185.88
1505.711	181.88
1510.347	181.88
1514.978	186.88
1519.604	174.88
1524.226	179.88
1528.844	177.88
1533.457	185.88
1538.065	175.88
1542.669	174.88
1547.269	177.88
1551.864	180.88
1556.454	173.88
1561.041	171.88
1565.622	176.88
1570.199	171.88
1574.772	167.88
1579.34	177.88
1583.904	177.88
1588.464	175.88
1593.019	178.88
1597.569	181.88
1602.115	180.88
1606.657	187.88
1611.195	183.88
1615.728	184.88
1620.256	185.88
1624.78	186.88
1629.3	187.88
1633.816	185.88
1638.327	193.88
1642.834	199.88
1647.336	210.88
1651.834	208.88
1656.328	222.88
1660.817	219.88
1665.302	217.88
1669.783	208.88
1674.259	193.88
1678.732	194.88
1683.199	182.88
1687.663	176.88
1692.122	160.88
1696.577	159.88
1701.028	154.88
1705.474	148.88
1709.917	142.88
1714.355	145.88
1718.788	133.88
1723.218	125.88
1727.643	123.88
1732.064	123.88
1736.481	127.88
1740.893	125.88
1745.301	118.88
1749.705	121.88
1754.105	114.88
1758.501	111.88
1762.893	102.88
1767.28	99.88
1771.663	101.88
1776.042	95.88
1780.417	94.88
1784.787	90.88
1789.154	93.88
1793.516	96.88
1797.874	100.88
1802.228	94.88
1806.578	95.88
1810.924	97.88
1815.266	91.88
1819.603	85.88
1823.937	91.88
1828.266	81.88
1832.591	83.88
1836.913	82.88
1841.23	82.88
1845.543	80.88
1849.852	76.88
1854.156	80.88
1858.457	81.88
1862.754	78.88
1867.047	79.88
1871.335	83.88
1875.62	77.88
1879.9	74.88
1884.177	78.88
1888.449	74.88
1892.718	73.88
1896.982	77.88
1901.243	79.88
1905.499	80.88
1909.752	78.88
1914	80.88
1918.245	79.88
1922.485	71.88
1926.722	77.88
1930.954	76.88
1935.183	76.88
1939.408	76.88
1943.628	75.88
1947.845	79.88
1952.058	75.88
1956.267	75.88
1960.472	75.88
1964.673	72.88
1968.87	71.88
1973.063	72.88
1977.252	70.88
1981.438	66.88
1985.619	67.88
1989.797	65.88
1993.971	64.88
1998.14	68.88
2002.306	66.88
2006.469	64.88
2010.627	62.88
2014.781	69.88
2018.932	67.88
2023.078	64.88
2027.221	65.88
2031.36	65.88
2035.495	63.88
2039.627	62.88
2043.754	61.88
2047.878	66.88
2051.998	59.88
2056.114	61.88
2060.226	56.88
2064.334	61.88
2068.439	64.88
2072.54	59.88
2076.637	61.88
2080.73	61.88
2084.82	65.88
2088.906	71.88
2092.988	60.88
2097.066	60.88
2101.14	62.88
2105.211	60.88
2109.278	58.88
2113.342	66.88
2117.401	58.88
2121.457	54.88
2125.509	60.88
2129.558	60.88
2133.602	59.88
2137.643	61.88
2141.681	60.88
2145.714	59.88
2149.744	54.88
2153.77	58.88
2157.793	50.88
2161.812	54.88
2165.827	47.88
2169.838	55.88
2173.846	52.88
2177.851	51.88
2181.851	48.88
2185.848	48.88
2189.841	43.88
2193.831	44.88
2197.817	43.88
2201.799	47.88
2205.778	46.88
2209.753	40.88
2213.725	46.88
2217.693	42.88
2221.657	41.88
2225.618	39.88
2229.575	41.88
2233.529	43.88
2237.479	39.88
2241.425	39.88
2245.368	40.88
2249.307	36.88
2253.243	34.88
2257.175	34.88
2261.104	36.88
2265.029	39.88
2268.95	34.88
2272.868	35.88
2276.783	32.88
2280.694	33.88
2284.601	30.88
2288.505	30.88
2292.405	25.88
2296.302	33.88
2300.195	33.88
2304.085	30.88
2307.971	29.88
2311.854	21.88
2315.734	23.88
2319.609	26.88
2323.482	24.88
2327.351	31.88
2331.216	29.88
2335.078	27.88
2338.937	25.88
2342.792	19.88
2346.643	22.88
2350.492	21.88
2354.336	23.88
2358.178	22.88
2362.015	25.88
2365.85	19.88
2369.681	21.88
2373.508	19.88
2377.333	19.88
2381.153	22.88
2384.971	20.88
2388.785	20.88
2392.595	22.88
2396.402	13.88
2400.206	19.88
2404.007	13.88
2407.804	13.88
2411.597	20.88
2415.388	16.88
2419.174	17.88
2422.958	15.88
2426.738	16.88
2430.515	13.88
2434.289	12.88
2438.059	17.88
2441.825	15.88
2445.589	13.88
2449.349	18.88
2453.106	13.88
2456.859	18.88
2460.61	8.88
2464.356	15.88
2468.1	13.88
2471.84	11.88
2475.577	18.88
2479.311	7.88
2483.041	13.88
2486.768	11.88
2490.492	8.88
2494.213	12.88
2497.93	10.88
2501.644	7.88
2505.355	10.88
2509.062	14.88
2512.766	12.88
2516.467	10.88
2520.165	12.88
2523.859	13.88
2527.551	12.88
2531.239	11.88
2534.923	9.88
2538.605	8.88
2542.283	6.88
2545.958	14.88
2549.63	10.88
2553.299	9.88
2556.964	6.88
2560.626	12.88
2564.285	7.88
2567.941	7.88
2571.594	10.88
2575.243	9.88
2578.89	10.88
2582.533	11.88
2586.173	13.88
2589.809	7.88
2593.443	7.88
2597.073	8.88
2600.701	12.88
2604.325	8.88
2607.946	9.88
2611.564	8.88
2615.178	7.88
2618.79	10.88
2622.398	13.88
2626.004	10.88
2629.606	10.88
2633.205	11.88
2636.801	8.88
2640.394	11.88
2643.983	6.88
2647.57	6.88
2651.153	4.88
2654.734	7.88
2658.311	10.88
2661.885	13.88
2665.456	11.88
2669.025	2.88
2672.589	4.88
2676.151	6.88
2679.71	9.88
2683.266	6.88
2686.819	8.88
2690.368	5.88
2693.915	6.88
2697.458	6.88
2700.999	2.88
2704.536	9.88
2708.071	5.88
2711.602	7.88
2715.13	8.88
2718.656	7.88
2722.178	11.88
2725.697	7.88
2729.214	10.88
2732.727	13.88
2736.237	12.88
2739.744	10.88
2743.249	12.88
2746.75	9.88
2750.248	8.88
2753.743	11.88
2757.236	10.88
2760.725	10.88
2764.211	13.88
2767.695	6.88
2771.175	11.88
2774.652	12.88
2778.127	8.88
2781.598	8.88
2785.067	7.88
2788.532	8.88
2791.995	10.88
2795.455	9.88
2798.911	9.88
2802.365	8.88
2805.816	12.88
2809.264	14.88
2812.709	17.88
2816.151	19.88
2819.59	17.88
2823.026	19.88
2826.46	22.88
2829.89	25.88
2833.318	30.88
2836.742	33.88
2840.164	44.88
2843.583	52.88
2846.999	60.88
2850.412	75.88
2853.822	86.88
2857.229	92.88
2860.634	99.88
2864.035	94.88
2867.434	101.88
2870.83	97.88
2874.223	101.88
2877.613	106.88
2881	115.88
2884.385	122.88
2887.766	127.88
2891.145	125.88
2894.521	121.88
2897.894	119.88
2901.264	118.88
2904.631	117.88
2907.996	114.88
2911.358	111.88
2914.717	110.88
2918.073	109.88
2921.426	110.88
2924.777	107.88
2928.124	104.88
2931.469	103.88
2934.811	108.88
2938.15	100.88
2941.487	110.88
2944.821	95.88
2948.152	93.88
2951.48	83.88
2954.805	80.88
2958.128	83.88
2961.447	74.88
2964.765	69.88
2968.079	64.88
2971.39	63.88
2974.699	62.88
2978.005	58.88
2981.308	57.88
2984.609	50.88
2987.907	51.88
2991.202	46.88
2994.494	39.88
2997.784	45.88
3001.07	43.88
3004.355	46.88
3007.636	41.88
3010.915	39.88
3014.191	42.88
3017.464	36.88
3020.734	36.88
3024.002	31.88
3027.267	34.88
3030.53	38.88
3033.789	37.88
3037.046	32.88
3040.301	34.88
3043.552	34.88
3046.801	36.88
3050.048	40.88
3053.291	40.88
3056.532	44.88
3059.771	44.88
3063.006	51.88
3066.239	52.88
3069.469	45.88
3072.697	50.88
3075.922	52.88
3079.144	50.88
3082.364	52.88
3085.581	48.88
3088.795	56.88
3092.007	56.88
3095.216	61.88
3098.423	60.88
3101.627	61.88
3104.828	66.88
3108.026	63.88
3111.222	67.88
3114.416	70.88
3117.607	68.88
3120.795	75.88
3123.98	73.88
3127.163	80.88
3130.344	75.88
3133.521	77.88
3136.696	75.88
3139.869	79.88
3143.039	92.88
3146.206	93.88
3149.371	91.88
3152.533	88.88
3155.693	91.88
3158.85	82.88
3162.005	90.88
3165.157	90.88
3168.306	92.88
3171.453	94.88
3174.597	89.88
3177.739	94.88
3180.878	90.88
3184.014	93.88
3187.149	91.88
3190.28	94.88
3193.409	92.88
3196.536	96.88
3199.659	94.88
3202.781	90.88
3205.9	83.88
3209.016	99.88
3212.13	91.88
3215.241	92.88
3218.35	90.88
3221.456	90.88
3224.56	88.88
3227.661	93.88
3230.76	85.88
3233.856	90.88
3236.95	82.88
3240.041	80.88
3243.13	91.88
3246.216	84.88
3249.3	87.88
3252.382	89.88
3255.46	85.88
3258.537	80.88
3261.611	76.88
3264.682	76.88
3267.751	78.88
3270.818	79.88
3273.882	76.88
3276.943	85.88
3280.002	83.88
3283.059	82.88
3286.113	77.88
3289.165	73.88
3292.214	75.88
3295.261	67.88
3298.306	69.88
3301.348	69.88
3304.387	73.88
3307.425	69.88
3310.459	65.88
3313.492	68.88
3316.521	61.88
3319.549	61.88
3322.574	64.88
3325.597	63.88
3328.617	59.88
3331.635	61.88
3334.65	63.88
3337.663	55.88
3340.674	57.88
3343.682	61.88
3346.688	59.88
3349.691	64.88
3352.692	60.88
3355.691	60.88
3358.687	58.88
3361.681	59.88
3364.673	52.88
3367.662	59.88
3370.649	55.88
3373.633	59.88
3376.615	56.88
3379.595	53.88
3382.572	47.88
3385.547	52.88
3388.52	45.88
3391.49	52.88
3394.458	52.88
3397.424	45.88
3400.387	46.88
3403.348	45.88
3406.307	43.88
3409.263	46.88
3412.217	47.88
3415.168	42.88
3418.118	43.88
3421.065	43.88
3424.009	38.88
3426.951	40.88
3429.891	40.88
3432.829	43.88
3435.764	37.88
3438.697	38.88
3441.628	29.88
3444.557	34.88
3447.483	32.88
3450.407	33.88
3453.328	29.88
3456.247	29.88
3459.164	27.88
3462.079	24.88
3464.991	24.88
3467.902	26.88
3470.809	21.88
3473.715	22.88
3476.618	16.88
3479.519	17.88
3482.418	13.88
3485.315	15.88
3488.209	14.88
3491.101	12.88
3493.99	13.88
3496.878	16.88
3499.763	15.88
3502.646	15.88
3505.527	6.88
3508.405	5.88
3511.281	7.88
3514.155	9.88
3517.027	8.88
3519.897	8.88
3522.764	6.88
3525.629	5.88
3528.492	1.88
3531.352	-1.12
3534.211	1.88
3537.067	0.88
3539.921	1.88
3542.773	1.88
3545.622	-2.12
3548.469	-2.12
3551.315	-8.12
3554.157	-9.12
3556.998	-5.12
3559.837	-5.12
3562.673	-0.12
3565.507	-7.12
3568.339	-8.12
3571.169	-8.12
3573.996	-12.12
3576.822	-12.12
3579.645	-11.12
3582.466	-4.12
3585.285	-5.12
3588.101	-9.12
3590.916	-14.12
3593.728	-14.12
3596.538	-15.12
3599.346	-15.12
3602.152	-12.12
3604.956	-11.12
3607.757	-12.12
3610.556	-13.12
3613.354	-15.12
3616.149	-21.12
3618.942	-17.12
3621.732	-20.12
3624.521	-18.12
3627.307	-14.12
3630.092	-17.12
3632.874	-17.12
3635.654	-18.12
3638.432	-21.12
3641.208	-21.12
3643.982	-17.12
3646.753	-15.12
3649.523	-13.12
3652.29	-17.12
3655.055	-18.12
3657.818	-22.12
3660.579	-20.12
3663.338	-19.12
3666.095	-17.12
3668.849	-19.12
3671.602	-18.12
3674.352	-18.12
3677.101	-18.12
3679.847	-22.12
3682.591	-21.12
3685.333	-23.12
3688.073	-20.12
3690.811	-23.12
3693.547	-25.12
3696.281	-21.12
3699.013	-23.12
3701.742	-22.12
3704.47	-19.12
3707.195	-20.12
3709.919	-24.12
3712.64	-27.12
3715.359	-23.12
3718.076	-20.12
3720.792	-26.12
3723.505	-18.12
3726.216	-22.12
3728.925	-23.12
3731.632	-28.12
3734.336	-24.12
3737.039	-20.12
3739.74	-25.12
3742.439	-23.12
3745.136	-22.12
3747.83	-24.12
3750.523	-23.12
3753.213	-25.12
3755.902	-25.12
3758.589	-21.12
3761.273	-24.12
3763.956	-21.12
3766.636	-21.12
3769.315	-21.12
3771.991	-24.12
3774.665	-30.12
3777.338	-23.12
3780.008	-21.12
3782.677	-22.12
3785.343	-22.12
3788.007	-20.12
3790.67	-21.12
3793.33	-25.12
3795.989	-27.12
3798.645	-23.12
3801.299	-24.12
3803.952	-25.12
3806.602	-21.12
3809.251	-24.12
3811.897	-24.12
3814.542	-28.12
3817.184	-25.12
3819.825	-26.12
3822.463	-19.12
3825.1	-23.12
3827.735	-19.12
3830.367	-25.12
3832.998	-24.12
3835.627	-28.12
3838.253	-24.12
3840.878	-23.12
3843.501	-20.12
3846.122	-24.12
3848.741	-21.12
3851.358	-25.12
3853.973	-25.12
3856.586	-25.12
3859.197	-27.12
3861.806	-23.12
3864.414	-24.12
3867.019	-23.12
3869.622	-20.12
3872.224	-26.12
3874.823	-24.12
3877.421	-21.12
3880.016	-22.12
3882.61	-18.12
3885.202	-11.12
3887.792	-15.12
3890.38	-18.12
3892.966	-19.12
3895.55	-21.12
3898.132	-28.12
3900.713	-24.12
3903.291	-21.12
3905.868	-19.12
3908.442	-23.12
3911.015	-22.12
3913.586	-27.12
3916.155	-26.12
3918.722	-25.12
3921.287	-22.12
3923.85	-25.12
3926.411	-23.12
3928.971	-19.12
3931.528	-24.12
3934.084	-23.12
3936.638	-22.12
3939.19	-27.12
3941.74	-26.12
3944.288	-27.12
3946.834	-25.12
3949.378	-24.12
3951.921	-20.12
3954.462	-23.12
3957	-23.12
3959.537	-25.12
3962.072	-25.12
3964.606	-24.12
3967.137	-23.12
3969.667	-22.12
3972.194	-24.12
3974.72	-25.12
3977.244	-19.12
3979.766	-22.12
3982.286	-21.12
3984.805	-26.12
3987.321	-23.12
3989.836	-30.12
3992.349	-23.12
3994.86	-23.12
3997.369	-25.12
3999.877	-23.12
4002.382	-26.12
4004.886	-25.12
4007.388	-27.12
4009.888	-25.12
4012.386	-21.12
4014.883	-23.12
4017.377	-21.12
4019.87	-25.12
4022.361	-21.12
4024.85	-28.12
4027.338	-27.12
4029.823	-24.12
4032.307	-25.12
4034.789	-20.12
4037.269	-20.12
4039.747	-21.12
4042.224	-24.12
4044.699	-29.12
4047.172	-27.12
4049.643	-26.12
4052.112	-23.12
4054.58	-22.12
4057.046	-20.12
4059.51	-26.12
4061.972	-23.12
4064.432	-23.12
4066.891	-22.12
4069.348	-23.12
4071.803	-25.12
4074.256	-28.12
4076.708	-24.12
4079.158	-24.12
4081.606	-23.12
4084.052	-18.12
4086.497	-20.12
4088.939	-23.12
4091.38	-23.12
4093.819	-27.12
4096.257	-21.12
4098.693	-28.12
4101.127	-26.12
4103.559	-27.12
4105.989	-11.12
4108.418	-11.12
4110.845	-7.12
4113.27	-10.12
4115.694	-7.12
4118.115	-8.12
4120.535	-25.12
4122.954	-30.12
4125.37	-24.12
4127.785	-20.12
4130.198	-23.12
4132.609	-24.12
4135.019	-25.12
4137.427	-29.12
4139.833	-23.12
4142.237	-27.12
