Data from 1000000CFU1_D_RamanShift_1.txt Node
Date: Thu Feb 02 12:20:33 IST 2017
User: aro
Spectrometer: QEPB0276
Trigger mode: 0
Integration Time (sec): 5.000000E0
Scans to average: 1
Electric dark correction enabled: true
Nonlinearity correction enabled: false
Boxcar width: 0
XAxis mode: Raman Shifts
Number of Pixels in Spectrum: 1044
>>>>>Begin Spectral Data<<<<<
160.701	-1.5
166.742	1.5
172.777	22.5
178.805	83.5
184.826	202.5
190.841	409.5
196.849	623.5
202.85	767.5
208.845	808.5
214.833	811.5
220.815	797.5
226.789	785.5
232.758	758.5
238.719	763.5
244.674	754.5
250.623	738.5
256.565	724.5
262.5	710.5
268.429	670.5
274.351	666.5
280.267	659.5
286.176	650.5
292.079	642.5
297.975	638.5
303.865	630.5
309.748	632.5
315.625	622.5
321.495	625.5
327.359	613.5
333.217	610.5
339.068	620.5
344.912	630.5
350.751	643.5
356.583	648.5
362.408	641.5
368.227	637.5
374.04	634.5
379.847	622.5
385.647	628.5
391.44	627.5
397.228	630.5
403.009	643.5
408.784	639.5
414.553	641.5
420.315	647.5
426.071	640.5
431.821	663.5
437.565	662.5
443.302	644.5
449.033	656.5
454.758	652.5
460.477	640.5
466.189	628.5
471.896	622.5
477.596	628.5
483.29	613.5
488.978	606.5
494.66	598.5
500.335	584.5
506.005	551.5
511.668	545.5
517.325	522.5
522.977	497.5
528.622	482.5
534.261	484.5
539.894	468.5
545.521	455.5
551.141	446.5
556.756	446.5
562.365	443.5
567.968	436.5
573.565	435.5
579.155	421.5
584.74	432.5
590.319	422.5
595.892	425.5
601.459	423.5
607.02	426.5
612.575	422.5
618.124	415.5
623.667	403.5
629.204	397.5
634.735	392.5
640.261	390.5
645.781	387.5
651.294	392.5
656.802	390.5
662.304	381.5
667.8	377.5
673.29	377.5
678.775	384.5
684.254	371.5
689.726	370.5
695.193	362.5
700.655	364.5
706.11	372.5
711.56	366.5
717.004	372.5
722.442	368.5
727.874	364.5
733.301	352.5
738.722	341.5
744.137	353.5
749.547	361.5
754.951	348.5
760.349	349.5
765.741	346.5
771.128	351.5
776.509	354.5
781.885	355.5
787.254	360.5
792.618	362.5
797.977	356.5
803.33	362.5
808.677	359.5
814.019	349.5
819.355	351.5
824.686	348.5
830.011	362.5
835.33	362.5
840.644	373.5
845.952	362.5
851.255	364.5
856.552	368.5
861.844	370.5
867.13	369.5
872.41	360.5
877.686	379.5
882.955	371.5
888.219	367.5
893.478	368.5
898.731	351.5
903.979	340.5
909.221	326.5
914.458	331.5
919.69	333.5
924.916	329.5
930.136	325.5
935.351	319.5
940.561	317.5
945.766	319.5
950.965	323.5
956.158	319.5
961.347	309.5
966.529	308.5
971.707	298.5
976.879	291.5
982.046	290.5
987.208	294.5
992.364	291.5
997.515	297.5
1002.66	307.5
1007.801	311.5
1012.936	307.5
1018.066	316.5
1023.19	315.5
1028.309	318.5
1033.423	320.5
1038.532	322.5
1043.636	330.5
1048.734	332.5
1053.827	325.5
1058.915	331.5
1063.998	332.5
1069.075	346.5
1074.147	343.5
1079.214	350.5
1084.276	348.5
1089.333	361.5
1094.385	363.5
1099.431	355.5
1104.472	332.5
1109.509	327.5
1114.54	319.5
1119.565	331.5
1124.586	335.5
1129.602	333.5
1134.613	320.5
1139.618	310.5
1144.619	287.5
1149.614	271.5
1154.604	273.5
1159.589	275.5
1164.57	280.5
1169.545	269.5
1174.515	267.5
1179.48	264.5
1184.44	255.5
1189.395	248.5
1194.345	244.5
1199.29	250.5
1204.23	251.5
1209.165	253.5
1214.095	261.5
1219.021	249.5
1223.941	249.5
1228.856	261.5
1233.766	262.5
1238.672	273.5
1243.572	281.5
1248.467	279.5
1253.358	277.5
1258.244	283.5
1263.124	278.5
1268	282.5
1272.871	282.5
1277.737	278.5
1282.599	278.5
1287.455	264.5
1292.306	275.5
1297.153	287.5
1301.995	303.5
1306.832	304.5
1311.664	302.5
1316.491	290.5
1321.314	293.5
1326.132	268.5
1330.945	252.5
1335.753	243.5
1340.556	238.5
1345.354	239.5
1350.148	235.5
1354.937	236.5
1359.722	225.5
1364.501	229.5
1369.276	227.5
1374.046	230.5
1378.811	230.5
1383.572	231.5
1388.327	225.5
1393.079	222.5
1397.825	208.5
1402.567	213.5
1407.304	207.5
1412.036	206.5
1416.764	209.5
1421.487	221.5
1426.205	225.5
1430.919	235.5
1435.628	251.5
1440.333	273.5
1445.032	297.5
1449.727	301.5
1454.418	305.5
1459.104	297.5
1463.785	281.5
1468.462	270.5
1473.134	251.5
1477.802	223.5
1482.465	201.5
1487.123	187.5
1491.777	171.5
1496.426	170.5
1501.071	165.5
1505.711	160.5
1510.347	168.5
1514.978	167.5
1519.604	165.5
1524.226	170.5
1528.844	159.5
1533.457	161.5
1538.065	164.5
1542.669	165.5
1547.269	169.5
1551.864	161.5
1556.454	160.5
1561.041	162.5
1565.622	158.5
1570.199	159.5
1574.772	160.5
1579.34	165.5
1583.904	154.5
1588.464	160.5
1593.019	163.5
1597.569	168.5
1602.115	168.5
1606.657	164.5
1611.195	176.5
1615.728	172.5
1620.256	175.5
1624.78	174.5
1629.3	177.5
1633.816	174.5
1638.327	177.5
1642.834	186.5
1647.336	191.5
1651.834	196.5
1656.328	198.5
1660.817	199.5
1665.302	201.5
1669.783	192.5
1674.259	185.5
1678.732	183.5
1683.199	172.5
1687.663	159.5
1692.122	145.5
1696.577	143.5
1701.028	144.5
1705.474	136.5
1709.917	136.5
1714.355	128.5
1718.788	117.5
1723.218	120.5
1727.643	112.5
1732.064	111.5
1736.481	119.5
1740.893	109.5
1745.301	117.5
1749.705	108.5
1754.105	105.5
1758.501	97.5
1762.893	94.5
1767.28	90.5
1771.663	94.5
1776.042	90.5
1780.417	89.5
1784.787	84.5
1789.154	82.5
1793.516	85.5
1797.874	86.5
1802.228	88.5
1806.578	93.5
1810.924	89.5
1815.266	82.5
1819.603	78.5
1823.937	81.5
1828.266	75.5
1832.591	75.5
1836.913	82.5
1841.23	79.5
1845.543	74.5
1849.852	71.5
1854.156	68.5
1858.457	73.5
1862.754	76.5
1867.047	70.5
1871.335	73.5
1875.62	76.5
1879.9	72.5
1884.177	73.5
1888.449	73.5
1892.718	74.5
1896.982	68.5
1901.243	70.5
1905.499	74.5
1909.752	72.5
1914	69.5
1918.245	66.5
1922.485	68.5
1926.722	70.5
1930.954	66.5
1935.183	77.5
1939.408	71.5
1943.628	72.5
1947.845	67.5
1952.058	66.5
1956.267	66.5
1960.472	69.5
1964.673	66.5
1968.87	71.5
1973.063	66.5
1977.252	64.5
1981.438	62.5
1985.619	58.5
1989.797	56.5
1993.971	60.5
1998.14	62.5
2002.306	64.5
2006.469	58.5
2010.627	57.5
2014.781	61.5
2018.932	61.5
2023.078	58.5
2027.221	63.5
2031.36	65.5
2035.495	55.5
2039.627	60.5
2043.754	56.5
2047.878	51.5
2051.998	51.5
2056.114	53.5
2060.226	55.5
2064.334	56.5
2068.439	55.5
2072.54	52.5
2076.637	61.5
2080.73	55.5
2084.82	59.5
2088.906	63.5
2092.988	62.5
2097.066	59.5
2101.14	61.5
2105.211	54.5
2109.278	54.5
2113.342	55.5
2117.401	53.5
2121.457	53.5
2125.509	56.5
2129.558	60.5
2133.602	53.5
2137.643	50.5
2141.681	50.5
2145.714	48.5
2149.744	49.5
2153.77	57.5
2157.793	49.5
2161.812	51.5
2165.827	46.5
2169.838	48.5
2173.846	47.5
2177.851	45.5
2181.851	44.5
2185.848	45.5
2189.841	38.5
2193.831	43.5
2197.817	43.5
2201.799	41.5
2205.778	41.5
2209.753	41.5
2213.725	47.5
2217.693	43.5
2221.657	38.5
2225.618	36.5
2229.575	35.5
2233.529	35.5
2237.479	36.5
2241.425	38.5
2245.368	37.5
2249.307	32.5
2253.243	31.5
2257.175	27.5
2261.104	30.5
2265.029	36.5
2268.95	32.5
2272.868	29.5
2276.783	28.5
2280.694	30.5
2284.601	31.5
2288.505	26.5
2292.405	26.5
2296.302	25.5
2300.195	28.5
2304.085	23.5
2307.971	22.5
2311.854	24.5
2315.734	20.5
2319.609	22.5
2323.482	22.5
2327.351	27.5
2331.216	24.5
2335.078	25.5
2338.937	22.5
2342.792	18.5
2346.643	19.5
2350.492	20.5
2354.336	20.5
2358.178	15.5
2362.015	16.5
2365.85	15.5
2369.681	15.5
2373.508	16.5
2377.333	20.5
2381.153	22.5
2384.971	19.5
2388.785	19.5
2392.595	18.5
2396.402	11.5
2400.206	14.5
2404.007	14.5
2407.804	16.5
2411.597	16.5
2415.388	17.5
2419.174	15.5
2422.958	13.5
2426.738	12.5
2430.515	9.5
2434.289	9.5
2438.059	14.5
2441.825	15.5
2445.589	10.5
2449.349	13.5
2453.106	13.5
2456.859	9.5
2460.61	14.5
2464.356	12.5
2468.1	10.5
2471.84	11.5
2475.577	13.5
2479.311	9.5
2483.041	12.5
2486.768	8.5
2490.492	8.5
2494.213	9.5
2497.93	8.5
2501.644	12.5
2505.355	9.5
2509.062	8.5
2512.766	10.5
2516.467	12.5
2520.165	8.5
2523.859	8.5
2527.551	11.5
2531.239	10.5
2534.923	8.5
2538.605	7.5
2542.283	6.5
2545.958	8.5
2549.63	9.5
2553.299	11.5
2556.964	5.5
2560.626	12.5
2564.285	6.5
2567.941	8.5
2571.594	11.5
2575.243	5.5
2578.89	9.5
2582.533	7.5
2586.173	11.5
2589.809	9.5
2593.443	9.5
2597.073	5.5
2600.701	7.5
2604.325	10.5
2607.946	9.5
2611.564	10.5
2615.178	6.5
2618.79	10.5
2622.398	9.5
2626.004	7.5
2629.606	9.5
2633.205	6.5
2636.801	4.5
2640.394	6.5
2643.983	6.5
2647.57	2.5
2651.153	8.5
2654.734	4.5
2658.311	8.5
2661.885	4.5
2665.456	5.5
2669.025	3.5
2672.589	4.5
2676.151	4.5
2679.71	5.5
2683.266	8.5
2686.819	8.5
2690.368	2.5
2693.915	2.5
2697.458	7.5
2700.999	4.5
2704.536	11.5
2708.071	7.5
2711.602	5.5
2715.13	5.5
2718.656	6.5
2722.178	7.5
2725.697	3.5
2729.214	7.5
2732.727	13.5
2736.237	7.5
2739.744	11.5
2743.249	10.5
2746.75	6.5
2750.248	7.5
2753.743	7.5
2757.236	11.5
2760.725	11.5
2764.211	14.5
2767.695	8.5
2771.175	11.5
2774.652	3.5
2778.127	1.5
2781.598	7.5
2785.067	8.5
2788.532	8.5
2791.995	11.5
2795.455	11.5
2798.911	8.5
2802.365	9.5
2805.816	8.5
2809.264	13.5
2812.709	14.5
2816.151	15.5
2819.59	19.5
2823.026	19.5
2826.46	24.5
2829.89	24.5
2833.318	25.5
2836.742	30.5
2840.164	40.5
2843.583	51.5
2846.999	60.5
2850.412	74.5
2853.822	78.5
2857.229	87.5
2860.634	90.5
2864.035	90.5
2867.434	94.5
2870.83	96.5
2874.223	102.5
2877.613	103.5
2881	108.5
2884.385	111.5
2887.766	120.5
2891.145	120.5
2894.521	123.5
2897.894	111.5
2901.264	115.5
2904.631	112.5
2907.996	110.5
2911.358	104.5
2914.717	110.5
2918.073	106.5
2921.426	108.5
2924.777	102.5
2928.124	99.5
2931.469	101.5
2934.811	104.5
2938.15	102.5
2941.487	98.5
2944.821	93.5
2948.152	82.5
2951.48	83.5
2954.805	75.5
2958.128	72.5
2961.447	68.5
2964.765	65.5
2968.079	63.5
2971.39	59.5
2974.699	58.5
2978.005	51.5
2981.308	52.5
2984.609	50.5
2987.907	47.5
2991.202	45.5
2994.494	42.5
2997.784	42.5
3001.07	45.5
3004.355	41.5
3007.636	44.5
3010.915	41.5
3014.191	37.5
3017.464	32.5
3020.734	33.5
3024.002	34.5
3027.267	36.5
3030.53	34.5
3033.789	40.5
3037.046	29.5
3040.301	32.5
3043.552	32.5
3046.801	35.5
3050.048	31.5
3053.291	45.5
3056.532	42.5
3059.771	42.5
3063.006	41.5
3066.239	43.5
3069.469	43.5
3072.697	46.5
3075.922	53.5
3079.144	50.5
3082.364	52.5
3085.581	53.5
3088.795	54.5
3092.007	49.5
3095.216	61.5
3098.423	57.5
3101.627	61.5
3104.828	63.5
3108.026	62.5
3111.222	66.5
3114.416	66.5
3117.607	68.5
3120.795	73.5
3123.98	71.5
3127.163	76.5
3130.344	76.5
3133.521	73.5
3136.696	79.5
3139.869	76.5
3143.039	81.5
3146.206	85.5
3149.371	89.5
3152.533	94.5
3155.693	86.5
3158.85	80.5
3162.005	88.5
3165.157	92.5
3168.306	87.5
3171.453	91.5
3174.597	90.5
3177.739	87.5
3180.878	87.5
3184.014	89.5
3187.149	87.5
3190.28	86.5
3193.409	94.5
3196.536	92.5
3199.659	93.5
3202.781	87.5
3205.9	85.5
3209.016	86.5
3212.13	94.5
3215.241	95.5
3218.35	91.5
3221.456	83.5
3224.56	78.5
3227.661	84.5
3230.76	88.5
3233.856	85.5
3236.95	82.5
3240.041	79.5
3243.13	81.5
3246.216	86.5
3249.3	85.5
3252.382	82.5
3255.46	76.5
3258.537	77.5
3261.611	79.5
3264.682	77.5
3267.751	79.5
3270.818	81.5
3273.882	78.5
3276.943	81.5
3280.002	73.5
3283.059	78.5
3286.113	75.5
3289.165	70.5
3292.214	73.5
3295.261	70.5
3298.306	71.5
3301.348	70.5
3304.387	63.5
3307.425	60.5
3310.459	61.5
3313.492	63.5
3316.521	60.5
3319.549	62.5
3322.574	57.5
3325.597	63.5
3328.617	58.5
3331.635	53.5
3334.65	56.5
3337.663	57.5
3340.674	60.5
3343.682	59.5
3346.688	55.5
3349.691	53.5
3352.692	58.5
3355.691	53.5
3358.687	58.5
3361.681	56.5
3364.673	56.5
3367.662	54.5
3370.649	58.5
3373.633	57.5
3376.615	49.5
3379.595	49.5
3382.572	46.5
3385.547	49.5
3388.52	49.5
3391.49	47.5
3394.458	45.5
3397.424	43.5
3400.387	44.5
3403.348	43.5
3406.307	39.5
3409.263	42.5
3412.217	43.5
3415.168	45.5
3418.118	41.5
3421.065	36.5
3424.009	40.5
3426.951	39.5
3429.891	43.5
3432.829	40.5
3435.764	34.5
3438.697	33.5
3441.628	29.5
3444.557	31.5
3447.483	27.5
3450.407	30.5
3453.328	28.5
3456.247	27.5
3459.164	29.5
3462.079	21.5
3464.991	17.5
3467.902	18.5
3470.809	25.5
3473.715	21.5
3476.618	22.5
3479.519	17.5
3482.418	13.5
3485.315	11.5
3488.209	10.5
3491.101	12.5
3493.99	12.5
3496.878	15.5
3499.763	13.5
3502.646	10.5
3505.527	9.5
3508.405	7.5
3511.281	2.5
3514.155	8.5
3517.027	6.5
3519.897	11.5
3522.764	6.5
3525.629	0.5
3528.492	-0.5
3531.352	-0.5
3534.211	-0.5
3537.067	1.5
3539.921	1.5
3542.773	0.5
3545.622	-1.5
3548.469	-5.5
3551.315	-8.5
3554.157	-6.5
3556.998	-7.5
3559.837	-3.5
3562.673	-1.5
3565.507	-10.5
3568.339	-6.5
3571.169	-9.5
3573.996	-9.5
3576.822	-11.5
3579.645	-10.5
3582.466	-5.5
3585.285	-6.5
3588.101	-7.5
3590.916	-14.5
3593.728	-13.5
3596.538	-15.5
3599.346	-17.5
3602.152	-13.5
3604.956	-12.5
3607.757	-12.5
3610.556	-14.5
3613.354	-15.5
3616.149	-18.5
3618.942	-15.5
3621.732	-17.5
3624.521	-14.5
3627.307	-13.5
3630.092	-14.5
3632.874	-17.5
3635.654	-17.5
3638.432	-17.5
3641.208	-20.5
3643.982	-20.5
3646.753	-16.5
3649.523	-17.5
3652.29	-14.5
3655.055	-20.5
3657.818	-23.5
3660.579	-22.5
3663.338	-22.5
3666.095	-16.5
3668.849	-16.5
3671.602	-17.5
3674.352	-20.5
3677.101	-19.5
3679.847	-20.5
3682.591	-21.5
3685.333	-21.5
3688.073	-21.5
3690.811	-23.5
3693.547	-24.5
3696.281	-18.5
3699.013	-25.5
3701.742	-24.5
3704.47	-24.5
3707.195	-22.5
3709.919	-21.5
3712.64	-25.5
3715.359	-22.5
3718.076	-19.5
3720.792	-23.5
3723.505	-18.5
3726.216	-20.5
3728.925	-25.5
3731.632	-25.5
3734.336	-23.5
3737.039	-19.5
3739.74	-25.5
3742.439	-24.5
3745.136	-22.5
3747.83	-22.5
3750.523	-22.5
3753.213	-25.5
3755.902	-23.5
3758.589	-25.5
3761.273	-22.5
3763.956	-21.5
3766.636	-20.5
3769.315	-23.5
3771.991	-27.5
3774.665	-29.5
3777.338	-22.5
3780.008	-22.5
3782.677	-21.5
3785.343	-24.5
3788.007	-21.5
3790.67	-24.5
3793.33	-26.5
3795.989	-25.5
3798.645	-25.5
3801.299	-21.5
3803.952	-23.5
3806.602	-24.5
3809.251	-23.5
3811.897	-23.5
3814.542	-26.5
3817.184	-26.5
3819.825	-28.5
3822.463	-20.5
3825.1	-21.5
3827.735	-18.5
3830.367	-23.5
3832.998	-23.5
3835.627	-25.5
3838.253	-25.5
3840.878	-25.5
3843.501	-18.5
3846.122	-23.5
3848.741	-21.5
3851.358	-23.5
3853.973	-26.5
3856.586	-25.5
3859.197	-25.5
3861.806	-21.5
3864.414	-23.5
3867.019	-20.5
3869.622	-23.5
3872.224	-27.5
3874.823	-26.5
3877.421	-23.5
3880.016	-22.5
3882.61	-16.5
3885.202	-8.5
3887.792	-14.5
3890.38	-19.5
3892.966	-25.5
3895.55	-24.5
3898.132	-23.5
3900.713	-19.5
3903.291	-23.5
3905.868	-20.5
3908.442	-24.5
3911.015	-26.5
3913.586	-27.5
3916.155	-26.5
3918.722	-26.5
3921.287	-19.5
3923.85	-23.5
3926.411	-24.5
3928.971	-17.5
3931.528	-26.5
3934.084	-27.5
3936.638	-25.5
3939.19	-28.5
3941.74	-24.5
3944.288	-24.5
3946.834	-23.5
3949.378	-24.5
3951.921	-22.5
3954.462	-22.5
3957	-22.5
3959.537	-23.5
3962.072	-25.5
3964.606	-25.5
3967.137	-22.5
3969.667	-25.5
3972.194	-23.5
3974.72	-27.5
3977.244	-23.5
3979.766	-23.5
3982.286	-21.5
3984.805	-22.5
3987.321	-23.5
3989.836	-25.5
3992.349	-22.5
3994.86	-23.5
3997.369	-24.5
3999.877	-25.5
4002.382	-27.5
4004.886	-22.5
4007.388	-23.5
4009.888	-21.5
4012.386	-24.5
4014.883	-21.5
4017.377	-22.5
4019.87	-23.5
4022.361	-25.5
4024.85	-27.5
4027.338	-23.5
4029.823	-23.5
4032.307	-25.5
4034.789	-19.5
4037.269	-24.5
4039.747	-26.5
4042.224	-24.5
4044.699	-29.5
4047.172	-26.5
4049.643	-24.5
4052.112	-23.5
4054.58	-20.5
4057.046	-19.5
4059.51	-27.5
4061.972	-27.5
4064.432	-19.5
4066.891	-24.5
4069.348	-23.5
4071.803	-24.5
4074.256	-24.5
4076.708	-24.5
4079.158	-25.5
4081.606	-25.5
4084.052	-23.5
4086.497	-22.5
4088.939	-19.5
4091.38	-22.5
4093.819	-23.5
4096.257	-24.5
4098.693	-28.5
4101.127	-24.5
4103.559	-24.5
4105.989	-8.5
4108.418	-13.5
4110.845	-6.5
4113.27	-9.5
4115.694	-13.5
4118.115	-10.5
4120.535	-23.5
4122.954	-28.5
4125.37	-23.5
4127.785	-20.5
4130.198	-23.5
4132.609	-22.5
4135.019	-24.5
4137.427	-28.5
4139.833	-24.5
4142.237	-28.5
