Data from 10000000CFU1_B_RamanShift_1.txt Node
Date: Thu Feb 02 14:42:20 IST 2017
User: aro
Spectrometer: QEPB0276
Trigger mode: 0
Integration Time (sec): 5.000000E0
Scans to average: 1
Electric dark correction enabled: true
Nonlinearity correction enabled: false
Boxcar width: 0
XAxis mode: Raman Shifts
Number of Pixels in Spectrum: 1044
>>>>>Begin Spectral Data<<<<<
160.701	-7.25
166.742	2.75
172.777	23.75
178.805	88.75
184.826	226.75
190.841	440.75
196.849	680.75
202.85	836.75
208.845	879.75
214.833	888.75
220.815	849.75
226.789	846.75
232.758	836.75
238.719	828.75
244.674	813.75
250.623	797.75
256.565	777.75
262.5	766.75
268.429	735.75
274.351	731.75
280.267	721.75
286.176	709.75
292.079	707.75
297.975	694.75
303.865	683.75
309.748	685.75
315.625	670.75
321.495	680.75
327.359	675.75
333.217	673.75
339.068	694.75
344.912	691.75
350.751	691.75
356.583	705.75
362.408	695.75
368.227	695.75
374.04	694.75
379.847	688.75
385.647	688.75
391.44	688.75
397.228	685.75
403.009	700.75
408.784	700.75
414.553	701.75
420.315	709.75
426.071	713.75
431.821	713.75
437.565	714.75
443.302	705.75
449.033	711.75
454.758	702.75
460.477	689.75
466.189	688.75
471.896	677.75
477.596	681.75
483.29	664.75
488.978	658.75
494.66	651.75
500.335	641.75
506.005	615.75
511.668	600.75
517.325	567.75
522.977	561.75
528.622	537.75
534.261	524.75
539.894	520.75
545.521	509.75
551.141	494.75
556.756	497.75
562.365	484.75
567.968	487.75
573.565	475.75
579.155	483.75
584.74	486.75
590.319	477.75
595.892	478.75
601.459	476.75
607.02	469.75
612.575	461.75
618.124	463.75
623.667	445.75
629.204	444.75
634.735	440.75
640.261	435.75
645.781	433.75
651.294	430.75
656.802	438.75
662.304	424.75
667.8	427.75
673.29	418.75
678.775	422.75
684.254	414.75
689.726	417.75
695.193	407.75
700.655	410.75
706.11	408.75
711.56	408.75
717.004	397.75
722.442	394.75
727.874	402.75
733.301	399.75
738.722	390.75
744.137	391.75
749.547	394.75
754.951	394.75
760.349	396.75
765.741	401.75
771.128	396.75
776.509	396.75
781.885	397.75
787.254	392.75
792.618	401.75
797.977	408.75
803.33	399.75
808.677	402.75
814.019	389.75
819.355	394.75
824.686	384.75
830.011	397.75
835.33	401.75
840.644	406.75
845.952	398.75
851.255	408.75
856.552	408.75
861.844	411.75
867.13	409.75
872.41	412.75
877.686	421.75
882.955	407.75
888.219	407.75
893.478	394.75
898.731	385.75
903.979	383.75
909.221	376.75
914.458	370.75
919.69	366.75
924.916	364.75
930.136	364.75
935.351	351.75
940.561	358.75
945.766	357.75
950.965	357.75
956.158	359.75
961.347	347.75
966.529	334.75
971.707	331.75
976.879	319.75
982.046	331.75
987.208	333.75
992.364	327.75
997.515	328.75
1002.66	338.75
1007.801	345.75
1012.936	350.75
1018.066	354.75
1023.19	345.75
1028.309	361.75
1033.423	368.75
1038.532	357.75
1043.636	353.75
1048.734	360.75
1053.827	356.75
1058.915	361.75
1063.998	373.75
1069.075	381.75
1074.147	381.75
1079.214	386.75
1084.276	397.75
1089.333	401.75
1094.385	387.75
1099.431	387.75
1104.472	373.75
1109.509	360.75
1114.54	357.75
1119.565	351.75
1124.586	364.75
1129.602	362.75
1134.613	354.75
1139.618	338.75
1144.619	317.75
1149.614	306.75
1154.604	307.75
1159.589	304.75
1164.57	297.75
1169.545	298.75
1174.515	296.75
1179.48	287.75
1184.44	283.75
1189.395	278.75
1194.345	278.75
1199.29	269.75
1204.23	275.75
1209.165	277.75
1214.095	287.75
1219.021	285.75
1223.941	280.75
1228.856	282.75
1233.766	288.75
1238.672	293.75
1243.572	308.75
1248.467	306.75
1253.358	311.75
1258.244	313.75
1263.124	315.75
1268	310.75
1272.871	298.75
1277.737	294.75
1282.599	293.75
1287.455	291.75
1292.306	311.75
1297.153	315.75
1301.995	332.75
1306.832	338.75
1311.664	333.75
1316.491	318.75
1321.314	300.75
1326.132	289.75
1330.945	284.75
1335.753	273.75
1340.556	270.75
1345.354	262.75
1350.148	258.75
1354.937	257.75
1359.722	243.75
1364.501	259.75
1369.276	252.75
1374.046	249.75
1378.811	260.75
1383.572	260.75
1388.327	245.75
1393.079	235.75
1397.825	235.75
1402.567	228.75
1407.304	225.75
1412.036	229.75
1416.764	230.75
1421.487	240.75
1426.205	243.75
1430.919	247.75
1435.628	280.75
1440.333	304.75
1445.032	326.75
1449.727	333.75
1454.418	323.75
1459.104	331.75
1463.785	304.75
1468.462	292.75
1473.134	267.75
1477.802	246.75
1482.465	223.75
1487.123	201.75
1491.777	195.75
1496.426	192.75
1501.071	185.75
1505.711	190.75
1510.347	185.75
1514.978	186.75
1519.604	182.75
1524.226	182.75
1528.844	179.75
1533.457	180.75
1538.065	183.75
1542.669	176.75
1547.269	181.75
1551.864	177.75
1556.454	176.75
1561.041	182.75
1565.622	174.75
1570.199	168.75
1574.772	170.75
1579.34	174.75
1583.904	183.75
1588.464	186.75
1593.019	182.75
1597.569	182.75
1602.115	187.75
1606.657	182.75
1611.195	190.75
1615.728	188.75
1620.256	196.75
1624.78	191.75
1629.3	195.75
1633.816	197.75
1638.327	196.75
1642.834	196.75
1647.336	206.75
1651.834	209.75
1656.328	214.75
1660.817	216.75
1665.302	217.75
1669.783	214.75
1674.259	199.75
1678.732	196.75
1683.199	189.75
1687.663	172.75
1692.122	167.75
1696.577	158.75
1701.028	155.75
1705.474	150.75
1709.917	147.75
1714.355	142.75
1718.788	135.75
1723.218	135.75
1727.643	130.75
1732.064	130.75
1736.481	130.75
1740.893	121.75
1745.301	127.75
1749.705	120.75
1754.105	124.75
1758.501	110.75
1762.893	101.75
1767.28	104.75
1771.663	101.75
1776.042	94.75
1780.417	101.75
1784.787	95.75
1789.154	99.75
1793.516	97.75
1797.874	98.75
1802.228	97.75
1806.578	100.75
1810.924	95.75
1815.266	93.75
1819.603	91.75
1823.937	92.75
1828.266	88.75
1832.591	87.75
1836.913	81.75
1841.23	86.75
1845.543	85.75
1849.852	81.75
1854.156	73.75
1858.457	83.75
1862.754	79.75
1867.047	83.75
1871.335	85.75
1875.62	82.75
1879.9	78.75
1884.177	79.75
1888.449	77.75
1892.718	79.75
1896.982	79.75
1901.243	74.75
1905.499	77.75
1909.752	78.75
1914	79.75
1918.245	75.75
1922.485	72.75
1926.722	78.75
1930.954	75.75
1935.183	73.75
1939.408	78.75
1943.628	83.75
1947.845	80.75
1952.058	83.75
1956.267	79.75
1960.472	79.75
1964.673	76.75
1968.87	76.75
1973.063	71.75
1977.252	73.75
1981.438	68.75
1985.619	74.75
1989.797	70.75
1993.971	64.75
1998.14	68.75
2002.306	67.75
2006.469	65.75
2010.627	66.75
2014.781	71.75
2018.932	66.75
2023.078	67.75
2027.221	65.75
2031.36	61.75
2035.495	58.75
2039.627	63.75
2043.754	62.75
2047.878	64.75
2051.998	64.75
2056.114	59.75
2060.226	61.75
2064.334	65.75
2068.439	61.75
2072.54	58.75
2076.637	62.75
2080.73	64.75
2084.82	65.75
2088.906	71.75
2092.988	64.75
2097.066	66.75
2101.14	67.75
2105.211	64.75
2109.278	60.75
2113.342	65.75
2117.401	59.75
2121.457	67.75
2125.509	60.75
2129.558	64.75
2133.602	59.75
2137.643	61.75
2141.681	58.75
2145.714	55.75
2149.744	58.75
2153.77	56.75
2157.793	54.75
2161.812	55.75
2165.827	50.75
2169.838	52.75
2173.846	52.75
2177.851	55.75
2181.851	50.75
2185.848	48.75
2189.841	43.75
2193.831	43.75
2197.817	48.75
2201.799	42.75
2205.778	47.75
2209.753	46.75
2213.725	47.75
2217.693	46.75
2221.657	46.75
2225.618	36.75
2229.575	37.75
2233.529	36.75
2237.479	40.75
2241.425	44.75
2245.368	44.75
2249.307	39.75
2253.243	37.75
2257.175	36.75
2261.104	37.75
2265.029	35.75
2268.95	38.75
2272.868	34.75
2276.783	34.75
2280.694	32.75
2284.601	32.75
2288.505	26.75
2292.405	29.75
2296.302	28.75
2300.195	31.75
2304.085	24.75
2307.971	26.75
2311.854	27.75
2315.734	26.75
2319.609	24.75
2323.482	31.75
2327.351	30.75
2331.216	30.75
2335.078	27.75
2338.937	22.75
2342.792	23.75
2346.643	25.75
2350.492	24.75
2354.336	18.75
2358.178	17.75
2362.015	18.75
2365.85	16.75
2369.681	22.75
2373.508	21.75
2377.333	22.75
2381.153	24.75
2384.971	16.75
2388.785	17.75
2392.595	16.75
2396.402	15.75
2400.206	16.75
2404.007	13.75
2407.804	19.75
2411.597	21.75
2415.388	14.75
2419.174	17.75
2422.958	17.75
2426.738	13.75
2430.515	11.75
2434.289	12.75
2438.059	18.75
2441.825	13.75
2445.589	14.75
2449.349	13.75
2453.106	15.75
2456.859	8.75
2460.61	11.75
2464.356	12.75
2468.1	9.75
2471.84	12.75
2475.577	13.75
2479.311	9.75
2483.041	13.75
2486.768	15.75
2490.492	12.75
2494.213	8.75
2497.93	9.75
2501.644	11.75
2505.355	8.75
2509.062	8.75
2512.766	13.75
2516.467	14.75
2520.165	5.75
2523.859	9.75
2527.551	13.75
2531.239	9.75
2534.923	8.75
2538.605	3.75
2542.283	7.75
2545.958	11.75
2549.63	11.75
2553.299	13.75
2556.964	8.75
2560.626	8.75
2564.285	3.75
2567.941	10.75
2571.594	11.75
2575.243	11.75
2578.89	13.75
2582.533	10.75
2586.173	10.75
2589.809	9.75
2593.443	7.75
2597.073	-0.25
2600.701	9.75
2604.325	9.75
2607.946	10.75
2611.564	8.75
2615.178	11.75
2618.79	8.75
2622.398	10.75
2626.004	6.75
2629.606	13.75
2633.205	9.75
2636.801	9.75
2640.394	9.75
2643.983	9.75
2647.57	8.75
2651.153	6.75
2654.734	5.75
2658.311	7.75
2661.885	8.75
2665.456	4.75
2669.025	4.75
2672.589	7.75
2676.151	8.75
2679.71	7.75
2683.266	2.75
2686.819	3.75
2690.368	6.75
2693.915	4.75
2697.458	6.75
2700.999	5.75
2704.536	10.75
2708.071	7.75
2711.602	7.75
2715.13	1.75
2718.656	5.75
2722.178	6.75
2725.697	5.75
2729.214	9.75
2732.727	9.75
2736.237	12.75
2739.744	11.75
2743.249	7.75
2746.75	9.75
2750.248	6.75
2753.743	5.75
2757.236	8.75
2760.725	14.75
2764.211	12.75
2767.695	7.75
2771.175	11.75
2774.652	5.75
2778.127	4.75
2781.598	7.75
2785.067	5.75
2788.532	7.75
2791.995	14.75
2795.455	8.75
2798.911	10.75
2802.365	10.75
2805.816	9.75
2809.264	10.75
2812.709	12.75
2816.151	14.75
2819.59	20.75
2823.026	16.75
2826.46	24.75
2829.89	28.75
2833.318	29.75
2836.742	31.75
2840.164	40.75
2843.583	49.75
2846.999	62.75
2850.412	75.75
2853.822	83.75
2857.229	102.75
2860.634	99.75
2864.035	87.75
2867.434	92.75
2870.83	98.75
2874.223	99.75
2877.613	107.75
2881	114.75
2884.385	117.75
2887.766	128.75
2891.145	120.75
2894.521	121.75
2897.894	111.75
2901.264	111.75
2904.631	114.75
2907.996	112.75
2911.358	114.75
2914.717	109.75
2918.073	110.75
2921.426	105.75
2924.777	107.75
2928.124	108.75
2931.469	103.75
2934.811	101.75
2938.15	104.75
2941.487	101.75
2944.821	98.75
2948.152	86.75
2951.48	79.75
2954.805	80.75
2958.128	76.75
2961.447	72.75
2964.765	71.75
2968.079	65.75
2971.39	62.75
2974.699	60.75
2978.005	52.75
2981.308	53.75
2984.609	49.75
2987.907	48.75
2991.202	50.75
2994.494	48.75
2997.784	44.75
3001.07	46.75
3004.355	44.75
3007.636	39.75
3010.915	43.75
3014.191	39.75
3017.464	33.75
3020.734	38.75
3024.002	40.75
3027.267	33.75
3030.53	35.75
3033.789	36.75
3037.046	31.75
3040.301	39.75
3043.552	33.75
3046.801	36.75
3050.048	38.75
3053.291	42.75
3056.532	42.75
3059.771	46.75
3063.006	43.75
3066.239	44.75
3069.469	46.75
3072.697	49.75
3075.922	54.75
3079.144	47.75
3082.364	55.75
3085.581	50.75
3088.795	59.75
3092.007	53.75
3095.216	59.75
3098.423	57.75
3101.627	62.75
3104.828	65.75
3108.026	66.75
3111.222	59.75
3114.416	65.75
3117.607	72.75
3120.795	74.75
3123.98	69.75
3127.163	77.75
3130.344	75.75
3133.521	83.75
3136.696	71.75
3139.869	83.75
3143.039	90.75
3146.206	88.75
3149.371	89.75
3152.533	85.75
3155.693	88.75
3158.85	87.75
3162.005	92.75
3165.157	92.75
3168.306	93.75
3171.453	96.75
3174.597	87.75
3177.739	90.75
3180.878	89.75
3184.014	97.75
3187.149	94.75
3190.28	94.75
3193.409	94.75
3196.536	94.75
3199.659	93.75
3202.781	89.75
3205.9	89.75
3209.016	96.75
3212.13	96.75
3215.241	94.75
3218.35	94.75
3221.456	95.75
3224.56	88.75
3227.661	88.75
3230.76	88.75
3233.856	87.75
3236.95	83.75
3240.041	84.75
3243.13	86.75
3246.216	90.75
3249.3	80.75
3252.382	88.75
3255.46	79.75
3258.537	80.75
3261.611	81.75
3264.682	85.75
3267.751	81.75
3270.818	84.75
3273.882	76.75
3276.943	82.75
3280.002	78.75
3283.059	83.75
3286.113	79.75
3289.165	74.75
3292.214	76.75
3295.261	75.75
3298.306	71.75
3301.348	72.75
3304.387	72.75
3307.425	74.75
3310.459	63.75
3313.492	61.75
3316.521	60.75
3319.549	67.75
3322.574	63.75
3325.597	63.75
3328.617	65.75
3331.635	59.75
3334.65	60.75
3337.663	60.75
3340.674	57.75
3343.682	58.75
3346.688	63.75
3349.691	62.75
3352.692	61.75
3355.691	62.75
3358.687	61.75
3361.681	55.75
3364.673	58.75
3367.662	54.75
3370.649	56.75
3373.633	53.75
3376.615	53.75
3379.595	49.75
3382.572	50.75
3385.547	49.75
3388.52	48.75
3391.49	53.75
3394.458	49.75
3397.424	39.75
3400.387	40.75
3403.348	41.75
3406.307	46.75
3409.263	45.75
3412.217	47.75
3415.168	45.75
3418.118	40.75
3421.065	42.75
3424.009	37.75
3426.951	41.75
3429.891	42.75
3432.829	39.75
3435.764	39.75
3438.697	38.75
3441.628	30.75
3444.557	27.75
3447.483	30.75
3450.407	33.75
3453.328	27.75
3456.247	29.75
3459.164	27.75
3462.079	24.75
3464.991	22.75
3467.902	25.75
3470.809	22.75
3473.715	24.75
3476.618	17.75
3479.519	16.75
3482.418	13.75
3485.315	16.75
3488.209	14.75
3491.101	14.75
3493.99	12.75
3496.878	13.75
3499.763	9.75
3502.646	14.75
3505.527	5.75
3508.405	5.75
3511.281	8.75
3514.155	10.75
3517.027	9.75
3519.897	8.75
3522.764	4.75
3525.629	-1.25
3528.492	0.75
3531.352	-2.25
3534.211	0.75
3537.067	-3.25
3539.921	2.75
3542.773	-1.25
3545.622	-2.25
3548.469	-6.25
3551.315	-10.25
3554.157	-11.25
3556.998	-9.25
3559.837	-7.25
3562.673	-1.25
3565.507	-9.25
3568.339	-4.25
3571.169	-10.25
3573.996	-7.25
3576.822	-13.25
3579.645	-13.25
3582.466	-10.25
3585.285	-7.25
3588.101	-9.25
3590.916	-17.25
3593.728	-14.25
3596.538	-15.25
3599.346	-19.25
3602.152	-16.25
3604.956	-14.25
3607.757	-15.25
3610.556	-16.25
3613.354	-18.25
3616.149	-18.25
3618.942	-15.25
3621.732	-20.25
3624.521	-17.25
3627.307	-17.25
3630.092	-21.25
3632.874	-22.25
3635.654	-19.25
3638.432	-20.25
3641.208	-18.25
3643.982	-19.25
3646.753	-14.25
3649.523	-20.25
3652.29	-19.25
3655.055	-24.25
3657.818	-28.25
3660.579	-21.25
3663.338	-22.25
3666.095	-16.25
3668.849	-17.25
3671.602	-19.25
3674.352	-25.25
3677.101	-25.25
3679.847	-25.25
3682.591	-25.25
3685.333	-23.25
3688.073	-22.25
3690.811	-22.25
3693.547	-28.25
3696.281	-24.25
3699.013	-25.25
3701.742	-28.25
3704.47	-24.25
3707.195	-27.25
3709.919	-26.25
3712.64	-26.25
3715.359	-23.25
3718.076	-22.25
3720.792	-28.25
3723.505	-20.25
3726.216	-25.25
3728.925	-30.25
3731.632	-28.25
3734.336	-27.25
3737.039	-24.25
3739.74	-25.25
3742.439	-24.25
3745.136	-23.25
3747.83	-22.25
3750.523	-21.25
3753.213	-29.25
3755.902	-25.25
3758.589	-27.25
3761.273	-27.25
3763.956	-24.25
3766.636	-24.25
3769.315	-22.25
3771.991	-28.25
3774.665	-36.25
3777.338	-26.25
3780.008	-24.25
3782.677	-24.25
3785.343	-24.25
3788.007	-24.25
3790.67	-26.25
3793.33	-27.25
3795.989	-31.25
3798.645	-28.25
3801.299	-27.25
3803.952	-29.25
3806.602	-25.25
3809.251	-26.25
3811.897	-26.25
3814.542	-28.25
3817.184	-25.25
3819.825	-27.25
3822.463	-24.25
3825.1	-28.25
3827.735	-24.25
3830.367	-27.25
3832.998	-26.25
3835.627	-24.25
3838.253	-21.25
3840.878	-27.25
3843.501	-25.25
3846.122	-29.25
3848.741	-24.25
3851.358	-28.25
3853.973	-27.25
3856.586	-24.25
3859.197	-28.25
3861.806	-23.25
3864.414	-27.25
3867.019	-28.25
3869.622	-27.25
3872.224	-30.25
3874.823	-30.25
3877.421	-24.25
3880.016	-21.25
3882.61	-19.25
3885.202	-17.25
3887.792	-14.25
3890.38	-22.25
3892.966	-28.25
3895.55	-27.25
3898.132	-27.25
3900.713	-21.25
3903.291	-23.25
3905.868	-26.25
3908.442	-25.25
3911.015	-27.25
3913.586	-30.25
3916.155	-32.25
3918.722	-29.25
3921.287	-20.25
3923.85	-25.25
3926.411	-27.25
3928.971	-21.25
3931.528	-30.25
3934.084	-29.25
3936.638	-26.25
3939.19	-28.25
3941.74	-25.25
3944.288	-25.25
3946.834	-26.25
3949.378	-29.25
3951.921	-25.25
3954.462	-24.25
3957	-27.25
3959.537	-27.25
3962.072	-26.25
3964.606	-23.25
3967.137	-26.25
3969.667	-24.25
3972.194	-28.25
3974.72	-26.25
3977.244	-27.25
3979.766	-27.25
3982.286	-23.25
3984.805	-26.25
3987.321	-28.25
3989.836	-28.25
3992.349	-27.25
3994.86	-25.25
3997.369	-25.25
3999.877	-26.25
4002.382	-26.25
4004.886	-26.25
4007.388	-25.25
4009.888	-23.25
4012.386	-26.25
4014.883	-24.25
4017.377	-25.25
4019.87	-26.25
4022.361	-24.25
4024.85	-30.25
4027.338	-29.25
4029.823	-28.25
4032.307	-26.25
4034.789	-23.25
4037.269	-23.25
4039.747	-25.25
4042.224	-28.25
4044.699	-30.25
4047.172	-31.25
4049.643	-24.25
4052.112	-25.25
4054.58	-22.25
4057.046	-20.25
4059.51	-27.25
4061.972	-28.25
4064.432	-25.25
4066.891	-25.25
4069.348	-24.25
4071.803	-24.25
4074.256	-26.25
4076.708	-25.25
4079.158	-27.25
4081.606	-24.25
4084.052	-27.25
4086.497	-26.25
4088.939	-26.25
4091.38	-26.25
4093.819	-24.25
4096.257	-25.25
4098.693	-30.25
4101.127	-27.25
4103.559	-30.25
4105.989	-14.25
4108.418	-14.25
4110.845	-7.25
4113.27	-12.25
4115.694	-11.25
4118.115	-11.25
4120.535	-25.25
4122.954	-27.25
4125.37	-26.25
4127.785	-24.25
4130.198	-26.25
4132.609	-29.25
4135.019	-27.25
4137.427	-28.25
4139.833	-26.25
4142.237	-26.25
