Data from 100CFU1_A_RamanShift_1.txt Node
Date: Thu Feb 02 13:44:40 IST 2017
User: aro
Spectrometer: QEPB0276
Trigger mode: 0
Integration Time (sec): 5.000000E0
Scans to average: 1
Electric dark correction enabled: true
Nonlinearity correction enabled: false
Boxcar width: 0
XAxis mode: Raman Shifts
Number of Pixels in Spectrum: 1044
>>>>>Begin Spectral Data<<<<<
160.701	-4.5
166.742	4.5
172.777	22.5
178.805	82.5
184.826	202.5
190.841	409.5
196.849	636.5
202.85	787.5
208.845	825.5
214.833	823.5
220.815	803.5
226.789	790.5
232.758	785.5
238.719	781.5
244.674	775.5
250.623	748.5
256.565	724.5
262.5	709.5
268.429	694.5
274.351	685.5
280.267	671.5
286.176	657.5
292.079	656.5
297.975	642.5
303.865	644.5
309.748	641.5
315.625	639.5
321.495	638.5
327.359	637.5
333.217	644.5
339.068	637.5
344.912	650.5
350.751	658.5
356.583	662.5
362.408	660.5
368.227	650.5
374.04	648.5
379.847	640.5
385.647	634.5
391.44	634.5
397.228	646.5
403.009	646.5
408.784	651.5
414.553	664.5
420.315	660.5
426.071	664.5
431.821	673.5
437.565	662.5
443.302	671.5
449.033	669.5
454.758	665.5
460.477	652.5
466.189	652.5
471.896	652.5
477.596	640.5
483.29	625.5
488.978	615.5
494.66	611.5
500.335	581.5
506.005	571.5
511.668	555.5
517.325	535.5
522.977	512.5
528.622	503.5
534.261	485.5
539.894	479.5
545.521	472.5
551.141	459.5
556.756	469.5
562.365	449.5
567.968	445.5
573.565	444.5
579.155	436.5
584.74	443.5
590.319	435.5
595.892	434.5
601.459	434.5
607.02	428.5
612.575	432.5
618.124	426.5
623.667	417.5
629.204	407.5
634.735	403.5
640.261	402.5
645.781	401.5
651.294	398.5
656.802	386.5
662.304	393.5
667.8	381.5
673.29	382.5
678.775	386.5
684.254	382.5
689.726	375.5
695.193	378.5
700.655	377.5
706.11	374.5
711.56	379.5
717.004	381.5
722.442	377.5
727.874	372.5
733.301	365.5
738.722	351.5
744.137	366.5
749.547	356.5
754.951	362.5
760.349	363.5
765.741	361.5
771.128	363.5
776.509	368.5
781.885	370.5
787.254	363.5
792.618	375.5
797.977	363.5
803.33	360.5
808.677	368.5
814.019	361.5
819.355	358.5
824.686	356.5
830.011	362.5
835.33	371.5
840.644	373.5
845.952	374.5
851.255	376.5
856.552	372.5
861.844	376.5
867.13	375.5
872.41	379.5
877.686	377.5
882.955	379.5
888.219	371.5
893.478	368.5
898.731	363.5
903.979	349.5
909.221	340.5
914.458	333.5
919.69	333.5
924.916	334.5
930.136	337.5
935.351	328.5
940.561	330.5
945.766	327.5
950.965	333.5
956.158	329.5
961.347	319.5
966.529	305.5
971.707	314.5
976.879	304.5
982.046	301.5
987.208	299.5
992.364	302.5
997.515	293.5
1002.66	307.5
1007.801	318.5
1012.936	317.5
1018.066	327.5
1023.19	325.5
1028.309	325.5
1033.423	327.5
1038.532	332.5
1043.636	334.5
1048.734	324.5
1053.827	327.5
1058.915	344.5
1063.998	350.5
1069.075	357.5
1074.147	358.5
1079.214	349.5
1084.276	361.5
1089.333	370.5
1094.385	364.5
1099.431	358.5
1104.472	350.5
1109.509	335.5
1114.54	329.5
1119.565	332.5
1124.586	336.5
1129.602	333.5
1134.613	330.5
1139.618	313.5
1144.619	287.5
1149.614	282.5
1154.604	279.5
1159.589	289.5
1164.57	276.5
1169.545	274.5
1174.515	272.5
1179.48	260.5
1184.44	256.5
1189.395	249.5
1194.345	249.5
1199.29	251.5
1204.23	252.5
1209.165	249.5
1214.095	258.5
1219.021	251.5
1223.941	259.5
1228.856	257.5
1233.766	269.5
1238.672	272.5
1243.572	284.5
1248.467	279.5
1253.358	285.5
1258.244	286.5
1263.124	284.5
1268	285.5
1272.871	283.5
1277.737	279.5
1282.599	273.5
1287.455	270.5
1292.306	279.5
1297.153	290.5
1301.995	307.5
1306.832	314.5
1311.664	309.5
1316.491	295.5
1321.314	288.5
1326.132	272.5
1330.945	264.5
1335.753	250.5
1340.556	249.5
1345.354	239.5
1350.148	240.5
1354.937	239.5
1359.722	233.5
1364.501	236.5
1369.276	232.5
1374.046	235.5
1378.811	235.5
1383.572	234.5
1388.327	228.5
1393.079	219.5
1397.825	219.5
1402.567	217.5
1407.304	209.5
1412.036	218.5
1416.764	212.5
1421.487	218.5
1426.205	229.5
1430.919	239.5
1435.628	260.5
1440.333	279.5
1445.032	302.5
1449.727	319.5
1454.418	300.5
1459.104	290.5
1463.785	287.5
1468.462	274.5
1473.134	265.5
1477.802	229.5
1482.465	206.5
1487.123	185.5
1491.777	178.5
1496.426	174.5
1501.071	167.5
1505.711	170.5
1510.347	170.5
1514.978	165.5
1519.604	166.5
1524.226	168.5
1528.844	167.5
1533.457	164.5
1538.065	165.5
1542.669	161.5
1547.269	165.5
1551.864	166.5
1556.454	170.5
1561.041	168.5
1565.622	165.5
1570.199	160.5
1574.772	166.5
1579.34	167.5
1583.904	162.5
1588.464	169.5
1593.019	170.5
1597.569	173.5
1602.115	172.5
1606.657	169.5
1611.195	175.5
1615.728	176.5
1620.256	177.5
1624.78	176.5
1629.3	176.5
1633.816	180.5
1638.327	178.5
1642.834	187.5
1647.336	191.5
1651.834	200.5
1656.328	198.5
1660.817	204.5
1665.302	204.5
1669.783	192.5
1674.259	190.5
1678.732	187.5
1683.199	171.5
1687.663	163.5
1692.122	148.5
1696.577	146.5
1701.028	143.5
1705.474	137.5
1709.917	133.5
1714.355	134.5
1718.788	120.5
1723.218	120.5
1727.643	115.5
1732.064	113.5
1736.481	122.5
1740.893	116.5
1745.301	115.5
1749.705	109.5
1754.105	102.5
1758.501	104.5
1762.893	93.5
1767.28	88.5
1771.663	92.5
1776.042	89.5
1780.417	89.5
1784.787	86.5
1789.154	87.5
1793.516	84.5
1797.874	85.5
1802.228	87.5
1806.578	87.5
1810.924	89.5
1815.266	88.5
1819.603	78.5
1823.937	84.5
1828.266	75.5
1832.591	75.5
1836.913	77.5
1841.23	77.5
1845.543	71.5
1849.852	72.5
1854.156	79.5
1858.457	78.5
1862.754	72.5
1867.047	70.5
1871.335	76.5
1875.62	72.5
1879.9	73.5
1884.177	71.5
1888.449	73.5
1892.718	71.5
1896.982	72.5
1901.243	67.5
1905.499	70.5
1909.752	71.5
1914	70.5
1918.245	62.5
1922.485	62.5
1926.722	66.5
1930.954	69.5
1935.183	68.5
1939.408	71.5
1943.628	73.5
1947.845	70.5
1952.058	70.5
1956.267	67.5
1960.472	67.5
1964.673	66.5
1968.87	69.5
1973.063	65.5
1977.252	61.5
1981.438	62.5
1985.619	58.5
1989.797	53.5
1993.971	58.5
1998.14	63.5
2002.306	59.5
2006.469	55.5
2010.627	62.5
2014.781	62.5
2018.932	62.5
2023.078	59.5
2027.221	60.5
2031.36	55.5
2035.495	51.5
2039.627	55.5
2043.754	56.5
2047.878	61.5
2051.998	57.5
2056.114	54.5
2060.226	59.5
2064.334	56.5
2068.439	58.5
2072.54	55.5
2076.637	56.5
2080.73	56.5
2084.82	58.5
2088.906	65.5
2092.988	59.5
2097.066	56.5
2101.14	59.5
2105.211	55.5
2109.278	51.5
2113.342	55.5
2117.401	57.5
2121.457	58.5
2125.509	56.5
2129.558	56.5
2133.602	53.5
2137.643	54.5
2141.681	49.5
2145.714	47.5
2149.744	53.5
2153.77	51.5
2157.793	52.5
2161.812	49.5
2165.827	44.5
2169.838	45.5
2173.846	43.5
2177.851	39.5
2181.851	45.5
2185.848	43.5
2189.841	42.5
2193.831	44.5
2197.817	44.5
2201.799	39.5
2205.778	36.5
2209.753	36.5
2213.725	40.5
2217.693	41.5
2221.657	41.5
2225.618	37.5
2229.575	38.5
2233.529	34.5
2237.479	40.5
2241.425	37.5
2245.368	40.5
2249.307	34.5
2253.243	31.5
2257.175	41.5
2261.104	30.5
2265.029	29.5
2268.95	29.5
2272.868	30.5
2276.783	26.5
2280.694	27.5
2284.601	24.5
2288.505	26.5
2292.405	30.5
2296.302	28.5
2300.195	26.5
2304.085	26.5
2307.971	23.5
2311.854	21.5
2315.734	18.5
2319.609	18.5
2323.482	22.5
2327.351	26.5
2331.216	27.5
2335.078	28.5
2338.937	23.5
2342.792	17.5
2346.643	19.5
2350.492	17.5
2354.336	17.5
2358.178	16.5
2362.015	16.5
2365.85	15.5
2369.681	15.5
2373.508	15.5
2377.333	17.5
2381.153	17.5
2384.971	16.5
2388.785	15.5
2392.595	15.5
2396.402	10.5
2400.206	16.5
2404.007	16.5
2407.804	16.5
2411.597	14.5
2415.388	11.5
2419.174	14.5
2422.958	12.5
2426.738	10.5
2430.515	14.5
2434.289	15.5
2438.059	12.5
2441.825	10.5
2445.589	9.5
2449.349	8.5
2453.106	7.5
2456.859	9.5
2460.61	9.5
2464.356	13.5
2468.1	10.5
2471.84	10.5
2475.577	13.5
2479.311	3.5
2483.041	9.5
2486.768	8.5
2490.492	8.5
2494.213	9.5
2497.93	13.5
2501.644	12.5
2505.355	9.5
2509.062	8.5
2512.766	7.5
2516.467	7.5
2520.165	6.5
2523.859	10.5
2527.551	9.5
2531.239	9.5
2534.923	6.5
2538.605	4.5
2542.283	4.5
2545.958	6.5
2549.63	8.5
2553.299	11.5
2556.964	6.5
2560.626	12.5
2564.285	4.5
2567.941	5.5
2571.594	9.5
2575.243	7.5
2578.89	7.5
2582.533	5.5
2586.173	7.5
2589.809	7.5
2593.443	11.5
2597.073	4.5
2600.701	12.5
2604.325	4.5
2607.946	8.5
2611.564	5.5
2615.178	8.5
2618.79	5.5
2622.398	8.5
2626.004	7.5
2629.606	11.5
2633.205	5.5
2636.801	1.5
2640.394	7.5
2643.983	6.5
2647.57	8.5
2651.153	6.5
2654.734	4.5
2658.311	7.5
2661.885	5.5
2665.456	4.5
2669.025	5.5
2672.589	-3.5
2676.151	4.5
2679.71	5.5
2683.266	7.5
2686.819	6.5
2690.368	7.5
2693.915	6.5
2697.458	5.5
2700.999	-0.5
2704.536	6.5
2708.071	3.5
2711.602	5.5
2715.13	8.5
2718.656	6.5
2722.178	4.5
2725.697	6.5
2729.214	6.5
2732.727	10.5
2736.237	9.5
2739.744	14.5
2743.249	9.5
2746.75	8.5
2750.248	5.5
2753.743	6.5
2757.236	5.5
2760.725	6.5
2764.211	13.5
2767.695	4.5
2771.175	9.5
2774.652	8.5
2778.127	5.5
2781.598	10.5
2785.067	5.5
2788.532	-0.5
2791.995	6.5
2795.455	10.5
2798.911	7.5
2802.365	9.5
2805.816	8.5
2809.264	13.5
2812.709	10.5
2816.151	15.5
2819.59	14.5
2823.026	17.5
2826.46	27.5
2829.89	26.5
2833.318	24.5
2836.742	29.5
2840.164	38.5
2843.583	43.5
2846.999	53.5
2850.412	67.5
2853.822	78.5
2857.229	88.5
2860.634	99.5
2864.035	94.5
2867.434	91.5
2870.83	96.5
2874.223	94.5
2877.613	99.5
2881	110.5
2884.385	114.5
2887.766	125.5
2891.145	121.5
2894.521	116.5
2897.894	116.5
2901.264	111.5
2904.631	106.5
2907.996	106.5
2911.358	108.5
2914.717	108.5
2918.073	103.5
2921.426	107.5
2924.777	104.5
2928.124	97.5
2931.469	102.5
2934.811	96.5
2938.15	102.5
2941.487	99.5
2944.821	94.5
2948.152	85.5
2951.48	79.5
2954.805	76.5
2958.128	72.5
2961.447	70.5
2964.765	63.5
2968.079	62.5
2971.39	61.5
2974.699	56.5
2978.005	52.5
2981.308	51.5
2984.609	50.5
2987.907	46.5
2991.202	47.5
2994.494	42.5
2997.784	46.5
3001.07	40.5
3004.355	42.5
3007.636	38.5
3010.915	39.5
3014.191	33.5
3017.464	35.5
3020.734	32.5
3024.002	31.5
3027.267	30.5
3030.53	37.5
3033.789	32.5
3037.046	33.5
3040.301	35.5
3043.552	26.5
3046.801	33.5
3050.048	37.5
3053.291	40.5
3056.532	39.5
3059.771	42.5
3063.006	40.5
3066.239	42.5
3069.469	43.5
3072.697	43.5
3075.922	48.5
3079.144	50.5
3082.364	52.5
3085.581	47.5
3088.795	49.5
3092.007	51.5
3095.216	53.5
3098.423	58.5
3101.627	58.5
3104.828	58.5
3108.026	62.5
3111.222	62.5
3114.416	62.5
3117.607	69.5
3120.795	71.5
3123.98	67.5
3127.163	77.5
3130.344	74.5
3133.521	74.5
3136.696	74.5
3139.869	78.5
3143.039	86.5
3146.206	83.5
3149.371	81.5
3152.533	79.5
3155.693	84.5
3158.85	78.5
3162.005	88.5
3165.157	88.5
3168.306	85.5
3171.453	90.5
3174.597	82.5
3177.739	85.5
3180.878	85.5
3184.014	86.5
3187.149	86.5
3190.28	82.5
3193.409	88.5
3196.536	90.5
3199.659	82.5
3202.781	86.5
3205.9	86.5
3209.016	90.5
3212.13	96.5
3215.241	90.5
3218.35	88.5
3221.456	87.5
3224.56	85.5
3227.661	83.5
3230.76	88.5
3233.856	86.5
3236.95	81.5
3240.041	83.5
3243.13	86.5
3246.216	79.5
3249.3	82.5
3252.382	78.5
3255.46	77.5
3258.537	74.5
3261.611	79.5
3264.682	74.5
3267.751	76.5
3270.818	77.5
3273.882	70.5
3276.943	74.5
3280.002	70.5
3283.059	72.5
3286.113	76.5
3289.165	71.5
3292.214	69.5
3295.261	64.5
3298.306	70.5
3301.348	64.5
3304.387	62.5
3307.425	62.5
3310.459	61.5
3313.492	62.5
3316.521	64.5
3319.549	59.5
3322.574	58.5
3325.597	57.5
3328.617	56.5
3331.635	56.5
3334.65	54.5
3337.663	53.5
3340.674	58.5
3343.682	58.5
3346.688	52.5
3349.691	56.5
3352.692	54.5
3355.691	51.5
3358.687	53.5
3361.681	51.5
3364.673	58.5
3367.662	54.5
3370.649	55.5
3373.633	54.5
3376.615	48.5
3379.595	45.5
3382.572	40.5
3385.547	48.5
3388.52	49.5
3391.49	47.5
3394.458	48.5
3397.424	46.5
3400.387	43.5
3403.348	41.5
3406.307	42.5
3409.263	39.5
3412.217	42.5
3415.168	38.5
3418.118	40.5
3421.065	40.5
3424.009	36.5
3426.951	39.5
3429.891	40.5
3432.829	39.5
3435.764	33.5
3438.697	31.5
3441.628	29.5
3444.557	33.5
3447.483	31.5
3450.407	32.5
3453.328	29.5
3456.247	28.5
3459.164	21.5
3462.079	19.5
3464.991	19.5
3467.902	18.5
3470.809	21.5
3473.715	21.5
3476.618	21.5
3479.519	16.5
3482.418	10.5
3485.315	14.5
3488.209	6.5
3491.101	8.5
3493.99	12.5
3496.878	13.5
3499.763	11.5
3502.646	5.5
3505.527	6.5
3508.405	11.5
3511.281	5.5
3514.155	4.5
3517.027	2.5
3519.897	5.5
3522.764	4.5
3525.629	1.5
3528.492	1.5
3531.352	-3.5
3534.211	0.5
3537.067	-1.5
3539.921	-1.5
3542.773	-3.5
3545.622	-0.5
3548.469	-4.5
3551.315	-4.5
3554.157	-8.5
3556.998	-7.5
3559.837	-8.5
3562.673	-5.5
3565.507	-14.5
3568.339	-6.5
3571.169	-8.5
3573.996	-10.5
3576.822	-12.5
3579.645	-15.5
3582.466	-9.5
3585.285	-11.5
3588.101	-14.5
3590.916	-18.5
3593.728	-15.5
3596.538	-16.5
3599.346	-14.5
3602.152	-15.5
3604.956	-11.5
3607.757	-14.5
3610.556	-17.5
3613.354	-17.5
3616.149	-18.5
3618.942	-16.5
3621.732	-18.5
3624.521	-18.5
3627.307	-13.5
3630.092	-16.5
3632.874	-21.5
3635.654	-19.5
3638.432	-22.5
3641.208	-16.5
3643.982	-17.5
3646.753	-15.5
3649.523	-17.5
3652.29	-17.5
3655.055	-23.5
3657.818	-24.5
3660.579	-22.5
3663.338	-22.5
3666.095	-20.5
3668.849	-19.5
3671.602	-20.5
3674.352	-20.5
3677.101	-17.5
3679.847	-25.5
3682.591	-23.5
3685.333	-22.5
3688.073	-23.5
3690.811	-25.5
3693.547	-27.5
3696.281	-20.5
3699.013	-23.5
3701.742	-25.5
3704.47	-25.5
3707.195	-24.5
3709.919	-25.5
3712.64	-30.5
3715.359	-23.5
3718.076	-23.5
3720.792	-25.5
3723.505	-17.5
3726.216	-18.5
3728.925	-24.5
3731.632	-25.5
3734.336	-28.5
3737.039	-26.5
3739.74	-27.5
3742.439	-24.5
3745.136	-22.5
3747.83	-20.5
3750.523	-20.5
3753.213	-25.5
3755.902	-23.5
3758.589	-30.5
3761.273	-27.5
3763.956	-24.5
3766.636	-22.5
3769.315	-19.5
3771.991	-25.5
3774.665	-27.5
3777.338	-25.5
3780.008	-26.5
3782.677	-27.5
3785.343	-29.5
3788.007	-27.5
3790.67	-21.5
3793.33	-24.5
3795.989	-27.5
3798.645	-24.5
3801.299	-24.5
3803.952	-25.5
3806.602	-28.5
3809.251	-25.5
3811.897	-24.5
3814.542	-27.5
3817.184	-25.5
3819.825	-24.5
3822.463	-21.5
3825.1	-25.5
3827.735	-24.5
3830.367	-27.5
3832.998	-27.5
3835.627	-28.5
3838.253	-21.5
3840.878	-26.5
3843.501	-21.5
3846.122	-24.5
3848.741	-23.5
3851.358	-29.5
3853.973	-25.5
3856.586	-27.5
3859.197	-25.5
3861.806	-22.5
3864.414	-25.5
3867.019	-23.5
3869.622	-26.5
3872.224	-29.5
3874.823	-29.5
3877.421	-23.5
3880.016	-22.5
3882.61	-14.5
3885.202	-12.5
3887.792	-14.5
3890.38	-20.5
3892.966	-26.5
3895.55	-25.5
3898.132	-26.5
3900.713	-20.5
3903.291	-22.5
3905.868	-22.5
3908.442	-24.5
3911.015	-25.5
3913.586	-28.5
3916.155	-29.5
3918.722	-26.5
3921.287	-21.5
3923.85	-24.5
3926.411	-22.5
3928.971	-20.5
3931.528	-27.5
3934.084	-27.5
3936.638	-25.5
3939.19	-28.5
3941.74	-24.5
3944.288	-26.5
3946.834	-24.5
3949.378	-27.5
3951.921	-24.5
3954.462	-24.5
3957	-26.5
3959.537	-25.5
3962.072	-24.5
3964.606	-27.5
3967.137	-24.5
3969.667	-25.5
3972.194	-27.5
3974.72	-27.5
3977.244	-24.5
3979.766	-25.5
3982.286	-24.5
3984.805	-25.5
3987.321	-24.5
3989.836	-27.5
3992.349	-25.5
3994.86	-21.5
3997.369	-26.5
3999.877	-24.5
4002.382	-25.5
4004.886	-26.5
4007.388	-26.5
4009.888	-24.5
4012.386	-25.5
4014.883	-24.5
4017.377	-21.5
4019.87	-24.5
4022.361	-22.5
4024.85	-29.5
4027.338	-30.5
4029.823	-28.5
4032.307	-24.5
4034.789	-21.5
4037.269	-23.5
4039.747	-24.5
4042.224	-25.5
4044.699	-26.5
4047.172	-29.5
4049.643	-26.5
4052.112	-22.5
4054.58	-22.5
4057.046	-22.5
4059.51	-24.5
4061.972	-28.5
4064.432	-25.5
4066.891	-28.5
4069.348	-25.5
4071.803	-23.5
4074.256	-22.5
4076.708	-21.5
4079.158	-23.5
4081.606	-28.5
4084.052	-22.5
4086.497	-24.5
4088.939	-24.5
4091.38	-26.5
4093.819	-24.5
4096.257	-27.5
4098.693	-27.5
4101.127	-26.5
4103.559	-25.5
4105.989	-7.5
4108.418	-11.5
4110.845	-8.5
4113.27	-11.5
4115.694	-14.5
4118.115	-11.5
4120.535	-23.5
4122.954	-26.5
4125.37	-25.5
4127.785	-21.5
4130.198	-25.5
4132.609	-28.5
4135.019	-26.5
4137.427	-28.5
4139.833	-23.5
4142.237	-26.5
