Data from 100CFU2_B_RamanShift_1.txt Node
Date: Thu Feb 02 14:26:25 IST 2017
User: aro
Spectrometer: QEPB0276
Trigger mode: 0
Integration Time (sec): 5.000000E0
Scans to average: 1
Electric dark correction enabled: true
Nonlinearity correction enabled: false
Boxcar width: 0
XAxis mode: Raman Shifts
Number of Pixels in Spectrum: 1044
>>>>>Begin Spectral Data<<<<<
160.701	-5.25
166.742	0.75
172.777	23.75
178.805	83.75
184.826	211.75
190.841	410.75
196.849	619.75
202.85	776.75
208.845	812.75
214.833	816.75
220.815	783.75
226.789	785.75
232.758	778.75
238.719	769.75
244.674	751.75
250.623	747.75
256.565	723.75
262.5	701.75
268.429	684.75
274.351	680.75
280.267	665.75
286.176	664.75
292.079	670.75
297.975	653.75
303.865	643.75
309.748	626.75
315.625	640.75
321.495	640.75
327.359	633.75
333.217	629.75
339.068	646.75
344.912	651.75
350.751	647.75
356.583	654.75
362.408	665.75
368.227	660.75
374.04	650.75
379.847	646.75
385.647	647.75
391.44	634.75
397.228	647.75
403.009	649.75
408.784	658.75
414.553	659.75
420.315	665.75
426.071	672.75
431.821	675.75
437.565	667.75
443.302	678.75
449.033	672.75
454.758	653.75
460.477	650.75
466.189	652.75
471.896	645.75
477.596	629.75
483.29	638.75
488.978	618.75
494.66	616.75
500.335	586.75
506.005	571.75
511.668	552.75
517.325	539.75
522.977	510.75
528.622	495.75
534.261	483.75
539.894	475.75
545.521	480.75
551.141	461.75
556.756	460.75
562.365	452.75
567.968	445.75
573.565	444.75
579.155	441.75
584.74	435.75
590.319	439.75
595.892	446.75
601.459	445.75
607.02	435.75
612.575	435.75
618.124	427.75
623.667	423.75
629.204	415.75
634.735	415.75
640.261	405.75
645.781	409.75
651.294	402.75
656.802	399.75
662.304	391.75
667.8	388.75
673.29	388.75
678.775	392.75
684.254	386.75
689.726	381.75
695.193	379.75
700.655	373.75
706.11	378.75
711.56	377.75
717.004	376.75
722.442	379.75
727.874	377.75
733.301	368.75
738.722	368.75
744.137	368.75
749.547	363.75
754.951	372.75
760.349	361.75
765.741	366.75
771.128	361.75
776.509	371.75
781.885	365.75
787.254	373.75
792.618	369.75
797.977	373.75
803.33	374.75
808.677	364.75
814.019	365.75
819.355	365.75
824.686	363.75
830.011	366.75
835.33	374.75
840.644	378.75
845.952	362.75
851.255	381.75
856.552	371.75
861.844	381.75
867.13	380.75
872.41	376.75
877.686	377.75
882.955	377.75
888.219	372.75
893.478	376.75
898.731	359.75
903.979	353.75
909.221	335.75
914.458	330.75
919.69	335.75
924.916	340.75
930.136	327.75
935.351	332.75
940.561	335.75
945.766	327.75
950.965	330.75
956.158	329.75
961.347	319.75
966.529	314.75
971.707	303.75
976.879	306.75
982.046	298.75
987.208	300.75
992.364	304.75
997.515	304.75
1002.66	315.75
1007.801	314.75
1012.936	319.75
1018.066	325.75
1023.19	328.75
1028.309	334.75
1033.423	336.75
1038.532	331.75
1043.636	330.75
1048.734	338.75
1053.827	337.75
1058.915	337.75
1063.998	346.75
1069.075	361.75
1074.147	359.75
1079.214	356.75
1084.276	366.75
1089.333	369.75
1094.385	361.75
1099.431	355.75
1104.472	353.75
1109.509	336.75
1114.54	329.75
1119.565	335.75
1124.586	330.75
1129.602	338.75
1134.613	327.75
1139.618	315.75
1144.619	298.75
1149.614	285.75
1154.604	279.75
1159.589	281.75
1164.57	278.75
1169.545	283.75
1174.515	265.75
1179.48	274.75
1184.44	260.75
1189.395	252.75
1194.345	249.75
1199.29	248.75
1204.23	253.75
1209.165	255.75
1214.095	253.75
1219.021	260.75
1223.941	259.75
1228.856	262.75
1233.766	266.75
1238.672	268.75
1243.572	285.75
1248.467	284.75
1253.358	290.75
1258.244	294.75
1263.124	291.75
1268	285.75
1272.871	276.75
1277.737	280.75
1282.599	273.75
1287.455	270.75
1292.306	277.75
1297.153	297.75
1301.995	312.75
1306.832	313.75
1311.664	305.75
1316.491	298.75
1321.314	291.75
1326.132	268.75
1330.945	259.75
1335.753	256.75
1340.556	248.75
1345.354	250.75
1350.148	247.75
1354.937	244.75
1359.722	231.75
1364.501	230.75
1369.276	229.75
1374.046	241.75
1378.811	236.75
1383.572	234.75
1388.327	234.75
1393.079	218.75
1397.825	216.75
1402.567	207.75
1407.304	205.75
1412.036	216.75
1416.764	215.75
1421.487	228.75
1426.205	225.75
1430.919	234.75
1435.628	255.75
1440.333	286.75
1445.032	307.75
1449.727	313.75
1454.418	309.75
1459.104	297.75
1463.785	292.75
1468.462	277.75
1473.134	251.75
1477.802	233.75
1482.465	206.75
1487.123	190.75
1491.777	178.75
1496.426	176.75
1501.071	174.75
1505.711	171.75
1510.347	168.75
1514.978	169.75
1519.604	169.75
1524.226	162.75
1528.844	168.75
1533.457	160.75
1538.065	165.75
1542.669	161.75
1547.269	169.75
1551.864	167.75
1556.454	164.75
1561.041	165.75
1565.622	162.75
1570.199	160.75
1574.772	160.75
1579.34	171.75
1583.904	169.75
1588.464	176.75
1593.019	173.75
1597.569	165.75
1602.115	165.75
1606.657	169.75
1611.195	167.75
1615.728	173.75
1620.256	177.75
1624.78	177.75
1629.3	178.75
1633.816	183.75
1638.327	182.75
1642.834	182.75
1647.336	192.75
1651.834	196.75
1656.328	201.75
1660.817	208.75
1665.302	200.75
1669.783	194.75
1674.259	183.75
1678.732	189.75
1683.199	171.75
1687.663	159.75
1692.122	151.75
1696.577	146.75
1701.028	144.75
1705.474	140.75
1709.917	133.75
1714.355	130.75
1718.788	125.75
1723.218	118.75
1727.643	116.75
1732.064	115.75
1736.481	122.75
1740.893	119.75
1745.301	118.75
1749.705	110.75
1754.105	104.75
1758.501	101.75
1762.893	91.75
1767.28	92.75
1771.663	93.75
1776.042	89.75
1780.417	89.75
1784.787	83.75
1789.154	84.75
1793.516	82.75
1797.874	89.75
1802.228	84.75
1806.578	87.75
1810.924	92.75
1815.266	85.75
1819.603	84.75
1823.937	86.75
1828.266	79.75
1832.591	75.75
1836.913	78.75
1841.23	73.75
1845.543	76.75
1849.852	76.75
1854.156	71.75
1858.457	80.75
1862.754	76.75
1867.047	73.75
1871.335	72.75
1875.62	71.75
1879.9	73.75
1884.177	71.75
1888.449	72.75
1892.718	72.75
1896.982	67.75
1901.243	71.75
1905.499	73.75
1909.752	70.75
1914	68.75
1918.245	64.75
1922.485	69.75
1926.722	72.75
1930.954	73.75
1935.183	72.75
1939.408	71.75
1943.628	73.75
1947.845	69.75
1952.058	68.75
1956.267	74.75
1960.472	66.75
1964.673	67.75
1968.87	67.75
1973.063	70.75
1977.252	56.75
1981.438	60.75
1985.619	60.75
1989.797	60.75
1993.971	70.75
1998.14	63.75
2002.306	66.75
2006.469	61.75
2010.627	53.75
2014.781	62.75
2018.932	62.75
2023.078	63.75
2027.221	58.75
2031.36	61.75
2035.495	59.75
2039.627	56.75
2043.754	57.75
2047.878	54.75
2051.998	52.75
2056.114	57.75
2060.226	56.75
2064.334	55.75
2068.439	59.75
2072.54	55.75
2076.637	58.75
2080.73	60.75
2084.82	57.75
2088.906	61.75
2092.988	59.75
2097.066	58.75
2101.14	63.75
2105.211	54.75
2109.278	58.75
2113.342	52.75
2117.401	56.75
2121.457	62.75
2125.509	50.75
2129.558	58.75
2133.602	52.75
2137.643	58.75
2141.681	52.75
2145.714	58.75
2149.744	55.75
2153.77	53.75
2157.793	45.75
2161.812	47.75
2165.827	45.75
2169.838	47.75
2173.846	45.75
2177.851	43.75
2181.851	40.75
2185.848	41.75
2189.841	38.75
2193.831	35.75
2197.817	38.75
2201.799	42.75
2205.778	41.75
2209.753	43.75
2213.725	43.75
2217.693	42.75
2221.657	38.75
2225.618	37.75
2229.575	33.75
2233.529	37.75
2237.479	39.75
2241.425	37.75
2245.368	40.75
2249.307	38.75
2253.243	32.75
2257.175	30.75
2261.104	28.75
2265.029	32.75
2268.95	30.75
2272.868	29.75
2276.783	28.75
2280.694	31.75
2284.601	24.75
2288.505	23.75
2292.405	24.75
2296.302	28.75
2300.195	32.75
2304.085	26.75
2307.971	26.75
2311.854	24.75
2315.734	23.75
2319.609	21.75
2323.482	25.75
2327.351	27.75
2331.216	20.75
2335.078	24.75
2338.937	25.75
2342.792	21.75
2346.643	19.75
2350.492	19.75
2354.336	14.75
2358.178	16.75
2362.015	16.75
2365.85	19.75
2369.681	16.75
2373.508	17.75
2377.333	14.75
2381.153	22.75
2384.971	18.75
2388.785	14.75
2392.595	12.75
2396.402	13.75
2400.206	17.75
2404.007	17.75
2407.804	15.75
2411.597	23.75
2415.388	16.75
2419.174	18.75
2422.958	8.75
2426.738	10.75
2430.515	16.75
2434.289	14.75
2438.059	16.75
2441.825	13.75
2445.589	17.75
2449.349	12.75
2453.106	8.75
2456.859	6.75
2460.61	10.75
2464.356	14.75
2468.1	11.75
2471.84	14.75
2475.577	10.75
2479.311	10.75
2483.041	7.75
2486.768	12.75
2490.492	7.75
2494.213	6.75
2497.93	10.75
2501.644	10.75
2505.355	10.75
2509.062	11.75
2512.766	8.75
2516.467	12.75
2520.165	3.75
2523.859	7.75
2527.551	9.75
2531.239	11.75
2534.923	7.75
2538.605	6.75
2542.283	6.75
2545.958	10.75
2549.63	11.75
2553.299	9.75
2556.964	9.75
2560.626	10.75
2564.285	8.75
2567.941	6.75
2571.594	8.75
2575.243	10.75
2578.89	13.75
2582.533	13.75
2586.173	9.75
2589.809	7.75
2593.443	10.75
2597.073	1.75
2600.701	6.75
2604.325	9.75
2607.946	10.75
2611.564	9.75
2615.178	8.75
2618.79	10.75
2622.398	6.75
2626.004	5.75
2629.606	8.75
2633.205	8.75
2636.801	6.75
2640.394	10.75
2643.983	6.75
2647.57	4.75
2651.153	6.75
2654.734	4.75
2658.311	5.75
2661.885	6.75
2665.456	3.75
2669.025	8.75
2672.589	-0.25
2676.151	5.75
2679.71	6.75
2683.266	5.75
2686.819	2.75
2690.368	6.75
2693.915	1.75
2697.458	6.75
2700.999	1.75
2704.536	11.75
2708.071	3.75
2711.602	7.75
2715.13	4.75
2718.656	2.75
2722.178	3.75
2725.697	2.75
2729.214	7.75
2732.727	10.75
2736.237	14.75
2739.744	14.75
2743.249	6.75
2746.75	7.75
2750.248	4.75
2753.743	5.75
2757.236	6.75
2760.725	9.75
2764.211	7.75
2767.695	7.75
2771.175	8.75
2774.652	6.75
2778.127	3.75
2781.598	7.75
2785.067	3.75
2788.532	7.75
2791.995	11.75
2795.455	10.75
2798.911	7.75
2802.365	8.75
2805.816	9.75
2809.264	12.75
2812.709	12.75
2816.151	15.75
2819.59	17.75
2823.026	18.75
2826.46	25.75
2829.89	24.75
2833.318	26.75
2836.742	30.75
2840.164	35.75
2843.583	44.75
2846.999	58.75
2850.412	70.75
2853.822	79.75
2857.229	88.75
2860.634	92.75
2864.035	90.75
2867.434	91.75
2870.83	97.75
2874.223	93.75
2877.613	97.75
2881	106.75
2884.385	118.75
2887.766	115.75
2891.145	109.75
2894.521	110.75
2897.894	109.75
2901.264	109.75
2904.631	105.75
2907.996	107.75
2911.358	101.75
2914.717	103.75
2918.073	103.75
2921.426	103.75
2924.777	99.75
2928.124	98.75
2931.469	92.75
2934.811	94.75
2938.15	92.75
2941.487	91.75
2944.821	90.75
2948.152	82.75
2951.48	81.75
2954.805	71.75
2958.128	66.75
2961.447	67.75
2964.765	64.75
2968.079	59.75
2971.39	55.75
2974.699	53.75
2978.005	55.75
2981.308	50.75
2984.609	48.75
2987.907	47.75
2991.202	47.75
2994.494	34.75
2997.784	39.75
3001.07	38.75
3004.355	44.75
3007.636	43.75
3010.915	45.75
3014.191	33.75
3017.464	36.75
3020.734	35.75
3024.002	32.75
3027.267	25.75
3030.53	31.75
3033.789	35.75
3037.046	31.75
3040.301	30.75
3043.552	34.75
3046.801	30.75
3050.048	34.75
3053.291	37.75
3056.532	32.75
3059.771	35.75
3063.006	35.75
3066.239	40.75
3069.469	44.75
3072.697	40.75
3075.922	48.75
3079.144	48.75
3082.364	45.75
3085.581	46.75
3088.795	49.75
3092.007	47.75
3095.216	53.75
3098.423	52.75
3101.627	54.75
3104.828	57.75
3108.026	57.75
3111.222	58.75
3114.416	57.75
3117.607	58.75
3120.795	68.75
3123.98	67.75
3127.163	68.75
3130.344	67.75
3133.521	67.75
3136.696	69.75
3139.869	68.75
3143.039	76.75
3146.206	80.75
3149.371	76.75
3152.533	76.75
3155.693	76.75
3158.85	78.75
3162.005	79.75
3165.157	85.75
3168.306	78.75
3171.453	84.75
3174.597	78.75
3177.739	79.75
3180.878	81.75
3184.014	86.75
3187.149	81.75
3190.28	84.75
3193.409	83.75
3196.536	84.75
3199.659	80.75
3202.781	80.75
3205.9	80.75
3209.016	86.75
3212.13	90.75
3215.241	84.75
3218.35	80.75
3221.456	79.75
3224.56	81.75
3227.661	79.75
3230.76	80.75
3233.856	77.75
3236.95	74.75
3240.041	81.75
3243.13	79.75
3246.216	74.75
3249.3	70.75
3252.382	74.75
3255.46	72.75
3258.537	74.75
3261.611	72.75
3264.682	71.75
3267.751	72.75
3270.818	71.75
3273.882	68.75
3276.943	71.75
3280.002	69.75
3283.059	75.75
3286.113	70.75
3289.165	68.75
3292.214	66.75
3295.261	64.75
3298.306	60.75
3301.348	63.75
3304.387	57.75
3307.425	59.75
3310.459	55.75
3313.492	60.75
3316.521	59.75
3319.549	57.75
3322.574	56.75
3325.597	54.75
3328.617	56.75
3331.635	48.75
3334.65	53.75
3337.663	52.75
3340.674	55.75
3343.682	55.75
3346.688	53.75
3349.691	55.75
3352.692	50.75
3355.691	53.75
3358.687	50.75
3361.681	47.75
3364.673	52.75
3367.662	54.75
3370.649	51.75
3373.633	52.75
3376.615	46.75
3379.595	40.75
3382.572	44.75
3385.547	42.75
3388.52	44.75
3391.49	47.75
3394.458	42.75
3397.424	43.75
3400.387	40.75
3403.348	41.75
3406.307	32.75
3409.263	38.75
3412.217	41.75
3415.168	39.75
3418.118	39.75
3421.065	38.75
3424.009	35.75
3426.951	33.75
3429.891	30.75
3432.829	31.75
3435.764	30.75
3438.697	32.75
3441.628	23.75
3444.557	30.75
3447.483	28.75
3450.407	29.75
3453.328	22.75
3456.247	23.75
3459.164	23.75
3462.079	23.75
3464.991	17.75
3467.902	17.75
3470.809	23.75
3473.715	19.75
3476.618	19.75
3479.519	16.75
3482.418	15.75
3485.315	12.75
3488.209	10.75
3491.101	11.75
3493.99	11.75
3496.878	14.75
3499.763	8.75
3502.646	9.75
3505.527	6.75
3508.405	5.75
3511.281	4.75
3514.155	11.75
3517.027	8.75
3519.897	7.75
3522.764	5.75
3525.629	2.75
3528.492	-0.25
3531.352	-1.25
3534.211	-4.25
3537.067	-0.25
3539.921	2.75
3542.773	-0.25
3545.622	-4.25
3548.469	-6.25
3551.315	-9.25
3554.157	-6.25
3556.998	-10.25
3559.837	-5.25
3562.673	-2.25
3565.507	-9.25
3568.339	-7.25
3571.169	-12.25
3573.996	-8.25
3576.822	-11.25
3579.645	-10.25
3582.466	-8.25
3585.285	-10.25
3588.101	-7.25
3590.916	-16.25
3593.728	-16.25
3596.538	-19.25
3599.346	-16.25
3602.152	-13.25
3604.956	-12.25
3607.757	-14.25
3610.556	-13.25
3613.354	-18.25
3616.149	-17.25
3618.942	-16.25
3621.732	-18.25
3624.521	-20.25
3627.307	-15.25
3630.092	-18.25
3632.874	-17.25
3635.654	-19.25
3638.432	-19.25
3641.208	-18.25
3643.982	-17.25
3646.753	-18.25
3649.523	-18.25
3652.29	-18.25
3655.055	-18.25
3657.818	-23.25
3660.579	-18.25
3663.338	-21.25
3666.095	-13.25
3668.849	-18.25
3671.602	-21.25
3674.352	-23.25
3677.101	-20.25
3679.847	-24.25
3682.591	-20.25
3685.333	-18.25
3688.073	-20.25
3690.811	-22.25
3693.547	-26.25
3696.281	-25.25
3699.013	-25.25
3701.742	-24.25
3704.47	-19.25
3707.195	-22.25
3709.919	-18.25
3712.64	-26.25
3715.359	-24.25
3718.076	-22.25
3720.792	-28.25
3723.505	-21.25
3726.216	-22.25
3728.925	-24.25
3731.632	-21.25
3734.336	-25.25
3737.039	-23.25
3739.74	-24.25
3742.439	-25.25
3745.136	-24.25
3747.83	-22.25
3750.523	-21.25
3753.213	-25.25
3755.902	-23.25
3758.589	-26.25
3761.273	-25.25
3763.956	-23.25
3766.636	-25.25
3769.315	-21.25
3771.991	-27.25
3774.665	-26.25
3777.338	-21.25
3780.008	-21.25
3782.677	-20.25
3785.343	-25.25
3788.007	-25.25
3790.67	-23.25
3793.33	-27.25
3795.989	-29.25
3798.645	-23.25
3801.299	-23.25
3803.952	-23.25
3806.602	-25.25
3809.251	-24.25
3811.897	-23.25
3814.542	-26.25
3817.184	-23.25
3819.825	-26.25
3822.463	-21.25
3825.1	-22.25
3827.735	-20.25
3830.367	-26.25
3832.998	-25.25
3835.627	-25.25
3838.253	-24.25
3840.878	-26.25
3843.501	-19.25
3846.122	-24.25
3848.741	-21.25
3851.358	-23.25
3853.973	-28.25
3856.586	-25.25
3859.197	-27.25
3861.806	-25.25
3864.414	-22.25
3867.019	-23.25
3869.622	-24.25
3872.224	-27.25
3874.823	-25.25
3877.421	-20.25
3880.016	-21.25
3882.61	-19.25
3885.202	-10.25
3887.792	-14.25
3890.38	-20.25
3892.966	-26.25
3895.55	-22.25
3898.132	-21.25
3900.713	-21.25
3903.291	-24.25
3905.868	-24.25
3908.442	-28.25
3911.015	-26.25
3913.586	-27.25
3916.155	-23.25
3918.722	-22.25
3921.287	-18.25
3923.85	-28.25
3926.411	-26.25
3928.971	-24.25
3931.528	-28.25
3934.084	-29.25
3936.638	-23.25
3939.19	-26.25
3941.74	-20.25
3944.288	-24.25
3946.834	-22.25
3949.378	-27.25
3951.921	-23.25
3954.462	-25.25
3957	-24.25
3959.537	-24.25
3962.072	-23.25
3964.606	-23.25
3967.137	-23.25
3969.667	-23.25
3972.194	-27.25
3974.72	-25.25
3977.244	-23.25
3979.766	-26.25
3982.286	-19.25
3984.805	-24.25
3987.321	-24.25
3989.836	-25.25
3992.349	-23.25
3994.86	-24.25
3997.369	-25.25
3999.877	-24.25
4002.382	-26.25
4004.886	-25.25
4007.388	-25.25
4009.888	-23.25
4012.386	-20.25
4014.883	-20.25
4017.377	-24.25
4019.87	-23.25
4022.361	-20.25
4024.85	-31.25
4027.338	-28.25
4029.823	-27.25
4032.307	-25.25
4034.789	-20.25
4037.269	-21.25
4039.747	-26.25
4042.224	-25.25
4044.699	-29.25
4047.172	-28.25
4049.643	-28.25
4052.112	-21.25
4054.58	-22.25
4057.046	-19.25
4059.51	-26.25
4061.972	-26.25
4064.432	-22.25
4066.891	-23.25
4069.348	-24.25
4071.803	-24.25
4074.256	-26.25
4076.708	-19.25
4079.158	-22.25
4081.606	-22.25
4084.052	-23.25
4086.497	-21.25
4088.939	-23.25
4091.38	-26.25
4093.819	-23.25
4096.257	-22.25
4098.693	-29.25
4101.127	-26.25
4103.559	-29.25
4105.989	-11.25
4108.418	-14.25
4110.845	-2.25
4113.27	-10.25
4115.694	-9.25
4118.115	-11.25
4120.535	-24.25
4122.954	-25.25
4125.37	-23.25
4127.785	-21.25
4130.198	-27.25
4132.609	-26.25
4135.019	-25.25
4137.427	-29.25
4139.833	-22.25
4142.237	-26.25
