Data from 10CFU3_A_RamanShift_1.txt Node
Date: Thu Feb 02 13:43:30 IST 2017
User: aro
Spectrometer: QEPB0276
Trigger mode: 0
Integration Time (sec): 5.000000E0
Scans to average: 1
Electric dark correction enabled: true
Nonlinearity correction enabled: false
Boxcar width: 0
XAxis mode: Raman Shifts
Number of Pixels in Spectrum: 1044
>>>>>Begin Spectral Data<<<<<
160.701	-4.38
166.742	3.62
172.777	22.62
178.805	87.62
184.826	209.62
190.841	415.62
196.849	637.62
202.85	799.62
208.845	837.62
214.833	816.62
220.815	813.62
226.789	804.62
232.758	786.62
238.719	786.62
244.674	766.62
250.623	758.62
256.565	730.62
262.5	717.62
268.429	701.62
274.351	698.62
280.267	677.62
286.176	672.62
292.079	682.62
297.975	660.62
303.865	668.62
309.748	656.62
315.625	654.62
321.495	650.62
327.359	644.62
333.217	647.62
339.068	654.62
344.912	656.62
350.751	667.62
356.583	666.62
362.408	667.62
368.227	678.62
374.04	651.62
379.847	654.62
385.647	665.62
391.44	662.62
397.228	657.62
403.009	652.62
408.784	657.62
414.553	677.62
420.315	670.62
426.071	684.62
431.821	688.62
437.565	688.62
443.302	688.62
449.033	673.62
454.758	668.62
460.477	662.62
466.189	655.62
471.896	653.62
477.596	646.62
483.29	649.62
488.978	631.62
494.66	630.62
500.335	600.62
506.005	578.62
511.668	564.62
517.325	555.62
522.977	533.62
528.622	505.62
534.261	498.62
539.894	483.62
545.521	472.62
551.141	475.62
556.756	468.62
562.365	464.62
567.968	467.62
573.565	458.62
579.155	450.62
584.74	453.62
590.319	440.62
595.892	446.62
601.459	442.62
607.02	436.62
612.575	438.62
618.124	431.62
623.667	417.62
629.204	430.62
634.735	403.62
640.261	405.62
645.781	416.62
651.294	408.62
656.802	415.62
662.304	409.62
667.8	391.62
673.29	389.62
678.775	408.62
684.254	384.62
689.726	393.62
695.193	384.62
700.655	387.62
706.11	387.62
711.56	388.62
717.004	381.62
722.442	381.62
727.874	383.62
733.301	373.62
738.722	376.62
744.137	371.62
749.547	368.62
754.951	370.62
760.349	377.62
765.741	377.62
771.128	366.62
776.509	375.62
781.885	370.62
787.254	363.62
792.618	375.62
797.977	380.62
803.33	375.62
808.677	374.62
814.019	372.62
819.355	369.62
824.686	367.62
830.011	370.62
835.33	380.62
840.644	387.62
845.952	379.62
851.255	385.62
856.552	390.62
861.844	389.62
867.13	390.62
872.41	390.62
877.686	393.62
882.955	389.62
888.219	382.62
893.478	379.62
898.731	365.62
903.979	360.62
909.221	355.62
914.458	347.62
919.69	343.62
924.916	336.62
930.136	342.62
935.351	335.62
940.561	341.62
945.766	340.62
950.965	342.62
956.158	338.62
961.347	329.62
966.529	316.62
971.707	319.62
976.879	308.62
982.046	312.62
987.208	306.62
992.364	311.62
997.515	312.62
1002.66	322.62
1007.801	325.62
1012.936	328.62
1018.066	329.62
1023.19	337.62
1028.309	341.62
1033.423	338.62
1038.532	343.62
1043.636	338.62
1048.734	331.62
1053.827	345.62
1058.915	344.62
1063.998	352.62
1069.075	368.62
1074.147	364.62
1079.214	370.62
1084.276	371.62
1089.333	363.62
1094.385	366.62
1099.431	363.62
1104.472	358.62
1109.509	348.62
1114.54	336.62
1119.565	332.62
1124.586	346.62
1129.602	343.62
1134.613	332.62
1139.618	322.62
1144.619	300.62
1149.614	292.62
1154.604	298.62
1159.589	294.62
1164.57	284.62
1169.545	276.62
1174.515	275.62
1179.48	277.62
1184.44	267.62
1189.395	268.62
1194.345	255.62
1199.29	255.62
1204.23	265.62
1209.165	267.62
1214.095	262.62
1219.021	257.62
1223.941	261.62
1228.856	275.62
1233.766	270.62
1238.672	276.62
1243.572	290.62
1248.467	298.62
1253.358	292.62
1258.244	295.62
1263.124	284.62
1268	293.62
1272.871	282.62
1277.737	283.62
1282.599	279.62
1287.455	276.62
1292.306	287.62
1297.153	293.62
1301.995	317.62
1306.832	326.62
1311.664	312.62
1316.491	302.62
1321.314	301.62
1326.132	277.62
1330.945	265.62
1335.753	259.62
1340.556	249.62
1345.354	254.62
1350.148	254.62
1354.937	245.62
1359.722	242.62
1364.501	236.62
1369.276	243.62
1374.046	244.62
1378.811	234.62
1383.572	239.62
1388.327	233.62
1393.079	219.62
1397.825	224.62
1402.567	210.62
1407.304	212.62
1412.036	216.62
1416.764	223.62
1421.487	223.62
1426.205	236.62
1430.919	241.62
1435.628	261.62
1440.333	289.62
1445.032	316.62
1449.727	316.62
1454.418	302.62
1459.104	301.62
1463.785	294.62
1468.462	275.62
1473.134	254.62
1477.802	228.62
1482.465	209.62
1487.123	192.62
1491.777	182.62
1496.426	170.62
1501.071	175.62
1505.711	178.62
1510.347	174.62
1514.978	180.62
1519.604	175.62
1524.226	176.62
1528.844	167.62
1533.457	167.62
1538.065	171.62
1542.669	167.62
1547.269	171.62
1551.864	169.62
1556.454	174.62
1561.041	170.62
1565.622	170.62
1570.199	170.62
1574.772	167.62
1579.34	176.62
1583.904	169.62
1588.464	179.62
1593.019	171.62
1597.569	175.62
1602.115	175.62
1606.657	180.62
1611.195	168.62
1615.728	176.62
1620.256	176.62
1624.78	181.62
1629.3	190.62
1633.816	185.62
1638.327	190.62
1642.834	193.62
1647.336	201.62
1651.834	203.62
1656.328	206.62
1660.817	205.62
1665.302	212.62
1669.783	196.62
1674.259	193.62
1678.732	188.62
1683.199	177.62
1687.663	162.62
1692.122	153.62
1696.577	148.62
1701.028	151.62
1705.474	146.62
1709.917	140.62
1714.355	140.62
1718.788	126.62
1723.218	120.62
1727.643	120.62
1732.064	118.62
1736.481	122.62
1740.893	123.62
1745.301	119.62
1749.705	121.62
1754.105	114.62
1758.501	97.62
1762.893	95.62
1767.28	90.62
1771.663	99.62
1776.042	93.62
1780.417	94.62
1784.787	93.62
1789.154	89.62
1793.516	92.62
1797.874	93.62
1802.228	91.62
1806.578	93.62
1810.924	95.62
1815.266	84.62
1819.603	84.62
1823.937	84.62
1828.266	79.62
1832.591	82.62
1836.913	79.62
1841.23	77.62
1845.543	81.62
1849.852	76.62
1854.156	76.62
1858.457	83.62
1862.754	78.62
1867.047	80.62
1871.335	76.62
1875.62	74.62
1879.9	70.62
1884.177	76.62
1888.449	75.62
1892.718	76.62
1896.982	76.62
1901.243	78.62
1905.499	77.62
1909.752	69.62
1914	75.62
1918.245	72.62
1922.485	74.62
1926.722	78.62
1930.954	72.62
1935.183	75.62
1939.408	74.62
1943.628	77.62
1947.845	73.62
1952.058	76.62
1956.267	67.62
1960.472	73.62
1964.673	65.62
1968.87	71.62
1973.063	73.62
1977.252	65.62
1981.438	69.62
1985.619	62.62
1989.797	61.62
1993.971	73.62
1998.14	61.62
2002.306	63.62
2006.469	58.62
2010.627	60.62
2014.781	68.62
2018.932	65.62
2023.078	62.62
2027.221	65.62
2031.36	60.62
2035.495	56.62
2039.627	55.62
2043.754	56.62
2047.878	57.62
2051.998	61.62
2056.114	59.62
2060.226	63.62
2064.334	58.62
2068.439	59.62
2072.54	55.62
2076.637	58.62
2080.73	63.62
2084.82	62.62
2088.906	67.62
2092.988	65.62
2097.066	57.62
2101.14	64.62
2105.211	58.62
2109.278	56.62
2113.342	58.62
2117.401	59.62
2121.457	60.62
2125.509	61.62
2129.558	59.62
2133.602	58.62
2137.643	55.62
2141.681	55.62
2145.714	53.62
2149.744	55.62
2153.77	52.62
2157.793	52.62
2161.812	50.62
2165.827	47.62
2169.838	49.62
2173.846	48.62
2177.851	42.62
2181.851	46.62
2185.848	46.62
2189.841	42.62
2193.831	43.62
2197.817	44.62
2201.799	45.62
2205.778	41.62
2209.753	42.62
2213.725	38.62
2217.693	46.62
2221.657	39.62
2225.618	39.62
2229.575	37.62
2233.529	37.62
2237.479	38.62
2241.425	39.62
2245.368	41.62
2249.307	39.62
2253.243	35.62
2257.175	32.62
2261.104	39.62
2265.029	37.62
2268.95	34.62
2272.868	32.62
2276.783	24.62
2280.694	30.62
2284.601	24.62
2288.505	25.62
2292.405	31.62
2296.302	29.62
2300.195	32.62
2304.085	31.62
2307.971	29.62
2311.854	23.62
2315.734	22.62
2319.609	20.62
2323.482	21.62
2327.351	31.62
2331.216	26.62
2335.078	27.62
2338.937	25.62
2342.792	26.62
2346.643	17.62
2350.492	17.62
2354.336	15.62
2358.178	15.62
2362.015	20.62
2365.85	15.62
2369.681	21.62
2373.508	21.62
2377.333	18.62
2381.153	22.62
2384.971	13.62
2388.785	17.62
2392.595	18.62
2396.402	13.62
2400.206	19.62
2404.007	15.62
2407.804	19.62
2411.597	16.62
2415.388	14.62
2419.174	14.62
2422.958	15.62
2426.738	11.62
2430.515	12.62
2434.289	16.62
2438.059	18.62
2441.825	14.62
2445.589	13.62
2449.349	12.62
2453.106	10.62
2456.859	12.62
2460.61	9.62
2464.356	15.62
2468.1	13.62
2471.84	15.62
2475.577	15.62
2479.311	5.62
2483.041	8.62
2486.768	7.62
2490.492	9.62
2494.213	11.62
2497.93	10.62
2501.644	8.62
2505.355	13.62
2509.062	8.62
2512.766	9.62
2516.467	10.62
2520.165	7.62
2523.859	10.62
2527.551	11.62
2531.239	12.62
2534.923	10.62
2538.605	7.62
2542.283	6.62
2545.958	11.62
2549.63	8.62
2553.299	12.62
2556.964	10.62
2560.626	13.62
2564.285	7.62
2567.941	10.62
2571.594	10.62
2575.243	6.62
2578.89	10.62
2582.533	10.62
2586.173	9.62
2589.809	9.62
2593.443	12.62
2597.073	8.62
2600.701	10.62
2604.325	8.62
2607.946	12.62
2611.564	3.62
2615.178	5.62
2618.79	9.62
2622.398	8.62
2626.004	12.62
2629.606	10.62
2633.205	8.62
2636.801	3.62
2640.394	5.62
2643.983	5.62
2647.57	3.62
2651.153	6.62
2654.734	6.62
2658.311	11.62
2661.885	9.62
2665.456	5.62
2669.025	3.62
2672.589	-0.38
2676.151	-1.38
2679.71	5.62
2683.266	7.62
2686.819	10.62
2690.368	6.62
2693.915	7.62
2697.458	7.62
2700.999	2.62
2704.536	4.62
2708.071	3.62
2711.602	4.62
2715.13	12.62
2718.656	8.62
2722.178	7.62
2725.697	7.62
2729.214	9.62
2732.727	11.62
2736.237	9.62
2739.744	13.62
2743.249	12.62
2746.75	9.62
2750.248	7.62
2753.743	6.62
2757.236	10.62
2760.725	6.62
2764.211	9.62
2767.695	7.62
2771.175	9.62
2774.652	7.62
2778.127	9.62
2781.598	6.62
2785.067	7.62
2788.532	7.62
2791.995	8.62
2795.455	4.62
2798.911	7.62
2802.365	8.62
2805.816	12.62
2809.264	16.62
2812.709	13.62
2816.151	17.62
2819.59	16.62
2823.026	17.62
2826.46	22.62
2829.89	26.62
2833.318	27.62
2836.742	32.62
2840.164	33.62
2843.583	47.62
2846.999	57.62
2850.412	67.62
2853.822	80.62
2857.229	84.62
2860.634	87.62
2864.035	94.62
2867.434	97.62
2870.83	98.62
2874.223	93.62
2877.613	99.62
2881	105.62
2884.385	109.62
2887.766	120.62
2891.145	118.62
2894.521	114.62
2897.894	112.62
2901.264	111.62
2904.631	107.62
2907.996	104.62
2911.358	103.62
2914.717	104.62
2918.073	105.62
2921.426	100.62
2924.777	103.62
2928.124	96.62
2931.469	101.62
2934.811	97.62
2938.15	91.62
2941.487	92.62
2944.821	89.62
2948.152	84.62
2951.48	77.62
2954.805	74.62
2958.128	74.62
2961.447	71.62
2964.765	62.62
2968.079	59.62
2971.39	57.62
2974.699	58.62
2978.005	53.62
2981.308	52.62
2984.609	47.62
2987.907	42.62
2991.202	44.62
2994.494	39.62
2997.784	41.62
3001.07	43.62
3004.355	45.62
3007.636	40.62
3010.915	42.62
3014.191	38.62
3017.464	30.62
3020.734	32.62
3024.002	29.62
3027.267	29.62
3030.53	36.62
3033.789	34.62
3037.046	28.62
3040.301	30.62
3043.552	29.62
3046.801	29.62
3050.048	39.62
3053.291	38.62
3056.532	41.62
3059.771	43.62
3063.006	39.62
3066.239	41.62
3069.469	42.62
3072.697	42.62
3075.922	47.62
3079.144	48.62
3082.364	51.62
3085.581	50.62
3088.795	56.62
3092.007	49.62
3095.216	58.62
3098.423	54.62
3101.627	52.62
3104.828	58.62
3108.026	58.62
3111.222	58.62
3114.416	64.62
3117.607	64.62
3120.795	64.62
3123.98	66.62
3127.163	69.62
3130.344	69.62
3133.521	71.62
3136.696	72.62
3139.869	75.62
3143.039	82.62
3146.206	81.62
3149.371	79.62
3152.533	76.62
3155.693	78.62
3158.85	74.62
3162.005	87.62
3165.157	84.62
3168.306	89.62
3171.453	86.62
3174.597	74.62
3177.739	82.62
3180.878	75.62
3184.014	89.62
3187.149	88.62
3190.28	85.62
3193.409	86.62
3196.536	84.62
3199.659	88.62
3202.781	82.62
3205.9	84.62
3209.016	86.62
3212.13	94.62
3215.241	90.62
3218.35	82.62
3221.456	80.62
3224.56	84.62
3227.661	81.62
3230.76	80.62
3233.856	82.62
3236.95	74.62
3240.041	76.62
3243.13	78.62
3246.216	78.62
3249.3	77.62
3252.382	77.62
3255.46	71.62
3258.537	76.62
3261.611	70.62
3264.682	76.62
3267.751	71.62
3270.818	74.62
3273.882	70.62
3276.943	74.62
3280.002	69.62
3283.059	72.62
3286.113	74.62
3289.165	70.62
3292.214	70.62
3295.261	67.62
3298.306	68.62
3301.348	65.62
3304.387	65.62
3307.425	59.62
3310.459	59.62
3313.492	56.62
3316.521	55.62
3319.549	60.62
3322.574	57.62
3325.597	56.62
3328.617	57.62
3331.635	52.62
3334.65	54.62
3337.663	52.62
3340.674	55.62
3343.682	59.62
3346.688	56.62
3349.691	55.62
3352.692	53.62
3355.691	52.62
3358.687	54.62
3361.681	50.62
3364.673	51.62
3367.662	51.62
3370.649	53.62
3373.633	56.62
3376.615	49.62
3379.595	45.62
3382.572	42.62
3385.547	47.62
3388.52	44.62
3391.49	43.62
3394.458	47.62
3397.424	41.62
3400.387	41.62
3403.348	40.62
3406.307	39.62
3409.263	43.62
3412.217	41.62
3415.168	32.62
3418.118	34.62
3421.065	38.62
3424.009	35.62
3426.951	36.62
3429.891	36.62
3432.829	35.62
3435.764	34.62
3438.697	34.62
3441.628	26.62
3444.557	30.62
3447.483	27.62
3450.407	29.62
3453.328	30.62
3456.247	27.62
3459.164	27.62
3462.079	24.62
3464.991	21.62
3467.902	19.62
3470.809	16.62
3473.715	18.62
3476.618	18.62
3479.519	16.62
3482.418	13.62
3485.315	16.62
3488.209	14.62
3491.101	9.62
3493.99	11.62
3496.878	12.62
3499.763	11.62
3502.646	9.62
3505.527	7.62
3508.405	9.62
3511.281	5.62
3514.155	7.62
3517.027	7.62
3519.897	5.62
3522.764	2.62
3525.629	-0.38
3528.492	1.62
3531.352	1.62
3534.211	-0.38
3537.067	-1.38
3539.921	-1.38
3542.773	-6.38
3545.622	-5.38
3548.469	-6.38
3551.315	-7.38
3554.157	-5.38
3556.998	-3.38
3559.837	-4.38
3562.673	-6.38
3565.507	-13.38
3568.339	-10.38
3571.169	-10.38
3573.996	-9.38
3576.822	-10.38
3579.645	-10.38
3582.466	-5.38
3585.285	-7.38
3588.101	-11.38
3590.916	-16.38
3593.728	-16.38
3596.538	-18.38
3599.346	-14.38
3602.152	-10.38
3604.956	-12.38
3607.757	-9.38
3610.556	-15.38
3613.354	-16.38
3616.149	-16.38
3618.942	-16.38
3621.732	-20.38
3624.521	-16.38
3627.307	-15.38
3630.092	-13.38
3632.874	-17.38
3635.654	-17.38
3638.432	-19.38
3641.208	-16.38
3643.982	-19.38
3646.753	-17.38
3649.523	-18.38
3652.29	-17.38
3655.055	-17.38
3657.818	-20.38
3660.579	-17.38
3663.338	-20.38
3666.095	-16.38
3668.849	-18.38
3671.602	-21.38
3674.352	-23.38
3677.101	-21.38
3679.847	-22.38
3682.591	-22.38
3685.333	-18.38
3688.073	-20.38
3690.811	-24.38
3693.547	-28.38
3696.281	-21.38
3699.013	-24.38
3701.742	-22.38
3704.47	-17.38
3707.195	-20.38
3709.919	-19.38
3712.64	-26.38
3715.359	-23.38
3718.076	-21.38
3720.792	-24.38
3723.505	-18.38
3726.216	-19.38
3728.925	-24.38
3731.632	-24.38
3734.336	-22.38
3737.039	-24.38
3739.74	-27.38
3742.439	-23.38
3745.136	-26.38
3747.83	-20.38
3750.523	-20.38
3753.213	-25.38
3755.902	-22.38
3758.589	-24.38
3761.273	-22.38
3763.956	-22.38
3766.636	-22.38
3769.315	-23.38
3771.991	-24.38
3774.665	-27.38
3777.338	-21.38
3780.008	-22.38
3782.677	-22.38
3785.343	-23.38
3788.007	-25.38
3790.67	-25.38
3793.33	-26.38
3795.989	-27.38
3798.645	-23.38
3801.299	-22.38
3803.952	-26.38
3806.602	-23.38
3809.251	-26.38
3811.897	-25.38
3814.542	-26.38
3817.184	-25.38
3819.825	-28.38
3822.463	-20.38
3825.1	-22.38
3827.735	-21.38
3830.367	-26.38
3832.998	-24.38
3835.627	-26.38
3838.253	-23.38
3840.878	-24.38
3843.501	-20.38
3846.122	-24.38
3848.741	-19.38
3851.358	-23.38
3853.973	-24.38
3856.586	-24.38
3859.197	-28.38
3861.806	-22.38
3864.414	-25.38
3867.019	-20.38
3869.622	-23.38
3872.224	-26.38
3874.823	-25.38
3877.421	-23.38
3880.016	-20.38
3882.61	-18.38
3885.202	-9.38
3887.792	-11.38
3890.38	-19.38
3892.966	-21.38
3895.55	-22.38
3898.132	-24.38
3900.713	-18.38
3903.291	-24.38
3905.868	-24.38
3908.442	-24.38
3911.015	-26.38
3913.586	-26.38
3916.155	-26.38
3918.722	-27.38
3921.287	-23.38
3923.85	-24.38
3926.411	-27.38
3928.971	-22.38
3931.528	-28.38
3934.084	-27.38
3936.638	-21.38
3939.19	-26.38
3941.74	-21.38
3944.288	-25.38
3946.834	-25.38
3949.378	-28.38
3951.921	-26.38
3954.462	-22.38
3957	-24.38
3959.537	-23.38
3962.072	-22.38
3964.606	-23.38
3967.137	-25.38
3969.667	-28.38
3972.194	-25.38
3974.72	-26.38
3977.244	-24.38
3979.766	-20.38
3982.286	-20.38
3984.805	-20.38
3987.321	-28.38
3989.836	-28.38
3992.349	-24.38
3994.86	-23.38
3997.369	-21.38
3999.877	-22.38
4002.382	-24.38
4004.886	-19.38
4007.388	-25.38
4009.888	-27.38
4012.386	-20.38
4014.883	-24.38
4017.377	-24.38
4019.87	-21.38
4022.361	-22.38
4024.85	-27.38
4027.338	-24.38
4029.823	-26.38
4032.307	-26.38
4034.789	-24.38
4037.269	-23.38
4039.747	-23.38
4042.224	-24.38
4044.699	-27.38
4047.172	-29.38
4049.643	-25.38
4052.112	-25.38
4054.58	-21.38
4057.046	-23.38
4059.51	-27.38
4061.972	-27.38
4064.432	-21.38
4066.891	-23.38
4069.348	-23.38
4071.803	-25.38
4074.256	-23.38
4076.708	-23.38
4079.158	-23.38
4081.606	-22.38
4084.052	-23.38
4086.497	-21.38
4088.939	-22.38
4091.38	-23.38
4093.819	-25.38
4096.257	-26.38
4098.693	-29.38
4101.127	-24.38
4103.559	-26.38
4105.989	-10.38
4108.418	-9.38
4110.845	-7.38
4113.27	-11.38
4115.694	-11.38
4118.115	-9.38
4120.535	-28.38
4122.954	-26.38
4125.37	-23.38
4127.785	-19.38
4130.198	-21.38
4132.609	-26.38
4135.019	-25.38
4137.427	-30.38
4139.833	-24.38
4142.237	-29.38
