Data from 10CFU2_D_RamanShift_1.txt Node
Date: Thu Feb 02 11:58:53 IST 2017
User: aro
Spectrometer: QEPB0276
Trigger mode: 0
Integration Time (sec): 5.000000E0
Scans to average: 1
Electric dark correction enabled: true
Nonlinearity correction enabled: false
Boxcar width: 0
XAxis mode: Raman Shifts
Number of Pixels in Spectrum: 1044
>>>>>Begin Spectral Data<<<<<
160.701	-4.62
166.742	1.38
172.777	21.38
178.805	83.38
184.826	205.38
190.841	417.38
196.849	640.38
202.85	787.38
208.845	827.38
214.833	836.38
220.815	799.38
226.789	797.38
232.758	767.38
238.719	780.38
244.674	748.38
250.623	737.38
256.565	712.38
262.5	713.38
268.429	678.38
274.351	680.38
280.267	667.38
286.176	650.38
292.079	647.38
297.975	639.38
303.865	642.38
309.748	636.38
315.625	625.38
321.495	623.38
327.359	625.38
333.217	626.38
339.068	635.38
344.912	641.38
350.751	638.38
356.583	653.38
362.408	653.38
368.227	640.38
374.04	634.38
379.847	644.38
385.647	632.38
391.44	621.38
397.228	629.38
403.009	639.38
408.784	632.38
414.553	655.38
420.315	655.38
426.071	664.38
431.821	666.38
437.565	661.38
443.302	655.38
449.033	653.38
454.758	647.38
460.477	641.38
466.189	647.38
471.896	631.38
477.596	629.38
483.29	619.38
488.978	604.38
494.66	601.38
500.335	582.38
506.005	562.38
511.668	546.38
517.325	532.38
522.977	506.38
528.622	495.38
534.261	476.38
539.894	467.38
545.521	462.38
551.141	451.38
556.756	443.38
562.365	446.38
567.968	439.38
573.565	426.38
579.155	430.38
584.74	434.38
590.319	431.38
595.892	416.38
601.459	435.38
607.02	426.38
612.575	414.38
618.124	416.38
623.667	408.38
629.204	406.38
634.735	393.38
640.261	399.38
645.781	401.38
651.294	392.38
656.802	396.38
662.304	379.38
667.8	378.38
673.29	384.38
678.775	372.38
684.254	375.38
689.726	375.38
695.193	372.38
700.655	369.38
706.11	377.38
711.56	370.38
717.004	361.38
722.442	367.38
727.874	368.38
733.301	359.38
738.722	353.38
744.137	355.38
749.547	353.38
754.951	352.38
760.349	355.38
765.741	360.38
771.128	359.38
776.509	366.38
781.885	358.38
787.254	361.38
792.618	360.38
797.977	361.38
803.33	359.38
808.677	356.38
814.019	363.38
819.355	350.38
824.686	349.38
830.011	344.38
835.33	364.38
840.644	365.38
845.952	361.38
851.255	371.38
856.552	376.38
861.844	369.38
867.13	374.38
872.41	373.38
877.686	379.38
882.955	381.38
888.219	373.38
893.478	365.38
898.731	353.38
903.979	351.38
909.221	333.38
914.458	334.38
919.69	331.38
924.916	331.38
930.136	328.38
935.351	330.38
940.561	336.38
945.766	322.38
950.965	331.38
956.158	317.38
961.347	316.38
966.529	303.38
971.707	300.38
976.879	294.38
982.046	290.38
987.208	304.38
992.364	295.38
997.515	297.38
1002.66	302.38
1007.801	310.38
1012.936	319.38
1018.066	314.38
1023.19	316.38
1028.309	324.38
1033.423	332.38
1038.532	321.38
1043.636	332.38
1048.734	331.38
1053.827	332.38
1058.915	323.38
1063.998	333.38
1069.075	355.38
1074.147	361.38
1079.214	351.38
1084.276	365.38
1089.333	370.38
1094.385	367.38
1099.431	352.38
1104.472	342.38
1109.509	336.38
1114.54	329.38
1119.565	321.38
1124.586	335.38
1129.602	331.38
1134.613	322.38
1139.618	309.38
1144.619	287.38
1149.614	280.38
1154.604	273.38
1159.589	278.38
1164.57	274.38
1169.545	274.38
1174.515	263.38
1179.48	260.38
1184.44	261.38
1189.395	246.38
1194.345	245.38
1199.29	245.38
1204.23	252.38
1209.165	249.38
1214.095	250.38
1219.021	253.38
1223.941	256.38
1228.856	252.38
1233.766	266.38
1238.672	278.38
1243.572	281.38
1248.467	278.38
1253.358	278.38
1258.244	277.38
1263.124	283.38
1268	290.38
1272.871	275.38
1277.737	285.38
1282.599	272.38
1287.455	258.38
1292.306	274.38
1297.153	288.38
1301.995	306.38
1306.832	305.38
1311.664	304.38
1316.491	282.38
1321.314	287.38
1326.132	267.38
1330.945	253.38
1335.753	249.38
1340.556	240.38
1345.354	247.38
1350.148	239.38
1354.937	239.38
1359.722	226.38
1364.501	227.38
1369.276	227.38
1374.046	233.38
1378.811	238.38
1383.572	226.38
1388.327	230.38
1393.079	217.38
1397.825	216.38
1402.567	210.38
1407.304	212.38
1412.036	216.38
1416.764	211.38
1421.487	225.38
1426.205	224.38
1430.919	232.38
1435.628	258.38
1440.333	275.38
1445.032	301.38
1449.727	316.38
1454.418	308.38
1459.104	298.38
1463.785	286.38
1468.462	272.38
1473.134	248.38
1477.802	228.38
1482.465	204.38
1487.123	191.38
1491.777	176.38
1496.426	169.38
1501.071	164.38
1505.711	163.38
1510.347	168.38
1514.978	166.38
1519.604	166.38
1524.226	171.38
1528.844	160.38
1533.457	155.38
1538.065	156.38
1542.669	164.38
1547.269	172.38
1551.864	170.38
1556.454	164.38
1561.041	164.38
1565.622	154.38
1570.199	155.38
1574.772	163.38
1579.34	163.38
1583.904	168.38
1588.464	165.38
1593.019	162.38
1597.569	163.38
1602.115	164.38
1606.657	170.38
1611.195	170.38
1615.728	173.38
1620.256	175.38
1624.78	175.38
1629.3	178.38
1633.816	180.38
1638.327	184.38
1642.834	186.38
1647.336	204.38
1651.834	203.38
1656.328	204.38
1660.817	200.38
1665.302	201.38
1669.783	191.38
1674.259	188.38
1678.732	181.38
1683.199	174.38
1687.663	166.38
1692.122	149.38
1696.577	144.38
1701.028	145.38
1705.474	136.38
1709.917	133.38
1714.355	140.38
1718.788	123.38
1723.218	116.38
1727.643	120.38
1732.064	110.38
1736.481	115.38
1740.893	113.38
1745.301	119.38
1749.705	114.38
1754.105	106.38
1758.501	96.38
1762.893	92.38
1767.28	88.38
1771.663	91.38
1776.042	89.38
1780.417	90.38
1784.787	86.38
1789.154	85.38
1793.516	88.38
1797.874	88.38
1802.228	88.38
1806.578	89.38
1810.924	88.38
1815.266	87.38
1819.603	78.38
1823.937	78.38
1828.266	73.38
1832.591	75.38
1836.913	80.38
1841.23	73.38
1845.543	79.38
1849.852	67.38
1854.156	71.38
1858.457	73.38
1862.754	74.38
1867.047	71.38
1871.335	74.38
1875.62	75.38
1879.9	70.38
1884.177	73.38
1888.449	72.38
1892.718	72.38
1896.982	69.38
1901.243	69.38
1905.499	74.38
1909.752	69.38
1914	66.38
1918.245	62.38
1922.485	64.38
1926.722	70.38
1930.954	70.38
1935.183	71.38
1939.408	72.38
1943.628	71.38
1947.845	73.38
1952.058	69.38
1956.267	73.38
1960.472	73.38
1964.673	70.38
1968.87	63.38
1973.063	65.38
1977.252	61.38
1981.438	57.38
1985.619	62.38
1989.797	61.38
1993.971	66.38
1998.14	60.38
2002.306	63.38
2006.469	57.38
2010.627	56.38
2014.781	64.38
2018.932	67.38
2023.078	62.38
2027.221	61.38
2031.36	56.38
2035.495	53.38
2039.627	51.38
2043.754	55.38
2047.878	56.38
2051.998	55.38
2056.114	58.38
2060.226	51.38
2064.334	56.38
2068.439	54.38
2072.54	56.38
2076.637	60.38
2080.73	61.38
2084.82	67.38
2088.906	65.38
2092.988	62.38
2097.066	56.38
2101.14	58.38
2105.211	59.38
2109.278	52.38
2113.342	57.38
2117.401	56.38
2121.457	58.38
2125.509	49.38
2129.558	52.38
2133.602	53.38
2137.643	61.38
2141.681	51.38
2145.714	53.38
2149.744	57.38
2153.77	48.38
2157.793	47.38
2161.812	48.38
2165.827	47.38
2169.838	50.38
2173.846	48.38
2177.851	46.38
2181.851	48.38
2185.848	42.38
2189.841	43.38
2193.831	43.38
2197.817	39.38
2201.799	38.38
2205.778	41.38
2209.753	37.38
2213.725	40.38
2217.693	43.38
2221.657	38.38
2225.618	37.38
2229.575	36.38
2233.529	38.38
2237.479	38.38
2241.425	34.38
2245.368	36.38
2249.307	36.38
2253.243	35.38
2257.175	32.38
2261.104	35.38
2265.029	34.38
2268.95	30.38
2272.868	25.38
2276.783	32.38
2280.694	30.38
2284.601	29.38
2288.505	25.38
2292.405	29.38
2296.302	22.38
2300.195	27.38
2304.085	27.38
2307.971	25.38
2311.854	25.38
2315.734	22.38
2319.609	22.38
2323.482	23.38
2327.351	24.38
2331.216	26.38
2335.078	23.38
2338.937	26.38
2342.792	21.38
2346.643	23.38
2350.492	17.38
2354.336	17.38
2358.178	17.38
2362.015	17.38
2365.85	17.38
2369.681	18.38
2373.508	18.38
2377.333	19.38
2381.153	20.38
2384.971	13.38
2388.785	18.38
2392.595	18.38
2396.402	10.38
2400.206	21.38
2404.007	16.38
2407.804	16.38
2411.597	17.38
2415.388	12.38
2419.174	14.38
2422.958	10.38
2426.738	12.38
2430.515	10.38
2434.289	13.38
2438.059	17.38
2441.825	13.38
2445.589	14.38
2449.349	13.38
2453.106	13.38
2456.859	12.38
2460.61	13.38
2464.356	14.38
2468.1	10.38
2471.84	11.38
2475.577	9.38
2479.311	5.38
2483.041	11.38
2486.768	12.38
2490.492	10.38
2494.213	11.38
2497.93	14.38
2501.644	8.38
2505.355	7.38
2509.062	6.38
2512.766	10.38
2516.467	13.38
2520.165	7.38
2523.859	9.38
2527.551	12.38
2531.239	7.38
2534.923	4.38
2538.605	9.38
2542.283	6.38
2545.958	12.38
2549.63	9.38
2553.299	8.38
2556.964	14.38
2560.626	6.38
2564.285	1.38
2567.941	8.38
2571.594	9.38
2575.243	13.38
2578.89	12.38
2582.533	7.38
2586.173	9.38
2589.809	4.38
2593.443	8.38
2597.073	4.38
2600.701	8.38
2604.325	8.38
2607.946	12.38
2611.564	6.38
2615.178	5.38
2618.79	8.38
2622.398	11.38
2626.004	11.38
2629.606	10.38
2633.205	8.38
2636.801	3.38
2640.394	11.38
2643.983	9.38
2647.57	7.38
2651.153	10.38
2654.734	4.38
2658.311	6.38
2661.885	6.38
2665.456	2.38
2669.025	5.38
2672.589	4.38
2676.151	6.38
2679.71	6.38
2683.266	9.38
2686.819	5.38
2690.368	7.38
2693.915	6.38
2697.458	4.38
2700.999	3.38
2704.536	11.38
2708.071	7.38
2711.602	4.38
2715.13	4.38
2718.656	6.38
2722.178	8.38
2725.697	5.38
2729.214	9.38
2732.727	9.38
2736.237	12.38
2739.744	13.38
2743.249	10.38
2746.75	5.38
2750.248	7.38
2753.743	6.38
2757.236	10.38
2760.725	12.38
2764.211	10.38
2767.695	2.38
2771.175	9.38
2774.652	7.38
2778.127	7.38
2781.598	7.38
2785.067	11.38
2788.532	8.38
2791.995	10.38
2795.455	8.38
2798.911	8.38
2802.365	9.38
2805.816	12.38
2809.264	15.38
2812.709	16.38
2816.151	17.38
2819.59	20.38
2823.026	16.38
2826.46	24.38
2829.89	21.38
2833.318	29.38
2836.742	33.38
2840.164	48.38
2843.583	48.38
2846.999	59.38
2850.412	76.38
2853.822	84.38
2857.229	93.38
2860.634	99.38
2864.035	94.38
2867.434	97.38
2870.83	94.38
2874.223	98.38
2877.613	99.38
2881	110.38
2884.385	124.38
2887.766	124.38
2891.145	121.38
2894.521	118.38
2897.894	116.38
2901.264	109.38
2904.631	107.38
2907.996	116.38
2911.358	108.38
2914.717	113.38
2918.073	107.38
2921.426	102.38
2924.777	104.38
2928.124	105.38
2931.469	103.38
2934.811	105.38
2938.15	99.38
2941.487	99.38
2944.821	92.38
2948.152	84.38
2951.48	78.38
2954.805	74.38
2958.128	77.38
2961.447	68.38
2964.765	70.38
2968.079	65.38
2971.39	58.38
2974.699	59.38
2978.005	52.38
2981.308	52.38
2984.609	55.38
2987.907	54.38
2991.202	49.38
2994.494	47.38
2997.784	41.38
3001.07	41.38
3004.355	43.38
3007.636	41.38
3010.915	41.38
3014.191	41.38
3017.464	37.38
3020.734	34.38
3024.002	31.38
3027.267	34.38
3030.53	36.38
3033.789	36.38
3037.046	30.38
3040.301	37.38
3043.552	33.38
3046.801	32.38
3050.048	37.38
3053.291	41.38
3056.532	41.38
3059.771	44.38
3063.006	43.38
3066.239	43.38
3069.469	45.38
3072.697	42.38
3075.922	47.38
3079.144	52.38
3082.364	56.38
3085.581	53.38
3088.795	61.38
3092.007	52.38
3095.216	57.38
3098.423	58.38
3101.627	58.38
3104.828	64.38
3108.026	65.38
3111.222	63.38
3114.416	64.38
3117.607	70.38
3120.795	68.38
3123.98	68.38
3127.163	77.38
3130.344	72.38
3133.521	79.38
3136.696	76.38
3139.869	79.38
3143.039	82.38
3146.206	89.38
3149.371	92.38
3152.533	85.38
3155.693	87.38
3158.85	85.38
3162.005	87.38
3165.157	86.38
3168.306	86.38
3171.453	86.38
3174.597	89.38
3177.739	88.38
3180.878	86.38
3184.014	89.38
3187.149	84.38
3190.28	97.38
3193.409	94.38
3196.536	90.38
3199.659	87.38
3202.781	88.38
3205.9	88.38
3209.016	91.38
3212.13	91.38
3215.241	88.38
3218.35	95.38
3221.456	85.38
3224.56	88.38
3227.661	88.38
3230.76	85.38
3233.856	84.38
3236.95	81.38
3240.041	79.38
3243.13	88.38
3246.216	81.38
3249.3	83.38
3252.382	83.38
3255.46	82.38
3258.537	81.38
3261.611	79.38
3264.682	77.38
3267.751	77.38
3270.818	78.38
3273.882	79.38
3276.943	76.38
3280.002	74.38
3283.059	79.38
3286.113	82.38
3289.165	71.38
3292.214	75.38
3295.261	68.38
3298.306	70.38
3301.348	67.38
3304.387	67.38
3307.425	68.38
3310.459	67.38
3313.492	64.38
3316.521	57.38
3319.549	61.38
3322.574	61.38
3325.597	66.38
3328.617	63.38
3331.635	54.38
3334.65	64.38
3337.663	57.38
3340.674	60.38
3343.682	59.38
3346.688	59.38
3349.691	57.38
3352.692	60.38
3355.691	57.38
3358.687	60.38
3361.681	52.38
3364.673	55.38
3367.662	60.38
3370.649	63.38
3373.633	51.38
3376.615	56.38
3379.595	46.38
3382.572	48.38
3385.547	46.38
3388.52	48.38
3391.49	49.38
3394.458	50.38
3397.424	44.38
3400.387	44.38
3403.348	46.38
3406.307	41.38
3409.263	43.38
3412.217	47.38
3415.168	39.38
3418.118	44.38
3421.065	41.38
3424.009	39.38
3426.951	40.38
3429.891	40.38
3432.829	39.38
3435.764	41.38
3438.697	39.38
3441.628	34.38
3444.557	33.38
3447.483	27.38
3450.407	33.38
3453.328	26.38
3456.247	30.38
3459.164	27.38
3462.079	25.38
3464.991	21.38
3467.902	20.38
3470.809	24.38
3473.715	22.38
3476.618	25.38
3479.519	16.38
3482.418	13.38
3485.315	15.38
3488.209	12.38
3491.101	11.38
3493.99	15.38
3496.878	13.38
3499.763	17.38
3502.646	13.38
3505.527	6.38
3508.405	10.38
3511.281	5.38
3514.155	8.38
3517.027	13.38
3519.897	5.38
3522.764	6.38
3525.629	3.38
3528.492	0.38
3531.352	-0.62
3534.211	-3.62
3537.067	0.38
3539.921	-0.62
3542.773	-2.62
3545.622	-1.62
3548.469	-5.62
3551.315	-6.62
3554.157	-10.62
3556.998	-5.62
3559.837	-4.62
3562.673	-2.62
3565.507	-6.62
3568.339	-4.62
3571.169	-10.62
3573.996	-8.62
3576.822	-6.62
3579.645	-10.62
3582.466	-6.62
3585.285	-7.62
3588.101	-8.62
3590.916	-14.62
3593.728	-15.62
3596.538	-16.62
3599.346	-13.62
3602.152	-12.62
3604.956	-11.62
3607.757	-13.62
3610.556	-13.62
3613.354	-19.62
3616.149	-17.62
3618.942	-14.62
3621.732	-17.62
3624.521	-13.62
3627.307	-14.62
3630.092	-18.62
3632.874	-19.62
3635.654	-19.62
3638.432	-18.62
3641.208	-16.62
3643.982	-13.62
3646.753	-17.62
3649.523	-13.62
3652.29	-21.62
3655.055	-21.62
3657.818	-23.62
3660.579	-19.62
3663.338	-19.62
3666.095	-16.62
3668.849	-18.62
3671.602	-19.62
3674.352	-21.62
3677.101	-19.62
3679.847	-20.62
3682.591	-21.62
3685.333	-20.62
3688.073	-19.62
3690.811	-21.62
3693.547	-25.62
3696.281	-21.62
3699.013	-23.62
3701.742	-20.62
3704.47	-18.62
3707.195	-19.62
3709.919	-22.62
3712.64	-28.62
3715.359	-26.62
3718.076	-20.62
3720.792	-24.62
3723.505	-18.62
3726.216	-20.62
3728.925	-23.62
3731.632	-28.62
3734.336	-25.62
3737.039	-23.62
3739.74	-24.62
3742.439	-23.62
3745.136	-20.62
3747.83	-20.62
3750.523	-22.62
3753.213	-22.62
3755.902	-26.62
3758.589	-24.62
3761.273	-23.62
3763.956	-20.62
3766.636	-22.62
3769.315	-19.62
3771.991	-24.62
3774.665	-27.62
3777.338	-21.62
3780.008	-21.62
3782.677	-20.62
3785.343	-24.62
3788.007	-21.62
3790.67	-26.62
3793.33	-24.62
3795.989	-27.62
3798.645	-24.62
3801.299	-21.62
3803.952	-22.62
3806.602	-22.62
3809.251	-25.62
3811.897	-24.62
3814.542	-25.62
3817.184	-25.62
3819.825	-24.62
3822.463	-19.62
3825.1	-21.62
3827.735	-19.62
3830.367	-23.62
3832.998	-26.62
3835.627	-26.62
3838.253	-22.62
3840.878	-23.62
3843.501	-21.62
3846.122	-23.62
3848.741	-19.62
3851.358	-23.62
3853.973	-24.62
3856.586	-24.62
3859.197	-28.62
3861.806	-23.62
3864.414	-25.62
3867.019	-22.62
3869.622	-23.62
3872.224	-24.62
3874.823	-25.62
3877.421	-22.62
3880.016	-20.62
3882.61	-17.62
3885.202	-11.62
3887.792	-11.62
3890.38	-19.62
3892.966	-24.62
3895.55	-23.62
3898.132	-24.62
3900.713	-20.62
3903.291	-21.62
3905.868	-22.62
3908.442	-24.62
3911.015	-22.62
3913.586	-29.62
3916.155	-26.62
3918.722	-29.62
3921.287	-21.62
3923.85	-22.62
3926.411	-23.62
3928.971	-19.62
3931.528	-27.62
3934.084	-29.62
3936.638	-26.62
3939.19	-26.62
3941.74	-21.62
3944.288	-22.62
3946.834	-22.62
3949.378	-25.62
3951.921	-26.62
3954.462	-23.62
3957	-24.62
3959.537	-23.62
3962.072	-22.62
3964.606	-24.62
3967.137	-21.62
3969.667	-22.62
3972.194	-27.62
3974.72	-27.62
3977.244	-24.62
3979.766	-22.62
3982.286	-17.62
3984.805	-23.62
3987.321	-27.62
3989.836	-26.62
3992.349	-24.62
3994.86	-23.62
3997.369	-22.62
3999.877	-23.62
4002.382	-22.62
4004.886	-23.62
4007.388	-21.62
4009.888	-24.62
4012.386	-25.62
4014.883	-21.62
4017.377	-21.62
4019.87	-24.62
4022.361	-21.62
4024.85	-26.62
4027.338	-31.62
4029.823	-28.62
4032.307	-22.62
4034.789	-20.62
4037.269	-23.62
4039.747	-25.62
4042.224	-25.62
4044.699	-28.62
4047.172	-28.62
4049.643	-26.62
4052.112	-21.62
4054.58	-18.62
4057.046	-18.62
4059.51	-27.62
4061.972	-24.62
4064.432	-24.62
4066.891	-23.62
4069.348	-21.62
4071.803	-23.62
4074.256	-22.62
4076.708	-23.62
4079.158	-24.62
4081.606	-25.62
4084.052	-22.62
4086.497	-20.62
4088.939	-20.62
4091.38	-21.62
4093.819	-23.62
4096.257	-24.62
4098.693	-25.62
4101.127	-25.62
4103.559	-29.62
4105.989	-10.62
4108.418	-11.62
4110.845	-5.62
4113.27	-7.62
4115.694	-9.62
4118.115	-10.62
4120.535	-23.62
4122.954	-26.62
4125.37	-25.62
4127.785	-20.62
4130.198	-22.62
4132.609	-24.62
4135.019	-23.62
4137.427	-26.62
4139.833	-22.62
4142.237	-28.62
