Data from 1CFU1_A_RamanShift_1.txt Node
Date: Thu Feb 02 13:37:45 IST 2017
User: aro
Spectrometer: QEPB0276
Trigger mode: 0
Integration Time (sec): 5.000000E0
Scans to average: 1
Electric dark correction enabled: true
Nonlinearity correction enabled: false
Boxcar width: 0
XAxis mode: Raman Shifts
Number of Pixels in Spectrum: 1044
>>>>>Begin Spectral Data<<<<<
160.701	-3.62
166.742	0.38
172.777	23.38
178.805	84.38
184.826	210.38
190.841	407.38
196.849	651.38
202.85	790.38
208.845	826.38
214.833	822.38
220.815	795.38
226.789	786.38
232.758	775.38
238.719	766.38
244.674	755.38
250.623	727.38
256.565	713.38
262.5	690.38
268.429	682.38
274.351	666.38
280.267	657.38
286.176	651.38
292.079	653.38
297.975	640.38
303.865	631.38
309.748	638.38
315.625	631.38
321.495	620.38
327.359	616.38
333.217	623.38
339.068	628.38
344.912	630.38
350.751	645.38
356.583	639.38
362.408	641.38
368.227	639.38
374.04	642.38
379.847	629.38
385.647	625.38
391.44	629.38
397.228	627.38
403.009	640.38
408.784	650.38
414.553	642.38
420.315	653.38
426.071	658.38
431.821	656.38
437.565	653.38
443.302	653.38
449.033	653.38
454.758	655.38
460.477	631.38
466.189	624.38
471.896	633.38
477.596	621.38
483.29	610.38
488.978	597.38
494.66	592.38
500.335	579.38
506.005	556.38
511.668	536.38
517.325	514.38
522.977	505.38
528.622	491.38
534.261	470.38
539.894	473.38
545.521	448.38
551.141	437.38
556.756	448.38
562.365	439.38
567.968	434.38
573.565	427.38
579.155	430.38
584.74	427.38
590.319	418.38
595.892	421.38
601.459	426.38
607.02	418.38
612.575	412.38
618.124	409.38
623.667	402.38
629.204	400.38
634.735	391.38
640.261	389.38
645.781	391.38
651.294	387.38
656.802	381.38
662.304	378.38
667.8	375.38
673.29	370.38
678.775	368.38
684.254	365.38
689.726	369.38
695.193	361.38
700.655	364.38
706.11	365.38
711.56	361.38
717.004	361.38
722.442	355.38
727.874	366.38
733.301	353.38
738.722	342.38
744.137	350.38
749.547	351.38
754.951	340.38
760.349	349.38
765.741	352.38
771.128	339.38
776.509	351.38
781.885	355.38
787.254	363.38
792.618	352.38
797.977	354.38
803.33	351.38
808.677	352.38
814.019	356.38
819.355	349.38
824.686	347.38
830.011	358.38
835.33	357.38
840.644	356.38
845.952	357.38
851.255	359.38
856.552	357.38
861.844	366.38
867.13	370.38
872.41	364.38
877.686	364.38
882.955	374.38
888.219	368.38
893.478	362.38
898.731	353.38
903.979	339.38
909.221	322.38
914.458	330.38
919.69	311.38
924.916	321.38
930.136	317.38
935.351	322.38
940.561	315.38
945.766	318.38
950.965	323.38
956.158	320.38
961.347	304.38
966.529	301.38
971.707	296.38
976.879	286.38
982.046	291.38
987.208	289.38
992.364	299.38
997.515	289.38
1002.66	300.38
1007.801	307.38
1012.936	308.38
1018.066	317.38
1023.19	312.38
1028.309	311.38
1033.423	321.38
1038.532	319.38
1043.636	323.38
1048.734	333.38
1053.827	323.38
1058.915	328.38
1063.998	339.38
1069.075	356.38
1074.147	346.38
1079.214	353.38
1084.276	360.38
1089.333	363.38
1094.385	351.38
1099.431	335.38
1104.472	340.38
1109.509	337.38
1114.54	317.38
1119.565	317.38
1124.586	320.38
1129.602	325.38
1134.613	321.38
1139.618	303.38
1144.619	280.38
1149.614	281.38
1154.604	266.38
1159.589	275.38
1164.57	265.38
1169.545	261.38
1174.515	257.38
1179.48	261.38
1184.44	251.38
1189.395	254.38
1194.345	241.38
1199.29	239.38
1204.23	248.38
1209.165	247.38
1214.095	247.38
1219.021	243.38
1223.941	246.38
1228.856	256.38
1233.766	260.38
1238.672	263.38
1243.572	271.38
1248.467	276.38
1253.358	269.38
1258.244	276.38
1263.124	277.38
1268	283.38
1272.871	267.38
1277.737	271.38
1282.599	261.38
1287.455	268.38
1292.306	272.38
1297.153	284.38
1301.995	299.38
1306.832	309.38
1311.664	304.38
1316.491	286.38
1321.314	277.38
1326.132	262.38
1330.945	257.38
1335.753	246.38
1340.556	240.38
1345.354	242.38
1350.148	239.38
1354.937	223.38
1359.722	227.38
1364.501	228.38
1369.276	225.38
1374.046	220.38
1378.811	232.38
1383.572	233.38
1388.327	213.38
1393.079	212.38
1397.825	214.38
1402.567	206.38
1407.304	205.38
1412.036	208.38
1416.764	207.38
1421.487	214.38
1426.205	224.38
1430.919	227.38
1435.628	251.38
1440.333	282.38
1445.032	309.38
1449.727	312.38
1454.418	303.38
1459.104	297.38
1463.785	280.38
1468.462	267.38
1473.134	237.38
1477.802	220.38
1482.465	200.38
1487.123	182.38
1491.777	179.38
1496.426	166.38
1501.071	159.38
1505.711	165.38
1510.347	166.38
1514.978	168.38
1519.604	158.38
1524.226	161.38
1528.844	160.38
1533.457	158.38
1538.065	157.38
1542.669	159.38
1547.269	163.38
1551.864	163.38
1556.454	167.38
1561.041	161.38
1565.622	157.38
1570.199	155.38
1574.772	150.38
1579.34	157.38
1583.904	160.38
1588.464	165.38
1593.019	156.38
1597.569	168.38
1602.115	163.38
1606.657	179.38
1611.195	172.38
1615.728	170.38
1620.256	165.38
1624.78	174.38
1629.3	175.38
1633.816	177.38
1638.327	183.38
1642.834	185.38
1647.336	191.38
1651.834	197.38
1656.328	196.38
1660.817	201.38
1665.302	197.38
1669.783	185.38
1674.259	186.38
1678.732	180.38
1683.199	175.38
1687.663	157.38
1692.122	150.38
1696.577	138.38
1701.028	148.38
1705.474	129.38
1709.917	130.38
1714.355	133.38
1718.788	122.38
1723.218	121.38
1727.643	117.38
1732.064	108.38
1736.481	114.38
1740.893	110.38
1745.301	107.38
1749.705	103.38
1754.105	102.38
1758.501	89.38
1762.893	91.38
1767.28	86.38
1771.663	92.38
1776.042	86.38
1780.417	84.38
1784.787	85.38
1789.154	82.38
1793.516	82.38
1797.874	80.38
1802.228	79.38
1806.578	84.38
1810.924	83.38
1815.266	84.38
1819.603	79.38
1823.937	79.38
1828.266	75.38
1832.591	75.38
1836.913	72.38
1841.23	76.38
1845.543	70.38
1849.852	65.38
1854.156	74.38
1858.457	71.38
1862.754	69.38
1867.047	72.38
1871.335	71.38
1875.62	72.38
1879.9	72.38
1884.177	70.38
1888.449	69.38
1892.718	69.38
1896.982	66.38
1901.243	66.38
1905.499	69.38
1909.752	67.38
1914	71.38
1918.245	62.38
1922.485	65.38
1926.722	69.38
1930.954	65.38
1935.183	67.38
1939.408	70.38
1943.628	66.38
1947.845	67.38
1952.058	67.38
1956.267	71.38
1960.472	70.38
1964.673	68.38
1968.87	63.38
1973.063	62.38
1977.252	59.38
1981.438	58.38
1985.619	58.38
1989.797	55.38
1993.971	61.38
1998.14	59.38
2002.306	61.38
2006.469	58.38
2010.627	54.38
2014.781	60.38
2018.932	55.38
2023.078	58.38
2027.221	59.38
2031.36	58.38
2035.495	56.38
2039.627	55.38
2043.754	55.38
2047.878	54.38
2051.998	55.38
2056.114	55.38
2060.226	52.38
2064.334	52.38
2068.439	55.38
2072.54	53.38
2076.637	56.38
2080.73	59.38
2084.82	58.38
2088.906	62.38
2092.988	59.38
2097.066	55.38
2101.14	60.38
2105.211	53.38
2109.278	50.38
2113.342	56.38
2117.401	53.38
2121.457	59.38
2125.509	53.38
2129.558	56.38
2133.602	44.38
2137.643	57.38
2141.681	50.38
2145.714	50.38
2149.744	44.38
2153.77	52.38
2157.793	46.38
2161.812	47.38
2165.827	43.38
2169.838	47.38
2173.846	44.38
2177.851	42.38
2181.851	45.38
2185.848	41.38
2189.841	37.38
2193.831	39.38
2197.817	39.38
2201.799	39.38
2205.778	45.38
2209.753	39.38
2213.725	39.38
2217.693	45.38
2221.657	37.38
2225.618	32.38
2229.575	32.38
2233.529	34.38
2237.479	35.38
2241.425	37.38
2245.368	40.38
2249.307	37.38
2253.243	31.38
2257.175	29.38
2261.104	29.38
2265.029	31.38
2268.95	31.38
2272.868	29.38
2276.783	28.38
2280.694	34.38
2284.601	24.38
2288.505	26.38
2292.405	20.38
2296.302	29.38
2300.195	29.38
2304.085	25.38
2307.971	21.38
2311.854	20.38
2315.734	22.38
2319.609	19.38
2323.482	23.38
2327.351	28.38
2331.216	25.38
2335.078	27.38
2338.937	22.38
2342.792	19.38
2346.643	16.38
2350.492	19.38
2354.336	17.38
2358.178	19.38
2362.015	20.38
2365.85	16.38
2369.681	18.38
2373.508	17.38
2377.333	17.38
2381.153	18.38
2384.971	12.38
2388.785	16.38
2392.595	14.38
2396.402	14.38
2400.206	18.38
2404.007	17.38
2407.804	18.38
2411.597	16.38
2415.388	8.38
2419.174	11.38
2422.958	6.38
2426.738	10.38
2430.515	11.38
2434.289	16.38
2438.059	18.38
2441.825	11.38
2445.589	13.38
2449.349	9.38
2453.106	6.38
2456.859	6.38
2460.61	7.38
2464.356	11.38
2468.1	13.38
2471.84	15.38
2475.577	13.38
2479.311	5.38
2483.041	11.38
2486.768	10.38
2490.492	7.38
2494.213	12.38
2497.93	9.38
2501.644	10.38
2505.355	8.38
2509.062	12.38
2512.766	8.38
2516.467	12.38
2520.165	5.38
2523.859	4.38
2527.551	7.38
2531.239	9.38
2534.923	6.38
2538.605	7.38
2542.283	7.38
2545.958	9.38
2549.63	10.38
2553.299	9.38
2556.964	2.38
2560.626	8.38
2564.285	1.38
2567.941	4.38
2571.594	7.38
2575.243	11.38
2578.89	13.38
2582.533	7.38
2586.173	9.38
2589.809	7.38
2593.443	8.38
2597.073	1.38
2600.701	5.38
2604.325	5.38
2607.946	8.38
2611.564	6.38
2615.178	8.38
2618.79	11.38
2622.398	10.38
2626.004	6.38
2629.606	7.38
2633.205	5.38
2636.801	1.38
2640.394	8.38
2643.983	8.38
2647.57	3.38
2651.153	4.38
2654.734	8.38
2658.311	4.38
2661.885	9.38
2665.456	5.38
2669.025	3.38
2672.589	-2.62
2676.151	8.38
2679.71	8.38
2683.266	5.38
2686.819	3.38
2690.368	6.38
2693.915	6.38
2697.458	9.38
2700.999	2.38
2704.536	3.38
2708.071	3.38
2711.602	8.38
2715.13	5.38
2718.656	8.38
2722.178	8.38
2725.697	6.38
2729.214	8.38
2732.727	11.38
2736.237	9.38
2739.744	12.38
2743.249	6.38
2746.75	5.38
2750.248	7.38
2753.743	7.38
2757.236	6.38
2760.725	9.38
2764.211	9.38
2767.695	7.38
2771.175	6.38
2774.652	2.38
2778.127	4.38
2781.598	8.38
2785.067	5.38
2788.532	8.38
2791.995	11.38
2795.455	10.38
2798.911	9.38
2802.365	7.38
2805.816	11.38
2809.264	13.38
2812.709	13.38
2816.151	15.38
2819.59	21.38
2823.026	19.38
2826.46	26.38
2829.89	24.38
2833.318	25.38
2836.742	27.38
2840.164	41.38
2843.583	48.38
2846.999	62.38
2850.412	77.38
2853.822	81.38
2857.229	94.38
2860.634	93.38
2864.035	93.38
2867.434	98.38
2870.83	100.38
2874.223	99.38
2877.613	98.38
2881	110.38
2884.385	117.38
2887.766	124.38
2891.145	119.38
2894.521	122.38
2897.894	118.38
2901.264	109.38
2904.631	103.38
2907.996	106.38
2911.358	107.38
2914.717	105.38
2918.073	103.38
2921.426	105.38
2924.777	110.38
2928.124	102.38
2931.469	104.38
2934.811	100.38
2938.15	100.38
2941.487	97.38
2944.821	91.38
2948.152	84.38
2951.48	80.38
2954.805	79.38
2958.128	75.38
2961.447	72.38
2964.765	67.38
2968.079	65.38
2971.39	59.38
2974.699	55.38
2978.005	53.38
2981.308	53.38
2984.609	49.38
2987.907	48.38
2991.202	52.38
2994.494	46.38
2997.784	44.38
3001.07	41.38
3004.355	43.38
3007.636	42.38
3010.915	38.38
3014.191	36.38
3017.464	36.38
3020.734	35.38
3024.002	34.38
3027.267	29.38
3030.53	37.38
3033.789	37.38
3037.046	32.38
3040.301	36.38
3043.552	32.38
3046.801	33.38
3050.048	37.38
3053.291	38.38
3056.532	46.38
3059.771	44.38
3063.006	42.38
3066.239	47.38
3069.469	46.38
3072.697	47.38
3075.922	47.38
3079.144	51.38
3082.364	52.38
3085.581	47.38
3088.795	53.38
3092.007	52.38
3095.216	57.38
3098.423	58.38
3101.627	60.38
3104.828	61.38
3108.026	58.38
3111.222	66.38
3114.416	61.38
3117.607	66.38
3120.795	69.38
3123.98	67.38
3127.163	77.38
3130.344	74.38
3133.521	81.38
3136.696	75.38
3139.869	75.38
3143.039	84.38
3146.206	82.38
3149.371	84.38
3152.533	85.38
3155.693	84.38
3158.85	80.38
3162.005	85.38
3165.157	92.38
3168.306	89.38
3171.453	89.38
3174.597	82.38
3177.739	85.38
3180.878	86.38
3184.014	88.38
3187.149	85.38
3190.28	91.38
3193.409	90.38
3196.536	94.38
3199.659	89.38
3202.781	89.38
3205.9	86.38
3209.016	89.38
3212.13	93.38
3215.241	91.38
3218.35	87.38
3221.456	91.38
3224.56	87.38
3227.661	85.38
3230.76	84.38
3233.856	85.38
3236.95	78.38
3240.041	81.38
3243.13	82.38
3246.216	86.38
3249.3	81.38
3252.382	82.38
3255.46	83.38
3258.537	78.38
3261.611	83.38
3264.682	76.38
3267.751	79.38
3270.818	76.38
3273.882	75.38
3276.943	82.38
3280.002	72.38
3283.059	71.38
3286.113	73.38
3289.165	74.38
3292.214	74.38
3295.261	71.38
3298.306	67.38
3301.348	67.38
3304.387	70.38
3307.425	63.38
3310.459	60.38
3313.492	60.38
3316.521	62.38
3319.549	63.38
3322.574	64.38
3325.597	66.38
3328.617	59.38
3331.635	57.38
3334.65	63.38
3337.663	56.38
3340.674	52.38
3343.682	59.38
3346.688	61.38
3349.691	63.38
3352.692	55.38
3355.691	61.38
3358.687	59.38
3361.681	55.38
3364.673	55.38
3367.662	56.38
3370.649	57.38
3373.633	57.38
3376.615	55.38
3379.595	46.38
3382.572	49.38
3385.547	51.38
3388.52	51.38
3391.49	49.38
3394.458	47.38
3397.424	45.38
3400.387	46.38
3403.348	43.38
3406.307	43.38
3409.263	45.38
3412.217	46.38
3415.168	43.38
3418.118	44.38
3421.065	39.38
3424.009	39.38
3426.951	46.38
3429.891	41.38
3432.829	38.38
3435.764	37.38
3438.697	36.38
3441.628	32.38
3444.557	33.38
3447.483	29.38
3450.407	31.38
3453.328	27.38
3456.247	29.38
3459.164	27.38
3462.079	22.38
3464.991	19.38
3467.902	23.38
3470.809	24.38
3473.715	27.38
3476.618	24.38
3479.519	19.38
3482.418	17.38
3485.315	14.38
3488.209	11.38
3491.101	12.38
3493.99	16.38
3496.878	15.38
3499.763	14.38
3502.646	15.38
3505.527	8.38
3508.405	13.38
3511.281	6.38
3514.155	9.38
3517.027	5.38
3519.897	6.38
3522.764	3.38
3525.629	6.38
3528.492	3.38
3531.352	1.38
3534.211	-1.62
3537.067	0.38
3539.921	0.38
3542.773	0.38
3545.622	-3.62
3548.469	-7.62
3551.315	-8.62
3554.157	-4.62
3556.998	-5.62
3559.837	-0.62
3562.673	-0.62
3565.507	-8.62
3568.339	-8.62
3571.169	-9.62
3573.996	-8.62
3576.822	-10.62
3579.645	-14.62
3582.466	-6.62
3585.285	-6.62
3588.101	-7.62
3590.916	-14.62
3593.728	-13.62
3596.538	-13.62
3599.346	-15.62
3602.152	-14.62
3604.956	-14.62
3607.757	-15.62
3610.556	-13.62
3613.354	-18.62
3616.149	-19.62
3618.942	-12.62
3621.732	-13.62
3624.521	-14.62
3627.307	-14.62
3630.092	-18.62
3632.874	-16.62
3635.654	-19.62
3638.432	-19.62
3641.208	-17.62
3643.982	-13.62
3646.753	-15.62
3649.523	-15.62
3652.29	-19.62
3655.055	-20.62
3657.818	-24.62
3660.579	-19.62
3663.338	-20.62
3666.095	-17.62
3668.849	-14.62
3671.602	-17.62
3674.352	-20.62
3677.101	-19.62
3679.847	-23.62
3682.591	-22.62
3685.333	-20.62
3688.073	-22.62
3690.811	-24.62
3693.547	-26.62
3696.281	-20.62
3699.013	-21.62
3701.742	-23.62
3704.47	-20.62
3707.195	-21.62
3709.919	-22.62
3712.64	-29.62
3715.359	-23.62
3718.076	-20.62
3720.792	-26.62
3723.505	-17.62
3726.216	-19.62
3728.925	-23.62
3731.632	-23.62
3734.336	-21.62
3737.039	-21.62
3739.74	-27.62
3742.439	-23.62
3745.136	-24.62
3747.83	-20.62
3750.523	-21.62
3753.213	-25.62
3755.902	-22.62
3758.589	-25.62
3761.273	-27.62
3763.956	-24.62
3766.636	-25.62
3769.315	-23.62
3771.991	-24.62
3774.665	-23.62
3777.338	-20.62
3780.008	-20.62
3782.677	-23.62
3785.343	-25.62
3788.007	-23.62
3790.67	-22.62
3793.33	-30.62
3795.989	-27.62
3798.645	-25.62
3801.299	-22.62
3803.952	-24.62
3806.602	-21.62
3809.251	-26.62
3811.897	-22.62
3814.542	-26.62
3817.184	-26.62
3819.825	-26.62
3822.463	-20.62
3825.1	-23.62
3827.735	-18.62
3830.367	-23.62
3832.998	-22.62
3835.627	-22.62
3838.253	-21.62
3840.878	-28.62
3843.501	-22.62
3846.122	-25.62
3848.741	-20.62
3851.358	-22.62
3853.973	-25.62
3856.586	-22.62
3859.197	-24.62
3861.806	-23.62
3864.414	-26.62
3867.019	-24.62
3869.622	-26.62
3872.224	-27.62
3874.823	-26.62
3877.421	-22.62
3880.016	-17.62
3882.61	-18.62
3885.202	-12.62
3887.792	-14.62
3890.38	-20.62
3892.966	-25.62
3895.55	-22.62
3898.132	-24.62
3900.713	-22.62
3903.291	-20.62
3905.868	-19.62
3908.442	-23.62
3911.015	-22.62
3913.586	-29.62
3916.155	-27.62
3918.722	-27.62
3921.287	-18.62
3923.85	-25.62
3926.411	-24.62
3928.971	-21.62
3931.528	-25.62
3934.084	-27.62
3936.638	-24.62
3939.19	-23.62
3941.74	-23.62
3944.288	-28.62
3946.834	-24.62
3949.378	-28.62
3951.921	-22.62
3954.462	-22.62
3957	-23.62
3959.537	-21.62
3962.072	-21.62
3964.606	-26.62
3967.137	-24.62
3969.667	-25.62
3972.194	-25.62
3974.72	-26.62
3977.244	-21.62
3979.766	-21.62
3982.286	-17.62
3984.805	-21.62
3987.321	-24.62
3989.836	-30.62
3992.349	-26.62
3994.86	-24.62
3997.369	-24.62
3999.877	-22.62
4002.382	-20.62
4004.886	-23.62
4007.388	-21.62
4009.888	-23.62
4012.386	-24.62
4014.883	-25.62
4017.377	-26.62
4019.87	-23.62
4022.361	-22.62
4024.85	-27.62
4027.338	-27.62
4029.823	-25.62
4032.307	-23.62
4034.789	-22.62
4037.269	-23.62
4039.747	-22.62
4042.224	-24.62
4044.699	-29.62
4047.172	-28.62
4049.643	-22.62
4052.112	-22.62
4054.58	-21.62
4057.046	-21.62
4059.51	-26.62
4061.972	-26.62
4064.432	-25.62
4066.891	-25.62
4069.348	-22.62
4071.803	-21.62
4074.256	-23.62
4076.708	-20.62
4079.158	-22.62
4081.606	-23.62
4084.052	-24.62
4086.497	-24.62
4088.939	-23.62
4091.38	-23.62
4093.819	-23.62
4096.257	-22.62
4098.693	-28.62
4101.127	-25.62
4103.559	-26.62
4105.989	-12.62
4108.418	-14.62
4110.845	-3.62
4113.27	-11.62
4115.694	-8.62
4118.115	-10.62
4120.535	-21.62
4122.954	-25.62
4125.37	-23.62
4127.785	-21.62
4130.198	-20.62
4132.609	-24.62
4135.019	-25.62
4137.427	-28.62
4139.833	-23.62
4142.237	-26.62
