Data from 1CFU2_A_RamanShift_1.txt Node
Date: Thu Feb 02 13:38:55 IST 2017
User: aro
Spectrometer: QEPB0276
Trigger mode: 0
Integration Time (sec): 5.000000E0
Scans to average: 1
Electric dark correction enabled: true
Nonlinearity correction enabled: false
Boxcar width: 0
XAxis mode: Raman Shifts
Number of Pixels in Spectrum: 1044
>>>>>Begin Spectral Data<<<<<
160.701	-3.62
166.742	-1.62
172.777	22.38
178.805	84.38
184.826	210.38
190.841	417.38
196.849	628.38
202.85	786.38
208.845	826.38
214.833	822.38
220.815	801.38
226.789	792.38
232.758	801.38
238.719	784.38
244.674	779.38
250.623	753.38
256.565	734.38
262.5	725.38
268.429	703.38
274.351	693.38
280.267	678.38
286.176	669.38
292.079	662.38
297.975	664.38
303.865	667.38
309.748	660.38
315.625	661.38
321.495	640.38
327.359	645.38
333.217	642.38
339.068	663.38
344.912	664.38
350.751	665.38
356.583	681.38
362.408	681.38
368.227	656.38
374.04	662.38
379.847	651.38
385.647	670.38
391.44	661.38
397.228	662.38
403.009	671.38
408.784	679.38
414.553	688.38
420.315	683.38
426.071	685.38
431.821	679.38
437.565	691.38
443.302	684.38
449.033	686.38
454.758	667.38
460.477	657.38
466.189	666.38
471.896	651.38
477.596	645.38
483.29	640.38
488.978	633.38
494.66	619.38
500.335	611.38
506.005	576.38
511.668	576.38
517.325	548.38
522.977	524.38
528.622	503.38
534.261	482.38
539.894	489.38
545.521	479.38
551.141	477.38
556.756	461.38
562.365	460.38
567.968	463.38
573.565	452.38
579.155	448.38
584.74	450.38
590.319	440.38
595.892	443.38
601.459	443.38
607.02	447.38
612.575	431.38
618.124	435.38
623.667	426.38
629.204	410.38
634.735	403.38
640.261	416.38
645.781	407.38
651.294	419.38
656.802	400.38
662.304	406.38
667.8	400.38
673.29	387.38
678.775	391.38
684.254	392.38
689.726	389.38
695.193	374.38
700.655	381.38
706.11	379.38
711.56	386.38
717.004	378.38
722.442	381.38
727.874	379.38
733.301	363.38
738.722	363.38
744.137	377.38
749.547	364.38
754.951	364.38
760.349	371.38
765.741	370.38
771.128	371.38
776.509	372.38
781.885	382.38
787.254	388.38
792.618	379.38
797.977	382.38
803.33	370.38
808.677	366.38
814.019	367.38
819.355	366.38
824.686	364.38
830.011	365.38
835.33	364.38
840.644	371.38
845.952	375.38
851.255	378.38
856.552	382.38
861.844	385.38
867.13	385.38
872.41	388.38
877.686	385.38
882.955	382.38
888.219	386.38
893.478	372.38
898.731	363.38
903.979	358.38
909.221	340.38
914.458	340.38
919.69	340.38
924.916	346.38
930.136	331.38
935.351	332.38
940.561	332.38
945.766	336.38
950.965	330.38
956.158	336.38
961.347	323.38
966.529	320.38
971.707	315.38
976.879	316.38
982.046	309.38
987.208	308.38
992.364	303.38
997.515	309.38
1002.66	315.38
1007.801	324.38
1012.936	322.38
1018.066	332.38
1023.19	328.38
1028.309	347.38
1033.423	339.38
1038.532	332.38
1043.636	331.38
1048.734	333.38
1053.827	336.38
1058.915	348.38
1063.998	348.38
1069.075	360.38
1074.147	364.38
1079.214	357.38
1084.276	370.38
1089.333	374.38
1094.385	370.38
1099.431	362.38
1104.472	351.38
1109.509	339.38
1114.54	339.38
1119.565	333.38
1124.586	338.38
1129.602	330.38
1134.613	325.38
1139.618	313.38
1144.619	293.38
1149.614	285.38
1154.604	277.38
1159.589	291.38
1164.57	278.38
1169.545	282.38
1174.515	274.38
1179.48	269.38
1184.44	261.38
1189.395	255.38
1194.345	249.38
1199.29	249.38
1204.23	260.38
1209.165	254.38
1214.095	258.38
1219.021	257.38
1223.941	261.38
1228.856	269.38
1233.766	267.38
1238.672	278.38
1243.572	287.38
1248.467	287.38
1253.358	284.38
1258.244	286.38
1263.124	291.38
1268	283.38
1272.871	278.38
1277.737	282.38
1282.599	270.38
1287.455	270.38
1292.306	279.38
1297.153	298.38
1301.995	314.38
1306.832	317.38
1311.664	309.38
1316.491	297.38
1321.314	286.38
1326.132	268.38
1330.945	263.38
1335.753	252.38
1340.556	245.38
1345.354	248.38
1350.148	247.38
1354.937	239.38
1359.722	232.38
1364.501	242.38
1369.276	231.38
1374.046	228.38
1378.811	241.38
1383.572	231.38
1388.327	229.38
1393.079	222.38
1397.825	222.38
1402.567	217.38
1407.304	207.38
1412.036	216.38
1416.764	211.38
1421.487	223.38
1426.205	227.38
1430.919	235.38
1435.628	251.38
1440.333	271.38
1445.032	304.38
1449.727	313.38
1454.418	307.38
1459.104	298.38
1463.785	289.38
1468.462	278.38
1473.134	260.38
1477.802	222.38
1482.465	207.38
1487.123	196.38
1491.777	176.38
1496.426	176.38
1501.071	173.38
1505.711	165.38
1510.347	170.38
1514.978	171.38
1519.604	180.38
1524.226	173.38
1528.844	172.38
1533.457	165.38
1538.065	168.38
1542.669	167.38
1547.269	167.38
1551.864	167.38
1556.454	170.38
1561.041	170.38
1565.622	164.38
1570.199	161.38
1574.772	161.38
1579.34	168.38
1583.904	164.38
1588.464	167.38
1593.019	172.38
1597.569	174.38
1602.115	171.38
1606.657	179.38
1611.195	175.38
1615.728	172.38
1620.256	180.38
1624.78	176.38
1629.3	179.38
1633.816	179.38
1638.327	187.38
1642.834	187.38
1647.336	197.38
1651.834	200.38
1656.328	199.38
1660.817	210.38
1665.302	201.38
1669.783	193.38
1674.259	181.38
1678.732	189.38
1683.199	174.38
1687.663	161.38
1692.122	155.38
1696.577	152.38
1701.028	143.38
1705.474	140.38
1709.917	137.38
1714.355	136.38
1718.788	125.38
1723.218	121.38
1727.643	119.38
1732.064	115.38
1736.481	114.38
1740.893	115.38
1745.301	117.38
1749.705	110.38
1754.105	103.38
1758.501	101.38
1762.893	100.38
1767.28	97.38
1771.663	99.38
1776.042	93.38
1780.417	93.38
1784.787	85.38
1789.154	88.38
1793.516	96.38
1797.874	91.38
1802.228	88.38
1806.578	93.38
1810.924	93.38
1815.266	84.38
1819.603	83.38
1823.937	83.38
1828.266	84.38
1832.591	77.38
1836.913	86.38
1841.23	76.38
1845.543	78.38
1849.852	67.38
1854.156	74.38
1858.457	75.38
1862.754	72.38
1867.047	71.38
1871.335	71.38
1875.62	74.38
1879.9	74.38
1884.177	75.38
1888.449	76.38
1892.718	77.38
1896.982	72.38
1901.243	75.38
1905.499	74.38
1909.752	72.38
1914	69.38
1918.245	69.38
1922.485	66.38
1926.722	73.38
1930.954	71.38
1935.183	73.38
1939.408	74.38
1943.628	71.38
1947.845	67.38
1952.058	75.38
1956.267	71.38
1960.472	72.38
1964.673	72.38
1968.87	65.38
1973.063	69.38
1977.252	61.38
1981.438	58.38
1985.619	61.38
1989.797	56.38
1993.971	66.38
1998.14	65.38
2002.306	62.38
2006.469	57.38
2010.627	60.38
2014.781	62.38
2018.932	65.38
2023.078	59.38
2027.221	62.38
2031.36	59.38
2035.495	55.38
2039.627	62.38
2043.754	60.38
2047.878	56.38
2051.998	55.38
2056.114	57.38
2060.226	53.38
2064.334	52.38
2068.439	59.38
2072.54	55.38
2076.637	60.38
2080.73	63.38
2084.82	60.38
2088.906	63.38
2092.988	60.38
2097.066	56.38
2101.14	61.38
2105.211	53.38
2109.278	54.38
2113.342	58.38
2117.401	57.38
2121.457	60.38
2125.509	53.38
2129.558	57.38
2133.602	51.38
2137.643	60.38
2141.681	51.38
2145.714	53.38
2149.744	54.38
2153.77	54.38
2157.793	50.38
2161.812	48.38
2165.827	46.38
2169.838	44.38
2173.846	47.38
2177.851	43.38
2181.851	46.38
2185.848	45.38
2189.841	44.38
2193.831	46.38
2197.817	40.38
2201.799	37.38
2205.778	42.38
2209.753	38.38
2213.725	38.38
2217.693	43.38
2221.657	39.38
2225.618	38.38
2229.575	35.38
2233.529	33.38
2237.479	35.38
2241.425	37.38
2245.368	36.38
2249.307	33.38
2253.243	30.38
2257.175	30.38
2261.104	35.38
2265.029	32.38
2268.95	35.38
2272.868	31.38
2276.783	30.38
2280.694	29.38
2284.601	25.38
2288.505	23.38
2292.405	26.38
2296.302	28.38
2300.195	28.38
2304.085	29.38
2307.971	25.38
2311.854	22.38
2315.734	21.38
2319.609	20.38
2323.482	25.38
2327.351	27.38
2331.216	23.38
2335.078	25.38
2338.937	18.38
2342.792	19.38
2346.643	20.38
2350.492	19.38
2354.336	14.38
2358.178	15.38
2362.015	15.38
2365.85	18.38
2369.681	17.38
2373.508	21.38
2377.333	18.38
2381.153	19.38
2384.971	14.38
2388.785	14.38
2392.595	14.38
2396.402	13.38
2400.206	18.38
2404.007	13.38
2407.804	14.38
2411.597	19.38
2415.388	13.38
2419.174	16.38
2422.958	10.38
2426.738	12.38
2430.515	8.38
2434.289	12.38
2438.059	17.38
2441.825	13.38
2445.589	10.38
2449.349	13.38
2453.106	11.38
2456.859	11.38
2460.61	8.38
2464.356	8.38
2468.1	9.38
2471.84	16.38
2475.577	14.38
2479.311	7.38
2483.041	8.38
2486.768	7.38
2490.492	9.38
2494.213	7.38
2497.93	9.38
2501.644	10.38
2505.355	11.38
2509.062	10.38
2512.766	8.38
2516.467	8.38
2520.165	8.38
2523.859	8.38
2527.551	7.38
2531.239	9.38
2534.923	0.38
2538.605	7.38
2542.283	5.38
2545.958	8.38
2549.63	8.38
2553.299	6.38
2556.964	9.38
2560.626	8.38
2564.285	-0.62
2567.941	3.38
2571.594	5.38
2575.243	10.38
2578.89	11.38
2582.533	11.38
2586.173	10.38
2589.809	8.38
2593.443	7.38
2597.073	3.38
2600.701	2.38
2604.325	4.38
2607.946	7.38
2611.564	11.38
2615.178	7.38
2618.79	7.38
2622.398	6.38
2626.004	5.38
2629.606	6.38
2633.205	8.38
2636.801	7.38
2640.394	13.38
2643.983	7.38
2647.57	3.38
2651.153	7.38
2654.734	4.38
2658.311	5.38
2661.885	4.38
2665.456	3.38
2669.025	3.38
2672.589	1.38
2676.151	5.38
2679.71	8.38
2683.266	2.38
2686.819	7.38
2690.368	5.38
2693.915	3.38
2697.458	6.38
2700.999	-0.62
2704.536	2.38
2708.071	0.38
2711.602	4.38
2715.13	9.38
2718.656	9.38
2722.178	8.38
2725.697	4.38
2729.214	7.38
2732.727	8.38
2736.237	11.38
2739.744	9.38
2743.249	6.38
2746.75	5.38
2750.248	5.38
2753.743	7.38
2757.236	8.38
2760.725	10.38
2764.211	13.38
2767.695	7.38
2771.175	6.38
2774.652	7.38
2778.127	1.38
2781.598	3.38
2785.067	6.38
2788.532	4.38
2791.995	11.38
2795.455	10.38
2798.911	6.38
2802.365	9.38
2805.816	7.38
2809.264	12.38
2812.709	13.38
2816.151	9.38
2819.59	17.38
2823.026	19.38
2826.46	25.38
2829.89	25.38
2833.318	24.38
2836.742	27.38
2840.164	37.38
2843.583	45.38
2846.999	51.38
2850.412	64.38
2853.822	76.38
2857.229	85.38
2860.634	86.38
2864.035	84.38
2867.434	89.38
2870.83	89.38
2874.223	85.38
2877.613	94.38
2881	101.38
2884.385	110.38
2887.766	120.38
2891.145	115.38
2894.521	107.38
2897.894	104.38
2901.264	103.38
2904.631	98.38
2907.996	109.38
2911.358	95.38
2914.717	103.38
2918.073	99.38
2921.426	98.38
2924.777	97.38
2928.124	98.38
2931.469	98.38
2934.811	95.38
2938.15	93.38
2941.487	94.38
2944.821	91.38
2948.152	83.38
2951.48	76.38
2954.805	67.38
2958.128	67.38
2961.447	65.38
2964.765	58.38
2968.079	60.38
2971.39	53.38
2974.699	53.38
2978.005	49.38
2981.308	48.38
2984.609	47.38
2987.907	49.38
2991.202	42.38
2994.494	39.38
2997.784	37.38
3001.07	36.38
3004.355	37.38
3007.636	36.38
3010.915	36.38
3014.191	34.38
3017.464	32.38
3020.734	30.38
3024.002	31.38
3027.267	30.38
3030.53	31.38
3033.789	31.38
3037.046	31.38
3040.301	28.38
3043.552	32.38
3046.801	30.38
3050.048	35.38
3053.291	37.38
3056.532	37.38
3059.771	40.38
3063.006	34.38
3066.239	39.38
3069.469	38.38
3072.697	37.38
3075.922	44.38
3079.144	44.38
3082.364	44.38
3085.581	48.38
3088.795	53.38
3092.007	47.38
3095.216	55.38
3098.423	53.38
3101.627	48.38
3104.828	56.38
3108.026	54.38
3111.222	54.38
3114.416	61.38
3117.607	62.38
3120.795	65.38
3123.98	60.38
3127.163	68.38
3130.344	64.38
3133.521	65.38
3136.696	67.38
3139.869	69.38
3143.039	77.38
3146.206	78.38
3149.371	82.38
3152.533	79.38
3155.693	77.38
3158.85	78.38
3162.005	79.38
3165.157	79.38
3168.306	78.38
3171.453	85.38
3174.597	79.38
3177.739	80.38
3180.878	75.38
3184.014	81.38
3187.149	76.38
3190.28	84.38
3193.409	85.38
3196.536	81.38
3199.659	84.38
3202.781	81.38
3205.9	86.38
3209.016	87.38
3212.13	89.38
3215.241	83.38
3218.35	80.38
3221.456	77.38
3224.56	74.38
3227.661	75.38
3230.76	77.38
3233.856	81.38
3236.95	66.38
3240.041	75.38
3243.13	77.38
3246.216	70.38
3249.3	70.38
3252.382	71.38
3255.46	69.38
3258.537	75.38
3261.611	72.38
3264.682	73.38
3267.751	70.38
3270.818	67.38
3273.882	68.38
3276.943	68.38
3280.002	64.38
3283.059	68.38
3286.113	70.38
3289.165	66.38
3292.214	65.38
3295.261	66.38
3298.306	61.38
3301.348	65.38
3304.387	59.38
3307.425	61.38
3310.459	56.38
3313.492	59.38
3316.521	58.38
3319.549	60.38
3322.574	54.38
3325.597	56.38
3328.617	53.38
3331.635	52.38
3334.65	55.38
3337.663	49.38
3340.674	54.38
3343.682	53.38
3346.688	54.38
3349.691	52.38
3352.692	55.38
3355.691	48.38
3358.687	55.38
3361.681	51.38
3364.673	51.38
3367.662	53.38
3370.649	48.38
3373.633	50.38
3376.615	50.38
3379.595	41.38
3382.572	44.38
3385.547	44.38
3388.52	46.38
3391.49	44.38
3394.458	41.38
3397.424	36.38
3400.387	40.38
3403.348	38.38
3406.307	35.38
3409.263	41.38
3412.217	42.38
3415.168	38.38
3418.118	36.38
3421.065	33.38
3424.009	29.38
3426.951	36.38
3429.891	35.38
3432.829	34.38
3435.764	30.38
3438.697	32.38
3441.628	29.38
3444.557	29.38
3447.483	28.38
3450.407	24.38
3453.328	27.38
3456.247	25.38
3459.164	22.38
3462.079	23.38
3464.991	22.38
3467.902	19.38
3470.809	17.38
3473.715	17.38
3476.618	15.38
3479.519	15.38
3482.418	13.38
3485.315	11.38
3488.209	13.38
3491.101	11.38
3493.99	13.38
3496.878	16.38
3499.763	7.38
3502.646	6.38
3505.527	3.38
3508.405	6.38
3511.281	3.38
3514.155	6.38
3517.027	2.38
3519.897	8.38
3522.764	1.38
3525.629	0.38
3528.492	-0.62
3531.352	-4.62
3534.211	-2.62
3537.067	-1.62
3539.921	-4.62
3542.773	-4.62
3545.622	-5.62
3548.469	-8.62
3551.315	-8.62
3554.157	-8.62
3556.998	-8.62
3559.837	-6.62
3562.673	-1.62
3565.507	-8.62
3568.339	-6.62
3571.169	-8.62
3573.996	-9.62
3576.822	-12.62
3579.645	-15.62
3582.466	-9.62
3585.285	-10.62
3588.101	-9.62
3590.916	-15.62
3593.728	-15.62
3596.538	-15.62
3599.346	-16.62
3602.152	-15.62
3604.956	-13.62
3607.757	-16.62
3610.556	-16.62
3613.354	-18.62
3616.149	-18.62
3618.942	-14.62
3621.732	-18.62
3624.521	-16.62
3627.307	-15.62
3630.092	-19.62
3632.874	-20.62
3635.654	-19.62
3638.432	-22.62
3641.208	-18.62
3643.982	-18.62
3646.753	-16.62
3649.523	-17.62
3652.29	-19.62
3655.055	-21.62
3657.818	-27.62
3660.579	-20.62
3663.338	-20.62
3666.095	-15.62
3668.849	-17.62
3671.602	-18.62
3674.352	-22.62
3677.101	-21.62
3679.847	-23.62
3682.591	-22.62
3685.333	-22.62
3688.073	-23.62
3690.811	-24.62
3693.547	-29.62
3696.281	-23.62
3699.013	-25.62
3701.742	-25.62
3704.47	-19.62
3707.195	-23.62
3709.919	-23.62
3712.64	-31.62
3715.359	-24.62
3718.076	-22.62
3720.792	-23.62
3723.505	-16.62
3726.216	-20.62
3728.925	-27.62
3731.632	-28.62
3734.336	-26.62
3737.039	-24.62
3739.74	-25.62
3742.439	-23.62
3745.136	-22.62
3747.83	-19.62
3750.523	-21.62
3753.213	-25.62
3755.902	-25.62
3758.589	-27.62
3761.273	-28.62
3763.956	-22.62
3766.636	-21.62
3769.315	-22.62
3771.991	-23.62
3774.665	-26.62
3777.338	-22.62
3780.008	-23.62
3782.677	-25.62
3785.343	-26.62
3788.007	-22.62
3790.67	-23.62
3793.33	-25.62
3795.989	-29.62
3798.645	-25.62
3801.299	-22.62
3803.952	-27.62
3806.602	-24.62
3809.251	-27.62
3811.897	-22.62
3814.542	-25.62
3817.184	-24.62
3819.825	-23.62
3822.463	-21.62
3825.1	-24.62
3827.735	-22.62
3830.367	-26.62
3832.998	-24.62
3835.627	-25.62
3838.253	-22.62
3840.878	-23.62
3843.501	-20.62
3846.122	-25.62
3848.741	-22.62
3851.358	-26.62
3853.973	-26.62
3856.586	-29.62
3859.197	-28.62
3861.806	-23.62
3864.414	-21.62
3867.019	-20.62
3869.622	-23.62
3872.224	-24.62
3874.823	-27.62
3877.421	-23.62
3880.016	-24.62
3882.61	-20.62
3885.202	-14.62
3887.792	-15.62
3890.38	-19.62
3892.966	-25.62
3895.55	-22.62
3898.132	-24.62
3900.713	-24.62
3903.291	-23.62
3905.868	-24.62
3908.442	-27.62
3911.015	-23.62
3913.586	-28.62
3916.155	-26.62
3918.722	-25.62
3921.287	-20.62
3923.85	-25.62
3926.411	-27.62
3928.971	-24.62
3931.528	-27.62
3934.084	-27.62
3936.638	-22.62
3939.19	-25.62
3941.74	-23.62
3944.288	-24.62
3946.834	-27.62
3949.378	-27.62
3951.921	-27.62
3954.462	-23.62
3957	-26.62
3959.537	-24.62
3962.072	-22.62
3964.606	-24.62
3967.137	-22.62
3969.667	-27.62
3972.194	-25.62
3974.72	-27.62
3977.244	-24.62
3979.766	-26.62
3982.286	-19.62
3984.805	-22.62
3987.321	-24.62
3989.836	-27.62
3992.349	-22.62
3994.86	-23.62
3997.369	-23.62
3999.877	-25.62
4002.382	-26.62
4004.886	-24.62
4007.388	-23.62
4009.888	-24.62
4012.386	-24.62
4014.883	-22.62
4017.377	-25.62
4019.87	-23.62
4022.361	-24.62
4024.85	-29.62
4027.338	-27.62
4029.823	-26.62
4032.307	-26.62
4034.789	-22.62
4037.269	-25.62
4039.747	-24.62
4042.224	-25.62
4044.699	-30.62
4047.172	-30.62
4049.643	-27.62
4052.112	-23.62
4054.58	-24.62
4057.046	-20.62
4059.51	-28.62
4061.972	-25.62
4064.432	-23.62
4066.891	-24.62
4069.348	-25.62
4071.803	-25.62
4074.256	-26.62
4076.708	-24.62
4079.158	-29.62
4081.606	-26.62
4084.052	-22.62
4086.497	-21.62
4088.939	-21.62
4091.38	-23.62
4093.819	-24.62
4096.257	-21.62
4098.693	-28.62
4101.127	-27.62
4103.559	-32.62
4105.989	-13.62
4108.418	-13.62
4110.845	-8.62
4113.27	-9.62
4115.694	-9.62
4118.115	-8.62
4120.535	-22.62
4122.954	-29.62
4125.37	-26.62
4127.785	-21.62
4130.198	-23.62
4132.609	-25.62
4135.019	-24.62
4137.427	-26.62
4139.833	-22.62
4142.237	-27.62
