Data from 1CFU1_B_RamanShift_1.txt Node
Date: Thu Feb 02 14:14:35 IST 2017
User: aro
Spectrometer: QEPB0276
Trigger mode: 0
Integration Time (sec): 5.000000E0
Scans to average: 1
Electric dark correction enabled: true
Nonlinearity correction enabled: false
Boxcar width: 0
XAxis mode: Raman Shifts
Number of Pixels in Spectrum: 1044
>>>>>Begin Spectral Data<<<<<
160.701	-2.62
166.742	-0.62
172.777	21.38
178.805	83.38
184.826	199.38
190.841	399.38
196.849	614.38
202.85	761.38
208.845	789.38
214.833	790.38
220.815	769.38
226.789	753.38
232.758	751.38
238.719	733.38
244.674	723.38
250.623	711.38
256.565	678.38
262.5	666.38
268.429	668.38
274.351	647.38
280.267	637.38
286.176	613.38
292.079	627.38
297.975	619.38
303.865	608.38
309.748	606.38
315.625	598.38
321.495	596.38
327.359	601.38
333.217	603.38
339.068	601.38
344.912	617.38
350.751	622.38
356.583	619.38
362.408	626.38
368.227	621.38
374.04	601.38
379.847	591.38
385.647	611.38
391.44	605.38
397.228	615.38
403.009	617.38
408.784	620.38
414.553	625.38
420.315	635.38
426.071	632.38
431.821	629.38
437.565	635.38
443.302	636.38
449.033	630.38
454.758	616.38
460.477	609.38
466.189	606.38
471.896	602.38
477.596	595.38
483.29	591.38
488.978	587.38
494.66	580.38
500.335	557.38
506.005	535.38
511.668	518.38
517.325	494.38
522.977	479.38
528.622	460.38
534.261	453.38
539.894	439.38
545.521	431.38
551.141	427.38
556.756	425.38
562.365	415.38
567.968	408.38
573.565	407.38
579.155	407.38
584.74	409.38
590.319	411.38
595.892	407.38
601.459	404.38
607.02	393.38
612.575	393.38
618.124	393.38
623.667	388.38
629.204	379.38
634.735	374.38
640.261	376.38
645.781	377.38
651.294	371.38
656.802	373.38
662.304	361.38
667.8	357.38
673.29	356.38
678.775	357.38
684.254	352.38
689.726	341.38
695.193	340.38
700.655	341.38
706.11	343.38
711.56	341.38
717.004	351.38
722.442	345.38
727.874	334.38
733.301	341.38
738.722	333.38
744.137	326.38
749.547	329.38
754.951	329.38
760.349	333.38
765.741	336.38
771.128	335.38
776.509	345.38
781.885	335.38
787.254	338.38
792.618	342.38
797.977	335.38
803.33	335.38
808.677	330.38
814.019	343.38
819.355	337.38
824.686	321.38
830.011	338.38
835.33	344.38
840.644	339.38
845.952	347.38
851.255	355.38
856.552	346.38
861.844	347.38
867.13	356.38
872.41	355.38
877.686	354.38
882.955	355.38
888.219	345.38
893.478	346.38
898.731	339.38
903.979	323.38
909.221	315.38
914.458	312.38
919.69	308.38
924.916	308.38
930.136	299.38
935.351	306.38
940.561	301.38
945.766	300.38
950.965	306.38
956.158	306.38
961.347	294.38
966.529	275.38
971.707	279.38
976.879	275.38
982.046	278.38
987.208	271.38
992.364	279.38
997.515	273.38
1002.66	276.38
1007.801	296.38
1012.936	293.38
1018.066	289.38
1023.19	301.38
1028.309	298.38
1033.423	305.38
1038.532	306.38
1043.636	297.38
1048.734	304.38
1053.827	306.38
1058.915	312.38
1063.998	328.38
1069.075	337.38
1074.147	336.38
1079.214	338.38
1084.276	342.38
1089.333	348.38
1094.385	336.38
1099.431	332.38
1104.472	319.38
1109.509	315.38
1114.54	315.38
1119.565	299.38
1124.586	315.38
1129.602	311.38
1134.613	305.38
1139.618	294.38
1144.619	273.38
1149.614	262.38
1154.604	254.38
1159.589	266.38
1164.57	264.38
1169.545	249.38
1174.515	250.38
1179.48	244.38
1184.44	238.38
1189.395	229.38
1194.345	227.38
1199.29	232.38
1204.23	226.38
1209.165	237.38
1214.095	238.38
1219.021	236.38
1223.941	236.38
1228.856	240.38
1233.766	244.38
1238.672	251.38
1243.572	256.38
1248.467	262.38
1253.358	260.38
1258.244	268.38
1263.124	262.38
1268	261.38
1272.871	251.38
1277.737	258.38
1282.599	250.38
1287.455	255.38
1292.306	258.38
1297.153	273.38
1301.995	284.38
1306.832	299.38
1311.664	279.38
1316.491	277.38
1321.314	269.38
1326.132	251.38
1330.945	240.38
1335.753	238.38
1340.556	226.38
1345.354	226.38
1350.148	231.38
1354.937	217.38
1359.722	217.38
1364.501	214.38
1369.276	208.38
1374.046	214.38
1378.811	219.38
1383.572	212.38
1388.327	206.38
1393.079	197.38
1397.825	199.38
1402.567	201.38
1407.304	188.38
1412.036	205.38
1416.764	203.38
1421.487	207.38
1426.205	209.38
1430.919	216.38
1435.628	233.38
1440.333	265.38
1445.032	288.38
1449.727	294.38
1454.418	290.38
1459.104	281.38
1463.785	273.38
1468.462	258.38
1473.134	233.38
1477.802	213.38
1482.465	187.38
1487.123	175.38
1491.777	163.38
1496.426	157.38
1501.071	152.38
1505.711	150.38
1510.347	151.38
1514.978	158.38
1519.604	157.38
1524.226	150.38
1528.844	151.38
1533.457	150.38
1538.065	151.38
1542.669	150.38
1547.269	150.38
1551.864	152.38
1556.454	153.38
1561.041	151.38
1565.622	149.38
1570.199	145.38
1574.772	147.38
1579.34	144.38
1583.904	148.38
1588.464	153.38
1593.019	153.38
1597.569	158.38
1602.115	155.38
1606.657	162.38
1611.195	161.38
1615.728	161.38
1620.256	153.38
1624.78	160.38
1629.3	166.38
1633.816	167.38
1638.327	171.38
1642.834	176.38
1647.336	175.38
1651.834	185.38
1656.328	188.38
1660.817	186.38
1665.302	188.38
1669.783	180.38
1674.259	170.38
1678.732	171.38
1683.199	159.38
1687.663	146.38
1692.122	141.38
1696.577	132.38
1701.028	129.38
1705.474	128.38
1709.917	128.38
1714.355	125.38
1718.788	114.38
1723.218	112.38
1727.643	109.38
1732.064	101.38
1736.481	107.38
1740.893	99.38
1745.301	102.38
1749.705	103.38
1754.105	100.38
1758.501	89.38
1762.893	85.38
1767.28	85.38
1771.663	87.38
1776.042	79.38
1780.417	75.38
1784.787	79.38
1789.154	75.38
1793.516	81.38
1797.874	79.38
1802.228	78.38
1806.578	82.38
1810.924	80.38
1815.266	74.38
1819.603	74.38
1823.937	74.38
1828.266	70.38
1832.591	70.38
1836.913	68.38
1841.23	70.38
1845.543	68.38
1849.852	63.38
1854.156	62.38
1858.457	69.38
1862.754	65.38
1867.047	64.38
1871.335	61.38
1875.62	70.38
1879.9	67.38
1884.177	62.38
1888.449	64.38
1892.718	59.38
1896.982	63.38
1901.243	67.38
1905.499	68.38
1909.752	64.38
1914	64.38
1918.245	61.38
1922.485	60.38
1926.722	64.38
1930.954	58.38
1935.183	57.38
1939.408	66.38
1943.628	63.38
1947.845	60.38
1952.058	62.38
1956.267	69.38
1960.472	62.38
1964.673	60.38
1968.87	59.38
1973.063	56.38
1977.252	51.38
1981.438	54.38
1985.619	51.38
1989.797	53.38
1993.971	54.38
1998.14	55.38
2002.306	54.38
2006.469	50.38
2010.627	48.38
2014.781	56.38
2018.932	53.38
2023.078	57.38
2027.221	57.38
2031.36	54.38
2035.495	50.38
2039.627	54.38
2043.754	52.38
2047.878	51.38
2051.998	49.38
2056.114	55.38
2060.226	53.38
2064.334	50.38
2068.439	50.38
2072.54	50.38
2076.637	54.38
2080.73	54.38
2084.82	50.38
2088.906	54.38
2092.988	53.38
2097.066	51.38
2101.14	54.38
2105.211	56.38
2109.278	46.38
2113.342	53.38
2117.401	44.38
2121.457	53.38
2125.509	47.38
2129.558	52.38
2133.602	45.38
2137.643	56.38
2141.681	48.38
2145.714	47.38
2149.744	43.38
2153.77	44.38
2157.793	38.38
2161.812	41.38
2165.827	42.38
2169.838	39.38
2173.846	41.38
2177.851	40.38
2181.851	42.38
2185.848	41.38
2189.841	36.38
2193.831	34.38
2197.817	35.38
2201.799	40.38
2205.778	39.38
2209.753	35.38
2213.725	41.38
2217.693	40.38
2221.657	33.38
2225.618	34.38
2229.575	28.38
2233.529	30.38
2237.479	35.38
2241.425	35.38
2245.368	34.38
2249.307	34.38
2253.243	27.38
2257.175	26.38
2261.104	26.38
2265.029	29.38
2268.95	30.38
2272.868	25.38
2276.783	28.38
2280.694	29.38
2284.601	23.38
2288.505	22.38
2292.405	23.38
2296.302	25.38
2300.195	24.38
2304.085	19.38
2307.971	20.38
2311.854	22.38
2315.734	19.38
2319.609	17.38
2323.482	19.38
2327.351	21.38
2331.216	21.38
2335.078	25.38
2338.937	23.38
2342.792	18.38
2346.643	12.38
2350.492	19.38
2354.336	13.38
2358.178	16.38
2362.015	16.38
2365.85	12.38
2369.681	15.38
2373.508	13.38
2377.333	18.38
2381.153	15.38
2384.971	14.38
2388.785	12.38
2392.595	15.38
2396.402	13.38
2400.206	13.38
2404.007	12.38
2407.804	12.38
2411.597	17.38
2415.388	11.38
2419.174	12.38
2422.958	11.38
2426.738	9.38
2430.515	7.38
2434.289	8.38
2438.059	12.38
2441.825	11.38
2445.589	9.38
2449.349	13.38
2453.106	11.38
2456.859	7.38
2460.61	11.38
2464.356	9.38
2468.1	6.38
2471.84	13.38
2475.577	10.38
2479.311	6.38
2483.041	5.38
2486.768	9.38
2490.492	12.38
2494.213	6.38
2497.93	4.38
2501.644	6.38
2505.355	6.38
2509.062	10.38
2512.766	11.38
2516.467	11.38
2520.165	6.38
2523.859	7.38
2527.551	7.38
2531.239	6.38
2534.923	5.38
2538.605	0.38
2542.283	3.38
2545.958	8.38
2549.63	7.38
2553.299	9.38
2556.964	4.38
2560.626	7.38
2564.285	2.38
2567.941	4.38
2571.594	6.38
2575.243	9.38
2578.89	12.38
2582.533	9.38
2586.173	8.38
2589.809	8.38
2593.443	9.38
2597.073	-0.62
2600.701	4.38
2604.325	8.38
2607.946	9.38
2611.564	3.38
2615.178	7.38
2618.79	10.38
2622.398	2.38
2626.004	8.38
2629.606	5.38
2633.205	7.38
2636.801	6.38
2640.394	10.38
2643.983	9.38
2647.57	3.38
2651.153	3.38
2654.734	0.38
2658.311	4.38
2661.885	8.38
2665.456	4.38
2669.025	2.38
2672.589	1.38
2676.151	4.38
2679.71	7.38
2683.266	3.38
2686.819	1.38
2690.368	3.38
2693.915	4.38
2697.458	7.38
2700.999	1.38
2704.536	6.38
2708.071	4.38
2711.602	6.38
2715.13	4.38
2718.656	7.38
2722.178	2.38
2725.697	5.38
2729.214	5.38
2732.727	11.38
2736.237	13.38
2739.744	11.38
2743.249	6.38
2746.75	2.38
2750.248	4.38
2753.743	5.38
2757.236	5.38
2760.725	10.38
2764.211	9.38
2767.695	5.38
2771.175	7.38
2774.652	6.38
2778.127	0.38
2781.598	3.38
2785.067	5.38
2788.532	7.38
2791.995	7.38
2795.455	8.38
2798.911	5.38
2802.365	8.38
2805.816	10.38
2809.264	11.38
2812.709	13.38
2816.151	16.38
2819.59	18.38
2823.026	18.38
2826.46	21.38
2829.89	27.38
2833.318	22.38
2836.742	24.38
2840.164	40.38
2843.583	42.38
2846.999	57.38
2850.412	71.38
2853.822	73.38
2857.229	87.38
2860.634	86.38
2864.035	85.38
2867.434	85.38
2870.83	93.38
2874.223	94.38
2877.613	103.38
2881	98.38
2884.385	111.38
2887.766	114.38
2891.145	119.38
2894.521	112.38
2897.894	110.38
2901.264	106.38
2904.631	106.38
2907.996	103.38
2911.358	107.38
2914.717	106.38
2918.073	103.38
2921.426	96.38
2924.777	102.38
2928.124	96.38
2931.469	99.38
2934.811	100.38
2938.15	97.38
2941.487	94.38
2944.821	87.38
2948.152	81.38
2951.48	78.38
2954.805	78.38
2958.128	71.38
2961.447	67.38
2964.765	60.38
2968.079	57.38
2971.39	56.38
2974.699	53.38
2978.005	49.38
2981.308	47.38
2984.609	46.38
2987.907	47.38
2991.202	49.38
2994.494	42.38
2997.784	42.38
3001.07	38.38
3004.355	40.38
3007.636	33.38
3010.915	39.38
3014.191	36.38
3017.464	31.38
3020.734	35.38
3024.002	37.38
3027.267	31.38
3030.53	29.38
3033.789	35.38
3037.046	30.38
3040.301	32.38
3043.552	29.38
3046.801	29.38
3050.048	35.38
3053.291	38.38
3056.532	41.38
3059.771	35.38
3063.006	38.38
3066.239	44.38
3069.469	42.38
3072.697	43.38
3075.922	49.38
3079.144	50.38
3082.364	46.38
3085.581	45.38
3088.795	49.38
3092.007	43.38
3095.216	54.38
3098.423	55.38
3101.627	58.38
3104.828	54.38
3108.026	55.38
3111.222	58.38
3114.416	58.38
3117.607	57.38
3120.795	64.38
3123.98	70.38
3127.163	73.38
3130.344	71.38
3133.521	72.38
3136.696	70.38
3139.869	72.38
3143.039	76.38
3146.206	84.38
3149.371	82.38
3152.533	83.38
3155.693	78.38
3158.85	74.38
3162.005	81.38
3165.157	79.38
3168.306	85.38
3171.453	84.38
3174.597	83.38
3177.739	79.38
3180.878	85.38
3184.014	87.38
3187.149	83.38
3190.28	89.38
3193.409	87.38
3196.536	85.38
3199.659	86.38
3202.781	85.38
3205.9	83.38
3209.016	86.38
3212.13	95.38
3215.241	82.38
3218.35	85.38
3221.456	85.38
3224.56	85.38
3227.661	82.38
3230.76	81.38
3233.856	83.38
3236.95	75.38
3240.041	84.38
3243.13	76.38
3246.216	75.38
3249.3	79.38
3252.382	76.38
3255.46	72.38
3258.537	86.38
3261.611	73.38
3264.682	73.38
3267.751	71.38
3270.818	71.38
3273.882	71.38
3276.943	73.38
3280.002	65.38
3283.059	76.38
3286.113	74.38
3289.165	77.38
3292.214	65.38
3295.261	61.38
3298.306	65.38
3301.348	68.38
3304.387	61.38
3307.425	63.38
3310.459	62.38
3313.492	65.38
3316.521	56.38
3319.549	59.38
3322.574	55.38
3325.597	57.38
3328.617	56.38
3331.635	52.38
3334.65	55.38
3337.663	54.38
3340.674	54.38
3343.682	57.38
3346.688	55.38
3349.691	58.38
3352.692	52.38
3355.691	52.38
3358.687	54.38
3361.681	50.38
3364.673	56.38
3367.662	52.38
3370.649	56.38
3373.633	50.38
3376.615	50.38
3379.595	45.38
3382.572	44.38
3385.547	44.38
3388.52	45.38
3391.49	46.38
3394.458	48.38
3397.424	48.38
3400.387	43.38
3403.348	41.38
3406.307	39.38
3409.263	40.38
3412.217	39.38
3415.168	36.38
3418.118	42.38
3421.065	38.38
3424.009	35.38
3426.951	38.38
3429.891	42.38
3432.829	39.38
3435.764	33.38
3438.697	31.38
3441.628	29.38
3444.557	29.38
3447.483	31.38
3450.407	32.38
3453.328	31.38
3456.247	30.38
3459.164	28.38
3462.079	21.38
3464.991	16.38
3467.902	20.38
3470.809	19.38
3473.715	22.38
3476.618	19.38
3479.519	20.38
3482.418	12.38
3485.315	15.38
3488.209	10.38
3491.101	11.38
3493.99	13.38
3496.878	16.38
3499.763	8.38
3502.646	14.38
3505.527	6.38
3508.405	10.38
3511.281	6.38
3514.155	8.38
3517.027	4.38
3519.897	10.38
3522.764	4.38
3525.629	6.38
3528.492	3.38
3531.352	0.38
3534.211	-1.62
3537.067	-3.62
3539.921	-0.62
3542.773	-4.62
3545.622	-3.62
3548.469	-2.62
3551.315	-2.62
3554.157	-8.62
3556.998	-4.62
3559.837	-5.62
3562.673	-7.62
3565.507	-10.62
3568.339	-8.62
3571.169	-7.62
3573.996	-4.62
3576.822	-8.62
3579.645	-12.62
3582.466	-6.62
3585.285	-8.62
3588.101	-6.62
3590.916	-16.62
3593.728	-14.62
3596.538	-13.62
3599.346	-14.62
3602.152	-13.62
3604.956	-11.62
3607.757	-14.62
3610.556	-16.62
3613.354	-18.62
3616.149	-19.62
3618.942	-15.62
3621.732	-15.62
3624.521	-16.62
3627.307	-14.62
3630.092	-17.62
3632.874	-13.62
3635.654	-19.62
3638.432	-21.62
3641.208	-20.62
3643.982	-17.62
3646.753	-17.62
3649.523	-14.62
3652.29	-19.62
3655.055	-20.62
3657.818	-25.62
3660.579	-18.62
3663.338	-18.62
3666.095	-17.62
3668.849	-18.62
3671.602	-19.62
3674.352	-17.62
3677.101	-17.62
3679.847	-21.62
3682.591	-21.62
3685.333	-20.62
3688.073	-20.62
3690.811	-23.62
3693.547	-26.62
3696.281	-21.62
3699.013	-21.62
3701.742	-24.62
3704.47	-18.62
3707.195	-20.62
3709.919	-20.62
3712.64	-28.62
3715.359	-23.62
3718.076	-21.62
3720.792	-23.62
3723.505	-16.62
3726.216	-18.62
3728.925	-19.62
3731.632	-22.62
3734.336	-25.62
3737.039	-23.62
3739.74	-27.62
3742.439	-22.62
3745.136	-22.62
3747.83	-19.62
3750.523	-20.62
3753.213	-21.62
3755.902	-25.62
3758.589	-26.62
3761.273	-25.62
3763.956	-23.62
3766.636	-20.62
3769.315	-21.62
3771.991	-22.62
3774.665	-23.62
3777.338	-23.62
3780.008	-22.62
3782.677	-25.62
3785.343	-22.62
3788.007	-21.62
3790.67	-22.62
3793.33	-25.62
3795.989	-24.62
3798.645	-22.62
3801.299	-23.62
3803.952	-24.62
3806.602	-25.62
3809.251	-24.62
3811.897	-22.62
3814.542	-23.62
3817.184	-21.62
3819.825	-23.62
3822.463	-18.62
3825.1	-22.62
3827.735	-20.62
3830.367	-25.62
3832.998	-26.62
3835.627	-26.62
3838.253	-19.62
3840.878	-24.62
3843.501	-19.62
3846.122	-23.62
3848.741	-20.62
3851.358	-24.62
3853.973	-21.62
3856.586	-25.62
3859.197	-22.62
3861.806	-25.62
3864.414	-19.62
3867.019	-22.62
3869.622	-19.62
3872.224	-26.62
3874.823	-23.62
3877.421	-21.62
3880.016	-21.62
3882.61	-17.62
3885.202	-9.62
3887.792	-11.62
3890.38	-14.62
3892.966	-23.62
3895.55	-22.62
3898.132	-25.62
3900.713	-22.62
3903.291	-21.62
3905.868	-21.62
3908.442	-22.62
3911.015	-23.62
3913.586	-26.62
3916.155	-25.62
3918.722	-24.62
3921.287	-19.62
3923.85	-24.62
3926.411	-23.62
3928.971	-22.62
3931.528	-23.62
3934.084	-26.62
3936.638	-24.62
3939.19	-28.62
3941.74	-22.62
3944.288	-27.62
3946.834	-24.62
3949.378	-24.62
3951.921	-18.62
3954.462	-21.62
3957	-22.62
3959.537	-23.62
3962.072	-21.62
3964.606	-24.62
3967.137	-22.62
3969.667	-25.62
3972.194	-22.62
3974.72	-24.62
3977.244	-23.62
3979.766	-23.62
3982.286	-17.62
3984.805	-25.62
3987.321	-26.62
3989.836	-28.62
3992.349	-22.62
3994.86	-23.62
3997.369	-21.62
3999.877	-21.62
4002.382	-24.62
4004.886	-23.62
4007.388	-24.62
4009.888	-23.62
4012.386	-23.62
4014.883	-22.62
4017.377	-20.62
4019.87	-22.62
4022.361	-22.62
4024.85	-24.62
4027.338	-26.62
4029.823	-26.62
4032.307	-24.62
4034.789	-24.62
4037.269	-22.62
4039.747	-20.62
4042.224	-20.62
4044.699	-28.62
4047.172	-27.62
4049.643	-27.62
4052.112	-23.62
4054.58	-21.62
4057.046	-18.62
4059.51	-25.62
4061.972	-23.62
4064.432	-23.62
4066.891	-22.62
4069.348	-25.62
4071.803	-26.62
4074.256	-25.62
4076.708	-20.62
4079.158	-22.62
4081.606	-20.62
4084.052	-22.62
4086.497	-21.62
4088.939	-21.62
4091.38	-24.62
4093.819	-24.62
4096.257	-23.62
4098.693	-29.62
4101.127	-23.62
4103.559	-27.62
4105.989	-10.62
4108.418	-8.62
4110.845	-6.62
4113.27	-11.62
4115.694	-7.62
4118.115	-9.62
4120.535	-25.62
4122.954	-23.62
4125.37	-24.62
4127.785	-20.62
4130.198	-19.62
4132.609	-24.62
4135.019	-24.62
4137.427	-28.62
4139.833	-22.62
4142.237	-25.62
