Data from 1CFU2_B_RamanShift_1.txt Node
Date: Thu Feb 02 14:15:55 IST 2017
User: aro
Spectrometer: QEPB0276
Trigger mode: 0
Integration Time (sec): 5.000000E0
Scans to average: 1
Electric dark correction enabled: true
Nonlinearity correction enabled: false
Boxcar width: 0
XAxis mode: Raman Shifts
Number of Pixels in Spectrum: 1044
>>>>>Begin Spectral Data<<<<<
160.701	-0.62
166.742	1.38
172.777	20.38
178.805	81.38
184.826	204.38
190.841	397.38
196.849	612.38
202.85	765.38
208.845	812.38
214.833	786.38
220.815	764.38
226.789	768.38
232.758	750.38
238.719	748.38
244.674	747.38
250.623	730.38
256.565	699.38
262.5	686.38
268.429	684.38
274.351	662.38
280.267	663.38
286.176	648.38
292.079	650.38
297.975	638.38
303.865	638.38
309.748	635.38
315.625	628.38
321.495	614.38
327.359	621.38
333.217	618.38
339.068	633.38
344.912	642.38
350.751	645.38
356.583	652.38
362.408	656.38
368.227	651.38
374.04	642.38
379.847	636.38
385.647	629.38
391.44	641.38
397.228	637.38
403.009	649.38
408.784	646.38
414.553	649.38
420.315	650.38
426.071	654.38
431.821	669.38
437.565	657.38
443.302	653.38
449.033	661.38
454.758	652.38
460.477	641.38
466.189	636.38
471.896	617.38
477.596	632.38
483.29	605.38
488.978	608.38
494.66	601.38
500.335	588.38
506.005	565.38
511.668	547.38
517.325	509.38
522.977	492.38
528.622	496.38
534.261	473.38
539.894	470.38
545.521	453.38
551.141	460.38
556.756	446.38
562.365	441.38
567.968	439.38
573.565	431.38
579.155	437.38
584.74	434.38
590.319	428.38
595.892	433.38
601.459	428.38
607.02	419.38
612.575	422.38
618.124	421.38
623.667	417.38
629.204	401.38
634.735	391.38
640.261	398.38
645.781	402.38
651.294	399.38
656.802	388.38
662.304	384.38
667.8	382.38
673.29	375.38
678.775	373.38
684.254	365.38
689.726	365.38
695.193	368.38
700.655	353.38
706.11	365.38
711.56	369.38
717.004	368.38
722.442	374.38
727.874	366.38
733.301	349.38
738.722	355.38
744.137	360.38
749.547	356.38
754.951	354.38
760.349	355.38
765.741	357.38
771.128	352.38
776.509	362.38
781.885	356.38
787.254	366.38
792.618	366.38
797.977	365.38
803.33	363.38
808.677	353.38
814.019	353.38
819.355	351.38
824.686	351.38
830.011	360.38
835.33	358.38
840.644	374.38
845.952	369.38
851.255	369.38
856.552	371.38
861.844	368.38
867.13	368.38
872.41	364.38
877.686	367.38
882.955	367.38
888.219	363.38
893.478	355.38
898.731	353.38
903.979	348.38
909.221	327.38
914.458	334.38
919.69	325.38
924.916	320.38
930.136	318.38
935.351	331.38
940.561	320.38
945.766	322.38
950.965	324.38
956.158	316.38
961.347	310.38
966.529	301.38
971.707	294.38
976.879	293.38
982.046	296.38
987.208	295.38
992.364	296.38
997.515	296.38
1002.66	300.38
1007.801	311.38
1012.936	311.38
1018.066	319.38
1023.19	316.38
1028.309	322.38
1033.423	332.38
1038.532	313.38
1043.636	324.38
1048.734	323.38
1053.827	321.38
1058.915	321.38
1063.998	334.38
1069.075	341.38
1074.147	355.38
1079.214	352.38
1084.276	350.38
1089.333	368.38
1094.385	351.38
1099.431	343.38
1104.472	334.38
1109.509	332.38
1114.54	319.38
1119.565	322.38
1124.586	326.38
1129.602	328.38
1134.613	314.38
1139.618	310.38
1144.619	282.38
1149.614	273.38
1154.604	272.38
1159.589	283.38
1164.57	278.38
1169.545	274.38
1174.515	264.38
1179.48	259.38
1184.44	249.38
1189.395	250.38
1194.345	242.38
1199.29	249.38
1204.23	247.38
1209.165	250.38
1214.095	256.38
1219.021	250.38
1223.941	248.38
1228.856	255.38
1233.766	255.38
1238.672	263.38
1243.572	272.38
1248.467	281.38
1253.358	278.38
1258.244	274.38
1263.124	278.38
1268	277.38
1272.871	266.38
1277.737	269.38
1282.599	266.38
1287.455	261.38
1292.306	269.38
1297.153	289.38
1301.995	300.38
1306.832	306.38
1311.664	294.38
1316.491	283.38
1321.314	276.38
1326.132	258.38
1330.945	252.38
1335.753	249.38
1340.556	233.38
1345.354	243.38
1350.148	235.38
1354.937	231.38
1359.722	222.38
1364.501	221.38
1369.276	224.38
1374.046	233.38
1378.811	228.38
1383.572	228.38
1388.327	221.38
1393.079	210.38
1397.825	206.38
1402.567	206.38
1407.304	204.38
1412.036	203.38
1416.764	211.38
1421.487	216.38
1426.205	218.38
1430.919	226.38
1435.628	249.38
1440.333	273.38
1445.032	293.38
1449.727	291.38
1454.418	296.38
1459.104	292.38
1463.785	277.38
1468.462	261.38
1473.134	237.38
1477.802	220.38
1482.465	195.38
1487.123	182.38
1491.777	172.38
1496.426	170.38
1501.071	168.38
1505.711	163.38
1510.347	164.38
1514.978	161.38
1519.604	165.38
1524.226	168.38
1528.844	158.38
1533.457	162.38
1538.065	156.38
1542.669	160.38
1547.269	157.38
1551.864	160.38
1556.454	158.38
1561.041	166.38
1565.622	155.38
1570.199	153.38
1574.772	152.38
1579.34	162.38
1583.904	161.38
1588.464	158.38
1593.019	166.38
1597.569	168.38
1602.115	162.38
1606.657	167.38
1611.195	172.38
1615.728	170.38
1620.256	175.38
1624.78	171.38
1629.3	171.38
1633.816	173.38
1638.327	174.38
1642.834	179.38
1647.336	182.38
1651.834	193.38
1656.328	195.38
1660.817	199.38
1665.302	198.38
1669.783	187.38
1674.259	182.38
1678.732	170.38
1683.199	160.38
1687.663	161.38
1692.122	149.38
1696.577	144.38
1701.028	142.38
1705.474	135.38
1709.917	130.38
1714.355	123.38
1718.788	116.38
1723.218	114.38
1727.643	117.38
1732.064	113.38
1736.481	112.38
1740.893	107.38
1745.301	113.38
1749.705	106.38
1754.105	103.38
1758.501	97.38
1762.893	91.38
1767.28	92.38
1771.663	92.38
1776.042	88.38
1780.417	90.38
1784.787	83.38
1789.154	81.38
1793.516	83.38
1797.874	87.38
1802.228	90.38
1806.578	92.38
1810.924	88.38
1815.266	86.38
1819.603	81.38
1823.937	76.38
1828.266	79.38
1832.591	74.38
1836.913	77.38
1841.23	72.38
1845.543	77.38
1849.852	74.38
1854.156	70.38
1858.457	67.38
1862.754	73.38
1867.047	69.38
1871.335	68.38
1875.62	75.38
1879.9	71.38
1884.177	69.38
1888.449	73.38
1892.718	68.38
1896.982	70.38
1901.243	71.38
1905.499	70.38
1909.752	70.38
1914	70.38
1918.245	72.38
1922.485	68.38
1926.722	66.38
1930.954	62.38
1935.183	65.38
1939.408	74.38
1943.628	74.38
1947.845	70.38
1952.058	69.38
1956.267	69.38
1960.472	71.38
1964.673	65.38
1968.87	62.38
1973.063	62.38
1977.252	61.38
1981.438	61.38
1985.619	62.38
1989.797	58.38
1993.971	62.38
1998.14	62.38
2002.306	60.38
2006.469	55.38
2010.627	58.38
2014.781	56.38
2018.932	59.38
2023.078	65.38
2027.221	60.38
2031.36	57.38
2035.495	56.38
2039.627	56.38
2043.754	51.38
2047.878	51.38
2051.998	53.38
2056.114	57.38
2060.226	55.38
2064.334	58.38
2068.439	52.38
2072.54	54.38
2076.637	56.38
2080.73	56.38
2084.82	57.38
2088.906	59.38
2092.988	58.38
2097.066	56.38
2101.14	55.38
2105.211	54.38
2109.278	49.38
2113.342	49.38
2117.401	54.38
2121.457	56.38
2125.509	52.38
2129.558	55.38
2133.602	51.38
2137.643	53.38
2141.681	50.38
2145.714	51.38
2149.744	50.38
2153.77	47.38
2157.793	48.38
2161.812	51.38
2165.827	49.38
2169.838	47.38
2173.846	46.38
2177.851	42.38
2181.851	46.38
2185.848	40.38
2189.841	42.38
2193.831	45.38
2197.817	40.38
2201.799	41.38
2205.778	43.38
2209.753	39.38
2213.725	40.38
2217.693	41.38
2221.657	37.38
2225.618	37.38
2229.575	37.38
2233.529	39.38
2237.479	39.38
2241.425	37.38
2245.368	37.38
2249.307	31.38
2253.243	28.38
2257.175	28.38
2261.104	29.38
2265.029	34.38
2268.95	33.38
2272.868	31.38
2276.783	27.38
2280.694	29.38
2284.601	26.38
2288.505	23.38
2292.405	24.38
2296.302	29.38
2300.195	32.38
2304.085	26.38
2307.971	23.38
2311.854	21.38
2315.734	20.38
2319.609	22.38
2323.482	21.38
2327.351	30.38
2331.216	21.38
2335.078	29.38
2338.937	23.38
2342.792	20.38
2346.643	14.38
2350.492	18.38
2354.336	15.38
2358.178	18.38
2362.015	20.38
2365.85	19.38
2369.681	16.38
2373.508	17.38
2377.333	21.38
2381.153	20.38
2384.971	16.38
2388.785	13.38
2392.595	14.38
2396.402	13.38
2400.206	16.38
2404.007	15.38
2407.804	13.38
2411.597	15.38
2415.388	13.38
2419.174	13.38
2422.958	10.38
2426.738	12.38
2430.515	13.38
2434.289	15.38
2438.059	20.38
2441.825	14.38
2445.589	13.38
2449.349	12.38
2453.106	9.38
2456.859	8.38
2460.61	11.38
2464.356	14.38
2468.1	11.38
2471.84	13.38
2475.577	13.38
2479.311	8.38
2483.041	7.38
2486.768	9.38
2490.492	7.38
2494.213	13.38
2497.93	10.38
2501.644	11.38
2505.355	11.38
2509.062	9.38
2512.766	7.38
2516.467	12.38
2520.165	7.38
2523.859	9.38
2527.551	7.38
2531.239	10.38
2534.923	7.38
2538.605	9.38
2542.283	6.38
2545.958	11.38
2549.63	9.38
2553.299	12.38
2556.964	8.38
2560.626	10.38
2564.285	3.38
2567.941	5.38
2571.594	7.38
2575.243	8.38
2578.89	12.38
2582.533	7.38
2586.173	6.38
2589.809	6.38
2593.443	9.38
2597.073	4.38
2600.701	6.38
2604.325	9.38
2607.946	8.38
2611.564	9.38
2615.178	10.38
2618.79	5.38
2622.398	7.38
2626.004	9.38
2629.606	8.38
2633.205	9.38
2636.801	6.38
2640.394	13.38
2643.983	7.38
2647.57	5.38
2651.153	5.38
2654.734	5.38
2658.311	6.38
2661.885	5.38
2665.456	7.38
2669.025	5.38
2672.589	4.38
2676.151	5.38
2679.71	5.38
2683.266	7.38
2686.819	2.38
2690.368	6.38
2693.915	5.38
2697.458	7.38
2700.999	2.38
2704.536	6.38
2708.071	5.38
2711.602	5.38
2715.13	4.38
2718.656	5.38
2722.178	5.38
2725.697	8.38
2729.214	7.38
2732.727	13.38
2736.237	12.38
2739.744	13.38
2743.249	7.38
2746.75	7.38
2750.248	5.38
2753.743	11.38
2757.236	6.38
2760.725	10.38
2764.211	11.38
2767.695	9.38
2771.175	7.38
2774.652	7.38
2778.127	3.38
2781.598	5.38
2785.067	7.38
2788.532	6.38
2791.995	14.38
2795.455	13.38
2798.911	6.38
2802.365	8.38
2805.816	8.38
2809.264	13.38
2812.709	10.38
2816.151	16.38
2819.59	16.38
2823.026	19.38
2826.46	26.38
2829.89	25.38
2833.318	23.38
2836.742	26.38
2840.164	35.38
2843.583	43.38
2846.999	52.38
2850.412	73.38
2853.822	74.38
2857.229	87.38
2860.634	80.38
2864.035	85.38
2867.434	84.38
2870.83	83.38
2874.223	89.38
2877.613	93.38
2881	102.38
2884.385	105.38
2887.766	111.38
2891.145	114.38
2894.521	105.38
2897.894	100.38
2901.264	97.38
2904.631	94.38
2907.996	100.38
2911.358	101.38
2914.717	98.38
2918.073	98.38
2921.426	92.38
2924.777	94.38
2928.124	94.38
2931.469	92.38
2934.811	92.38
2938.15	93.38
2941.487	86.38
2944.821	85.38
2948.152	79.38
2951.48	74.38
2954.805	68.38
2958.128	67.38
2961.447	67.38
2964.765	62.38
2968.079	59.38
2971.39	55.38
2974.699	56.38
2978.005	51.38
2981.308	46.38
2984.609	50.38
2987.907	44.38
2991.202	44.38
2994.494	42.38
2997.784	39.38
3001.07	40.38
3004.355	40.38
3007.636	36.38
3010.915	38.38
3014.191	34.38
3017.464	29.38
3020.734	31.38
3024.002	33.38
3027.267	26.38
3030.53	34.38
3033.789	40.38
3037.046	32.38
3040.301	31.38
3043.552	29.38
3046.801	27.38
3050.048	36.38
3053.291	34.38
3056.532	38.38
3059.771	41.38
3063.006	39.38
3066.239	44.38
3069.469	42.38
3072.697	40.38
3075.922	46.38
3079.144	44.38
3082.364	42.38
3085.581	44.38
3088.795	49.38
3092.007	48.38
3095.216	53.38
3098.423	50.38
3101.627	53.38
3104.828	53.38
3108.026	54.38
3111.222	55.38
3114.416	62.38
3117.607	56.38
3120.795	62.38
3123.98	60.38
3127.163	68.38
3130.344	62.38
3133.521	65.38
3136.696	64.38
3139.869	70.38
3143.039	80.38
3146.206	77.38
3149.371	75.38
3152.533	77.38
3155.693	71.38
3158.85	74.38
3162.005	74.38
3165.157	81.38
3168.306	79.38
3171.453	81.38
3174.597	76.38
3177.739	79.38
3180.878	75.38
3184.014	80.38
3187.149	76.38
3190.28	78.38
3193.409	80.38
3196.536	81.38
3199.659	83.38
3202.781	79.38
3205.9	75.38
3209.016	76.38
3212.13	80.38
3215.241	77.38
3218.35	83.38
3221.456	77.38
3224.56	78.38
3227.661	77.38
3230.76	78.38
3233.856	72.38
3236.95	72.38
3240.041	69.38
3243.13	76.38
3246.216	72.38
3249.3	74.38
3252.382	78.38
3255.46	70.38
3258.537	68.38
3261.611	67.38
3264.682	68.38
3267.751	70.38
3270.818	72.38
3273.882	66.38
3276.943	68.38
3280.002	64.38
3283.059	71.38
3286.113	62.38
3289.165	60.38
3292.214	58.38
3295.261	58.38
3298.306	69.38
3301.348	67.38
3304.387	59.38
3307.425	55.38
3310.459	55.38
3313.492	54.38
3316.521	50.38
3319.549	58.38
3322.574	52.38
3325.597	53.38
3328.617	58.38
3331.635	55.38
3334.65	54.38
3337.663	46.38
3340.674	45.38
3343.682	52.38
3346.688	50.38
3349.691	52.38
3352.692	54.38
3355.691	49.38
3358.687	49.38
3361.681	53.38
3364.673	49.38
3367.662	49.38
3370.649	50.38
3373.633	47.38
3376.615	48.38
3379.595	48.38
3382.572	41.38
3385.547	40.38
3388.52	42.38
3391.49	46.38
3394.458	36.38
3397.424	37.38
3400.387	37.38
3403.348	42.38
3406.307	37.38
3409.263	40.38
3412.217	40.38
3415.168	33.38
3418.118	32.38
3421.065	36.38
3424.009	35.38
3426.951	35.38
3429.891	39.38
3432.829	35.38
3435.764	35.38
3438.697	26.38
3441.628	22.38
3444.557	28.38
3447.483	27.38
3450.407	32.38
3453.328	28.38
3456.247	26.38
3459.164	22.38
3462.079	22.38
3464.991	20.38
3467.902	21.38
3470.809	20.38
3473.715	17.38
3476.618	20.38
3479.519	15.38
3482.418	14.38
3485.315	15.38
3488.209	9.38
3491.101	9.38
3493.99	12.38
3496.878	13.38
3499.763	12.38
3502.646	9.38
3505.527	6.38
3508.405	6.38
3511.281	1.38
3514.155	3.38
3517.027	8.38
3519.897	8.38
3522.764	6.38
3525.629	7.38
3528.492	1.38
3531.352	0.38
3534.211	-4.62
3537.067	-5.62
3539.921	-2.62
3542.773	-0.62
3545.622	-1.62
3548.469	-2.62
3551.315	-0.62
3554.157	-6.62
3556.998	-5.62
3559.837	-3.62
3562.673	-5.62
3565.507	-11.62
3568.339	-5.62
3571.169	-4.62
3573.996	-7.62
3576.822	-6.62
3579.645	-12.62
3582.466	-8.62
3585.285	-9.62
3588.101	-12.62
3590.916	-15.62
3593.728	-13.62
3596.538	-15.62
3599.346	-11.62
3602.152	-11.62
3604.956	-12.62
3607.757	-16.62
3610.556	-15.62
3613.354	-16.62
3616.149	-17.62
3618.942	-13.62
3621.732	-15.62
3624.521	-14.62
3627.307	-15.62
3630.092	-17.62
3632.874	-17.62
3635.654	-20.62
3638.432	-20.62
3641.208	-17.62
3643.982	-17.62
3646.753	-14.62
3649.523	-17.62
3652.29	-16.62
3655.055	-20.62
3657.818	-23.62
3660.579	-18.62
3663.338	-18.62
3666.095	-15.62
3668.849	-14.62
3671.602	-16.62
3674.352	-22.62
3677.101	-20.62
3679.847	-21.62
3682.591	-20.62
3685.333	-18.62
3688.073	-19.62
3690.811	-21.62
3693.547	-24.62
3696.281	-18.62
3699.013	-23.62
3701.742	-23.62
3704.47	-22.62
3707.195	-21.62
3709.919	-21.62
3712.64	-24.62
3715.359	-19.62
3718.076	-19.62
3720.792	-22.62
3723.505	-18.62
3726.216	-21.62
3728.925	-24.62
3731.632	-22.62
3734.336	-21.62
3737.039	-19.62
3739.74	-24.62
3742.439	-18.62
3745.136	-19.62
3747.83	-19.62
3750.523	-22.62
3753.213	-24.62
3755.902	-24.62
3758.589	-20.62
3761.273	-24.62
3763.956	-18.62
3766.636	-17.62
3769.315	-18.62
3771.991	-25.62
3774.665	-27.62
3777.338	-21.62
3780.008	-21.62
3782.677	-21.62
3785.343	-21.62
3788.007	-20.62
3790.67	-19.62
3793.33	-25.62
3795.989	-27.62
3798.645	-24.62
3801.299	-20.62
3803.952	-22.62
3806.602	-22.62
3809.251	-22.62
3811.897	-15.62
3814.542	-23.62
3817.184	-21.62
3819.825	-24.62
3822.463	-20.62
3825.1	-24.62
3827.735	-19.62
3830.367	-23.62
3832.998	-22.62
3835.627	-20.62
3838.253	-19.62
3840.878	-24.62
3843.501	-20.62
3846.122	-22.62
3848.741	-21.62
3851.358	-25.62
3853.973	-23.62
3856.586	-22.62
3859.197	-21.62
3861.806	-21.62
3864.414	-19.62
3867.019	-22.62
3869.622	-22.62
3872.224	-25.62
3874.823	-26.62
3877.421	-19.62
3880.016	-21.62
3882.61	-16.62
3885.202	-7.62
3887.792	-9.62
3890.38	-14.62
3892.966	-23.62
3895.55	-23.62
3898.132	-22.62
3900.713	-17.62
3903.291	-22.62
3905.868	-20.62
3908.442	-23.62
3911.015	-22.62
3913.586	-24.62
3916.155	-25.62
3918.722	-26.62
3921.287	-21.62
3923.85	-22.62
3926.411	-21.62
3928.971	-19.62
3931.528	-25.62
3934.084	-23.62
3936.638	-22.62
3939.19	-27.62
3941.74	-22.62
3944.288	-23.62
3946.834	-21.62
3949.378	-24.62
3951.921	-21.62
3954.462	-19.62
3957	-19.62
3959.537	-22.62
3962.072	-21.62
3964.606	-21.62
3967.137	-20.62
3969.667	-22.62
3972.194	-22.62
3974.72	-23.62
3977.244	-21.62
3979.766	-22.62
3982.286	-18.62
3984.805	-21.62
3987.321	-23.62
3989.836	-26.62
3992.349	-23.62
3994.86	-23.62
3997.369	-21.62
3999.877	-22.62
4002.382	-20.62
4004.886	-22.62
4007.388	-22.62
4009.888	-25.62
4012.386	-22.62
4014.883	-22.62
4017.377	-21.62
4019.87	-18.62
4022.361	-18.62
4024.85	-26.62
4027.338	-23.62
4029.823	-25.62
4032.307	-24.62
4034.789	-23.62
4037.269	-17.62
4039.747	-18.62
4042.224	-19.62
4044.699	-26.62
4047.172	-26.62
4049.643	-24.62
4052.112	-21.62
4054.58	-20.62
4057.046	-20.62
4059.51	-23.62
4061.972	-24.62
4064.432	-18.62
4066.891	-22.62
4069.348	-21.62
4071.803	-20.62
4074.256	-24.62
4076.708	-22.62
4079.158	-24.62
4081.606	-21.62
4084.052	-20.62
4086.497	-19.62
4088.939	-17.62
4091.38	-20.62
4093.819	-23.62
4096.257	-19.62
4098.693	-23.62
4101.127	-22.62
4103.559	-29.62
4105.989	-10.62
4108.418	-9.62
4110.845	-4.62
4113.27	-8.62
4115.694	-5.62
4118.115	-7.62
4120.535	-25.62
4122.954	-27.62
4125.37	-22.62
4127.785	-16.62
4130.198	-22.62
4132.609	-21.62
4135.019	-22.62
4137.427	-27.62
4139.833	-23.62
4142.237	-28.62
