Data from 1CFU3_D_RamanShift_1.txt Node
Date: Thu Feb 02 11:49:43 IST 2017
User: aro
Spectrometer: QEPB0276
Trigger mode: 0
Integration Time (sec): 5.000000E0
Scans to average: 1
Electric dark correction enabled: true
Nonlinearity correction enabled: false
Boxcar width: 0
XAxis mode: Raman Shifts
Number of Pixels in Spectrum: 1044
>>>>>Begin Spectral Data<<<<<
160.701	-6.5
166.742	3.5
172.777	24.5
178.805	88.5
184.826	220.5
190.841	430.5
196.849	668.5
202.85	823.5
208.845	862.5
214.833	876.5
220.815	847.5
226.789	843.5
232.758	821.5
238.719	815.5
244.674	788.5
250.623	794.5
256.565	766.5
262.5	751.5
268.429	729.5
274.351	711.5
280.267	705.5
286.176	701.5
292.079	686.5
297.975	683.5
303.865	685.5
309.748	675.5
315.625	667.5
321.495	662.5
327.359	663.5
333.217	674.5
339.068	680.5
344.912	671.5
350.751	683.5
356.583	691.5
362.408	677.5
368.227	680.5
374.04	671.5
379.847	663.5
385.647	673.5
391.44	674.5
397.228	678.5
403.009	670.5
408.784	680.5
414.553	690.5
420.315	684.5
426.071	692.5
431.821	695.5
437.565	709.5
443.302	690.5
449.033	703.5
454.758	692.5
460.477	688.5
466.189	678.5
471.896	653.5
477.596	666.5
483.29	655.5
488.978	648.5
494.66	638.5
500.335	626.5
506.005	608.5
511.668	580.5
517.325	562.5
522.977	543.5
528.622	536.5
534.261	516.5
539.894	493.5
545.521	494.5
551.141	491.5
556.756	490.5
562.365	469.5
567.968	471.5
573.565	462.5
579.155	475.5
584.74	466.5
590.319	468.5
595.892	464.5
601.459	470.5
607.02	461.5
612.575	453.5
618.124	449.5
623.667	439.5
629.204	441.5
634.735	433.5
640.261	430.5
645.781	434.5
651.294	439.5
656.802	426.5
662.304	418.5
667.8	408.5
673.29	402.5
678.775	405.5
684.254	410.5
689.726	409.5
695.193	402.5
700.655	396.5
706.11	396.5
711.56	391.5
717.004	397.5
722.442	397.5
727.874	392.5
733.301	396.5
738.722	377.5
744.137	379.5
749.547	383.5
754.951	386.5
760.349	386.5
765.741	390.5
771.128	385.5
776.509	389.5
781.885	394.5
787.254	388.5
792.618	392.5
797.977	388.5
803.33	392.5
808.677	392.5
814.019	394.5
819.355	381.5
824.686	382.5
830.011	392.5
835.33	395.5
840.644	399.5
845.952	397.5
851.255	403.5
856.552	401.5
861.844	398.5
867.13	396.5
872.41	410.5
877.686	407.5
882.955	407.5
888.219	396.5
893.478	386.5
898.731	381.5
903.979	377.5
909.221	370.5
914.458	367.5
919.69	359.5
924.916	354.5
930.136	361.5
935.351	346.5
940.561	348.5
945.766	349.5
950.965	353.5
956.158	344.5
961.347	340.5
966.529	335.5
971.707	322.5
976.879	312.5
982.046	317.5
987.208	323.5
992.364	325.5
997.515	321.5
1002.66	330.5
1007.801	330.5
1012.936	345.5
1018.066	351.5
1023.19	340.5
1028.309	350.5
1033.423	352.5
1038.532	352.5
1043.636	358.5
1048.734	351.5
1053.827	348.5
1058.915	356.5
1063.998	362.5
1069.075	376.5
1074.147	380.5
1079.214	382.5
1084.276	380.5
1089.333	391.5
1094.385	383.5
1099.431	381.5
1104.472	364.5
1109.509	359.5
1114.54	356.5
1119.565	345.5
1124.586	351.5
1129.602	357.5
1134.613	346.5
1139.618	337.5
1144.619	316.5
1149.614	306.5
1154.604	298.5
1159.589	304.5
1164.57	303.5
1169.545	292.5
1174.515	291.5
1179.48	280.5
1184.44	281.5
1189.395	272.5
1194.345	270.5
1199.29	265.5
1204.23	267.5
1209.165	269.5
1214.095	277.5
1219.021	270.5
1223.941	278.5
1228.856	280.5
1233.766	277.5
1238.672	285.5
1243.572	302.5
1248.467	299.5
1253.358	298.5
1258.244	305.5
1263.124	308.5
1268	307.5
1272.871	292.5
1277.737	295.5
1282.599	298.5
1287.455	288.5
1292.306	298.5
1297.153	315.5
1301.995	331.5
1306.832	338.5
1311.664	323.5
1316.491	315.5
1321.314	301.5
1326.132	291.5
1330.945	276.5
1335.753	259.5
1340.556	260.5
1345.354	261.5
1350.148	255.5
1354.937	247.5
1359.722	253.5
1364.501	250.5
1369.276	242.5
1374.046	241.5
1378.811	255.5
1383.572	248.5
1388.327	249.5
1393.079	233.5
1397.825	226.5
1402.567	226.5
1407.304	222.5
1412.036	227.5
1416.764	233.5
1421.487	233.5
1426.205	241.5
1430.919	249.5
1435.628	274.5
1440.333	297.5
1445.032	316.5
1449.727	329.5
1454.418	323.5
1459.104	318.5
1463.785	301.5
1468.462	282.5
1473.134	265.5
1477.802	241.5
1482.465	220.5
1487.123	203.5
1491.777	185.5
1496.426	180.5
1501.071	182.5
1505.711	180.5
1510.347	184.5
1514.978	182.5
1519.604	188.5
1524.226	182.5
1528.844	179.5
1533.457	173.5
1538.065	168.5
1542.669	175.5
1547.269	178.5
1551.864	176.5
1556.454	175.5
1561.041	178.5
1565.622	175.5
1570.199	169.5
1574.772	172.5
1579.34	173.5
1583.904	174.5
1588.464	179.5
1593.019	188.5
1597.569	184.5
1602.115	182.5
1606.657	180.5
1611.195	187.5
1615.728	183.5
1620.256	186.5
1624.78	191.5
1629.3	191.5
1633.816	190.5
1638.327	192.5
1642.834	198.5
1647.336	199.5
1651.834	214.5
1656.328	215.5
1660.817	225.5
1665.302	218.5
1669.783	204.5
1674.259	202.5
1678.732	191.5
1683.199	187.5
1687.663	172.5
1692.122	167.5
1696.577	161.5
1701.028	152.5
1705.474	150.5
1709.917	144.5
1714.355	145.5
1718.788	135.5
1723.218	129.5
1727.643	124.5
1732.064	120.5
1736.481	129.5
1740.893	122.5
1745.301	125.5
1749.705	117.5
1754.105	119.5
1758.501	110.5
1762.893	104.5
1767.28	103.5
1771.663	101.5
1776.042	97.5
1780.417	95.5
1784.787	92.5
1789.154	97.5
1793.516	97.5
1797.874	100.5
1802.228	96.5
1806.578	98.5
1810.924	91.5
1815.266	89.5
1819.603	85.5
1823.937	90.5
1828.266	84.5
1832.591	85.5
1836.913	84.5
1841.23	80.5
1845.543	83.5
1849.852	76.5
1854.156	79.5
1858.457	82.5
1862.754	77.5
1867.047	80.5
1871.335	76.5
1875.62	81.5
1879.9	74.5
1884.177	76.5
1888.449	75.5
1892.718	77.5
1896.982	77.5
1901.243	75.5
1905.499	81.5
1909.752	76.5
1914	80.5
1918.245	73.5
1922.485	76.5
1926.722	80.5
1930.954	78.5
1935.183	74.5
1939.408	79.5
1943.628	78.5
1947.845	74.5
1952.058	80.5
1956.267	78.5
1960.472	73.5
1964.673	74.5
1968.87	75.5
1973.063	70.5
1977.252	67.5
1981.438	66.5
1985.619	71.5
1989.797	65.5
1993.971	67.5
1998.14	71.5
2002.306	67.5
2006.469	63.5
2010.627	62.5
2014.781	64.5
2018.932	70.5
2023.078	67.5
2027.221	64.5
2031.36	63.5
2035.495	56.5
2039.627	62.5
2043.754	59.5
2047.878	62.5
2051.998	61.5
2056.114	61.5
2060.226	63.5
2064.334	62.5
2068.439	59.5
2072.54	64.5
2076.637	64.5
2080.73	64.5
2084.82	70.5
2088.906	70.5
2092.988	64.5
2097.066	62.5
2101.14	65.5
2105.211	61.5
2109.278	58.5
2113.342	64.5
2117.401	63.5
2121.457	66.5
2125.509	65.5
2129.558	61.5
2133.602	58.5
2137.643	61.5
2141.681	53.5
2145.714	59.5
2149.744	59.5
2153.77	59.5
2157.793	56.5
2161.812	58.5
2165.827	44.5
2169.838	48.5
2173.846	52.5
2177.851	50.5
2181.851	53.5
2185.848	49.5
2189.841	45.5
2193.831	44.5
2197.817	40.5
2201.799	44.5
2205.778	47.5
2209.753	43.5
2213.725	47.5
2217.693	47.5
2221.657	38.5
2225.618	40.5
2229.575	39.5
2233.529	43.5
2237.479	44.5
2241.425	43.5
2245.368	39.5
2249.307	37.5
2253.243	35.5
2257.175	34.5
2261.104	39.5
2265.029	41.5
2268.95	39.5
2272.868	32.5
2276.783	31.5
2280.694	34.5
2284.601	29.5
2288.505	31.5
2292.405	29.5
2296.302	33.5
2300.195	30.5
2304.085	33.5
2307.971	26.5
2311.854	22.5
2315.734	23.5
2319.609	24.5
2323.482	29.5
2327.351	28.5
2331.216	29.5
2335.078	29.5
2338.937	24.5
2342.792	23.5
2346.643	24.5
2350.492	19.5
2354.336	20.5
2358.178	22.5
2362.015	20.5
2365.85	18.5
2369.681	17.5
2373.508	17.5
2377.333	25.5
2381.153	18.5
2384.971	23.5
2388.785	17.5
2392.595	20.5
2396.402	14.5
2400.206	17.5
2404.007	15.5
2407.804	19.5
2411.597	19.5
2415.388	17.5
2419.174	16.5
2422.958	17.5
2426.738	13.5
2430.515	11.5
2434.289	16.5
2438.059	19.5
2441.825	15.5
2445.589	16.5
2449.349	13.5
2453.106	10.5
2456.859	10.5
2460.61	11.5
2464.356	17.5
2468.1	15.5
2471.84	14.5
2475.577	16.5
2479.311	9.5
2483.041	10.5
2486.768	10.5
2490.492	12.5
2494.213	9.5
2497.93	15.5
2501.644	14.5
2505.355	8.5
2509.062	11.5
2512.766	9.5
2516.467	12.5
2520.165	10.5
2523.859	10.5
2527.551	10.5
2531.239	17.5
2534.923	10.5
2538.605	7.5
2542.283	8.5
2545.958	10.5
2549.63	11.5
2553.299	11.5
2556.964	9.5
2560.626	12.5
2564.285	6.5
2567.941	3.5
2571.594	12.5
2575.243	12.5
2578.89	11.5
2582.533	11.5
2586.173	12.5
2589.809	6.5
2593.443	9.5
2597.073	10.5
2600.701	9.5
2604.325	12.5
2607.946	10.5
2611.564	7.5
2615.178	8.5
2618.79	5.5
2622.398	8.5
2626.004	9.5
2629.606	11.5
2633.205	13.5
2636.801	10.5
2640.394	9.5
2643.983	3.5
2647.57	9.5
2651.153	4.5
2654.734	3.5
2658.311	9.5
2661.885	8.5
2665.456	4.5
2669.025	3.5
2672.589	1.5
2676.151	4.5
2679.71	7.5
2683.266	10.5
2686.819	7.5
2690.368	6.5
2693.915	5.5
2697.458	8.5
2700.999	0.5
2704.536	8.5
2708.071	5.5
2711.602	10.5
2715.13	10.5
2718.656	4.5
2722.178	6.5
2725.697	4.5
2729.214	7.5
2732.727	14.5
2736.237	13.5
2739.744	11.5
2743.249	9.5
2746.75	9.5
2750.248	10.5
2753.743	6.5
2757.236	11.5
2760.725	11.5
2764.211	12.5
2767.695	11.5
2771.175	12.5
2774.652	4.5
2778.127	7.5
2781.598	10.5
2785.067	8.5
2788.532	5.5
2791.995	7.5
2795.455	9.5
2798.911	5.5
2802.365	6.5
2805.816	13.5
2809.264	13.5
2812.709	18.5
2816.151	14.5
2819.59	21.5
2823.026	14.5
2826.46	21.5
2829.89	25.5
2833.318	26.5
2836.742	33.5
2840.164	47.5
2843.583	51.5
2846.999	59.5
2850.412	74.5
2853.822	84.5
2857.229	89.5
2860.634	95.5
2864.035	95.5
2867.434	99.5
2870.83	99.5
2874.223	104.5
2877.613	106.5
2881	115.5
2884.385	129.5
2887.766	125.5
2891.145	123.5
2894.521	121.5
2897.894	114.5
2901.264	112.5
2904.631	116.5
2907.996	115.5
2911.358	110.5
2914.717	111.5
2918.073	112.5
2921.426	106.5
2924.777	105.5
2928.124	103.5
2931.469	104.5
2934.811	107.5
2938.15	101.5
2941.487	104.5
2944.821	95.5
2948.152	86.5
2951.48	85.5
2954.805	76.5
2958.128	75.5
2961.447	77.5
2964.765	72.5
2968.079	64.5
2971.39	59.5
2974.699	59.5
2978.005	54.5
2981.308	55.5
2984.609	52.5
2987.907	50.5
2991.202	46.5
2994.494	44.5
2997.784	42.5
3001.07	42.5
3004.355	44.5
3007.636	42.5
3010.915	43.5
3014.191	41.5
3017.464	38.5
3020.734	38.5
3024.002	38.5
3027.267	32.5
3030.53	38.5
3033.789	41.5
3037.046	38.5
3040.301	33.5
3043.552	33.5
3046.801	35.5
3050.048	37.5
3053.291	41.5
3056.532	40.5
3059.771	46.5
3063.006	45.5
3066.239	48.5
3069.469	52.5
3072.697	47.5
3075.922	53.5
3079.144	53.5
3082.364	58.5
3085.581	54.5
3088.795	56.5
3092.007	59.5
3095.216	62.5
3098.423	59.5
3101.627	64.5
3104.828	63.5
3108.026	65.5
3111.222	65.5
3114.416	68.5
3117.607	71.5
3120.795	73.5
3123.98	71.5
3127.163	77.5
3130.344	73.5
3133.521	80.5
3136.696	76.5
3139.869	85.5
3143.039	88.5
3146.206	91.5
3149.371	88.5
3152.533	83.5
3155.693	84.5
3158.85	87.5
3162.005	92.5
3165.157	96.5
3168.306	93.5
3171.453	92.5
3174.597	90.5
3177.739	87.5
3180.878	88.5
3184.014	90.5
3187.149	88.5
3190.28	95.5
3193.409	97.5
3196.536	97.5
3199.659	98.5
3202.781	87.5
3205.9	92.5
3209.016	97.5
3212.13	96.5
3215.241	98.5
3218.35	95.5
3221.456	94.5
3224.56	93.5
3227.661	87.5
3230.76	87.5
3233.856	89.5
3236.95	85.5
3240.041	90.5
3243.13	87.5
3246.216	85.5
3249.3	85.5
3252.382	83.5
3255.46	79.5
3258.537	82.5
3261.611	80.5
3264.682	82.5
3267.751	84.5
3270.818	81.5
3273.882	78.5
3276.943	82.5
3280.002	81.5
3283.059	81.5
3286.113	83.5
3289.165	79.5
3292.214	74.5
3295.261	71.5
3298.306	73.5
3301.348	70.5
3304.387	70.5
3307.425	72.5
3310.459	70.5
3313.492	69.5
3316.521	65.5
3319.549	67.5
3322.574	64.5
3325.597	62.5
3328.617	68.5
3331.635	63.5
3334.65	61.5
3337.663	56.5
3340.674	55.5
3343.682	58.5
3346.688	57.5
3349.691	62.5
3352.692	61.5
3355.691	60.5
3358.687	60.5
3361.681	64.5
3364.673	60.5
3367.662	58.5
3370.649	62.5
3373.633	57.5
3376.615	56.5
3379.595	49.5
3382.572	44.5
3385.547	53.5
3388.52	49.5
3391.49	53.5
3394.458	53.5
3397.424	47.5
3400.387	47.5
3403.348	45.5
3406.307	44.5
3409.263	42.5
3412.217	45.5
3415.168	41.5
3418.118	39.5
3421.065	44.5
3424.009	38.5
3426.951	40.5
3429.891	36.5
3432.829	39.5
3435.764	38.5
3438.697	34.5
3441.628	35.5
3444.557	33.5
3447.483	30.5
3450.407	33.5
3453.328	32.5
3456.247	26.5
3459.164	27.5
3462.079	25.5
3464.991	23.5
3467.902	23.5
3470.809	22.5
3473.715	23.5
3476.618	21.5
3479.519	17.5
3482.418	14.5
3485.315	13.5
3488.209	12.5
3491.101	12.5
3493.99	17.5
3496.878	16.5
3499.763	14.5
3502.646	11.5
3505.527	9.5
3508.405	10.5
3511.281	8.5
3514.155	8.5
3517.027	8.5
3519.897	9.5
3522.764	4.5
3525.629	3.5
3528.492	1.5
3531.352	0.5
3534.211	1.5
3537.067	-3.5
3539.921	1.5
3542.773	-1.5
3545.622	-3.5
3548.469	-8.5
3551.315	-9.5
3554.157	-8.5
3556.998	-6.5
3559.837	-3.5
3562.673	-2.5
3565.507	-10.5
3568.339	-10.5
3571.169	-10.5
3573.996	-12.5
3576.822	-8.5
3579.645	-9.5
3582.466	-8.5
3585.285	-9.5
3588.101	-8.5
3590.916	-15.5
3593.728	-18.5
3596.538	-16.5
3599.346	-12.5
3602.152	-13.5
3604.956	-14.5
3607.757	-15.5
3610.556	-16.5
3613.354	-20.5
3616.149	-21.5
3618.942	-16.5
3621.732	-20.5
3624.521	-18.5
3627.307	-15.5
3630.092	-21.5
3632.874	-23.5
3635.654	-19.5
3638.432	-20.5
3641.208	-18.5
3643.982	-14.5
3646.753	-16.5
3649.523	-17.5
3652.29	-20.5
3655.055	-22.5
3657.818	-25.5
3660.579	-19.5
3663.338	-20.5
3666.095	-15.5
3668.849	-19.5
3671.602	-19.5
3674.352	-25.5
3677.101	-21.5
3679.847	-23.5
3682.591	-21.5
3685.333	-19.5
3688.073	-21.5
3690.811	-26.5
3693.547	-28.5
3696.281	-27.5
3699.013	-26.5
3701.742	-24.5
3704.47	-20.5
3707.195	-22.5
3709.919	-22.5
3712.64	-25.5
3715.359	-25.5
3718.076	-21.5
3720.792	-28.5
3723.505	-21.5
3726.216	-19.5
3728.925	-24.5
3731.632	-26.5
3734.336	-26.5
3737.039	-25.5
3739.74	-27.5
3742.439	-23.5
3745.136	-22.5
3747.83	-22.5
3750.523	-23.5
3753.213	-25.5
3755.902	-25.5
3758.589	-26.5
3761.273	-25.5
3763.956	-22.5
3766.636	-21.5
3769.315	-24.5
3771.991	-25.5
3774.665	-29.5
3777.338	-23.5
3780.008	-24.5
3782.677	-24.5
3785.343	-21.5
3788.007	-21.5
3790.67	-25.5
3793.33	-28.5
3795.989	-27.5
3798.645	-27.5
3801.299	-24.5
3803.952	-23.5
3806.602	-25.5
3809.251	-26.5
3811.897	-26.5
3814.542	-31.5
3817.184	-27.5
3819.825	-26.5
3822.463	-22.5
3825.1	-23.5
3827.735	-22.5
3830.367	-26.5
3832.998	-26.5
3835.627	-27.5
3838.253	-25.5
3840.878	-28.5
3843.501	-20.5
3846.122	-24.5
3848.741	-23.5
3851.358	-26.5
3853.973	-28.5
3856.586	-25.5
3859.197	-27.5
3861.806	-24.5
3864.414	-24.5
3867.019	-23.5
3869.622	-25.5
3872.224	-30.5
3874.823	-28.5
3877.421	-24.5
3880.016	-19.5
3882.61	-19.5
3885.202	-12.5
3887.792	-14.5
3890.38	-23.5
3892.966	-25.5
3895.55	-25.5
3898.132	-23.5
3900.713	-20.5
3903.291	-23.5
3905.868	-26.5
3908.442	-28.5
3911.015	-29.5
3913.586	-29.5
3916.155	-28.5
3918.722	-26.5
3921.287	-19.5
3923.85	-26.5
3926.411	-25.5
3928.971	-22.5
3931.528	-27.5
3934.084	-26.5
3936.638	-24.5
3939.19	-25.5
3941.74	-25.5
3944.288	-25.5
3946.834	-27.5
3949.378	-29.5
3951.921	-24.5
3954.462	-24.5
3957	-23.5
3959.537	-25.5
3962.072	-25.5
3964.606	-25.5
3967.137	-27.5
3969.667	-28.5
3972.194	-24.5
3974.72	-26.5
3977.244	-23.5
3979.766	-21.5
3982.286	-22.5
3984.805	-23.5
3987.321	-28.5
3989.836	-29.5
3992.349	-23.5
3994.86	-23.5
3997.369	-25.5
3999.877	-25.5
4002.382	-26.5
4004.886	-25.5
4007.388	-23.5
4009.888	-23.5
4012.386	-24.5
4014.883	-22.5
4017.377	-25.5
4019.87	-26.5
4022.361	-23.5
4024.85	-31.5
4027.338	-25.5
4029.823	-25.5
4032.307	-27.5
4034.789	-22.5
4037.269	-28.5
4039.747	-27.5
4042.224	-28.5
4044.699	-28.5
4047.172	-26.5
4049.643	-24.5
4052.112	-21.5
4054.58	-23.5
4057.046	-25.5
4059.51	-29.5
4061.972	-30.5
4064.432	-23.5
4066.891	-25.5
4069.348	-22.5
4071.803	-25.5
4074.256	-25.5
4076.708	-26.5
4079.158	-26.5
4081.606	-25.5
4084.052	-23.5
4086.497	-23.5
4088.939	-23.5
4091.38	-24.5
4093.819	-26.5
4096.257	-25.5
4098.693	-28.5
4101.127	-26.5
4103.559	-29.5
4105.989	-13.5
4108.418	-13.5
4110.845	-4.5
4113.27	-9.5
4115.694	-7.5
4118.115	-10.5
4120.535	-27.5
4122.954	-28.5
4125.37	-25.5
4127.785	-20.5
4130.198	-22.5
4132.609	-27.5
4135.019	-25.5
4137.427	-30.5
4139.833	-25.5
4142.237	-28.5
