Data from Ecoli_water_time_RamanShift_01.txt Node
Date: Wed Mar 22 13:47:59 IST 2017
User: aro
Spectrometer: QEPB0276
Trigger mode: 0
Integration Time (sec): 5.000000E0
Scans to average: 3
Electric dark correction enabled: true
Nonlinearity correction enabled: false
Boxcar width: 0
XAxis mode: Raman Shifts
Number of Pixels in Spectrum: 1044
>>>>>Begin Spectral Data<<<<<
160.701	-36.25
166.742	-1.25
172.777	113.42
178.805	492.42
184.826	1395.08
190.841	2948.75
196.849	4712.08
202.85	5835.42
208.845	6101.08
214.833	5925.42
220.815	5752.75
226.789	5642.08
232.758	5557.08
238.719	5444.42
244.674	5267.75
250.623	5129.08
256.565	4950.08
262.5	4786.75
268.429	4627.08
274.351	4513.75
280.267	4399.08
286.176	4294.42
292.079	4188.75
297.975	4082.08
303.865	3969.75
309.748	3872.75
315.625	3790.42
321.495	3714.75
327.359	3657.42
333.217	3612.08
339.068	3569.42
344.912	3535.42
350.751	3508.75
356.583	3491.42
362.408	3471.75
368.227	3465.75
374.04	3440.08
379.847	3455.08
385.647	3447.42
391.44	3448.75
397.228	3475.75
403.009	3468.42
408.784	3482.08
414.553	3484.08
420.315	3509.42
426.071	3515.75
431.821	3522.75
437.565	3532.42
443.302	3554.08
449.033	3512.42
454.758	3472.75
460.477	3454.08
466.189	3419.42
471.896	3403.08
477.596	3383.42
483.29	3372.42
488.978	3365.42
494.66	3331.08
500.335	3288.42
506.005	3255.75
511.668	3216.08
517.325	3160.75
522.977	3137.08
528.622	3106.42
534.261	3078.08
539.894	3055.08
545.521	3049.42
551.141	3035.08
556.756	3030.08
562.365	3025.75
567.968	3001.08
573.565	3001.75
579.155	2984.75
584.74	2972.42
590.319	2948.08
595.892	2939.75
601.459	2918.75
607.02	2905.42
612.575	2880.42
618.124	2878.75
623.667	2843.08
629.204	2833.08
634.735	2810.42
640.261	2787.42
645.781	2784.75
651.294	2773.42
656.802	2771.75
662.304	2760.75
667.8	2760.08
673.29	2770.75
678.775	2755.75
684.254	2744.08
689.726	2741.42
695.193	2728.75
700.655	2719.08
706.11	2709.08
711.56	2698.08
717.004	2693.75
722.442	2676.42
727.874	2669.08
733.301	2655.08
738.722	2657.08
744.137	2651.42
749.547	2641.42
754.951	2666.42
760.349	2649.08
765.741	2661.75
771.128	2673.42
776.509	2669.42
781.885	2674.42
787.254	2656.42
792.618	2664.75
797.977	2654.42
803.33	2625.75
808.677	2635.42
814.019	2608.08
819.355	2606.08
824.686	2597.08
830.011	2587.75
835.33	2577.42
840.644	2600.42
845.952	2599.42
851.255	2616.75
856.552	2641.75
861.844	2663.08
867.13	2715.42
872.41	2860.75
877.686	3102.08
882.955	3276.08
888.219	3210.08
893.478	2937.75
898.731	2683.08
903.979	2531.75
909.221	2485.08
914.458	2450.08
919.69	2440.75
924.916	2433.08
930.136	2440.42
935.351	2438.08
940.561	2439.75
945.766	2436.08
950.965	2438.75
956.158	2410.08
961.347	2385.42
966.529	2364.42
971.707	2336.75
976.879	2317.08
982.046	2305.75
987.208	2297.42
992.364	2302.08
997.515	2330.08
1002.66	2344.75
1007.801	2379.75
1012.936	2418.75
1018.066	2457.42
1023.19	2477.42
1028.309	2501.75
1033.423	2498.08
1038.532	2529.75
1043.636	2589.75
1048.734	2618.42
1053.827	2615.75
1058.915	2547.75
1063.998	2474.75
1069.075	2468.75
1074.147	2489.08
1079.214	2523.42
1084.276	2579.75
1089.333	2635.08
1094.385	2657.42
1099.431	2628.42
1104.472	2559.75
1109.509	2525.08
1114.54	2482.42
1119.565	2442.08
1124.586	2406.08
1129.602	2389.42
1134.613	2372.08
1139.618	2364.42
1144.619	2348.42
1149.614	2343.42
1154.604	2359.42
1159.589	2374.08
1164.57	2375.75
1169.545	2375.08
1174.515	2391.75
1179.48	2378.75
1184.44	2355.42
1189.395	2354.75
1194.345	2333.75
1199.29	2322.75
1204.23	2343.08
1209.165	2342.42
1214.095	2367.08
1219.021	2390.42
1223.941	2414.08
1228.856	2431.75
1233.766	2436.08
1238.672	2446.08
1243.572	2445.08
1248.467	2432.75
1253.358	2403.42
1258.244	2383.75
1263.124	2370.75
1268	2363.08
1272.871	2360.42
1277.737	2373.08
1282.599	2376.75
1287.455	2385.08
1292.306	2392.42
1297.153	2373.75
1301.995	2381.08
1306.832	2376.08
1311.664	2392.75
1316.491	2380.08
1321.314	2375.75
1326.132	2344.08
1330.945	2318.08
1335.753	2266.08
1340.556	2227.08
1345.354	2192.42
1350.148	2149.42
1354.937	2151.75
1359.722	2175.75
1364.501	2195.42
1369.276	2257.42
1374.046	2299.42
1378.811	2328.08
1383.572	2349.08
1388.327	2343.75
1393.079	2315.08
1397.825	2291.08
1402.567	2264.75
1407.304	2228.42
1412.036	2222.08
1416.764	2216.75
1421.487	2222.08
1426.205	2230.42
1430.919	2250.08
1435.628	2266.75
1440.333	2314.75
1445.032	2357.08
1449.727	2424.75
1454.418	2506.08
1459.104	2556.08
1463.785	2528.08
1468.462	2431.75
1473.134	2317.42
1477.802	2254.75
1482.465	2252.08
1487.123	2247.42
1491.777	2251.75
1496.426	2255.08
1501.071	2252.42
1505.711	2262.08
1510.347	2267.08
1514.978	2305.75
1519.604	2312.08
1524.226	2329.42
1528.844	2326.42
1533.457	2335.75
1538.065	2339.42
1542.669	2319.08
1547.269	2301.42
1551.864	2296.42
1556.454	2303.42
1561.041	2297.08
1565.622	2310.42
1570.199	2327.75
1574.772	2342.42
1579.34	2373.75
1583.904	2380.75
1588.464	2404.42
1593.019	2404.42
1597.569	2417.75
1602.115	2418.08
1606.657	2410.75
1611.195	2407.75
1615.728	2412.42
1620.256	2419.42
1624.78	2419.75
1629.3	2453.75
1633.816	2483.08
1638.327	2501.75
1642.834	2518.42
1647.336	2534.42
1651.834	2555.08
1656.328	2555.75
1660.817	2556.42
1665.302	2546.75
1669.783	2503.08
1674.259	2451.42
1678.732	2405.08
1683.199	2323.75
1687.663	2241.08
1692.122	2172.08
1696.577	2129.75
1701.028	2123.75
1705.474	2140.42
1709.917	2143.75
1714.355	2125.42
1718.788	2098.75
1723.218	2054.42
1727.643	2025.08
1732.064	1987.42
1736.481	1957.75
1740.893	1917.75
1745.301	1881.75
1749.705	1844.42
1754.105	1802.75
1758.501	1775.75
1762.893	1746.75
1767.28	1717.42
1771.663	1709.75
1776.042	1691.75
1780.417	1693.42
1784.787	1712.42
1789.154	1745.08
1793.516	1758.42
1797.874	1789.75
1802.228	1811.42
1806.578	1808.75
1810.924	1807.42
1815.266	1794.75
1819.603	1775.75
1823.937	1754.08
1828.266	1719.08
1832.591	1701.75
1836.913	1697.08
1841.23	1680.75
1845.543	1677.75
1849.852	1667.42
1854.156	1671.08
1858.457	1667.42
1862.754	1668.42
1867.047	1683.42
1871.335	1679.75
1875.62	1685.42
1879.9	1685.08
1884.177	1684.42
1888.449	1672.08
1892.718	1674.08
1896.982	1639.75
1901.243	1646.42
1905.499	1645.75
1909.752	1630.08
1914	1641.08
1918.245	1646.75
1922.485	1661.08
1926.722	1669.42
1930.954	1683.08
1935.183	1694.42
1939.408	1702.08
1943.628	1710.08
1947.845	1714.08
1952.058	1711.42
1956.267	1700.08
1960.472	1697.42
1964.673	1679.75
1968.87	1670.75
1973.063	1645.75
1977.252	1635.08
1981.438	1632.75
1985.619	1631.08
1989.797	1621.08
1993.971	1624.75
1998.14	1613.42
2002.306	1617.42
2006.469	1632.08
2010.627	1627.42
2014.781	1619.75
2018.932	1615.08
2023.078	1606.08
2027.221	1594.75
2031.36	1589.75
2035.495	1566.42
2039.627	1553.75
2043.754	1540.08
2047.878	1536.75
2051.998	1541.08
2056.114	1536.75
2060.226	1543.75
2064.334	1553.08
2068.439	1545.75
2072.54	1559.08
2076.637	1565.08
2080.73	1567.08
2084.82	1569.42
2088.906	1578.42
2092.988	1572.08
2097.066	1568.75
2101.14	1558.75
2105.211	1552.08
2109.278	1542.08
2113.342	1537.08
2117.401	1531.42
2121.457	1541.42
2125.509	1528.75
2129.558	1522.08
2133.602	1521.75
2137.643	1521.75
2141.681	1522.75
2145.714	1522.75
2149.744	1509.42
2153.77	1495.08
2157.793	1490.08
2161.812	1473.75
2165.827	1460.08
2169.838	1443.75
2173.846	1427.75
2177.851	1413.42
2181.851	1382.75
2185.848	1382.42
2189.841	1360.42
2193.831	1357.42
2197.817	1355.42
2201.799	1352.42
2205.778	1348.42
2209.753	1350.75
2213.725	1350.08
2217.693	1345.42
2221.657	1350.42
2225.618	1345.75
2229.575	1345.75
2233.529	1341.42
2237.479	1324.42
2241.425	1317.75
2245.368	1305.08
2249.307	1290.08
2253.243	1277.75
2257.175	1261.42
2261.104	1251.42
2265.029	1238.75
2268.95	1238.08
2272.868	1222.08
2276.783	1210.75
2280.694	1207.42
2284.601	1188.42
2288.505	1182.42
2292.405	1183.42
2296.302	1172.08
2300.195	1162.75
2304.085	1140.08
2307.971	1127.75
2311.854	1117.75
2315.734	1098.08
2319.609	1087.75
2323.482	1064.42
2327.351	1061.08
2331.216	1048.75
2335.078	1046.75
2338.937	1038.75
2342.792	1034.75
2346.643	1036.42
2350.492	1032.75
2354.336	1039.75
2358.178	1037.75
2362.015	1040.42
2365.85	1039.75
2369.681	1042.42
2373.508	1041.08
2377.333	1046.42
2381.153	1037.08
2384.971	1038.42
2388.785	1028.08
2392.595	1019.42
2396.402	1014.08
2400.206	1009.75
2404.007	1009.42
2407.804	1002.08
2411.597	1009.75
2415.388	1000.75
2419.174	993.42
2422.958	1000.08
2426.738	993.42
2430.515	983.75
2434.289	988.42
2438.059	976.42
2441.825	964.08
2445.589	964.08
2449.349	962.75
2453.106	949.75
2456.859	946.75
2460.61	936.42
2464.356	921.75
2468.1	929.08
2471.84	919.08
2475.577	925.42
2479.311	928.08
2483.041	923.42
2486.768	925.75
2490.492	926.75
2494.213	920.08
2497.93	922.75
2501.644	926.75
2505.355	917.75
2509.062	912.08
2512.766	908.42
2516.467	910.08
2520.165	894.42
2523.859	901.75
2527.551	885.08
2531.239	888.08
2534.923	881.42
2538.605	882.75
2542.283	881.75
2545.958	875.08
2549.63	870.42
2553.299	877.75
2556.964	865.42
2560.626	860.75
2564.285	864.75
2567.941	852.42
2571.594	847.75
2575.243	847.75
2578.89	844.75
2582.533	842.42
2586.173	834.42
2589.809	820.42
2593.443	823.42
2597.073	820.75
2600.701	814.75
2604.325	810.42
2607.946	804.42
2611.564	814.42
2615.178	808.42
2618.79	811.42
2622.398	799.42
2626.004	800.42
2629.606	792.42
2633.205	787.75
2636.801	776.08
2640.394	771.75
2643.983	766.42
2647.57	755.75
2651.153	753.42
2654.734	741.08
2658.311	740.42
2661.885	729.08
2665.456	727.08
2669.025	721.42
2672.589	719.42
2676.151	712.08
2679.71	708.42
2683.266	699.08
2686.819	699.08
2690.368	683.75
2693.915	668.42
2697.458	664.75
2700.999	658.42
2704.536	653.75
2708.071	651.75
2711.602	643.08
2715.13	638.08
2718.656	640.75
2722.178	629.75
2725.697	632.75
2729.214	632.42
2732.727	635.75
2736.237	636.08
2739.744	651.42
2743.249	646.42
2746.75	645.75
2750.248	644.42
2753.743	654.42
2757.236	656.75
2760.725	650.08
2764.211	642.08
2767.695	647.08
2771.175	646.08
2774.652	641.08
2778.127	634.08
2781.598	628.42
2785.067	629.42
2788.532	627.08
2791.995	623.42
2795.455	625.42
2798.911	622.08
2802.365	625.75
2805.816	625.08
2809.264	619.75
2812.709	622.42
2816.151	624.08
2819.59	616.42
2823.026	617.42
2826.46	616.75
2829.89	622.75
2833.318	617.42
2836.742	622.08
2840.164	626.08
2843.583	633.08
2846.999	636.42
2850.412	643.08
2853.822	651.08
2857.229	655.08
2860.634	672.75
2864.035	679.08
2867.434	687.08
2870.83	702.42
2874.223	723.75
2877.613	739.08
2881	768.08
2884.385	786.75
2887.766	789.75
2891.145	787.75
2894.521	773.08
2897.894	786.75
2901.264	769.08
2904.631	758.08
2907.996	764.08
2911.358	752.08
2914.717	760.08
2918.073	755.08
2921.426	760.08
2924.777	775.75
2928.124	800.08
2931.469	844.08
2934.811	877.75
2938.15	907.75
2941.487	905.42
2944.821	881.08
2948.152	851.42
2951.48	825.75
2954.805	791.42
2958.128	775.75
2961.447	764.75
2964.765	753.42
2968.079	744.42
2971.39	751.75
2974.699	767.08
2978.005	778.08
2981.308	791.08
2984.609	803.75
2987.907	813.08
2991.202	811.08
2994.494	808.75
2997.784	804.42
3001.07	801.42
3004.355	797.75
3007.636	793.08
3010.915	796.75
3014.191	802.75
3017.464	799.75
3020.734	797.08
3024.002	791.08
3027.267	789.08
3030.53	793.08
3033.789	796.42
3037.046	806.08
3040.301	813.42
3043.552	816.08
3046.801	825.75
3050.048	841.75
3053.291	857.08
3056.532	877.08
3059.771	878.75
3063.006	905.08
3066.239	929.75
3069.469	946.75
3072.697	963.08
3075.922	985.75
3079.144	994.08
3082.364	1014.42
3085.581	1038.75
3088.795	1048.75
3092.007	1073.08
3095.216	1085.75
3098.423	1101.08
3101.627	1122.42
3104.828	1131.75
3108.026	1151.75
3111.222	1176.08
3114.416	1195.42
3117.607	1225.42
3120.795	1243.75
3123.98	1261.42
3127.163	1280.75
3130.344	1311.42
3133.521	1339.75
3136.696	1360.42
3139.869	1383.42
3143.039	1401.75
3146.206	1423.42
3149.371	1441.75
3152.533	1446.75
3155.693	1454.08
3158.85	1458.42
3162.005	1462.42
3165.157	1471.08
3168.306	1467.08
3171.453	1473.75
3174.597	1476.42
3177.739	1472.75
3180.878	1482.08
3184.014	1483.08
3187.149	1478.75
3190.28	1492.08
3193.409	1494.42
3196.536	1492.42
3199.659	1499.42
3202.781	1489.75
3205.9	1500.08
3209.016	1495.08
3212.13	1494.08
3215.241	1473.08
3218.35	1475.08
3221.456	1464.42
3224.56	1453.75
3227.661	1444.08
3230.76	1423.08
3233.856	1424.08
3236.95	1397.75
3240.041	1395.75
3243.13	1383.75
3246.216	1375.75
3249.3	1367.75
3252.382	1360.42
3255.46	1360.42
3258.537	1359.08
3261.611	1355.42
3264.682	1340.42
3267.751	1338.42
3270.818	1339.08
3273.882	1326.75
3276.943	1325.08
3280.002	1310.75
3283.059	1295.75
3286.113	1278.75
3289.165	1259.42
3292.214	1246.42
3295.261	1222.42
3298.306	1195.08
3301.348	1179.08
3304.387	1174.42
3307.425	1153.75
3310.459	1129.08
3313.492	1122.75
3316.521	1108.75
3319.549	1089.75
3322.574	1081.42
3325.597	1077.75
3328.617	1072.08
3331.635	1054.42
3334.65	1049.08
3337.663	1048.75
3340.674	1045.08
3343.682	1031.42
3346.688	1030.42
3349.691	1026.42
3352.692	1014.08
3355.691	1008.42
3358.687	1015.42
3361.681	982.08
3364.673	977.75
3367.662	964.08
3370.649	952.42
3373.633	939.08
3376.615	933.75
3379.595	928.75
3382.572	905.75
3385.547	890.08
3388.52	881.42
3391.49	867.08
3394.458	862.75
3397.424	849.08
3400.387	839.42
3403.348	828.42
3406.307	815.75
3409.263	811.75
3412.217	807.75
3415.168	800.75
3418.118	783.42
3421.065	786.75
3424.009	777.08
3426.951	755.42
3429.891	748.08
3432.829	733.75
3435.764	720.75
3438.697	705.08
3441.628	692.08
3444.557	672.75
3447.483	651.42
3450.407	638.42
3453.328	622.08
3456.247	601.42
3459.164	582.75
3462.079	574.42
3464.991	555.75
3467.902	538.75
3470.809	522.42
3473.715	507.75
3476.618	488.08
3479.519	480.42
3482.418	470.75
3485.315	448.42
3488.209	438.75
3491.101	433.42
3493.99	418.42
3496.878	405.75
3499.763	392.42
3502.646	386.08
3505.527	370.75
3508.405	359.75
3511.281	349.75
3514.155	331.42
3517.027	317.75
3519.897	307.75
3522.764	288.42
3525.629	275.08
3528.492	263.08
3531.352	249.75
3534.211	238.42
3537.067	216.75
3539.921	205.75
3542.773	193.75
3545.622	183.75
3548.469	173.75
3551.315	161.75
3554.157	152.08
3556.998	145.08
3559.837	142.75
3562.673	130.08
3565.507	126.42
3568.339	117.08
3571.169	110.75
3573.996	104.75
3576.822	92.42
3579.645	87.08
3582.466	80.75
3585.285	70.42
3588.101	69.08
3590.916	56.75
3593.728	50.42
3596.538	45.08
3599.346	37.08
3602.152	31.75
3604.956	28.08
3607.757	22.75
3610.556	19.75
3613.354	13.08
3616.149	10.75
3618.942	1.08
3621.732	0.42
3624.521	-3.25
3627.307	-13.25
3630.092	-12.92
3632.874	-15.25
3635.654	-20.25
3638.432	-20.58
3641.208	-26.25
3643.982	-28.25
3646.753	-32.25
3649.523	-35.92
3652.29	-39.58
3655.055	-44.25
3657.818	-46.25
3660.579	-48.58
3663.338	-49.58
3666.095	-56.25
3668.849	-57.25
3671.602	-63.58
3674.352	-64.92
3677.101	-65.25
3679.847	-68.25
3682.591	-75.92
3685.333	-75.92
3688.073	-77.58
3690.811	-80.92
3693.547	-81.92
3696.281	-86.58
3699.013	-83.25
3701.742	-88.92
3704.47	-88.25
3707.195	-87.58
3709.919	-89.92
3712.64	-91.92
3715.359	-93.25
3718.076	-91.92
3720.792	-95.58
3723.505	-97.58
3726.216	-98.58
3728.925	-100.58
3731.632	-103.92
3734.336	-103.58
3737.039	-104.25
3739.74	-104.92
3742.439	-107.92
3745.136	-106.25
3747.83	-107.58
3750.523	-107.58
3753.213	-109.92
3755.902	-111.25
3758.589	-108.92
3761.273	-109.25
3763.956	-108.25
3766.636	-108.58
3769.315	-107.92
3771.991	-111.92
3774.665	-112.92
3777.338	-114.25
3780.008	-113.58
3782.677	-117.58
3785.343	-118.58
3788.007	-117.25
3790.67	-116.92
3793.33	-118.92
3795.989	-119.25
3798.645	-118.92
3801.299	-119.58
3803.952	-118.58
3806.602	-116.58
3809.251	-117.58
3811.897	-119.25
3814.542	-122.58
3817.184	-121.92
3819.825	-122.25
3822.463	-123.92
3825.1	-122.92
3827.735	-122.92
3830.367	-124.92
3832.998	-122.92
3835.627	-126.92
3838.253	-127.58
3840.878	-127.58
3843.501	-124.92
3846.122	-124.25
3848.741	-126.25
3851.358	-125.25
3853.973	-125.58
3856.586	-126.25
3859.197	-126.58
3861.806	-126.58
3864.414	-126.92
3867.019	-128.58
3869.622	-128.58
3872.224	-128.25
3874.823	-126.92
3877.421	-127.92
3880.016	-125.25
3882.61	-123.58
3885.202	-120.92
3887.792	-123.58
3890.38	-126.58
3892.966	-128.92
3895.55	-129.58
3898.132	-129.92
3900.713	-129.92
3903.291	-130.25
3905.868	-130.25
3908.442	-131.58
3911.015	-133.25
3913.586	-132.25
3916.155	-132.58
3918.722	-136.25
3921.287	-134.25
3923.85	-134.25
3926.411	-136.58
3928.971	-135.25
3931.528	-135.25
3934.084	-135.58
3936.638	-135.25
3939.19	-134.25
3941.74	-132.25
3944.288	-133.58
3946.834	-134.25
3949.378	-135.25
3951.921	-132.92
3954.462	-132.25
3957	-133.25
3959.537	-133.25
3962.072	-135.92
3964.606	-137.25
3967.137	-135.58
3969.667	-137.58
3972.194	-137.92
3974.72	-136.25
3977.244	-134.92
3979.766	-135.58
3982.286	-134.25
3984.805	-132.25
3987.321	-130.58
3989.836	-130.92
3992.349	-131.25
3994.86	-131.58
3997.369	-132.92
3999.877	-131.25
4002.382	-132.58
4004.886	-132.92
4007.388	-133.58
4009.888	-133.58
4012.386	-131.58
4014.883	-132.58
4017.377	-134.25
4019.87	-134.58
4022.361	-134.25
4024.85	-133.58
4027.338	-133.58
4029.823	-131.92
4032.307	-133.58
4034.789	-132.25
4037.269	-132.58
4039.747	-133.92
4042.224	-134.58
4044.699	-134.25
4047.172	-134.92
4049.643	-137.25
4052.112	-136.92
4054.58	-136.58
4057.046	-135.25
4059.51	-136.25
4061.972	-136.58
4064.432	-133.58
4066.891	-134.25
4069.348	-132.25
4071.803	-133.25
4074.256	-135.25
4076.708	-134.58
4079.158	-134.25
4081.606	-133.58
4084.052	-133.92
4086.497	-135.92
4088.939	-137.58
4091.38	-133.92
4093.819	-133.92
4096.257	-140.25
4098.693	-140.92
4101.127	-143.58
4103.559	-143.92
4105.989	-91.25
4108.418	-88.25
4110.845	-86.92
4113.27	-76.92
4115.694	-68.58
4118.115	-58.92
4120.535	-134.25
4122.954	-135.92
4125.37	-134.25
4127.785	-135.92
4130.198	-134.92
4132.609	-135.25
4135.019	-141.92
4137.427	-141.25
4139.833	-142.58
4142.237	-142.58
