Data from Ecoli_water_time#5_File9_00.txt Node
Date: Wed Mar 22 14:15:19 IST 2017
User: aro
Spectrometer: QEPB0276
Trigger mode: 0
Integration Time (sec): 6.000000E1
Scans to average: 3
Electric dark correction enabled: true
Nonlinearity correction enabled: false
Boxcar width: 0
XAxis mode: Raman Shifts
Number of Pixels in Spectrum: 1044
>>>>>Begin Spectral Data<<<<<
160.701	-23.71
166.742	-0.04
172.777	75.29
178.805	315.96
184.826	873.96
190.841	1826.96
196.849	2883.29
202.85	3567.96
208.845	3718.62
214.833	3606.62
220.815	3512.62
226.789	3434.62
232.758	3379.96
238.719	3321.96
244.674	3223.29
250.623	3117.62
256.565	3024.96
262.5	2915.62
268.429	2829.29
274.351	2753.96
280.267	2678.62
286.176	2614.62
292.079	2553.62
297.975	2499.96
303.865	2430.96
309.748	2378.29
315.625	2332.62
321.495	2285.62
327.359	2255.62
333.217	2228.29
339.068	2217.96
344.912	2190.96
350.751	2168.29
356.583	2156.62
362.408	2145.62
368.227	2138.62
374.04	2144.29
379.847	2146.29
385.647	2156.62
391.44	2157.96
397.228	2159.62
403.009	2172.96
408.784	2178.62
414.553	2165.62
420.315	2170.62
426.071	2176.29
431.821	2171.62
437.565	2178.29
443.302	2170.29
449.033	2150.96
454.758	2151.96
460.477	2140.96
466.189	2134.29
471.896	2116.29
477.596	2111.62
483.29	2097.29
488.978	2098.96
494.66	2074.29
500.335	2062.96
506.005	2028.62
511.668	1983.62
517.325	1947.62
522.977	1928.29
528.622	1891.96
534.261	1886.96
539.894	1875.96
545.521	1852.96
551.141	1851.96
556.756	1844.62
562.365	1842.96
567.968	1843.62
573.565	1829.62
579.155	1814.62
584.74	1813.62
590.319	1803.96
595.892	1783.62
601.459	1780.62
607.02	1773.96
612.575	1756.96
618.124	1742.96
623.667	1729.62
629.204	1726.96
634.735	1704.29
640.261	1692.62
645.781	1684.96
651.294	1682.62
656.802	1688.29
662.304	1681.29
667.8	1678.29
673.29	1672.62
678.775	1671.96
684.254	1665.96
689.726	1662.62
695.193	1655.96
700.655	1648.96
706.11	1630.29
711.56	1629.62
717.004	1620.62
722.442	1626.62
727.874	1614.62
733.301	1603.96
738.722	1608.29
744.137	1598.29
749.547	1600.29
754.951	1612.96
760.349	1611.96
765.741	1612.96
771.128	1618.96
776.509	1613.29
781.885	1614.29
787.254	1612.96
792.618	1608.96
797.977	1600.62
803.33	1596.62
808.677	1583.62
814.019	1576.62
819.355	1571.62
824.686	1561.62
830.011	1547.62
835.33	1545.62
840.644	1554.96
845.952	1545.96
851.255	1555.62
856.552	1546.29
861.844	1555.29
867.13	1553.62
872.41	1553.96
877.686	1564.29
882.955	1573.29
888.219	1559.29
893.478	1522.96
898.731	1483.96
903.979	1456.96
909.221	1450.29
914.458	1447.96
919.69	1451.62
924.916	1454.96
930.136	1455.29
935.351	1450.62
940.561	1450.96
945.766	1448.62
950.965	1445.29
956.158	1452.62
961.347	1436.62
966.529	1413.62
971.707	1392.62
976.879	1382.96
982.046	1371.62
987.208	1371.96
992.364	1368.62
997.515	1387.96
1002.66	1402.96
1007.801	1413.29
1012.936	1428.96
1018.066	1445.62
1023.19	1444.62
1028.309	1456.96
1033.423	1459.62
1038.532	1454.29
1043.636	1449.29
1048.734	1441.96
1053.827	1427.96
1058.915	1416.62
1063.998	1404.96
1069.075	1398.96
1074.147	1413.62
1079.214	1423.96
1084.276	1435.62
1089.333	1450.62
1094.385	1463.62
1099.431	1465.96
1104.472	1464.62
1109.509	1456.29
1114.54	1452.96
1119.565	1425.62
1124.586	1416.62
1129.602	1405.62
1134.613	1395.96
1139.618	1387.96
1144.619	1386.29
1149.614	1398.29
1154.604	1405.62
1159.589	1412.96
1164.57	1415.62
1169.545	1426.29
1174.515	1416.29
1179.48	1417.29
1184.44	1416.29
1189.395	1401.29
1194.345	1404.96
1199.29	1397.29
1204.23	1405.29
1209.165	1411.96
1214.095	1428.96
1219.021	1435.62
1223.941	1443.96
1228.856	1455.96
1233.766	1463.96
1238.672	1455.29
1243.572	1467.62
1248.467	1445.96
1253.358	1448.96
1258.244	1423.29
1263.124	1411.62
1268	1389.29
1272.871	1371.29
1277.737	1371.29
1282.599	1376.29
1287.455	1388.29
1292.306	1391.62
1297.153	1392.62
1301.995	1407.62
1306.832	1416.29
1311.664	1415.62
1316.491	1413.62
1321.314	1414.96
1326.132	1397.29
1330.945	1380.29
1335.753	1357.29
1340.556	1331.29
1345.354	1313.96
1350.148	1299.96
1354.937	1291.62
1359.722	1299.96
1364.501	1323.62
1369.276	1338.29
1374.046	1355.96
1378.811	1372.62
1383.572	1375.29
1388.327	1379.29
1393.079	1358.62
1397.825	1339.96
1402.567	1312.96
1407.304	1302.29
1412.036	1290.96
1416.764	1287.62
1421.487	1271.62
1426.205	1289.29
1430.919	1308.96
1435.628	1303.62
1440.333	1330.29
1445.032	1344.29
1449.727	1350.96
1454.418	1360.29
1459.104	1363.96
1463.785	1345.62
1468.462	1323.29
1473.134	1319.62
1477.802	1295.29
1482.465	1296.29
1487.123	1293.62
1491.777	1304.62
1496.426	1310.29
1501.071	1327.96
1505.711	1336.62
1510.347	1346.96
1514.978	1373.96
1519.604	1386.96
1524.226	1394.29
1528.844	1398.62
1533.457	1400.96
1538.065	1397.62
1542.669	1387.96
1547.269	1383.62
1551.864	1384.29
1556.454	1393.62
1561.041	1395.29
1565.622	1396.96
1570.199	1399.62
1574.772	1405.62
1579.34	1423.29
1583.904	1443.29
1588.464	1454.62
1593.019	1456.96
1597.569	1462.29
1602.115	1469.29
1606.657	1470.62
1611.195	1465.96
1615.728	1466.96
1620.256	1471.96
1624.78	1486.62
1629.3	1498.62
1633.816	1515.96
1638.327	1529.62
1642.834	1538.29
1647.336	1560.62
1651.834	1565.62
1656.328	1568.29
1660.817	1562.29
1665.302	1548.96
1669.783	1523.29
1674.259	1501.96
1678.732	1474.96
1683.199	1431.29
1687.663	1379.96
1692.122	1340.62
1696.577	1317.96
1701.028	1312.96
1705.474	1308.29
1709.917	1311.96
1714.355	1292.62
1718.788	1275.62
1723.218	1259.29
1727.643	1242.96
1732.064	1215.62
1736.481	1195.62
1740.893	1168.96
1745.301	1153.96
1749.705	1120.29
1754.105	1109.62
1758.501	1084.96
1762.893	1073.96
1767.28	1064.29
1771.663	1052.29
1776.042	1045.96
1780.417	1050.62
1784.787	1060.62
1789.154	1081.96
1793.516	1088.29
1797.874	1100.96
1802.228	1111.62
1806.578	1111.29
1810.924	1100.62
1815.266	1099.62
1819.603	1079.29
1823.937	1067.29
1828.266	1050.29
1832.591	1041.96
1836.913	1036.29
1841.23	1032.29
1845.543	1022.29
1849.852	1020.29
1854.156	1016.62
1858.457	1028.96
1862.754	1033.96
1867.047	1025.29
1871.335	1024.96
1875.62	1034.62
1879.9	1037.62
1884.177	1038.62
1888.449	1027.96
1892.718	1025.29
1896.982	1020.96
1901.243	1015.62
1905.499	1018.96
1909.752	1021.96
1914	1020.96
1918.245	1027.29
1922.485	1024.29
1926.722	1035.96
1930.954	1037.96
1935.183	1049.62
1939.408	1055.96
1943.628	1063.29
1947.845	1061.62
1952.058	1053.62
1956.267	1052.62
1960.472	1051.29
1964.673	1030.29
1968.87	1022.96
1973.063	1010.96
1977.252	1006.96
1981.438	1005.96
1985.619	1002.62
1989.797	1001.29
1993.971	997.29
1998.14	1001.62
2002.306	999.29
2006.469	994.62
2010.627	992.96
2014.781	993.96
2018.932	999.96
2023.078	995.62
2027.221	980.62
2031.36	973.29
2035.495	967.62
2039.627	949.29
2043.754	951.62
2047.878	943.62
2051.998	950.96
2056.114	953.96
2060.226	954.29
2064.334	953.96
2068.439	955.62
2072.54	964.29
2076.637	973.62
2080.73	975.29
2084.82	969.62
2088.906	978.96
2092.988	984.29
2097.066	966.62
2101.14	970.96
2105.211	959.29
2109.278	948.29
2113.342	953.62
2117.401	941.96
2121.457	949.62
2125.509	955.96
2129.558	938.29
2133.602	938.29
2137.643	940.96
2141.681	940.62
2145.714	930.29
2149.744	938.29
2153.77	929.62
2157.793	915.96
2161.812	907.96
2165.827	904.29
2169.838	890.29
2173.846	878.29
2177.851	861.96
2181.851	858.96
2185.848	841.29
2189.841	839.96
2193.831	833.29
2197.817	829.29
2201.799	831.62
2205.778	827.62
2209.753	826.62
2213.725	827.62
2217.693	831.96
2221.657	829.96
2225.618	830.29
2229.575	832.29
2233.529	824.62
2237.479	819.29
2241.425	820.62
2245.368	804.29
2249.307	793.29
2253.243	783.62
2257.175	782.62
2261.104	773.29
2265.029	758.62
2268.95	761.29
2272.868	753.96
2276.783	745.29
2280.694	741.29
2284.601	736.29
2288.505	726.96
2292.405	725.29
2296.302	719.29
2300.195	712.62
2304.085	704.29
2307.971	688.62
2311.854	682.62
2315.734	674.29
2319.609	669.29
2323.482	661.62
2327.351	643.62
2331.216	647.96
2335.078	642.96
2338.937	641.62
2342.792	635.29
2346.643	635.96
2350.492	633.96
2354.336	639.29
2358.178	631.96
2362.015	638.29
2365.85	639.96
2369.681	635.96
2373.508	635.96
2377.333	635.29
2381.153	635.62
2384.971	627.62
2388.785	630.96
2392.595	624.29
2396.402	623.29
2400.206	615.96
2404.007	616.29
2407.804	615.96
2411.597	608.96
2415.388	611.62
2419.174	604.62
2422.958	604.62
2426.738	598.96
2430.515	599.29
2434.289	597.29
2438.059	595.62
2441.825	600.96
2445.589	588.96
2449.349	587.29
2453.106	584.96
2456.859	578.29
2460.61	572.96
2464.356	568.62
2468.1	569.29
2471.84	566.62
2475.577	558.62
2479.311	563.96
2483.041	561.96
2486.768	561.62
2490.492	564.96
2494.213	564.62
2497.93	563.96
2501.644	564.62
2505.355	557.29
2509.062	564.96
2512.766	562.29
2516.467	556.62
2520.165	556.96
2523.859	555.29
2527.551	549.29
2531.239	544.29
2534.923	542.62
2538.605	538.29
2542.283	536.29
2545.958	538.96
2549.63	533.29
2553.299	538.29
2556.964	530.29
2560.626	528.62
2564.285	523.96
2567.941	522.29
2571.594	524.96
2575.243	516.29
2578.89	516.96
2582.533	510.96
2586.173	509.96
2589.809	508.96
2593.443	501.29
2597.073	505.62
2600.701	500.96
2604.325	492.62
2607.946	493.96
2611.564	490.96
2615.178	497.62
2618.79	495.96
2622.398	491.96
2626.004	493.29
2629.606	482.96
2633.205	478.29
2636.801	477.62
2640.394	475.62
2643.983	465.29
2647.57	461.29
2651.153	461.62
2654.734	456.62
2658.311	445.29
2661.885	440.29
2665.456	443.96
2669.025	439.62
2672.589	431.96
2676.151	436.96
2679.71	434.62
2683.266	431.62
2686.819	419.62
2690.368	406.96
2693.915	406.62
2697.458	409.96
2700.999	395.96
2704.536	391.29
2708.071	390.62
2711.602	388.62
2715.13	382.29
2718.656	384.29
2722.178	381.96
2725.697	379.29
2729.214	381.96
2732.727	383.96
2736.237	384.96
2739.744	385.62
2743.249	388.62
2746.75	391.29
2750.248	387.96
2753.743	390.96
2757.236	392.96
2760.725	387.62
2764.211	387.62
2767.695	386.96
2771.175	387.62
2774.652	379.29
2778.127	378.96
2781.598	380.96
2785.067	373.62
2788.532	376.29
2791.995	368.96
2795.455	374.29
2798.911	373.62
2802.365	374.29
2805.816	376.62
2809.264	371.96
2812.709	368.96
2816.151	364.29
2819.59	364.96
2823.026	356.96
2826.46	367.62
2829.89	359.96
2833.318	353.29
2836.742	353.29
2840.164	359.62
2843.583	356.29
2846.999	361.29
2850.412	361.62
2853.822	363.62
2857.229	369.62
2860.634	369.29
2864.035	371.29
2867.434	371.62
2870.83	374.29
2874.223	377.96
2877.613	379.96
2881	377.62
2884.385	376.96
2887.766	372.62
2891.145	366.62
2894.521	369.96
2897.894	366.96
2901.264	369.62
2904.631	370.62
2907.996	367.96
2911.358	369.62
2914.717	367.29
2918.073	370.29
2921.426	370.62
2924.777	374.62
2928.124	376.29
2931.469	375.62
2934.811	386.62
2938.15	387.62
2941.487	387.29
2944.821	388.29
2948.152	389.29
2951.48	383.96
2954.805	382.29
2958.128	386.29
2961.447	386.96
2964.765	384.96
2968.079	392.29
2971.39	396.96
2974.699	394.96
2978.005	399.96
2981.308	413.29
2984.609	413.96
2987.907	421.29
2991.202	428.96
2994.494	432.29
2997.784	443.96
3001.07	454.29
3004.355	457.29
3007.636	468.29
3010.915	464.29
3014.191	466.62
3017.464	473.96
3020.734	474.96
3024.002	479.29
3027.267	482.62
3030.53	485.96
3033.789	487.96
3037.046	486.29
3040.301	506.29
3043.552	501.96
3046.801	510.29
3050.048	523.62
3053.291	529.29
3056.532	541.29
3059.771	555.96
3063.006	566.62
3066.239	577.29
3069.469	594.29
3072.697	600.29
3075.922	617.29
3079.144	629.62
3082.364	638.29
3085.581	651.96
3088.795	661.29
3092.007	668.62
3095.216	682.62
3098.423	691.96
3101.627	701.62
3104.828	715.62
3108.026	729.96
3111.222	742.62
3114.416	751.62
3117.607	764.29
3120.795	786.29
3123.98	801.29
3127.163	819.96
3130.344	824.96
3133.521	846.29
3136.696	866.96
3139.869	874.62
3143.039	895.62
3146.206	899.62
3149.371	911.29
3152.533	921.62
3155.693	912.96
3158.85	922.96
3162.005	931.29
3165.157	931.62
3168.306	936.96
3171.453	937.96
3174.597	936.96
3177.739	934.62
3180.878	947.29
3184.014	941.62
3187.149	940.96
3190.28	938.96
3193.409	952.62
3196.536	942.96
3199.659	950.62
3202.781	957.29
3205.9	956.62
3209.016	961.96
3212.13	948.29
3215.241	945.96
3218.35	941.96
3221.456	930.96
3224.56	929.62
3227.661	917.96
3230.76	905.29
3233.856	896.62
3236.95	891.62
3240.041	886.62
3243.13	875.62
3246.216	872.96
3249.3	873.29
3252.382	867.29
3255.46	865.29
3258.537	860.96
3261.611	859.29
3264.682	852.96
3267.751	853.62
3270.818	851.62
3273.882	852.62
3276.943	847.29
3280.002	841.62
3283.059	829.62
3286.113	821.62
3289.165	809.96
3292.214	799.62
3295.261	786.96
3298.306	776.29
3301.348	756.96
3304.387	743.62
3307.425	736.29
3310.459	729.96
3313.492	718.96
3316.521	711.29
3319.549	706.96
3322.574	688.96
3325.597	690.29
3328.617	683.29
3331.635	677.29
3334.65	671.62
3337.663	665.62
3340.674	662.96
3343.682	660.62
3346.688	666.96
3349.691	651.29
3352.692	657.62
3355.691	654.29
3358.687	640.96
3361.681	638.29
3364.673	630.29
3367.662	623.96
3370.649	616.62
3373.633	604.62
3376.615	603.96
3379.595	594.29
3382.572	588.62
3385.547	571.29
3388.52	567.29
3391.49	555.62
3394.458	551.96
3397.424	546.96
3400.387	540.96
3403.348	537.29
3406.307	529.96
3409.263	519.29
3412.217	516.29
3415.168	516.29
3418.118	504.62
3421.065	504.96
3424.009	495.62
3426.951	486.29
3429.891	483.96
3432.829	477.29
3435.764	464.62
3438.697	457.96
3441.628	446.96
3444.557	431.29
3447.483	421.62
3450.407	411.29
3453.328	398.96
3456.247	388.62
3459.164	370.62
3462.079	368.62
3464.991	353.96
3467.902	346.62
3470.809	333.96
3473.715	329.96
3476.618	317.29
3479.519	306.29
3482.418	302.96
3485.315	290.96
3488.209	284.62
3491.101	279.29
3493.99	266.96
3496.878	259.62
3499.763	258.96
3502.646	248.29
3505.527	245.29
3508.405	235.29
3511.281	222.62
3514.155	216.96
3517.027	208.62
3519.897	201.29
3522.764	189.96
3525.629	181.62
3528.492	171.96
3531.352	161.62
3534.211	151.96
3537.067	143.96
3539.921	138.29
3542.773	127.29
3545.622	122.96
3548.469	112.62
3551.315	107.96
3554.157	100.96
3556.998	93.62
3559.837	93.29
3562.673	87.29
3565.507	81.62
3568.339	83.62
3571.169	71.96
3573.996	70.62
3576.822	64.96
3579.645	60.62
3582.466	52.62
3585.285	46.29
3588.101	43.96
3590.916	37.62
3593.728	33.62
3596.538	30.96
3599.346	26.29
3602.152	22.62
3604.956	19.62
3607.757	13.29
3610.556	12.96
3613.354	9.96
3616.149	8.62
3618.942	4.62
3621.732	0.96
3624.521	0.62
3627.307	-5.71
3630.092	-6.71
3632.874	-9.71
3635.654	-12.04
3638.432	-12.71
3641.208	-16.71
3643.982	-17.04
3646.753	-24.04
3649.523	-22.04
3652.29	-27.04
3655.055	-28.38
3657.818	-30.71
3660.579	-29.71
3663.338	-33.38
3666.095	-35.04
3668.849	-40.04
3671.602	-38.04
3674.352	-42.04
3677.101	-46.04
3679.847	-47.04
3682.591	-49.71
3685.333	-51.71
3688.073	-51.71
3690.811	-54.38
3693.547	-52.04
3696.281	-57.04
3699.013	-54.38
3701.742	-54.71
3704.47	-57.04
3707.195	-56.04
3709.919	-57.38
3712.64	-59.04
3715.359	-59.71
3718.076	-59.71
3720.792	-61.04
3723.505	-62.38
3726.216	-64.04
3728.925	-65.04
3731.632	-69.38
3734.336	-66.04
3737.039	-69.38
3739.74	-67.71
3742.439	-71.38
3745.136	-71.38
3747.83	-72.38
3750.523	-71.71
3753.213	-68.71
3755.902	-71.38
3758.589	-73.38
3761.273	-69.71
3763.956	-70.71
3766.636	-69.38
3769.315	-73.38
3771.991	-73.04
3774.665	-72.71
3777.338	-75.04
3780.008	-74.38
3782.677	-75.71
3785.343	-76.38
3788.007	-75.38
3790.67	-77.04
3793.33	-76.71
3795.989	-78.38
3798.645	-78.71
3801.299	-79.38
3803.952	-77.71
3806.602	-77.71
3809.251	-76.38
3811.897	-78.71
3814.542	-81.38
3817.184	-78.38
3819.825	-80.04
3822.463	-80.04
3825.1	-79.38
3827.735	-78.38
3830.367	-81.04
3832.998	-79.04
3835.627	-80.71
3838.253	-83.71
3840.878	-82.71
3843.501	-81.71
3846.122	-80.71
3848.741	-82.71
3851.358	-81.04
3853.973	-82.04
3856.586	-81.71
3859.197	-82.71
3861.806	-82.04
3864.414	-82.38
3867.019	-83.71
3869.622	-84.38
3872.224	-83.04
3874.823	-84.71
3877.421	-82.38
3880.016	-80.38
3882.61	-79.38
3885.202	-77.38
3887.792	-78.71
3890.38	-82.38
3892.966	-81.38
3895.55	-83.04
3898.132	-84.04
3900.713	-83.38
3903.291	-82.38
3905.868	-83.04
3908.442	-84.71
3911.015	-86.38
3913.586	-86.04
3916.155	-86.38
3918.722	-89.04
3921.287	-85.71
3923.85	-87.71
3926.411	-89.71
3928.971	-88.04
3931.528	-87.38
3934.084	-88.04
3936.638	-86.71
3939.19	-85.71
3941.74	-84.71
3944.288	-86.38
3946.834	-86.71
3949.378	-85.71
3951.921	-87.38
3954.462	-86.71
3957	-86.38
3959.537	-83.04
3962.072	-87.71
3964.606	-87.38
3967.137	-88.04
3969.667	-88.38
3972.194	-88.04
3974.72	-88.38
3977.244	-86.38
3979.766	-87.38
3982.286	-86.38
3984.805	-85.04
3987.321	-84.38
3989.836	-87.38
3992.349	-85.71
3994.86	-85.38
3997.369	-87.71
3999.877	-86.38
4002.382	-86.04
4004.886	-87.38
4007.388	-85.71
4009.888	-86.04
4012.386	-85.71
4014.883	-85.71
4017.377	-87.71
4019.87	-87.71
4022.361	-86.38
4024.85	-86.38
4027.338	-87.04
4029.823	-84.04
4032.307	-86.71
4034.789	-87.04
4037.269	-86.04
4039.747	-87.71
4042.224	-87.38
4044.699	-86.38
4047.172	-85.71
4049.643	-89.38
4052.112	-88.71
4054.58	-87.38
4057.046	-88.04
4059.51	-85.38
4061.972	-89.04
4064.432	-86.38
4066.891	-84.71
4069.348	-88.04
4071.803	-88.38
4074.256	-86.04
4076.708	-86.04
4079.158	-87.04
4081.606	-87.04
4084.052	-86.71
4086.497	-85.38
4088.939	-87.71
4091.38	-87.04
4093.819	-89.04
4096.257	-90.38
4098.693	-92.04
4101.127	-92.38
4103.559	-92.38
4105.989	-58.38
4108.418	-55.71
4110.845	-55.04
4113.27	-50.71
4115.694	-44.04
4118.115	-37.04
4120.535	-87.38
4122.954	-89.71
4125.37	-87.71
4127.785	-86.38
4130.198	-87.04
4132.609	-89.04
4135.019	-91.71
4137.427	-91.71
4139.833	-91.71
4142.237	-92.38
