Data from 0_n=3_RamanShift_02.txt Node
Date: Mon Mar 19 12:02:29 IST 2018
User: aro
Spectrometer: QEPB0276
Trigger mode: 0
Integration Time (sec): 5.000000E0
Scans to average: 1
Electric dark correction enabled: true
Nonlinearity correction enabled: false
Boxcar width: 0
XAxis mode: Raman Shifts
Number of Pixels in Spectrum: 1044
>>>>>Begin Spectral Data<<<<<
160.701	-0.6
166.742	0.4
172.777	5.4
178.805	22.4
184.826	52.4
190.841	100.4
196.849	170.4
202.85	212.4
208.845	235.4
214.833	227.4
220.815	227.4
226.789	234.4
232.758	231.4
238.719	238.4
244.674	237.4
250.623	242.4
256.565	251.4
262.5	241.4
268.429	242.4
274.351	223.4
280.267	232.4
286.176	229.4
292.079	233.4
297.975	231.4
303.865	233.4
309.748	232.4
315.625	238.4
321.495	238.4
327.359	248.4
333.217	239.4
339.068	234.4
344.912	232.4
350.751	231.4
356.583	230.4
362.408	221.4
368.227	225.4
374.04	223.4
379.847	235.4
385.647	244.4
391.44	271.4
397.228	279.4
403.009	315.4
408.784	318.4
414.553	296.4
420.315	284.4
426.071	282.4
431.821	266.4
437.565	243.4
443.302	234.4
449.033	241.4
454.758	245.4
460.477	249.4
466.189	247.4
471.896	237.4
477.596	226.4
483.29	217.4
488.978	217.4
494.66	219.4
500.335	215.4
506.005	206.4
511.668	196.4
517.325	194.4
522.977	187.4
528.622	200.4
534.261	200.4
539.894	200.4
545.521	183.4
551.141	182.4
556.756	174.4
562.365	166.4
567.968	167.4
573.565	161.4
579.155	154.4
584.74	159.4
590.319	161.4
595.892	160.4
601.459	154.4
607.02	153.4
612.575	155.4
618.124	156.4
623.667	149.4
629.204	145.4
634.735	144.4
640.261	149.4
645.781	147.4
651.294	162.4
656.802	154.4
662.304	151.4
667.8	144.4
673.29	146.4
678.775	142.4
684.254	139.4
689.726	138.4
695.193	139.4
700.655	134.4
706.11	146.4
711.56	138.4
717.004	133.4
722.442	130.4
727.874	134.4
733.301	134.4
738.722	132.4
744.137	134.4
749.547	133.4
754.951	136.4
760.349	136.4
765.741	141.4
771.128	146.4
776.509	144.4
781.885	149.4
787.254	146.4
792.618	150.4
797.977	159.4
803.33	183.4
808.677	237.4
814.019	277.4
819.355	279.4
824.686	222.4
830.011	189.4
835.33	199.4
840.644	217.4
845.952	252.4
851.255	249.4
856.552	207.4
861.844	166.4
867.13	154.4
872.41	142.4
877.686	131.4
882.955	134.4
888.219	132.4
893.478	134.4
898.731	139.4
903.979	135.4
909.221	146.4
914.458	130.4
919.69	124.4
924.916	121.4
930.136	123.4
935.351	133.4
940.561	139.4
945.766	145.4
950.965	141.4
956.158	137.4
961.347	129.4
966.529	141.4
971.707	149.4
976.879	170.4
982.046	178.4
987.208	150.4
992.364	138.4
997.515	144.4
1002.66	156.4
1007.801	154.4
1012.936	144.4
1018.066	127.4
1023.19	130.4
1028.309	132.4
1033.423	144.4
1038.532	154.4
1043.636	166.4
1048.734	164.4
1053.827	143.4
1058.915	125.4
1063.998	118.4
1069.075	111.4
1074.147	108.4
1079.214	109.4
1084.276	115.4
1089.333	120.4
1094.385	112.4
1099.431	124.4
1104.472	125.4
1109.509	129.4
1114.54	117.4
1119.565	110.4
1124.586	112.4
1129.602	108.4
1134.613	112.4
1139.618	116.4
1144.619	135.4
1149.614	162.4
1154.604	199.4
1159.589	234.4
1164.57	216.4
1169.545	201.4
1174.515	184.4
1179.48	160.4
1184.44	134.4
1189.395	119.4
1194.345	111.4
1199.29	113.4
1204.23	114.4
1209.165	114.4
1214.095	120.4
1219.021	132.4
1223.941	149.4
1228.856	146.4
1233.766	130.4
1238.672	119.4
1243.572	111.4
1248.467	109.4
1253.358	107.4
1258.244	117.4
1263.124	110.4
1268	107.4
1272.871	103.4
1277.737	102.4
1282.599	100.4
1287.455	102.4
1292.306	114.4
1297.153	109.4
1301.995	117.4
1306.832	120.4
1311.664	122.4
1316.491	122.4
1321.314	132.4
1326.132	156.4
1330.945	201.4
1335.753	232.4
1340.556	202.4
1345.354	158.4
1350.148	137.4
1354.937	121.4
1359.722	135.4
1364.501	140.4
1369.276	141.4
1374.046	125.4
1378.811	111.4
1383.572	103.4
1388.327	99.4
1393.079	94.4
1397.825	89.4
1402.567	85.4
1407.304	87.4
1412.036	84.4
1416.764	80.4
1421.487	82.4
1426.205	83.4
1430.919	92.4
1435.628	115.4
1440.333	140.4
1445.032	159.4
1449.727	165.4
1454.418	194.4
1459.104	238.4
1463.785	262.4
1468.462	253.4
1473.134	196.4
1477.802	141.4
1482.465	106.4
1487.123	93.4
1491.777	90.4
1496.426	84.4
1501.071	82.4
1505.711	78.4
1510.347	82.4
1514.978	77.4
1519.604	75.4
1524.226	69.4
1528.844	72.4
1533.457	75.4
1538.065	75.4
1542.669	74.4
1547.269	71.4
1551.864	64.4
1556.454	70.4
1561.041	65.4
1565.622	65.4
1570.199	67.4
1574.772	63.4
1579.34	70.4
1583.904	71.4
1588.464	70.4
1593.019	68.4
1597.569	66.4
1602.115	69.4
1606.657	63.4
1611.195	67.4
1615.728	62.4
1620.256	63.4
1624.78	64.4
1629.3	68.4
1633.816	66.4
1638.327	67.4
1642.834	65.4
1647.336	66.4
1651.834	66.4
1656.328	64.4
1660.817	67.4
1665.302	69.4
1669.783	68.4
1674.259	66.4
1678.732	65.4
1683.199	62.4
1687.663	63.4
1692.122	60.4
1696.577	59.4
1701.028	56.4
1705.474	58.4
1709.917	58.4
1714.355	56.4
1718.788	58.4
1723.218	55.4
1727.643	53.4
1732.064	55.4
1736.481	51.4
1740.893	51.4
1745.301	53.4
1749.705	48.4
1754.105	47.4
1758.501	49.4
1762.893	46.4
1767.28	43.4
1771.663	47.4
1776.042	35.4
1780.417	47.4
1784.787	46.4
1789.154	45.4
1793.516	47.4
1797.874	48.4
1802.228	43.4
1806.578	44.4
1810.924	52.4
1815.266	46.4
1819.603	39.4
1823.937	49.4
1828.266	43.4
1832.591	42.4
1836.913	33.4
1841.23	39.4
1845.543	45.4
1849.852	37.4
1854.156	38.4
1858.457	43.4
1862.754	45.4
1867.047	40.4
1871.335	45.4
1875.62	39.4
1879.9	39.4
1884.177	42.4
1888.449	42.4
1892.718	42.4
1896.982	39.4
1901.243	41.4
1905.499	38.4
1909.752	35.4
1914	38.4
1918.245	37.4
1922.485	36.4
1926.722	43.4
1930.954	36.4
1935.183	40.4
1939.408	41.4
1943.628	44.4
1947.845	41.4
1952.058	38.4
1956.267	32.4
1960.472	31.4
1964.673	35.4
1968.87	31.4
1973.063	33.4
1977.252	36.4
1981.438	36.4
1985.619	36.4
1989.797	34.4
1993.971	28.4
1998.14	28.4
2002.306	28.4
2006.469	31.4
2010.627	33.4
2014.781	32.4
2018.932	31.4
2023.078	28.4
2027.221	29.4
2031.36	30.4
2035.495	28.4
2039.627	24.4
2043.754	28.4
2047.878	28.4
2051.998	33.4
2056.114	30.4
2060.226	30.4
2064.334	26.4
2068.439	24.4
2072.54	26.4
2076.637	24.4
2080.73	25.4
2084.82	26.4
2088.906	29.4
2092.988	27.4
2097.066	27.4
2101.14	27.4
2105.211	28.4
2109.278	26.4
2113.342	23.4
2117.401	23.4
2121.457	22.4
2125.509	24.4
2129.558	25.4
2133.602	27.4
2137.643	21.4
2141.681	25.4
2145.714	24.4
2149.744	25.4
2153.77	21.4
2157.793	23.4
2161.812	23.4
2165.827	19.4
2169.838	15.4
2173.846	21.4
2177.851	17.4
2181.851	20.4
2185.848	18.4
2189.841	21.4
2193.831	13.4
2197.817	18.4
2201.799	16.4
2205.778	17.4
2209.753	18.4
2213.725	14.4
2217.693	16.4
2221.657	17.4
2225.618	16.4
2229.575	18.4
2233.529	16.4
2237.479	13.4
2241.425	13.4
2245.368	16.4
2249.307	11.4
2253.243	15.4
2257.175	14.4
2261.104	19.4
2265.029	15.4
2268.95	11.4
2272.868	11.4
2276.783	11.4
2280.694	12.4
2284.601	9.4
2288.505	13.4
2292.405	15.4
2296.302	13.4
2300.195	14.4
2304.085	10.4
2307.971	12.4
2311.854	7.4
2315.734	7.4
2319.609	8.4
2323.482	12.4
2327.351	10.4
2331.216	16.4
2335.078	10.4
2338.937	10.4
2342.792	3.4
2346.643	8.4
2350.492	8.4
2354.336	6.4
2358.178	7.4
2362.015	5.4
2365.85	10.4
2369.681	11.4
2373.508	4.4
2377.333	9.4
2381.153	10.4
2384.971	9.4
2388.785	10.4
2392.595	11.4
2396.402	8.4
2400.206	8.4
2404.007	6.4
2407.804	6.4
2411.597	8.4
2415.388	8.4
2419.174	4.4
2422.958	9.4
2426.738	2.4
2430.515	8.4
2434.289	4.4
2438.059	7.4
2441.825	0.4
2445.589	7.4
2449.349	4.4
2453.106	9.4
2456.859	5.4
2460.61	10.4
2464.356	10.4
2468.1	3.4
2471.84	4.4
2475.577	2.4
2479.311	2.4
2483.041	10.4
2486.768	7.4
2490.492	4.4
2494.213	4.4
2497.93	6.4
2501.644	5.4
2505.355	4.4
2509.062	1.4
2512.766	5.4
2516.467	0.4
2520.165	5.4
2523.859	6.4
2527.551	4.4
2531.239	8.4
2534.923	5.4
2538.605	1.4
2542.283	-0.6
2545.958	5.4
2549.63	7.4
2553.299	7.4
2556.964	7.4
2560.626	6.4
2564.285	1.4
2567.941	3.4
2571.594	3.4
2575.243	4.4
2578.89	6.4
2582.533	5.4
2586.173	9.4
2589.809	4.4
2593.443	8.4
2597.073	5.4
2600.701	2.4
2604.325	5.4
2607.946	5.4
2611.564	11.4
2615.178	6.4
2618.79	6.4
2622.398	7.4
2626.004	6.4
2629.606	6.4
2633.205	5.4
2636.801	5.4
2640.394	4.4
2643.983	8.4
2647.57	9.4
2651.153	11.4
2654.734	9.4
2658.311	5.4
2661.885	6.4
2665.456	5.4
2669.025	4.4
2672.589	9.4
2676.151	9.4
2679.71	11.4
2683.266	9.4
2686.819	13.4
2690.368	6.4
2693.915	5.4
2697.458	4.4
2700.999	7.4
2704.536	7.4
2708.071	12.4
2711.602	11.4
2715.13	15.4
2718.656	11.4
2722.178	14.4
2725.697	11.4
2729.214	12.4
2732.727	13.4
2736.237	9.4
2739.744	7.4
2743.249	14.4
2746.75	11.4
2750.248	11.4
2753.743	10.4
2757.236	7.4
2760.725	7.4
2764.211	7.4
2767.695	4.4
2771.175	6.4
2774.652	9.4
2778.127	5.4
2781.598	6.4
2785.067	3.4
2788.532	4.4
2791.995	6.4
2795.455	8.4
2798.911	7.4
2802.365	9.4
2805.816	9.4
2809.264	7.4
2812.709	9.4
2816.151	10.4
2819.59	11.4
2823.026	16.4
2826.46	19.4
2829.89	24.4
2833.318	31.4
2836.742	38.4
2840.164	48.4
2843.583	57.4
2846.999	56.4
2850.412	60.4
2853.822	51.4
2857.229	54.4
2860.634	49.4
2864.035	60.4
2867.434	77.4
2870.83	85.4
2874.223	96.4
2877.613	106.4
2881	102.4
2884.385	107.4
2887.766	126.4
2891.145	121.4
2894.521	121.4
2897.894	112.4
2901.264	102.4
2904.631	102.4
2907.996	94.4
2911.358	94.4
2914.717	82.4
2918.073	77.4
2921.426	76.4
2924.777	67.4
2928.124	72.4
2931.469	72.4
2934.811	65.4
2938.15	61.4
2941.487	54.4
2944.821	47.4
2948.152	48.4
2951.48	50.4
2954.805	56.4
2958.128	63.4
2961.447	55.4
2964.765	55.4
2968.079	63.4
2971.39	46.4
2974.699	40.4
2978.005	31.4
2981.308	27.4
2984.609	21.4
2987.907	21.4
2991.202	20.4
2994.494	18.4
2997.784	21.4
3001.07	17.4
3004.355	12.4
3007.636	12.4
3010.915	8.4
3014.191	8.4
3017.464	8.4
3020.734	9.4
3024.002	4.4
3027.267	9.4
3030.53	5.4
3033.789	11.4
3037.046	5.4
3040.301	7.4
3043.552	3.4
3046.801	7.4
3050.048	3.4
3053.291	4.4
3056.532	4.4
3059.771	8.4
3063.006	5.4
3066.239	5.4
3069.469	5.4
3072.697	6.4
3075.922	3.4
3079.144	7.4
3082.364	4.4
3085.581	5.4
3088.795	10.4
3092.007	8.4
3095.216	8.4
3098.423	9.4
3101.627	8.4
3104.828	12.4
3108.026	7.4
3111.222	8.4
3114.416	10.4
3117.607	12.4
3120.795	6.4
3123.98	11.4
3127.163	9.4
3130.344	12.4
3133.521	9.4
3136.696	12.4
3139.869	15.4
3143.039	15.4
3146.206	9.4
3149.371	10.4
3152.533	9.4
3155.693	11.4
3158.85	12.4
3162.005	12.4
3165.157	13.4
3168.306	11.4
3171.453	12.4
3174.597	13.4
3177.739	10.4
3180.878	11.4
3184.014	10.4
3187.149	8.4
3190.28	10.4
3193.409	12.4
3196.536	15.4
3199.659	14.4
3202.781	13.4
3205.9	18.4
3209.016	12.4
3212.13	11.4
3215.241	12.4
3218.35	14.4
3221.456	12.4
3224.56	13.4
3227.661	14.4
3230.76	16.4
3233.856	10.4
3236.95	16.4
3240.041	6.4
3243.13	6.4
3246.216	10.4
3249.3	11.4
3252.382	12.4
3255.46	17.4
3258.537	8.4
3261.611	14.4
3264.682	10.4
3267.751	10.4
3270.818	5.4
3273.882	6.4
3276.943	10.4
3280.002	6.4
3283.059	9.4
3286.113	13.4
3289.165	7.4
3292.214	6.4
3295.261	8.4
3298.306	6.4
3301.348	2.4
3304.387	7.4
3307.425	4.4
3310.459	12.4
3313.492	7.4
3316.521	8.4
3319.549	7.4
3322.574	5.4
3325.597	3.4
3328.617	2.4
3331.635	4.4
3334.65	9.4
3337.663	5.4
3340.674	11.4
3343.682	6.4
3346.688	10.4
3349.691	6.4
3352.692	7.4
3355.691	1.4
3358.687	-0.6
3361.681	7.4
3364.673	8.4
3367.662	5.4
3370.649	11.4
3373.633	8.4
3376.615	9.4
3379.595	3.4
3382.572	5.4
3385.547	1.4
3388.52	2.4
3391.49	7.4
3394.458	7.4
3397.424	6.4
3400.387	6.4
3403.348	2.4
3406.307	1.4
3409.263	3.4
3412.217	1.4
3415.168	0.4
3418.118	1.4
3421.065	8.4
3424.009	5.4
3426.951	5.4
3429.891	5.4
3432.829	3.4
3435.764	4.4
3438.697	-1.6
3441.628	1.4
3444.557	1.4
3447.483	4.4
3450.407	4.4
3453.328	7.4
3456.247	1.4
3459.164	2.4
3462.079	3.4
3464.991	-0.6
3467.902	-1.6
3470.809	2.4
3473.715	1.4
3476.618	3.4
3479.519	-1.6
3482.418	3.4
3485.315	-0.6
3488.209	1.4
3491.101	-0.6
3493.99	-4.6
3496.878	-0.6
3499.763	1.4
3502.646	1.4
3505.527	0.4
3508.405	-0.6
3511.281	1.4
3514.155	-5.6
3517.027	0.4
3519.897	1.4
3522.764	-3.6
3525.629	-0.6
3528.492	-2.6
3531.352	-5.6
3534.211	-2.6
3537.067	-6.6
3539.921	-4.6
3542.773	-3.6
3545.622	0.4
3548.469	-4.6
3551.315	-1.6
3554.157	-8.6
3556.998	-0.6
3559.837	-7.6
3562.673	-6.6
3565.507	-3.6
3568.339	-1.6
3571.169	-1.6
3573.996	-2.6
3576.822	-5.6
3579.645	-3.6
3582.466	-6.6
3585.285	-3.6
3588.101	-7.6
3590.916	-4.6
3593.728	-3.6
3596.538	-1.6
3599.346	-3.6
3602.152	-2.6
3604.956	-4.6
3607.757	-5.6
3610.556	-5.6
3613.354	-2.6
3616.149	-6.6
3618.942	-4.6
3621.732	-2.6
3624.521	-0.6
3627.307	-3.6
3630.092	-3.6
3632.874	-5.6
3635.654	-3.6
3638.432	-6.6
3641.208	-6.6
3643.982	-3.6
3646.753	-1.6
3649.523	-5.6
3652.29	-3.6
3655.055	-7.6
3657.818	-5.6
3660.579	-4.6
3663.338	-4.6
3666.095	-6.6
3668.849	-4.6
3671.602	-3.6
3674.352	1.4
3677.101	-6.6
3679.847	-4.6
3682.591	-3.6
3685.333	-5.6
3688.073	-4.6
3690.811	-2.6
3693.547	-5.6
3696.281	-7.6
3699.013	-5.6
3701.742	-4.6
3704.47	-2.6
3707.195	-5.6
3709.919	-6.6
3712.64	-7.6
3715.359	-3.6
3718.076	-5.6
3720.792	-6.6
3723.505	-4.6
3726.216	-5.6
3728.925	-4.6
3731.632	-3.6
3734.336	-6.6
3737.039	-1.6
3739.74	-5.6
3742.439	-5.6
3745.136	-7.6
3747.83	-5.6
3750.523	-6.6
3753.213	-6.6
3755.902	-3.6
3758.589	-4.6
3761.273	-4.6
3763.956	-5.6
3766.636	-4.6
3769.315	-5.6
3771.991	-6.6
3774.665	-4.6
3777.338	-5.6
3780.008	-6.6
3782.677	-6.6
3785.343	-4.6
3788.007	-4.6
3790.67	-2.6
3793.33	-3.6
3795.989	-4.6
3798.645	-6.6
3801.299	-5.6
3803.952	-7.6
3806.602	-3.6
3809.251	-4.6
3811.897	-8.6
3814.542	-5.6
3817.184	-5.6
3819.825	-5.6
3822.463	-6.6
3825.1	-4.6
3827.735	-6.6
3830.367	-3.6
3832.998	-5.6
3835.627	-2.6
3838.253	-4.6
3840.878	-7.6
3843.501	-4.6
3846.122	-6.6
3848.741	-6.6
3851.358	-1.6
3853.973	0.4
3856.586	-3.6
3859.197	-3.6
3861.806	-9.6
3864.414	-8.6
3867.019	-4.6
3869.622	-9.6
3872.224	-8.6
3874.823	-3.6
3877.421	-2.6
3880.016	-4.6
3882.61	0.4
3885.202	1.4
3887.792	-2.6
3890.38	-4.6
3892.966	-5.6
3895.55	-8.6
3898.132	-3.6
3900.713	-1.6
3903.291	-3.6
3905.868	-3.6
3908.442	-4.6
3911.015	-7.6
3913.586	-5.6
3916.155	-5.6
3918.722	-4.6
3921.287	-4.6
3923.85	-4.6
3926.411	-5.6
3928.971	-2.6
3931.528	-2.6
3934.084	-6.6
3936.638	-4.6
3939.19	-6.6
3941.74	-5.6
3944.288	-9.6
3946.834	-4.6
3949.378	-2.6
3951.921	-3.6
3954.462	-5.6
3957	-6.6
3959.537	-5.6
3962.072	-5.6
3964.606	-6.6
3967.137	-5.6
3969.667	-4.6
3972.194	-10.6
3974.72	-2.6
3977.244	-5.6
3979.766	-3.6
3982.286	-6.6
3984.805	-5.6
3987.321	-6.6
3989.836	-7.6
3992.349	-7.6
3994.86	-3.6
3997.369	-10.6
3999.877	-4.6
4002.382	-5.6
4004.886	-5.6
4007.388	-5.6
4009.888	-6.6
4012.386	-4.6
4014.883	-5.6
4017.377	-5.6
4019.87	-6.6
4022.361	-6.6
4024.85	-7.6
4027.338	-8.6
4029.823	-6.6
4032.307	-4.6
4034.789	-3.6
4037.269	-4.6
4039.747	-1.6
4042.224	-1.6
4044.699	-7.6
4047.172	-8.6
4049.643	-9.6
4052.112	-7.6
4054.58	-6.6
4057.046	-3.6
4059.51	-2.6
4061.972	-1.6
4064.432	-3.6
4066.891	-6.6
4069.348	-7.6
4071.803	-8.6
4074.256	-10.6
4076.708	-4.6
4079.158	-3.6
4081.606	-6.6
4084.052	-0.6
4086.497	-4.6
4088.939	-3.6
4091.38	-2.6
4093.819	-8.6
4096.257	-7.6
4098.693	-7.6
4101.127	-9.6
4103.559	-3.6
4105.989	3.4
4108.418	2.4
4110.845	2.4
4113.27	1.4
4115.694	3.4
4118.115	-0.6
4120.535	-8.6
4122.954	-9.6
4125.37	-9.6
4127.785	-7.6
4130.198	-3.6
4132.609	-2.6
4135.019	-4.6
4137.427	-6.6
4139.833	-6.6
4142.237	-9.6
