Data from Bsub_water_DIL105_B_3_RamanShift_1.txt Node
Date: Wed Feb 22 13:23:36 IST 2017
User: aro
Spectrometer: QEPB0276
Trigger mode: 0
Integration Time (sec): 5.000000E0
Scans to average: 1
Electric dark correction enabled: true
Nonlinearity correction enabled: false
Boxcar width: 0
XAxis mode: Raman Shifts
Number of Pixels in Spectrum: 1044
>>>>>Begin Spectral Data<<<<<
160.701	-25.25
166.742	4.75
172.777	94.75
178.805	358.75
184.826	1037.75
190.841	2175.75
196.849	3487.75
202.85	4313.75
208.845	4514.75
214.833	4388.75
220.815	4216.75
226.789	4124.75
232.758	4031.75
238.719	3879.75
244.674	3746.75
250.623	3593.75
256.565	3442.75
262.5	3280.75
268.429	3139.75
274.351	3010.75
280.267	2919.75
286.176	2772.75
292.079	2717.75
297.975	2637.75
303.865	2527.75
309.748	2462.75
315.625	2402.75
321.495	2360.75
327.359	2317.75
333.217	2303.75
339.068	2298.75
344.912	2286.75
350.751	2283.75
356.583	2268.75
362.408	2264.75
368.227	2262.75
374.04	2273.75
379.847	2303.75
385.647	2306.75
391.44	2329.75
397.228	2329.75
403.009	2337.75
408.784	2354.75
414.553	2355.75
420.315	2369.75
426.071	2356.75
431.821	2362.75
437.565	2342.75
443.302	2364.75
449.033	2343.75
454.758	2349.75
460.477	2350.75
466.189	2349.75
471.896	2302.75
477.596	2300.75
483.29	2292.75
488.978	2290.75
494.66	2265.75
500.335	2250.75
506.005	2217.75
511.668	2182.75
517.325	2131.75
522.977	2109.75
528.622	2090.75
534.261	2061.75
539.894	2048.75
545.521	2035.75
551.141	2010.75
556.756	1997.75
562.365	1974.75
567.968	1999.75
573.565	1968.75
579.155	1953.75
584.74	1952.75
590.319	1937.75
595.892	1906.75
601.459	1912.75
607.02	1915.75
612.575	1901.75
618.124	1861.75
623.667	1857.75
629.204	1840.75
634.735	1832.75
640.261	1813.75
645.781	1800.75
651.294	1787.75
656.802	1777.75
662.304	1781.75
667.8	1777.75
673.29	1729.75
678.775	1764.75
684.254	1733.75
689.726	1742.75
695.193	1727.75
700.655	1719.75
706.11	1708.75
711.56	1717.75
717.004	1688.75
722.442	1679.75
727.874	1669.75
733.301	1657.75
738.722	1644.75
744.137	1656.75
749.547	1646.75
754.951	1638.75
760.349	1638.75
765.741	1623.75
771.128	1621.75
776.509	1624.75
781.885	1627.75
787.254	1630.75
792.618	1631.75
797.977	1604.75
803.33	1601.75
808.677	1586.75
814.019	1564.75
819.355	1554.75
824.686	1525.75
830.011	1533.75
835.33	1532.75
840.644	1526.75
845.952	1511.75
851.255	1513.75
856.552	1498.75
861.844	1493.75
867.13	1479.75
872.41	1472.75
877.686	1459.75
882.955	1435.75
888.219	1426.75
893.478	1408.75
898.731	1400.75
903.979	1362.75
909.221	1359.75
914.458	1327.75
919.69	1315.75
924.916	1322.75
930.136	1320.75
935.351	1327.75
940.561	1328.75
945.766	1320.75
950.965	1319.75
956.158	1303.75
961.347	1286.75
966.529	1252.75
971.707	1247.75
976.879	1234.75
982.046	1211.75
987.208	1215.75
992.364	1226.75
997.515	1222.75
1002.66	1220.75
1007.801	1242.75
1012.936	1248.75
1018.066	1268.75
1023.19	1261.75
1028.309	1274.75
1033.423	1270.75
1038.532	1252.75
1043.636	1232.75
1048.734	1234.75
1053.827	1221.75
1058.915	1212.75
1063.998	1194.75
1069.075	1186.75
1074.147	1209.75
1079.214	1215.75
1084.276	1206.75
1089.333	1219.75
1094.385	1228.75
1099.431	1244.75
1104.472	1240.75
1109.509	1212.75
1114.54	1218.75
1119.565	1197.75
1124.586	1174.75
1129.602	1164.75
1134.613	1151.75
1139.618	1150.75
1144.619	1156.75
1149.614	1164.75
1154.604	1167.75
1159.589	1183.75
1164.57	1168.75
1169.545	1177.75
1174.515	1187.75
1179.48	1183.75
1184.44	1166.75
1189.395	1156.75
1194.345	1162.75
1199.29	1145.75
1204.23	1153.75
1209.165	1156.75
1214.095	1179.75
1219.021	1170.75
1223.941	1177.75
1228.856	1172.75
1233.766	1197.75
1238.672	1186.75
1243.572	1207.75
1248.467	1185.75
1253.358	1176.75
1258.244	1153.75
1263.124	1137.75
1268	1127.75
1272.871	1111.75
1277.737	1101.75
1282.599	1097.75
1287.455	1110.75
1292.306	1121.75
1297.153	1104.75
1301.995	1116.75
1306.832	1137.75
1311.664	1130.75
1316.491	1132.75
1321.314	1139.75
1326.132	1112.75
1330.945	1103.75
1335.753	1078.75
1340.556	1063.75
1345.354	1033.75
1350.148	1013.75
1354.937	1013.75
1359.722	1021.75
1364.501	1030.75
1369.276	1043.75
1374.046	1070.75
1378.811	1073.75
1383.572	1065.75
1388.327	1067.75
1393.079	1068.75
1397.825	1031.75
1402.567	1025.75
1407.304	1009.75
1412.036	1008.75
1416.764	997.75
1421.487	1003.75
1426.205	979.75
1430.919	993.75
1435.628	1001.75
1440.333	1025.75
1445.032	1026.75
1449.727	1012.75
1454.418	1012.75
1459.104	1028.75
1463.785	999.75
1468.462	989.75
1473.134	989.75
1477.802	986.75
1482.465	973.75
1487.123	987.75
1491.777	990.75
1496.426	991.75
1501.071	1005.75
1505.711	1010.75
1510.347	1041.75
1514.978	1048.75
1519.604	1070.75
1524.226	1066.75
1528.844	1076.75
1533.457	1095.75
1538.065	1078.75
1542.669	1089.75
1547.269	1079.75
1551.864	1082.75
1556.454	1080.75
1561.041	1083.75
1565.622	1095.75
1570.199	1108.75
1574.772	1109.75
1579.34	1149.75
1583.904	1149.75
1588.464	1173.75
1593.019	1185.75
1597.569	1186.75
1602.115	1191.75
1606.657	1222.75
1611.195	1222.75
1615.728	1218.75
1620.256	1241.75
1624.78	1252.75
1629.3	1266.75
1633.816	1301.75
1638.327	1304.75
1642.834	1327.75
1647.336	1333.75
1651.834	1331.75
1656.328	1340.75
1660.817	1330.75
1665.302	1300.75
1669.783	1288.75
1674.259	1252.75
1678.732	1209.75
1683.199	1162.75
1687.663	1122.75
1692.122	1074.75
1696.577	1045.75
1701.028	1019.75
1705.474	1011.75
1709.917	999.75
1714.355	965.75
1718.788	949.75
1723.218	927.75
1727.643	905.75
1732.064	870.75
1736.481	856.75
1740.893	822.75
1745.301	795.75
1749.705	785.75
1754.105	752.75
1758.501	743.75
1762.893	731.75
1767.28	697.75
1771.663	700.75
1776.042	706.75
1780.417	695.75
1784.787	700.75
1789.154	702.75
1793.516	701.75
1797.874	712.75
1802.228	728.75
1806.578	716.75
1810.924	708.75
1815.266	701.75
1819.603	697.75
1823.937	679.75
1828.266	674.75
1832.591	660.75
1836.913	659.75
1841.23	636.75
1845.543	639.75
1849.852	632.75
1854.156	634.75
1858.457	631.75
1862.754	640.75
1867.047	627.75
1871.335	639.75
1875.62	624.75
1879.9	643.75
1884.177	637.75
1888.449	635.75
1892.718	631.75
1896.982	639.75
1901.243	633.75
1905.499	633.75
1909.752	627.75
1914	625.75
1918.245	639.75
1922.485	640.75
1926.722	642.75
1930.954	641.75
1935.183	647.75
1939.408	648.75
1943.628	656.75
1947.845	670.75
1952.058	652.75
1956.267	654.75
1960.472	657.75
1964.673	651.75
1968.87	636.75
1973.063	642.75
1977.252	629.75
1981.438	629.75
1985.619	615.75
1989.797	617.75
1993.971	617.75
1998.14	622.75
2002.306	619.75
2006.469	607.75
2010.627	621.75
2014.781	630.75
2018.932	627.75
2023.078	622.75
2027.221	629.75
2031.36	613.75
2035.495	607.75
2039.627	608.75
2043.754	597.75
2047.878	592.75
2051.998	600.75
2056.114	591.75
2060.226	603.75
2064.334	600.75
2068.439	608.75
2072.54	617.75
2076.637	612.75
2080.73	619.75
2084.82	620.75
2088.906	626.75
2092.988	619.75
2097.066	626.75
2101.14	623.75
2105.211	623.75
2109.278	614.75
2113.342	615.75
2117.401	606.75
2121.457	611.75
2125.509	609.75
2129.558	595.75
2133.602	599.75
2137.643	592.75
2141.681	588.75
2145.714	601.75
2149.744	584.75
2153.77	578.75
2157.793	580.75
2161.812	576.75
2165.827	568.75
2169.838	560.75
2173.846	546.75
2177.851	534.75
2181.851	528.75
2185.848	526.75
2189.841	519.75
2193.831	512.75
2197.817	506.75
2201.799	500.75
2205.778	507.75
2209.753	493.75
2213.725	499.75
2217.693	497.75
2221.657	502.75
2225.618	497.75
2229.575	483.75
2233.529	493.75
2237.479	475.75
2241.425	481.75
2245.368	477.75
2249.307	469.75
2253.243	468.75
2257.175	449.75
2261.104	462.75
2265.029	455.75
2268.95	443.75
2272.868	424.75
2276.783	418.75
2280.694	420.75
2284.601	422.75
2288.505	419.75
2292.405	395.75
2296.302	400.75
2300.195	400.75
2304.085	391.75
2307.971	389.75
2311.854	378.75
2315.734	372.75
2319.609	377.75
2323.482	355.75
2327.351	353.75
2331.216	351.75
2335.078	353.75
2338.937	346.75
2342.792	345.75
2346.643	344.75
2350.492	330.75
2354.336	336.75
2358.178	336.75
2362.015	338.75
2365.85	338.75
2369.681	340.75
2373.508	334.75
2377.333	334.75
2381.153	331.75
2384.971	337.75
2388.785	330.75
2392.595	326.75
2396.402	323.75
2400.206	313.75
2404.007	320.75
2407.804	315.75
2411.597	310.75
2415.388	311.75
2419.174	311.75
2422.958	305.75
2426.738	306.75
2430.515	306.75
2434.289	300.75
2438.059	299.75
2441.825	292.75
2445.589	298.75
2449.349	301.75
2453.106	287.75
2456.859	290.75
2460.61	287.75
2464.356	289.75
2468.1	284.75
2471.84	282.75
2475.577	272.75
2479.311	276.75
2483.041	270.75
2486.768	275.75
2490.492	269.75
2494.213	274.75
2497.93	273.75
2501.644	276.75
2505.355	270.75
2509.062	274.75
2512.766	282.75
2516.467	278.75
2520.165	264.75
2523.859	276.75
2527.551	261.75
2531.239	259.75
2534.923	251.75
2538.605	256.75
2542.283	263.75
2545.958	267.75
2549.63	261.75
2553.299	253.75
2556.964	264.75
2560.626	243.75
2564.285	245.75
2567.941	248.75
2571.594	247.75
2575.243	246.75
2578.89	242.75
2582.533	237.75
2586.173	246.75
2589.809	240.75
2593.443	238.75
2597.073	221.75
2600.701	228.75
2604.325	233.75
2607.946	220.75
2611.564	229.75
2615.178	225.75
2618.79	229.75
2622.398	228.75
2626.004	226.75
2629.606	221.75
2633.205	227.75
2636.801	222.75
2640.394	223.75
2643.983	214.75
2647.57	214.75
2651.153	210.75
2654.734	206.75
2658.311	206.75
2661.885	204.75
2665.456	199.75
2669.025	196.75
2672.589	193.75
2676.151	193.75
2679.71	187.75
2683.266	189.75
2686.819	192.75
2690.368	185.75
2693.915	185.75
2697.458	176.75
2700.999	179.75
2704.536	175.75
2708.071	168.75
2711.602	175.75
2715.13	165.75
2718.656	168.75
2722.178	163.75
2725.697	162.75
2729.214	159.75
2732.727	167.75
2736.237	161.75
2739.744	170.75
2743.249	173.75
2746.75	173.75
2750.248	174.75
2753.743	176.75
2757.236	175.75
2760.725	182.75
2764.211	176.75
2767.695	177.75
2771.175	185.75
2774.652	184.75
2778.127	181.75
2781.598	180.75
2785.067	173.75
2788.532	175.75
2791.995	174.75
2795.455	167.75
2798.911	174.75
2802.365	174.75
2805.816	180.75
2809.264	176.75
2812.709	184.75
2816.151	182.75
2819.59	173.75
2823.026	185.75
2826.46	182.75
2829.89	185.75
2833.318	173.75
2836.742	182.75
2840.164	186.75
2843.583	187.75
2846.999	187.75
2850.412	188.75
2853.822	195.75
2857.229	184.75
2860.634	196.75
2864.035	194.75
2867.434	203.75
2870.83	203.75
2874.223	196.75
2877.613	207.75
2881	214.75
2884.385	218.75
2887.766	218.75
2891.145	218.75
2894.521	221.75
2897.894	212.75
2901.264	213.75
2904.631	221.75
2907.996	225.75
2911.358	216.75
2914.717	233.75
2918.073	225.75
2921.426	235.75
2924.777	239.75
2928.124	241.75
2931.469	247.75
2934.811	249.75
2938.15	250.75
2941.487	262.75
2944.821	263.75
2948.152	276.75
2951.48	284.75
2954.805	277.75
2958.128	292.75
2961.447	286.75
2964.765	293.75
2968.079	308.75
2971.39	308.75
2974.699	317.75
2978.005	328.75
2981.308	335.75
2984.609	354.75
2987.907	358.75
2991.202	373.75
2994.494	383.75
2997.784	405.75
3001.07	404.75
3004.355	414.75
3007.636	427.75
3010.915	444.75
3014.191	440.75
3017.464	462.75
3020.734	459.75
3024.002	476.75
3027.267	483.75
3030.53	493.75
3033.789	515.75
3037.046	508.75
3040.301	515.75
3043.552	533.75
3046.801	547.75
3050.048	560.75
3053.291	576.75
3056.532	588.75
3059.771	610.75
3063.006	615.75
3066.239	648.75
3069.469	665.75
3072.697	692.75
3075.922	712.75
3079.144	714.75
3082.364	725.75
3085.581	759.75
3088.795	773.75
3092.007	801.75
3095.216	820.75
3098.423	830.75
3101.627	856.75
3104.828	876.75
3108.026	899.75
3111.222	907.75
3114.416	941.75
3117.607	953.75
3120.795	975.75
3123.98	978.75
3127.163	1023.75
3130.344	1034.75
3133.521	1066.75
3136.696	1075.75
3139.869	1117.75
3143.039	1119.75
3146.206	1139.75
3149.371	1151.75
3152.533	1175.75
3155.693	1170.75
3158.85	1188.75
3162.005	1188.75
3165.157	1186.75
3168.306	1199.75
3171.453	1215.75
3174.597	1207.75
3177.739	1213.75
3180.878	1221.75
3184.014	1240.75
3187.149	1235.75
3190.28	1226.75
3193.409	1233.75
3196.536	1250.75
3199.659	1229.75
3202.781	1250.75
3205.9	1243.75
3209.016	1245.75
3212.13	1244.75
3215.241	1230.75
3218.35	1231.75
3221.456	1230.75
3224.56	1226.75
3227.661	1209.75
3230.76	1190.75
3233.856	1185.75
3236.95	1174.75
3240.041	1164.75
3243.13	1152.75
3246.216	1179.75
3249.3	1146.75
3252.382	1165.75
3255.46	1149.75
3258.537	1151.75
3261.611	1147.75
3264.682	1112.75
3267.751	1121.75
3270.818	1132.75
3273.882	1117.75
3276.943	1119.75
3280.002	1110.75
3283.059	1096.75
3286.113	1084.75
3289.165	1066.75
3292.214	1075.75
3295.261	1031.75
3298.306	1007.75
3301.348	993.75
3304.387	973.75
3307.425	962.75
3310.459	959.75
3313.492	942.75
3316.521	935.75
3319.549	921.75
3322.574	907.75
3325.597	903.75
3328.617	886.75
3331.635	882.75
3334.65	869.75
3337.663	871.75
3340.674	864.75
3343.682	868.75
3346.688	854.75
3349.691	864.75
3352.692	857.75
3355.691	864.75
3358.687	850.75
3361.681	827.75
3364.673	827.75
3367.662	805.75
3370.649	791.75
3373.633	794.75
3376.615	774.75
3379.595	769.75
3382.572	764.75
3385.547	739.75
3388.52	742.75
3391.49	730.75
3394.458	724.75
3397.424	714.75
3400.387	697.75
3403.348	691.75
3406.307	674.75
3409.263	676.75
3412.217	665.75
3415.168	662.75
3418.118	658.75
3421.065	651.75
3424.009	636.75
3426.951	625.75
3429.891	628.75
3432.829	617.75
3435.764	599.75
3438.697	585.75
3441.628	568.75
3444.557	557.75
3447.483	542.75
3450.407	533.75
3453.328	516.75
3456.247	514.75
3459.164	492.75
3462.079	483.75
3464.991	466.75
3467.902	446.75
3470.809	438.75
3473.715	432.75
3476.618	410.75
3479.519	404.75
3482.418	395.75
3485.315	384.75
3488.209	375.75
3491.101	370.75
3493.99	345.75
3496.878	347.75
3499.763	333.75
3502.646	316.75
3505.527	311.75
3508.405	296.75
3511.281	296.75
3514.155	277.75
3517.027	276.75
3519.897	253.75
3522.764	242.75
3525.629	238.75
3528.492	225.75
3531.352	202.75
3534.211	206.75
3537.067	180.75
3539.921	177.75
3542.773	158.75
3545.622	156.75
3548.469	150.75
3551.315	134.75
3554.157	137.75
3556.998	124.75
3559.837	120.75
3562.673	110.75
3565.507	106.75
3568.339	100.75
3571.169	93.75
3573.996	89.75
3576.822	83.75
3579.645	72.75
3582.466	75.75
3585.285	64.75
3588.101	54.75
3590.916	49.75
3593.728	37.75
3596.538	36.75
3599.346	32.75
3602.152	28.75
3604.956	27.75
3607.757	18.75
3610.556	17.75
3613.354	12.75
3616.149	11.75
3618.942	6.75
3621.732	6.75
3624.521	-3.25
3627.307	-7.25
3630.092	-11.25
3632.874	-4.25
3635.654	-11.25
3638.432	-16.25
3641.208	-23.25
3643.982	-26.25
3646.753	-27.25
3649.523	-24.25
3652.29	-37.25
3655.055	-36.25
3657.818	-41.25
3660.579	-46.25
3663.338	-42.25
3666.095	-45.25
3668.849	-54.25
3671.602	-49.25
3674.352	-52.25
3677.101	-55.25
3679.847	-57.25
3682.591	-58.25
3685.333	-63.25
3688.073	-66.25
3690.811	-66.25
3693.547	-70.25
3696.281	-74.25
3699.013	-72.25
3701.742	-70.25
3704.47	-71.25
3707.195	-77.25
3709.919	-76.25
3712.64	-76.25
3715.359	-76.25
3718.076	-78.25
3720.792	-81.25
3723.505	-81.25
3726.216	-77.25
3728.925	-79.25
3731.632	-83.25
3734.336	-88.25
3737.039	-82.25
3739.74	-85.25
3742.439	-87.25
3745.136	-90.25
3747.83	-91.25
3750.523	-90.25
3753.213	-89.25
3755.902	-94.25
3758.589	-91.25
3761.273	-89.25
3763.956	-90.25
3766.636	-91.25
3769.315	-88.25
3771.991	-92.25
3774.665	-95.25
3777.338	-94.25
3780.008	-95.25
3782.677	-96.25
3785.343	-97.25
3788.007	-97.25
3790.67	-97.25
3793.33	-100.25
3795.989	-96.25
3798.645	-97.25
3801.299	-100.25
3803.952	-100.25
3806.602	-95.25
3809.251	-98.25
3811.897	-100.25
3814.542	-100.25
3817.184	-96.25
3819.825	-94.25
3822.463	-97.25
3825.1	-96.25
3827.735	-100.25
3830.367	-101.25
3832.998	-102.25
3835.627	-105.25
3838.253	-104.25
3840.878	-102.25
3843.501	-102.25
3846.122	-104.25
3848.741	-101.25
3851.358	-101.25
3853.973	-100.25
3856.586	-103.25
3859.197	-101.25
3861.806	-101.25
3864.414	-105.25
3867.019	-100.25
3869.622	-99.25
3872.224	-105.25
3874.823	-99.25
3877.421	-95.25
3880.016	-98.25
3882.61	-96.25
3885.202	-93.25
3887.792	-95.25
3890.38	-97.25
3892.966	-105.25
3895.55	-99.25
3898.132	-99.25
3900.713	-102.25
3903.291	-102.25
3905.868	-98.25
3908.442	-98.25
3911.015	-101.25
3913.586	-103.25
3916.155	-105.25
3918.722	-105.25
3921.287	-106.25
3923.85	-109.25
3926.411	-107.25
3928.971	-106.25
3931.528	-105.25
3934.084	-106.25
3936.638	-105.25
3939.19	-108.25
3941.74	-105.25
3944.288	-106.25
3946.834	-104.25
3949.378	-107.25
3951.921	-104.25
3954.462	-105.25
3957	-105.25
3959.537	-102.25
3962.072	-105.25
3964.606	-108.25
3967.137	-103.25
3969.667	-107.25
3972.194	-107.25
3974.72	-106.25
3977.244	-103.25
3979.766	-104.25
3982.286	-103.25
3984.805	-101.25
3987.321	-100.25
3989.836	-103.25
3992.349	-102.25
3994.86	-104.25
3997.369	-106.25
3999.877	-108.25
4002.382	-102.25
4004.886	-103.25
4007.388	-105.25
4009.888	-108.25
4012.386	-106.25
4014.883	-103.25
4017.377	-102.25
4019.87	-109.25
4022.361	-105.25
4024.85	-104.25
4027.338	-106.25
4029.823	-103.25
4032.307	-104.25
4034.789	-106.25
4037.269	-100.25
4039.747	-97.25
4042.224	-106.25
4044.699	-109.25
4047.172	-102.25
4049.643	-111.25
4052.112	-111.25
4054.58	-107.25
4057.046	-106.25
4059.51	-105.25
4061.972	-102.25
4064.432	-101.25
4066.891	-102.25
4069.348	-103.25
4071.803	-106.25
4074.256	-102.25
4076.708	-104.25
4079.158	-106.25
4081.606	-104.25
4084.052	-107.25
4086.497	-106.25
4088.939	-105.25
4091.38	-104.25
4093.819	-109.25
4096.257	-110.25
4098.693	-108.25
4101.127	-107.25
4103.559	-105.25
4105.989	-66.25
4108.418	-61.25
4110.845	-57.25
4113.27	-54.25
4115.694	-46.25
4118.115	-36.25
4120.535	-108.25
4122.954	-104.25
4125.37	-105.25
4127.785	-108.25
4130.198	-108.25
4132.609	-103.25
4135.019	-110.25
4137.427	-109.25
4139.833	-108.25
4142.237	-105.25
