Data from Bsub_water_DIL10_A_1_RamanShift_1.txt Node
Date: Wed Feb 22 13:05:11 IST 2017
User: aro
Spectrometer: QEPB0276
Trigger mode: 0
Integration Time (sec): 5.000000E0
Scans to average: 1
Electric dark correction enabled: true
Nonlinearity correction enabled: false
Boxcar width: 0
XAxis mode: Raman Shifts
Number of Pixels in Spectrum: 1044
>>>>>Begin Spectral Data<<<<<
160.701	-28.12
166.742	-1.12
172.777	99.88
178.805	388.88
184.826	1108.88
190.841	2288.88
196.849	3596.88
202.85	4510.88
208.845	4685.88
214.833	4542.88
220.815	4356.88
226.789	4216.88
232.758	4060.88
238.719	3935.88
244.674	3762.88
250.623	3578.88
256.565	3402.88
262.5	3227.88
268.429	3054.88
274.351	2928.88
280.267	2794.88
286.176	2656.88
292.079	2567.88
297.975	2470.88
303.865	2376.88
309.748	2320.88
315.625	2241.88
321.495	2175.88
327.359	2166.88
333.217	2130.88
339.068	2112.88
344.912	2096.88
350.751	2087.88
356.583	2087.88
362.408	2086.88
368.227	2090.88
374.04	2096.88
379.847	2091.88
385.647	2115.88
391.44	2129.88
397.228	2144.88
403.009	2145.88
408.784	2155.88
414.553	2170.88
420.315	2178.88
426.071	2171.88
431.821	2146.88
437.565	2158.88
443.302	2154.88
449.033	2154.88
454.758	2154.88
460.477	2130.88
466.189	2127.88
471.896	2093.88
477.596	2112.88
483.29	2062.88
488.978	2069.88
494.66	2056.88
500.335	2017.88
506.005	1978.88
511.668	1955.88
517.325	1901.88
522.977	1849.88
528.622	1839.88
534.261	1817.88
539.894	1800.88
545.521	1772.88
551.141	1746.88
556.756	1739.88
562.365	1708.88
567.968	1704.88
573.565	1684.88
579.155	1673.88
584.74	1663.88
590.319	1659.88
595.892	1634.88
601.459	1616.88
607.02	1621.88
612.575	1596.88
618.124	1564.88
623.667	1563.88
629.204	1527.88
634.735	1521.88
640.261	1492.88
645.781	1504.88
651.294	1494.88
656.802	1501.88
662.304	1482.88
667.8	1468.88
673.29	1470.88
678.775	1438.88
684.254	1454.88
689.726	1426.88
695.193	1407.88
700.655	1431.88
706.11	1409.88
711.56	1385.88
717.004	1373.88
722.442	1354.88
727.874	1351.88
733.301	1346.88
738.722	1335.88
744.137	1341.88
749.547	1313.88
754.951	1324.88
760.349	1300.88
765.741	1301.88
771.128	1297.88
776.509	1302.88
781.885	1285.88
787.254	1289.88
792.618	1290.88
797.977	1272.88
803.33	1262.88
808.677	1255.88
814.019	1218.88
819.355	1214.88
824.686	1204.88
830.011	1171.88
835.33	1169.88
840.644	1163.88
845.952	1154.88
851.255	1162.88
856.552	1140.88
861.844	1128.88
867.13	1118.88
872.41	1104.88
877.686	1085.88
882.955	1087.88
888.219	1064.88
893.478	1039.88
898.731	1012.88
903.979	993.88
909.221	987.88
914.458	963.88
919.69	957.88
924.916	948.88
930.136	932.88
935.351	932.88
940.561	939.88
945.766	928.88
950.965	913.88
956.158	906.88
961.347	886.88
966.529	882.88
971.707	860.88
976.879	852.88
982.046	837.88
987.208	828.88
992.364	837.88
997.515	835.88
1002.66	828.88
1007.801	845.88
1012.936	851.88
1018.066	860.88
1023.19	847.88
1028.309	846.88
1033.423	871.88
1038.532	850.88
1043.636	840.88
1048.734	838.88
1053.827	819.88
1058.915	803.88
1063.998	803.88
1069.075	800.88
1074.147	805.88
1079.214	787.88
1084.276	812.88
1089.333	829.88
1094.385	814.88
1099.431	818.88
1104.472	821.88
1109.509	839.88
1114.54	810.88
1119.565	797.88
1124.586	780.88
1129.602	783.88
1134.613	758.88
1139.618	768.88
1144.619	761.88
1149.614	769.88
1154.604	767.88
1159.589	773.88
1164.57	774.88
1169.545	780.88
1174.515	782.88
1179.48	773.88
1184.44	772.88
1189.395	759.88
1194.345	765.88
1199.29	763.88
1204.23	750.88
1209.165	769.88
1214.095	765.88
1219.021	768.88
1223.941	786.88
1228.856	776.88
1233.766	775.88
1238.672	777.88
1243.572	784.88
1248.467	777.88
1253.358	769.88
1258.244	755.88
1263.124	744.88
1268	733.88
1272.871	720.88
1277.737	718.88
1282.599	709.88
1287.455	706.88
1292.306	710.88
1297.153	724.88
1301.995	722.88
1306.832	727.88
1311.664	733.88
1316.491	725.88
1321.314	721.88
1326.132	715.88
1330.945	699.88
1335.753	669.88
1340.556	671.88
1345.354	660.88
1350.148	652.88
1354.937	652.88
1359.722	650.88
1364.501	656.88
1369.276	668.88
1374.046	660.88
1378.811	674.88
1383.572	684.88
1388.327	675.88
1393.079	668.88
1397.825	655.88
1402.567	649.88
1407.304	632.88
1412.036	628.88
1416.764	617.88
1421.487	619.88
1426.205	627.88
1430.919	616.88
1435.628	625.88
1440.333	644.88
1445.032	630.88
1449.727	647.88
1454.418	637.88
1459.104	638.88
1463.785	638.88
1468.462	632.88
1473.134	625.88
1477.802	625.88
1482.465	600.88
1487.123	617.88
1491.777	612.88
1496.426	626.88
1501.071	640.88
1505.711	642.88
1510.347	663.88
1514.978	661.88
1519.604	698.88
1524.226	698.88
1528.844	697.88
1533.457	688.88
1538.065	696.88
1542.669	710.88
1547.269	709.88
1551.864	705.88
1556.454	715.88
1561.041	722.88
1565.622	725.88
1570.199	756.88
1574.772	764.88
1579.34	789.88
1583.904	807.88
1588.464	824.88
1593.019	839.88
1597.569	856.88
1602.115	856.88
1606.657	886.88
1611.195	901.88
1615.728	924.88
1620.256	934.88
1624.78	959.88
1629.3	955.88
1633.816	993.88
1638.327	1018.88
1642.834	1036.88
1647.336	1042.88
1651.834	1024.88
1656.328	1031.88
1660.817	1015.88
1665.302	1005.88
1669.783	977.88
1674.259	934.88
1678.732	903.88
1683.199	867.88
1687.663	807.88
1692.122	774.88
1696.577	726.88
1701.028	702.88
1705.474	690.88
1709.917	666.88
1714.355	640.88
1718.788	621.88
1723.218	580.88
1727.643	568.88
1732.064	546.88
1736.481	528.88
1740.893	501.88
1745.301	472.88
1749.705	455.88
1754.105	437.88
1758.501	409.88
1762.893	403.88
1767.28	394.88
1771.663	389.88
1776.042	376.88
1780.417	362.88
1784.787	366.88
1789.154	382.88
1793.516	375.88
1797.874	375.88
1802.228	381.88
1806.578	365.88
1810.924	369.88
1815.266	367.88
1819.603	360.88
1823.937	349.88
1828.266	335.88
1832.591	328.88
1836.913	332.88
1841.23	318.88
1845.543	321.88
1849.852	308.88
1854.156	314.88
1858.457	319.88
1862.754	320.88
1867.047	313.88
1871.335	320.88
1875.62	325.88
1879.9	318.88
1884.177	314.88
1888.449	319.88
1892.718	316.88
1896.982	312.88
1901.243	318.88
1905.499	315.88
1909.752	308.88
1914	313.88
1918.245	325.88
1922.485	324.88
1926.722	320.88
1930.954	337.88
1935.183	330.88
1939.408	334.88
1943.628	344.88
1947.845	335.88
1952.058	341.88
1956.267	331.88
1960.472	330.88
1964.673	336.88
1968.87	334.88
1973.063	321.88
1977.252	330.88
1981.438	329.88
1985.619	330.88
1989.797	323.88
1993.971	325.88
1998.14	322.88
2002.306	322.88
2006.469	329.88
2010.627	338.88
2014.781	322.88
2018.932	330.88
2023.078	334.88
2027.221	333.88
2031.36	331.88
2035.495	326.88
2039.627	328.88
2043.754	328.88
2047.878	322.88
2051.998	316.88
2056.114	322.88
2060.226	329.88
2064.334	330.88
2068.439	341.88
2072.54	349.88
2076.637	344.88
2080.73	344.88
2084.82	349.88
2088.906	355.88
2092.988	353.88
2097.066	351.88
2101.14	352.88
2105.211	354.88
2109.278	348.88
2113.342	348.88
2117.401	357.88
2121.457	340.88
2125.509	344.88
2129.558	350.88
2133.602	335.88
2137.643	337.88
2141.681	342.88
2145.714	326.88
2149.744	334.88
2153.77	316.88
2157.793	316.88
2161.812	313.88
2165.827	307.88
2169.838	312.88
2173.846	311.88
2177.851	288.88
2181.851	289.88
2185.848	279.88
2189.841	274.88
2193.831	282.88
2197.817	272.88
2201.799	272.88
2205.778	265.88
2209.753	257.88
2213.725	261.88
2217.693	262.88
2221.657	256.88
2225.618	250.88
2229.575	249.88
2233.529	245.88
2237.479	239.88
2241.425	239.88
2245.368	230.88
2249.307	233.88
2253.243	233.88
2257.175	223.88
2261.104	218.88
2265.029	220.88
2268.95	217.88
2272.868	203.88
2276.783	206.88
2280.694	196.88
2284.601	186.88
2288.505	186.88
2292.405	185.88
2296.302	190.88
2300.195	187.88
2304.085	183.88
2307.971	177.88
2311.854	168.88
2315.734	165.88
2319.609	160.88
2323.482	150.88
2327.351	150.88
2331.216	157.88
2335.078	149.88
2338.937	149.88
2342.792	146.88
2346.643	145.88
2350.492	144.88
2354.336	142.88
2358.178	139.88
2362.015	143.88
2365.85	137.88
2369.681	140.88
2373.508	138.88
2377.333	136.88
2381.153	137.88
2384.971	136.88
2388.785	130.88
2392.595	131.88
2396.402	133.88
2400.206	121.88
2404.007	128.88
2407.804	118.88
2411.597	119.88
2415.388	116.88
2419.174	123.88
2422.958	117.88
2426.738	112.88
2430.515	118.88
2434.289	115.88
2438.059	112.88
2441.825	111.88
2445.589	118.88
2449.349	116.88
2453.106	108.88
2456.859	106.88
2460.61	103.88
2464.356	106.88
2468.1	103.88
2471.84	96.88
2475.577	100.88
2479.311	95.88
2483.041	94.88
2486.768	96.88
2490.492	90.88
2494.213	97.88
2497.93	102.88
2501.644	95.88
2505.355	97.88
2509.062	103.88
2512.766	100.88
2516.467	96.88
2520.165	88.88
2523.859	93.88
2527.551	89.88
2531.239	85.88
2534.923	87.88
2538.605	85.88
2542.283	90.88
2545.958	94.88
2549.63	91.88
2553.299	84.88
2556.964	84.88
2560.626	77.88
2564.285	82.88
2567.941	86.88
2571.594	82.88
2575.243	74.88
2578.89	75.88
2582.533	78.88
2586.173	83.88
2589.809	73.88
2593.443	69.88
2597.073	73.88
2600.701	60.88
2604.325	68.88
2607.946	70.88
2611.564	69.88
2615.178	76.88
2618.79	73.88
2622.398	73.88
2626.004	75.88
2629.606	69.88
2633.205	61.88
2636.801	71.88
2640.394	62.88
2643.983	60.88
2647.57	64.88
2651.153	58.88
2654.734	53.88
2658.311	58.88
2661.885	53.88
2665.456	56.88
2669.025	55.88
2672.589	48.88
2676.151	61.88
2679.71	57.88
2683.266	57.88
2686.819	55.88
2690.368	53.88
2693.915	55.88
2697.458	48.88
2700.999	48.88
2704.536	47.88
2708.071	42.88
2711.602	40.88
2715.13	42.88
2718.656	36.88
2722.178	40.88
2725.697	45.88
2729.214	44.88
2732.727	46.88
2736.237	53.88
2739.744	45.88
2743.249	54.88
2746.75	53.88
2750.248	56.88
2753.743	57.88
2757.236	53.88
2760.725	57.88
2764.211	60.88
2767.695	57.88
2771.175	61.88
2774.652	55.88
2778.127	62.88
2781.598	60.88
2785.067	56.88
2788.532	60.88
2791.995	60.88
2795.455	62.88
2798.911	70.88
2802.365	71.88
2805.816	71.88
2809.264	75.88
2812.709	75.88
2816.151	76.88
2819.59	76.88
2823.026	76.88
2826.46	72.88
2829.89	78.88
2833.318	76.88
2836.742	83.88
2840.164	89.88
2843.583	98.88
2846.999	95.88
2850.412	95.88
2853.822	105.88
2857.229	91.88
2860.634	104.88
2864.035	104.88
2867.434	110.88
2870.83	112.88
2874.223	111.88
2877.613	128.88
2881	125.88
2884.385	126.88
2887.766	125.88
2891.145	131.88
2894.521	135.88
2897.894	132.88
2901.264	136.88
2904.631	145.88
2907.996	143.88
2911.358	147.88
2914.717	154.88
2918.073	155.88
2921.426	162.88
2924.777	165.88
2928.124	166.88
2931.469	182.88
2934.811	181.88
2938.15	196.88
2941.487	203.88
2944.821	203.88
2948.152	206.88
2951.48	213.88
2954.805	230.88
2958.128	227.88
2961.447	233.88
2964.765	242.88
2968.079	244.88
2971.39	263.88
2974.699	264.88
2978.005	274.88
2981.308	293.88
2984.609	306.88
2987.907	313.88
2991.202	316.88
2994.494	332.88
2997.784	354.88
3001.07	363.88
3004.355	378.88
3007.636	395.88
3010.915	405.88
3014.191	413.88
3017.464	426.88
3020.734	423.88
3024.002	440.88
3027.267	449.88
3030.53	454.88
3033.789	473.88
3037.046	487.88
3040.301	491.88
3043.552	527.88
3046.801	531.88
3050.048	549.88
3053.291	564.88
3056.532	585.88
3059.771	599.88
3063.006	623.88
3066.239	652.88
3069.469	672.88
3072.697	679.88
3075.922	710.88
3079.144	726.88
3082.364	747.88
3085.581	771.88
3088.795	790.88
3092.007	813.88
3095.216	844.88
3098.423	867.88
3101.627	894.88
3104.828	912.88
3108.026	927.88
3111.222	946.88
3114.416	971.88
3117.607	986.88
3120.795	1017.88
3123.98	1047.88
3127.163	1051.88
3130.344	1100.88
3133.521	1124.88
3136.696	1148.88
3139.869	1173.88
3143.039	1193.88
3146.206	1226.88
3149.371	1224.88
3152.533	1241.88
3155.693	1258.88
3158.85	1254.88
3162.005	1280.88
3165.157	1270.88
3168.306	1290.88
3171.453	1287.88
3174.597	1303.88
3177.739	1298.88
3180.878	1298.88
3184.014	1331.88
3187.149	1306.88
3190.28	1316.88
3193.409	1323.88
3196.536	1321.88
3199.659	1331.88
3202.781	1329.88
3205.9	1337.88
3209.016	1318.88
3212.13	1339.88
3215.241	1327.88
3218.35	1332.88
3221.456	1309.88
3224.56	1314.88
3227.661	1292.88
3230.76	1273.88
3233.856	1285.88
3236.95	1256.88
3240.041	1265.88
3243.13	1245.88
3246.216	1228.88
3249.3	1222.88
3252.382	1218.88
3255.46	1217.88
3258.537	1216.88
3261.611	1224.88
3264.682	1205.88
3267.751	1197.88
3270.818	1217.88
3273.882	1203.88
3276.943	1181.88
3280.002	1177.88
3283.059	1159.88
3286.113	1156.88
3289.165	1147.88
3292.214	1124.88
3295.261	1090.88
3298.306	1070.88
3301.348	1069.88
3304.387	1055.88
3307.425	1032.88
3310.459	1015.88
3313.492	1006.88
3316.521	1003.88
3319.549	985.88
3322.574	970.88
3325.597	971.88
3328.617	958.88
3331.635	949.88
3334.65	953.88
3337.663	939.88
3340.674	934.88
3343.682	949.88
3346.688	937.88
3349.691	930.88
3352.692	926.88
3355.691	925.88
3358.687	914.88
3361.681	897.88
3364.673	889.88
3367.662	876.88
3370.649	876.88
3373.633	860.88
3376.615	836.88
3379.595	839.88
3382.572	835.88
3385.547	821.88
3388.52	803.88
3391.49	801.88
3394.458	783.88
3397.424	769.88
3400.387	764.88
3403.348	751.88
3406.307	747.88
3409.263	732.88
3412.217	743.88
3415.168	718.88
3418.118	721.88
3421.065	706.88
3424.009	690.88
3426.951	686.88
3429.891	682.88
3432.829	661.88
3435.764	658.88
3438.697	635.88
3441.628	613.88
3444.557	613.88
3447.483	595.88
3450.407	578.88
3453.328	564.88
3456.247	555.88
3459.164	539.88
3462.079	520.88
3464.991	508.88
3467.902	489.88
3470.809	470.88
3473.715	460.88
3476.618	451.88
3479.519	436.88
3482.418	415.88
3485.315	414.88
3488.209	393.88
3491.101	393.88
3493.99	381.88
3496.878	368.88
3499.763	357.88
3502.646	349.88
3505.527	336.88
3508.405	324.88
3511.281	306.88
3514.155	291.88
3517.027	283.88
3519.897	269.88
3522.764	256.88
3525.629	249.88
3528.492	236.88
3531.352	217.88
3534.211	206.88
3537.067	191.88
3539.921	191.88
3542.773	177.88
3545.622	166.88
3548.469	158.88
3551.315	148.88
3554.157	136.88
3556.998	135.88
3559.837	122.88
3562.673	114.88
3565.507	111.88
3568.339	100.88
3571.169	93.88
3573.996	88.88
3576.822	78.88
3579.645	81.88
3582.466	72.88
3585.285	69.88
3588.101	57.88
3590.916	54.88
3593.728	43.88
3596.538	45.88
3599.346	38.88
3602.152	29.88
3604.956	24.88
3607.757	21.88
3610.556	14.88
3613.354	12.88
3616.149	10.88
3618.942	8.88
3621.732	-0.12
3624.521	-6.12
3627.307	-11.12
3630.092	-13.12
3632.874	-11.12
3635.654	-21.12
3638.432	-24.12
3641.208	-21.12
3643.982	-25.12
3646.753	-30.12
3649.523	-32.12
3652.29	-35.12
3655.055	-37.12
3657.818	-42.12
3660.579	-39.12
3663.338	-45.12
3666.095	-51.12
3668.849	-55.12
3671.602	-54.12
3674.352	-61.12
3677.101	-61.12
3679.847	-66.12
3682.591	-63.12
3685.333	-68.12
3688.073	-69.12
3690.811	-71.12
3693.547	-73.12
3696.281	-74.12
3699.013	-73.12
3701.742	-73.12
3704.47	-77.12
3707.195	-81.12
3709.919	-79.12
3712.64	-82.12
3715.359	-82.12
3718.076	-88.12
3720.792	-90.12
3723.505	-87.12
3726.216	-90.12
3728.925	-84.12
3731.632	-90.12
3734.336	-90.12
3737.039	-89.12
3739.74	-90.12
3742.439	-92.12
3745.136	-96.12
3747.83	-96.12
3750.523	-96.12
3753.213	-91.12
3755.902	-99.12
3758.589	-99.12
3761.273	-97.12
3763.956	-96.12
3766.636	-98.12
3769.315	-96.12
3771.991	-98.12
3774.665	-100.12
3777.338	-100.12
3780.008	-100.12
3782.677	-99.12
3785.343	-105.12
3788.007	-103.12
3790.67	-103.12
3793.33	-106.12
3795.989	-101.12
3798.645	-102.12
3801.299	-106.12
3803.952	-111.12
3806.602	-105.12
3809.251	-108.12
3811.897	-107.12
3814.542	-106.12
3817.184	-105.12
3819.825	-100.12
3822.463	-101.12
3825.1	-102.12
3827.735	-105.12
3830.367	-106.12
3832.998	-107.12
3835.627	-110.12
3838.253	-107.12
3840.878	-110.12
3843.501	-112.12
3846.122	-110.12
3848.741	-106.12
3851.358	-106.12
3853.973	-106.12
3856.586	-106.12
3859.197	-106.12
3861.806	-110.12
3864.414	-108.12
3867.019	-107.12
3869.622	-108.12
3872.224	-108.12
3874.823	-105.12
3877.421	-102.12
3880.016	-103.12
3882.61	-103.12
3885.202	-103.12
3887.792	-102.12
3890.38	-107.12
3892.966	-111.12
3895.55	-108.12
3898.132	-107.12
3900.713	-107.12
3903.291	-107.12
3905.868	-104.12
3908.442	-106.12
3911.015	-110.12
3913.586	-109.12
3916.155	-110.12
3918.722	-112.12
3921.287	-110.12
3923.85	-113.12
3926.411	-113.12
3928.971	-111.12
3931.528	-111.12
3934.084	-109.12
3936.638	-109.12
3939.19	-109.12
3941.74	-112.12
3944.288	-109.12
3946.834	-110.12
3949.378	-113.12
3951.921	-108.12
3954.462	-108.12
3957	-112.12
3959.537	-107.12
3962.072	-111.12
3964.606	-111.12
3967.137	-110.12
3969.667	-107.12
3972.194	-111.12
3974.72	-111.12
3977.244	-108.12
3979.766	-110.12
3982.286	-106.12
3984.805	-107.12
3987.321	-107.12
3989.836	-109.12
3992.349	-110.12
3994.86	-110.12
3997.369	-108.12
3999.877	-114.12
4002.382	-111.12
4004.886	-108.12
4007.388	-111.12
4009.888	-113.12
4012.386	-108.12
4014.883	-109.12
4017.377	-107.12
4019.87	-113.12
4022.361	-109.12
4024.85	-111.12
4027.338	-110.12
4029.823	-111.12
4032.307	-108.12
4034.789	-111.12
4037.269	-106.12
4039.747	-105.12
4042.224	-109.12
4044.699	-113.12
4047.172	-108.12
4049.643	-114.12
4052.112	-115.12
4054.58	-112.12
4057.046	-106.12
4059.51	-111.12
4061.972	-106.12
4064.432	-109.12
4066.891	-104.12
4069.348	-106.12
4071.803	-109.12
4074.256	-110.12
4076.708	-113.12
4079.158	-112.12
4081.606	-112.12
4084.052	-115.12
4086.497	-111.12
4088.939	-110.12
4091.38	-108.12
4093.819	-110.12
4096.257	-110.12
4098.693	-112.12
4101.127	-109.12
4103.559	-110.12
4105.989	-67.12
4108.418	-65.12
4110.845	-68.12
4113.27	-56.12
4115.694	-53.12
4118.115	-48.12
4120.535	-108.12
4122.954	-107.12
4125.37	-109.12
4127.785	-110.12
4130.198	-114.12
4132.609	-112.12
4135.019	-115.12
4137.427	-115.12
4139.833	-114.12
4142.237	-115.12
