Data from Bsub_water_DIL102_B_2_RamanShift_1.txt Node
Date: Wed Feb 22 13:30:26 IST 2017
User: aro
Spectrometer: QEPB0276
Trigger mode: 0
Integration Time (sec): 5.000000E0
Scans to average: 1
Electric dark correction enabled: true
Nonlinearity correction enabled: false
Boxcar width: 0
XAxis mode: Raman Shifts
Number of Pixels in Spectrum: 1044
>>>>>Begin Spectral Data<<<<<
160.701	-35.25
166.742	1.75
172.777	98.75
178.805	394.75
184.826	1115.75
190.841	2351.75
196.849	3701.75
202.85	4659.75
208.845	4897.75
214.833	4697.75
220.815	4496.75
226.789	4363.75
232.758	4213.75
238.719	4045.75
244.674	3888.75
250.623	3701.75
256.565	3505.75
262.5	3336.75
268.429	3151.75
274.351	3017.75
280.267	2894.75
286.176	2746.75
292.079	2620.75
297.975	2518.75
303.865	2436.75
309.748	2357.75
315.625	2300.75
321.495	2239.75
327.359	2214.75
333.217	2192.75
339.068	2166.75
344.912	2139.75
350.751	2148.75
356.583	2132.75
362.408	2131.75
368.227	2132.75
374.04	2125.75
379.847	2143.75
385.647	2173.75
391.44	2163.75
397.228	2195.75
403.009	2189.75
408.784	2192.75
414.553	2211.75
420.315	2227.75
426.071	2222.75
431.821	2213.75
437.565	2216.75
443.302	2201.75
449.033	2191.75
454.758	2192.75
460.477	2200.75
466.189	2185.75
471.896	2152.75
477.596	2152.75
483.29	2144.75
488.978	2127.75
494.66	2096.75
500.335	2077.75
506.005	2034.75
511.668	1996.75
517.325	1951.75
522.977	1927.75
528.622	1874.75
534.261	1865.75
539.894	1847.75
545.521	1808.75
551.141	1802.75
556.756	1777.75
562.365	1769.75
567.968	1762.75
573.565	1733.75
579.155	1738.75
584.74	1703.75
590.319	1671.75
595.892	1679.75
601.459	1672.75
607.02	1656.75
612.575	1632.75
618.124	1598.75
623.667	1608.75
629.204	1570.75
634.735	1576.75
640.261	1547.75
645.781	1541.75
651.294	1534.75
656.802	1514.75
662.304	1507.75
667.8	1525.75
673.29	1493.75
678.775	1483.75
684.254	1478.75
689.726	1482.75
695.193	1461.75
700.655	1452.75
706.11	1434.75
711.56	1416.75
717.004	1428.75
722.442	1405.75
727.874	1388.75
733.301	1384.75
738.722	1371.75
744.137	1363.75
749.547	1359.75
754.951	1347.75
760.349	1345.75
765.741	1351.75
771.128	1340.75
776.509	1348.75
781.885	1336.75
787.254	1319.75
792.618	1320.75
797.977	1316.75
803.33	1286.75
808.677	1276.75
814.019	1259.75
819.355	1240.75
824.686	1242.75
830.011	1226.75
835.33	1203.75
840.644	1204.75
845.952	1193.75
851.255	1186.75
856.552	1170.75
861.844	1139.75
867.13	1140.75
872.41	1141.75
877.686	1127.75
882.955	1093.75
888.219	1073.75
893.478	1058.75
898.731	1025.75
903.979	1005.75
909.221	1001.75
914.458	993.75
919.69	980.75
924.916	972.75
930.136	974.75
935.351	967.75
940.561	954.75
945.766	947.75
950.965	933.75
956.158	926.75
961.347	916.75
966.529	894.75
971.707	884.75
976.879	861.75
982.046	859.75
987.208	850.75
992.364	848.75
997.515	856.75
1002.66	850.75
1007.801	855.75
1012.936	865.75
1018.066	863.75
1023.19	866.75
1028.309	873.75
1033.423	861.75
1038.532	865.75
1043.636	861.75
1048.734	840.75
1053.827	843.75
1058.915	832.75
1063.998	823.75
1069.075	818.75
1074.147	831.75
1079.214	820.75
1084.276	832.75
1089.333	829.75
1094.385	836.75
1099.431	842.75
1104.472	825.75
1109.509	838.75
1114.54	809.75
1119.565	805.75
1124.586	793.75
1129.602	788.75
1134.613	782.75
1139.618	777.75
1144.619	769.75
1149.614	766.75
1154.604	783.75
1159.589	789.75
1164.57	779.75
1169.545	782.75
1174.515	792.75
1179.48	791.75
1184.44	787.75
1189.395	775.75
1194.345	779.75
1199.29	771.75
1204.23	778.75
1209.165	774.75
1214.095	780.75
1219.021	782.75
1223.941	792.75
1228.856	799.75
1233.766	793.75
1238.672	802.75
1243.572	793.75
1248.467	787.75
1253.358	769.75
1258.244	778.75
1263.124	756.75
1268	734.75
1272.871	727.75
1277.737	718.75
1282.599	722.75
1287.455	729.75
1292.306	723.75
1297.153	725.75
1301.995	738.75
1306.832	734.75
1311.664	739.75
1316.491	739.75
1321.314	715.75
1326.132	722.75
1330.945	702.75
1335.753	697.75
1340.556	679.75
1345.354	669.75
1350.148	646.75
1354.937	661.75
1359.722	651.75
1364.501	649.75
1369.276	673.75
1374.046	673.75
1378.811	696.75
1383.572	694.75
1388.327	688.75
1393.079	674.75
1397.825	672.75
1402.567	660.75
1407.304	636.75
1412.036	634.75
1416.764	627.75
1421.487	629.75
1426.205	626.75
1430.919	615.75
1435.628	624.75
1440.333	636.75
1445.032	642.75
1449.727	639.75
1454.418	645.75
1459.104	644.75
1463.785	645.75
1468.462	630.75
1473.134	628.75
1477.802	628.75
1482.465	615.75
1487.123	615.75
1491.777	628.75
1496.426	633.75
1501.071	637.75
1505.711	654.75
1510.347	669.75
1514.978	671.75
1519.604	688.75
1524.226	690.75
1528.844	704.75
1533.457	707.75
1538.065	704.75
1542.669	697.75
1547.269	706.75
1551.864	706.75
1556.454	724.75
1561.041	727.75
1565.622	747.75
1570.199	757.75
1574.772	772.75
1579.34	781.75
1583.904	808.75
1588.464	826.75
1593.019	844.75
1597.569	872.75
1602.115	882.75
1606.657	881.75
1611.195	914.75
1615.728	923.75
1620.256	937.75
1624.78	963.75
1629.3	973.75
1633.816	1001.75
1638.327	1011.75
1642.834	1033.75
1647.336	1049.75
1651.834	1038.75
1656.328	1040.75
1660.817	1031.75
1665.302	1000.75
1669.783	979.75
1674.259	934.75
1678.732	913.75
1683.199	869.75
1687.663	822.75
1692.122	773.75
1696.577	729.75
1701.028	715.75
1705.474	684.75
1709.917	672.75
1714.355	646.75
1718.788	612.75
1723.218	587.75
1727.643	569.75
1732.064	531.75
1736.481	511.75
1740.893	488.75
1745.301	472.75
1749.705	452.75
1754.105	435.75
1758.501	404.75
1762.893	396.75
1767.28	379.75
1771.663	376.75
1776.042	367.75
1780.417	354.75
1784.787	371.75
1789.154	370.75
1793.516	367.75
1797.874	373.75
1802.228	373.75
1806.578	369.75
1810.924	363.75
1815.266	354.75
1819.603	338.75
1823.937	341.75
1828.266	328.75
1832.591	323.75
1836.913	313.75
1841.23	318.75
1845.543	313.75
1849.852	310.75
1854.156	315.75
1858.457	317.75
1862.754	305.75
1867.047	311.75
1871.335	307.75
1875.62	308.75
1879.9	311.75
1884.177	302.75
1888.449	308.75
1892.718	303.75
1896.982	307.75
1901.243	304.75
1905.499	291.75
1909.752	302.75
1914	309.75
1918.245	304.75
1922.485	307.75
1926.722	315.75
1930.954	331.75
1935.183	326.75
1939.408	334.75
1943.628	324.75
1947.845	329.75
1952.058	336.75
1956.267	331.75
1960.472	324.75
1964.673	319.75
1968.87	323.75
1973.063	315.75
1977.252	307.75
1981.438	315.75
1985.619	315.75
1989.797	311.75
1993.971	310.75
1998.14	308.75
2002.306	318.75
2006.469	309.75
2010.627	316.75
2014.781	315.75
2018.932	314.75
2023.078	317.75
2027.221	319.75
2031.36	320.75
2035.495	313.75
2039.627	318.75
2043.754	314.75
2047.878	310.75
2051.998	320.75
2056.114	315.75
2060.226	320.75
2064.334	326.75
2068.439	345.75
2072.54	330.75
2076.637	342.75
2080.73	344.75
2084.82	332.75
2088.906	349.75
2092.988	345.75
2097.066	350.75
2101.14	338.75
2105.211	341.75
2109.278	339.75
2113.342	334.75
2117.401	330.75
2121.457	340.75
2125.509	337.75
2129.558	338.75
2133.602	329.75
2137.643	323.75
2141.681	333.75
2145.714	328.75
2149.744	329.75
2153.77	324.75
2157.793	314.75
2161.812	315.75
2165.827	305.75
2169.838	301.75
2173.846	285.75
2177.851	285.75
2181.851	268.75
2185.848	276.75
2189.841	270.75
2193.831	273.75
2197.817	256.75
2201.799	253.75
2205.778	258.75
2209.753	255.75
2213.725	252.75
2217.693	248.75
2221.657	252.75
2225.618	245.75
2229.575	237.75
2233.529	241.75
2237.479	240.75
2241.425	230.75
2245.368	230.75
2249.307	216.75
2253.243	224.75
2257.175	215.75
2261.104	209.75
2265.029	210.75
2268.95	200.75
2272.868	196.75
2276.783	187.75
2280.694	182.75
2284.601	187.75
2288.505	183.75
2292.405	180.75
2296.302	185.75
2300.195	164.75
2304.085	168.75
2307.971	157.75
2311.854	168.75
2315.734	152.75
2319.609	150.75
2323.482	148.75
2327.351	140.75
2331.216	142.75
2335.078	147.75
2338.937	134.75
2342.792	136.75
2346.643	132.75
2350.492	125.75
2354.336	131.75
2358.178	127.75
2362.015	120.75
2365.85	126.75
2369.681	130.75
2373.508	125.75
2377.333	124.75
2381.153	128.75
2384.971	129.75
2388.785	118.75
2392.595	124.75
2396.402	117.75
2400.206	113.75
2404.007	113.75
2407.804	104.75
2411.597	102.75
2415.388	102.75
2419.174	101.75
2422.958	102.75
2426.738	107.75
2430.515	106.75
2434.289	106.75
2438.059	98.75
2441.825	104.75
2445.589	98.75
2449.349	98.75
2453.106	96.75
2456.859	101.75
2460.61	91.75
2464.356	97.75
2468.1	91.75
2471.84	90.75
2475.577	86.75
2479.311	83.75
2483.041	84.75
2486.768	82.75
2490.492	85.75
2494.213	89.75
2497.93	86.75
2501.644	90.75
2505.355	87.75
2509.062	84.75
2512.766	88.75
2516.467	85.75
2520.165	73.75
2523.859	82.75
2527.551	87.75
2531.239	76.75
2534.923	73.75
2538.605	82.75
2542.283	71.75
2545.958	69.75
2549.63	70.75
2553.299	71.75
2556.964	72.75
2560.626	66.75
2564.285	72.75
2567.941	75.75
2571.594	72.75
2575.243	67.75
2578.89	66.75
2582.533	66.75
2586.173	62.75
2589.809	66.75
2593.443	58.75
2597.073	59.75
2600.701	55.75
2604.325	62.75
2607.946	56.75
2611.564	53.75
2615.178	53.75
2618.79	62.75
2622.398	55.75
2626.004	64.75
2629.606	60.75
2633.205	55.75
2636.801	54.75
2640.394	54.75
2643.983	53.75
2647.57	46.75
2651.153	44.75
2654.734	39.75
2658.311	46.75
2661.885	47.75
2665.456	43.75
2669.025	37.75
2672.589	44.75
2676.151	44.75
2679.71	44.75
2683.266	40.75
2686.819	42.75
2690.368	42.75
2693.915	37.75
2697.458	41.75
2700.999	32.75
2704.536	36.75
2708.071	35.75
2711.602	33.75
2715.13	29.75
2718.656	36.75
2722.178	32.75
2725.697	32.75
2729.214	35.75
2732.727	36.75
2736.237	36.75
2739.744	40.75
2743.249	41.75
2746.75	46.75
2750.248	38.75
2753.743	45.75
2757.236	45.75
2760.725	48.75
2764.211	52.75
2767.695	44.75
2771.175	52.75
2774.652	53.75
2778.127	48.75
2781.598	50.75
2785.067	45.75
2788.532	52.75
2791.995	51.75
2795.455	49.75
2798.911	58.75
2802.365	65.75
2805.816	61.75
2809.264	58.75
2812.709	66.75
2816.151	66.75
2819.59	65.75
2823.026	69.75
2826.46	68.75
2829.89	70.75
2833.318	72.75
2836.742	67.75
2840.164	75.75
2843.583	82.75
2846.999	84.75
2850.412	89.75
2853.822	90.75
2857.229	92.75
2860.634	101.75
2864.035	106.75
2867.434	99.75
2870.83	113.75
2874.223	110.75
2877.613	112.75
2881	116.75
2884.385	116.75
2887.766	127.75
2891.145	121.75
2894.521	122.75
2897.894	124.75
2901.264	126.75
2904.631	134.75
2907.996	133.75
2911.358	145.75
2914.717	156.75
2918.073	151.75
2921.426	157.75
2924.777	168.75
2928.124	165.75
2931.469	175.75
2934.811	184.75
2938.15	184.75
2941.487	197.75
2944.821	202.75
2948.152	210.75
2951.48	220.75
2954.805	216.75
2958.128	227.75
2961.447	233.75
2964.765	247.75
2968.079	259.75
2971.39	261.75
2974.699	277.75
2978.005	283.75
2981.308	289.75
2984.609	308.75
2987.907	313.75
2991.202	339.75
2994.494	349.75
2997.784	364.75
3001.07	367.75
3004.355	391.75
3007.636	402.75
3010.915	407.75
3014.191	413.75
3017.464	439.75
3020.734	452.75
3024.002	462.75
3027.267	471.75
3030.53	488.75
3033.789	496.75
3037.046	508.75
3040.301	521.75
3043.552	542.75
3046.801	541.75
3050.048	567.75
3053.291	590.75
3056.532	599.75
3059.771	625.75
3063.006	657.75
3066.239	666.75
3069.469	700.75
3072.697	714.75
3075.922	752.75
3079.144	764.75
3082.364	792.75
3085.581	806.75
3088.795	822.75
3092.007	848.75
3095.216	877.75
3098.423	892.75
3101.627	921.75
3104.828	936.75
3108.026	965.75
3111.222	988.75
3114.416	1006.75
3117.607	1022.75
3120.795	1051.75
3123.98	1107.75
3127.163	1111.75
3130.344	1132.75
3133.521	1177.75
3136.696	1195.75
3139.869	1227.75
3143.039	1257.75
3146.206	1257.75
3149.371	1262.75
3152.533	1284.75
3155.693	1307.75
3158.85	1310.75
3162.005	1309.75
3165.157	1339.75
3168.306	1341.75
3171.453	1349.75
3174.597	1356.75
3177.739	1364.75
3180.878	1376.75
3184.014	1357.75
3187.149	1357.75
3190.28	1362.75
3193.409	1371.75
3196.536	1376.75
3199.659	1366.75
3202.781	1395.75
3205.9	1388.75
3209.016	1392.75
3212.13	1385.75
3215.241	1391.75
3218.35	1370.75
3221.456	1366.75
3224.56	1354.75
3227.661	1356.75
3230.76	1330.75
3233.856	1325.75
3236.95	1325.75
3240.041	1305.75
3243.13	1289.75
3246.216	1300.75
3249.3	1284.75
3252.382	1286.75
3255.46	1277.75
3258.537	1253.75
3261.611	1265.75
3264.682	1248.75
3267.751	1254.75
3270.818	1246.75
3273.882	1248.75
3276.943	1222.75
3280.002	1226.75
3283.059	1200.75
3286.113	1192.75
3289.165	1173.75
3292.214	1150.75
3295.261	1157.75
3298.306	1111.75
3301.348	1085.75
3304.387	1089.75
3307.425	1075.75
3310.459	1063.75
3313.492	1064.75
3316.521	1038.75
3319.549	1033.75
3322.574	995.75
3325.597	985.75
3328.617	997.75
3331.635	984.75
3334.65	978.75
3337.663	982.75
3340.674	979.75
3343.682	970.75
3346.688	968.75
3349.691	956.75
3352.692	963.75
3355.691	944.75
3358.687	943.75
3361.681	919.75
3364.673	921.75
3367.662	906.75
3370.649	888.75
3373.633	881.75
3376.615	851.75
3379.595	858.75
3382.572	845.75
3385.547	843.75
3388.52	837.75
3391.49	823.75
3394.458	805.75
3397.424	797.75
3400.387	795.75
3403.348	780.75
3406.307	774.75
3409.263	755.75
3412.217	758.75
3415.168	747.75
3418.118	744.75
3421.065	730.75
3424.009	721.75
3426.951	724.75
3429.891	704.75
3432.829	693.75
3435.764	681.75
3438.697	663.75
3441.628	640.75
3444.557	636.75
3447.483	612.75
3450.407	608.75
3453.328	570.75
3456.247	561.75
3459.164	556.75
3462.079	534.75
3464.991	519.75
3467.902	504.75
3470.809	497.75
3473.715	480.75
3476.618	471.75
3479.519	442.75
3482.418	437.75
3485.315	432.75
3488.209	409.75
3491.101	412.75
3493.99	393.75
3496.878	378.75
3499.763	374.75
3502.646	357.75
3505.527	344.75
3508.405	332.75
3511.281	319.75
3514.155	308.75
3517.027	300.75
3519.897	283.75
3522.764	271.75
3525.629	254.75
3528.492	248.75
3531.352	230.75
3534.211	213.75
3537.067	200.75
3539.921	189.75
3542.773	187.75
3545.622	171.75
3548.469	159.75
3551.315	154.75
3554.157	145.75
3556.998	139.75
3559.837	129.75
3562.673	125.75
3565.507	117.75
3568.339	107.75
3571.169	95.75
3573.996	91.75
3576.822	83.75
3579.645	77.75
3582.466	74.75
3585.285	65.75
3588.101	69.75
3590.916	55.75
3593.728	47.75
3596.538	46.75
3599.346	39.75
3602.152	33.75
3604.956	30.75
3607.757	26.75
3610.556	15.75
3613.354	17.75
3616.149	11.75
3618.942	11.75
3621.732	0.75
3624.521	-3.25
3627.307	-6.25
3630.092	-7.25
3632.874	-9.25
3635.654	-17.25
3638.432	-24.25
3641.208	-28.25
3643.982	-31.25
3646.753	-28.25
3649.523	-30.25
3652.29	-35.25
3655.055	-36.25
3657.818	-43.25
3660.579	-40.25
3663.338	-48.25
3666.095	-47.25
3668.849	-53.25
3671.602	-54.25
3674.352	-60.25
3677.101	-61.25
3679.847	-63.25
3682.591	-63.25
3685.333	-69.25
3688.073	-71.25
3690.811	-71.25
3693.547	-72.25
3696.281	-76.25
3699.013	-74.25
3701.742	-72.25
3704.47	-75.25
3707.195	-77.25
3709.919	-79.25
3712.64	-80.25
3715.359	-82.25
3718.076	-85.25
3720.792	-84.25
3723.505	-90.25
3726.216	-87.25
3728.925	-84.25
3731.632	-91.25
3734.336	-93.25
3737.039	-89.25
3739.74	-93.25
3742.439	-98.25
3745.136	-100.25
3747.83	-94.25
3750.523	-98.25
3753.213	-97.25
3755.902	-100.25
3758.589	-94.25
3761.273	-99.25
3763.956	-98.25
3766.636	-96.25
3769.315	-94.25
3771.991	-101.25
3774.665	-104.25
3777.338	-102.25
3780.008	-100.25
3782.677	-101.25
3785.343	-109.25
3788.007	-104.25
3790.67	-103.25
3793.33	-109.25
3795.989	-105.25
3798.645	-103.25
3801.299	-108.25
3803.952	-104.25
3806.602	-104.25
3809.251	-105.25
3811.897	-108.25
3814.542	-106.25
3817.184	-106.25
3819.825	-103.25
3822.463	-103.25
3825.1	-105.25
3827.735	-106.25
3830.367	-109.25
3832.998	-105.25
3835.627	-112.25
3838.253	-110.25
3840.878	-112.25
3843.501	-108.25
3846.122	-109.25
3848.741	-105.25
3851.358	-109.25
3853.973	-108.25
3856.586	-107.25
3859.197	-109.25
3861.806	-111.25
3864.414	-110.25
3867.019	-108.25
3869.622	-110.25
3872.224	-113.25
3874.823	-109.25
3877.421	-98.25
3880.016	-103.25
3882.61	-98.25
3885.202	-101.25
3887.792	-100.25
3890.38	-105.25
3892.966	-110.25
3895.55	-108.25
3898.132	-107.25
3900.713	-111.25
3903.291	-108.25
3905.868	-109.25
3908.442	-107.25
3911.015	-112.25
3913.586	-111.25
3916.155	-112.25
3918.722	-113.25
3921.287	-114.25
3923.85	-115.25
3926.411	-114.25
3928.971	-110.25
3931.528	-110.25
3934.084	-111.25
3936.638	-109.25
3939.19	-110.25
3941.74	-110.25
3944.288	-117.25
3946.834	-108.25
3949.378	-111.25
3951.921	-112.25
3954.462	-112.25
3957	-112.25
3959.537	-109.25
3962.072	-115.25
3964.606	-114.25
3967.137	-111.25
3969.667	-108.25
3972.194	-112.25
3974.72	-112.25
3977.244	-110.25
3979.766	-111.25
3982.286	-107.25
3984.805	-107.25
3987.321	-110.25
3989.836	-110.25
3992.349	-110.25
3994.86	-113.25
3997.369	-112.25
3999.877	-114.25
4002.382	-113.25
4004.886	-110.25
4007.388	-111.25
4009.888	-114.25
4012.386	-110.25
4014.883	-109.25
4017.377	-108.25
4019.87	-112.25
4022.361	-109.25
4024.85	-109.25
4027.338	-110.25
4029.823	-114.25
4032.307	-109.25
4034.789	-111.25
4037.269	-109.25
4039.747	-107.25
4042.224	-111.25
4044.699	-116.25
4047.172	-114.25
4049.643	-118.25
4052.112	-120.25
4054.58	-111.25
4057.046	-110.25
4059.51	-115.25
4061.972	-105.25
4064.432	-110.25
4066.891	-109.25
4069.348	-107.25
4071.803	-112.25
4074.256	-113.25
4076.708	-113.25
4079.158	-113.25
4081.606	-113.25
4084.052	-113.25
4086.497	-110.25
4088.939	-112.25
4091.38	-112.25
4093.819	-117.25
4096.257	-112.25
4098.693	-113.25
4101.127	-113.25
4103.559	-113.25
4105.989	-70.25
4108.418	-68.25
4110.845	-70.25
4113.27	-62.25
4115.694	-54.25
4118.115	-41.25
4120.535	-112.25
4122.954	-108.25
4125.37	-111.25
4127.785	-111.25
4130.198	-112.25
4132.609	-110.25
4135.019	-114.25
4137.427	-117.25
4139.833	-116.25
4142.237	-112.25
