Data from Bsub_water_DIL108_B_2_RamanShift_1.txt Node
Date: Wed Feb 22 13:14:31 IST 2017
User: aro
Spectrometer: QEPB0276
Trigger mode: 0
Integration Time (sec): 5.000000E0
Scans to average: 1
Electric dark correction enabled: true
Nonlinearity correction enabled: false
Boxcar width: 0
XAxis mode: Raman Shifts
Number of Pixels in Spectrum: 1044
>>>>>Begin Spectral Data<<<<<
160.701	-33.5
166.742	4.5
172.777	97.5
178.805	400.5
184.826	1131.5
190.841	2354.5
196.849	3717.5
202.85	4674.5
208.845	4871.5
214.833	4721.5
220.815	4544.5
226.789	4383.5
232.758	4244.5
238.719	4111.5
244.674	3933.5
250.623	3760.5
256.565	3568.5
262.5	3388.5
268.429	3194.5
274.351	3072.5
280.267	2934.5
286.176	2810.5
292.079	2694.5
297.975	2605.5
303.865	2514.5
309.748	2446.5
315.625	2382.5
321.495	2330.5
327.359	2281.5
333.217	2255.5
339.068	2224.5
344.912	2197.5
350.751	2200.5
356.583	2205.5
362.408	2200.5
368.227	2189.5
374.04	2196.5
379.847	2213.5
385.647	2233.5
391.44	2242.5
397.228	2254.5
403.009	2266.5
408.784	2265.5
414.553	2275.5
420.315	2288.5
426.071	2289.5
431.821	2307.5
437.565	2287.5
443.302	2268.5
449.033	2267.5
454.758	2276.5
460.477	2243.5
466.189	2249.5
471.896	2227.5
477.596	2206.5
483.29	2221.5
488.978	2180.5
494.66	2177.5
500.335	2133.5
506.005	2095.5
511.668	2059.5
517.325	2012.5
522.977	1991.5
528.622	1931.5
534.261	1924.5
539.894	1900.5
545.521	1890.5
551.141	1873.5
556.756	1844.5
562.365	1854.5
567.968	1836.5
573.565	1815.5
579.155	1779.5
584.74	1774.5
590.319	1761.5
595.892	1779.5
601.459	1749.5
607.02	1737.5
612.575	1708.5
618.124	1670.5
623.667	1665.5
629.204	1657.5
634.735	1643.5
640.261	1632.5
645.781	1633.5
651.294	1599.5
656.802	1600.5
662.304	1574.5
667.8	1580.5
673.29	1548.5
678.775	1556.5
684.254	1560.5
689.726	1542.5
695.193	1524.5
700.655	1515.5
706.11	1510.5
711.56	1501.5
717.004	1477.5
722.442	1478.5
727.874	1461.5
733.301	1457.5
738.722	1445.5
744.137	1433.5
749.547	1434.5
754.951	1419.5
760.349	1413.5
765.741	1412.5
771.128	1413.5
776.509	1411.5
781.885	1411.5
787.254	1406.5
792.618	1394.5
797.977	1363.5
803.33	1370.5
808.677	1353.5
814.019	1330.5
819.355	1331.5
824.686	1306.5
830.011	1299.5
835.33	1277.5
840.644	1278.5
845.952	1259.5
851.255	1261.5
856.552	1239.5
861.844	1230.5
867.13	1228.5
872.41	1221.5
877.686	1216.5
882.955	1191.5
888.219	1156.5
893.478	1146.5
898.731	1114.5
903.979	1098.5
909.221	1070.5
914.458	1058.5
919.69	1045.5
924.916	1057.5
930.136	1046.5
935.351	1045.5
940.561	1044.5
945.766	1029.5
950.965	1025.5
956.158	1014.5
961.347	992.5
966.529	989.5
971.707	959.5
976.879	948.5
982.046	927.5
987.208	929.5
992.364	923.5
997.515	946.5
1002.66	933.5
1007.801	940.5
1012.936	933.5
1018.066	957.5
1023.19	951.5
1028.309	960.5
1033.423	946.5
1038.532	958.5
1043.636	943.5
1048.734	931.5
1053.827	920.5
1058.915	915.5
1063.998	903.5
1069.075	898.5
1074.147	898.5
1079.214	896.5
1084.276	914.5
1089.333	908.5
1094.385	927.5
1099.431	922.5
1104.472	920.5
1109.509	914.5
1114.54	903.5
1119.565	893.5
1124.586	871.5
1129.602	866.5
1134.613	866.5
1139.618	858.5
1144.619	854.5
1149.614	867.5
1154.604	859.5
1159.589	870.5
1164.57	870.5
1169.545	864.5
1174.515	876.5
1179.48	862.5
1184.44	852.5
1189.395	862.5
1194.345	851.5
1199.29	853.5
1204.23	848.5
1209.165	861.5
1214.095	855.5
1219.021	860.5
1223.941	869.5
1228.856	867.5
1233.766	880.5
1238.672	874.5
1243.572	872.5
1248.467	871.5
1253.358	865.5
1258.244	851.5
1263.124	822.5
1268	816.5
1272.871	811.5
1277.737	800.5
1282.599	803.5
1287.455	798.5
1292.306	802.5
1297.153	795.5
1301.995	811.5
1306.832	824.5
1311.664	829.5
1316.491	818.5
1321.314	810.5
1326.132	792.5
1330.945	793.5
1335.753	768.5
1340.556	764.5
1345.354	734.5
1350.148	727.5
1354.937	728.5
1359.722	717.5
1364.501	730.5
1369.276	744.5
1374.046	753.5
1378.811	774.5
1383.572	767.5
1388.327	756.5
1393.079	750.5
1397.825	743.5
1402.567	725.5
1407.304	702.5
1412.036	709.5
1416.764	709.5
1421.487	706.5
1426.205	698.5
1430.919	683.5
1435.628	715.5
1440.333	705.5
1445.032	710.5
1449.727	719.5
1454.418	719.5
1459.104	726.5
1463.785	718.5
1468.462	711.5
1473.134	697.5
1477.802	699.5
1482.465	703.5
1487.123	691.5
1491.777	691.5
1496.426	711.5
1501.071	719.5
1505.711	723.5
1510.347	756.5
1514.978	761.5
1519.604	768.5
1524.226	762.5
1528.844	777.5
1533.457	783.5
1538.065	773.5
1542.669	789.5
1547.269	786.5
1551.864	779.5
1556.454	799.5
1561.041	793.5
1565.622	822.5
1570.199	823.5
1574.772	847.5
1579.34	865.5
1583.904	879.5
1588.464	906.5
1593.019	906.5
1597.569	940.5
1602.115	947.5
1606.657	967.5
1611.195	984.5
1615.728	999.5
1620.256	1028.5
1624.78	1023.5
1629.3	1047.5
1633.816	1065.5
1638.327	1089.5
1642.834	1101.5
1647.336	1108.5
1651.834	1102.5
1656.328	1110.5
1660.817	1082.5
1665.302	1067.5
1669.783	1051.5
1674.259	1008.5
1678.732	976.5
1683.199	930.5
1687.663	882.5
1692.122	828.5
1696.577	800.5
1701.028	776.5
1705.474	750.5
1709.917	744.5
1714.355	708.5
1718.788	682.5
1723.218	660.5
1727.643	626.5
1732.064	599.5
1736.481	580.5
1740.893	557.5
1745.301	520.5
1749.705	515.5
1754.105	479.5
1758.501	480.5
1762.893	456.5
1767.28	443.5
1771.663	425.5
1776.042	419.5
1780.417	422.5
1784.787	427.5
1789.154	424.5
1793.516	431.5
1797.874	433.5
1802.228	445.5
1806.578	422.5
1810.924	426.5
1815.266	420.5
1819.603	409.5
1823.937	403.5
1828.266	390.5
1832.591	379.5
1836.913	386.5
1841.23	370.5
1845.543	374.5
1849.852	370.5
1854.156	372.5
1858.457	372.5
1862.754	370.5
1867.047	366.5
1871.335	363.5
1875.62	372.5
1879.9	376.5
1884.177	373.5
1888.449	366.5
1892.718	364.5
1896.982	363.5
1901.243	366.5
1905.499	362.5
1909.752	351.5
1914	367.5
1918.245	367.5
1922.485	377.5
1926.722	372.5
1930.954	377.5
1935.183	385.5
1939.408	389.5
1943.628	383.5
1947.845	382.5
1952.058	389.5
1956.267	396.5
1960.472	394.5
1964.673	381.5
1968.87	380.5
1973.063	373.5
1977.252	373.5
1981.438	376.5
1985.619	369.5
1989.797	365.5
1993.971	361.5
1998.14	368.5
2002.306	371.5
2006.469	379.5
2010.627	376.5
2014.781	372.5
2018.932	377.5
2023.078	370.5
2027.221	376.5
2031.36	382.5
2035.495	371.5
2039.627	369.5
2043.754	369.5
2047.878	361.5
2051.998	366.5
2056.114	362.5
2060.226	371.5
2064.334	376.5
2068.439	370.5
2072.54	382.5
2076.637	394.5
2080.73	389.5
2084.82	393.5
2088.906	384.5
2092.988	400.5
2097.066	406.5
2101.14	400.5
2105.211	395.5
2109.278	393.5
2113.342	394.5
2117.401	385.5
2121.457	375.5
2125.509	380.5
2129.558	383.5
2133.602	372.5
2137.643	379.5
2141.681	380.5
2145.714	374.5
2149.744	378.5
2153.77	362.5
2157.793	365.5
2161.812	364.5
2165.827	352.5
2169.838	359.5
2173.846	343.5
2177.851	322.5
2181.851	324.5
2185.848	314.5
2189.841	309.5
2193.831	316.5
2197.817	312.5
2201.799	304.5
2205.778	300.5
2209.753	302.5
2213.725	291.5
2217.693	294.5
2221.657	302.5
2225.618	297.5
2229.575	294.5
2233.529	282.5
2237.479	290.5
2241.425	278.5
2245.368	267.5
2249.307	265.5
2253.243	256.5
2257.175	259.5
2261.104	256.5
2265.029	251.5
2268.95	237.5
2272.868	240.5
2276.783	236.5
2280.694	224.5
2284.601	232.5
2288.505	224.5
2292.405	219.5
2296.302	223.5
2300.195	217.5
2304.085	215.5
2307.971	206.5
2311.854	195.5
2315.734	187.5
2319.609	184.5
2323.482	191.5
2327.351	186.5
2331.216	186.5
2335.078	192.5
2338.937	182.5
2342.792	175.5
2346.643	171.5
2350.492	173.5
2354.336	164.5
2358.178	167.5
2362.015	166.5
2365.85	167.5
2369.681	166.5
2373.508	161.5
2377.333	165.5
2381.153	160.5
2384.971	169.5
2388.785	163.5
2392.595	155.5
2396.402	160.5
2400.206	152.5
2404.007	148.5
2407.804	150.5
2411.597	144.5
2415.388	150.5
2419.174	144.5
2422.958	145.5
2426.738	137.5
2430.515	137.5
2434.289	141.5
2438.059	139.5
2441.825	139.5
2445.589	133.5
2449.349	136.5
2453.106	129.5
2456.859	133.5
2460.61	128.5
2464.356	132.5
2468.1	132.5
2471.84	128.5
2475.577	124.5
2479.311	123.5
2483.041	117.5
2486.768	115.5
2490.492	124.5
2494.213	122.5
2497.93	123.5
2501.644	126.5
2505.355	124.5
2509.062	124.5
2512.766	119.5
2516.467	123.5
2520.165	112.5
2523.859	112.5
2527.551	113.5
2531.239	118.5
2534.923	113.5
2538.605	114.5
2542.283	113.5
2545.958	111.5
2549.63	106.5
2553.299	110.5
2556.964	107.5
2560.626	103.5
2564.285	107.5
2567.941	109.5
2571.594	107.5
2575.243	94.5
2578.89	96.5
2582.533	101.5
2586.173	99.5
2589.809	94.5
2593.443	97.5
2597.073	94.5
2600.701	87.5
2604.325	96.5
2607.946	87.5
2611.564	95.5
2615.178	95.5
2618.79	89.5
2622.398	93.5
2626.004	96.5
2629.606	83.5
2633.205	85.5
2636.801	85.5
2640.394	82.5
2643.983	85.5
2647.57	74.5
2651.153	74.5
2654.734	74.5
2658.311	77.5
2661.885	73.5
2665.456	74.5
2669.025	71.5
2672.589	76.5
2676.151	71.5
2679.71	72.5
2683.266	72.5
2686.819	72.5
2690.368	68.5
2693.915	67.5
2697.458	67.5
2700.999	63.5
2704.536	62.5
2708.071	57.5
2711.602	53.5
2715.13	55.5
2718.656	60.5
2722.178	61.5
2725.697	58.5
2729.214	64.5
2732.727	60.5
2736.237	64.5
2739.744	65.5
2743.249	62.5
2746.75	68.5
2750.248	70.5
2753.743	62.5
2757.236	61.5
2760.725	71.5
2764.211	76.5
2767.695	75.5
2771.175	78.5
2774.652	80.5
2778.127	72.5
2781.598	76.5
2785.067	75.5
2788.532	80.5
2791.995	78.5
2795.455	72.5
2798.911	78.5
2802.365	86.5
2805.816	87.5
2809.264	90.5
2812.709	91.5
2816.151	87.5
2819.59	84.5
2823.026	86.5
2826.46	83.5
2829.89	92.5
2833.318	93.5
2836.742	90.5
2840.164	99.5
2843.583	106.5
2846.999	113.5
2850.412	107.5
2853.822	114.5
2857.229	110.5
2860.634	123.5
2864.035	127.5
2867.434	122.5
2870.83	126.5
2874.223	130.5
2877.613	132.5
2881	143.5
2884.385	145.5
2887.766	150.5
2891.145	148.5
2894.521	147.5
2897.894	150.5
2901.264	155.5
2904.631	158.5
2907.996	157.5
2911.358	163.5
2914.717	173.5
2918.073	172.5
2921.426	182.5
2924.777	181.5
2928.124	182.5
2931.469	200.5
2934.811	195.5
2938.15	206.5
2941.487	208.5
2944.821	218.5
2948.152	222.5
2951.48	227.5
2954.805	237.5
2958.128	242.5
2961.447	254.5
2964.765	262.5
2968.079	267.5
2971.39	281.5
2974.699	281.5
2978.005	298.5
2981.308	302.5
2984.609	314.5
2987.907	334.5
2991.202	346.5
2994.494	362.5
2997.784	363.5
3001.07	382.5
3004.355	399.5
3007.636	420.5
3010.915	425.5
3014.191	433.5
3017.464	447.5
3020.734	458.5
3024.002	462.5
3027.267	480.5
3030.53	483.5
3033.789	485.5
3037.046	501.5
3040.301	515.5
3043.552	530.5
3046.801	545.5
3050.048	568.5
3053.291	575.5
3056.532	599.5
3059.771	641.5
3063.006	656.5
3066.239	665.5
3069.469	695.5
3072.697	716.5
3075.922	737.5
3079.144	758.5
3082.364	788.5
3085.581	802.5
3088.795	834.5
3092.007	841.5
3095.216	873.5
3098.423	879.5
3101.627	921.5
3104.828	932.5
3108.026	955.5
3111.222	978.5
3114.416	1019.5
3117.607	1047.5
3120.795	1046.5
3123.98	1079.5
3127.163	1118.5
3130.344	1150.5
3133.521	1167.5
3136.696	1193.5
3139.869	1204.5
3143.039	1219.5
3146.206	1279.5
3149.371	1266.5
3152.533	1282.5
3155.693	1297.5
3158.85	1317.5
3162.005	1319.5
3165.157	1320.5
3168.306	1343.5
3171.453	1343.5
3174.597	1341.5
3177.739	1355.5
3180.878	1354.5
3184.014	1337.5
3187.149	1346.5
3190.28	1351.5
3193.409	1350.5
3196.536	1360.5
3199.659	1363.5
3202.781	1362.5
3205.9	1360.5
3209.016	1367.5
3212.13	1374.5
3215.241	1346.5
3218.35	1371.5
3221.456	1357.5
3224.56	1347.5
3227.661	1315.5
3230.76	1309.5
3233.856	1315.5
3236.95	1298.5
3240.041	1288.5
3243.13	1278.5
3246.216	1271.5
3249.3	1265.5
3252.382	1255.5
3255.46	1257.5
3258.537	1235.5
3261.611	1248.5
3264.682	1243.5
3267.751	1222.5
3270.818	1239.5
3273.882	1227.5
3276.943	1222.5
3280.002	1202.5
3283.059	1198.5
3286.113	1186.5
3289.165	1174.5
3292.214	1145.5
3295.261	1132.5
3298.306	1096.5
3301.348	1077.5
3304.387	1067.5
3307.425	1067.5
3310.459	1048.5
3313.492	1030.5
3316.521	1018.5
3319.549	1021.5
3322.574	1001.5
3325.597	1000.5
3328.617	985.5
3331.635	969.5
3334.65	978.5
3337.663	967.5
3340.674	970.5
3343.682	956.5
3346.688	970.5
3349.691	956.5
3352.692	939.5
3355.691	944.5
3358.687	928.5
3361.681	932.5
3364.673	915.5
3367.662	892.5
3370.649	890.5
3373.633	863.5
3376.615	869.5
3379.595	860.5
3382.572	846.5
3385.547	837.5
3388.52	828.5
3391.49	802.5
3394.458	808.5
3397.424	798.5
3400.387	783.5
3403.348	761.5
3406.307	752.5
3409.263	749.5
3412.217	754.5
3415.168	732.5
3418.118	735.5
3421.065	728.5
3424.009	729.5
3426.951	713.5
3429.891	700.5
3432.829	689.5
3435.764	675.5
3438.697	653.5
3441.628	650.5
3444.557	631.5
3447.483	604.5
3450.407	598.5
3453.328	572.5
3456.247	571.5
3459.164	552.5
3462.079	525.5
3464.991	521.5
3467.902	505.5
3470.809	494.5
3473.715	471.5
3476.618	457.5
3479.519	443.5
3482.418	432.5
3485.315	418.5
3488.209	409.5
3491.101	399.5
3493.99	390.5
3496.878	377.5
3499.763	366.5
3502.646	348.5
3505.527	344.5
3508.405	327.5
3511.281	325.5
3514.155	310.5
3517.027	299.5
3519.897	280.5
3522.764	268.5
3525.629	253.5
3528.492	242.5
3531.352	228.5
3534.211	217.5
3537.067	208.5
3539.921	194.5
3542.773	179.5
3545.622	163.5
3548.469	163.5
3551.315	154.5
3554.157	138.5
3556.998	143.5
3559.837	129.5
3562.673	115.5
3565.507	119.5
3568.339	106.5
3571.169	95.5
3573.996	95.5
3576.822	81.5
3579.645	75.5
3582.466	72.5
3585.285	60.5
3588.101	55.5
3590.916	50.5
3593.728	46.5
3596.538	45.5
3599.346	39.5
3602.152	30.5
3604.956	27.5
3607.757	20.5
3610.556	13.5
3613.354	16.5
3616.149	7.5
3618.942	3.5
3621.732	-1.5
3624.521	-2.5
3627.307	-10.5
3630.092	-8.5
3632.874	-12.5
3635.654	-14.5
3638.432	-16.5
3641.208	-21.5
3643.982	-27.5
3646.753	-25.5
3649.523	-31.5
3652.29	-37.5
3655.055	-45.5
3657.818	-45.5
3660.579	-49.5
3663.338	-49.5
3666.095	-55.5
3668.849	-57.5
3671.602	-53.5
3674.352	-59.5
3677.101	-60.5
3679.847	-62.5
3682.591	-67.5
3685.333	-70.5
3688.073	-71.5
3690.811	-70.5
3693.547	-78.5
3696.281	-77.5
3699.013	-79.5
3701.742	-75.5
3704.47	-77.5
3707.195	-82.5
3709.919	-81.5
3712.64	-83.5
3715.359	-81.5
3718.076	-84.5
3720.792	-86.5
3723.505	-88.5
3726.216	-86.5
3728.925	-88.5
3731.632	-92.5
3734.336	-90.5
3737.039	-90.5
3739.74	-92.5
3742.439	-94.5
3745.136	-95.5
3747.83	-98.5
3750.523	-96.5
3753.213	-93.5
3755.902	-100.5
3758.589	-95.5
3761.273	-99.5
3763.956	-95.5
3766.636	-100.5
3769.315	-96.5
3771.991	-103.5
3774.665	-103.5
3777.338	-102.5
3780.008	-104.5
3782.677	-104.5
3785.343	-109.5
3788.007	-102.5
3790.67	-103.5
3793.33	-105.5
3795.989	-102.5
3798.645	-100.5
3801.299	-106.5
3803.952	-105.5
3806.602	-106.5
3809.251	-108.5
3811.897	-109.5
3814.542	-106.5
3817.184	-107.5
3819.825	-100.5
3822.463	-104.5
3825.1	-105.5
3827.735	-108.5
3830.367	-107.5
3832.998	-105.5
3835.627	-109.5
3838.253	-108.5
3840.878	-110.5
3843.501	-109.5
3846.122	-109.5
3848.741	-107.5
3851.358	-109.5
3853.973	-107.5
3856.586	-113.5
3859.197	-113.5
3861.806	-115.5
3864.414	-114.5
3867.019	-108.5
3869.622	-109.5
3872.224	-109.5
3874.823	-106.5
3877.421	-100.5
3880.016	-101.5
3882.61	-101.5
3885.202	-101.5
3887.792	-100.5
3890.38	-107.5
3892.966	-111.5
3895.55	-108.5
3898.132	-109.5
3900.713	-111.5
3903.291	-111.5
3905.868	-109.5
3908.442	-109.5
3911.015	-112.5
3913.586	-113.5
3916.155	-113.5
3918.722	-111.5
3921.287	-111.5
3923.85	-109.5
3926.411	-115.5
3928.971	-113.5
3931.528	-112.5
3934.084	-112.5
3936.638	-114.5
3939.19	-113.5
3941.74	-114.5
3944.288	-116.5
3946.834	-112.5
3949.378	-114.5
3951.921	-111.5
3954.462	-111.5
3957	-111.5
3959.537	-106.5
3962.072	-110.5
3964.606	-111.5
3967.137	-111.5
3969.667	-109.5
3972.194	-115.5
3974.72	-113.5
3977.244	-113.5
3979.766	-113.5
3982.286	-111.5
3984.805	-112.5
3987.321	-111.5
3989.836	-113.5
3992.349	-111.5
3994.86	-112.5
3997.369	-110.5
3999.877	-112.5
4002.382	-107.5
4004.886	-107.5
4007.388	-107.5
4009.888	-113.5
4012.386	-111.5
4014.883	-109.5
4017.377	-110.5
4019.87	-119.5
4022.361	-114.5
4024.85	-113.5
4027.338	-116.5
4029.823	-115.5
4032.307	-108.5
4034.789	-112.5
4037.269	-108.5
4039.747	-106.5
4042.224	-110.5
4044.699	-113.5
4047.172	-110.5
4049.643	-114.5
4052.112	-117.5
4054.58	-113.5
4057.046	-110.5
4059.51	-114.5
4061.972	-112.5
4064.432	-116.5
4066.891	-112.5
4069.348	-112.5
4071.803	-113.5
4074.256	-114.5
4076.708	-112.5
4079.158	-113.5
4081.606	-112.5
4084.052	-115.5
4086.497	-108.5
4088.939	-108.5
4091.38	-110.5
4093.819	-112.5
4096.257	-115.5
4098.693	-114.5
4101.127	-112.5
4103.559	-114.5
4105.989	-70.5
4108.418	-65.5
4110.845	-69.5
4113.27	-61.5
4115.694	-52.5
4118.115	-45.5
4120.535	-114.5
4122.954	-110.5
4125.37	-114.5
4127.785	-114.5
4130.198	-114.5
4132.609	-112.5
4135.019	-118.5
4137.427	-117.5
4139.833	-116.5
4142.237	-116.5
