Data from Bsub_water_DIL104_A_1_RamanShift_1.txt Node
Date: Wed Feb 22 12:56:41 IST 2017
User: aro
Spectrometer: QEPB0276
Trigger mode: 0
Integration Time (sec): 5.000000E0
Scans to average: 1
Electric dark correction enabled: true
Nonlinearity correction enabled: false
Boxcar width: 0
XAxis mode: Raman Shifts
Number of Pixels in Spectrum: 1044
>>>>>Begin Spectral Data<<<<<
160.701	-31.75
166.742	2.25
172.777	95.25
178.805	406.25
184.826	1130.25
190.841	2359.25
196.849	3755.25
202.85	4680.25
208.845	4912.25
214.833	4716.25
220.815	4525.25
226.789	4358.25
232.758	4236.25
238.719	4103.25
244.674	3872.25
250.623	3708.25
256.565	3538.25
262.5	3372.25
268.429	3179.25
274.351	3036.25
280.267	2897.25
286.176	2794.25
292.079	2689.25
297.975	2590.25
303.865	2503.25
309.748	2440.25
315.625	2357.25
321.495	2291.25
327.359	2263.25
333.217	2225.25
339.068	2227.25
344.912	2193.25
350.751	2184.25
356.583	2193.25
362.408	2177.25
368.227	2194.25
374.04	2189.25
379.847	2189.25
385.647	2205.25
391.44	2213.25
397.228	2238.25
403.009	2239.25
408.784	2254.25
414.553	2246.25
420.315	2250.25
426.071	2263.25
431.821	2274.25
437.565	2241.25
443.302	2266.25
449.033	2240.25
454.758	2244.25
460.477	2231.25
466.189	2200.25
471.896	2190.25
477.596	2190.25
483.29	2165.25
488.978	2154.25
494.66	2131.25
500.335	2101.25
506.005	2064.25
511.668	2043.25
517.325	1996.25
522.977	1963.25
528.622	1934.25
534.261	1896.25
539.894	1867.25
545.521	1847.25
551.141	1820.25
556.756	1817.25
562.365	1805.25
567.968	1812.25
573.565	1791.25
579.155	1787.25
584.74	1726.25
590.319	1730.25
595.892	1735.25
601.459	1718.25
607.02	1703.25
612.575	1677.25
618.124	1667.25
623.667	1645.25
629.204	1632.25
634.735	1586.25
640.261	1587.25
645.781	1591.25
651.294	1565.25
656.802	1567.25
662.304	1538.25
667.8	1551.25
673.29	1528.25
678.775	1537.25
684.254	1520.25
689.726	1498.25
695.193	1488.25
700.655	1478.25
706.11	1466.25
711.56	1465.25
717.004	1433.25
722.442	1428.25
727.874	1421.25
733.301	1425.25
738.722	1411.25
744.137	1391.25
749.547	1394.25
754.951	1385.25
760.349	1387.25
765.741	1384.25
771.128	1376.25
776.509	1370.25
781.885	1378.25
787.254	1363.25
792.618	1346.25
797.977	1341.25
803.33	1319.25
808.677	1308.25
814.019	1300.25
819.355	1290.25
824.686	1263.25
830.011	1264.25
835.33	1253.25
840.644	1225.25
845.952	1226.25
851.255	1205.25
856.552	1205.25
861.844	1185.25
867.13	1179.25
872.41	1162.25
877.686	1143.25
882.955	1133.25
888.219	1110.25
893.478	1075.25
898.731	1067.25
903.979	1044.25
909.221	1038.25
914.458	1029.25
919.69	1004.25
924.916	1005.25
930.136	1004.25
935.351	994.25
940.561	994.25
945.766	980.25
950.965	976.25
956.158	954.25
961.347	953.25
966.529	933.25
971.707	917.25
976.879	893.25
982.046	883.25
987.208	882.25
992.364	892.25
997.515	894.25
1002.66	887.25
1007.801	897.25
1012.936	900.25
1018.066	905.25
1023.19	915.25
1028.309	910.25
1033.423	905.25
1038.532	901.25
1043.636	885.25
1048.734	867.25
1053.827	871.25
1058.915	860.25
1063.998	853.25
1069.075	856.25
1074.147	861.25
1079.214	858.25
1084.276	856.25
1089.333	875.25
1094.385	869.25
1099.431	861.25
1104.472	868.25
1109.509	864.25
1114.54	842.25
1119.565	837.25
1124.586	817.25
1129.602	804.25
1134.613	817.25
1139.618	801.25
1144.619	810.25
1149.614	807.25
1154.604	820.25
1159.589	826.25
1164.57	817.25
1169.545	830.25
1174.515	829.25
1179.48	813.25
1184.44	815.25
1189.395	813.25
1194.345	812.25
1199.29	805.25
1204.23	804.25
1209.165	799.25
1214.095	801.25
1219.021	813.25
1223.941	837.25
1228.856	818.25
1233.766	824.25
1238.672	822.25
1243.572	814.25
1248.467	817.25
1253.358	810.25
1258.244	793.25
1263.124	791.25
1268	764.25
1272.871	761.25
1277.737	756.25
1282.599	742.25
1287.455	762.25
1292.306	758.25
1297.153	748.25
1301.995	773.25
1306.832	771.25
1311.664	767.25
1316.491	765.25
1321.314	762.25
1326.132	749.25
1330.945	739.25
1335.753	717.25
1340.556	709.25
1345.354	694.25
1350.148	685.25
1354.937	682.25
1359.722	670.25
1364.501	677.25
1369.276	703.25
1374.046	698.25
1378.811	713.25
1383.572	721.25
1388.327	708.25
1393.079	702.25
1397.825	691.25
1402.567	677.25
1407.304	662.25
1412.036	656.25
1416.764	650.25
1421.487	648.25
1426.205	656.25
1430.919	643.25
1435.628	660.25
1440.333	659.25
1445.032	678.25
1449.727	680.25
1454.418	670.25
1459.104	674.25
1463.785	667.25
1468.462	666.25
1473.134	660.25
1477.802	646.25
1482.465	635.25
1487.123	632.25
1491.777	644.25
1496.426	647.25
1501.071	665.25
1505.711	672.25
1510.347	692.25
1514.978	700.25
1519.604	717.25
1524.226	710.25
1528.844	728.25
1533.457	739.25
1538.065	727.25
1542.669	735.25
1547.269	729.25
1551.864	745.25
1556.454	741.25
1561.041	758.25
1565.622	781.25
1570.199	782.25
1574.772	806.25
1579.34	813.25
1583.904	839.25
1588.464	856.25
1593.019	872.25
1597.569	892.25
1602.115	899.25
1606.657	926.25
1611.195	934.25
1615.728	957.25
1620.256	968.25
1624.78	993.25
1629.3	1001.25
1633.816	1032.25
1638.327	1054.25
1642.834	1066.25
1647.336	1076.25
1651.834	1082.25
1656.328	1069.25
1660.817	1066.25
1665.302	1044.25
1669.783	1007.25
1674.259	969.25
1678.732	925.25
1683.199	885.25
1687.663	842.25
1692.122	774.25
1696.577	757.25
1701.028	733.25
1705.474	717.25
1709.917	696.25
1714.355	660.25
1718.788	633.25
1723.218	618.25
1727.643	574.25
1732.064	568.25
1736.481	527.25
1740.893	515.25
1745.301	486.25
1749.705	466.25
1754.105	446.25
1758.501	437.25
1762.893	409.25
1767.28	406.25
1771.663	401.25
1776.042	387.25
1780.417	387.25
1784.787	376.25
1789.154	389.25
1793.516	393.25
1797.874	385.25
1802.228	394.25
1806.578	394.25
1810.924	390.25
1815.266	372.25
1819.603	375.25
1823.937	362.25
1828.266	357.25
1832.591	353.25
1836.913	342.25
1841.23	335.25
1845.543	332.25
1849.852	335.25
1854.156	332.25
1858.457	328.25
1862.754	336.25
1867.047	336.25
1871.335	334.25
1875.62	328.25
1879.9	334.25
1884.177	327.25
1888.449	332.25
1892.718	325.25
1896.982	328.25
1901.243	322.25
1905.499	321.25
1909.752	317.25
1914	316.25
1918.245	324.25
1922.485	327.25
1926.722	335.25
1930.954	336.25
1935.183	340.25
1939.408	353.25
1943.628	354.25
1947.845	352.25
1952.058	353.25
1956.267	349.25
1960.472	347.25
1964.673	343.25
1968.87	343.25
1973.063	343.25
1977.252	337.25
1981.438	332.25
1985.619	328.25
1989.797	336.25
1993.971	338.25
1998.14	334.25
2002.306	340.25
2006.469	337.25
2010.627	349.25
2014.781	336.25
2018.932	344.25
2023.078	343.25
2027.221	343.25
2031.36	335.25
2035.495	343.25
2039.627	328.25
2043.754	329.25
2047.878	333.25
2051.998	323.25
2056.114	332.25
2060.226	336.25
2064.334	343.25
2068.439	347.25
2072.54	342.25
2076.637	359.25
2080.73	352.25
2084.82	351.25
2088.906	368.25
2092.988	357.25
2097.066	366.25
2101.14	356.25
2105.211	364.25
2109.278	357.25
2113.342	348.25
2117.401	355.25
2121.457	357.25
2125.509	345.25
2129.558	355.25
2133.602	342.25
2137.643	342.25
2141.681	352.25
2145.714	335.25
2149.744	331.25
2153.77	335.25
2157.793	333.25
2161.812	318.25
2165.827	319.25
2169.838	313.25
2173.846	305.25
2177.851	290.25
2181.851	298.25
2185.848	283.25
2189.841	274.25
2193.831	291.25
2197.817	284.25
2201.799	273.25
2205.778	272.25
2209.753	270.25
2213.725	267.25
2217.693	272.25
2221.657	264.25
2225.618	269.25
2229.575	253.25
2233.529	250.25
2237.479	254.25
2241.425	246.25
2245.368	242.25
2249.307	233.25
2253.243	235.25
2257.175	221.25
2261.104	229.25
2265.029	228.25
2268.95	219.25
2272.868	213.25
2276.783	210.25
2280.694	201.25
2284.601	197.25
2288.505	196.25
2292.405	190.25
2296.302	198.25
2300.195	185.25
2304.085	180.25
2307.971	173.25
2311.854	174.25
2315.734	158.25
2319.609	160.25
2323.482	154.25
2327.351	151.25
2331.216	154.25
2335.078	163.25
2338.937	151.25
2342.792	151.25
2346.643	149.25
2350.492	142.25
2354.336	142.25
2358.178	142.25
2362.015	141.25
2365.85	141.25
2369.681	141.25
2373.508	138.25
2377.333	137.25
2381.153	144.25
2384.971	142.25
2388.785	137.25
2392.595	134.25
2396.402	129.25
2400.206	117.25
2404.007	122.25
2407.804	119.25
2411.597	119.25
2415.388	119.25
2419.174	117.25
2422.958	117.25
2426.738	115.25
2430.515	120.25
2434.289	120.25
2438.059	117.25
2441.825	111.25
2445.589	110.25
2449.349	109.25
2453.106	106.25
2456.859	105.25
2460.61	102.25
2464.356	101.25
2468.1	105.25
2471.84	103.25
2475.577	95.25
2479.311	99.25
2483.041	94.25
2486.768	92.25
2490.492	98.25
2494.213	100.25
2497.93	103.25
2501.644	99.25
2505.355	94.25
2509.062	99.25
2512.766	94.25
2516.467	97.25
2520.165	84.25
2523.859	97.25
2527.551	84.25
2531.239	83.25
2534.923	90.25
2538.605	88.25
2542.283	87.25
2545.958	88.25
2549.63	85.25
2553.299	86.25
2556.964	86.25
2560.626	78.25
2564.285	81.25
2567.941	84.25
2571.594	78.25
2575.243	88.25
2578.89	78.25
2582.533	76.25
2586.173	80.25
2589.809	70.25
2593.443	73.25
2597.073	70.25
2600.701	65.25
2604.325	70.25
2607.946	67.25
2611.564	72.25
2615.178	69.25
2618.79	73.25
2622.398	74.25
2626.004	65.25
2629.606	68.25
2633.205	66.25
2636.801	66.25
2640.394	62.25
2643.983	61.25
2647.57	60.25
2651.153	60.25
2654.734	54.25
2658.311	57.25
2661.885	53.25
2665.456	54.25
2669.025	53.25
2672.589	58.25
2676.151	54.25
2679.71	53.25
2683.266	49.25
2686.819	50.25
2690.368	48.25
2693.915	48.25
2697.458	46.25
2700.999	41.25
2704.536	43.25
2708.071	43.25
2711.602	40.25
2715.13	40.25
2718.656	43.25
2722.178	41.25
2725.697	37.25
2729.214	43.25
2732.727	49.25
2736.237	46.25
2739.744	53.25
2743.249	47.25
2746.75	48.25
2750.248	54.25
2753.743	53.25
2757.236	55.25
2760.725	52.25
2764.211	56.25
2767.695	55.25
2771.175	59.25
2774.652	58.25
2778.127	66.25
2781.598	57.25
2785.067	57.25
2788.532	57.25
2791.995	63.25
2795.455	55.25
2798.911	65.25
2802.365	70.25
2805.816	67.25
2809.264	68.25
2812.709	77.25
2816.151	74.25
2819.59	66.25
2823.026	73.25
2826.46	76.25
2829.89	73.25
2833.318	74.25
2836.742	80.25
2840.164	83.25
2843.583	92.25
2846.999	95.25
2850.412	97.25
2853.822	95.25
2857.229	89.25
2860.634	102.25
2864.035	106.25
2867.434	108.25
2870.83	115.25
2874.223	117.25
2877.613	121.25
2881	122.25
2884.385	126.25
2887.766	127.25
2891.145	129.25
2894.521	134.25
2897.894	137.25
2901.264	139.25
2904.631	146.25
2907.996	141.25
2911.358	148.25
2914.717	151.25
2918.073	155.25
2921.426	167.25
2924.777	172.25
2928.124	174.25
2931.469	183.25
2934.811	188.25
2938.15	191.25
2941.487	199.25
2944.821	205.25
2948.152	216.25
2951.48	211.25
2954.805	218.25
2958.128	225.25
2961.447	229.25
2964.765	239.25
2968.079	258.25
2971.39	261.25
2974.699	267.25
2978.005	281.25
2981.308	290.25
2984.609	303.25
2987.907	312.25
2991.202	327.25
2994.494	345.25
2997.784	352.25
3001.07	368.25
3004.355	382.25
3007.636	386.25
3010.915	398.25
3014.191	415.25
3017.464	429.25
3020.734	453.25
3024.002	445.25
3027.267	466.25
3030.53	478.25
3033.789	481.25
3037.046	500.25
3040.301	497.25
3043.552	518.25
3046.801	539.25
3050.048	558.25
3053.291	568.25
3056.532	592.25
3059.771	610.25
3063.006	639.25
3066.239	656.25
3069.469	691.25
3072.697	700.25
3075.922	729.25
3079.144	745.25
3082.364	763.25
3085.581	787.25
3088.795	815.25
3092.007	821.25
3095.216	852.25
3098.423	884.25
3101.627	900.25
3104.828	918.25
3108.026	935.25
3111.222	978.25
3114.416	996.25
3117.607	1011.25
3120.795	1030.25
3123.98	1064.25
3127.163	1096.25
3130.344	1099.25
3133.521	1138.25
3136.696	1176.25
3139.869	1188.25
3143.039	1222.25
3146.206	1233.25
3149.371	1237.25
3152.533	1272.25
3155.693	1278.25
3158.85	1288.25
3162.005	1290.25
3165.157	1288.25
3168.306	1314.25
3171.453	1319.25
3174.597	1318.25
3177.739	1319.25
3180.878	1328.25
3184.014	1329.25
3187.149	1325.25
3190.28	1341.25
3193.409	1352.25
3196.536	1355.25
3199.659	1350.25
3202.781	1373.25
3205.9	1375.25
3209.016	1367.25
3212.13	1361.25
3215.241	1348.25
3218.35	1363.25
3221.456	1338.25
3224.56	1341.25
3227.661	1318.25
3230.76	1302.25
3233.856	1297.25
3236.95	1284.25
3240.041	1295.25
3243.13	1280.25
3246.216	1270.25
3249.3	1259.25
3252.382	1265.25
3255.46	1248.25
3258.537	1242.25
3261.611	1234.25
3264.682	1225.25
3267.751	1225.25
3270.818	1229.25
3273.882	1222.25
3276.943	1213.25
3280.002	1202.25
3283.059	1196.25
3286.113	1201.25
3289.165	1172.25
3292.214	1150.25
3295.261	1145.25
3298.306	1124.25
3301.348	1111.25
3304.387	1088.25
3307.425	1057.25
3310.459	1059.25
3313.492	1029.25
3316.521	1022.25
3319.549	1018.25
3322.574	1007.25
3325.597	1002.25
3328.617	985.25
3331.635	978.25
3334.65	985.25
3337.663	971.25
3340.674	970.25
3343.682	966.25
3346.688	968.25
3349.691	951.25
3352.692	959.25
3355.691	929.25
3358.687	925.25
3361.681	940.25
3364.673	926.25
3367.662	899.25
3370.649	888.25
3373.633	888.25
3376.615	869.25
3379.595	861.25
3382.572	854.25
3385.547	832.25
3388.52	821.25
3391.49	825.25
3394.458	798.25
3397.424	789.25
3400.387	794.25
3403.348	770.25
3406.307	763.25
3409.263	742.25
3412.217	749.25
3415.168	740.25
3418.118	740.25
3421.065	734.25
3424.009	724.25
3426.951	705.25
3429.891	700.25
3432.829	685.25
3435.764	677.25
3438.697	662.25
3441.628	643.25
3444.557	624.25
3447.483	617.25
3450.407	595.25
3453.328	580.25
3456.247	563.25
3459.164	550.25
3462.079	540.25
3464.991	530.25
3467.902	500.25
3470.809	488.25
3473.715	469.25
3476.618	462.25
3479.519	448.25
3482.418	431.25
3485.315	427.25
3488.209	417.25
3491.101	408.25
3493.99	392.25
3496.878	376.25
3499.763	368.25
3502.646	361.25
3505.527	343.25
3508.405	334.25
3511.281	318.25
3514.155	313.25
3517.027	302.25
3519.897	290.25
3522.764	263.25
3525.629	255.25
3528.492	246.25
3531.352	227.25
3534.211	218.25
3537.067	199.25
3539.921	191.25
3542.773	184.25
3545.622	177.25
3548.469	168.25
3551.315	157.25
3554.157	144.25
3556.998	144.25
3559.837	124.25
3562.673	121.25
3565.507	114.25
3568.339	100.25
3571.169	102.25
3573.996	92.25
3576.822	82.25
3579.645	78.25
3582.466	73.25
3585.285	68.25
3588.101	65.25
3590.916	54.25
3593.728	47.25
3596.538	43.25
3599.346	39.25
3602.152	31.25
3604.956	29.25
3607.757	24.25
3610.556	20.25
3613.354	12.25
3616.149	7.25
3618.942	8.25
3621.732	-0.75
3624.521	-4.75
3627.307	-7.75
3630.092	-16.75
3632.874	-16.75
3635.654	-16.75
3638.432	-17.75
3641.208	-22.75
3643.982	-29.75
3646.753	-24.75
3649.523	-29.75
3652.29	-31.75
3655.055	-39.75
3657.818	-42.75
3660.579	-43.75
3663.338	-47.75
3666.095	-47.75
3668.849	-55.75
3671.602	-55.75
3674.352	-62.75
3677.101	-60.75
3679.847	-64.75
3682.591	-67.75
3685.333	-70.75
3688.073	-71.75
3690.811	-73.75
3693.547	-76.75
3696.281	-75.75
3699.013	-76.75
3701.742	-76.75
3704.47	-79.75
3707.195	-81.75
3709.919	-83.75
3712.64	-86.75
3715.359	-86.75
3718.076	-90.75
3720.792	-91.75
3723.505	-88.75
3726.216	-87.75
3728.925	-90.75
3731.632	-93.75
3734.336	-94.75
3737.039	-90.75
3739.74	-92.75
3742.439	-98.75
3745.136	-97.75
3747.83	-100.75
3750.523	-100.75
3753.213	-99.75
3755.902	-103.75
3758.589	-100.75
3761.273	-105.75
3763.956	-100.75
3766.636	-100.75
3769.315	-102.75
3771.991	-101.75
3774.665	-104.75
3777.338	-104.75
3780.008	-102.75
3782.677	-103.75
3785.343	-113.75
3788.007	-105.75
3790.67	-106.75
3793.33	-105.75
3795.989	-105.75
3798.645	-104.75
3801.299	-108.75
3803.952	-107.75
3806.602	-109.75
3809.251	-109.75
3811.897	-106.75
3814.542	-107.75
3817.184	-108.75
3819.825	-103.75
3822.463	-110.75
3825.1	-107.75
3827.735	-109.75
3830.367	-112.75
3832.998	-113.75
3835.627	-116.75
3838.253	-113.75
3840.878	-111.75
3843.501	-109.75
3846.122	-112.75
3848.741	-108.75
3851.358	-111.75
3853.973	-108.75
3856.586	-110.75
3859.197	-109.75
3861.806	-117.75
3864.414	-115.75
3867.019	-114.75
3869.622	-113.75
3872.224	-111.75
3874.823	-107.75
3877.421	-103.75
3880.016	-107.75
3882.61	-102.75
3885.202	-104.75
3887.792	-102.75
3890.38	-106.75
3892.966	-109.75
3895.55	-110.75
3898.132	-108.75
3900.713	-111.75
3903.291	-113.75
3905.868	-110.75
3908.442	-112.75
3911.015	-115.75
3913.586	-116.75
3916.155	-119.75
3918.722	-114.75
3921.287	-112.75
3923.85	-113.75
3926.411	-116.75
3928.971	-114.75
3931.528	-109.75
3934.084	-112.75
3936.638	-114.75
3939.19	-114.75
3941.74	-116.75
3944.288	-116.75
3946.834	-117.75
3949.378	-119.75
3951.921	-114.75
3954.462	-115.75
3957	-115.75
3959.537	-109.75
3962.072	-114.75
3964.606	-114.75
3967.137	-112.75
3969.667	-109.75
3972.194	-116.75
3974.72	-112.75
3977.244	-113.75
3979.766	-110.75
3982.286	-111.75
3984.805	-112.75
3987.321	-111.75
3989.836	-116.75
3992.349	-114.75
3994.86	-118.75
3997.369	-113.75
3999.877	-116.75
4002.382	-113.75
4004.886	-107.75
4007.388	-108.75
4009.888	-116.75
4012.386	-107.75
4014.883	-109.75
4017.377	-112.75
4019.87	-117.75
4022.361	-115.75
4024.85	-116.75
4027.338	-118.75
4029.823	-117.75
4032.307	-115.75
4034.789	-113.75
4037.269	-110.75
4039.747	-108.75
4042.224	-112.75
4044.699	-115.75
4047.172	-112.75
4049.643	-115.75
4052.112	-121.75
4054.58	-114.75
4057.046	-112.75
4059.51	-115.75
4061.972	-113.75
4064.432	-114.75
4066.891	-112.75
4069.348	-115.75
4071.803	-116.75
4074.256	-114.75
4076.708	-113.75
4079.158	-115.75
4081.606	-114.75
4084.052	-114.75
4086.497	-115.75
4088.939	-111.75
4091.38	-113.75
4093.819	-116.75
4096.257	-117.75
4098.693	-118.75
4101.127	-120.75
4103.559	-119.75
4105.989	-75.75
4108.418	-71.75
4110.845	-66.75
4113.27	-59.75
4115.694	-53.75
4118.115	-46.75
4120.535	-112.75
4122.954	-112.75
4125.37	-116.75
4127.785	-117.75
4130.198	-120.75
4132.609	-114.75
4135.019	-118.75
4137.427	-118.75
4139.833	-117.75
4142.237	-116.75
