Data from Bsub_water_DIL105_A_2_RamanShift_1.txt Node
Date: Wed Feb 22 12:54:21 IST 2017
User: aro
Spectrometer: QEPB0276
Trigger mode: 0
Integration Time (sec): 5.000000E0
Scans to average: 1
Electric dark correction enabled: true
Nonlinearity correction enabled: false
Boxcar width: 0
XAxis mode: Raman Shifts
Number of Pixels in Spectrum: 1044
>>>>>Begin Spectral Data<<<<<
160.701	-28.88
166.742	2.12
172.777	95.12
178.805	389.12
184.826	1091.12
190.841	2242.12
196.849	3569.12
202.85	4466.12
208.845	4670.12
214.833	4529.12
220.815	4371.12
226.789	4273.12
232.758	4165.12
238.719	4061.12
244.674	3919.12
250.623	3734.12
256.565	3559.12
262.5	3467.12
268.429	3308.12
274.351	3151.12
280.267	3084.12
286.176	2973.12
292.079	2873.12
297.975	2803.12
303.865	2750.12
309.748	2661.12
315.625	2580.12
321.495	2554.12
327.359	2520.12
333.217	2494.12
339.068	2480.12
344.912	2474.12
350.751	2451.12
356.583	2436.12
362.408	2446.12
368.227	2468.12
374.04	2461.12
379.847	2457.12
385.647	2490.12
391.44	2499.12
397.228	2498.12
403.009	2519.12
408.784	2528.12
414.553	2534.12
420.315	2531.12
426.071	2557.12
431.821	2550.12
437.565	2561.12
443.302	2555.12
449.033	2536.12
454.758	2538.12
460.477	2539.12
466.189	2514.12
471.896	2503.12
477.596	2511.12
483.29	2502.12
488.978	2468.12
494.66	2470.12
500.335	2434.12
506.005	2410.12
511.668	2370.12
517.325	2322.12
522.977	2315.12
528.622	2294.12
534.261	2253.12
539.894	2234.12
545.521	2216.12
551.141	2222.12
556.756	2196.12
562.365	2183.12
567.968	2187.12
573.565	2158.12
579.155	2160.12
584.74	2138.12
590.319	2130.12
595.892	2127.12
601.459	2119.12
607.02	2106.12
612.575	2101.12
618.124	2039.12
623.667	2060.12
629.204	2031.12
634.735	2003.12
640.261	1992.12
645.781	2005.12
651.294	1980.12
656.802	1968.12
662.304	1964.12
667.8	1974.12
673.29	1957.12
678.775	1947.12
684.254	1947.12
689.726	1943.12
695.193	1942.12
700.655	1918.12
706.11	1916.12
711.56	1903.12
717.004	1897.12
722.442	1890.12
727.874	1868.12
733.301	1873.12
738.722	1869.12
744.137	1855.12
749.547	1848.12
754.951	1854.12
760.349	1855.12
765.741	1830.12
771.128	1856.12
776.509	1835.12
781.885	1836.12
787.254	1850.12
792.618	1838.12
797.977	1824.12
803.33	1804.12
808.677	1783.12
814.019	1796.12
819.355	1767.12
824.686	1763.12
830.011	1746.12
835.33	1746.12
840.644	1729.12
845.952	1732.12
851.255	1739.12
856.552	1730.12
861.844	1716.12
867.13	1712.12
872.41	1712.12
877.686	1691.12
882.955	1698.12
888.219	1661.12
893.478	1618.12
898.731	1605.12
903.979	1593.12
909.221	1580.12
914.458	1555.12
919.69	1577.12
924.916	1550.12
930.136	1576.12
935.351	1576.12
940.561	1563.12
945.766	1561.12
950.965	1544.12
956.158	1545.12
961.347	1535.12
966.529	1500.12
971.707	1491.12
976.879	1474.12
982.046	1453.12
987.208	1450.12
992.364	1446.12
997.515	1461.12
1002.66	1465.12
1007.801	1491.12
1012.936	1486.12
1018.066	1513.12
1023.19	1509.12
1028.309	1512.12
1033.423	1509.12
1038.532	1508.12
1043.636	1493.12
1048.734	1481.12
1053.827	1466.12
1058.915	1447.12
1063.998	1442.12
1069.075	1447.12
1074.147	1451.12
1079.214	1431.12
1084.276	1457.12
1089.333	1467.12
1094.385	1483.12
1099.431	1478.12
1104.472	1497.12
1109.509	1477.12
1114.54	1468.12
1119.565	1456.12
1124.586	1428.12
1129.602	1438.12
1134.613	1417.12
1139.618	1412.12
1144.619	1397.12
1149.614	1411.12
1154.604	1420.12
1159.589	1420.12
1164.57	1443.12
1169.545	1430.12
1174.515	1451.12
1179.48	1434.12
1184.44	1428.12
1189.395	1414.12
1194.345	1407.12
1199.29	1399.12
1204.23	1406.12
1209.165	1419.12
1214.095	1418.12
1219.021	1429.12
1223.941	1443.12
1228.856	1458.12
1233.766	1447.12
1238.672	1464.12
1243.572	1443.12
1248.467	1464.12
1253.358	1433.12
1258.244	1418.12
1263.124	1389.12
1268	1386.12
1272.871	1373.12
1277.737	1347.12
1282.599	1353.12
1287.455	1350.12
1292.306	1355.12
1297.153	1363.12
1301.995	1379.12
1306.832	1377.12
1311.664	1389.12
1316.491	1380.12
1321.314	1380.12
1326.132	1360.12
1330.945	1336.12
1335.753	1306.12
1340.556	1290.12
1345.354	1256.12
1350.148	1246.12
1354.937	1232.12
1359.722	1248.12
1364.501	1257.12
1369.276	1285.12
1374.046	1296.12
1378.811	1326.12
1383.572	1320.12
1388.327	1326.12
1393.079	1311.12
1397.825	1286.12
1402.567	1261.12
1407.304	1242.12
1412.036	1237.12
1416.764	1228.12
1421.487	1218.12
1426.205	1209.12
1430.919	1222.12
1435.628	1235.12
1440.333	1251.12
1445.032	1261.12
1449.727	1251.12
1454.418	1247.12
1459.104	1258.12
1463.785	1240.12
1468.462	1241.12
1473.134	1219.12
1477.802	1221.12
1482.465	1218.12
1487.123	1198.12
1491.777	1227.12
1496.426	1203.12
1501.071	1249.12
1505.711	1250.12
1510.347	1282.12
1514.978	1291.12
1519.604	1301.12
1524.226	1324.12
1528.844	1315.12
1533.457	1325.12
1538.065	1328.12
1542.669	1320.12
1547.269	1324.12
1551.864	1318.12
1556.454	1304.12
1561.041	1320.12
1565.622	1334.12
1570.199	1347.12
1574.772	1351.12
1579.34	1387.12
1583.904	1397.12
1588.464	1406.12
1593.019	1406.12
1597.569	1426.12
1602.115	1436.12
1606.657	1437.12
1611.195	1449.12
1615.728	1460.12
1620.256	1469.12
1624.78	1487.12
1629.3	1507.12
1633.816	1519.12
1638.327	1531.12
1642.834	1551.12
1647.336	1580.12
1651.834	1565.12
1656.328	1558.12
1660.817	1553.12
1665.302	1535.12
1669.783	1505.12
1674.259	1472.12
1678.732	1429.12
1683.199	1388.12
1687.663	1321.12
1692.122	1284.12
1696.577	1260.12
1701.028	1236.12
1705.474	1235.12
1709.917	1212.12
1714.355	1212.12
1718.788	1178.12
1723.218	1142.12
1727.643	1110.12
1732.064	1104.12
1736.481	1078.12
1740.893	1043.12
1745.301	1016.12
1749.705	990.12
1754.105	951.12
1758.501	941.12
1762.893	922.12
1767.28	919.12
1771.663	904.12
1776.042	895.12
1780.417	899.12
1784.787	901.12
1789.154	919.12
1793.516	920.12
1797.874	921.12
1802.228	928.12
1806.578	937.12
1810.924	928.12
1815.266	912.12
1819.603	913.12
1823.937	897.12
1828.266	886.12
1832.591	856.12
1836.913	852.12
1841.23	849.12
1845.543	839.12
1849.852	832.12
1854.156	842.12
1858.457	832.12
1862.754	835.12
1867.047	846.12
1871.335	835.12
1875.62	838.12
1879.9	863.12
1884.177	838.12
1888.449	845.12
1892.718	826.12
1896.982	825.12
1901.243	829.12
1905.499	832.12
1909.752	821.12
1914	825.12
1918.245	834.12
1922.485	845.12
1926.722	830.12
1930.954	849.12
1935.183	854.12
1939.408	860.12
1943.628	856.12
1947.845	858.12
1952.058	856.12
1956.267	863.12
1960.472	848.12
1964.673	853.12
1968.87	840.12
1973.063	826.12
1977.252	824.12
1981.438	815.12
1985.619	811.12
1989.797	800.12
1993.971	802.12
1998.14	810.12
2002.306	807.12
2006.469	803.12
2010.627	807.12
2014.781	822.12
2018.932	808.12
2023.078	800.12
2027.221	813.12
2031.36	792.12
2035.495	793.12
2039.627	773.12
2043.754	790.12
2047.878	779.12
2051.998	779.12
2056.114	773.12
2060.226	768.12
2064.334	786.12
2068.439	788.12
2072.54	785.12
2076.637	794.12
2080.73	797.12
2084.82	806.12
2088.906	797.12
2092.988	802.12
2097.066	808.12
2101.14	791.12
2105.211	785.12
2109.278	788.12
2113.342	775.12
2117.401	782.12
2121.457	785.12
2125.509	769.12
2129.558	775.12
2133.602	771.12
2137.643	772.12
2141.681	768.12
2145.714	757.12
2149.744	758.12
2153.77	764.12
2157.793	752.12
2161.812	740.12
2165.827	733.12
2169.838	718.12
2173.846	711.12
2177.851	700.12
2181.851	687.12
2185.848	660.12
2189.841	657.12
2193.831	663.12
2197.817	659.12
2201.799	654.12
2205.778	662.12
2209.753	640.12
2213.725	651.12
2217.693	648.12
2221.657	659.12
2225.618	644.12
2229.575	647.12
2233.529	644.12
2237.479	638.12
2241.425	633.12
2245.368	620.12
2249.307	601.12
2253.243	605.12
2257.175	585.12
2261.104	594.12
2265.029	587.12
2268.95	590.12
2272.868	572.12
2276.783	558.12
2280.694	559.12
2284.601	552.12
2288.505	546.12
2292.405	544.12
2296.302	544.12
2300.195	524.12
2304.085	533.12
2307.971	513.12
2311.854	514.12
2315.734	497.12
2319.609	496.12
2323.482	483.12
2327.351	481.12
2331.216	469.12
2335.078	469.12
2338.937	472.12
2342.792	463.12
2346.643	467.12
2350.492	457.12
2354.336	462.12
2358.178	453.12
2362.015	456.12
2365.85	457.12
2369.681	459.12
2373.508	453.12
2377.333	455.12
2381.153	448.12
2384.971	454.12
2388.785	454.12
2392.595	449.12
2396.402	439.12
2400.206	431.12
2404.007	434.12
2407.804	429.12
2411.597	429.12
2415.388	434.12
2419.174	434.12
2422.958	431.12
2426.738	438.12
2430.515	422.12
2434.289	420.12
2438.059	418.12
2441.825	408.12
2445.589	412.12
2449.349	408.12
2453.106	409.12
2456.859	402.12
2460.61	403.12
2464.356	397.12
2468.1	398.12
2471.84	383.12
2475.577	390.12
2479.311	379.12
2483.041	388.12
2486.768	385.12
2490.492	387.12
2494.213	384.12
2497.93	392.12
2501.644	384.12
2505.355	379.12
2509.062	386.12
2512.766	379.12
2516.467	383.12
2520.165	369.12
2523.859	375.12
2527.551	377.12
2531.239	374.12
2534.923	384.12
2538.605	362.12
2542.283	369.12
2545.958	367.12
2549.63	354.12
2553.299	356.12
2556.964	355.12
2560.626	350.12
2564.285	349.12
2567.941	351.12
2571.594	345.12
2575.243	349.12
2578.89	347.12
2582.533	339.12
2586.173	344.12
2589.809	335.12
2593.443	333.12
2597.073	337.12
2600.701	332.12
2604.325	334.12
2607.946	318.12
2611.564	325.12
2615.178	327.12
2618.79	327.12
2622.398	314.12
2626.004	321.12
2629.606	314.12
2633.205	316.12
2636.801	326.12
2640.394	312.12
2643.983	312.12
2647.57	301.12
2651.153	292.12
2654.734	301.12
2658.311	289.12
2661.885	291.12
2665.456	288.12
2669.025	280.12
2672.589	282.12
2676.151	266.12
2679.71	272.12
2683.266	272.12
2686.819	271.12
2690.368	270.12
2693.915	265.12
2697.458	254.12
2700.999	259.12
2704.536	256.12
2708.071	248.12
2711.602	241.12
2715.13	249.12
2718.656	241.12
2722.178	235.12
2725.697	245.12
2729.214	238.12
2732.727	239.12
2736.237	241.12
2739.744	251.12
2743.249	250.12
2746.75	252.12
2750.248	251.12
2753.743	251.12
2757.236	254.12
2760.725	260.12
2764.211	241.12
2767.695	254.12
2771.175	259.12
2774.652	254.12
2778.127	249.12
2781.598	247.12
2785.067	243.12
2788.532	242.12
2791.995	242.12
2795.455	244.12
2798.911	255.12
2802.365	244.12
2805.816	242.12
2809.264	251.12
2812.709	250.12
2816.151	243.12
2819.59	251.12
2823.026	252.12
2826.46	247.12
2829.89	237.12
2833.318	244.12
2836.742	239.12
2840.164	253.12
2843.583	249.12
2846.999	248.12
2850.412	253.12
2853.822	256.12
2857.229	253.12
2860.634	250.12
2864.035	256.12
2867.434	258.12
2870.83	270.12
2874.223	266.12
2877.613	266.12
2881	273.12
2884.385	265.12
2887.766	274.12
2891.145	270.12
2894.521	273.12
2897.894	269.12
2901.264	271.12
2904.631	268.12
2907.996	267.12
2911.358	266.12
2914.717	277.12
2918.073	278.12
2921.426	284.12
2924.777	293.12
2928.124	281.12
2931.469	295.12
2934.811	290.12
2938.15	299.12
2941.487	308.12
2944.821	308.12
2948.152	312.12
2951.48	313.12
2954.805	322.12
2958.128	325.12
2961.447	334.12
2964.765	340.12
2968.079	345.12
2971.39	349.12
2974.699	357.12
2978.005	362.12
2981.308	375.12
2984.609	387.12
2987.907	403.12
2991.202	413.12
2994.494	420.12
2997.784	429.12
3001.07	442.12
3004.355	454.12
3007.636	466.12
3010.915	471.12
3014.191	486.12
3017.464	482.12
3020.734	489.12
3024.002	506.12
3027.267	519.12
3030.53	522.12
3033.789	534.12
3037.046	529.12
3040.301	524.12
3043.552	554.12
3046.801	577.12
3050.048	577.12
3053.291	589.12
3056.532	617.12
3059.771	626.12
3063.006	650.12
3066.239	669.12
3069.469	692.12
3072.697	706.12
3075.922	718.12
3079.144	730.12
3082.364	754.12
3085.581	772.12
3088.795	788.12
3092.007	792.12
3095.216	826.12
3098.423	837.12
3101.627	862.12
3104.828	862.12
3108.026	898.12
3111.222	918.12
3114.416	920.12
3117.607	957.12
3120.795	969.12
3123.98	1004.12
3127.163	1027.12
3130.344	1030.12
3133.521	1069.12
3136.696	1088.12
3139.869	1117.12
3143.039	1139.12
3146.206	1145.12
3149.371	1155.12
3152.533	1166.12
3155.693	1166.12
3158.85	1185.12
3162.005	1190.12
3165.157	1194.12
3168.306	1194.12
3171.453	1214.12
3174.597	1196.12
3177.739	1216.12
3180.878	1214.12
3184.014	1211.12
3187.149	1227.12
3190.28	1227.12
3193.409	1223.12
3196.536	1229.12
3199.659	1209.12
3202.781	1239.12
3205.9	1243.12
3209.016	1238.12
3212.13	1226.12
3215.241	1243.12
3218.35	1217.12
3221.456	1222.12
3224.56	1204.12
3227.661	1195.12
3230.76	1186.12
3233.856	1177.12
3236.95	1170.12
3240.041	1166.12
3243.13	1143.12
3246.216	1150.12
3249.3	1141.12
3252.382	1135.12
3255.46	1128.12
3258.537	1128.12
3261.611	1124.12
3264.682	1114.12
3267.751	1116.12
3270.818	1113.12
3273.882	1111.12
3276.943	1102.12
3280.002	1091.12
3283.059	1081.12
3286.113	1072.12
3289.165	1052.12
3292.214	1031.12
3295.261	1022.12
3298.306	1011.12
3301.348	986.12
3304.387	976.12
3307.425	975.12
3310.459	946.12
3313.492	946.12
3316.521	934.12
3319.549	911.12
3322.574	890.12
3325.597	899.12
3328.617	879.12
3331.635	879.12
3334.65	872.12
3337.663	873.12
3340.674	867.12
3343.682	874.12
3346.688	855.12
3349.691	846.12
3352.692	851.12
3355.691	842.12
3358.687	835.12
3361.681	825.12
3364.673	817.12
3367.662	791.12
3370.649	793.12
3373.633	788.12
3376.615	777.12
3379.595	757.12
3382.572	749.12
3385.547	749.12
3388.52	734.12
3391.49	721.12
3394.458	707.12
3397.424	701.12
3400.387	702.12
3403.348	693.12
3406.307	686.12
3409.263	681.12
3412.217	670.12
3415.168	666.12
3418.118	655.12
3421.065	665.12
3424.009	643.12
3426.951	636.12
3429.891	616.12
3432.829	615.12
3435.764	602.12
3438.697	588.12
3441.628	566.12
3444.557	553.12
3447.483	542.12
3450.407	533.12
3453.328	527.12
3456.247	501.12
3459.164	492.12
3462.079	479.12
3464.991	470.12
3467.902	448.12
3470.809	431.12
3473.715	420.12
3476.618	414.12
3479.519	408.12
3482.418	389.12
3485.315	375.12
3488.209	373.12
3491.101	364.12
3493.99	353.12
3496.878	337.12
3499.763	340.12
3502.646	321.12
3505.527	307.12
3508.405	298.12
3511.281	292.12
3514.155	274.12
3517.027	254.12
3519.897	248.12
3522.764	241.12
3525.629	226.12
3528.492	212.12
3531.352	202.12
3534.211	200.12
3537.067	180.12
3539.921	178.12
3542.773	161.12
3545.622	153.12
3548.469	140.12
3551.315	134.12
3554.157	131.12
3556.998	129.12
3559.837	111.12
3562.673	105.12
3565.507	102.12
3568.339	94.12
3571.169	89.12
3573.996	83.12
3576.822	75.12
3579.645	70.12
3582.466	66.12
3585.285	59.12
3588.101	51.12
3590.916	52.12
3593.728	37.12
3596.538	39.12
3599.346	34.12
3602.152	22.12
3604.956	24.12
3607.757	10.12
3610.556	9.12
3613.354	12.12
3616.149	5.12
3618.942	4.12
3621.732	-1.88
3624.521	-9.88
3627.307	-8.88
3630.092	-13.88
3632.874	-11.88
3635.654	-25.88
3638.432	-22.88
3641.208	-27.88
3643.982	-29.88
3646.753	-28.88
3649.523	-29.88
3652.29	-31.88
3655.055	-37.88
3657.818	-44.88
3660.579	-44.88
3663.338	-41.88
3666.095	-48.88
3668.849	-56.88
3671.602	-53.88
3674.352	-58.88
3677.101	-59.88
3679.847	-61.88
3682.591	-62.88
3685.333	-64.88
3688.073	-65.88
3690.811	-72.88
3693.547	-70.88
3696.281	-72.88
3699.013	-69.88
3701.742	-68.88
3704.47	-68.88
3707.195	-77.88
3709.919	-77.88
3712.64	-81.88
3715.359	-81.88
3718.076	-83.88
3720.792	-82.88
3723.505	-86.88
3726.216	-85.88
3728.925	-85.88
3731.632	-87.88
3734.336	-88.88
3737.039	-85.88
3739.74	-87.88
3742.439	-90.88
3745.136	-90.88
3747.83	-89.88
3750.523	-91.88
3753.213	-93.88
3755.902	-99.88
3758.589	-95.88
3761.273	-94.88
3763.956	-95.88
3766.636	-97.88
3769.315	-93.88
3771.991	-95.88
3774.665	-96.88
3777.338	-96.88
3780.008	-93.88
3782.677	-94.88
3785.343	-99.88
3788.007	-98.88
3790.67	-100.88
3793.33	-104.88
3795.989	-100.88
3798.645	-100.88
3801.299	-102.88
3803.952	-104.88
3806.602	-101.88
3809.251	-102.88
3811.897	-104.88
3814.542	-102.88
3817.184	-100.88
3819.825	-99.88
3822.463	-99.88
3825.1	-102.88
3827.735	-101.88
3830.367	-102.88
3832.998	-107.88
3835.627	-107.88
3838.253	-108.88
3840.878	-108.88
3843.501	-106.88
3846.122	-109.88
3848.741	-104.88
3851.358	-101.88
3853.973	-101.88
3856.586	-105.88
3859.197	-107.88
3861.806	-107.88
3864.414	-109.88
3867.019	-104.88
3869.622	-105.88
3872.224	-108.88
3874.823	-108.88
3877.421	-98.88
3880.016	-100.88
3882.61	-96.88
3885.202	-96.88
3887.792	-99.88
3890.38	-102.88
3892.966	-105.88
3895.55	-103.88
3898.132	-105.88
3900.713	-108.88
3903.291	-105.88
3905.868	-105.88
3908.442	-107.88
3911.015	-108.88
3913.586	-108.88
3916.155	-112.88
3918.722	-112.88
3921.287	-108.88
3923.85	-109.88
3926.411	-109.88
3928.971	-108.88
3931.528	-105.88
3934.084	-108.88
3936.638	-106.88
3939.19	-108.88
3941.74	-107.88
3944.288	-110.88
3946.834	-111.88
3949.378	-113.88
3951.921	-109.88
3954.462	-111.88
3957	-113.88
3959.537	-106.88
3962.072	-109.88
3964.606	-109.88
3967.137	-106.88
3969.667	-105.88
3972.194	-110.88
3974.72	-104.88
3977.244	-108.88
3979.766	-110.88
3982.286	-109.88
3984.805	-108.88
3987.321	-108.88
3989.836	-110.88
3992.349	-109.88
3994.86	-113.88
3997.369	-112.88
3999.877	-111.88
4002.382	-105.88
4004.886	-106.88
4007.388	-106.88
4009.888	-110.88
4012.386	-106.88
4014.883	-106.88
4017.377	-105.88
4019.87	-110.88
4022.361	-107.88
4024.85	-112.88
4027.338	-111.88
4029.823	-114.88
4032.307	-109.88
4034.789	-107.88
4037.269	-107.88
4039.747	-105.88
4042.224	-107.88
4044.699	-110.88
4047.172	-107.88
4049.643	-110.88
4052.112	-115.88
4054.58	-108.88
4057.046	-111.88
4059.51	-109.88
4061.972	-105.88
4064.432	-108.88
4066.891	-107.88
4069.348	-110.88
4071.803	-115.88
4074.256	-111.88
4076.708	-113.88
4079.158	-113.88
4081.606	-110.88
4084.052	-111.88
4086.497	-108.88
4088.939	-110.88
4091.38	-104.88
4093.819	-108.88
4096.257	-112.88
4098.693	-112.88
4101.127	-110.88
4103.559	-111.88
4105.989	-69.88
4108.418	-64.88
4110.845	-67.88
4113.27	-58.88
4115.694	-54.88
4118.115	-43.88
4120.535	-109.88
4122.954	-107.88
4125.37	-111.88
4127.785	-110.88
4130.198	-114.88
4132.609	-110.88
4135.019	-115.88
4137.427	-115.88
4139.833	-113.88
4142.237	-111.88
