Data from Bsub_water_DIL10_B_3_RamanShift_1.txt Node
Date: Wed Feb 22 13:33:51 IST 2017
User: aro
Spectrometer: QEPB0276
Trigger mode: 0
Integration Time (sec): 5.000000E0
Scans to average: 1
Electric dark correction enabled: true
Nonlinearity correction enabled: false
Boxcar width: 0
XAxis mode: Raman Shifts
Number of Pixels in Spectrum: 1044
>>>>>Begin Spectral Data<<<<<
160.701	-26.75
166.742	1.25
172.777	94.25
178.805	357.25
184.826	1008.25
190.841	2103.25
196.849	3330.25
202.85	4189.25
208.845	4433.25
214.833	4280.25
220.815	4133.25
226.789	4004.25
232.758	3922.25
238.719	3802.25
244.674	3664.25
250.623	3512.25
256.565	3354.25
262.5	3200.25
268.429	3074.25
274.351	2956.25
280.267	2831.25
286.176	2761.25
292.079	2644.25
297.975	2575.25
303.865	2494.25
309.748	2419.25
315.625	2376.25
321.495	2331.25
327.359	2302.25
333.217	2273.25
339.068	2272.25
344.912	2251.25
350.751	2241.25
356.583	2240.25
362.408	2238.25
368.227	2237.25
374.04	2238.25
379.847	2246.25
385.647	2265.25
391.44	2273.25
397.228	2295.25
403.009	2308.25
408.784	2324.25
414.553	2336.25
420.315	2334.25
426.071	2329.25
431.821	2332.25
437.565	2343.25
443.302	2337.25
449.033	2333.25
454.758	2307.25
460.477	2318.25
466.189	2310.25
471.896	2276.25
477.596	2275.25
483.29	2275.25
488.978	2254.25
494.66	2260.25
500.335	2219.25
506.005	2173.25
511.668	2138.25
517.325	2117.25
522.977	2100.25
528.622	2067.25
534.261	2063.25
539.894	2034.25
545.521	2010.25
551.141	1992.25
556.756	1998.25
562.365	1982.25
567.968	1995.25
573.565	1966.25
579.155	1965.25
584.74	1949.25
590.319	1943.25
595.892	1937.25
601.459	1895.25
607.02	1897.25
612.575	1897.25
618.124	1863.25
623.667	1859.25
629.204	1818.25
634.735	1841.25
640.261	1817.25
645.781	1801.25
651.294	1795.25
656.802	1773.25
662.304	1777.25
667.8	1780.25
673.29	1757.25
678.775	1757.25
684.254	1778.25
689.726	1762.25
695.193	1771.25
700.655	1743.25
706.11	1740.25
711.56	1732.25
717.004	1718.25
722.442	1685.25
727.874	1668.25
733.301	1681.25
738.722	1681.25
744.137	1666.25
749.547	1676.25
754.951	1660.25
760.349	1662.25
765.741	1682.25
771.128	1676.25
776.509	1657.25
781.885	1668.25
787.254	1652.25
792.618	1646.25
797.977	1644.25
803.33	1633.25
808.677	1621.25
814.019	1604.25
819.355	1590.25
824.686	1575.25
830.011	1572.25
835.33	1563.25
840.644	1570.25
845.952	1532.25
851.255	1544.25
856.552	1530.25
861.844	1536.25
867.13	1538.25
872.41	1529.25
877.686	1520.25
882.955	1490.25
888.219	1480.25
893.478	1442.25
898.731	1438.25
903.979	1409.25
909.221	1405.25
914.458	1406.25
919.69	1393.25
924.916	1373.25
930.136	1381.25
935.351	1385.25
940.561	1384.25
945.766	1383.25
950.965	1357.25
956.158	1361.25
961.347	1323.25
966.529	1320.25
971.707	1308.25
976.879	1299.25
982.046	1276.25
987.208	1276.25
992.364	1285.25
997.515	1279.25
1002.66	1299.25
1007.801	1293.25
1012.936	1299.25
1018.066	1327.25
1023.19	1338.25
1028.309	1321.25
1033.423	1333.25
1038.532	1342.25
1043.636	1310.25
1048.734	1305.25
1053.827	1293.25
1058.915	1273.25
1063.998	1260.25
1069.075	1268.25
1074.147	1274.25
1079.214	1282.25
1084.276	1288.25
1089.333	1302.25
1094.385	1291.25
1099.431	1305.25
1104.472	1306.25
1109.509	1292.25
1114.54	1283.25
1119.565	1280.25
1124.586	1273.25
1129.602	1259.25
1134.613	1233.25
1139.618	1231.25
1144.619	1245.25
1149.614	1259.25
1154.604	1236.25
1159.589	1262.25
1164.57	1263.25
1169.545	1276.25
1174.515	1265.25
1179.48	1262.25
1184.44	1254.25
1189.395	1247.25
1194.345	1239.25
1199.29	1246.25
1204.23	1242.25
1209.165	1249.25
1214.095	1253.25
1219.021	1265.25
1223.941	1283.25
1228.856	1262.25
1233.766	1283.25
1238.672	1267.25
1243.572	1290.25
1248.467	1263.25
1253.358	1247.25
1258.244	1233.25
1263.124	1238.25
1268	1216.25
1272.871	1195.25
1277.737	1184.25
1282.599	1182.25
1287.455	1192.25
1292.306	1198.25
1297.153	1205.25
1301.995	1203.25
1306.832	1233.25
1311.664	1224.25
1316.491	1230.25
1321.314	1215.25
1326.132	1194.25
1330.945	1191.25
1335.753	1153.25
1340.556	1146.25
1345.354	1117.25
1350.148	1095.25
1354.937	1097.25
1359.722	1088.25
1364.501	1118.25
1369.276	1130.25
1374.046	1158.25
1378.811	1163.25
1383.572	1162.25
1388.327	1167.25
1393.079	1136.25
1397.825	1119.25
1402.567	1119.25
1407.304	1086.25
1412.036	1086.25
1416.764	1069.25
1421.487	1089.25
1426.205	1089.25
1430.919	1081.25
1435.628	1102.25
1440.333	1097.25
1445.032	1106.25
1449.727	1132.25
1454.418	1112.25
1459.104	1097.25
1463.785	1099.25
1468.462	1087.25
1473.134	1071.25
1477.802	1072.25
1482.465	1068.25
1487.123	1061.25
1491.777	1063.25
1496.426	1080.25
1501.071	1103.25
1505.711	1116.25
1510.347	1122.25
1514.978	1156.25
1519.604	1158.25
1524.226	1173.25
1528.844	1177.25
1533.457	1175.25
1538.065	1179.25
1542.669	1179.25
1547.269	1170.25
1551.864	1159.25
1556.454	1165.25
1561.041	1171.25
1565.622	1188.25
1570.199	1194.25
1574.772	1216.25
1579.34	1228.25
1583.904	1249.25
1588.464	1260.25
1593.019	1250.25
1597.569	1282.25
1602.115	1287.25
1606.657	1297.25
1611.195	1301.25
1615.728	1312.25
1620.256	1310.25
1624.78	1338.25
1629.3	1339.25
1633.816	1367.25
1638.327	1375.25
1642.834	1404.25
1647.336	1415.25
1651.834	1410.25
1656.328	1414.25
1660.817	1402.25
1665.302	1374.25
1669.783	1358.25
1674.259	1316.25
1678.732	1301.25
1683.199	1230.25
1687.663	1194.25
1692.122	1141.25
1696.577	1109.25
1701.028	1093.25
1705.474	1094.25
1709.917	1089.25
1714.355	1066.25
1718.788	1031.25
1723.218	1020.25
1727.643	984.25
1732.064	964.25
1736.481	945.25
1740.893	915.25
1745.301	898.25
1749.705	873.25
1754.105	828.25
1758.501	815.25
1762.893	811.25
1767.28	776.25
1771.663	778.25
1776.042	775.25
1780.417	778.25
1784.787	775.25
1789.154	789.25
1793.516	788.25
1797.874	796.25
1802.228	806.25
1806.578	796.25
1810.924	796.25
1815.266	801.25
1819.603	787.25
1823.937	774.25
1828.266	757.25
1832.591	727.25
1836.913	742.25
1841.23	731.25
1845.543	719.25
1849.852	729.25
1854.156	713.25
1858.457	714.25
1862.754	720.25
1867.047	717.25
1871.335	718.25
1875.62	723.25
1879.9	720.25
1884.177	729.25
1888.449	717.25
1892.718	701.25
1896.982	718.25
1901.243	712.25
1905.499	714.25
1909.752	701.25
1914	713.25
1918.245	712.25
1922.485	719.25
1926.722	721.25
1930.954	731.25
1935.183	736.25
1939.408	738.25
1943.628	744.25
1947.845	742.25
1952.058	739.25
1956.267	744.25
1960.472	740.25
1964.673	732.25
1968.87	718.25
1973.063	710.25
1977.252	716.25
1981.438	707.25
1985.619	700.25
1989.797	712.25
1993.971	696.25
1998.14	688.25
2002.306	690.25
2006.469	704.25
2010.627	689.25
2014.781	703.25
2018.932	696.25
2023.078	689.25
2027.221	699.25
2031.36	691.25
2035.495	667.25
2039.627	683.25
2043.754	673.25
2047.878	676.25
2051.998	669.25
2056.114	669.25
2060.226	681.25
2064.334	676.25
2068.439	677.25
2072.54	693.25
2076.637	698.25
2080.73	688.25
2084.82	695.25
2088.906	702.25
2092.988	696.25
2097.066	688.25
2101.14	686.25
2105.211	681.25
2109.278	693.25
2113.342	675.25
2117.401	684.25
2121.457	671.25
2125.509	676.25
2129.558	687.25
2133.602	666.25
2137.643	667.25
2141.681	662.25
2145.714	652.25
2149.744	650.25
2153.77	644.25
2157.793	645.25
2161.812	640.25
2165.827	625.25
2169.838	620.25
2173.846	603.25
2177.851	604.25
2181.851	593.25
2185.848	585.25
2189.841	580.25
2193.831	580.25
2197.817	571.25
2201.799	559.25
2205.778	575.25
2209.753	558.25
2213.725	561.25
2217.693	554.25
2221.657	560.25
2225.618	562.25
2229.575	547.25
2233.529	558.25
2237.479	541.25
2241.425	545.25
2245.368	543.25
2249.307	522.25
2253.243	523.25
2257.175	506.25
2261.104	514.25
2265.029	506.25
2268.95	499.25
2272.868	497.25
2276.783	493.25
2280.694	479.25
2284.601	469.25
2288.505	467.25
2292.405	461.25
2296.302	459.25
2300.195	454.25
2304.085	445.25
2307.971	429.25
2311.854	438.25
2315.734	416.25
2319.609	420.25
2323.482	413.25
2327.351	408.25
2331.216	417.25
2335.078	405.25
2338.937	401.25
2342.792	394.25
2346.643	385.25
2350.492	396.25
2354.336	397.25
2358.178	380.25
2362.015	387.25
2365.85	392.25
2369.681	389.25
2373.508	395.25
2377.333	385.25
2381.153	395.25
2384.971	391.25
2388.785	380.25
2392.595	386.25
2396.402	380.25
2400.206	366.25
2404.007	372.25
2407.804	358.25
2411.597	372.25
2415.388	367.25
2419.174	355.25
2422.958	357.25
2426.738	357.25
2430.515	358.25
2434.289	354.25
2438.059	357.25
2441.825	354.25
2445.589	344.25
2449.349	341.25
2453.106	343.25
2456.859	340.25
2460.61	343.25
2464.356	339.25
2468.1	336.25
2471.84	331.25
2475.577	313.25
2479.311	326.25
2483.041	318.25
2486.768	320.25
2490.492	324.25
2494.213	324.25
2497.93	326.25
2501.644	332.25
2505.355	332.25
2509.062	332.25
2512.766	320.25
2516.467	320.25
2520.165	323.25
2523.859	320.25
2527.551	316.25
2531.239	317.25
2534.923	313.25
2538.605	311.25
2542.283	302.25
2545.958	301.25
2549.63	300.25
2553.299	287.25
2556.964	297.25
2560.626	297.25
2564.285	295.25
2567.941	290.25
2571.594	295.25
2575.243	295.25
2578.89	289.25
2582.533	289.25
2586.173	279.25
2589.809	284.25
2593.443	284.25
2597.073	273.25
2600.701	273.25
2604.325	277.25
2607.946	273.25
2611.564	271.25
2615.178	269.25
2618.79	267.25
2622.398	267.25
2626.004	272.25
2629.606	266.25
2633.205	265.25
2636.801	261.25
2640.394	260.25
2643.983	255.25
2647.57	245.25
2651.153	247.25
2654.734	245.25
2658.311	251.25
2661.885	232.25
2665.456	239.25
2669.025	237.25
2672.589	230.25
2676.151	230.25
2679.71	233.25
2683.266	225.25
2686.819	221.25
2690.368	224.25
2693.915	217.25
2697.458	210.25
2700.999	214.25
2704.536	209.25
2708.071	208.25
2711.602	200.25
2715.13	200.25
2718.656	193.25
2722.178	200.25
2725.697	200.25
2729.214	196.25
2732.727	198.25
2736.237	198.25
2739.744	207.25
2743.249	203.25
2746.75	207.25
2750.248	213.25
2753.743	207.25
2757.236	214.25
2760.725	205.25
2764.211	210.25
2767.695	207.25
2771.175	216.25
2774.652	204.25
2778.127	207.25
2781.598	201.25
2785.067	212.25
2788.532	204.25
2791.995	210.25
2795.455	212.25
2798.911	209.25
2802.365	208.25
2805.816	208.25
2809.264	208.25
2812.709	211.25
2816.151	210.25
2819.59	202.25
2823.026	213.25
2826.46	209.25
2829.89	201.25
2833.318	208.25
2836.742	206.25
2840.164	207.25
2843.583	217.25
2846.999	220.25
2850.412	208.25
2853.822	222.25
2857.229	220.25
2860.634	224.25
2864.035	228.25
2867.434	224.25
2870.83	225.25
2874.223	227.25
2877.613	232.25
2881	234.25
2884.385	237.25
2887.766	238.25
2891.145	226.25
2894.521	238.25
2897.894	232.25
2901.264	242.25
2904.631	239.25
2907.996	242.25
2911.358	247.25
2914.717	252.25
2918.073	252.25
2921.426	256.25
2924.777	260.25
2928.124	263.25
2931.469	270.25
2934.811	268.25
2938.15	283.25
2941.487	284.25
2944.821	287.25
2948.152	288.25
2951.48	305.25
2954.805	293.25
2958.128	301.25
2961.447	310.25
2964.765	310.25
2968.079	316.25
2971.39	329.25
2974.699	333.25
2978.005	342.25
2981.308	354.25
2984.609	358.25
2987.907	372.25
2991.202	388.25
2994.494	398.25
2997.784	413.25
3001.07	419.25
3004.355	428.25
3007.636	440.25
3010.915	457.25
3014.191	468.25
3017.464	466.25
3020.734	472.25
3024.002	478.25
3027.267	484.25
3030.53	498.25
3033.789	504.25
3037.046	511.25
3040.301	517.25
3043.552	533.25
3046.801	543.25
3050.048	559.25
3053.291	566.25
3056.532	592.25
3059.771	607.25
3063.006	631.25
3066.239	648.25
3069.469	669.25
3072.697	676.25
3075.922	692.25
3079.144	710.25
3082.364	732.25
3085.581	743.25
3088.795	752.25
3092.007	778.25
3095.216	801.25
3098.423	810.25
3101.627	843.25
3104.828	859.25
3108.026	867.25
3111.222	890.25
3114.416	910.25
3117.607	926.25
3120.795	966.25
3123.98	973.25
3127.163	991.25
3130.344	1011.25
3133.521	1044.25
3136.696	1060.25
3139.869	1098.25
3143.039	1112.25
3146.206	1130.25
3149.371	1135.25
3152.533	1138.25
3155.693	1131.25
3158.85	1155.25
3162.005	1160.25
3165.157	1181.25
3168.306	1164.25
3171.453	1177.25
3174.597	1177.25
3177.739	1187.25
3180.878	1209.25
3184.014	1194.25
3187.149	1187.25
3190.28	1198.25
3193.409	1210.25
3196.536	1202.25
3199.659	1219.25
3202.781	1214.25
3205.9	1217.25
3209.016	1221.25
3212.13	1229.25
3215.241	1201.25
3218.35	1199.25
3221.456	1192.25
3224.56	1180.25
3227.661	1169.25
3230.76	1171.25
3233.856	1164.25
3236.95	1147.25
3240.041	1129.25
3243.13	1135.25
3246.216	1130.25
3249.3	1108.25
3252.382	1103.25
3255.46	1107.25
3258.537	1096.25
3261.611	1098.25
3264.682	1093.25
3267.751	1099.25
3270.818	1091.25
3273.882	1084.25
3276.943	1076.25
3280.002	1060.25
3283.059	1063.25
3286.113	1052.25
3289.165	1021.25
3292.214	1007.25
3295.261	1009.25
3298.306	976.25
3301.348	957.25
3304.387	946.25
3307.425	935.25
3310.459	916.25
3313.492	900.25
3316.521	895.25
3319.549	905.25
3322.574	863.25
3325.597	881.25
3328.617	857.25
3331.635	846.25
3334.65	843.25
3337.663	850.25
3340.674	840.25
3343.682	844.25
3346.688	840.25
3349.691	823.25
3352.692	823.25
3355.691	814.25
3358.687	826.25
3361.681	803.25
3364.673	789.25
3367.662	783.25
3370.649	771.25
3373.633	763.25
3376.615	735.25
3379.595	742.25
3382.572	743.25
3385.547	723.25
3388.52	718.25
3391.49	699.25
3394.458	698.25
3397.424	684.25
3400.387	676.25
3403.348	659.25
3406.307	657.25
3409.263	652.25
3412.217	635.25
3415.168	640.25
3418.118	628.25
3421.065	637.25
3424.009	627.25
3426.951	610.25
3429.891	601.25
3432.829	588.25
3435.764	580.25
3438.697	563.25
3441.628	554.25
3444.557	548.25
3447.483	517.25
3450.407	514.25
3453.328	505.25
3456.247	500.25
3459.164	477.25
3462.079	465.25
3464.991	447.25
3467.902	430.25
3470.809	425.25
3473.715	399.25
3476.618	401.25
3479.519	381.25
3482.418	379.25
3485.315	371.25
3488.209	356.25
3491.101	349.25
3493.99	336.25
3496.878	317.25
3499.763	323.25
3502.646	305.25
3505.527	293.25
3508.405	285.25
3511.281	270.25
3514.155	271.25
3517.027	248.25
3519.897	249.25
3522.764	239.25
3525.629	222.25
3528.492	213.25
3531.352	201.25
3534.211	195.25
3537.067	178.25
3539.921	169.25
3542.773	161.25
3545.622	148.25
3548.469	152.25
3551.315	133.25
3554.157	126.25
3556.998	122.25
3559.837	109.25
3562.673	99.25
3565.507	98.25
3568.339	92.25
3571.169	80.25
3573.996	86.25
3576.822	70.25
3579.645	75.25
3582.466	62.25
3585.285	58.25
3588.101	55.25
3590.916	52.25
3593.728	41.25
3596.538	32.25
3599.346	31.25
3602.152	24.25
3604.956	26.25
3607.757	12.25
3610.556	14.25
3613.354	10.25
3616.149	8.25
3618.942	3.25
3621.732	-0.75
3624.521	-4.75
3627.307	-7.75
3630.092	-8.75
3632.874	-12.75
3635.654	-15.75
3638.432	-17.75
3641.208	-24.75
3643.982	-26.75
3646.753	-24.75
3649.523	-26.75
3652.29	-34.75
3655.055	-38.75
3657.818	-40.75
3660.579	-38.75
3663.338	-44.75
3666.095	-46.75
3668.849	-54.75
3671.602	-49.75
3674.352	-58.75
3677.101	-56.75
3679.847	-56.75
3682.591	-55.75
3685.333	-63.75
3688.073	-63.75
3690.811	-65.75
3693.547	-69.75
3696.281	-67.75
3699.013	-68.75
3701.742	-69.75
3704.47	-71.75
3707.195	-75.75
3709.919	-74.75
3712.64	-78.75
3715.359	-76.75
3718.076	-75.75
3720.792	-76.75
3723.505	-80.75
3726.216	-78.75
3728.925	-80.75
3731.632	-81.75
3734.336	-80.75
3737.039	-83.75
3739.74	-81.75
3742.439	-84.75
3745.136	-87.75
3747.83	-87.75
3750.523	-89.75
3753.213	-86.75
3755.902	-94.75
3758.589	-93.75
3761.273	-92.75
3763.956	-88.75
3766.636	-91.75
3769.315	-84.75
3771.991	-91.75
3774.665	-91.75
3777.338	-89.75
3780.008	-92.75
3782.677	-93.75
3785.343	-96.75
3788.007	-90.75
3790.67	-95.75
3793.33	-97.75
3795.989	-95.75
3798.645	-94.75
3801.299	-98.75
3803.952	-98.75
3806.602	-100.75
3809.251	-96.75
3811.897	-97.75
3814.542	-95.75
3817.184	-95.75
3819.825	-92.75
3822.463	-94.75
3825.1	-93.75
3827.735	-97.75
3830.367	-98.75
3832.998	-98.75
3835.627	-100.75
3838.253	-98.75
3840.878	-102.75
3843.501	-102.75
3846.122	-101.75
3848.741	-99.75
3851.358	-101.75
3853.973	-96.75
3856.586	-99.75
3859.197	-97.75
3861.806	-99.75
3864.414	-105.75
3867.019	-99.75
3869.622	-101.75
3872.224	-100.75
3874.823	-96.75
3877.421	-92.75
3880.016	-95.75
3882.61	-93.75
3885.202	-98.75
3887.792	-98.75
3890.38	-102.75
3892.966	-99.75
3895.55	-101.75
3898.132	-99.75
3900.713	-99.75
3903.291	-98.75
3905.868	-99.75
3908.442	-100.75
3911.015	-101.75
3913.586	-101.75
3916.155	-104.75
3918.722	-102.75
3921.287	-103.75
3923.85	-104.75
3926.411	-106.75
3928.971	-106.75
3931.528	-102.75
3934.084	-103.75
3936.638	-100.75
3939.19	-102.75
3941.74	-101.75
3944.288	-104.75
3946.834	-101.75
3949.378	-104.75
3951.921	-100.75
3954.462	-106.75
3957	-102.75
3959.537	-100.75
3962.072	-103.75
3964.606	-104.75
3967.137	-103.75
3969.667	-102.75
3972.194	-103.75
3974.72	-103.75
3977.244	-102.75
3979.766	-102.75
3982.286	-98.75
3984.805	-99.75
3987.321	-101.75
3989.836	-100.75
3992.349	-105.75
3994.86	-103.75
3997.369	-100.75
3999.877	-107.75
4002.382	-103.75
4004.886	-102.75
4007.388	-103.75
4009.888	-106.75
4012.386	-102.75
4014.883	-99.75
4017.377	-100.75
4019.87	-105.75
4022.361	-104.75
4024.85	-103.75
4027.338	-103.75
4029.823	-104.75
4032.307	-99.75
4034.789	-102.75
4037.269	-103.75
4039.747	-98.75
4042.224	-101.75
4044.699	-108.75
4047.172	-103.75
4049.643	-106.75
4052.112	-108.75
4054.58	-107.75
4057.046	-102.75
4059.51	-104.75
4061.972	-98.75
4064.432	-98.75
4066.891	-99.75
4069.348	-98.75
4071.803	-105.75
4074.256	-102.75
4076.708	-104.75
4079.158	-104.75
4081.606	-103.75
4084.052	-104.75
4086.497	-109.75
4088.939	-104.75
4091.38	-102.75
4093.819	-101.75
4096.257	-107.75
4098.693	-107.75
4101.127	-108.75
4103.559	-106.75
4105.989	-63.75
4108.418	-61.75
4110.845	-60.75
4113.27	-54.75
4115.694	-46.75
4118.115	-41.75
4120.535	-102.75
4122.954	-100.75
4125.37	-103.75
4127.785	-103.75
4130.198	-106.75
4132.609	-102.75
4135.019	-106.75
4137.427	-106.75
4139.833	-105.75
4142.237	-106.75
