Data from Bsub_water_DIL10_A_3_RamanShift_1.txt Node
Date: Wed Feb 22 13:06:56 IST 2017
User: aro
Spectrometer: QEPB0276
Trigger mode: 0
Integration Time (sec): 5.000000E0
Scans to average: 1
Electric dark correction enabled: true
Nonlinearity correction enabled: false
Boxcar width: 0
XAxis mode: Raman Shifts
Number of Pixels in Spectrum: 1044
>>>>>Begin Spectral Data<<<<<
160.701	-35.75
166.742	0.25
172.777	97.25
178.805	408.25
184.826	1129.25
190.841	2315.25
196.849	3703.25
202.85	4610.25
208.845	4841.25
214.833	4681.25
220.815	4490.25
226.789	4355.25
232.758	4216.25
238.719	4082.25
244.674	3926.25
250.623	3749.25
256.565	3569.25
262.5	3385.25
268.429	3226.25
274.351	3076.25
280.267	2982.25
286.176	2857.25
292.079	2742.25
297.975	2651.25
303.865	2574.25
309.748	2494.25
315.625	2443.25
321.495	2377.25
327.359	2312.25
333.217	2329.25
339.068	2274.25
344.912	2272.25
350.751	2277.25
356.583	2255.25
362.408	2263.25
368.227	2256.25
374.04	2274.25
379.847	2277.25
385.647	2299.25
391.44	2306.25
397.228	2304.25
403.009	2341.25
408.784	2345.25
414.553	2342.25
420.315	2354.25
426.071	2352.25
431.821	2361.25
437.565	2342.25
443.302	2361.25
449.033	2337.25
454.758	2339.25
460.477	2329.25
466.189	2306.25
471.896	2281.25
477.596	2288.25
483.29	2272.25
488.978	2275.25
494.66	2249.25
500.335	2212.25
506.005	2167.25
511.668	2113.25
517.325	2112.25
522.977	2063.25
528.622	2027.25
534.261	1995.25
539.894	1970.25
545.521	1954.25
551.141	1934.25
556.756	1932.25
562.365	1910.25
567.968	1905.25
573.565	1880.25
579.155	1853.25
584.74	1842.25
590.319	1866.25
595.892	1842.25
601.459	1822.25
607.02	1808.25
612.575	1799.25
618.124	1778.25
623.667	1763.25
629.204	1726.25
634.735	1724.25
640.261	1713.25
645.781	1696.25
651.294	1684.25
656.802	1678.25
662.304	1681.25
667.8	1677.25
673.29	1652.25
678.775	1647.25
684.254	1625.25
689.726	1628.25
695.193	1628.25
700.655	1615.25
706.11	1601.25
711.56	1573.25
717.004	1555.25
722.442	1559.25
727.874	1550.25
733.301	1539.25
738.722	1530.25
744.137	1542.25
749.547	1515.25
754.951	1516.25
760.349	1502.25
765.741	1526.25
771.128	1514.25
776.509	1527.25
781.885	1492.25
787.254	1499.25
792.618	1491.25
797.977	1460.25
803.33	1464.25
808.677	1448.25
814.019	1427.25
819.355	1428.25
824.686	1407.25
830.011	1388.25
835.33	1375.25
840.644	1379.25
845.952	1369.25
851.255	1365.25
856.552	1342.25
861.844	1348.25
867.13	1327.25
872.41	1317.25
877.686	1300.25
882.955	1288.25
888.219	1251.25
893.478	1235.25
898.731	1220.25
903.979	1209.25
909.221	1180.25
914.458	1168.25
919.69	1158.25
924.916	1157.25
930.136	1165.25
935.351	1153.25
940.561	1145.25
945.766	1139.25
950.965	1121.25
956.158	1123.25
961.347	1106.25
966.529	1080.25
971.707	1078.25
976.879	1046.25
982.046	1034.25
987.208	1043.25
992.364	1044.25
997.515	1053.25
1002.66	1063.25
1007.801	1042.25
1012.936	1063.25
1018.066	1074.25
1023.19	1048.25
1028.309	1075.25
1033.423	1066.25
1038.532	1052.25
1043.636	1052.25
1048.734	1050.25
1053.827	1023.25
1058.915	1016.25
1063.998	1013.25
1069.075	1015.25
1074.147	1028.25
1079.214	1010.25
1084.276	1025.25
1089.333	1031.25
1094.385	1050.25
1099.431	1043.25
1104.472	1054.25
1109.509	1037.25
1114.54	1011.25
1119.565	1019.25
1124.586	990.25
1129.602	991.25
1134.613	987.25
1139.618	970.25
1144.619	971.25
1149.614	978.25
1154.604	984.25
1159.589	993.25
1164.57	981.25
1169.545	989.25
1174.515	992.25
1179.48	990.25
1184.44	981.25
1189.395	971.25
1194.345	963.25
1199.29	979.25
1204.23	965.25
1209.165	975.25
1214.095	972.25
1219.021	989.25
1223.941	989.25
1228.856	1008.25
1233.766	989.25
1238.672	992.25
1243.572	994.25
1248.467	977.25
1253.358	969.25
1258.244	967.25
1263.124	950.25
1268	928.25
1272.871	932.25
1277.737	905.25
1282.599	916.25
1287.455	911.25
1292.306	909.25
1297.153	925.25
1301.995	926.25
1306.832	926.25
1311.664	938.25
1316.491	931.25
1321.314	909.25
1326.132	917.25
1330.945	901.25
1335.753	886.25
1340.556	867.25
1345.354	841.25
1350.148	830.25
1354.937	823.25
1359.722	840.25
1364.501	837.25
1369.276	852.25
1374.046	865.25
1378.811	866.25
1383.572	878.25
1388.327	874.25
1393.079	869.25
1397.825	850.25
1402.567	834.25
1407.304	820.25
1412.036	821.25
1416.764	809.25
1421.487	800.25
1426.205	809.25
1430.919	812.25
1435.628	814.25
1440.333	830.25
1445.032	823.25
1449.727	833.25
1454.418	819.25
1459.104	831.25
1463.785	826.25
1468.462	817.25
1473.134	800.25
1477.802	792.25
1482.465	788.25
1487.123	795.25
1491.777	805.25
1496.426	796.25
1501.071	808.25
1505.711	848.25
1510.347	852.25
1514.978	861.25
1519.604	884.25
1524.226	885.25
1528.844	882.25
1533.457	875.25
1538.065	883.25
1542.669	896.25
1547.269	885.25
1551.864	892.25
1556.454	893.25
1561.041	911.25
1565.622	917.25
1570.199	932.25
1574.772	933.25
1579.34	967.25
1583.904	985.25
1588.464	997.25
1593.019	1018.25
1597.569	1026.25
1602.115	1039.25
1606.657	1056.25
1611.195	1068.25
1615.728	1087.25
1620.256	1098.25
1624.78	1109.25
1629.3	1142.25
1633.816	1157.25
1638.327	1175.25
1642.834	1189.25
1647.336	1201.25
1651.834	1190.25
1656.328	1199.25
1660.817	1194.25
1665.302	1164.25
1669.783	1138.25
1674.259	1104.25
1678.732	1052.25
1683.199	1022.25
1687.663	966.25
1692.122	915.25
1696.577	880.25
1701.028	863.25
1705.474	836.25
1709.917	836.25
1714.355	810.25
1718.788	781.25
1723.218	748.25
1727.643	734.25
1732.064	713.25
1736.481	680.25
1740.893	656.25
1745.301	616.25
1749.705	608.25
1754.105	578.25
1758.501	572.25
1762.893	549.25
1767.28	522.25
1771.663	513.25
1776.042	512.25
1780.417	519.25
1784.787	520.25
1789.154	521.25
1793.516	528.25
1797.874	531.25
1802.228	538.25
1806.578	525.25
1810.924	531.25
1815.266	517.25
1819.603	507.25
1823.937	498.25
1828.266	494.25
1832.591	477.25
1836.913	472.25
1841.23	459.25
1845.543	466.25
1849.852	456.25
1854.156	467.25
1858.457	459.25
1862.754	466.25
1867.047	465.25
1871.335	458.25
1875.62	464.25
1879.9	468.25
1884.177	463.25
1888.449	455.25
1892.718	451.25
1896.982	455.25
1901.243	445.25
1905.499	444.25
1909.752	453.25
1914	447.25
1918.245	458.25
1922.485	465.25
1926.722	464.25
1930.954	477.25
1935.183	484.25
1939.408	487.25
1943.628	479.25
1947.845	486.25
1952.058	481.25
1956.267	481.25
1960.472	481.25
1964.673	474.25
1968.87	466.25
1973.063	469.25
1977.252	464.25
1981.438	458.25
1985.619	456.25
1989.797	462.25
1993.971	454.25
1998.14	455.25
2002.306	450.25
2006.469	458.25
2010.627	458.25
2014.781	456.25
2018.932	465.25
2023.078	452.25
2027.221	467.25
2031.36	453.25
2035.495	456.25
2039.627	454.25
2043.754	440.25
2047.878	445.25
2051.998	448.25
2056.114	438.25
2060.226	457.25
2064.334	456.25
2068.439	465.25
2072.54	463.25
2076.637	467.25
2080.73	468.25
2084.82	470.25
2088.906	473.25
2092.988	474.25
2097.066	476.25
2101.14	468.25
2105.211	474.25
2109.278	457.25
2113.342	463.25
2117.401	467.25
2121.457	465.25
2125.509	457.25
2129.558	456.25
2133.602	443.25
2137.643	450.25
2141.681	447.25
2145.714	455.25
2149.744	451.25
2153.77	449.25
2157.793	434.25
2161.812	434.25
2165.827	422.25
2169.838	419.25
2173.846	403.25
2177.851	399.25
2181.851	387.25
2185.848	391.25
2189.841	381.25
2193.831	378.25
2197.817	375.25
2201.799	375.25
2205.778	371.25
2209.753	360.25
2213.725	377.25
2217.693	373.25
2221.657	362.25
2225.618	357.25
2229.575	355.25
2233.529	348.25
2237.479	337.25
2241.425	340.25
2245.368	346.25
2249.307	323.25
2253.243	327.25
2257.175	328.25
2261.104	319.25
2265.029	310.25
2268.95	316.25
2272.868	302.25
2276.783	301.25
2280.694	301.25
2284.601	283.25
2288.505	285.25
2292.405	281.25
2296.302	286.25
2300.195	271.25
2304.085	271.25
2307.971	266.25
2311.854	261.25
2315.734	245.25
2319.609	249.25
2323.482	246.25
2327.351	242.25
2331.216	235.25
2335.078	236.25
2338.937	230.25
2342.792	231.25
2346.643	235.25
2350.492	230.25
2354.336	226.25
2358.178	216.25
2362.015	217.25
2365.85	224.25
2369.681	219.25
2373.508	221.25
2377.333	212.25
2381.153	213.25
2384.971	214.25
2388.785	220.25
2392.595	214.25
2396.402	210.25
2400.206	206.25
2404.007	214.25
2407.804	199.25
2411.597	206.25
2415.388	201.25
2419.174	205.25
2422.958	201.25
2426.738	192.25
2430.515	196.25
2434.289	197.25
2438.059	189.25
2441.825	185.25
2445.589	179.25
2449.349	173.25
2453.106	184.25
2456.859	179.25
2460.61	186.25
2464.356	182.25
2468.1	182.25
2471.84	174.25
2475.577	166.25
2479.311	173.25
2483.041	168.25
2486.768	165.25
2490.492	166.25
2494.213	171.25
2497.93	170.25
2501.644	170.25
2505.355	167.25
2509.062	162.25
2512.766	171.25
2516.467	168.25
2520.165	166.25
2523.859	164.25
2527.551	159.25
2531.239	165.25
2534.923	161.25
2538.605	155.25
2542.283	157.25
2545.958	154.25
2549.63	155.25
2553.299	156.25
2556.964	163.25
2560.626	150.25
2564.285	150.25
2567.941	152.25
2571.594	148.25
2575.243	146.25
2578.89	151.25
2582.533	145.25
2586.173	146.25
2589.809	140.25
2593.443	146.25
2597.073	138.25
2600.701	138.25
2604.325	136.25
2607.946	129.25
2611.564	138.25
2615.178	127.25
2618.79	134.25
2622.398	133.25
2626.004	137.25
2629.606	133.25
2633.205	128.25
2636.801	129.25
2640.394	126.25
2643.983	121.25
2647.57	125.25
2651.153	124.25
2654.734	116.25
2658.311	117.25
2661.885	111.25
2665.456	111.25
2669.025	109.25
2672.589	105.25
2676.151	109.25
2679.71	107.25
2683.266	111.25
2686.819	109.25
2690.368	106.25
2693.915	105.25
2697.458	106.25
2700.999	101.25
2704.536	98.25
2708.071	94.25
2711.602	92.25
2715.13	90.25
2718.656	91.25
2722.178	82.25
2725.697	81.25
2729.214	91.25
2732.727	91.25
2736.237	93.25
2739.744	95.25
2743.249	105.25
2746.75	102.25
2750.248	110.25
2753.743	108.25
2757.236	101.25
2760.725	106.25
2764.211	104.25
2767.695	103.25
2771.175	107.25
2774.652	102.25
2778.127	104.25
2781.598	104.25
2785.067	104.25
2788.532	105.25
2791.995	104.25
2795.455	113.25
2798.911	106.25
2802.365	111.25
2805.816	113.25
2809.264	114.25
2812.709	114.25
2816.151	114.25
2819.59	106.25
2823.026	116.25
2826.46	110.25
2829.89	120.25
2833.318	124.25
2836.742	120.25
2840.164	124.25
2843.583	131.25
2846.999	134.25
2850.412	135.25
2853.822	132.25
2857.229	136.25
2860.634	139.25
2864.035	142.25
2867.434	153.25
2870.83	146.25
2874.223	150.25
2877.613	162.25
2881	156.25
2884.385	157.25
2887.766	163.25
2891.145	169.25
2894.521	165.25
2897.894	167.25
2901.264	166.25
2904.631	172.25
2907.996	176.25
2911.358	181.25
2914.717	187.25
2918.073	187.25
2921.426	193.25
2924.777	196.25
2928.124	200.25
2931.469	204.25
2934.811	201.25
2938.15	223.25
2941.487	226.25
2944.821	222.25
2948.152	240.25
2951.48	246.25
2954.805	247.25
2958.128	256.25
2961.447	253.25
2964.765	269.25
2968.079	263.25
2971.39	278.25
2974.699	287.25
2978.005	305.25
2981.308	305.25
2984.609	323.25
2987.907	334.25
2991.202	347.25
2994.494	365.25
2997.784	382.25
3001.07	390.25
3004.355	410.25
3007.636	405.25
3010.915	427.25
3014.191	439.25
3017.464	444.25
3020.734	453.25
3024.002	469.25
3027.267	466.25
3030.53	472.25
3033.789	490.25
3037.046	504.25
3040.301	520.25
3043.552	534.25
3046.801	551.25
3050.048	566.25
3053.291	572.25
3056.532	596.25
3059.771	618.25
3063.006	645.25
3066.239	653.25
3069.469	681.25
3072.697	706.25
3075.922	726.25
3079.144	744.25
3082.364	763.25
3085.581	782.25
3088.795	804.25
3092.007	825.25
3095.216	843.25
3098.423	871.25
3101.627	893.25
3104.828	918.25
3108.026	928.25
3111.222	969.25
3114.416	972.25
3117.607	996.25
3120.795	1018.25
3123.98	1039.25
3127.163	1073.25
3130.344	1095.25
3133.521	1121.25
3136.696	1148.25
3139.869	1176.25
3143.039	1211.25
3146.206	1217.25
3149.371	1236.25
3152.533	1236.25
3155.693	1238.25
3158.85	1269.25
3162.005	1263.25
3165.157	1278.25
3168.306	1292.25
3171.453	1287.25
3174.597	1291.25
3177.739	1303.25
3180.878	1303.25
3184.014	1303.25
3187.149	1315.25
3190.28	1308.25
3193.409	1318.25
3196.536	1317.25
3199.659	1330.25
3202.781	1337.25
3205.9	1326.25
3209.016	1319.25
3212.13	1333.25
3215.241	1329.25
3218.35	1305.25
3221.456	1306.25
3224.56	1293.25
3227.661	1272.25
3230.76	1266.25
3233.856	1269.25
3236.95	1257.25
3240.041	1241.25
3243.13	1236.25
3246.216	1229.25
3249.3	1231.25
3252.382	1217.25
3255.46	1206.25
3258.537	1212.25
3261.611	1210.25
3264.682	1196.25
3267.751	1192.25
3270.818	1195.25
3273.882	1195.25
3276.943	1195.25
3280.002	1164.25
3283.059	1158.25
3286.113	1135.25
3289.165	1137.25
3292.214	1126.25
3295.261	1100.25
3298.306	1069.25
3301.348	1067.25
3304.387	1042.25
3307.425	1031.25
3310.459	1026.25
3313.492	994.25
3316.521	987.25
3319.549	983.25
3322.574	962.25
3325.597	958.25
3328.617	950.25
3331.635	955.25
3334.65	939.25
3337.663	934.25
3340.674	929.25
3343.682	922.25
3346.688	913.25
3349.691	919.25
3352.692	917.25
3355.691	905.25
3358.687	913.25
3361.681	891.25
3364.673	879.25
3367.662	878.25
3370.649	858.25
3373.633	839.25
3376.615	836.25
3379.595	825.25
3382.572	806.25
3385.547	808.25
3388.52	807.25
3391.49	785.25
3394.458	783.25
3397.424	769.25
3400.387	748.25
3403.348	748.25
3406.307	748.25
3409.263	725.25
3412.217	721.25
3415.168	722.25
3418.118	707.25
3421.065	701.25
3424.009	704.25
3426.951	677.25
3429.891	662.25
3432.829	662.25
3435.764	651.25
3438.697	632.25
3441.628	616.25
3444.557	605.25
3447.483	581.25
3450.407	568.25
3453.328	569.25
3456.247	541.25
3459.164	521.25
3462.079	506.25
3464.991	497.25
3467.902	473.25
3470.809	466.25
3473.715	458.25
3476.618	431.25
3479.519	427.25
3482.418	419.25
3485.315	412.25
3488.209	402.25
3491.101	392.25
3493.99	372.25
3496.878	369.25
3499.763	353.25
3502.646	347.25
3505.527	325.25
3508.405	317.25
3511.281	309.25
3514.155	292.25
3517.027	271.25
3519.897	273.25
3522.764	256.25
3525.629	239.25
3528.492	229.25
3531.352	213.25
3534.211	212.25
3537.067	195.25
3539.921	182.25
3542.773	176.25
3545.622	156.25
3548.469	156.25
3551.315	142.25
3554.157	134.25
3556.998	135.25
3559.837	121.25
3562.673	116.25
3565.507	111.25
3568.339	93.25
3571.169	92.25
3573.996	90.25
3576.822	79.25
3579.645	72.25
3582.466	71.25
3585.285	62.25
3588.101	52.25
3590.916	50.25
3593.728	40.25
3596.538	38.25
3599.346	31.25
3602.152	27.25
3604.956	23.25
3607.757	17.25
3610.556	11.25
3613.354	10.25
3616.149	6.25
3618.942	10.25
3621.732	2.25
3624.521	-9.75
3627.307	-10.75
3630.092	-12.75
3632.874	-17.75
3635.654	-16.75
3638.432	-22.75
3641.208	-26.75
3643.982	-32.75
3646.753	-31.75
3649.523	-33.75
3652.29	-37.75
3655.055	-42.75
3657.818	-47.75
3660.579	-43.75
3663.338	-54.75
3666.095	-49.75
3668.849	-58.75
3671.602	-52.75
3674.352	-64.75
3677.101	-65.75
3679.847	-61.75
3682.591	-68.75
3685.333	-72.75
3688.073	-70.75
3690.811	-72.75
3693.547	-77.75
3696.281	-75.75
3699.013	-79.75
3701.742	-76.75
3704.47	-73.75
3707.195	-82.75
3709.919	-82.75
3712.64	-83.75
3715.359	-82.75
3718.076	-89.75
3720.792	-87.75
3723.505	-90.75
3726.216	-89.75
3728.925	-90.75
3731.632	-94.75
3734.336	-95.75
3737.039	-93.75
3739.74	-92.75
3742.439	-98.75
3745.136	-97.75
3747.83	-96.75
3750.523	-96.75
3753.213	-94.75
3755.902	-100.75
3758.589	-97.75
3761.273	-100.75
3763.956	-98.75
3766.636	-102.75
3769.315	-96.75
3771.991	-101.75
3774.665	-105.75
3777.338	-107.75
3780.008	-105.75
3782.677	-103.75
3785.343	-105.75
3788.007	-102.75
3790.67	-108.75
3793.33	-106.75
3795.989	-104.75
3798.645	-101.75
3801.299	-106.75
3803.952	-108.75
3806.602	-104.75
3809.251	-108.75
3811.897	-107.75
3814.542	-109.75
3817.184	-109.75
3819.825	-106.75
3822.463	-106.75
3825.1	-102.75
3827.735	-107.75
3830.367	-109.75
3832.998	-108.75
3835.627	-109.75
3838.253	-109.75
3840.878	-110.75
3843.501	-111.75
3846.122	-112.75
3848.741	-108.75
3851.358	-106.75
3853.973	-108.75
3856.586	-109.75
3859.197	-110.75
3861.806	-115.75
3864.414	-114.75
3867.019	-111.75
3869.622	-111.75
3872.224	-107.75
3874.823	-107.75
3877.421	-101.75
3880.016	-105.75
3882.61	-99.75
3885.202	-101.75
3887.792	-102.75
3890.38	-107.75
3892.966	-110.75
3895.55	-109.75
3898.132	-109.75
3900.713	-113.75
3903.291	-113.75
3905.868	-109.75
3908.442	-109.75
3911.015	-113.75
3913.586	-111.75
3916.155	-114.75
3918.722	-111.75
3921.287	-111.75
3923.85	-110.75
3926.411	-114.75
3928.971	-110.75
3931.528	-109.75
3934.084	-114.75
3936.638	-113.75
3939.19	-112.75
3941.74	-114.75
3944.288	-117.75
3946.834	-113.75
3949.378	-116.75
3951.921	-110.75
3954.462	-114.75
3957	-111.75
3959.537	-108.75
3962.072	-111.75
3964.606	-112.75
3967.137	-110.75
3969.667	-111.75
3972.194	-113.75
3974.72	-113.75
3977.244	-116.75
3979.766	-116.75
3982.286	-113.75
3984.805	-111.75
3987.321	-108.75
3989.836	-111.75
3992.349	-111.75
3994.86	-114.75
3997.369	-111.75
3999.877	-115.75
4002.382	-109.75
4004.886	-107.75
4007.388	-110.75
4009.888	-111.75
4012.386	-111.75
4014.883	-111.75
4017.377	-111.75
4019.87	-117.75
4022.361	-113.75
4024.85	-116.75
4027.338	-111.75
4029.823	-114.75
4032.307	-111.75
4034.789	-112.75
4037.269	-110.75
4039.747	-108.75
4042.224	-108.75
4044.699	-114.75
4047.172	-113.75
4049.643	-114.75
4052.112	-120.75
4054.58	-116.75
4057.046	-116.75
4059.51	-116.75
4061.972	-107.75
4064.432	-112.75
4066.891	-109.75
4069.348	-114.75
4071.803	-112.75
4074.256	-111.75
4076.708	-109.75
4079.158	-112.75
4081.606	-115.75
4084.052	-116.75
4086.497	-112.75
4088.939	-112.75
4091.38	-111.75
4093.819	-117.75
4096.257	-117.75
4098.693	-116.75
4101.127	-112.75
4103.559	-113.75
4105.989	-72.75
4108.418	-70.75
4110.845	-69.75
4113.27	-63.75
4115.694	-59.75
4118.115	-50.75
4120.535	-115.75
4122.954	-112.75
4125.37	-114.75
4127.785	-116.75
4130.198	-112.75
4132.609	-112.75
4135.019	-116.75
4137.427	-119.75
4139.833	-117.75
4142.237	-115.75
