Data from Bsub_water_DIL109_A_1_RamanShift_1.txt Node
Date: Wed Feb 22 12:41:21 IST 2017
User: aro
Spectrometer: QEPB0276
Trigger mode: 0
Integration Time (sec): 5.000000E0
Scans to average: 1
Electric dark correction enabled: true
Nonlinearity correction enabled: false
Boxcar width: 0
XAxis mode: Raman Shifts
Number of Pixels in Spectrum: 1044
>>>>>Begin Spectral Data<<<<<
160.701	-32.25
166.742	0.75
172.777	108.75
178.805	430.75
184.826	1185.75
190.841	2456.75
196.849	3871.75
202.85	4805.75
208.845	5074.75
214.833	4911.75
220.815	4734.75
226.789	4593.75
232.758	4485.75
238.719	4381.75
244.674	4243.75
250.623	4078.75
256.565	3898.75
262.5	3708.75
268.429	3574.75
274.351	3448.75
280.267	3351.75
286.176	3201.75
292.079	3121.75
297.975	3022.75
303.865	2961.75
309.748	2879.75
315.625	2809.75
321.495	2748.75
327.359	2715.75
333.217	2678.75
339.068	2673.75
344.912	2653.75
350.751	2651.75
356.583	2647.75
362.408	2657.75
368.227	2656.75
374.04	2656.75
379.847	2638.75
385.647	2673.75
391.44	2686.75
397.228	2704.75
403.009	2711.75
408.784	2739.75
414.553	2742.75
420.315	2751.75
426.071	2747.75
431.821	2743.75
437.565	2740.75
443.302	2755.75
449.033	2751.75
454.758	2734.75
460.477	2701.75
466.189	2709.75
471.896	2709.75
477.596	2682.75
483.29	2691.75
488.978	2684.75
494.66	2671.75
500.335	2634.75
506.005	2588.75
511.668	2550.75
517.325	2487.75
522.977	2469.75
528.622	2438.75
534.261	2434.75
539.894	2414.75
545.521	2380.75
551.141	2384.75
556.756	2366.75
562.365	2367.75
567.968	2331.75
573.565	2319.75
579.155	2308.75
584.74	2304.75
590.319	2280.75
595.892	2283.75
601.459	2270.75
607.02	2236.75
612.575	2235.75
618.124	2219.75
623.667	2186.75
629.204	2170.75
634.735	2155.75
640.261	2151.75
645.781	2147.75
651.294	2138.75
656.802	2124.75
662.304	2099.75
667.8	2115.75
673.29	2118.75
678.775	2094.75
684.254	2083.75
689.726	2079.75
695.193	2089.75
700.655	2060.75
706.11	2051.75
711.56	2036.75
717.004	2038.75
722.442	2012.75
727.874	1997.75
733.301	1991.75
738.722	1975.75
744.137	1978.75
749.547	1980.75
754.951	1968.75
760.349	1952.75
765.741	1972.75
771.128	1958.75
776.509	1980.75
781.885	1977.75
787.254	1974.75
792.618	1953.75
797.977	1948.75
803.33	1906.75
808.677	1903.75
814.019	1889.75
819.355	1882.75
824.686	1873.75
830.011	1864.75
835.33	1853.75
840.644	1836.75
845.952	1839.75
851.255	1846.75
856.552	1846.75
861.844	1817.75
867.13	1819.75
872.41	1798.75
877.686	1802.75
882.955	1781.75
888.219	1757.75
893.478	1730.75
898.731	1712.75
903.979	1677.75
909.221	1667.75
914.458	1661.75
919.69	1654.75
924.916	1673.75
930.136	1646.75
935.351	1648.75
940.561	1642.75
945.766	1646.75
950.965	1620.75
956.158	1629.75
961.347	1619.75
966.529	1590.75
971.707	1564.75
976.879	1545.75
982.046	1522.75
987.208	1540.75
992.364	1537.75
997.515	1542.75
1002.66	1541.75
1007.801	1570.75
1012.936	1572.75
1018.066	1593.75
1023.19	1594.75
1028.309	1601.75
1033.423	1588.75
1038.532	1569.75
1043.636	1584.75
1048.734	1561.75
1053.827	1554.75
1058.915	1521.75
1063.998	1511.75
1069.075	1510.75
1074.147	1523.75
1079.214	1519.75
1084.276	1542.75
1089.333	1569.75
1094.385	1569.75
1099.431	1562.75
1104.472	1572.75
1109.509	1561.75
1114.54	1552.75
1119.565	1526.75
1124.586	1507.75
1129.602	1508.75
1134.613	1483.75
1139.618	1495.75
1144.619	1470.75
1149.614	1488.75
1154.604	1478.75
1159.589	1506.75
1164.57	1491.75
1169.545	1519.75
1174.515	1508.75
1179.48	1495.75
1184.44	1491.75
1189.395	1491.75
1194.345	1481.75
1199.29	1475.75
1204.23	1488.75
1209.165	1484.75
1214.095	1482.75
1219.021	1522.75
1223.941	1519.75
1228.856	1532.75
1233.766	1532.75
1238.672	1539.75
1243.572	1538.75
1248.467	1519.75
1253.358	1517.75
1258.244	1504.75
1263.124	1481.75
1268	1458.75
1272.871	1435.75
1277.737	1415.75
1282.599	1417.75
1287.455	1438.75
1292.306	1424.75
1297.153	1424.75
1301.995	1455.75
1306.832	1455.75
1311.664	1475.75
1316.491	1454.75
1321.314	1452.75
1326.132	1434.75
1330.945	1420.75
1335.753	1386.75
1340.556	1349.75
1345.354	1336.75
1350.148	1298.75
1354.937	1313.75
1359.722	1320.75
1364.501	1330.75
1369.276	1346.75
1374.046	1378.75
1378.811	1406.75
1383.572	1403.75
1388.327	1396.75
1393.079	1384.75
1397.825	1346.75
1402.567	1340.75
1407.304	1318.75
1412.036	1300.75
1416.764	1291.75
1421.487	1305.75
1426.205	1293.75
1430.919	1295.75
1435.628	1305.75
1440.333	1332.75
1445.032	1332.75
1449.727	1327.75
1454.418	1331.75
1459.104	1326.75
1463.785	1316.75
1468.462	1312.75
1473.134	1301.75
1477.802	1270.75
1482.465	1279.75
1487.123	1276.75
1491.777	1285.75
1496.426	1295.75
1501.071	1283.75
1505.711	1322.75
1510.347	1341.75
1514.978	1360.75
1519.604	1364.75
1524.226	1400.75
1528.844	1403.75
1533.457	1401.75
1538.065	1394.75
1542.669	1392.75
1547.269	1395.75
1551.864	1399.75
1556.454	1386.75
1561.041	1411.75
1565.622	1415.75
1570.199	1423.75
1574.772	1428.75
1579.34	1461.75
1583.904	1476.75
1588.464	1505.75
1593.019	1515.75
1597.569	1503.75
1602.115	1528.75
1606.657	1548.75
1611.195	1546.75
1615.728	1561.75
1620.256	1571.75
1624.78	1573.75
1629.3	1605.75
1633.816	1612.75
1638.327	1637.75
1642.834	1663.75
1647.336	1657.75
1651.834	1667.75
1656.328	1658.75
1660.817	1665.75
1665.302	1641.75
1669.783	1605.75
1674.259	1559.75
1678.732	1509.75
1683.199	1477.75
1687.663	1409.75
1692.122	1363.75
1696.577	1323.75
1701.028	1314.75
1705.474	1291.75
1709.917	1297.75
1714.355	1269.75
1718.788	1238.75
1723.218	1207.75
1727.643	1179.75
1732.064	1163.75
1736.481	1140.75
1740.893	1116.75
1745.301	1083.75
1749.705	1054.75
1754.105	1017.75
1758.501	993.75
1762.893	978.75
1767.28	965.75
1771.663	959.75
1776.042	965.75
1780.417	941.75
1784.787	953.75
1789.154	947.75
1793.516	983.75
1797.874	974.75
1802.228	999.75
1806.578	1005.75
1810.924	986.75
1815.266	995.75
1819.603	973.75
1823.937	955.75
1828.266	927.75
1832.591	923.75
1836.913	913.75
1841.23	910.75
1845.543	897.75
1849.852	896.75
1854.156	904.75
1858.457	902.75
1862.754	906.75
1867.047	901.75
1871.335	901.75
1875.62	897.75
1879.9	906.75
1884.177	909.75
1888.449	897.75
1892.718	895.75
1896.982	892.75
1901.243	876.75
1905.499	894.75
1909.752	889.75
1914	895.75
1918.245	893.75
1922.485	893.75
1926.722	908.75
1930.954	920.75
1935.183	914.75
1939.408	909.75
1943.628	922.75
1947.845	924.75
1952.058	919.75
1956.267	935.75
1960.472	910.75
1964.673	915.75
1968.87	900.75
1973.063	897.75
1977.252	887.75
1981.438	890.75
1985.619	878.75
1989.797	883.75
1993.971	856.75
1998.14	871.75
2002.306	877.75
2006.469	873.75
2010.627	875.75
2014.781	880.75
2018.932	881.75
2023.078	874.75
2027.221	863.75
2031.36	857.75
2035.495	859.75
2039.627	833.75
2043.754	829.75
2047.878	841.75
2051.998	823.75
2056.114	826.75
2060.226	834.75
2064.334	830.75
2068.439	843.75
2072.54	851.75
2076.637	855.75
2080.73	839.75
2084.82	848.75
2088.906	864.75
2092.988	873.75
2097.066	852.75
2101.14	847.75
2105.211	862.75
2109.278	851.75
2113.342	852.75
2117.401	853.75
2121.457	845.75
2125.509	842.75
2129.558	839.75
2133.602	825.75
2137.643	826.75
2141.681	820.75
2145.714	805.75
2149.744	805.75
2153.77	806.75
2157.793	806.75
2161.812	800.75
2165.827	777.75
2169.838	782.75
2173.846	770.75
2177.851	742.75
2181.851	744.75
2185.848	727.75
2189.841	728.75
2193.831	716.75
2197.817	719.75
2201.799	714.75
2205.778	707.75
2209.753	700.75
2213.725	708.75
2217.693	710.75
2221.657	700.75
2225.618	709.75
2229.575	708.75
2233.529	700.75
2237.479	684.75
2241.425	685.75
2245.368	674.75
2249.307	660.75
2253.243	667.75
2257.175	656.75
2261.104	649.75
2265.029	641.75
2268.95	637.75
2272.868	618.75
2276.783	623.75
2280.694	616.75
2284.601	612.75
2288.505	585.75
2292.405	588.75
2296.302	588.75
2300.195	572.75
2304.085	572.75
2307.971	570.75
2311.854	558.75
2315.734	543.75
2319.609	529.75
2323.482	528.75
2327.351	526.75
2331.216	528.75
2335.078	511.75
2338.937	518.75
2342.792	518.75
2346.643	511.75
2350.492	504.75
2354.336	511.75
2358.178	503.75
2362.015	497.75
2365.85	507.75
2369.681	504.75
2373.508	499.75
2377.333	512.75
2381.153	513.75
2384.971	497.75
2388.785	503.75
2392.595	499.75
2396.402	492.75
2400.206	486.75
2404.007	470.75
2407.804	476.75
2411.597	473.75
2415.388	477.75
2419.174	486.75
2422.958	474.75
2426.738	470.75
2430.515	474.75
2434.289	476.75
2438.059	458.75
2441.825	460.75
2445.589	453.75
2449.349	448.75
2453.106	440.75
2456.859	447.75
2460.61	445.75
2464.356	440.75
2468.1	432.75
2471.84	431.75
2475.577	433.75
2479.311	423.75
2483.041	431.75
2486.768	425.75
2490.492	433.75
2494.213	437.75
2497.93	429.75
2501.644	438.75
2505.355	428.75
2509.062	433.75
2512.766	429.75
2516.467	425.75
2520.165	423.75
2523.859	421.75
2527.551	415.75
2531.239	407.75
2534.923	407.75
2538.605	412.75
2542.283	412.75
2545.958	411.75
2549.63	405.75
2553.299	405.75
2556.964	392.75
2560.626	389.75
2564.285	393.75
2567.941	394.75
2571.594	391.75
2575.243	391.75
2578.89	392.75
2582.533	396.75
2586.173	377.75
2589.809	378.75
2593.443	381.75
2597.073	374.75
2600.701	368.75
2604.325	378.75
2607.946	357.75
2611.564	362.75
2615.178	368.75
2618.79	371.75
2622.398	372.75
2626.004	367.75
2629.606	353.75
2633.205	356.75
2636.801	360.75
2640.394	346.75
2643.983	345.75
2647.57	338.75
2651.153	334.75
2654.734	332.75
2658.311	338.75
2661.885	331.75
2665.456	322.75
2669.025	319.75
2672.589	320.75
2676.151	325.75
2679.71	320.75
2683.266	307.75
2686.819	297.75
2690.368	297.75
2693.915	303.75
2697.458	294.75
2700.999	294.75
2704.536	279.75
2708.071	275.75
2711.602	274.75
2715.13	278.75
2718.656	280.75
2722.178	277.75
2725.697	272.75
2729.214	266.75
2732.727	274.75
2736.237	272.75
2739.744	282.75
2743.249	281.75
2746.75	277.75
2750.248	274.75
2753.743	281.75
2757.236	278.75
2760.725	286.75
2764.211	287.75
2767.695	280.75
2771.175	282.75
2774.652	286.75
2778.127	279.75
2781.598	287.75
2785.067	271.75
2788.532	271.75
2791.995	272.75
2795.455	281.75
2798.911	284.75
2802.365	281.75
2805.816	274.75
2809.264	278.75
2812.709	283.75
2816.151	276.75
2819.59	269.75
2823.026	275.75
2826.46	277.75
2829.89	268.75
2833.318	276.75
2836.742	274.75
2840.164	273.75
2843.583	284.75
2846.999	284.75
2850.412	282.75
2853.822	294.75
2857.229	287.75
2860.634	288.75
2864.035	295.75
2867.434	286.75
2870.83	293.75
2874.223	292.75
2877.613	301.75
2881	300.75
2884.385	299.75
2887.766	303.75
2891.145	300.75
2894.521	300.75
2897.894	303.75
2901.264	301.75
2904.631	308.75
2907.996	308.75
2911.358	308.75
2914.717	309.75
2918.073	318.75
2921.426	315.75
2924.777	319.75
2928.124	322.75
2931.469	331.75
2934.811	321.75
2938.15	349.75
2941.487	344.75
2944.821	352.75
2948.152	344.75
2951.48	354.75
2954.805	350.75
2958.128	363.75
2961.447	367.75
2964.765	365.75
2968.079	374.75
2971.39	380.75
2974.699	401.75
2978.005	396.75
2981.308	402.75
2984.609	423.75
2987.907	436.75
2991.202	444.75
2994.494	458.75
2997.784	469.75
3001.07	482.75
3004.355	486.75
3007.636	487.75
3010.915	508.75
3014.191	520.75
3017.464	523.75
3020.734	538.75
3024.002	548.75
3027.267	551.75
3030.53	556.75
3033.789	564.75
3037.046	569.75
3040.301	576.75
3043.552	598.75
3046.801	613.75
3050.048	611.75
3053.291	649.75
3056.532	657.75
3059.771	678.75
3063.006	694.75
3066.239	724.75
3069.469	738.75
3072.697	758.75
3075.922	776.75
3079.144	784.75
3082.364	803.75
3085.581	821.75
3088.795	844.75
3092.007	855.75
3095.216	881.75
3098.423	905.75
3101.627	934.75
3104.828	943.75
3108.026	976.75
3111.222	985.75
3114.416	984.75
3117.607	1014.75
3120.795	1030.75
3123.98	1065.75
3127.163	1070.75
3130.344	1108.75
3133.521	1124.75
3136.696	1149.75
3139.869	1178.75
3143.039	1203.75
3146.206	1229.75
3149.371	1229.75
3152.533	1239.75
3155.693	1256.75
3158.85	1257.75
3162.005	1256.75
3165.157	1254.75
3168.306	1288.75
3171.453	1281.75
3174.597	1294.75
3177.739	1282.75
3180.878	1297.75
3184.014	1287.75
3187.149	1315.75
3190.28	1302.75
3193.409	1304.75
3196.536	1295.75
3199.659	1312.75
3202.781	1309.75
3205.9	1294.75
3209.016	1311.75
3212.13	1303.75
3215.241	1301.75
3218.35	1311.75
3221.456	1284.75
3224.56	1274.75
3227.661	1263.75
3230.76	1253.75
3233.856	1239.75
3236.95	1230.75
3240.041	1234.75
3243.13	1226.75
3246.216	1205.75
3249.3	1201.75
3252.382	1197.75
3255.46	1189.75
3258.537	1201.75
3261.611	1187.75
3264.682	1175.75
3267.751	1173.75
3270.818	1175.75
3273.882	1172.75
3276.943	1169.75
3280.002	1144.75
3283.059	1142.75
3286.113	1133.75
3289.165	1108.75
3292.214	1092.75
3295.261	1070.75
3298.306	1066.75
3301.348	1047.75
3304.387	1031.75
3307.425	1012.75
3310.459	1005.75
3313.492	996.75
3316.521	970.75
3319.549	959.75
3322.574	952.75
3325.597	954.75
3328.617	943.75
3331.635	932.75
3334.65	930.75
3337.663	930.75
3340.674	921.75
3343.682	921.75
3346.688	917.75
3349.691	914.75
3352.692	920.75
3355.691	900.75
3358.687	890.75
3361.681	879.75
3364.673	869.75
3367.662	855.75
3370.649	861.75
3373.633	824.75
3376.615	819.75
3379.595	809.75
3382.572	784.75
3385.547	797.75
3388.52	781.75
3391.49	770.75
3394.458	771.75
3397.424	741.75
3400.387	740.75
3403.348	722.75
3406.307	716.75
3409.263	719.75
3412.217	707.75
3415.168	700.75
3418.118	705.75
3421.065	692.75
3424.009	683.75
3426.951	668.75
3429.891	653.75
3432.829	627.75
3435.764	638.75
3438.697	617.75
3441.628	610.75
3444.557	590.75
3447.483	583.75
3450.407	558.75
3453.328	559.75
3456.247	538.75
3459.164	525.75
3462.079	504.75
3464.991	487.75
3467.902	466.75
3470.809	459.75
3473.715	443.75
3476.618	424.75
3479.519	409.75
3482.418	398.75
3485.315	386.75
3488.209	390.75
3491.101	383.75
3493.99	372.75
3496.878	363.75
3499.763	347.75
3502.646	337.75
3505.527	331.75
3508.405	311.75
3511.281	304.75
3514.155	287.75
3517.027	276.75
3519.897	272.75
3522.764	252.75
3525.629	239.75
3528.492	232.75
3531.352	218.75
3534.211	199.75
3537.067	188.75
3539.921	176.75
3542.773	171.75
3545.622	157.75
3548.469	153.75
3551.315	143.75
3554.157	138.75
3556.998	128.75
3559.837	114.75
3562.673	107.75
3565.507	103.75
3568.339	92.75
3571.169	94.75
3573.996	86.75
3576.822	81.75
3579.645	72.75
3582.466	68.75
3585.285	61.75
3588.101	52.75
3590.916	50.75
3593.728	41.75
3596.538	28.75
3599.346	32.75
3602.152	25.75
3604.956	24.75
3607.757	16.75
3610.556	14.75
3613.354	6.75
3616.149	8.75
3618.942	0.75
3621.732	0.75
3624.521	-11.25
3627.307	-12.25
3630.092	-20.25
3632.874	-17.25
3635.654	-23.25
3638.432	-30.25
3641.208	-28.25
3643.982	-29.25
3646.753	-26.25
3649.523	-34.25
3652.29	-37.25
3655.055	-43.25
3657.818	-49.25
3660.579	-52.25
3663.338	-52.25
3666.095	-55.25
3668.849	-60.25
3671.602	-59.25
3674.352	-63.25
3677.101	-66.25
3679.847	-66.25
3682.591	-64.25
3685.333	-71.25
3688.073	-72.25
3690.811	-77.25
3693.547	-75.25
3696.281	-80.25
3699.013	-76.25
3701.742	-77.25
3704.47	-80.25
3707.195	-83.25
3709.919	-90.25
3712.64	-87.25
3715.359	-85.25
3718.076	-93.25
3720.792	-91.25
3723.505	-91.25
3726.216	-89.25
3728.925	-91.25
3731.632	-95.25
3734.336	-94.25
3737.039	-94.25
3739.74	-96.25
3742.439	-100.25
3745.136	-100.25
3747.83	-100.25
3750.523	-100.25
3753.213	-101.25
3755.902	-104.25
3758.589	-103.25
3761.273	-102.25
3763.956	-101.25
3766.636	-103.25
3769.315	-99.25
3771.991	-106.25
3774.665	-108.25
3777.338	-105.25
3780.008	-109.25
3782.677	-105.25
3785.343	-111.25
3788.007	-110.25
3790.67	-108.25
3793.33	-110.25
3795.989	-107.25
3798.645	-105.25
3801.299	-108.25
3803.952	-114.25
3806.602	-111.25
3809.251	-108.25
3811.897	-113.25
3814.542	-113.25
3817.184	-109.25
3819.825	-106.25
3822.463	-111.25
3825.1	-111.25
3827.735	-116.25
3830.367	-110.25
3832.998	-110.25
3835.627	-110.25
3838.253	-113.25
3840.878	-112.25
3843.501	-114.25
3846.122	-112.25
3848.741	-114.25
3851.358	-115.25
3853.973	-113.25
3856.586	-115.25
3859.197	-115.25
3861.806	-118.25
3864.414	-117.25
3867.019	-113.25
3869.622	-114.25
3872.224	-116.25
3874.823	-110.25
3877.421	-106.25
3880.016	-107.25
3882.61	-105.25
3885.202	-110.25
3887.792	-107.25
3890.38	-115.25
3892.966	-115.25
3895.55	-117.25
3898.132	-113.25
3900.713	-118.25
3903.291	-116.25
3905.868	-114.25
3908.442	-111.25
3911.015	-115.25
3913.586	-117.25
3916.155	-118.25
3918.722	-122.25
3921.287	-119.25
3923.85	-121.25
3926.411	-121.25
3928.971	-120.25
3931.528	-116.25
3934.084	-119.25
3936.638	-119.25
3939.19	-120.25
3941.74	-118.25
3944.288	-120.25
3946.834	-119.25
3949.378	-120.25
3951.921	-118.25
3954.462	-125.25
3957	-122.25
3959.537	-119.25
3962.072	-121.25
3964.606	-121.25
3967.137	-118.25
3969.667	-120.25
3972.194	-121.25
3974.72	-117.25
3977.244	-118.25
3979.766	-117.25
3982.286	-115.25
3984.805	-116.25
3987.321	-117.25
3989.836	-119.25
3992.349	-119.25
3994.86	-122.25
3997.369	-118.25
3999.877	-123.25
4002.382	-117.25
4004.886	-115.25
4007.388	-117.25
4009.888	-118.25
4012.386	-116.25
4014.883	-112.25
4017.377	-116.25
4019.87	-123.25
4022.361	-123.25
4024.85	-123.25
4027.338	-121.25
4029.823	-123.25
4032.307	-118.25
4034.789	-119.25
4037.269	-115.25
4039.747	-112.25
4042.224	-115.25
4044.699	-120.25
4047.172	-119.25
4049.643	-123.25
4052.112	-125.25
4054.58	-121.25
4057.046	-120.25
4059.51	-122.25
4061.972	-114.25
4064.432	-116.25
4066.891	-115.25
4069.348	-116.25
4071.803	-118.25
4074.256	-118.25
4076.708	-118.25
4079.158	-121.25
4081.606	-121.25
4084.052	-121.25
4086.497	-122.25
4088.939	-117.25
4091.38	-116.25
4093.819	-122.25
4096.257	-120.25
4098.693	-122.25
4101.127	-123.25
4103.559	-121.25
4105.989	-82.25
4108.418	-76.25
4110.845	-77.25
4113.27	-67.25
4115.694	-61.25
4118.115	-48.25
4120.535	-118.25
4122.954	-115.25
4125.37	-117.25
4127.785	-120.25
4130.198	-123.25
4132.609	-120.25
4135.019	-127.25
4137.427	-127.25
4139.833	-128.25
4142.237	-125.25
