Data from Bsub_water_DIL109_B_3_RamanShift_1.txt Node
Date: Wed Feb 22 13:12:56 IST 2017
User: aro
Spectrometer: QEPB0276
Trigger mode: 0
Integration Time (sec): 5.000000E0
Scans to average: 1
Electric dark correction enabled: true
Nonlinearity correction enabled: false
Boxcar width: 0
XAxis mode: Raman Shifts
Number of Pixels in Spectrum: 1044
>>>>>Begin Spectral Data<<<<<
160.701	-29.38
166.742	4.62
172.777	93.62
178.805	384.62
184.826	1078.62
190.841	2270.62
196.849	3612.62
202.85	4516.62
208.845	4721.62
214.833	4571.62
220.815	4372.62
226.789	4219.62
232.758	4105.62
238.719	3948.62
244.674	3786.62
250.623	3583.62
256.565	3427.62
262.5	3253.62
268.429	3069.62
274.351	2938.62
280.267	2800.62
286.176	2681.62
292.079	2563.62
297.975	2470.62
303.865	2391.62
309.748	2313.62
315.625	2241.62
321.495	2180.62
327.359	2169.62
333.217	2124.62
339.068	2120.62
344.912	2095.62
350.751	2090.62
356.583	2093.62
362.408	2103.62
368.227	2074.62
374.04	2098.62
379.847	2092.62
385.647	2149.62
391.44	2140.62
397.228	2151.62
403.009	2144.62
408.784	2150.62
414.553	2181.62
420.315	2172.62
426.071	2179.62
431.821	2161.62
437.565	2148.62
443.302	2160.62
449.033	2151.62
454.758	2156.62
460.477	2124.62
466.189	2120.62
471.896	2115.62
477.596	2091.62
483.29	2087.62
488.978	2077.62
494.66	2054.62
500.335	2011.62
506.005	1975.62
511.668	1932.62
517.325	1890.62
522.977	1855.62
528.622	1825.62
534.261	1819.62
539.894	1770.62
545.521	1755.62
551.141	1748.62
556.756	1715.62
562.365	1719.62
567.968	1703.62
573.565	1696.62
579.155	1683.62
584.74	1653.62
590.319	1651.62
595.892	1634.62
601.459	1615.62
607.02	1619.62
612.575	1577.62
618.124	1575.62
623.667	1547.62
629.204	1534.62
634.735	1517.62
640.261	1504.62
645.781	1498.62
651.294	1475.62
656.802	1480.62
662.304	1462.62
667.8	1450.62
673.29	1447.62
678.775	1451.62
684.254	1433.62
689.726	1434.62
695.193	1414.62
700.655	1378.62
706.11	1394.62
711.56	1365.62
717.004	1362.62
722.442	1349.62
727.874	1341.62
733.301	1305.62
738.722	1333.62
744.137	1312.62
749.547	1303.62
754.951	1303.62
760.349	1291.62
765.741	1292.62
771.128	1302.62
776.509	1281.62
781.885	1290.62
787.254	1278.62
792.618	1252.62
797.977	1250.62
803.33	1240.62
808.677	1222.62
814.019	1206.62
819.355	1206.62
824.686	1185.62
830.011	1172.62
835.33	1156.62
840.644	1162.62
845.952	1144.62
851.255	1125.62
856.552	1111.62
861.844	1105.62
867.13	1097.62
872.41	1075.62
877.686	1081.62
882.955	1055.62
888.219	1020.62
893.478	999.62
898.731	997.62
903.979	970.62
909.221	944.62
914.458	941.62
919.69	929.62
924.916	928.62
930.136	922.62
935.351	929.62
940.561	902.62
945.766	909.62
950.965	898.62
956.158	881.62
961.347	875.62
966.529	846.62
971.707	842.62
976.879	828.62
982.046	818.62
987.208	814.62
992.364	796.62
997.515	816.62
1002.66	805.62
1007.801	811.62
1012.936	815.62
1018.066	829.62
1023.19	825.62
1028.309	831.62
1033.423	816.62
1038.532	818.62
1043.636	817.62
1048.734	802.62
1053.827	793.62
1058.915	795.62
1063.998	789.62
1069.075	767.62
1074.147	779.62
1079.214	781.62
1084.276	784.62
1089.333	788.62
1094.385	788.62
1099.431	791.62
1104.472	791.62
1109.509	783.62
1114.54	770.62
1119.565	770.62
1124.586	755.62
1129.602	744.62
1134.613	742.62
1139.618	737.62
1144.619	736.62
1149.614	739.62
1154.604	735.62
1159.589	749.62
1164.57	743.62
1169.545	759.62
1174.515	758.62
1179.48	741.62
1184.44	740.62
1189.395	727.62
1194.345	726.62
1199.29	728.62
1204.23	736.62
1209.165	734.62
1214.095	741.62
1219.021	741.62
1223.941	738.62
1228.856	753.62
1233.766	755.62
1238.672	754.62
1243.572	749.62
1248.467	749.62
1253.358	732.62
1258.244	730.62
1263.124	704.62
1268	697.62
1272.871	693.62
1277.737	679.62
1282.599	677.62
1287.455	689.62
1292.306	688.62
1297.153	691.62
1301.995	698.62
1306.832	696.62
1311.664	695.62
1316.491	690.62
1321.314	683.62
1326.132	675.62
1330.945	668.62
1335.753	655.62
1340.556	645.62
1345.354	633.62
1350.148	624.62
1354.937	629.62
1359.722	611.62
1364.501	626.62
1369.276	627.62
1374.046	626.62
1378.811	651.62
1383.572	656.62
1388.327	631.62
1393.079	628.62
1397.825	617.62
1402.567	612.62
1407.304	599.62
1412.036	601.62
1416.764	592.62
1421.487	584.62
1426.205	593.62
1430.919	582.62
1435.628	605.62
1440.333	597.62
1445.032	603.62
1449.727	614.62
1454.418	609.62
1459.104	609.62
1463.785	611.62
1468.462	599.62
1473.134	586.62
1477.802	586.62
1482.465	590.62
1487.123	584.62
1491.777	590.62
1496.426	600.62
1501.071	604.62
1505.711	602.62
1510.347	636.62
1514.978	650.62
1519.604	652.62
1524.226	667.62
1528.844	667.62
1533.457	664.62
1538.065	657.62
1542.669	661.62
1547.269	671.62
1551.864	668.62
1556.454	677.62
1561.041	695.62
1565.622	693.62
1570.199	711.62
1574.772	721.62
1579.34	753.62
1583.904	771.62
1588.464	776.62
1593.019	811.62
1597.569	828.62
1602.115	827.62
1606.657	851.62
1611.195	857.62
1615.728	891.62
1620.256	899.62
1624.78	920.62
1629.3	945.62
1633.816	969.62
1638.327	976.62
1642.834	985.62
1647.336	985.62
1651.834	998.62
1656.328	980.62
1660.817	981.62
1665.302	962.62
1669.783	928.62
1674.259	897.62
1678.732	864.62
1683.199	821.62
1687.663	770.62
1692.122	732.62
1696.577	698.62
1701.028	673.62
1705.474	649.62
1709.917	639.62
1714.355	610.62
1718.788	559.62
1723.218	551.62
1727.643	521.62
1732.064	507.62
1736.481	480.62
1740.893	454.62
1745.301	431.62
1749.705	417.62
1754.105	390.62
1758.501	382.62
1762.893	364.62
1767.28	357.62
1771.663	331.62
1776.042	331.62
1780.417	336.62
1784.787	341.62
1789.154	342.62
1793.516	334.62
1797.874	343.62
1802.228	343.62
1806.578	337.62
1810.924	346.62
1815.266	331.62
1819.603	323.62
1823.937	307.62
1828.266	301.62
1832.591	289.62
1836.913	287.62
1841.23	279.62
1845.543	278.62
1849.852	277.62
1854.156	280.62
1858.457	269.62
1862.754	269.62
1867.047	274.62
1871.335	279.62
1875.62	276.62
1879.9	285.62
1884.177	282.62
1888.449	272.62
1892.718	269.62
1896.982	276.62
1901.243	271.62
1905.499	276.62
1909.752	267.62
1914	271.62
1918.245	271.62
1922.485	288.62
1926.722	285.62
1930.954	292.62
1935.183	291.62
1939.408	303.62
1943.628	293.62
1947.845	291.62
1952.058	301.62
1956.267	296.62
1960.472	295.62
1964.673	297.62
1968.87	290.62
1973.063	280.62
1977.252	284.62
1981.438	282.62
1985.619	283.62
1989.797	282.62
1993.971	279.62
1998.14	288.62
2002.306	274.62
2006.469	282.62
2010.627	278.62
2014.781	286.62
2018.932	296.62
2023.078	290.62
2027.221	299.62
2031.36	292.62
2035.495	294.62
2039.627	288.62
2043.754	286.62
2047.878	275.62
2051.998	286.62
2056.114	290.62
2060.226	294.62
2064.334	289.62
2068.439	304.62
2072.54	305.62
2076.637	308.62
2080.73	300.62
2084.82	314.62
2088.906	321.62
2092.988	313.62
2097.066	311.62
2101.14	313.62
2105.211	317.62
2109.278	307.62
2113.342	314.62
2117.401	313.62
2121.457	306.62
2125.509	301.62
2129.558	307.62
2133.602	296.62
2137.643	298.62
2141.681	289.62
2145.714	293.62
2149.744	292.62
2153.77	292.62
2157.793	286.62
2161.812	283.62
2165.827	279.62
2169.838	266.62
2173.846	259.62
2177.851	261.62
2181.851	246.62
2185.848	253.62
2189.841	245.62
2193.831	237.62
2197.817	236.62
2201.799	234.62
2205.778	229.62
2209.753	235.62
2213.725	227.62
2217.693	228.62
2221.657	226.62
2225.618	224.62
2229.575	221.62
2233.529	216.62
2237.479	219.62
2241.425	213.62
2245.368	205.62
2249.307	205.62
2253.243	189.62
2257.175	195.62
2261.104	192.62
2265.029	182.62
2268.95	172.62
2272.868	170.62
2276.783	168.62
2280.694	165.62
2284.601	157.62
2288.505	164.62
2292.405	156.62
2296.302	160.62
2300.195	148.62
2304.085	151.62
2307.971	142.62
2311.854	137.62
2315.734	132.62
2319.609	135.62
2323.482	125.62
2327.351	122.62
2331.216	127.62
2335.078	121.62
2338.937	120.62
2342.792	119.62
2346.643	119.62
2350.492	116.62
2354.336	116.62
2358.178	109.62
2362.015	107.62
2365.85	112.62
2369.681	115.62
2373.508	116.62
2377.333	107.62
2381.153	110.62
2384.971	110.62
2388.785	99.62
2392.595	104.62
2396.402	101.62
2400.206	95.62
2404.007	98.62
2407.804	96.62
2411.597	97.62
2415.388	88.62
2419.174	93.62
2422.958	97.62
2426.738	93.62
2430.515	88.62
2434.289	84.62
2438.059	87.62
2441.825	88.62
2445.589	83.62
2449.349	77.62
2453.106	82.62
2456.859	82.62
2460.61	75.62
2464.356	81.62
2468.1	76.62
2471.84	73.62
2475.577	77.62
2479.311	72.62
2483.041	74.62
2486.768	70.62
2490.492	72.62
2494.213	71.62
2497.93	73.62
2501.644	74.62
2505.355	69.62
2509.062	68.62
2512.766	70.62
2516.467	67.62
2520.165	63.62
2523.859	65.62
2527.551	65.62
2531.239	60.62
2534.923	64.62
2538.605	62.62
2542.283	54.62
2545.958	65.62
2549.63	59.62
2553.299	62.62
2556.964	57.62
2560.626	48.62
2564.285	53.62
2567.941	53.62
2571.594	53.62
2575.243	50.62
2578.89	52.62
2582.533	53.62
2586.173	54.62
2589.809	50.62
2593.443	50.62
2597.073	50.62
2600.701	47.62
2604.325	50.62
2607.946	44.62
2611.564	46.62
2615.178	45.62
2618.79	47.62
2622.398	44.62
2626.004	41.62
2629.606	41.62
2633.205	40.62
2636.801	43.62
2640.394	45.62
2643.983	40.62
2647.57	33.62
2651.153	37.62
2654.734	31.62
2658.311	33.62
2661.885	41.62
2665.456	31.62
2669.025	31.62
2672.589	29.62
2676.151	34.62
2679.71	27.62
2683.266	27.62
2686.819	33.62
2690.368	28.62
2693.915	27.62
2697.458	30.62
2700.999	29.62
2704.536	23.62
2708.071	29.62
2711.602	23.62
2715.13	21.62
2718.656	20.62
2722.178	20.62
2725.697	20.62
2729.214	25.62
2732.727	27.62
2736.237	22.62
2739.744	34.62
2743.249	34.62
2746.75	34.62
2750.248	32.62
2753.743	37.62
2757.236	34.62
2760.725	41.62
2764.211	41.62
2767.695	35.62
2771.175	42.62
2774.652	35.62
2778.127	38.62
2781.598	42.62
2785.067	42.62
2788.532	45.62
2791.995	39.62
2795.455	42.62
2798.911	48.62
2802.365	44.62
2805.816	53.62
2809.264	51.62
2812.709	54.62
2816.151	51.62
2819.59	55.62
2823.026	59.62
2826.46	57.62
2829.89	58.62
2833.318	59.62
2836.742	56.62
2840.164	62.62
2843.583	74.62
2846.999	80.62
2850.412	76.62
2853.822	85.62
2857.229	85.62
2860.634	87.62
2864.035	83.62
2867.434	90.62
2870.83	89.62
2874.223	92.62
2877.613	100.62
2881	104.62
2884.385	110.62
2887.766	117.62
2891.145	115.62
2894.521	120.62
2897.894	117.62
2901.264	121.62
2904.631	122.62
2907.996	131.62
2911.358	132.62
2914.717	141.62
2918.073	149.62
2921.426	154.62
2924.777	159.62
2928.124	156.62
2931.469	170.62
2934.811	171.62
2938.15	179.62
2941.487	184.62
2944.821	197.62
2948.152	198.62
2951.48	204.62
2954.805	205.62
2958.128	220.62
2961.447	226.62
2964.765	230.62
2968.079	234.62
2971.39	249.62
2974.699	253.62
2978.005	266.62
2981.308	272.62
2984.609	280.62
2987.907	294.62
2991.202	312.62
2994.494	318.62
2997.784	347.62
3001.07	348.62
3004.355	372.62
3007.636	376.62
3010.915	396.62
3014.191	400.62
3017.464	418.62
3020.734	418.62
3024.002	439.62
3027.267	445.62
3030.53	445.62
3033.789	463.62
3037.046	477.62
3040.301	488.62
3043.552	507.62
3046.801	518.62
3050.048	537.62
3053.291	572.62
3056.532	588.62
3059.771	595.62
3063.006	629.62
3066.239	654.62
3069.469	659.62
3072.697	683.62
3075.922	713.62
3079.144	723.62
3082.364	761.62
3085.581	772.62
3088.795	790.62
3092.007	808.62
3095.216	821.62
3098.423	857.62
3101.627	887.62
3104.828	903.62
3108.026	935.62
3111.222	940.62
3114.416	978.62
3117.607	984.62
3120.795	1024.62
3123.98	1037.62
3127.163	1075.62
3130.344	1093.62
3133.521	1126.62
3136.696	1148.62
3139.869	1185.62
3143.039	1193.62
3146.206	1218.62
3149.371	1215.62
3152.533	1251.62
3155.693	1254.62
3158.85	1265.62
3162.005	1273.62
3165.157	1279.62
3168.306	1281.62
3171.453	1300.62
3174.597	1308.62
3177.739	1299.62
3180.878	1319.62
3184.014	1320.62
3187.149	1323.62
3190.28	1324.62
3193.409	1314.62
3196.536	1324.62
3199.659	1334.62
3202.781	1327.62
3205.9	1342.62
3209.016	1344.62
3212.13	1342.62
3215.241	1335.62
3218.35	1322.62
3221.456	1315.62
3224.56	1320.62
3227.661	1298.62
3230.76	1274.62
3233.856	1271.62
3236.95	1266.62
3240.041	1253.62
3243.13	1251.62
3246.216	1237.62
3249.3	1224.62
3252.382	1241.62
3255.46	1229.62
3258.537	1217.62
3261.611	1216.62
3264.682	1204.62
3267.751	1206.62
3270.818	1211.62
3273.882	1208.62
3276.943	1192.62
3280.002	1166.62
3283.059	1175.62
3286.113	1156.62
3289.165	1140.62
3292.214	1130.62
3295.261	1115.62
3298.306	1078.62
3301.348	1079.62
3304.387	1049.62
3307.425	1032.62
3310.459	1030.62
3313.492	1021.62
3316.521	1000.62
3319.549	998.62
3322.574	966.62
3325.597	964.62
3328.617	955.62
3331.635	949.62
3334.65	946.62
3337.663	946.62
3340.674	944.62
3343.682	945.62
3346.688	924.62
3349.691	923.62
3352.692	926.62
3355.691	924.62
3358.687	923.62
3361.681	902.62
3364.673	897.62
3367.662	872.62
3370.649	866.62
3373.633	865.62
3376.615	838.62
3379.595	831.62
3382.572	824.62
3385.547	807.62
3388.52	807.62
3391.49	787.62
3394.458	779.62
3397.424	771.62
3400.387	762.62
3403.348	750.62
3406.307	755.62
3409.263	752.62
3412.217	733.62
3415.168	726.62
3418.118	726.62
3421.065	713.62
3424.009	699.62
3426.951	694.62
3429.891	686.62
3432.829	671.62
3435.764	658.62
3438.697	644.62
3441.628	623.62
3444.557	606.62
3447.483	589.62
3450.407	584.62
3453.328	562.62
3456.247	554.62
3459.164	537.62
3462.079	515.62
3464.991	504.62
3467.902	488.62
3470.809	479.62
3473.715	465.62
3476.618	454.62
3479.519	432.62
3482.418	425.62
3485.315	407.62
3488.209	399.62
3491.101	396.62
3493.99	370.62
3496.878	371.62
3499.763	360.62
3502.646	343.62
3505.527	333.62
3508.405	323.62
3511.281	317.62
3514.155	301.62
3517.027	287.62
3519.897	276.62
3522.764	266.62
3525.629	244.62
3528.492	232.62
3531.352	217.62
3534.211	205.62
3537.067	191.62
3539.921	188.62
3542.773	175.62
3545.622	164.62
3548.469	158.62
3551.315	153.62
3554.157	140.62
3556.998	138.62
3559.837	128.62
3562.673	116.62
3565.507	107.62
3568.339	104.62
3571.169	98.62
3573.996	91.62
3576.822	85.62
3579.645	79.62
3582.466	69.62
3585.285	63.62
3588.101	57.62
3590.916	50.62
3593.728	43.62
3596.538	48.62
3599.346	36.62
3602.152	31.62
3604.956	25.62
3607.757	18.62
3610.556	16.62
3613.354	14.62
3616.149	15.62
3618.942	6.62
3621.732	-0.38
3624.521	-5.38
3627.307	-8.38
3630.092	-13.38
3632.874	-13.38
3635.654	-15.38
3638.432	-28.38
3641.208	-27.38
3643.982	-26.38
3646.753	-27.38
3649.523	-27.38
3652.29	-30.38
3655.055	-41.38
3657.818	-40.38
3660.579	-44.38
3663.338	-49.38
3666.095	-51.38
3668.849	-54.38
3671.602	-56.38
3674.352	-60.38
3677.101	-61.38
3679.847	-64.38
3682.591	-63.38
3685.333	-68.38
3688.073	-66.38
3690.811	-67.38
3693.547	-68.38
3696.281	-71.38
3699.013	-73.38
3701.742	-72.38
3704.47	-72.38
3707.195	-80.38
3709.919	-82.38
3712.64	-83.38
3715.359	-78.38
3718.076	-86.38
3720.792	-87.38
3723.505	-88.38
3726.216	-84.38
3728.925	-84.38
3731.632	-88.38
3734.336	-94.38
3737.039	-86.38
3739.74	-85.38
3742.439	-91.38
3745.136	-94.38
3747.83	-89.38
3750.523	-94.38
3753.213	-93.38
3755.902	-97.38
3758.589	-95.38
3761.273	-98.38
3763.956	-97.38
3766.636	-99.38
3769.315	-92.38
3771.991	-98.38
3774.665	-97.38
3777.338	-102.38
3780.008	-98.38
3782.677	-98.38
3785.343	-103.38
3788.007	-97.38
3790.67	-98.38
3793.33	-103.38
3795.989	-102.38
3798.645	-99.38
3801.299	-104.38
3803.952	-108.38
3806.602	-105.38
3809.251	-102.38
3811.897	-105.38
3814.542	-106.38
3817.184	-104.38
3819.825	-99.38
3822.463	-100.38
3825.1	-99.38
3827.735	-103.38
3830.367	-103.38
3832.998	-104.38
3835.627	-107.38
3838.253	-105.38
3840.878	-111.38
3843.501	-107.38
3846.122	-105.38
3848.741	-106.38
3851.358	-102.38
3853.973	-103.38
3856.586	-107.38
3859.197	-106.38
3861.806	-107.38
3864.414	-107.38
3867.019	-108.38
3869.622	-108.38
3872.224	-107.38
3874.823	-104.38
3877.421	-96.38
3880.016	-103.38
3882.61	-96.38
3885.202	-97.38
3887.792	-97.38
3890.38	-102.38
3892.966	-109.38
3895.55	-103.38
3898.132	-102.38
3900.713	-109.38
3903.291	-102.38
3905.868	-104.38
3908.442	-104.38
3911.015	-108.38
3913.586	-108.38
3916.155	-111.38
3918.722	-111.38
3921.287	-112.38
3923.85	-109.38
3926.411	-109.38
3928.971	-111.38
3931.528	-105.38
3934.084	-106.38
3936.638	-106.38
3939.19	-109.38
3941.74	-107.38
3944.288	-106.38
3946.834	-107.38
3949.378	-111.38
3951.921	-109.38
3954.462	-112.38
3957	-109.38
3959.537	-106.38
3962.072	-108.38
3964.606	-108.38
3967.137	-109.38
3969.667	-105.38
3972.194	-106.38
3974.72	-105.38
3977.244	-106.38
3979.766	-106.38
3982.286	-109.38
3984.805	-106.38
3987.321	-107.38
3989.836	-110.38
3992.349	-108.38
3994.86	-111.38
3997.369	-107.38
3999.877	-111.38
4002.382	-106.38
4004.886	-104.38
4007.388	-104.38
4009.888	-109.38
4012.386	-105.38
4014.883	-104.38
4017.377	-105.38
4019.87	-112.38
4022.361	-109.38
4024.85	-109.38
4027.338	-106.38
4029.823	-110.38
4032.307	-108.38
4034.789	-110.38
4037.269	-105.38
4039.747	-105.38
4042.224	-104.38
4044.699	-108.38
4047.172	-105.38
4049.643	-111.38
4052.112	-110.38
4054.58	-109.38
4057.046	-107.38
4059.51	-111.38
4061.972	-106.38
4064.432	-107.38
4066.891	-106.38
4069.348	-109.38
4071.803	-109.38
4074.256	-111.38
4076.708	-110.38
4079.158	-108.38
4081.606	-108.38
4084.052	-108.38
4086.497	-109.38
4088.939	-105.38
4091.38	-105.38
4093.819	-107.38
4096.257	-109.38
4098.693	-112.38
4101.127	-111.38
4103.559	-109.38
4105.989	-69.38
4108.418	-69.38
4110.845	-65.38
4113.27	-56.38
4115.694	-50.38
4118.115	-42.38
4120.535	-109.38
4122.954	-105.38
4125.37	-109.38
4127.785	-110.38
4130.198	-112.38
4132.609	-110.38
4135.019	-113.38
4137.427	-117.38
4139.833	-112.38
4142.237	-110.38
