Data from Bsub_water_DIL108_A_2_RamanShift_1.txt Node
Date: Wed Feb 22 12:45:16 IST 2017
User: aro
Spectrometer: QEPB0276
Trigger mode: 0
Integration Time (sec): 5.000000E0
Scans to average: 1
Electric dark correction enabled: true
Nonlinearity correction enabled: false
Boxcar width: 0
XAxis mode: Raman Shifts
Number of Pixels in Spectrum: 1044
>>>>>Begin Spectral Data<<<<<
160.701	-33.62
166.742	0.38
172.777	101.38
178.805	389.38
184.826	1089.38
190.841	2248.38
196.849	3527.38
202.85	4384.38
208.845	4562.38
214.833	4377.38
220.815	4219.38
226.789	4077.38
232.758	3968.38
238.719	3827.38
244.674	3676.38
250.623	3482.38
256.565	3327.38
262.5	3147.38
268.429	2974.38
274.351	2835.38
280.267	2714.38
286.176	2596.38
292.079	2493.38
297.975	2393.38
303.865	2312.38
309.748	2251.38
315.625	2202.38
321.495	2125.38
327.359	2103.38
333.217	2074.38
339.068	2063.38
344.912	2040.38
350.751	2049.38
356.583	2048.38
362.408	2026.38
368.227	2025.38
374.04	2034.38
379.847	2045.38
385.647	2058.38
391.44	2068.38
397.228	2082.38
403.009	2096.38
408.784	2106.38
414.553	2105.38
420.315	2113.38
426.071	2133.38
431.821	2113.38
437.565	2085.38
443.302	2098.38
449.033	2083.38
454.758	2068.38
460.477	2084.38
466.189	2063.38
471.896	2039.38
477.596	2027.38
483.29	2025.38
488.978	2018.38
494.66	1987.38
500.335	1973.38
506.005	1940.38
511.668	1892.38
517.325	1861.38
522.977	1812.38
528.622	1780.38
534.261	1754.38
539.894	1737.38
545.521	1737.38
551.141	1689.38
556.756	1692.38
562.365	1684.38
567.968	1682.38
573.565	1647.38
579.155	1645.38
584.74	1623.38
590.319	1612.38
595.892	1611.38
601.459	1600.38
607.02	1564.38
612.575	1550.38
618.124	1527.38
623.667	1523.38
629.204	1494.38
634.735	1498.38
640.261	1488.38
645.781	1471.38
651.294	1465.38
656.802	1440.38
662.304	1431.38
667.8	1422.38
673.29	1415.38
678.775	1420.38
684.254	1418.38
689.726	1398.38
695.193	1388.38
700.655	1355.38
706.11	1368.38
711.56	1346.38
717.004	1326.38
722.442	1312.38
727.874	1316.38
733.301	1304.38
738.722	1297.38
744.137	1298.38
749.547	1274.38
754.951	1273.38
760.349	1264.38
765.741	1270.38
771.128	1259.38
776.509	1277.38
781.885	1262.38
787.254	1240.38
792.618	1249.38
797.977	1229.38
803.33	1208.38
808.677	1205.38
814.019	1191.38
819.355	1177.38
824.686	1156.38
830.011	1146.38
835.33	1141.38
840.644	1134.38
845.952	1124.38
851.255	1111.38
856.552	1094.38
861.844	1099.38
867.13	1085.38
872.41	1072.38
877.686	1058.38
882.955	1020.38
888.219	1007.38
893.478	977.38
898.731	970.38
903.979	953.38
909.221	938.38
914.458	933.38
919.69	928.38
924.916	922.38
930.136	907.38
935.351	908.38
940.561	904.38
945.766	890.38
950.965	887.38
956.158	871.38
961.347	861.38
966.529	843.38
971.707	828.38
976.879	811.38
982.046	804.38
987.208	809.38
992.364	789.38
997.515	801.38
1002.66	798.38
1007.801	815.38
1012.936	810.38
1018.066	831.38
1023.19	818.38
1028.309	827.38
1033.423	830.38
1038.532	809.38
1043.636	791.38
1048.734	798.38
1053.827	780.38
1058.915	780.38
1063.998	779.38
1069.075	773.38
1074.147	758.38
1079.214	771.38
1084.276	772.38
1089.333	781.38
1094.385	786.38
1099.431	783.38
1104.472	793.38
1109.509	779.38
1114.54	771.38
1119.565	767.38
1124.586	753.38
1129.602	751.38
1134.613	745.38
1139.618	740.38
1144.619	742.38
1149.614	742.38
1154.604	740.38
1159.589	742.38
1164.57	734.38
1169.545	741.38
1174.515	750.38
1179.48	742.38
1184.44	724.38
1189.395	727.38
1194.345	732.38
1199.29	724.38
1204.23	723.38
1209.165	733.38
1214.095	722.38
1219.021	743.38
1223.941	741.38
1228.856	741.38
1233.766	735.38
1238.672	744.38
1243.572	747.38
1248.467	741.38
1253.358	746.38
1258.244	710.38
1263.124	707.38
1268	693.38
1272.871	688.38
1277.737	683.38
1282.599	679.38
1287.455	684.38
1292.306	688.38
1297.153	688.38
1301.995	685.38
1306.832	696.38
1311.664	692.38
1316.491	708.38
1321.314	678.38
1326.132	673.38
1330.945	662.38
1335.753	647.38
1340.556	634.38
1345.354	619.38
1350.148	617.38
1354.937	604.38
1359.722	609.38
1364.501	613.38
1369.276	625.38
1374.046	632.38
1378.811	645.38
1383.572	648.38
1388.327	643.38
1393.079	627.38
1397.825	622.38
1402.567	614.38
1407.304	600.38
1412.036	598.38
1416.764	579.38
1421.487	581.38
1426.205	582.38
1430.919	581.38
1435.628	594.38
1440.333	589.38
1445.032	603.38
1449.727	598.38
1454.418	602.38
1459.104	607.38
1463.785	602.38
1468.462	588.38
1473.134	596.38
1477.802	577.38
1482.465	578.38
1487.123	570.38
1491.777	581.38
1496.426	584.38
1501.071	609.38
1505.711	624.38
1510.347	624.38
1514.978	633.38
1519.604	652.38
1524.226	659.38
1528.844	661.38
1533.457	665.38
1538.065	657.38
1542.669	658.38
1547.269	658.38
1551.864	672.38
1556.454	684.38
1561.041	678.38
1565.622	694.38
1570.199	705.38
1574.772	722.38
1579.34	746.38
1583.904	765.38
1588.464	765.38
1593.019	792.38
1597.569	812.38
1602.115	818.38
1606.657	832.38
1611.195	850.38
1615.728	875.38
1620.256	881.38
1624.78	904.38
1629.3	919.38
1633.816	940.38
1638.327	963.38
1642.834	971.38
1647.336	986.38
1651.834	989.38
1656.328	979.38
1660.817	971.38
1665.302	943.38
1669.783	926.38
1674.259	881.38
1678.732	848.38
1683.199	806.38
1687.663	768.38
1692.122	731.38
1696.577	693.38
1701.028	659.38
1705.474	644.38
1709.917	630.38
1714.355	607.38
1718.788	564.38
1723.218	550.38
1727.643	522.38
1732.064	489.38
1736.481	476.38
1740.893	465.38
1745.301	444.38
1749.705	418.38
1754.105	399.38
1758.501	379.38
1762.893	365.38
1767.28	349.38
1771.663	357.38
1776.042	342.38
1780.417	342.38
1784.787	343.38
1789.154	343.38
1793.516	338.38
1797.874	340.38
1802.228	335.38
1806.578	339.38
1810.924	337.38
1815.266	339.38
1819.603	326.38
1823.937	309.38
1828.266	316.38
1832.591	299.38
1836.913	300.38
1841.23	290.38
1845.543	292.38
1849.852	285.38
1854.156	283.38
1858.457	282.38
1862.754	286.38
1867.047	284.38
1871.335	288.38
1875.62	287.38
1879.9	296.38
1884.177	290.38
1888.449	288.38
1892.718	291.38
1896.982	280.38
1901.243	276.38
1905.499	280.38
1909.752	285.38
1914	280.38
1918.245	286.38
1922.485	288.38
1926.722	292.38
1930.954	299.38
1935.183	298.38
1939.408	300.38
1943.628	299.38
1947.845	306.38
1952.058	309.38
1956.267	315.38
1960.472	293.38
1964.673	299.38
1968.87	296.38
1973.063	296.38
1977.252	292.38
1981.438	304.38
1985.619	288.38
1989.797	291.38
1993.971	285.38
1998.14	284.38
2002.306	283.38
2006.469	285.38
2010.627	286.38
2014.781	291.38
2018.932	303.38
2023.078	301.38
2027.221	293.38
2031.36	301.38
2035.495	292.38
2039.627	296.38
2043.754	288.38
2047.878	286.38
2051.998	286.38
2056.114	298.38
2060.226	295.38
2064.334	290.38
2068.439	305.38
2072.54	306.38
2076.637	313.38
2080.73	308.38
2084.82	310.38
2088.906	315.38
2092.988	309.38
2097.066	321.38
2101.14	313.38
2105.211	318.38
2109.278	319.38
2113.342	312.38
2117.401	307.38
2121.457	309.38
2125.509	307.38
2129.558	310.38
2133.602	302.38
2137.643	297.38
2141.681	303.38
2145.714	292.38
2149.744	291.38
2153.77	291.38
2157.793	290.38
2161.812	276.38
2165.827	272.38
2169.838	277.38
2173.846	262.38
2177.851	261.38
2181.851	255.38
2185.848	256.38
2189.841	238.38
2193.831	246.38
2197.817	243.38
2201.799	236.38
2205.778	233.38
2209.753	231.38
2213.725	226.38
2217.693	225.38
2221.657	225.38
2225.618	222.38
2229.575	225.38
2233.529	219.38
2237.479	210.38
2241.425	218.38
2245.368	211.38
2249.307	199.38
2253.243	204.38
2257.175	191.38
2261.104	187.38
2265.029	183.38
2268.95	182.38
2272.868	174.38
2276.783	173.38
2280.694	163.38
2284.601	159.38
2288.505	166.38
2292.405	153.38
2296.302	163.38
2300.195	153.38
2304.085	151.38
2307.971	143.38
2311.854	144.38
2315.734	137.38
2319.609	131.38
2323.482	120.38
2327.351	128.38
2331.216	128.38
2335.078	123.38
2338.937	118.38
2342.792	111.38
2346.643	115.38
2350.492	115.38
2354.336	114.38
2358.178	120.38
2362.015	106.38
2365.85	110.38
2369.681	108.38
2373.508	106.38
2377.333	111.38
2381.153	109.38
2384.971	112.38
2388.785	108.38
2392.595	103.38
2396.402	103.38
2400.206	99.38
2404.007	98.38
2407.804	91.38
2411.597	95.38
2415.388	95.38
2419.174	98.38
2422.958	87.38
2426.738	91.38
2430.515	95.38
2434.289	88.38
2438.059	87.38
2441.825	82.38
2445.589	85.38
2449.349	78.38
2453.106	84.38
2456.859	83.38
2460.61	83.38
2464.356	85.38
2468.1	85.38
2471.84	82.38
2475.577	69.38
2479.311	67.38
2483.041	75.38
2486.768	66.38
2490.492	66.38
2494.213	73.38
2497.93	72.38
2501.644	72.38
2505.355	78.38
2509.062	74.38
2512.766	73.38
2516.467	74.38
2520.165	69.38
2523.859	69.38
2527.551	66.38
2531.239	69.38
2534.923	62.38
2538.605	65.38
2542.283	61.38
2545.958	59.38
2549.63	62.38
2553.299	59.38
2556.964	61.38
2560.626	53.38
2564.285	55.38
2567.941	57.38
2571.594	60.38
2575.243	54.38
2578.89	53.38
2582.533	50.38
2586.173	52.38
2589.809	48.38
2593.443	51.38
2597.073	46.38
2600.701	47.38
2604.325	55.38
2607.946	43.38
2611.564	50.38
2615.178	45.38
2618.79	49.38
2622.398	53.38
2626.004	48.38
2629.606	47.38
2633.205	46.38
2636.801	43.38
2640.394	45.38
2643.983	39.38
2647.57	37.38
2651.153	30.38
2654.734	36.38
2658.311	37.38
2661.885	37.38
2665.456	34.38
2669.025	35.38
2672.589	35.38
2676.151	35.38
2679.71	34.38
2683.266	37.38
2686.819	30.38
2690.368	31.38
2693.915	28.38
2697.458	24.38
2700.999	27.38
2704.536	30.38
2708.071	29.38
2711.602	21.38
2715.13	22.38
2718.656	26.38
2722.178	28.38
2725.697	25.38
2729.214	24.38
2732.727	27.38
2736.237	30.38
2739.744	31.38
2743.249	32.38
2746.75	33.38
2750.248	28.38
2753.743	32.38
2757.236	34.38
2760.725	44.38
2764.211	32.38
2767.695	36.38
2771.175	39.38
2774.652	41.38
2778.127	41.38
2781.598	47.38
2785.067	38.38
2788.532	37.38
2791.995	43.38
2795.455	42.38
2798.911	43.38
2802.365	47.38
2805.816	51.38
2809.264	50.38
2812.709	56.38
2816.151	55.38
2819.59	51.38
2823.026	56.38
2826.46	63.38
2829.89	53.38
2833.318	57.38
2836.742	57.38
2840.164	60.38
2843.583	75.38
2846.999	77.38
2850.412	75.38
2853.822	72.38
2857.229	74.38
2860.634	84.38
2864.035	91.38
2867.434	86.38
2870.83	87.38
2874.223	91.38
2877.613	100.38
2881	102.38
2884.385	107.38
2887.766	110.38
2891.145	113.38
2894.521	113.38
2897.894	108.38
2901.264	110.38
2904.631	125.38
2907.996	119.38
2911.358	121.38
2914.717	138.38
2918.073	129.38
2921.426	139.38
2924.777	145.38
2928.124	143.38
2931.469	151.38
2934.811	160.38
2938.15	165.38
2941.487	176.38
2944.821	179.38
2948.152	187.38
2951.48	190.38
2954.805	187.38
2958.128	197.38
2961.447	211.38
2964.765	208.38
2968.079	230.38
2971.39	242.38
2974.699	247.38
2978.005	259.38
2981.308	260.38
2984.609	273.38
2987.907	290.38
2991.202	295.38
2994.494	312.38
2997.784	341.38
3001.07	336.38
3004.355	363.38
3007.636	350.38
3010.915	374.38
3014.191	389.38
3017.464	389.38
3020.734	401.38
3024.002	422.38
3027.267	419.38
3030.53	443.38
3033.789	442.38
3037.046	463.38
3040.301	462.38
3043.552	477.38
3046.801	494.38
3050.048	514.38
3053.291	533.38
3056.532	544.38
3059.771	574.38
3063.006	583.38
3066.239	612.38
3069.469	621.38
3072.697	658.38
3075.922	675.38
3079.144	673.38
3082.364	702.38
3085.581	715.38
3088.795	752.38
3092.007	766.38
3095.216	795.38
3098.423	801.38
3101.627	830.38
3104.828	861.38
3108.026	878.38
3111.222	901.38
3114.416	918.38
3117.607	941.38
3120.795	968.38
3123.98	1001.38
3127.163	1003.38
3130.344	1033.38
3133.521	1063.38
3136.696	1082.38
3139.869	1116.38
3143.039	1147.38
3146.206	1148.38
3149.371	1179.38
3152.533	1182.38
3155.693	1194.38
3158.85	1210.38
3162.005	1197.38
3165.157	1202.38
3168.306	1217.38
3171.453	1230.38
3174.597	1228.38
3177.739	1229.38
3180.878	1231.38
3184.014	1238.38
3187.149	1239.38
3190.28	1249.38
3193.409	1250.38
3196.536	1241.38
3199.659	1276.38
3202.781	1269.38
3205.9	1285.38
3209.016	1275.38
3212.13	1261.38
3215.241	1277.38
3218.35	1267.38
3221.456	1263.38
3224.56	1251.38
3227.661	1221.38
3230.76	1214.38
3233.856	1202.38
3236.95	1206.38
3240.041	1201.38
3243.13	1190.38
3246.216	1187.38
3249.3	1202.38
3252.382	1199.38
3255.46	1181.38
3258.537	1174.38
3261.611	1158.38
3264.682	1161.38
3267.751	1141.38
3270.818	1153.38
3273.882	1158.38
3276.943	1138.38
3280.002	1132.38
3283.059	1127.38
3286.113	1104.38
3289.165	1096.38
3292.214	1066.38
3295.261	1045.38
3298.306	1041.38
3301.348	1021.38
3304.387	1001.38
3307.425	988.38
3310.459	982.38
3313.492	978.38
3316.521	961.38
3319.549	949.38
3322.574	932.38
3325.597	929.38
3328.617	924.38
3331.635	913.38
3334.65	903.38
3337.663	895.38
3340.674	905.38
3343.682	896.38
3346.688	886.38
3349.691	883.38
3352.692	890.38
3355.691	878.38
3358.687	872.38
3361.681	856.38
3364.673	851.38
3367.662	837.38
3370.649	825.38
3373.633	820.38
3376.615	811.38
3379.595	806.38
3382.572	792.38
3385.547	781.38
3388.52	777.38
3391.49	764.38
3394.458	746.38
3397.424	750.38
3400.387	714.38
3403.348	718.38
3406.307	707.38
3409.263	700.38
3412.217	701.38
3415.168	697.38
3418.118	683.38
3421.065	678.38
3424.009	675.38
3426.951	654.38
3429.891	643.38
3432.829	632.38
3435.764	634.38
3438.697	606.38
3441.628	596.38
3444.557	591.38
3447.483	566.38
3450.407	563.38
3453.328	540.38
3456.247	527.38
3459.164	521.38
3462.079	500.38
3464.991	488.38
3467.902	466.38
3470.809	460.38
3473.715	449.38
3476.618	430.38
3479.519	416.38
3482.418	404.38
3485.315	390.38
3488.209	386.38
3491.101	378.38
3493.99	366.38
3496.878	354.38
3499.763	353.38
3502.646	332.38
3505.527	322.38
3508.405	312.38
3511.281	291.38
3514.155	284.38
3517.027	271.38
3519.897	262.38
3522.764	252.38
3525.629	238.38
3528.492	221.38
3531.352	212.38
3534.211	199.38
3537.067	192.38
3539.921	181.38
3542.773	168.38
3545.622	155.38
3548.469	151.38
3551.315	146.38
3554.157	137.38
3556.998	126.38
3559.837	115.38
3562.673	110.38
3565.507	104.38
3568.339	88.38
3571.169	93.38
3573.996	89.38
3576.822	80.38
3579.645	71.38
3582.466	64.38
3585.285	61.38
3588.101	59.38
3590.916	49.38
3593.728	41.38
3596.538	32.38
3599.346	32.38
3602.152	26.38
3604.956	19.38
3607.757	10.38
3610.556	10.38
3613.354	9.38
3616.149	8.38
3618.942	0.38
3621.732	-2.62
3624.521	-4.62
3627.307	-7.62
3630.092	-16.62
3632.874	-18.62
3635.654	-18.62
3638.432	-23.62
3641.208	-26.62
3643.982	-31.62
3646.753	-31.62
3649.523	-34.62
3652.29	-39.62
3655.055	-42.62
3657.818	-47.62
3660.579	-44.62
3663.338	-45.62
3666.095	-51.62
3668.849	-55.62
3671.602	-53.62
3674.352	-61.62
3677.101	-62.62
3679.847	-67.62
3682.591	-65.62
3685.333	-70.62
3688.073	-76.62
3690.811	-77.62
3693.547	-80.62
3696.281	-77.62
3699.013	-76.62
3701.742	-77.62
3704.47	-74.62
3707.195	-80.62
3709.919	-81.62
3712.64	-82.62
3715.359	-85.62
3718.076	-87.62
3720.792	-88.62
3723.505	-90.62
3726.216	-89.62
3728.925	-89.62
3731.632	-93.62
3734.336	-93.62
3737.039	-91.62
3739.74	-92.62
3742.439	-95.62
3745.136	-94.62
3747.83	-96.62
3750.523	-99.62
3753.213	-98.62
3755.902	-100.62
3758.589	-101.62
3761.273	-102.62
3763.956	-102.62
3766.636	-104.62
3769.315	-96.62
3771.991	-101.62
3774.665	-99.62
3777.338	-102.62
3780.008	-102.62
3782.677	-100.62
3785.343	-101.62
3788.007	-102.62
3790.67	-105.62
3793.33	-107.62
3795.989	-101.62
3798.645	-106.62
3801.299	-107.62
3803.952	-109.62
3806.602	-105.62
3809.251	-105.62
3811.897	-105.62
3814.542	-104.62
3817.184	-105.62
3819.825	-100.62
3822.463	-103.62
3825.1	-101.62
3827.735	-105.62
3830.367	-109.62
3832.998	-110.62
3835.627	-111.62
3838.253	-109.62
3840.878	-110.62
3843.501	-107.62
3846.122	-107.62
3848.741	-106.62
3851.358	-108.62
3853.973	-106.62
3856.586	-107.62
3859.197	-109.62
3861.806	-112.62
3864.414	-112.62
3867.019	-107.62
3869.622	-110.62
3872.224	-112.62
3874.823	-108.62
3877.421	-101.62
3880.016	-104.62
3882.61	-101.62
3885.202	-99.62
3887.792	-101.62
3890.38	-106.62
3892.966	-108.62
3895.55	-109.62
3898.132	-106.62
3900.713	-108.62
3903.291	-108.62
3905.868	-108.62
3908.442	-108.62
3911.015	-113.62
3913.586	-110.62
3916.155	-115.62
3918.722	-112.62
3921.287	-111.62
3923.85	-109.62
3926.411	-112.62
3928.971	-110.62
3931.528	-108.62
3934.084	-111.62
3936.638	-111.62
3939.19	-112.62
3941.74	-113.62
3944.288	-115.62
3946.834	-110.62
3949.378	-116.62
3951.921	-111.62
3954.462	-110.62
3957	-111.62
3959.537	-104.62
3962.072	-110.62
3964.606	-110.62
3967.137	-109.62
3969.667	-111.62
3972.194	-113.62
3974.72	-113.62
3977.244	-109.62
3979.766	-109.62
3982.286	-110.62
3984.805	-110.62
3987.321	-105.62
3989.836	-110.62
3992.349	-108.62
3994.86	-110.62
3997.369	-108.62
3999.877	-113.62
4002.382	-109.62
4004.886	-110.62
4007.388	-108.62
4009.888	-113.62
4012.386	-108.62
4014.883	-109.62
4017.377	-107.62
4019.87	-112.62
4022.361	-110.62
4024.85	-113.62
4027.338	-111.62
4029.823	-114.62
4032.307	-110.62
4034.789	-114.62
4037.269	-110.62
4039.747	-107.62
4042.224	-112.62
4044.699	-114.62
4047.172	-109.62
4049.643	-115.62
4052.112	-113.62
4054.58	-111.62
4057.046	-107.62
4059.51	-112.62
4061.972	-105.62
4064.432	-110.62
4066.891	-108.62
4069.348	-113.62
4071.803	-114.62
4074.256	-113.62
4076.708	-112.62
4079.158	-113.62
4081.606	-109.62
4084.052	-114.62
4086.497	-110.62
4088.939	-107.62
4091.38	-108.62
4093.819	-112.62
4096.257	-110.62
4098.693	-112.62
4101.127	-113.62
4103.559	-113.62
4105.989	-72.62
4108.418	-70.62
4110.845	-70.62
4113.27	-66.62
4115.694	-54.62
4118.115	-46.62
4120.535	-110.62
4122.954	-107.62
4125.37	-111.62
4127.785	-114.62
4130.198	-114.62
4132.609	-113.62
4135.019	-115.62
4137.427	-116.62
4139.833	-113.62
4142.237	-111.62
