Data from Bsub_water_DIL107_B_2_RamanShift_1.txt Node
Date: Wed Feb 22 13:17:01 IST 2017
User: aro
Spectrometer: QEPB0276
Trigger mode: 0
Integration Time (sec): 5.000000E0
Scans to average: 1
Electric dark correction enabled: true
Nonlinearity correction enabled: false
Boxcar width: 0
XAxis mode: Raman Shifts
Number of Pixels in Spectrum: 1044
>>>>>Begin Spectral Data<<<<<
160.701	-34.38
166.742	5.62
172.777	95.62
178.805	389.62
184.826	1095.62
190.841	2265.62
196.849	3608.62
202.85	4494.62
208.845	4703.62
214.833	4563.62
220.815	4418.62
226.789	4263.62
232.758	4168.62
238.719	4014.62
244.674	3856.62
250.623	3700.62
256.565	3522.62
262.5	3366.62
268.429	3186.62
274.351	3061.62
280.267	2944.62
286.176	2818.62
292.079	2762.62
297.975	2647.62
303.865	2556.62
309.748	2483.62
315.625	2422.62
321.495	2382.62
327.359	2353.62
333.217	2315.62
339.068	2289.62
344.912	2282.62
350.751	2254.62
356.583	2267.62
362.408	2247.62
368.227	2254.62
374.04	2269.62
379.847	2284.62
385.647	2305.62
391.44	2298.62
397.228	2324.62
403.009	2347.62
408.784	2357.62
414.553	2363.62
420.315	2372.62
426.071	2379.62
431.821	2352.62
437.565	2339.62
443.302	2354.62
449.033	2327.62
454.758	2332.62
460.477	2319.62
466.189	2308.62
471.896	2298.62
477.596	2283.62
483.29	2287.62
488.978	2258.62
494.66	2279.62
500.335	2239.62
506.005	2221.62
511.668	2160.62
517.325	2127.62
522.977	2076.62
528.622	2056.62
534.261	2047.62
539.894	2014.62
545.521	1984.62
551.141	1980.62
556.756	1974.62
562.365	1961.62
567.968	1927.62
573.565	1920.62
579.155	1915.62
584.74	1903.62
590.319	1887.62
595.892	1887.62
601.459	1867.62
607.02	1865.62
612.575	1854.62
618.124	1812.62
623.667	1795.62
629.204	1798.62
634.735	1750.62
640.261	1763.62
645.781	1739.62
651.294	1748.62
656.802	1738.62
662.304	1730.62
667.8	1718.62
673.29	1717.62
678.775	1698.62
684.254	1695.62
689.726	1700.62
695.193	1681.62
700.655	1664.62
706.11	1654.62
711.56	1657.62
717.004	1630.62
722.442	1627.62
727.874	1603.62
733.301	1608.62
738.722	1597.62
744.137	1605.62
749.547	1588.62
754.951	1582.62
760.349	1577.62
765.741	1593.62
771.128	1557.62
776.509	1581.62
781.885	1585.62
787.254	1560.62
792.618	1568.62
797.977	1556.62
803.33	1544.62
808.677	1527.62
814.019	1524.62
819.355	1485.62
824.686	1480.62
830.011	1489.62
835.33	1453.62
840.644	1458.62
845.952	1435.62
851.255	1452.62
856.552	1442.62
861.844	1430.62
867.13	1405.62
872.41	1395.62
877.686	1387.62
882.955	1380.62
888.219	1356.62
893.478	1336.62
898.731	1292.62
903.979	1290.62
909.221	1263.62
914.458	1256.62
919.69	1250.62
924.916	1245.62
930.136	1248.62
935.351	1248.62
940.561	1237.62
945.766	1240.62
950.965	1225.62
956.158	1219.62
961.347	1202.62
966.529	1190.62
971.707	1177.62
976.879	1155.62
982.046	1135.62
987.208	1142.62
992.364	1134.62
997.515	1133.62
1002.66	1128.62
1007.801	1150.62
1012.936	1144.62
1018.066	1172.62
1023.19	1178.62
1028.309	1180.62
1033.423	1168.62
1038.532	1160.62
1043.636	1157.62
1048.734	1158.62
1053.827	1147.62
1058.915	1123.62
1063.998	1114.62
1069.075	1124.62
1074.147	1115.62
1079.214	1123.62
1084.276	1146.62
1089.333	1147.62
1094.385	1148.62
1099.431	1137.62
1104.472	1149.62
1109.509	1140.62
1114.54	1127.62
1119.565	1115.62
1124.586	1093.62
1129.602	1093.62
1134.613	1092.62
1139.618	1077.62
1144.619	1079.62
1149.614	1081.62
1154.604	1092.62
1159.589	1088.62
1164.57	1104.62
1169.545	1096.62
1174.515	1089.62
1179.48	1096.62
1184.44	1085.62
1189.395	1082.62
1194.345	1081.62
1199.29	1075.62
1204.23	1065.62
1209.165	1072.62
1214.095	1096.62
1219.021	1084.62
1223.941	1105.62
1228.856	1098.62
1233.766	1108.62
1238.672	1106.62
1243.572	1111.62
1248.467	1102.62
1253.358	1080.62
1258.244	1072.62
1263.124	1051.62
1268	1030.62
1272.871	1028.62
1277.737	1026.62
1282.599	1018.62
1287.455	1010.62
1292.306	1024.62
1297.153	1036.62
1301.995	1043.62
1306.832	1043.62
1311.664	1051.62
1316.491	1043.62
1321.314	1030.62
1326.132	1034.62
1330.945	1005.62
1335.753	982.62
1340.556	968.62
1345.354	942.62
1350.148	930.62
1354.937	919.62
1359.722	948.62
1364.501	944.62
1369.276	969.62
1374.046	982.62
1378.811	990.62
1383.572	996.62
1388.327	983.62
1393.079	970.62
1397.825	971.62
1402.567	942.62
1407.304	936.62
1412.036	919.62
1416.764	906.62
1421.487	918.62
1426.205	909.62
1430.919	915.62
1435.628	917.62
1440.333	933.62
1445.032	935.62
1449.727	937.62
1454.418	936.62
1459.104	938.62
1463.785	936.62
1468.462	919.62
1473.134	886.62
1477.802	903.62
1482.465	898.62
1487.123	895.62
1491.777	891.62
1496.426	908.62
1501.071	925.62
1505.711	927.62
1510.347	952.62
1514.978	979.62
1519.604	982.62
1524.226	993.62
1528.844	997.62
1533.457	999.62
1538.065	991.62
1542.669	999.62
1547.269	981.62
1551.864	1010.62
1556.454	1017.62
1561.041	1027.62
1565.622	1016.62
1570.199	1028.62
1574.772	1046.62
1579.34	1078.62
1583.904	1083.62
1588.464	1098.62
1593.019	1125.62
1597.569	1131.62
1602.115	1153.62
1606.657	1159.62
1611.195	1164.62
1615.728	1170.62
1620.256	1190.62
1624.78	1200.62
1629.3	1220.62
1633.816	1237.62
1638.327	1254.62
1642.834	1263.62
1647.336	1286.62
1651.834	1274.62
1656.328	1293.62
1660.817	1266.62
1665.302	1242.62
1669.783	1224.62
1674.259	1192.62
1678.732	1147.62
1683.199	1101.62
1687.663	1058.62
1692.122	1006.62
1696.577	964.62
1701.028	951.62
1705.474	947.62
1709.917	913.62
1714.355	906.62
1718.788	875.62
1723.218	855.62
1727.643	813.62
1732.064	797.62
1736.481	776.62
1740.893	747.62
1745.301	730.62
1749.705	701.62
1754.105	682.62
1758.501	666.62
1762.893	643.62
1767.28	621.62
1771.663	617.62
1776.042	606.62
1780.417	613.62
1784.787	599.62
1789.154	615.62
1793.516	628.62
1797.874	630.62
1802.228	632.62
1806.578	626.62
1810.924	625.62
1815.266	634.62
1819.603	606.62
1823.937	595.62
1828.266	594.62
1832.591	577.62
1836.913	565.62
1841.23	558.62
1845.543	566.62
1849.852	550.62
1854.156	558.62
1858.457	551.62
1862.754	557.62
1867.047	557.62
1871.335	552.62
1875.62	561.62
1879.9	555.62
1884.177	551.62
1888.449	549.62
1892.718	539.62
1896.982	554.62
1901.243	537.62
1905.499	542.62
1909.752	538.62
1914	549.62
1918.245	545.62
1922.485	565.62
1926.722	551.62
1930.954	572.62
1935.183	562.62
1939.408	570.62
1943.628	570.62
1947.845	573.62
1952.058	577.62
1956.267	569.62
1960.472	563.62
1964.673	564.62
1968.87	557.62
1973.063	550.62
1977.252	548.62
1981.438	546.62
1985.619	538.62
1989.797	545.62
1993.971	543.62
1998.14	548.62
2002.306	547.62
2006.469	533.62
2010.627	545.62
2014.781	547.62
2018.932	545.62
2023.078	549.62
2027.221	541.62
2031.36	541.62
2035.495	536.62
2039.627	524.62
2043.754	517.62
2047.878	530.62
2051.998	518.62
2056.114	526.62
2060.226	542.62
2064.334	531.62
2068.439	538.62
2072.54	531.62
2076.637	528.62
2080.73	546.62
2084.82	551.62
2088.906	556.62
2092.988	555.62
2097.066	556.62
2101.14	556.62
2105.211	553.62
2109.278	546.62
2113.342	538.62
2117.401	545.62
2121.457	543.62
2125.509	529.62
2129.558	545.62
2133.602	531.62
2137.643	526.62
2141.681	525.62
2145.714	520.62
2149.744	525.62
2153.77	519.62
2157.793	509.62
2161.812	504.62
2165.827	498.62
2169.838	484.62
2173.846	480.62
2177.851	470.62
2181.851	466.62
2185.848	455.62
2189.841	435.62
2193.831	447.62
2197.817	444.62
2201.799	442.62
2205.778	439.62
2209.753	442.62
2213.725	448.62
2217.693	434.62
2221.657	424.62
2225.618	427.62
2229.575	428.62
2233.529	424.62
2237.479	417.62
2241.425	424.62
2245.368	408.62
2249.307	398.62
2253.243	396.62
2257.175	377.62
2261.104	382.62
2265.029	377.62
2268.95	380.62
2272.868	368.62
2276.783	363.62
2280.694	360.62
2284.601	354.62
2288.505	342.62
2292.405	347.62
2296.302	351.62
2300.195	333.62
2304.085	334.62
2307.971	322.62
2311.854	311.62
2315.734	313.62
2319.609	301.62
2323.482	303.62
2327.351	299.62
2331.216	299.62
2335.078	293.62
2338.937	294.62
2342.792	289.62
2346.643	287.62
2350.492	281.62
2354.336	280.62
2358.178	283.62
2362.015	278.62
2365.85	280.62
2369.681	286.62
2373.508	274.62
2377.333	278.62
2381.153	274.62
2384.971	277.62
2388.785	277.62
2392.595	273.62
2396.402	264.62
2400.206	264.62
2404.007	258.62
2407.804	254.62
2411.597	252.62
2415.388	259.62
2419.174	255.62
2422.958	248.62
2426.738	252.62
2430.515	249.62
2434.289	246.62
2438.059	246.62
2441.825	241.62
2445.589	236.62
2449.349	237.62
2453.106	243.62
2456.859	246.62
2460.61	228.62
2464.356	232.62
2468.1	223.62
2471.84	231.62
2475.577	222.62
2479.311	220.62
2483.041	222.62
2486.768	215.62
2490.492	228.62
2494.213	219.62
2497.93	217.62
2501.644	220.62
2505.355	221.62
2509.062	223.62
2512.766	225.62
2516.467	219.62
2520.165	215.62
2523.859	213.62
2527.551	211.62
2531.239	211.62
2534.923	209.62
2538.605	212.62
2542.283	210.62
2545.958	209.62
2549.63	209.62
2553.299	196.62
2556.964	199.62
2560.626	195.62
2564.285	200.62
2567.941	199.62
2571.594	202.62
2575.243	192.62
2578.89	195.62
2582.533	192.62
2586.173	196.62
2589.809	190.62
2593.443	182.62
2597.073	192.62
2600.701	183.62
2604.325	182.62
2607.946	182.62
2611.564	182.62
2615.178	174.62
2618.79	181.62
2622.398	177.62
2626.004	175.62
2629.606	180.62
2633.205	173.62
2636.801	169.62
2640.394	171.62
2643.983	162.62
2647.57	167.62
2651.153	161.62
2654.734	155.62
2658.311	157.62
2661.885	158.62
2665.456	148.62
2669.025	153.62
2672.589	150.62
2676.151	151.62
2679.71	139.62
2683.266	146.62
2686.819	151.62
2690.368	132.62
2693.915	138.62
2697.458	145.62
2700.999	138.62
2704.536	133.62
2708.071	134.62
2711.602	126.62
2715.13	125.62
2718.656	121.62
2722.178	126.62
2725.697	124.62
2729.214	127.62
2732.727	128.62
2736.237	136.62
2739.744	136.62
2743.249	131.62
2746.75	135.62
2750.248	135.62
2753.743	133.62
2757.236	135.62
2760.725	138.62
2764.211	142.62
2767.695	142.62
2771.175	144.62
2774.652	144.62
2778.127	145.62
2781.598	136.62
2785.067	142.62
2788.532	138.62
2791.995	139.62
2795.455	141.62
2798.911	153.62
2802.365	135.62
2805.816	144.62
2809.264	144.62
2812.709	149.62
2816.151	148.62
2819.59	148.62
2823.026	152.62
2826.46	146.62
2829.89	144.62
2833.318	151.62
2836.742	155.62
2840.164	157.62
2843.583	163.62
2846.999	164.62
2850.412	165.62
2853.822	170.62
2857.229	164.62
2860.634	167.62
2864.035	170.62
2867.434	172.62
2870.83	176.62
2874.223	181.62
2877.613	185.62
2881	192.62
2884.385	195.62
2887.766	193.62
2891.145	191.62
2894.521	194.62
2897.894	193.62
2901.264	189.62
2904.631	200.62
2907.996	201.62
2911.358	204.62
2914.717	206.62
2918.073	208.62
2921.426	216.62
2924.777	223.62
2928.124	222.62
2931.469	232.62
2934.811	232.62
2938.15	243.62
2941.487	248.62
2944.821	250.62
2948.152	257.62
2951.48	266.62
2954.805	258.62
2958.128	272.62
2961.447	276.62
2964.765	283.62
2968.079	296.62
2971.39	303.62
2974.699	306.62
2978.005	320.62
2981.308	324.62
2984.609	331.62
2987.907	352.62
2991.202	363.62
2994.494	388.62
2997.784	402.62
3001.07	403.62
3004.355	423.62
3007.636	430.62
3010.915	439.62
3014.191	451.62
3017.464	450.62
3020.734	458.62
3024.002	477.62
3027.267	482.62
3030.53	495.62
3033.789	502.62
3037.046	505.62
3040.301	514.62
3043.552	529.62
3046.801	552.62
3050.048	562.62
3053.291	578.62
3056.532	601.62
3059.771	625.62
3063.006	637.62
3066.239	664.62
3069.469	685.62
3072.697	696.62
3075.922	725.62
3079.144	743.62
3082.364	757.62
3085.581	771.62
3088.795	805.62
3092.007	807.62
3095.216	838.62
3098.423	848.62
3101.627	862.62
3104.828	898.62
3108.026	910.62
3111.222	940.62
3114.416	963.62
3117.607	976.62
3120.795	1003.62
3123.98	1036.62
3127.163	1054.62
3130.344	1090.62
3133.521	1111.62
3136.696	1144.62
3139.869	1166.62
3143.039	1173.62
3146.206	1195.62
3149.371	1224.62
3152.533	1208.62
3155.693	1236.62
3158.85	1231.62
3162.005	1260.62
3165.157	1262.62
3168.306	1263.62
3171.453	1272.62
3174.597	1284.62
3177.739	1284.62
3180.878	1282.62
3184.014	1272.62
3187.149	1282.62
3190.28	1280.62
3193.409	1287.62
3196.536	1286.62
3199.659	1289.62
3202.781	1283.62
3205.9	1309.62
3209.016	1314.62
3212.13	1300.62
3215.241	1301.62
3218.35	1299.62
3221.456	1282.62
3224.56	1258.62
3227.661	1257.62
3230.76	1247.62
3233.856	1232.62
3236.95	1230.62
3240.041	1233.62
3243.13	1210.62
3246.216	1213.62
3249.3	1193.62
3252.382	1204.62
3255.46	1181.62
3258.537	1202.62
3261.611	1185.62
3264.682	1175.62
3267.751	1173.62
3270.818	1188.62
3273.882	1164.62
3276.943	1159.62
3280.002	1161.62
3283.059	1131.62
3286.113	1127.62
3289.165	1115.62
3292.214	1094.62
3295.261	1070.62
3298.306	1051.62
3301.348	1031.62
3304.387	1027.62
3307.425	1016.62
3310.459	1003.62
3313.492	981.62
3316.521	969.62
3319.549	964.62
3322.574	944.62
3325.597	949.62
3328.617	930.62
3331.635	939.62
3334.65	917.62
3337.663	912.62
3340.674	911.62
3343.682	894.62
3346.688	901.62
3349.691	905.62
3352.692	905.62
3355.691	892.62
3358.687	897.62
3361.681	866.62
3364.673	856.62
3367.662	842.62
3370.649	843.62
3373.633	827.62
3376.615	816.62
3379.595	811.62
3382.572	790.62
3385.547	780.62
3388.52	767.62
3391.49	762.62
3394.458	765.62
3397.424	760.62
3400.387	727.62
3403.348	724.62
3406.307	715.62
3409.263	708.62
3412.217	710.62
3415.168	704.62
3418.118	691.62
3421.065	682.62
3424.009	671.62
3426.951	663.62
3429.891	649.62
3432.829	635.62
3435.764	626.62
3438.697	612.62
3441.628	603.62
3444.557	591.62
3447.483	566.62
3450.407	567.62
3453.328	547.62
3456.247	532.62
3459.164	520.62
3462.079	491.62
3464.991	493.62
3467.902	467.62
3470.809	466.62
3473.715	443.62
3476.618	426.62
3479.519	425.62
3482.418	410.62
3485.315	400.62
3488.209	387.62
3491.101	371.62
3493.99	370.62
3496.878	360.62
3499.763	347.62
3502.646	338.62
3505.527	328.62
3508.405	316.62
3511.281	302.62
3514.155	295.62
3517.027	275.62
3519.897	272.62
3522.764	258.62
3525.629	242.62
3528.492	227.62
3531.352	214.62
3534.211	197.62
3537.067	193.62
3539.921	179.62
3542.773	177.62
3545.622	163.62
3548.469	150.62
3551.315	150.62
3554.157	136.62
3556.998	129.62
3559.837	117.62
3562.673	107.62
3565.507	101.62
3568.339	95.62
3571.169	93.62
3573.996	84.62
3576.822	77.62
3579.645	72.62
3582.466	71.62
3585.285	66.62
3588.101	57.62
3590.916	54.62
3593.728	49.62
3596.538	38.62
3599.346	29.62
3602.152	32.62
3604.956	20.62
3607.757	17.62
3610.556	11.62
3613.354	10.62
3616.149	8.62
3618.942	13.62
3621.732	-1.38
3624.521	-1.38
3627.307	-7.38
3630.092	-13.38
3632.874	-13.38
3635.654	-13.38
3638.432	-20.38
3641.208	-21.38
3643.982	-24.38
3646.753	-29.38
3649.523	-30.38
3652.29	-32.38
3655.055	-39.38
3657.818	-41.38
3660.579	-43.38
3663.338	-48.38
3666.095	-49.38
3668.849	-50.38
3671.602	-50.38
3674.352	-61.38
3677.101	-60.38
3679.847	-62.38
3682.591	-61.38
3685.333	-69.38
3688.073	-68.38
3690.811	-73.38
3693.547	-77.38
3696.281	-70.38
3699.013	-73.38
3701.742	-71.38
3704.47	-73.38
3707.195	-77.38
3709.919	-77.38
3712.64	-77.38
3715.359	-81.38
3718.076	-84.38
3720.792	-84.38
3723.505	-85.38
3726.216	-87.38
3728.925	-89.38
3731.632	-91.38
3734.336	-94.38
3737.039	-93.38
3739.74	-91.38
3742.439	-95.38
3745.136	-94.38
3747.83	-91.38
3750.523	-93.38
3753.213	-93.38
3755.902	-99.38
3758.589	-94.38
3761.273	-96.38
3763.956	-97.38
3766.636	-98.38
3769.315	-95.38
3771.991	-101.38
3774.665	-101.38
3777.338	-102.38
3780.008	-101.38
3782.677	-101.38
3785.343	-103.38
3788.007	-99.38
3790.67	-101.38
3793.33	-102.38
3795.989	-98.38
3798.645	-100.38
3801.299	-103.38
3803.952	-103.38
3806.602	-102.38
3809.251	-104.38
3811.897	-106.38
3814.542	-106.38
3817.184	-108.38
3819.825	-103.38
3822.463	-103.38
3825.1	-103.38
3827.735	-107.38
3830.367	-103.38
3832.998	-105.38
3835.627	-106.38
3838.253	-105.38
3840.878	-109.38
3843.501	-107.38
3846.122	-106.38
3848.741	-104.38
3851.358	-107.38
3853.973	-104.38
3856.586	-108.38
3859.197	-106.38
3861.806	-110.38
3864.414	-113.38
3867.019	-111.38
3869.622	-113.38
3872.224	-108.38
3874.823	-107.38
3877.421	-97.38
3880.016	-102.38
3882.61	-93.38
3885.202	-99.38
3887.792	-99.38
3890.38	-103.38
3892.966	-108.38
3895.55	-106.38
3898.132	-103.38
3900.713	-110.38
3903.291	-107.38
3905.868	-105.38
3908.442	-108.38
3911.015	-110.38
3913.586	-114.38
3916.155	-114.38
3918.722	-110.38
3921.287	-110.38
3923.85	-108.38
3926.411	-114.38
3928.971	-110.38
3931.528	-107.38
3934.084	-105.38
3936.638	-104.38
3939.19	-111.38
3941.74	-108.38
3944.288	-113.38
3946.834	-107.38
3949.378	-110.38
3951.921	-111.38
3954.462	-111.38
3957	-113.38
3959.537	-105.38
3962.072	-112.38
3964.606	-111.38
3967.137	-109.38
3969.667	-108.38
3972.194	-114.38
3974.72	-109.38
3977.244	-110.38
3979.766	-108.38
3982.286	-108.38
3984.805	-105.38
3987.321	-105.38
3989.836	-105.38
3992.349	-109.38
3994.86	-109.38
3997.369	-107.38
3999.877	-113.38
4002.382	-110.38
4004.886	-107.38
4007.388	-110.38
4009.888	-112.38
4012.386	-108.38
4014.883	-105.38
4017.377	-107.38
4019.87	-113.38
4022.361	-109.38
4024.85	-110.38
4027.338	-111.38
4029.823	-109.38
4032.307	-106.38
4034.789	-110.38
4037.269	-107.38
4039.747	-105.38
4042.224	-112.38
4044.699	-114.38
4047.172	-109.38
4049.643	-114.38
4052.112	-115.38
4054.58	-111.38
4057.046	-107.38
4059.51	-109.38
4061.972	-103.38
4064.432	-108.38
4066.891	-108.38
4069.348	-105.38
4071.803	-111.38
4074.256	-112.38
4076.708	-111.38
4079.158	-112.38
4081.606	-113.38
4084.052	-115.38
4086.497	-112.38
4088.939	-109.38
4091.38	-107.38
4093.819	-111.38
4096.257	-109.38
4098.693	-114.38
4101.127	-114.38
4103.559	-112.38
4105.989	-72.38
4108.418	-65.38
4110.845	-65.38
4113.27	-59.38
4115.694	-52.38
4118.115	-44.38
4120.535	-111.38
4122.954	-105.38
4125.37	-109.38
4127.785	-111.38
4130.198	-109.38
4132.609	-110.38
4135.019	-113.38
4137.427	-114.38
4139.833	-116.38
4142.237	-112.38
