Data from Bsub_water_DIL103_B_2_RamanShift_1.txt Node
Date: Wed Feb 22 13:27:41 IST 2017
User: aro
Spectrometer: QEPB0276
Trigger mode: 0
Integration Time (sec): 5.000000E0
Scans to average: 1
Electric dark correction enabled: true
Nonlinearity correction enabled: false
Boxcar width: 0
XAxis mode: Raman Shifts
Number of Pixels in Spectrum: 1044
>>>>>Begin Spectral Data<<<<<
160.701	-26.62
166.742	0.38
172.777	98.38
178.805	372.38
184.826	1062.38
190.841	2209.38
196.849	3529.38
202.85	4413.38
208.845	4628.38
214.833	4521.38
220.815	4303.38
226.789	4218.38
232.758	4067.38
238.719	3984.38
244.674	3798.38
250.623	3651.38
256.565	3466.38
262.5	3302.38
268.429	3165.38
274.351	3054.38
280.267	2945.38
286.176	2843.38
292.079	2710.38
297.975	2631.38
303.865	2550.38
309.748	2467.38
315.625	2401.38
321.495	2379.38
327.359	2327.38
333.217	2311.38
339.068	2311.38
344.912	2281.38
350.751	2266.38
356.583	2258.38
362.408	2266.38
368.227	2256.38
374.04	2269.38
379.847	2283.38
385.647	2325.38
391.44	2321.38
397.228	2317.38
403.009	2318.38
408.784	2371.38
414.553	2358.38
420.315	2361.38
426.071	2358.38
431.821	2373.38
437.565	2382.38
443.302	2364.38
449.033	2365.38
454.758	2340.38
460.477	2350.38
466.189	2308.38
471.896	2311.38
477.596	2308.38
483.29	2280.38
488.978	2288.38
494.66	2289.38
500.335	2258.38
506.005	2202.38
511.668	2173.38
517.325	2118.38
522.977	2121.38
528.622	2076.38
534.261	2059.38
539.894	2037.38
545.521	2029.38
551.141	2023.38
556.756	2011.38
562.365	2000.38
567.968	1975.38
573.565	1941.38
579.155	1955.38
584.74	1923.38
590.319	1941.38
595.892	1913.38
601.459	1921.38
607.02	1876.38
612.575	1876.38
618.124	1868.38
623.667	1833.38
629.204	1815.38
634.735	1795.38
640.261	1804.38
645.781	1778.38
651.294	1771.38
656.802	1774.38
662.304	1766.38
667.8	1754.38
673.29	1739.38
678.775	1760.38
684.254	1733.38
689.726	1730.38
695.193	1722.38
700.655	1713.38
706.11	1701.38
711.56	1699.38
717.004	1675.38
722.442	1673.38
727.874	1665.38
733.301	1646.38
738.722	1638.38
744.137	1638.38
749.547	1623.38
754.951	1643.38
760.349	1627.38
765.741	1624.38
771.128	1615.38
776.509	1630.38
781.885	1624.38
787.254	1621.38
792.618	1626.38
797.977	1607.38
803.33	1583.38
808.677	1577.38
814.019	1555.38
819.355	1542.38
824.686	1538.38
830.011	1518.38
835.33	1511.38
840.644	1518.38
845.952	1500.38
851.255	1487.38
856.552	1490.38
861.844	1485.38
867.13	1474.38
872.41	1450.38
877.686	1441.38
882.955	1437.38
888.219	1426.38
893.478	1394.38
898.731	1361.38
903.979	1348.38
909.221	1329.38
914.458	1322.38
919.69	1299.38
924.916	1314.38
930.136	1311.38
935.351	1321.38
940.561	1316.38
945.766	1295.38
950.965	1292.38
956.158	1275.38
961.347	1275.38
966.529	1263.38
971.707	1216.38
976.879	1219.38
982.046	1223.38
987.208	1205.38
992.364	1200.38
997.515	1200.38
1002.66	1215.38
1007.801	1222.38
1012.936	1235.38
1018.066	1247.38
1023.19	1259.38
1028.309	1249.38
1033.423	1237.38
1038.532	1252.38
1043.636	1228.38
1048.734	1222.38
1053.827	1224.38
1058.915	1202.38
1063.998	1191.38
1069.075	1181.38
1074.147	1190.38
1079.214	1192.38
1084.276	1206.38
1089.333	1207.38
1094.385	1224.38
1099.431	1239.38
1104.472	1226.38
1109.509	1219.38
1114.54	1204.38
1119.565	1174.38
1124.586	1159.38
1129.602	1151.38
1134.613	1158.38
1139.618	1141.38
1144.619	1144.38
1149.614	1168.38
1154.604	1165.38
1159.589	1168.38
1164.57	1167.38
1169.545	1174.38
1174.515	1176.38
1179.48	1164.38
1184.44	1166.38
1189.395	1174.38
1194.345	1141.38
1199.29	1153.38
1204.23	1159.38
1209.165	1162.38
1214.095	1141.38
1219.021	1170.38
1223.941	1186.38
1228.856	1171.38
1233.766	1187.38
1238.672	1191.38
1243.572	1192.38
1248.467	1180.38
1253.358	1172.38
1258.244	1148.38
1263.124	1138.38
1268	1123.38
1272.871	1114.38
1277.737	1077.38
1282.599	1091.38
1287.455	1102.38
1292.306	1105.38
1297.153	1110.38
1301.995	1121.38
1306.832	1130.38
1311.664	1129.38
1316.491	1135.38
1321.314	1131.38
1326.132	1092.38
1330.945	1096.38
1335.753	1051.38
1340.556	1045.38
1345.354	1037.38
1350.148	1007.38
1354.937	994.38
1359.722	997.38
1364.501	1014.38
1369.276	1049.38
1374.046	1055.38
1378.811	1063.38
1383.572	1079.38
1388.327	1078.38
1393.079	1052.38
1397.825	1029.38
1402.567	1019.38
1407.304	998.38
1412.036	990.38
1416.764	1005.38
1421.487	973.38
1426.205	968.38
1430.919	984.38
1435.628	995.38
1440.333	1003.38
1445.032	1016.38
1449.727	1015.38
1454.418	1022.38
1459.104	1006.38
1463.785	1010.38
1468.462	1000.38
1473.134	993.38
1477.802	962.38
1482.465	986.38
1487.123	973.38
1491.777	982.38
1496.426	995.38
1501.071	1007.38
1505.711	1022.38
1510.347	1033.38
1514.978	1047.38
1519.604	1062.38
1524.226	1064.38
1528.844	1078.38
1533.457	1081.38
1538.065	1081.38
1542.669	1081.38
1547.269	1075.38
1551.864	1066.38
1556.454	1068.38
1561.041	1088.38
1565.622	1092.38
1570.199	1101.38
1574.772	1119.38
1579.34	1142.38
1583.904	1156.38
1588.464	1163.38
1593.019	1175.38
1597.569	1214.38
1602.115	1202.38
1606.657	1226.38
1611.195	1217.38
1615.728	1237.38
1620.256	1241.38
1624.78	1256.38
1629.3	1288.38
1633.816	1313.38
1638.327	1306.38
1642.834	1325.38
1647.336	1325.38
1651.834	1341.38
1656.328	1355.38
1660.817	1344.38
1665.302	1319.38
1669.783	1293.38
1674.259	1259.38
1678.732	1214.38
1683.199	1170.38
1687.663	1117.38
1692.122	1072.38
1696.577	1037.38
1701.028	1020.38
1705.474	1014.38
1709.917	1001.38
1714.355	972.38
1718.788	942.38
1723.218	908.38
1727.643	882.38
1732.064	883.38
1736.481	849.38
1740.893	818.38
1745.301	810.38
1749.705	782.38
1754.105	742.38
1758.501	731.38
1762.893	711.38
1767.28	703.38
1771.663	687.38
1776.042	694.38
1780.417	675.38
1784.787	681.38
1789.154	684.38
1793.516	698.38
1797.874	710.38
1802.228	708.38
1806.578	705.38
1810.924	710.38
1815.266	695.38
1819.603	680.38
1823.937	676.38
1828.266	657.38
1832.591	654.38
1836.913	646.38
1841.23	637.38
1845.543	639.38
1849.852	632.38
1854.156	613.38
1858.457	631.38
1862.754	629.38
1867.047	629.38
1871.335	627.38
1875.62	639.38
1879.9	645.38
1884.177	628.38
1888.449	632.38
1892.718	620.38
1896.982	631.38
1901.243	617.38
1905.499	612.38
1909.752	620.38
1914	612.38
1918.245	625.38
1922.485	632.38
1926.722	633.38
1930.954	640.38
1935.183	637.38
1939.408	643.38
1943.628	642.38
1947.845	646.38
1952.058	645.38
1956.267	655.38
1960.472	649.38
1964.673	631.38
1968.87	624.38
1973.063	625.38
1977.252	621.38
1981.438	624.38
1985.619	616.38
1989.797	604.38
1993.971	613.38
1998.14	616.38
2002.306	614.38
2006.469	597.38
2010.627	609.38
2014.781	609.38
2018.932	617.38
2023.078	607.38
2027.221	609.38
2031.36	610.38
2035.495	608.38
2039.627	600.38
2043.754	599.38
2047.878	592.38
2051.998	587.38
2056.114	591.38
2060.226	592.38
2064.334	590.38
2068.439	596.38
2072.54	597.38
2076.637	610.38
2080.73	621.38
2084.82	606.38
2088.906	618.38
2092.988	617.38
2097.066	610.38
2101.14	622.38
2105.211	607.38
2109.278	598.38
2113.342	605.38
2117.401	595.38
2121.457	599.38
2125.509	596.38
2129.558	598.38
2133.602	586.38
2137.643	595.38
2141.681	589.38
2145.714	581.38
2149.744	585.38
2153.77	586.38
2157.793	574.38
2161.812	562.38
2165.827	554.38
2169.838	547.38
2173.846	548.38
2177.851	545.38
2181.851	521.38
2185.848	509.38
2189.841	514.38
2193.831	511.38
2197.817	501.38
2201.799	506.38
2205.778	491.38
2209.753	495.38
2213.725	494.38
2217.693	482.38
2221.657	495.38
2225.618	492.38
2229.575	487.38
2233.529	487.38
2237.479	479.38
2241.425	469.38
2245.368	471.38
2249.307	455.38
2253.243	452.38
2257.175	440.38
2261.104	445.38
2265.029	435.38
2268.95	422.38
2272.868	421.38
2276.783	415.38
2280.694	421.38
2284.601	417.38
2288.505	409.38
2292.405	402.38
2296.302	397.38
2300.195	390.38
2304.085	386.38
2307.971	379.38
2311.854	369.38
2315.734	360.38
2319.609	355.38
2323.482	348.38
2327.351	348.38
2331.216	351.38
2335.078	349.38
2338.937	339.38
2342.792	332.38
2346.643	323.38
2350.492	334.38
2354.336	332.38
2358.178	337.38
2362.015	332.38
2365.85	330.38
2369.681	338.38
2373.508	324.38
2377.333	332.38
2381.153	316.38
2384.971	334.38
2388.785	318.38
2392.595	328.38
2396.402	310.38
2400.206	308.38
2404.007	311.38
2407.804	300.38
2411.597	302.38
2415.388	300.38
2419.174	302.38
2422.958	297.38
2426.738	307.38
2430.515	299.38
2434.289	304.38
2438.059	290.38
2441.825	288.38
2445.589	290.38
2449.349	284.38
2453.106	282.38
2456.859	285.38
2460.61	271.38
2464.356	267.38
2468.1	273.38
2471.84	278.38
2475.577	265.38
2479.311	269.38
2483.041	272.38
2486.768	272.38
2490.492	268.38
2494.213	267.38
2497.93	269.38
2501.644	272.38
2505.355	270.38
2509.062	272.38
2512.766	263.38
2516.467	263.38
2520.165	257.38
2523.859	258.38
2527.551	256.38
2531.239	254.38
2534.923	242.38
2538.605	246.38
2542.283	245.38
2545.958	247.38
2549.63	253.38
2553.299	249.38
2556.964	248.38
2560.626	239.38
2564.285	244.38
2567.941	239.38
2571.594	236.38
2575.243	237.38
2578.89	233.38
2582.533	229.38
2586.173	234.38
2589.809	231.38
2593.443	233.38
2597.073	225.38
2600.701	216.38
2604.325	228.38
2607.946	216.38
2611.564	217.38
2615.178	227.38
2618.79	226.38
2622.398	221.38
2626.004	214.38
2629.606	212.38
2633.205	211.38
2636.801	211.38
2640.394	205.38
2643.983	198.38
2647.57	193.38
2651.153	191.38
2654.734	203.38
2658.311	192.38
2661.885	192.38
2665.456	196.38
2669.025	192.38
2672.589	192.38
2676.151	192.38
2679.71	185.38
2683.266	178.38
2686.819	184.38
2690.368	178.38
2693.915	178.38
2697.458	172.38
2700.999	171.38
2704.536	168.38
2708.071	170.38
2711.602	159.38
2715.13	161.38
2718.656	164.38
2722.178	167.38
2725.697	155.38
2729.214	163.38
2732.727	163.38
2736.237	164.38
2739.744	164.38
2743.249	169.38
2746.75	175.38
2750.248	171.38
2753.743	168.38
2757.236	165.38
2760.725	172.38
2764.211	166.38
2767.695	170.38
2771.175	171.38
2774.652	168.38
2778.127	176.38
2781.598	173.38
2785.067	172.38
2788.532	171.38
2791.995	169.38
2795.455	168.38
2798.911	172.38
2802.365	169.38
2805.816	173.38
2809.264	168.38
2812.709	176.38
2816.151	176.38
2819.59	173.38
2823.026	167.38
2826.46	168.38
2829.89	181.38
2833.318	177.38
2836.742	170.38
2840.164	180.38
2843.583	182.38
2846.999	189.38
2850.412	192.38
2853.822	188.38
2857.229	190.38
2860.634	204.38
2864.035	198.38
2867.434	188.38
2870.83	193.38
2874.223	201.38
2877.613	205.38
2881	209.38
2884.385	210.38
2887.766	208.38
2891.145	220.38
2894.521	220.38
2897.894	212.38
2901.264	214.38
2904.631	216.38
2907.996	221.38
2911.358	225.38
2914.717	230.38
2918.073	218.38
2921.426	243.38
2924.777	237.38
2928.124	239.38
2931.469	256.38
2934.811	257.38
2938.15	257.38
2941.487	265.38
2944.821	273.38
2948.152	270.38
2951.48	274.38
2954.805	287.38
2958.128	295.38
2961.447	291.38
2964.765	299.38
2968.079	311.38
2971.39	311.38
2974.699	324.38
2978.005	329.38
2981.308	335.38
2984.609	353.38
2987.907	363.38
2991.202	386.38
2994.494	383.38
2997.784	404.38
3001.07	413.38
3004.355	440.38
3007.636	431.38
3010.915	455.38
3014.191	457.38
3017.464	463.38
3020.734	468.38
3024.002	479.38
3027.267	492.38
3030.53	492.38
3033.789	512.38
3037.046	517.38
3040.301	524.38
3043.552	542.38
3046.801	554.38
3050.048	561.38
3053.291	580.38
3056.532	595.38
3059.771	631.38
3063.006	642.38
3066.239	662.38
3069.469	683.38
3072.697	705.38
3075.922	724.38
3079.144	736.38
3082.364	756.38
3085.581	767.38
3088.795	791.38
3092.007	809.38
3095.216	827.38
3098.423	853.38
3101.627	876.38
3104.828	882.38
3108.026	921.38
3111.222	937.38
3114.416	960.38
3117.607	974.38
3120.795	1000.38
3123.98	1021.38
3127.163	1060.38
3130.344	1078.38
3133.521	1096.38
3136.696	1111.38
3139.869	1128.38
3143.039	1166.38
3146.206	1186.38
3149.371	1190.38
3152.533	1188.38
3155.693	1210.38
3158.85	1220.38
3162.005	1202.38
3165.157	1236.38
3168.306	1246.38
3171.453	1228.38
3174.597	1245.38
3177.739	1253.38
3180.878	1235.38
3184.014	1246.38
3187.149	1248.38
3190.28	1275.38
3193.409	1281.38
3196.536	1266.38
3199.659	1273.38
3202.781	1270.38
3205.9	1262.38
3209.016	1272.38
3212.13	1272.38
3215.241	1271.38
3218.35	1280.38
3221.456	1256.38
3224.56	1247.38
3227.661	1235.38
3230.76	1228.38
3233.856	1212.38
3236.95	1202.38
3240.041	1206.38
3243.13	1190.38
3246.216	1198.38
3249.3	1173.38
3252.382	1187.38
3255.46	1165.38
3258.537	1158.38
3261.611	1152.38
3264.682	1150.38
3267.751	1160.38
3270.818	1152.38
3273.882	1151.38
3276.943	1121.38
3280.002	1136.38
3283.059	1107.38
3286.113	1103.38
3289.165	1084.38
3292.214	1060.38
3295.261	1056.38
3298.306	1035.38
3301.348	1004.38
3304.387	995.38
3307.425	975.38
3310.459	976.38
3313.492	958.38
3316.521	940.38
3319.549	944.38
3322.574	915.38
3325.597	922.38
3328.617	904.38
3331.635	900.38
3334.65	916.38
3337.663	893.38
3340.674	899.38
3343.682	897.38
3346.688	882.38
3349.691	866.38
3352.692	872.38
3355.691	860.38
3358.687	859.38
3361.681	853.38
3364.673	831.38
3367.662	824.38
3370.649	802.38
3373.633	806.38
3376.615	787.38
3379.595	783.38
3382.572	781.38
3385.547	754.38
3388.52	766.38
3391.49	749.38
3394.458	730.38
3397.424	728.38
3400.387	711.38
3403.348	705.38
3406.307	700.38
3409.263	706.38
3412.217	684.38
3415.168	684.38
3418.118	669.38
3421.065	659.38
3424.009	650.38
3426.951	645.38
3429.891	639.38
3432.829	626.38
3435.764	616.38
3438.697	602.38
3441.628	592.38
3444.557	582.38
3447.483	559.38
3450.407	548.38
3453.328	527.38
3456.247	530.38
3459.164	515.38
3462.079	492.38
3464.991	464.38
3467.902	460.38
3470.809	444.38
3473.715	436.38
3476.618	421.38
3479.519	399.38
3482.418	403.38
3485.315	385.38
3488.209	373.38
3491.101	380.38
3493.99	356.38
3496.878	347.38
3499.763	340.38
3502.646	329.38
3505.527	318.38
3508.405	300.38
3511.281	290.38
3514.155	286.38
3517.027	265.38
3519.897	266.38
3522.764	240.38
3525.629	237.38
3528.492	222.38
3531.352	209.38
3534.211	200.38
3537.067	181.38
3539.921	177.38
3542.773	161.38
3545.622	161.38
3548.469	145.38
3551.315	136.38
3554.157	135.38
3556.998	127.38
3559.837	123.38
3562.673	111.38
3565.507	102.38
3568.339	93.38
3571.169	84.38
3573.996	81.38
3576.822	76.38
3579.645	73.38
3582.466	66.38
3585.285	62.38
3588.101	53.38
3590.916	52.38
3593.728	47.38
3596.538	45.38
3599.346	30.38
3602.152	20.38
3604.956	27.38
3607.757	23.38
3610.556	12.38
3613.354	8.38
3616.149	8.38
3618.942	2.38
3621.732	-2.62
3624.521	-6.62
3627.307	-8.62
3630.092	-9.62
3632.874	-12.62
3635.654	-13.62
3638.432	-22.62
3641.208	-22.62
3643.982	-24.62
3646.753	-24.62
3649.523	-28.62
3652.29	-33.62
3655.055	-37.62
3657.818	-40.62
3660.579	-44.62
3663.338	-51.62
3666.095	-48.62
3668.849	-53.62
3671.602	-53.62
3674.352	-56.62
3677.101	-58.62
3679.847	-59.62
3682.591	-61.62
3685.333	-63.62
3688.073	-64.62
3690.811	-65.62
3693.547	-70.62
3696.281	-68.62
3699.013	-70.62
3701.742	-73.62
3704.47	-71.62
3707.195	-75.62
3709.919	-82.62
3712.64	-78.62
3715.359	-78.62
3718.076	-80.62
3720.792	-82.62
3723.505	-80.62
3726.216	-80.62
3728.925	-82.62
3731.632	-83.62
3734.336	-86.62
3737.039	-84.62
3739.74	-79.62
3742.439	-90.62
3745.136	-89.62
3747.83	-90.62
3750.523	-89.62
3753.213	-93.62
3755.902	-94.62
3758.589	-91.62
3761.273	-93.62
3763.956	-95.62
3766.636	-93.62
3769.315	-90.62
3771.991	-92.62
3774.665	-91.62
3777.338	-94.62
3780.008	-98.62
3782.677	-92.62
3785.343	-102.62
3788.007	-94.62
3790.67	-100.62
3793.33	-98.62
3795.989	-99.62
3798.645	-96.62
3801.299	-101.62
3803.952	-103.62
3806.602	-99.62
3809.251	-101.62
3811.897	-99.62
3814.542	-99.62
3817.184	-101.62
3819.825	-95.62
3822.463	-99.62
3825.1	-97.62
3827.735	-101.62
3830.367	-101.62
3832.998	-104.62
3835.627	-104.62
3838.253	-104.62
3840.878	-107.62
3843.501	-107.62
3846.122	-102.62
3848.741	-104.62
3851.358	-102.62
3853.973	-101.62
3856.586	-103.62
3859.197	-103.62
3861.806	-103.62
3864.414	-107.62
3867.019	-104.62
3869.622	-103.62
3872.224	-102.62
3874.823	-101.62
3877.421	-96.62
3880.016	-100.62
3882.61	-96.62
3885.202	-95.62
3887.792	-96.62
3890.38	-98.62
3892.966	-104.62
3895.55	-102.62
3898.132	-101.62
3900.713	-104.62
3903.291	-101.62
3905.868	-99.62
3908.442	-102.62
3911.015	-108.62
3913.586	-108.62
3916.155	-108.62
3918.722	-108.62
3921.287	-108.62
3923.85	-107.62
3926.411	-110.62
3928.971	-108.62
3931.528	-102.62
3934.084	-105.62
3936.638	-104.62
3939.19	-106.62
3941.74	-106.62
3944.288	-106.62
3946.834	-105.62
3949.378	-109.62
3951.921	-104.62
3954.462	-105.62
3957	-106.62
3959.537	-105.62
3962.072	-108.62
3964.606	-108.62
3967.137	-105.62
3969.667	-105.62
3972.194	-106.62
3974.72	-105.62
3977.244	-103.62
3979.766	-105.62
3982.286	-102.62
3984.805	-104.62
3987.321	-100.62
3989.836	-107.62
3992.349	-107.62
3994.86	-108.62
3997.369	-106.62
3999.877	-107.62
4002.382	-107.62
4004.886	-104.62
4007.388	-106.62
4009.888	-106.62
4012.386	-104.62
4014.883	-98.62
4017.377	-102.62
4019.87	-107.62
4022.361	-102.62
4024.85	-105.62
4027.338	-106.62
4029.823	-106.62
4032.307	-105.62
4034.789	-108.62
4037.269	-107.62
4039.747	-103.62
4042.224	-107.62
4044.699	-109.62
4047.172	-105.62
4049.643	-110.62
4052.112	-111.62
4054.58	-109.62
4057.046	-107.62
4059.51	-102.62
4061.972	-100.62
4064.432	-106.62
4066.891	-104.62
4069.348	-103.62
4071.803	-109.62
4074.256	-109.62
4076.708	-109.62
4079.158	-108.62
4081.606	-108.62
4084.052	-107.62
4086.497	-105.62
4088.939	-105.62
4091.38	-102.62
4093.819	-104.62
4096.257	-108.62
4098.693	-107.62
4101.127	-107.62
4103.559	-108.62
4105.989	-69.62
4108.418	-63.62
4110.845	-63.62
4113.27	-52.62
4115.694	-50.62
4118.115	-42.62
4120.535	-106.62
4122.954	-101.62
4125.37	-105.62
4127.785	-107.62
4130.198	-107.62
4132.609	-106.62
4135.019	-111.62
4137.427	-112.62
4139.833	-110.62
4142.237	-109.62
