Data from Bsub_water_DIL108_A_3_RamanShift_1.txt Node
Date: Wed Feb 22 12:46:16 IST 2017
User: aro
Spectrometer: QEPB0276
Trigger mode: 0
Integration Time (sec): 5.000000E0
Scans to average: 1
Electric dark correction enabled: true
Nonlinearity correction enabled: false
Boxcar width: 0
XAxis mode: Raman Shifts
Number of Pixels in Spectrum: 1044
>>>>>Begin Spectral Data<<<<<
160.701	-34.12
166.742	1.88
172.777	100.88
178.805	398.88
184.826	1111.88
190.841	2340.88
196.849	3687.88
202.85	4603.88
208.845	4787.88
214.833	4644.88
220.815	4451.88
226.789	4325.88
232.758	4154.88
238.719	4023.88
244.674	3850.88
250.623	3671.88
256.565	3514.88
262.5	3322.88
268.429	3166.88
274.351	3020.88
280.267	2909.88
286.176	2775.88
292.079	2677.88
297.975	2584.88
303.865	2514.88
309.748	2417.88
315.625	2348.88
321.495	2281.88
327.359	2274.88
333.217	2237.88
339.068	2235.88
344.912	2183.88
350.751	2201.88
356.583	2173.88
362.408	2181.88
368.227	2181.88
374.04	2184.88
379.847	2187.88
385.647	2203.88
391.44	2212.88
397.228	2232.88
403.009	2242.88
408.784	2264.88
414.553	2260.88
420.315	2265.88
426.071	2257.88
431.821	2254.88
437.565	2269.88
443.302	2271.88
449.033	2249.88
454.758	2263.88
460.477	2208.88
466.189	2213.88
471.896	2185.88
477.596	2184.88
483.29	2174.88
488.978	2174.88
494.66	2126.88
500.335	2122.88
506.005	2097.88
511.668	2013.88
517.325	1980.88
522.977	1962.88
528.622	1957.88
534.261	1924.88
539.894	1867.88
545.521	1889.88
551.141	1846.88
556.756	1848.88
562.365	1828.88
567.968	1831.88
573.565	1795.88
579.155	1794.88
584.74	1784.88
590.319	1766.88
595.892	1754.88
601.459	1733.88
607.02	1713.88
612.575	1689.88
618.124	1695.88
623.667	1651.88
629.204	1631.88
634.735	1635.88
640.261	1641.88
645.781	1603.88
651.294	1576.88
656.802	1589.88
662.304	1584.88
667.8	1569.88
673.29	1568.88
678.775	1565.88
684.254	1554.88
689.726	1547.88
695.193	1531.88
700.655	1499.88
706.11	1497.88
711.56	1502.88
717.004	1476.88
722.442	1470.88
727.874	1457.88
733.301	1453.88
738.722	1431.88
744.137	1438.88
749.547	1441.88
754.951	1416.88
760.349	1418.88
765.741	1411.88
771.128	1410.88
776.509	1417.88
781.885	1408.88
787.254	1399.88
792.618	1393.88
797.977	1380.88
803.33	1354.88
808.677	1365.88
814.019	1337.88
819.355	1315.88
824.686	1302.88
830.011	1296.88
835.33	1279.88
840.644	1269.88
845.952	1254.88
851.255	1260.88
856.552	1249.88
861.844	1236.88
867.13	1234.88
872.41	1211.88
877.686	1210.88
882.955	1169.88
888.219	1156.88
893.478	1135.88
898.731	1130.88
903.979	1091.88
909.221	1084.88
914.458	1067.88
919.69	1064.88
924.916	1068.88
930.136	1052.88
935.351	1049.88
940.561	1040.88
945.766	1046.88
950.965	1025.88
956.158	1016.88
961.347	1006.88
966.529	976.88
971.707	979.88
976.879	961.88
982.046	946.88
987.208	934.88
992.364	947.88
997.515	945.88
1002.66	944.88
1007.801	949.88
1012.936	962.88
1018.066	970.88
1023.19	968.88
1028.309	971.88
1033.423	970.88
1038.532	972.88
1043.636	961.88
1048.734	951.88
1053.827	920.88
1058.915	916.88
1063.998	905.88
1069.075	902.88
1074.147	914.88
1079.214	910.88
1084.276	914.88
1089.333	922.88
1094.385	934.88
1099.431	949.88
1104.472	943.88
1109.509	937.88
1114.54	915.88
1119.565	910.88
1124.586	895.88
1129.602	893.88
1134.613	887.88
1139.618	879.88
1144.619	872.88
1149.614	887.88
1154.604	894.88
1159.589	888.88
1164.57	886.88
1169.545	895.88
1174.515	890.88
1179.48	878.88
1184.44	868.88
1189.395	869.88
1194.345	875.88
1199.29	865.88
1204.23	865.88
1209.165	874.88
1214.095	880.88
1219.021	871.88
1223.941	897.88
1228.856	891.88
1233.766	900.88
1238.672	895.88
1243.572	890.88
1248.467	898.88
1253.358	884.88
1258.244	861.88
1263.124	848.88
1268	850.88
1272.871	832.88
1277.737	833.88
1282.599	821.88
1287.455	819.88
1292.306	815.88
1297.153	827.88
1301.995	834.88
1306.832	846.88
1311.664	844.88
1316.491	843.88
1321.314	832.88
1326.132	824.88
1330.945	817.88
1335.753	802.88
1340.556	787.88
1345.354	765.88
1350.148	753.88
1354.937	758.88
1359.722	758.88
1364.501	769.88
1369.276	770.88
1374.046	787.88
1378.811	788.88
1383.572	788.88
1388.327	790.88
1393.079	765.88
1397.825	770.88
1402.567	753.88
1407.304	740.88
1412.036	735.88
1416.764	721.88
1421.487	722.88
1426.205	719.88
1430.919	731.88
1435.628	728.88
1440.333	739.88
1445.032	745.88
1449.727	742.88
1454.418	753.88
1459.104	726.88
1463.785	740.88
1468.462	731.88
1473.134	723.88
1477.802	718.88
1482.465	719.88
1487.123	712.88
1491.777	725.88
1496.426	735.88
1501.071	753.88
1505.711	752.88
1510.347	773.88
1514.978	770.88
1519.604	796.88
1524.226	807.88
1528.844	811.88
1533.457	808.88
1538.065	810.88
1542.669	806.88
1547.269	810.88
1551.864	813.88
1556.454	809.88
1561.041	841.88
1565.622	839.88
1570.199	857.88
1574.772	861.88
1579.34	882.88
1583.904	901.88
1588.464	905.88
1593.019	942.88
1597.569	947.88
1602.115	972.88
1606.657	991.88
1611.195	997.88
1615.728	1012.88
1620.256	1028.88
1624.78	1057.88
1629.3	1086.88
1633.816	1097.88
1638.327	1118.88
1642.834	1119.88
1647.336	1133.88
1651.834	1130.88
1656.328	1131.88
1660.817	1124.88
1665.302	1102.88
1669.783	1072.88
1674.259	1037.88
1678.732	1008.88
1683.199	942.88
1687.663	910.88
1692.122	857.88
1696.577	825.88
1701.028	798.88
1705.474	798.88
1709.917	760.88
1714.355	737.88
1718.788	698.88
1723.218	692.88
1727.643	660.88
1732.064	632.88
1736.481	623.88
1740.893	586.88
1745.301	559.88
1749.705	536.88
1754.105	513.88
1758.501	493.88
1762.893	485.88
1767.28	463.88
1771.663	458.88
1776.042	463.88
1780.417	463.88
1784.787	458.88
1789.154	468.88
1793.516	463.88
1797.874	464.88
1802.228	463.88
1806.578	473.88
1810.924	463.88
1815.266	450.88
1819.603	446.88
1823.937	439.88
1828.266	419.88
1832.591	412.88
1836.913	407.88
1841.23	403.88
1845.543	406.88
1849.852	392.88
1854.156	398.88
1858.457	397.88
1862.754	401.88
1867.047	394.88
1871.335	404.88
1875.62	407.88
1879.9	406.88
1884.177	400.88
1888.449	399.88
1892.718	402.88
1896.982	400.88
1901.243	394.88
1905.499	396.88
1909.752	403.88
1914	396.88
1918.245	407.88
1922.485	413.88
1926.722	405.88
1930.954	419.88
1935.183	414.88
1939.408	417.88
1943.628	422.88
1947.845	427.88
1952.058	424.88
1956.267	427.88
1960.472	422.88
1964.673	422.88
1968.87	415.88
1973.063	409.88
1977.252	413.88
1981.438	407.88
1985.619	399.88
1989.797	395.88
1993.971	398.88
1998.14	406.88
2002.306	400.88
2006.469	403.88
2010.627	409.88
2014.781	403.88
2018.932	404.88
2023.078	408.88
2027.221	414.88
2031.36	406.88
2035.495	396.88
2039.627	393.88
2043.754	399.88
2047.878	399.88
2051.998	401.88
2056.114	398.88
2060.226	396.88
2064.334	408.88
2068.439	407.88
2072.54	419.88
2076.637	420.88
2080.73	426.88
2084.82	432.88
2088.906	429.88
2092.988	432.88
2097.066	429.88
2101.14	421.88
2105.211	419.88
2109.278	423.88
2113.342	414.88
2117.401	416.88
2121.457	423.88
2125.509	400.88
2129.558	411.88
2133.602	406.88
2137.643	407.88
2141.681	399.88
2145.714	392.88
2149.744	401.88
2153.77	387.88
2157.793	384.88
2161.812	378.88
2165.827	376.88
2169.838	374.88
2173.846	368.88
2177.851	344.88
2181.851	343.88
2185.848	333.88
2189.841	338.88
2193.831	327.88
2197.817	333.88
2201.799	331.88
2205.778	327.88
2209.753	315.88
2213.725	314.88
2217.693	324.88
2221.657	321.88
2225.618	304.88
2229.575	316.88
2233.529	307.88
2237.479	310.88
2241.425	305.88
2245.368	298.88
2249.307	288.88
2253.243	281.88
2257.175	287.88
2261.104	281.88
2265.029	269.88
2268.95	266.88
2272.868	266.88
2276.783	251.88
2280.694	246.88
2284.601	251.88
2288.505	246.88
2292.405	245.88
2296.302	247.88
2300.195	233.88
2304.085	228.88
2307.971	220.88
2311.854	221.88
2315.734	206.88
2319.609	208.88
2323.482	201.88
2327.351	200.88
2331.216	209.88
2335.078	196.88
2338.937	190.88
2342.792	188.88
2346.643	191.88
2350.492	192.88
2354.336	184.88
2358.178	189.88
2362.015	177.88
2365.85	186.88
2369.681	189.88
2373.508	175.88
2377.333	179.88
2381.153	180.88
2384.971	183.88
2388.785	172.88
2392.595	176.88
2396.402	173.88
2400.206	171.88
2404.007	168.88
2407.804	167.88
2411.597	168.88
2415.388	167.88
2419.174	168.88
2422.958	170.88
2426.738	158.88
2430.515	156.88
2434.289	153.88
2438.059	150.88
2441.825	156.88
2445.589	153.88
2449.349	156.88
2453.106	147.88
2456.859	145.88
2460.61	146.88
2464.356	150.88
2468.1	145.88
2471.84	135.88
2475.577	140.88
2479.311	142.88
2483.041	140.88
2486.768	128.88
2490.492	134.88
2494.213	139.88
2497.93	143.88
2501.644	143.88
2505.355	141.88
2509.062	140.88
2512.766	137.88
2516.467	136.88
2520.165	134.88
2523.859	131.88
2527.551	131.88
2531.239	133.88
2534.923	128.88
2538.605	127.88
2542.283	132.88
2545.958	126.88
2549.63	119.88
2553.299	120.88
2556.964	121.88
2560.626	119.88
2564.285	118.88
2567.941	122.88
2571.594	122.88
2575.243	114.88
2578.89	116.88
2582.533	115.88
2586.173	112.88
2589.809	110.88
2593.443	111.88
2597.073	108.88
2600.701	112.88
2604.325	112.88
2607.946	104.88
2611.564	106.88
2615.178	103.88
2618.79	107.88
2622.398	106.88
2626.004	102.88
2629.606	106.88
2633.205	100.88
2636.801	97.88
2640.394	102.88
2643.983	101.88
2647.57	96.88
2651.153	89.88
2654.734	89.88
2658.311	93.88
2661.885	91.88
2665.456	85.88
2669.025	86.88
2672.589	89.88
2676.151	88.88
2679.71	86.88
2683.266	88.88
2686.819	86.88
2690.368	82.88
2693.915	77.88
2697.458	74.88
2700.999	81.88
2704.536	74.88
2708.071	73.88
2711.602	70.88
2715.13	71.88
2718.656	71.88
2722.178	71.88
2725.697	71.88
2729.214	76.88
2732.727	74.88
2736.237	77.88
2739.744	84.88
2743.249	81.88
2746.75	81.88
2750.248	82.88
2753.743	83.88
2757.236	84.88
2760.725	85.88
2764.211	90.88
2767.695	89.88
2771.175	91.88
2774.652	90.88
2778.127	88.88
2781.598	89.88
2785.067	84.88
2788.532	86.88
2791.995	86.88
2795.455	84.88
2798.911	91.88
2802.365	93.88
2805.816	99.88
2809.264	102.88
2812.709	96.88
2816.151	97.88
2819.59	90.88
2823.026	105.88
2826.46	96.88
2829.89	101.88
2833.318	103.88
2836.742	104.88
2840.164	106.88
2843.583	118.88
2846.999	116.88
2850.412	116.88
2853.822	113.88
2857.229	115.88
2860.634	124.88
2864.035	125.88
2867.434	127.88
2870.83	134.88
2874.223	135.88
2877.613	147.88
2881	137.88
2884.385	143.88
2887.766	151.88
2891.145	153.88
2894.521	152.88
2897.894	146.88
2901.264	154.88
2904.631	155.88
2907.996	168.88
2911.358	164.88
2914.717	167.88
2918.073	172.88
2921.426	177.88
2924.777	181.88
2928.124	186.88
2931.469	193.88
2934.811	195.88
2938.15	213.88
2941.487	202.88
2944.821	211.88
2948.152	226.88
2951.48	228.88
2954.805	233.88
2958.128	243.88
2961.447	250.88
2964.765	258.88
2968.079	271.88
2971.39	269.88
2974.699	283.88
2978.005	299.88
2981.308	302.88
2984.609	310.88
2987.907	330.88
2991.202	348.88
2994.494	356.88
2997.784	373.88
3001.07	374.88
3004.355	402.88
3007.636	404.88
3010.915	415.88
3014.191	428.88
3017.464	431.88
3020.734	449.88
3024.002	456.88
3027.267	473.88
3030.53	472.88
3033.789	483.88
3037.046	495.88
3040.301	504.88
3043.552	521.88
3046.801	529.88
3050.048	544.88
3053.291	563.88
3056.532	595.88
3059.771	612.88
3063.006	642.88
3066.239	649.88
3069.469	678.88
3072.697	697.88
3075.922	714.88
3079.144	739.88
3082.364	762.88
3085.581	769.88
3088.795	803.88
3092.007	830.88
3095.216	835.88
3098.423	858.88
3101.627	891.88
3104.828	902.88
3108.026	932.88
3111.222	950.88
3114.416	984.88
3117.607	1001.88
3120.795	1035.88
3123.98	1052.88
3127.163	1074.88
3130.344	1099.88
3133.521	1128.88
3136.696	1167.88
3139.869	1195.88
3143.039	1203.88
3146.206	1219.88
3149.371	1243.88
3152.533	1253.88
3155.693	1244.88
3158.85	1269.88
3162.005	1280.88
3165.157	1282.88
3168.306	1299.88
3171.453	1296.88
3174.597	1311.88
3177.739	1282.88
3180.878	1318.88
3184.014	1323.88
3187.149	1306.88
3190.28	1321.88
3193.409	1317.88
3196.536	1331.88
3199.659	1332.88
3202.781	1334.88
3205.9	1358.88
3209.016	1357.88
3212.13	1341.88
3215.241	1327.88
3218.35	1347.88
3221.456	1317.88
3224.56	1325.88
3227.661	1291.88
3230.76	1293.88
3233.856	1271.88
3236.95	1260.88
3240.041	1274.88
3243.13	1261.88
3246.216	1262.88
3249.3	1252.88
3252.382	1262.88
3255.46	1258.88
3258.537	1239.88
3261.611	1221.88
3264.682	1236.88
3267.751	1215.88
3270.818	1212.88
3273.882	1206.88
3276.943	1197.88
3280.002	1196.88
3283.059	1163.88
3286.113	1167.88
3289.165	1157.88
3292.214	1135.88
3295.261	1114.88
3298.306	1105.88
3301.348	1071.88
3304.387	1060.88
3307.425	1050.88
3310.459	1029.88
3313.492	1027.88
3316.521	996.88
3319.549	1001.88
3322.574	987.88
3325.597	977.88
3328.617	966.88
3331.635	958.88
3334.65	954.88
3337.663	956.88
3340.674	945.88
3343.682	935.88
3346.688	943.88
3349.691	925.88
3352.692	931.88
3355.691	923.88
3358.687	915.88
3361.681	910.88
3364.673	893.88
3367.662	884.88
3370.649	871.88
3373.633	870.88
3376.615	842.88
3379.595	840.88
3382.572	830.88
3385.547	824.88
3388.52	809.88
3391.49	804.88
3394.458	781.88
3397.424	773.88
3400.387	764.88
3403.348	756.88
3406.307	749.88
3409.263	747.88
3412.217	742.88
3415.168	731.88
3418.118	726.88
3421.065	719.88
3424.009	703.88
3426.951	697.88
3429.891	677.88
3432.829	666.88
3435.764	668.88
3438.697	648.88
3441.628	630.88
3444.557	620.88
3447.483	607.88
3450.407	588.88
3453.328	559.88
3456.247	563.88
3459.164	553.88
3462.079	526.88
3464.991	513.88
3467.902	491.88
3470.809	488.88
3473.715	469.88
3476.618	459.88
3479.519	441.88
3482.418	430.88
3485.315	421.88
3488.209	410.88
3491.101	411.88
3493.99	384.88
3496.878	377.88
3499.763	358.88
3502.646	350.88
3505.527	349.88
3508.405	326.88
3511.281	317.88
3514.155	303.88
3517.027	293.88
3519.897	275.88
3522.764	262.88
3525.629	251.88
3528.492	241.88
3531.352	231.88
3534.211	217.88
3537.067	202.88
3539.921	190.88
3542.773	177.88
3545.622	165.88
3548.469	159.88
3551.315	148.88
3554.157	145.88
3556.998	131.88
3559.837	126.88
3562.673	121.88
3565.507	116.88
3568.339	114.88
3571.169	95.88
3573.996	97.88
3576.822	82.88
3579.645	77.88
3582.466	70.88
3585.285	65.88
3588.101	58.88
3590.916	51.88
3593.728	45.88
3596.538	33.88
3599.346	40.88
3602.152	35.88
3604.956	27.88
3607.757	22.88
3610.556	13.88
3613.354	15.88
3616.149	7.88
3618.942	7.88
3621.732	-0.12
3624.521	-10.12
3627.307	-11.12
3630.092	-16.12
3632.874	-17.12
3635.654	-22.12
3638.432	-18.12
3641.208	-24.12
3643.982	-25.12
3646.753	-25.12
3649.523	-33.12
3652.29	-37.12
3655.055	-36.12
3657.818	-48.12
3660.579	-44.12
3663.338	-50.12
3666.095	-52.12
3668.849	-55.12
3671.602	-55.12
3674.352	-61.12
3677.101	-58.12
3679.847	-62.12
3682.591	-63.12
3685.333	-69.12
3688.073	-68.12
3690.811	-70.12
3693.547	-73.12
3696.281	-77.12
3699.013	-73.12
3701.742	-80.12
3704.47	-76.12
3707.195	-84.12
3709.919	-84.12
3712.64	-81.12
3715.359	-82.12
3718.076	-87.12
3720.792	-87.12
3723.505	-91.12
3726.216	-86.12
3728.925	-89.12
3731.632	-93.12
3734.336	-94.12
3737.039	-91.12
3739.74	-93.12
3742.439	-98.12
3745.136	-95.12
3747.83	-99.12
3750.523	-95.12
3753.213	-95.12
3755.902	-102.12
3758.589	-97.12
3761.273	-101.12
3763.956	-97.12
3766.636	-99.12
3769.315	-97.12
3771.991	-101.12
3774.665	-99.12
3777.338	-102.12
3780.008	-104.12
3782.677	-107.12
3785.343	-106.12
3788.007	-103.12
3790.67	-102.12
3793.33	-108.12
3795.989	-99.12
3798.645	-101.12
3801.299	-106.12
3803.952	-110.12
3806.602	-104.12
3809.251	-109.12
3811.897	-108.12
3814.542	-107.12
3817.184	-109.12
3819.825	-106.12
3822.463	-103.12
3825.1	-104.12
3827.735	-107.12
3830.367	-106.12
3832.998	-106.12
3835.627	-108.12
3838.253	-111.12
3840.878	-108.12
3843.501	-110.12
3846.122	-109.12
3848.741	-109.12
3851.358	-110.12
3853.973	-110.12
3856.586	-108.12
3859.197	-113.12
3861.806	-114.12
3864.414	-115.12
3867.019	-109.12
3869.622	-109.12
3872.224	-110.12
3874.823	-107.12
3877.421	-101.12
3880.016	-105.12
3882.61	-98.12
3885.202	-101.12
3887.792	-104.12
3890.38	-108.12
3892.966	-111.12
3895.55	-111.12
3898.132	-108.12
3900.713	-112.12
3903.291	-114.12
3905.868	-110.12
3908.442	-109.12
3911.015	-111.12
3913.586	-111.12
3916.155	-109.12
3918.722	-111.12
3921.287	-110.12
3923.85	-115.12
3926.411	-113.12
3928.971	-115.12
3931.528	-109.12
3934.084	-113.12
3936.638	-112.12
3939.19	-114.12
3941.74	-113.12
3944.288	-116.12
3946.834	-110.12
3949.378	-115.12
3951.921	-112.12
3954.462	-114.12
3957	-110.12
3959.537	-109.12
3962.072	-114.12
3964.606	-112.12
3967.137	-114.12
3969.667	-112.12
3972.194	-113.12
3974.72	-114.12
3977.244	-113.12
3979.766	-114.12
3982.286	-109.12
3984.805	-108.12
3987.321	-108.12
3989.836	-110.12
3992.349	-110.12
3994.86	-116.12
3997.369	-112.12
3999.877	-115.12
4002.382	-113.12
4004.886	-111.12
4007.388	-110.12
4009.888	-114.12
4012.386	-112.12
4014.883	-109.12
4017.377	-109.12
4019.87	-115.12
4022.361	-109.12
4024.85	-113.12
4027.338	-112.12
4029.823	-115.12
4032.307	-108.12
4034.789	-113.12
4037.269	-110.12
4039.747	-108.12
4042.224	-111.12
4044.699	-116.12
4047.172	-114.12
4049.643	-117.12
4052.112	-118.12
4054.58	-112.12
4057.046	-112.12
4059.51	-112.12
4061.972	-105.12
4064.432	-109.12
4066.891	-110.12
4069.348	-109.12
4071.803	-114.12
4074.256	-112.12
4076.708	-114.12
4079.158	-116.12
4081.606	-115.12
4084.052	-116.12
4086.497	-115.12
4088.939	-111.12
4091.38	-106.12
4093.819	-114.12
4096.257	-114.12
4098.693	-116.12
4101.127	-114.12
4103.559	-113.12
4105.989	-72.12
4108.418	-69.12
4110.845	-70.12
4113.27	-64.12
4115.694	-55.12
4118.115	-48.12
4120.535	-109.12
4122.954	-109.12
4125.37	-110.12
4127.785	-114.12
4130.198	-116.12
4132.609	-110.12
4135.019	-117.12
4137.427	-118.12
4139.833	-117.12
4142.237	-115.12
