Data from Bsub_water_DIL105_B_2_RamanShift_1.txt Node
Date: Wed Feb 22 13:22:46 IST 2017
User: aro
Spectrometer: QEPB0276
Trigger mode: 0
Integration Time (sec): 5.000000E0
Scans to average: 1
Electric dark correction enabled: true
Nonlinearity correction enabled: false
Boxcar width: 0
XAxis mode: Raman Shifts
Number of Pixels in Spectrum: 1044
>>>>>Begin Spectral Data<<<<<
160.701	-32.88
166.742	1.12
172.777	97.12
178.805	407.12
184.826	1126.12
190.841	2353.12
196.849	3737.12
202.85	4658.12
208.845	4848.12
214.833	4703.12
220.815	4477.12
226.789	4350.12
232.758	4177.12
238.719	4028.12
244.674	3855.12
250.623	3705.12
256.565	3504.12
262.5	3312.12
268.429	3142.12
274.351	2999.12
280.267	2863.12
286.176	2713.12
292.079	2604.12
297.975	2502.12
303.865	2437.12
309.748	2319.12
315.625	2264.12
321.495	2203.12
327.359	2179.12
333.217	2151.12
339.068	2129.12
344.912	2124.12
350.751	2104.12
356.583	2113.12
362.408	2114.12
368.227	2081.12
374.04	2109.12
379.847	2126.12
385.647	2134.12
391.44	2142.12
397.228	2138.12
403.009	2173.12
408.784	2192.12
414.553	2194.12
420.315	2176.12
426.071	2198.12
431.821	2186.12
437.565	2172.12
443.302	2183.12
449.033	2165.12
454.758	2165.12
460.477	2137.12
466.189	2148.12
471.896	2118.12
477.596	2089.12
483.29	2096.12
488.978	2098.12
494.66	2064.12
500.335	2050.12
506.005	1990.12
511.668	1938.12
517.325	1906.12
522.977	1868.12
528.622	1853.12
534.261	1821.12
539.894	1799.12
545.521	1790.12
551.141	1776.12
556.756	1757.12
562.365	1745.12
567.968	1732.12
573.565	1694.12
579.155	1682.12
584.74	1659.12
590.319	1668.12
595.892	1644.12
601.459	1623.12
607.02	1613.12
612.575	1597.12
618.124	1577.12
623.667	1558.12
629.204	1551.12
634.735	1538.12
640.261	1517.12
645.781	1503.12
651.294	1492.12
656.802	1498.12
662.304	1487.12
667.8	1464.12
673.29	1440.12
678.775	1446.12
684.254	1434.12
689.726	1418.12
695.193	1411.12
700.655	1399.12
706.11	1395.12
711.56	1396.12
717.004	1371.12
722.442	1351.12
727.874	1343.12
733.301	1340.12
738.722	1325.12
744.137	1318.12
749.547	1329.12
754.951	1297.12
760.349	1287.12
765.741	1308.12
771.128	1295.12
776.509	1302.12
781.885	1287.12
787.254	1274.12
792.618	1268.12
797.977	1254.12
803.33	1245.12
808.677	1233.12
814.019	1207.12
819.355	1200.12
824.686	1203.12
830.011	1179.12
835.33	1160.12
840.644	1153.12
845.952	1128.12
851.255	1129.12
856.552	1130.12
861.844	1094.12
867.13	1091.12
872.41	1073.12
877.686	1067.12
882.955	1041.12
888.219	1020.12
893.478	1006.12
898.731	995.12
903.979	961.12
909.221	938.12
914.458	936.12
919.69	929.12
924.916	918.12
930.136	916.12
935.351	904.12
940.561	912.12
945.766	885.12
950.965	886.12
956.158	882.12
961.347	858.12
966.529	843.12
971.707	837.12
976.879	822.12
982.046	801.12
987.208	800.12
992.364	803.12
997.515	800.12
1002.66	806.12
1007.801	803.12
1012.936	809.12
1018.066	819.12
1023.19	815.12
1028.309	818.12
1033.423	811.12
1038.532	812.12
1043.636	798.12
1048.734	786.12
1053.827	777.12
1058.915	760.12
1063.998	752.12
1069.075	765.12
1074.147	755.12
1079.214	770.12
1084.276	768.12
1089.333	773.12
1094.385	780.12
1099.431	784.12
1104.472	789.12
1109.509	775.12
1114.54	762.12
1119.565	751.12
1124.586	748.12
1129.602	727.12
1134.613	733.12
1139.618	724.12
1144.619	723.12
1149.614	728.12
1154.604	724.12
1159.589	725.12
1164.57	740.12
1169.545	733.12
1174.515	740.12
1179.48	741.12
1184.44	726.12
1189.395	714.12
1194.345	712.12
1199.29	724.12
1204.23	714.12
1209.165	720.12
1214.095	720.12
1219.021	729.12
1223.941	742.12
1228.856	730.12
1233.766	737.12
1238.672	729.12
1243.572	736.12
1248.467	730.12
1253.358	729.12
1258.244	713.12
1263.124	698.12
1268	680.12
1272.871	684.12
1277.737	668.12
1282.599	662.12
1287.455	673.12
1292.306	668.12
1297.153	670.12
1301.995	676.12
1306.832	683.12
1311.664	681.12
1316.491	682.12
1321.314	675.12
1326.132	671.12
1330.945	655.12
1335.753	643.12
1340.556	621.12
1345.354	614.12
1350.148	604.12
1354.937	608.12
1359.722	601.12
1364.501	608.12
1369.276	621.12
1374.046	621.12
1378.811	645.12
1383.572	636.12
1388.327	637.12
1393.079	624.12
1397.825	605.12
1402.567	603.12
1407.304	573.12
1412.036	586.12
1416.764	574.12
1421.487	571.12
1426.205	581.12
1430.919	578.12
1435.628	581.12
1440.333	585.12
1445.032	586.12
1449.727	596.12
1454.418	599.12
1459.104	593.12
1463.785	599.12
1468.462	578.12
1473.134	581.12
1477.802	574.12
1482.465	565.12
1487.123	566.12
1491.777	573.12
1496.426	572.12
1501.071	590.12
1505.711	601.12
1510.347	619.12
1514.978	619.12
1519.604	637.12
1524.226	647.12
1528.844	649.12
1533.457	665.12
1538.065	646.12
1542.669	658.12
1547.269	658.12
1551.864	654.12
1556.454	663.12
1561.041	680.12
1565.622	683.12
1570.199	701.12
1574.772	712.12
1579.34	734.12
1583.904	769.12
1588.464	787.12
1593.019	788.12
1597.569	818.12
1602.115	836.12
1606.657	854.12
1611.195	860.12
1615.728	879.12
1620.256	889.12
1624.78	923.12
1629.3	923.12
1633.816	964.12
1638.327	979.12
1642.834	990.12
1647.336	1000.12
1651.834	1006.12
1656.328	985.12
1660.817	986.12
1665.302	977.12
1669.783	929.12
1674.259	890.12
1678.732	869.12
1683.199	827.12
1687.663	772.12
1692.122	731.12
1696.577	697.12
1701.028	667.12
1705.474	652.12
1709.917	619.12
1714.355	601.12
1718.788	567.12
1723.218	536.12
1727.643	509.12
1732.064	485.12
1736.481	470.12
1740.893	445.12
1745.301	415.12
1749.705	406.12
1754.105	376.12
1758.501	353.12
1762.893	344.12
1767.28	333.12
1771.663	327.12
1776.042	324.12
1780.417	320.12
1784.787	310.12
1789.154	323.12
1793.516	319.12
1797.874	320.12
1802.228	319.12
1806.578	321.12
1810.924	319.12
1815.266	308.12
1819.603	299.12
1823.937	286.12
1828.266	287.12
1832.591	273.12
1836.913	265.12
1841.23	259.12
1845.543	256.12
1849.852	263.12
1854.156	255.12
1858.457	254.12
1862.754	256.12
1867.047	255.12
1871.335	258.12
1875.62	263.12
1879.9	259.12
1884.177	258.12
1888.449	256.12
1892.718	253.12
1896.982	267.12
1901.243	258.12
1905.499	248.12
1909.752	256.12
1914	255.12
1918.245	260.12
1922.485	272.12
1926.722	267.12
1930.954	272.12
1935.183	274.12
1939.408	285.12
1943.628	280.12
1947.845	281.12
1952.058	276.12
1956.267	291.12
1960.472	269.12
1964.673	282.12
1968.87	272.12
1973.063	268.12
1977.252	258.12
1981.438	265.12
1985.619	263.12
1989.797	264.12
1993.971	269.12
1998.14	267.12
2002.306	267.12
2006.469	267.12
2010.627	266.12
2014.781	281.12
2018.932	285.12
2023.078	276.12
2027.221	277.12
2031.36	270.12
2035.495	274.12
2039.627	279.12
2043.754	283.12
2047.878	277.12
2051.998	282.12
2056.114	278.12
2060.226	278.12
2064.334	279.12
2068.439	289.12
2072.54	291.12
2076.637	295.12
2080.73	296.12
2084.82	300.12
2088.906	305.12
2092.988	305.12
2097.066	310.12
2101.14	300.12
2105.211	307.12
2109.278	301.12
2113.342	295.12
2117.401	292.12
2121.457	289.12
2125.509	297.12
2129.558	294.12
2133.602	287.12
2137.643	289.12
2141.681	288.12
2145.714	291.12
2149.744	280.12
2153.77	281.12
2157.793	277.12
2161.812	272.12
2165.827	271.12
2169.838	261.12
2173.846	255.12
2177.851	247.12
2181.851	232.12
2185.848	233.12
2189.841	226.12
2193.831	233.12
2197.817	221.12
2201.799	218.12
2205.778	220.12
2209.753	209.12
2213.725	210.12
2217.693	217.12
2221.657	214.12
2225.618	214.12
2229.575	207.12
2233.529	202.12
2237.479	194.12
2241.425	194.12
2245.368	188.12
2249.307	186.12
2253.243	181.12
2257.175	180.12
2261.104	172.12
2265.029	167.12
2268.95	167.12
2272.868	163.12
2276.783	160.12
2280.694	155.12
2284.601	147.12
2288.505	147.12
2292.405	136.12
2296.302	150.12
2300.195	136.12
2304.085	141.12
2307.971	132.12
2311.854	122.12
2315.734	121.12
2319.609	114.12
2323.482	114.12
2327.351	114.12
2331.216	107.12
2335.078	111.12
2338.937	107.12
2342.792	103.12
2346.643	95.12
2350.492	95.12
2354.336	99.12
2358.178	96.12
2362.015	95.12
2365.85	103.12
2369.681	101.12
2373.508	98.12
2377.333	95.12
2381.153	92.12
2384.971	94.12
2388.785	88.12
2392.595	84.12
2396.402	90.12
2400.206	78.12
2404.007	80.12
2407.804	78.12
2411.597	80.12
2415.388	75.12
2419.174	81.12
2422.958	79.12
2426.738	80.12
2430.515	72.12
2434.289	75.12
2438.059	71.12
2441.825	68.12
2445.589	71.12
2449.349	67.12
2453.106	69.12
2456.859	63.12
2460.61	65.12
2464.356	66.12
2468.1	62.12
2471.84	58.12
2475.577	55.12
2479.311	52.12
2483.041	51.12
2486.768	55.12
2490.492	54.12
2494.213	62.12
2497.93	57.12
2501.644	57.12
2505.355	55.12
2509.062	63.12
2512.766	58.12
2516.467	58.12
2520.165	50.12
2523.859	56.12
2527.551	51.12
2531.239	46.12
2534.923	47.12
2538.605	46.12
2542.283	44.12
2545.958	49.12
2549.63	49.12
2553.299	49.12
2556.964	48.12
2560.626	44.12
2564.285	48.12
2567.941	45.12
2571.594	45.12
2575.243	36.12
2578.89	43.12
2582.533	47.12
2586.173	33.12
2589.809	41.12
2593.443	35.12
2597.073	30.12
2600.701	33.12
2604.325	34.12
2607.946	30.12
2611.564	37.12
2615.178	33.12
2618.79	36.12
2622.398	36.12
2626.004	41.12
2629.606	36.12
2633.205	29.12
2636.801	30.12
2640.394	27.12
2643.983	26.12
2647.57	19.12
2651.153	17.12
2654.734	20.12
2658.311	26.12
2661.885	21.12
2665.456	23.12
2669.025	18.12
2672.589	22.12
2676.151	26.12
2679.71	25.12
2683.266	13.12
2686.819	23.12
2690.368	22.12
2693.915	16.12
2697.458	19.12
2700.999	19.12
2704.536	12.12
2708.071	11.12
2711.602	13.12
2715.13	4.12
2718.656	9.12
2722.178	14.12
2725.697	14.12
2729.214	14.12
2732.727	23.12
2736.237	14.12
2739.744	21.12
2743.249	20.12
2746.75	27.12
2750.248	21.12
2753.743	25.12
2757.236	19.12
2760.725	27.12
2764.211	26.12
2767.695	29.12
2771.175	27.12
2774.652	31.12
2778.127	30.12
2781.598	37.12
2785.067	32.12
2788.532	39.12
2791.995	41.12
2795.455	34.12
2798.911	37.12
2802.365	42.12
2805.816	40.12
2809.264	44.12
2812.709	45.12
2816.151	40.12
2819.59	45.12
2823.026	44.12
2826.46	45.12
2829.89	49.12
2833.318	55.12
2836.742	55.12
2840.164	54.12
2843.583	68.12
2846.999	71.12
2850.412	72.12
2853.822	74.12
2857.229	74.12
2860.634	73.12
2864.035	78.12
2867.434	85.12
2870.83	80.12
2874.223	95.12
2877.613	96.12
2881	99.12
2884.385	100.12
2887.766	112.12
2891.145	109.12
2894.521	113.12
2897.894	113.12
2901.264	118.12
2904.631	123.12
2907.996	131.12
2911.358	133.12
2914.717	141.12
2918.073	138.12
2921.426	146.12
2924.777	151.12
2928.124	153.12
2931.469	168.12
2934.811	165.12
2938.15	174.12
2941.487	181.12
2944.821	185.12
2948.152	196.12
2951.48	205.12
2954.805	215.12
2958.128	223.12
2961.447	227.12
2964.765	235.12
2968.079	240.12
2971.39	246.12
2974.699	255.12
2978.005	266.12
2981.308	278.12
2984.609	300.12
2987.907	307.12
2991.202	330.12
2994.494	341.12
2997.784	363.12
3001.07	361.12
3004.355	377.12
3007.636	394.12
3010.915	401.12
3014.191	413.12
3017.464	421.12
3020.734	437.12
3024.002	441.12
3027.267	453.12
3030.53	470.12
3033.789	485.12
3037.046	492.12
3040.301	512.12
3043.552	531.12
3046.801	540.12
3050.048	563.12
3053.291	585.12
3056.532	599.12
3059.771	627.12
3063.006	646.12
3066.239	663.12
3069.469	691.12
3072.697	701.12
3075.922	738.12
3079.144	756.12
3082.364	767.12
3085.581	792.12
3088.795	826.12
3092.007	833.12
3095.216	868.12
3098.423	899.12
3101.627	924.12
3104.828	954.12
3108.026	971.12
3111.222	987.12
3114.416	1022.12
3117.607	1038.12
3120.795	1055.12
3123.98	1093.12
3127.163	1127.12
3130.344	1143.12
3133.521	1175.12
3136.696	1204.12
3139.869	1230.12
3143.039	1243.12
3146.206	1284.12
3149.371	1301.12
3152.533	1303.12
3155.693	1310.12
3158.85	1336.12
3162.005	1316.12
3165.157	1338.12
3168.306	1343.12
3171.453	1339.12
3174.597	1347.12
3177.739	1361.12
3180.878	1359.12
3184.014	1369.12
3187.149	1371.12
3190.28	1377.12
3193.409	1381.12
3196.536	1385.12
3199.659	1372.12
3202.781	1380.12
3205.9	1393.12
3209.016	1404.12
3212.13	1381.12
3215.241	1380.12
3218.35	1377.12
3221.456	1379.12
3224.56	1367.12
3227.661	1362.12
3230.76	1328.12
3233.856	1331.12
3236.95	1330.12
3240.041	1302.12
3243.13	1305.12
3246.216	1304.12
3249.3	1286.12
3252.382	1280.12
3255.46	1285.12
3258.537	1287.12
3261.611	1272.12
3264.682	1271.12
3267.751	1247.12
3270.818	1249.12
3273.882	1245.12
3276.943	1249.12
3280.002	1236.12
3283.059	1217.12
3286.113	1208.12
3289.165	1173.12
3292.214	1180.12
3295.261	1152.12
3298.306	1119.12
3301.348	1112.12
3304.387	1097.12
3307.425	1091.12
3310.459	1060.12
3313.492	1062.12
3316.521	1041.12
3319.549	1029.12
3322.574	1009.12
3325.597	1015.12
3328.617	994.12
3331.635	995.12
3334.65	985.12
3337.663	992.12
3340.674	980.12
3343.682	965.12
3346.688	975.12
3349.691	969.12
3352.692	969.12
3355.691	960.12
3358.687	963.12
3361.681	941.12
3364.673	932.12
3367.662	913.12
3370.649	905.12
3373.633	876.12
3376.615	875.12
3379.595	866.12
3382.572	867.12
3385.547	843.12
3388.52	837.12
3391.49	819.12
3394.458	822.12
3397.424	808.12
3400.387	797.12
3403.348	773.12
3406.307	788.12
3409.263	767.12
3412.217	761.12
3415.168	749.12
3418.118	732.12
3421.065	741.12
3424.009	720.12
3426.951	712.12
3429.891	696.12
3432.829	690.12
3435.764	677.12
3438.697	660.12
3441.628	654.12
3444.557	633.12
3447.483	618.12
3450.407	603.12
3453.328	579.12
3456.247	574.12
3459.164	563.12
3462.079	537.12
3464.991	533.12
3467.902	504.12
3470.809	487.12
3473.715	482.12
3476.618	460.12
3479.519	453.12
3482.418	441.12
3485.315	417.12
3488.209	418.12
3491.101	409.12
3493.99	399.12
3496.878	385.12
3499.763	373.12
3502.646	363.12
3505.527	350.12
3508.405	336.12
3511.281	313.12
3514.155	310.12
3517.027	298.12
3519.897	282.12
3522.764	270.12
3525.629	256.12
3528.492	234.12
3531.352	221.12
3534.211	220.12
3537.067	205.12
3539.921	200.12
3542.773	188.12
3545.622	174.12
3548.469	167.12
3551.315	157.12
3554.157	151.12
3556.998	140.12
3559.837	126.12
3562.673	117.12
3565.507	109.12
3568.339	103.12
3571.169	97.12
3573.996	85.12
3576.822	82.12
3579.645	77.12
3582.466	73.12
3585.285	65.12
3588.101	58.12
3590.916	54.12
3593.728	52.12
3596.538	42.12
3599.346	39.12
3602.152	26.12
3604.956	31.12
3607.757	20.12
3610.556	14.12
3613.354	9.12
3616.149	9.12
3618.942	4.12
3621.732	-2.88
3624.521	-10.88
3627.307	-5.88
3630.092	-10.88
3632.874	-8.88
3635.654	-17.88
3638.432	-22.88
3641.208	-23.88
3643.982	-27.88
3646.753	-25.88
3649.523	-28.88
3652.29	-35.88
3655.055	-40.88
3657.818	-44.88
3660.579	-50.88
3663.338	-47.88
3666.095	-53.88
3668.849	-60.88
3671.602	-59.88
3674.352	-64.88
3677.101	-64.88
3679.847	-63.88
3682.591	-65.88
3685.333	-72.88
3688.073	-74.88
3690.811	-76.88
3693.547	-73.88
3696.281	-79.88
3699.013	-78.88
3701.742	-76.88
3704.47	-78.88
3707.195	-84.88
3709.919	-88.88
3712.64	-85.88
3715.359	-90.88
3718.076	-91.88
3720.792	-94.88
3723.505	-93.88
3726.216	-91.88
3728.925	-92.88
3731.632	-95.88
3734.336	-96.88
3737.039	-93.88
3739.74	-97.88
3742.439	-98.88
3745.136	-99.88
3747.83	-97.88
3750.523	-101.88
3753.213	-95.88
3755.902	-104.88
3758.589	-103.88
3761.273	-104.88
3763.956	-102.88
3766.636	-105.88
3769.315	-100.88
3771.991	-107.88
3774.665	-106.88
3777.338	-106.88
3780.008	-107.88
3782.677	-105.88
3785.343	-107.88
3788.007	-102.88
3790.67	-105.88
3793.33	-107.88
3795.989	-106.88
3798.645	-109.88
3801.299	-110.88
3803.952	-113.88
3806.602	-110.88
3809.251	-114.88
3811.897	-111.88
3814.542	-112.88
3817.184	-110.88
3819.825	-106.88
3822.463	-108.88
3825.1	-106.88
3827.735	-109.88
3830.367	-109.88
3832.998	-112.88
3835.627	-111.88
3838.253	-110.88
3840.878	-112.88
3843.501	-113.88
3846.122	-113.88
3848.741	-113.88
3851.358	-111.88
3853.973	-109.88
3856.586	-114.88
3859.197	-113.88
3861.806	-115.88
3864.414	-114.88
3867.019	-111.88
3869.622	-109.88
3872.224	-109.88
3874.823	-109.88
3877.421	-101.88
3880.016	-103.88
3882.61	-102.88
3885.202	-101.88
3887.792	-105.88
3890.38	-112.88
3892.966	-114.88
3895.55	-113.88
3898.132	-113.88
3900.713	-112.88
3903.291	-113.88
3905.868	-111.88
3908.442	-109.88
3911.015	-113.88
3913.586	-116.88
3916.155	-115.88
3918.722	-112.88
3921.287	-114.88
3923.85	-115.88
3926.411	-119.88
3928.971	-115.88
3931.528	-114.88
3934.084	-116.88
3936.638	-116.88
3939.19	-117.88
3941.74	-115.88
3944.288	-117.88
3946.834	-113.88
3949.378	-116.88
3951.921	-111.88
3954.462	-113.88
3957	-115.88
3959.537	-109.88
3962.072	-117.88
3964.606	-110.88
3967.137	-108.88
3969.667	-113.88
3972.194	-119.88
3974.72	-114.88
3977.244	-116.88
3979.766	-117.88
3982.286	-114.88
3984.805	-113.88
3987.321	-108.88
3989.836	-114.88
3992.349	-111.88
3994.86	-115.88
3997.369	-112.88
3999.877	-114.88
4002.382	-111.88
4004.886	-110.88
4007.388	-114.88
4009.888	-118.88
4012.386	-113.88
4014.883	-114.88
4017.377	-113.88
4019.87	-121.88
4022.361	-115.88
4024.85	-117.88
4027.338	-112.88
4029.823	-117.88
4032.307	-112.88
4034.789	-114.88
4037.269	-111.88
4039.747	-109.88
4042.224	-113.88
4044.699	-114.88
4047.172	-113.88
4049.643	-119.88
4052.112	-120.88
4054.58	-117.88
4057.046	-114.88
4059.51	-115.88
4061.972	-112.88
4064.432	-113.88
4066.891	-110.88
4069.348	-112.88
4071.803	-113.88
4074.256	-114.88
4076.708	-115.88
4079.158	-116.88
4081.606	-115.88
4084.052	-118.88
4086.497	-117.88
4088.939	-115.88
4091.38	-114.88
4093.819	-118.88
4096.257	-115.88
4098.693	-117.88
4101.127	-117.88
4103.559	-116.88
4105.989	-76.88
4108.418	-75.88
4110.845	-71.88
4113.27	-62.88
4115.694	-55.88
4118.115	-47.88
4120.535	-116.88
4122.954	-113.88
4125.37	-114.88
4127.785	-115.88
4130.198	-116.88
4132.609	-115.88
4135.019	-116.88
4137.427	-118.88
4139.833	-119.88
4142.237	-116.88
