Data from Bsub_water_0CFU2_RamanShift_1.txt Node
Date: Wed Feb 22 12:38:31 IST 2017
User: aro
Spectrometer: QEPB0276
Trigger mode: 0
Integration Time (sec): 5.000000E0
Scans to average: 1
Electric dark correction enabled: true
Nonlinearity correction enabled: false
Boxcar width: 0
XAxis mode: Raman Shifts
Number of Pixels in Spectrum: 1044
>>>>>Begin Spectral Data<<<<<
160.701	-31.5
166.742	5.5
172.777	105.5
178.805	412.5
184.826	1160.5
190.841	2404.5
196.849	3816.5
202.85	4732.5
208.845	4925.5
214.833	4784.5
220.815	4624.5
226.789	4465.5
232.758	4328.5
238.719	4185.5
244.674	4009.5
250.623	3845.5
256.565	3641.5
262.5	3467.5
268.429	3303.5
274.351	3165.5
280.267	3061.5
286.176	2910.5
292.079	2792.5
297.975	2698.5
303.865	2628.5
309.748	2525.5
315.625	2488.5
321.495	2426.5
327.359	2393.5
333.217	2359.5
339.068	2346.5
344.912	2326.5
350.751	2327.5
356.583	2296.5
362.408	2288.5
368.227	2311.5
374.04	2328.5
379.847	2320.5
385.647	2336.5
391.44	2341.5
397.228	2375.5
403.009	2374.5
408.784	2366.5
414.553	2401.5
420.315	2401.5
426.071	2414.5
431.821	2396.5
437.565	2391.5
443.302	2391.5
449.033	2380.5
454.758	2373.5
460.477	2381.5
466.189	2357.5
471.896	2346.5
477.596	2323.5
483.29	2300.5
488.978	2323.5
494.66	2280.5
500.335	2250.5
506.005	2232.5
511.668	2189.5
517.325	2154.5
522.977	2118.5
528.622	2085.5
534.261	2059.5
539.894	2043.5
545.521	2018.5
551.141	1998.5
556.756	1996.5
562.365	1974.5
567.968	1964.5
573.565	1930.5
579.155	1924.5
584.74	1895.5
590.319	1895.5
595.892	1885.5
601.459	1856.5
607.02	1860.5
612.575	1848.5
618.124	1839.5
623.667	1802.5
629.204	1782.5
634.735	1772.5
640.261	1761.5
645.781	1769.5
651.294	1729.5
656.802	1741.5
662.304	1719.5
667.8	1704.5
673.29	1702.5
678.775	1702.5
684.254	1696.5
689.726	1679.5
695.193	1671.5
700.655	1667.5
706.11	1643.5
711.56	1641.5
717.004	1610.5
722.442	1590.5
727.874	1594.5
733.301	1601.5
738.722	1585.5
744.137	1570.5
749.547	1580.5
754.951	1545.5
760.349	1536.5
765.741	1566.5
771.128	1543.5
776.509	1561.5
781.885	1543.5
787.254	1530.5
792.618	1524.5
797.977	1528.5
803.33	1511.5
808.677	1491.5
814.019	1478.5
819.355	1476.5
824.686	1438.5
830.011	1441.5
835.33	1426.5
840.644	1420.5
845.952	1410.5
851.255	1414.5
856.552	1390.5
861.844	1384.5
867.13	1359.5
872.41	1348.5
877.686	1345.5
882.955	1316.5
888.219	1301.5
893.478	1289.5
898.731	1251.5
903.979	1244.5
909.221	1224.5
914.458	1212.5
919.69	1193.5
924.916	1188.5
930.136	1206.5
935.351	1194.5
940.561	1186.5
945.766	1193.5
950.965	1181.5
956.158	1163.5
961.347	1138.5
966.529	1124.5
971.707	1114.5
976.879	1105.5
982.046	1086.5
987.208	1078.5
992.364	1074.5
997.515	1079.5
1002.66	1076.5
1007.801	1088.5
1012.936	1086.5
1018.066	1109.5
1023.19	1107.5
1028.309	1124.5
1033.423	1115.5
1038.532	1109.5
1043.636	1075.5
1048.734	1085.5
1053.827	1088.5
1058.915	1059.5
1063.998	1051.5
1069.075	1050.5
1074.147	1053.5
1079.214	1059.5
1084.276	1065.5
1089.333	1069.5
1094.385	1089.5
1099.431	1079.5
1104.472	1082.5
1109.509	1091.5
1114.54	1070.5
1119.565	1068.5
1124.586	1047.5
1129.602	1036.5
1134.613	1028.5
1139.618	1014.5
1144.619	1001.5
1149.614	1007.5
1154.604	1025.5
1159.589	1018.5
1164.57	1028.5
1169.545	1042.5
1174.515	1034.5
1179.48	1030.5
1184.44	1014.5
1189.395	1013.5
1194.345	1006.5
1199.29	995.5
1204.23	1010.5
1209.165	1013.5
1214.095	1026.5
1219.021	1027.5
1223.941	1043.5
1228.856	1058.5
1233.766	1042.5
1238.672	1043.5
1243.572	1047.5
1248.467	1027.5
1253.358	1031.5
1258.244	998.5
1263.124	987.5
1268	976.5
1272.871	959.5
1277.737	953.5
1282.599	941.5
1287.455	954.5
1292.306	964.5
1297.153	970.5
1301.995	973.5
1306.832	971.5
1311.664	989.5
1316.491	987.5
1321.314	973.5
1326.132	950.5
1330.945	944.5
1335.753	920.5
1340.556	907.5
1345.354	890.5
1350.148	875.5
1354.937	880.5
1359.722	894.5
1364.501	888.5
1369.276	916.5
1374.046	904.5
1378.811	922.5
1383.572	929.5
1388.327	909.5
1393.079	900.5
1397.825	892.5
1402.567	884.5
1407.304	852.5
1412.036	869.5
1416.764	843.5
1421.487	839.5
1426.205	838.5
1430.919	853.5
1435.628	852.5
1440.333	867.5
1445.032	854.5
1449.727	880.5
1454.418	876.5
1459.104	871.5
1463.785	880.5
1468.462	869.5
1473.134	840.5
1477.802	852.5
1482.465	843.5
1487.123	841.5
1491.777	854.5
1496.426	848.5
1501.071	860.5
1505.711	878.5
1510.347	903.5
1514.978	912.5
1519.604	920.5
1524.226	930.5
1528.844	934.5
1533.457	929.5
1538.065	947.5
1542.669	933.5
1547.269	929.5
1551.864	926.5
1556.454	946.5
1561.041	955.5
1565.622	963.5
1570.199	980.5
1574.772	985.5
1579.34	1003.5
1583.904	1027.5
1588.464	1050.5
1593.019	1074.5
1597.569	1093.5
1602.115	1105.5
1606.657	1111.5
1611.195	1126.5
1615.728	1139.5
1620.256	1170.5
1624.78	1177.5
1629.3	1184.5
1633.816	1221.5
1638.327	1224.5
1642.834	1247.5
1647.336	1258.5
1651.834	1260.5
1656.328	1261.5
1660.817	1249.5
1665.302	1237.5
1669.783	1195.5
1674.259	1159.5
1678.732	1128.5
1683.199	1058.5
1687.663	1031.5
1692.122	977.5
1696.577	949.5
1701.028	916.5
1705.474	894.5
1709.917	880.5
1714.355	852.5
1718.788	823.5
1723.218	801.5
1727.643	768.5
1732.064	747.5
1736.481	730.5
1740.893	703.5
1745.301	670.5
1749.705	647.5
1754.105	631.5
1758.501	602.5
1762.893	593.5
1767.28	571.5
1771.663	566.5
1776.042	562.5
1780.417	569.5
1784.787	561.5
1789.154	560.5
1793.516	568.5
1797.874	564.5
1802.228	576.5
1806.578	572.5
1810.924	565.5
1815.266	551.5
1819.603	538.5
1823.937	526.5
1828.266	518.5
1832.591	518.5
1836.913	501.5
1841.23	502.5
1845.543	497.5
1849.852	493.5
1854.156	502.5
1858.457	492.5
1862.754	496.5
1867.047	491.5
1871.335	502.5
1875.62	505.5
1879.9	499.5
1884.177	498.5
1888.449	498.5
1892.718	488.5
1896.982	498.5
1901.243	486.5
1905.499	493.5
1909.752	483.5
1914	497.5
1918.245	495.5
1922.485	508.5
1926.722	499.5
1930.954	502.5
1935.183	508.5
1939.408	516.5
1943.628	510.5
1947.845	516.5
1952.058	515.5
1956.267	514.5
1960.472	508.5
1964.673	510.5
1968.87	504.5
1973.063	509.5
1977.252	502.5
1981.438	486.5
1985.619	487.5
1989.797	496.5
1993.971	488.5
1998.14	487.5
2002.306	489.5
2006.469	485.5
2010.627	494.5
2014.781	497.5
2018.932	499.5
2023.078	503.5
2027.221	504.5
2031.36	491.5
2035.495	491.5
2039.627	481.5
2043.754	476.5
2047.878	479.5
2051.998	472.5
2056.114	489.5
2060.226	476.5
2064.334	491.5
2068.439	484.5
2072.54	488.5
2076.637	501.5
2080.73	495.5
2084.82	509.5
2088.906	512.5
2092.988	504.5
2097.066	501.5
2101.14	503.5
2105.211	507.5
2109.278	502.5
2113.342	499.5
2117.401	497.5
2121.457	489.5
2125.509	493.5
2129.558	506.5
2133.602	482.5
2137.643	482.5
2141.681	485.5
2145.714	475.5
2149.744	471.5
2153.77	471.5
2157.793	473.5
2161.812	457.5
2165.827	447.5
2169.838	448.5
2173.846	436.5
2177.851	429.5
2181.851	416.5
2185.848	418.5
2189.841	403.5
2193.831	399.5
2197.817	399.5
2201.799	395.5
2205.778	399.5
2209.753	387.5
2213.725	381.5
2217.693	390.5
2221.657	387.5
2225.618	381.5
2229.575	384.5
2233.529	373.5
2237.479	375.5
2241.425	369.5
2245.368	359.5
2249.307	354.5
2253.243	343.5
2257.175	339.5
2261.104	346.5
2265.029	336.5
2268.95	323.5
2272.868	316.5
2276.783	308.5
2280.694	314.5
2284.601	308.5
2288.505	300.5
2292.405	292.5
2296.302	301.5
2300.195	291.5
2304.085	293.5
2307.971	273.5
2311.854	266.5
2315.734	264.5
2319.609	257.5
2323.482	255.5
2327.351	253.5
2331.216	256.5
2335.078	254.5
2338.937	241.5
2342.792	242.5
2346.643	241.5
2350.492	238.5
2354.336	234.5
2358.178	230.5
2362.015	235.5
2365.85	248.5
2369.681	229.5
2373.508	238.5
2377.333	228.5
2381.153	242.5
2384.971	238.5
2388.785	232.5
2392.595	223.5
2396.402	227.5
2400.206	216.5
2404.007	211.5
2407.804	217.5
2411.597	212.5
2415.388	214.5
2419.174	218.5
2422.958	216.5
2426.738	209.5
2430.515	199.5
2434.289	209.5
2438.059	200.5
2441.825	199.5
2445.589	194.5
2449.349	193.5
2453.106	188.5
2456.859	197.5
2460.61	197.5
2464.356	197.5
2468.1	198.5
2471.84	193.5
2475.577	188.5
2479.311	189.5
2483.041	179.5
2486.768	188.5
2490.492	183.5
2494.213	178.5
2497.93	186.5
2501.644	189.5
2505.355	181.5
2509.062	185.5
2512.766	177.5
2516.467	182.5
2520.165	178.5
2523.859	189.5
2527.551	172.5
2531.239	173.5
2534.923	174.5
2538.605	176.5
2542.283	165.5
2545.958	169.5
2549.63	169.5
2553.299	168.5
2556.964	176.5
2560.626	160.5
2564.285	164.5
2567.941	166.5
2571.594	161.5
2575.243	156.5
2578.89	158.5
2582.533	161.5
2586.173	152.5
2589.809	150.5
2593.443	150.5
2597.073	144.5
2600.701	144.5
2604.325	148.5
2607.946	140.5
2611.564	148.5
2615.178	148.5
2618.79	140.5
2622.398	147.5
2626.004	145.5
2629.606	130.5
2633.205	133.5
2636.801	140.5
2640.394	137.5
2643.983	133.5
2647.57	126.5
2651.153	128.5
2654.734	127.5
2658.311	128.5
2661.885	130.5
2665.456	119.5
2669.025	114.5
2672.589	113.5
2676.151	120.5
2679.71	123.5
2683.266	115.5
2686.819	118.5
2690.368	116.5
2693.915	114.5
2697.458	112.5
2700.999	108.5
2704.536	110.5
2708.071	101.5
2711.602	97.5
2715.13	95.5
2718.656	98.5
2722.178	101.5
2725.697	95.5
2729.214	102.5
2732.727	98.5
2736.237	107.5
2739.744	113.5
2743.249	105.5
2746.75	111.5
2750.248	111.5
2753.743	105.5
2757.236	108.5
2760.725	110.5
2764.211	115.5
2767.695	114.5
2771.175	114.5
2774.652	113.5
2778.127	118.5
2781.598	117.5
2785.067	108.5
2788.532	119.5
2791.995	110.5
2795.455	112.5
2798.911	119.5
2802.365	116.5
2805.816	120.5
2809.264	123.5
2812.709	126.5
2816.151	120.5
2819.59	128.5
2823.026	133.5
2826.46	128.5
2829.89	120.5
2833.318	132.5
2836.742	130.5
2840.164	123.5
2843.583	135.5
2846.999	144.5
2850.412	143.5
2853.822	145.5
2857.229	133.5
2860.634	151.5
2864.035	155.5
2867.434	149.5
2870.83	149.5
2874.223	156.5
2877.613	169.5
2881	162.5
2884.385	175.5
2887.766	183.5
2891.145	179.5
2894.521	165.5
2897.894	178.5
2901.264	178.5
2904.631	181.5
2907.996	181.5
2911.358	188.5
2914.717	204.5
2918.073	197.5
2921.426	197.5
2924.777	214.5
2928.124	208.5
2931.469	220.5
2934.811	217.5
2938.15	235.5
2941.487	229.5
2944.821	241.5
2948.152	249.5
2951.48	257.5
2954.805	260.5
2958.128	266.5
2961.447	270.5
2964.765	284.5
2968.079	288.5
2971.39	297.5
2974.699	312.5
2978.005	314.5
2981.308	327.5
2984.609	338.5
2987.907	349.5
2991.202	372.5
2994.494	382.5
2997.784	397.5
3001.07	410.5
3004.355	420.5
3007.636	428.5
3010.915	445.5
3014.191	451.5
3017.464	460.5
3020.734	467.5
3024.002	489.5
3027.267	486.5
3030.53	501.5
3033.789	504.5
3037.046	516.5
3040.301	530.5
3043.552	547.5
3046.801	557.5
3050.048	584.5
3053.291	613.5
3056.532	612.5
3059.771	640.5
3063.006	664.5
3066.239	679.5
3069.469	698.5
3072.697	730.5
3075.922	751.5
3079.144	762.5
3082.364	788.5
3085.581	814.5
3088.795	837.5
3092.007	852.5
3095.216	867.5
3098.423	890.5
3101.627	926.5
3104.828	930.5
3108.026	965.5
3111.222	992.5
3114.416	1016.5
3117.607	1040.5
3120.795	1046.5
3123.98	1096.5
3127.163	1123.5
3130.344	1133.5
3133.521	1177.5
3136.696	1190.5
3139.869	1218.5
3143.039	1246.5
3146.206	1253.5
3149.371	1286.5
3152.533	1292.5
3155.693	1295.5
3158.85	1314.5
3162.005	1303.5
3165.157	1334.5
3168.306	1343.5
3171.453	1354.5
3174.597	1322.5
3177.739	1332.5
3180.878	1351.5
3184.014	1360.5
3187.149	1352.5
3190.28	1360.5
3193.409	1362.5
3196.536	1366.5
3199.659	1364.5
3202.781	1380.5
3205.9	1388.5
3209.016	1382.5
3212.13	1386.5
3215.241	1390.5
3218.35	1372.5
3221.456	1353.5
3224.56	1341.5
3227.661	1330.5
3230.76	1314.5
3233.856	1319.5
3236.95	1292.5
3240.041	1294.5
3243.13	1280.5
3246.216	1291.5
3249.3	1292.5
3252.382	1276.5
3255.46	1269.5
3258.537	1262.5
3261.611	1265.5
3264.682	1256.5
3267.751	1251.5
3270.818	1233.5
3273.882	1253.5
3276.943	1216.5
3280.002	1235.5
3283.059	1210.5
3286.113	1200.5
3289.165	1174.5
3292.214	1168.5
3295.261	1140.5
3298.306	1129.5
3301.348	1099.5
3304.387	1095.5
3307.425	1077.5
3310.459	1054.5
3313.492	1044.5
3316.521	1033.5
3319.549	1028.5
3322.574	1000.5
3325.597	1007.5
3328.617	990.5
3331.635	987.5
3334.65	976.5
3337.663	966.5
3340.674	951.5
3343.682	968.5
3346.688	956.5
3349.691	952.5
3352.692	952.5
3355.691	952.5
3358.687	934.5
3361.681	932.5
3364.673	921.5
3367.662	894.5
3370.649	889.5
3373.633	877.5
3376.615	871.5
3379.595	852.5
3382.572	842.5
3385.547	838.5
3388.52	833.5
3391.49	813.5
3394.458	813.5
3397.424	791.5
3400.387	790.5
3403.348	781.5
3406.307	766.5
3409.263	759.5
3412.217	762.5
3415.168	741.5
3418.118	734.5
3421.065	725.5
3424.009	712.5
3426.951	702.5
3429.891	693.5
3432.829	690.5
3435.764	683.5
3438.697	663.5
3441.628	644.5
3444.557	621.5
3447.483	615.5
3450.407	607.5
3453.328	582.5
3456.247	567.5
3459.164	541.5
3462.079	534.5
3464.991	516.5
3467.902	503.5
3470.809	490.5
3473.715	469.5
3476.618	473.5
3479.519	446.5
3482.418	437.5
3485.315	420.5
3488.209	420.5
3491.101	410.5
3493.99	395.5
3496.878	382.5
3499.763	367.5
3502.646	362.5
3505.527	348.5
3508.405	330.5
3511.281	321.5
3514.155	314.5
3517.027	292.5
3519.897	286.5
3522.764	264.5
3525.629	259.5
3528.492	246.5
3531.352	226.5
3534.211	212.5
3537.067	200.5
3539.921	194.5
3542.773	180.5
3545.622	178.5
3548.469	162.5
3551.315	150.5
3554.157	149.5
3556.998	144.5
3559.837	129.5
3562.673	121.5
3565.507	103.5
3568.339	104.5
3571.169	97.5
3573.996	90.5
3576.822	78.5
3579.645	71.5
3582.466	73.5
3585.285	67.5
3588.101	54.5
3590.916	57.5
3593.728	48.5
3596.538	40.5
3599.346	37.5
3602.152	26.5
3604.956	20.5
3607.757	15.5
3610.556	10.5
3613.354	13.5
3616.149	4.5
3618.942	8.5
3621.732	-2.5
3624.521	-9.5
3627.307	-11.5
3630.092	-7.5
3632.874	-16.5
3635.654	-19.5
3638.432	-24.5
3641.208	-30.5
3643.982	-34.5
3646.753	-27.5
3649.523	-34.5
3652.29	-34.5
3655.055	-45.5
3657.818	-46.5
3660.579	-48.5
3663.338	-53.5
3666.095	-53.5
3668.849	-57.5
3671.602	-57.5
3674.352	-67.5
3677.101	-68.5
3679.847	-67.5
3682.591	-70.5
3685.333	-71.5
3688.073	-77.5
3690.811	-75.5
3693.547	-75.5
3696.281	-81.5
3699.013	-80.5
3701.742	-76.5
3704.47	-80.5
3707.195	-88.5
3709.919	-87.5
3712.64	-86.5
3715.359	-92.5
3718.076	-90.5
3720.792	-92.5
3723.505	-93.5
3726.216	-88.5
3728.925	-91.5
3731.632	-92.5
3734.336	-95.5
3737.039	-96.5
3739.74	-98.5
3742.439	-101.5
3745.136	-99.5
3747.83	-102.5
3750.523	-102.5
3753.213	-98.5
3755.902	-103.5
3758.589	-106.5
3761.273	-103.5
3763.956	-101.5
3766.636	-104.5
3769.315	-102.5
3771.991	-107.5
3774.665	-106.5
3777.338	-107.5
3780.008	-107.5
3782.677	-107.5
3785.343	-111.5
3788.007	-105.5
3790.67	-106.5
3793.33	-109.5
3795.989	-104.5
3798.645	-105.5
3801.299	-110.5
3803.952	-112.5
3806.602	-108.5
3809.251	-111.5
3811.897	-113.5
3814.542	-111.5
3817.184	-112.5
3819.825	-104.5
3822.463	-109.5
3825.1	-105.5
3827.735	-110.5
3830.367	-110.5
3832.998	-110.5
3835.627	-116.5
3838.253	-114.5
3840.878	-119.5
3843.501	-115.5
3846.122	-114.5
3848.741	-117.5
3851.358	-113.5
3853.973	-113.5
3856.586	-113.5
3859.197	-114.5
3861.806	-111.5
3864.414	-117.5
3867.019	-112.5
3869.622	-116.5
3872.224	-116.5
3874.823	-113.5
3877.421	-108.5
3880.016	-108.5
3882.61	-103.5
3885.202	-105.5
3887.792	-106.5
3890.38	-107.5
3892.966	-115.5
3895.55	-110.5
3898.132	-114.5
3900.713	-117.5
3903.291	-111.5
3905.868	-114.5
3908.442	-114.5
3911.015	-117.5
3913.586	-116.5
3916.155	-118.5
3918.722	-117.5
3921.287	-115.5
3923.85	-116.5
3926.411	-119.5
3928.971	-117.5
3931.528	-116.5
3934.084	-117.5
3936.638	-118.5
3939.19	-118.5
3941.74	-120.5
3944.288	-119.5
3946.834	-116.5
3949.378	-117.5
3951.921	-117.5
3954.462	-119.5
3957	-118.5
3959.537	-112.5
3962.072	-120.5
3964.606	-118.5
3967.137	-119.5
3969.667	-116.5
3972.194	-118.5
3974.72	-115.5
3977.244	-115.5
3979.766	-115.5
3982.286	-116.5
3984.805	-112.5
3987.321	-115.5
3989.836	-117.5
3992.349	-117.5
3994.86	-122.5
3997.369	-121.5
3999.877	-121.5
4002.382	-119.5
4004.886	-116.5
4007.388	-115.5
4009.888	-115.5
4012.386	-114.5
4014.883	-114.5
4017.377	-114.5
4019.87	-119.5
4022.361	-120.5
4024.85	-120.5
4027.338	-119.5
4029.823	-122.5
4032.307	-117.5
4034.789	-117.5
4037.269	-109.5
4039.747	-109.5
4042.224	-116.5
4044.699	-117.5
4047.172	-117.5
4049.643	-121.5
4052.112	-121.5
4054.58	-122.5
4057.046	-118.5
4059.51	-118.5
4061.972	-114.5
4064.432	-116.5
4066.891	-113.5
4069.348	-112.5
4071.803	-115.5
4074.256	-116.5
4076.708	-116.5
4079.158	-117.5
4081.606	-120.5
4084.052	-121.5
4086.497	-118.5
4088.939	-116.5
4091.38	-114.5
4093.819	-119.5
4096.257	-119.5
4098.693	-120.5
4101.127	-119.5
4103.559	-118.5
4105.989	-73.5
4108.418	-71.5
4110.845	-75.5
4113.27	-68.5
4115.694	-56.5
4118.115	-50.5
4120.535	-116.5
4122.954	-115.5
4125.37	-116.5
4127.785	-115.5
4130.198	-123.5
4132.609	-115.5
4135.019	-123.5
4137.427	-122.5
4139.833	-125.5
4142.237	-120.5
