Data from Bsub_water_DIL107_A_1_RamanShift_1.txt Node
Date: Wed Feb 22 12:47:16 IST 2017
User: aro
Spectrometer: QEPB0276
Trigger mode: 0
Integration Time (sec): 5.000000E0
Scans to average: 1
Electric dark correction enabled: true
Nonlinearity correction enabled: false
Boxcar width: 0
XAxis mode: Raman Shifts
Number of Pixels in Spectrum: 1044
>>>>>Begin Spectral Data<<<<<
160.701	-33.5
166.742	5.5
172.777	95.5
178.805	403.5
184.826	1130.5
190.841	2312.5
196.849	3695.5
202.85	4593.5
208.845	4796.5
214.833	4641.5
220.815	4470.5
226.789	4329.5
232.758	4179.5
238.719	4023.5
244.674	3884.5
250.623	3705.5
256.565	3525.5
262.5	3358.5
268.429	3193.5
274.351	3047.5
280.267	2920.5
286.176	2825.5
292.079	2690.5
297.975	2600.5
303.865	2523.5
309.748	2444.5
315.625	2402.5
321.495	2325.5
327.359	2288.5
333.217	2269.5
339.068	2255.5
344.912	2237.5
350.751	2235.5
356.583	2227.5
362.408	2230.5
368.227	2241.5
374.04	2221.5
379.847	2260.5
385.647	2261.5
391.44	2254.5
397.228	2281.5
403.009	2289.5
408.784	2278.5
414.553	2295.5
420.315	2319.5
426.071	2326.5
431.821	2315.5
437.565	2303.5
443.302	2284.5
449.033	2288.5
454.758	2272.5
460.477	2278.5
466.189	2264.5
471.896	2243.5
477.596	2222.5
483.29	2205.5
488.978	2218.5
494.66	2189.5
500.335	2166.5
506.005	2110.5
511.668	2090.5
517.325	2063.5
522.977	1994.5
528.622	1987.5
534.261	1954.5
539.894	1931.5
545.521	1914.5
551.141	1881.5
556.756	1890.5
562.365	1872.5
567.968	1864.5
573.565	1847.5
579.155	1841.5
584.74	1816.5
590.319	1814.5
595.892	1801.5
601.459	1773.5
607.02	1778.5
612.575	1733.5
618.124	1723.5
623.667	1688.5
629.204	1686.5
634.735	1670.5
640.261	1671.5
645.781	1657.5
651.294	1651.5
656.802	1610.5
662.304	1609.5
667.8	1616.5
673.29	1617.5
678.775	1605.5
684.254	1588.5
689.726	1595.5
695.193	1573.5
700.655	1571.5
706.11	1546.5
711.56	1545.5
717.004	1522.5
722.442	1503.5
727.874	1496.5
733.301	1498.5
738.722	1484.5
744.137	1469.5
749.547	1465.5
754.951	1453.5
760.349	1450.5
765.741	1458.5
771.128	1455.5
776.509	1437.5
781.885	1457.5
787.254	1449.5
792.618	1445.5
797.977	1432.5
803.33	1412.5
808.677	1401.5
814.019	1379.5
819.355	1348.5
824.686	1353.5
830.011	1329.5
835.33	1328.5
840.644	1328.5
845.952	1296.5
851.255	1312.5
856.552	1288.5
861.844	1285.5
867.13	1272.5
872.41	1253.5
877.686	1248.5
882.955	1233.5
888.219	1181.5
893.478	1185.5
898.731	1158.5
903.979	1124.5
909.221	1119.5
914.458	1122.5
919.69	1090.5
924.916	1096.5
930.136	1092.5
935.351	1092.5
940.561	1092.5
945.766	1090.5
950.965	1077.5
956.158	1064.5
961.347	1046.5
966.529	1018.5
971.707	1016.5
976.879	999.5
982.046	987.5
987.208	980.5
992.364	970.5
997.515	981.5
1002.66	991.5
1007.801	1001.5
1012.936	1009.5
1018.066	1011.5
1023.19	1021.5
1028.309	1003.5
1033.423	995.5
1038.532	995.5
1043.636	1004.5
1048.734	986.5
1053.827	975.5
1058.915	961.5
1063.998	951.5
1069.075	956.5
1074.147	955.5
1079.214	961.5
1084.276	961.5
1089.333	977.5
1094.385	976.5
1099.431	994.5
1104.472	979.5
1109.509	969.5
1114.54	960.5
1119.565	954.5
1124.586	929.5
1129.602	919.5
1134.613	928.5
1139.618	913.5
1144.619	918.5
1149.614	927.5
1154.604	914.5
1159.589	935.5
1164.57	918.5
1169.545	940.5
1174.515	934.5
1179.48	929.5
1184.44	936.5
1189.395	920.5
1194.345	909.5
1199.29	898.5
1204.23	906.5
1209.165	906.5
1214.095	917.5
1219.021	914.5
1223.941	920.5
1228.856	941.5
1233.766	941.5
1238.672	939.5
1243.572	935.5
1248.467	936.5
1253.358	912.5
1258.244	902.5
1263.124	894.5
1268	858.5
1272.871	874.5
1277.737	864.5
1282.599	853.5
1287.455	858.5
1292.306	869.5
1297.153	868.5
1301.995	863.5
1306.832	886.5
1311.664	872.5
1316.491	877.5
1321.314	874.5
1326.132	860.5
1330.945	845.5
1335.753	832.5
1340.556	808.5
1345.354	789.5
1350.148	787.5
1354.937	785.5
1359.722	765.5
1364.501	796.5
1369.276	789.5
1374.046	818.5
1378.811	830.5
1383.572	818.5
1388.327	830.5
1393.079	808.5
1397.825	804.5
1402.567	776.5
1407.304	760.5
1412.036	766.5
1416.764	759.5
1421.487	762.5
1426.205	759.5
1430.919	750.5
1435.628	759.5
1440.333	766.5
1445.032	775.5
1449.727	775.5
1454.418	781.5
1459.104	771.5
1463.785	767.5
1468.462	759.5
1473.134	755.5
1477.802	746.5
1482.465	744.5
1487.123	754.5
1491.777	758.5
1496.426	763.5
1501.071	772.5
1505.711	787.5
1510.347	808.5
1514.978	813.5
1519.604	828.5
1524.226	840.5
1528.844	836.5
1533.457	850.5
1538.065	843.5
1542.669	835.5
1547.269	838.5
1551.864	830.5
1556.454	837.5
1561.041	856.5
1565.622	872.5
1570.199	878.5
1574.772	888.5
1579.34	914.5
1583.904	932.5
1588.464	949.5
1593.019	955.5
1597.569	992.5
1602.115	1000.5
1606.657	1011.5
1611.195	1013.5
1615.728	1034.5
1620.256	1049.5
1624.78	1073.5
1629.3	1095.5
1633.816	1108.5
1638.327	1131.5
1642.834	1150.5
1647.336	1153.5
1651.834	1154.5
1656.328	1144.5
1660.817	1143.5
1665.302	1128.5
1669.783	1102.5
1674.259	1061.5
1678.732	1013.5
1683.199	977.5
1687.663	924.5
1692.122	885.5
1696.577	859.5
1701.028	838.5
1705.474	821.5
1709.917	802.5
1714.355	769.5
1718.788	746.5
1723.218	710.5
1727.643	687.5
1732.064	644.5
1736.481	633.5
1740.893	601.5
1745.301	591.5
1749.705	567.5
1754.105	535.5
1758.501	521.5
1762.893	499.5
1767.28	493.5
1771.663	491.5
1776.042	473.5
1780.417	478.5
1784.787	484.5
1789.154	484.5
1793.516	481.5
1797.874	494.5
1802.228	496.5
1806.578	496.5
1810.924	481.5
1815.266	485.5
1819.603	469.5
1823.937	458.5
1828.266	463.5
1832.591	441.5
1836.913	436.5
1841.23	433.5
1845.543	423.5
1849.852	419.5
1854.156	415.5
1858.457	419.5
1862.754	421.5
1867.047	428.5
1871.335	429.5
1875.62	429.5
1879.9	432.5
1884.177	429.5
1888.449	428.5
1892.718	412.5
1896.982	407.5
1901.243	411.5
1905.499	412.5
1909.752	410.5
1914	414.5
1918.245	411.5
1922.485	416.5
1926.722	428.5
1930.954	431.5
1935.183	437.5
1939.408	443.5
1943.628	435.5
1947.845	450.5
1952.058	440.5
1956.267	434.5
1960.472	436.5
1964.673	440.5
1968.87	427.5
1973.063	430.5
1977.252	428.5
1981.438	425.5
1985.619	418.5
1989.797	416.5
1993.971	414.5
1998.14	423.5
2002.306	419.5
2006.469	426.5
2010.627	428.5
2014.781	429.5
2018.932	438.5
2023.078	418.5
2027.221	423.5
2031.36	417.5
2035.495	419.5
2039.627	410.5
2043.754	419.5
2047.878	417.5
2051.998	410.5
2056.114	420.5
2060.226	412.5
2064.334	421.5
2068.439	425.5
2072.54	428.5
2076.637	446.5
2080.73	433.5
2084.82	438.5
2088.906	439.5
2092.988	440.5
2097.066	445.5
2101.14	432.5
2105.211	427.5
2109.278	446.5
2113.342	436.5
2117.401	429.5
2121.457	419.5
2125.509	431.5
2129.558	430.5
2133.602	420.5
2137.643	422.5
2141.681	419.5
2145.714	410.5
2149.744	408.5
2153.77	413.5
2157.793	399.5
2161.812	394.5
2165.827	400.5
2169.838	392.5
2173.846	377.5
2177.851	369.5
2181.851	360.5
2185.848	358.5
2189.841	348.5
2193.831	353.5
2197.817	349.5
2201.799	345.5
2205.778	330.5
2209.753	334.5
2213.725	336.5
2217.693	331.5
2221.657	326.5
2225.618	327.5
2229.575	334.5
2233.529	317.5
2237.479	321.5
2241.425	315.5
2245.368	305.5
2249.307	298.5
2253.243	284.5
2257.175	297.5
2261.104	285.5
2265.029	282.5
2268.95	284.5
2272.868	274.5
2276.783	275.5
2280.694	269.5
2284.601	260.5
2288.505	251.5
2292.405	263.5
2296.302	254.5
2300.195	248.5
2304.085	239.5
2307.971	236.5
2311.854	228.5
2315.734	224.5
2319.609	227.5
2323.482	211.5
2327.351	213.5
2331.216	216.5
2335.078	209.5
2338.937	205.5
2342.792	206.5
2346.643	204.5
2350.492	197.5
2354.336	198.5
2358.178	202.5
2362.015	195.5
2365.85	197.5
2369.681	196.5
2373.508	194.5
2377.333	197.5
2381.153	193.5
2384.971	200.5
2388.785	197.5
2392.595	193.5
2396.402	190.5
2400.206	181.5
2404.007	183.5
2407.804	174.5
2411.597	176.5
2415.388	175.5
2419.174	183.5
2422.958	170.5
2426.738	172.5
2430.515	174.5
2434.289	180.5
2438.059	174.5
2441.825	165.5
2445.589	174.5
2449.349	170.5
2453.106	170.5
2456.859	163.5
2460.61	159.5
2464.356	156.5
2468.1	149.5
2471.84	151.5
2475.577	149.5
2479.311	148.5
2483.041	147.5
2486.768	145.5
2490.492	150.5
2494.213	151.5
2497.93	153.5
2501.644	150.5
2505.355	151.5
2509.062	144.5
2512.766	148.5
2516.467	144.5
2520.165	147.5
2523.859	145.5
2527.551	143.5
2531.239	138.5
2534.923	138.5
2538.605	136.5
2542.283	142.5
2545.958	142.5
2549.63	137.5
2553.299	140.5
2556.964	136.5
2560.626	133.5
2564.285	129.5
2567.941	131.5
2571.594	128.5
2575.243	128.5
2578.89	124.5
2582.533	132.5
2586.173	128.5
2589.809	122.5
2593.443	122.5
2597.073	111.5
2600.701	120.5
2604.325	124.5
2607.946	111.5
2611.564	119.5
2615.178	117.5
2618.79	117.5
2622.398	113.5
2626.004	109.5
2629.606	116.5
2633.205	104.5
2636.801	109.5
2640.394	103.5
2643.983	105.5
2647.57	98.5
2651.153	105.5
2654.734	98.5
2658.311	107.5
2661.885	99.5
2665.456	91.5
2669.025	91.5
2672.589	96.5
2676.151	98.5
2679.71	89.5
2683.266	89.5
2686.819	94.5
2690.368	92.5
2693.915	84.5
2697.458	85.5
2700.999	83.5
2704.536	84.5
2708.071	83.5
2711.602	84.5
2715.13	73.5
2718.656	80.5
2722.178	84.5
2725.697	76.5
2729.214	76.5
2732.727	81.5
2736.237	79.5
2739.744	77.5
2743.249	82.5
2746.75	91.5
2750.248	77.5
2753.743	89.5
2757.236	82.5
2760.725	96.5
2764.211	98.5
2767.695	99.5
2771.175	97.5
2774.652	98.5
2778.127	102.5
2781.598	98.5
2785.067	94.5
2788.532	91.5
2791.995	102.5
2795.455	94.5
2798.911	92.5
2802.365	98.5
2805.816	106.5
2809.264	92.5
2812.709	106.5
2816.151	104.5
2819.59	104.5
2823.026	103.5
2826.46	105.5
2829.89	107.5
2833.318	109.5
2836.742	108.5
2840.164	114.5
2843.583	116.5
2846.999	124.5
2850.412	116.5
2853.822	122.5
2857.229	121.5
2860.634	133.5
2864.035	129.5
2867.434	130.5
2870.83	141.5
2874.223	138.5
2877.613	146.5
2881	146.5
2884.385	149.5
2887.766	152.5
2891.145	154.5
2894.521	153.5
2897.894	148.5
2901.264	157.5
2904.631	167.5
2907.996	166.5
2911.358	168.5
2914.717	173.5
2918.073	184.5
2921.426	178.5
2924.777	193.5
2928.124	193.5
2931.469	206.5
2934.811	199.5
2938.15	211.5
2941.487	210.5
2944.821	221.5
2948.152	224.5
2951.48	229.5
2954.805	239.5
2958.128	243.5
2961.447	249.5
2964.765	261.5
2968.079	270.5
2971.39	280.5
2974.699	292.5
2978.005	296.5
2981.308	308.5
2984.609	320.5
2987.907	333.5
2991.202	352.5
2994.494	357.5
2997.784	376.5
3001.07	378.5
3004.355	391.5
3007.636	411.5
3010.915	419.5
3014.191	439.5
3017.464	445.5
3020.734	449.5
3024.002	451.5
3027.267	467.5
3030.53	478.5
3033.789	483.5
3037.046	504.5
3040.301	503.5
3043.552	533.5
3046.801	527.5
3050.048	550.5
3053.291	577.5
3056.532	580.5
3059.771	617.5
3063.006	640.5
3066.239	653.5
3069.469	680.5
3072.697	706.5
3075.922	726.5
3079.144	748.5
3082.364	767.5
3085.581	766.5
3088.795	803.5
3092.007	808.5
3095.216	841.5
3098.423	850.5
3101.627	880.5
3104.828	901.5
3108.026	925.5
3111.222	953.5
3114.416	985.5
3117.607	993.5
3120.795	1020.5
3123.98	1053.5
3127.163	1063.5
3130.344	1097.5
3133.521	1121.5
3136.696	1146.5
3139.869	1174.5
3143.039	1190.5
3146.206	1231.5
3149.371	1228.5
3152.533	1236.5
3155.693	1257.5
3158.85	1261.5
3162.005	1267.5
3165.157	1275.5
3168.306	1285.5
3171.453	1285.5
3174.597	1279.5
3177.739	1318.5
3180.878	1300.5
3184.014	1306.5
3187.149	1306.5
3190.28	1327.5
3193.409	1322.5
3196.536	1310.5
3199.659	1317.5
3202.781	1334.5
3205.9	1331.5
3209.016	1339.5
3212.13	1340.5
3215.241	1330.5
3218.35	1318.5
3221.456	1310.5
3224.56	1312.5
3227.661	1293.5
3230.76	1277.5
3233.856	1285.5
3236.95	1260.5
3240.041	1273.5
3243.13	1242.5
3246.216	1252.5
3249.3	1236.5
3252.382	1238.5
3255.46	1228.5
3258.537	1228.5
3261.611	1217.5
3264.682	1217.5
3267.751	1215.5
3270.818	1206.5
3273.882	1198.5
3276.943	1190.5
3280.002	1193.5
3283.059	1162.5
3286.113	1162.5
3289.165	1141.5
3292.214	1137.5
3295.261	1110.5
3298.306	1109.5
3301.348	1083.5
3304.387	1046.5
3307.425	1042.5
3310.459	1043.5
3313.492	1018.5
3316.521	999.5
3319.549	987.5
3322.574	993.5
3325.597	984.5
3328.617	968.5
3331.635	954.5
3334.65	950.5
3337.663	956.5
3340.674	943.5
3343.682	939.5
3346.688	933.5
3349.691	932.5
3352.692	922.5
3355.691	914.5
3358.687	919.5
3361.681	896.5
3364.673	889.5
3367.662	871.5
3370.649	856.5
3373.633	869.5
3376.615	855.5
3379.595	838.5
3382.572	829.5
3385.547	817.5
3388.52	810.5
3391.49	786.5
3394.458	774.5
3397.424	780.5
3400.387	760.5
3403.348	754.5
3406.307	740.5
3409.263	743.5
3412.217	742.5
3415.168	726.5
3418.118	721.5
3421.065	701.5
3424.009	705.5
3426.951	691.5
3429.891	690.5
3432.829	677.5
3435.764	668.5
3438.697	642.5
3441.628	628.5
3444.557	625.5
3447.483	597.5
3450.407	593.5
3453.328	561.5
3456.247	557.5
3459.164	546.5
3462.079	527.5
3464.991	504.5
3467.902	485.5
3470.809	471.5
3473.715	457.5
3476.618	442.5
3479.519	440.5
3482.418	420.5
3485.315	416.5
3488.209	401.5
3491.101	402.5
3493.99	376.5
3496.878	370.5
3499.763	370.5
3502.646	360.5
3505.527	335.5
3508.405	326.5
3511.281	318.5
3514.155	306.5
3517.027	290.5
3519.897	280.5
3522.764	271.5
3525.629	252.5
3528.492	245.5
3531.352	228.5
3534.211	208.5
3537.067	202.5
3539.921	186.5
3542.773	178.5
3545.622	174.5
3548.469	153.5
3551.315	144.5
3554.157	139.5
3556.998	140.5
3559.837	123.5
3562.673	121.5
3565.507	111.5
3568.339	104.5
3571.169	97.5
3573.996	96.5
3576.822	83.5
3579.645	79.5
3582.466	74.5
3585.285	66.5
3588.101	55.5
3590.916	56.5
3593.728	43.5
3596.538	41.5
3599.346	36.5
3602.152	29.5
3604.956	24.5
3607.757	17.5
3610.556	18.5
3613.354	13.5
3616.149	14.5
3618.942	1.5
3621.732	-2.5
3624.521	-2.5
3627.307	-7.5
3630.092	-11.5
3632.874	-9.5
3635.654	-18.5
3638.432	-13.5
3641.208	-22.5
3643.982	-30.5
3646.753	-24.5
3649.523	-31.5
3652.29	-38.5
3655.055	-42.5
3657.818	-45.5
3660.579	-47.5
3663.338	-48.5
3666.095	-58.5
3668.849	-61.5
3671.602	-56.5
3674.352	-61.5
3677.101	-59.5
3679.847	-62.5
3682.591	-64.5
3685.333	-70.5
3688.073	-70.5
3690.811	-75.5
3693.547	-75.5
3696.281	-79.5
3699.013	-77.5
3701.742	-80.5
3704.47	-77.5
3707.195	-83.5
3709.919	-82.5
3712.64	-81.5
3715.359	-82.5
3718.076	-84.5
3720.792	-87.5
3723.505	-90.5
3726.216	-85.5
3728.925	-85.5
3731.632	-92.5
3734.336	-95.5
3737.039	-93.5
3739.74	-94.5
3742.439	-95.5
3745.136	-96.5
3747.83	-98.5
3750.523	-96.5
3753.213	-94.5
3755.902	-98.5
3758.589	-98.5
3761.273	-98.5
3763.956	-98.5
3766.636	-99.5
3769.315	-98.5
3771.991	-104.5
3774.665	-101.5
3777.338	-103.5
3780.008	-104.5
3782.677	-101.5
3785.343	-105.5
3788.007	-107.5
3790.67	-103.5
3793.33	-103.5
3795.989	-102.5
3798.645	-102.5
3801.299	-106.5
3803.952	-103.5
3806.602	-103.5
3809.251	-105.5
3811.897	-107.5
3814.542	-107.5
3817.184	-107.5
3819.825	-106.5
3822.463	-106.5
3825.1	-105.5
3827.735	-111.5
3830.367	-109.5
3832.998	-109.5
3835.627	-112.5
3838.253	-107.5
3840.878	-107.5
3843.501	-108.5
3846.122	-108.5
3848.741	-106.5
3851.358	-110.5
3853.973	-111.5
3856.586	-113.5
3859.197	-109.5
3861.806	-111.5
3864.414	-116.5
3867.019	-114.5
3869.622	-113.5
3872.224	-109.5
3874.823	-107.5
3877.421	-101.5
3880.016	-103.5
3882.61	-100.5
3885.202	-101.5
3887.792	-103.5
3890.38	-107.5
3892.966	-110.5
3895.55	-110.5
3898.132	-109.5
3900.713	-114.5
3903.291	-110.5
3905.868	-115.5
3908.442	-111.5
3911.015	-112.5
3913.586	-108.5
3916.155	-110.5
3918.722	-111.5
3921.287	-109.5
3923.85	-111.5
3926.411	-114.5
3928.971	-114.5
3931.528	-112.5
3934.084	-112.5
3936.638	-115.5
3939.19	-117.5
3941.74	-114.5
3944.288	-116.5
3946.834	-110.5
3949.378	-111.5
3951.921	-110.5
3954.462	-110.5
3957	-114.5
3959.537	-106.5
3962.072	-115.5
3964.606	-112.5
3967.137	-111.5
3969.667	-111.5
3972.194	-114.5
3974.72	-115.5
3977.244	-113.5
3979.766	-112.5
3982.286	-110.5
3984.805	-109.5
3987.321	-109.5
3989.836	-112.5
3992.349	-110.5
3994.86	-112.5
3997.369	-112.5
3999.877	-114.5
4002.382	-108.5
4004.886	-111.5
4007.388	-113.5
4009.888	-116.5
4012.386	-113.5
4014.883	-112.5
4017.377	-107.5
4019.87	-119.5
4022.361	-111.5
4024.85	-114.5
4027.338	-112.5
4029.823	-114.5
4032.307	-108.5
4034.789	-113.5
4037.269	-110.5
4039.747	-106.5
4042.224	-114.5
4044.699	-116.5
4047.172	-115.5
4049.643	-118.5
4052.112	-117.5
4054.58	-117.5
4057.046	-111.5
4059.51	-112.5
4061.972	-110.5
4064.432	-110.5
4066.891	-110.5
4069.348	-109.5
4071.803	-110.5
4074.256	-114.5
4076.708	-114.5
4079.158	-114.5
4081.606	-114.5
4084.052	-118.5
4086.497	-114.5
4088.939	-112.5
4091.38	-113.5
4093.819	-114.5
4096.257	-114.5
4098.693	-117.5
4101.127	-115.5
4103.559	-116.5
4105.989	-70.5
4108.418	-69.5
4110.845	-68.5
4113.27	-60.5
4115.694	-53.5
4118.115	-48.5
4120.535	-112.5
4122.954	-111.5
4125.37	-111.5
4127.785	-112.5
4130.198	-113.5
4132.609	-113.5
4135.019	-118.5
4137.427	-118.5
4139.833	-116.5
4142.237	-117.5
