Data from Bsub_water_DIL104_A_3_RamanShift_1.txt Node
Date: Wed Feb 22 12:58:31 IST 2017
User: aro
Spectrometer: QEPB0276
Trigger mode: 0
Integration Time (sec): 5.000000E0
Scans to average: 1
Electric dark correction enabled: true
Nonlinearity correction enabled: false
Boxcar width: 0
XAxis mode: Raman Shifts
Number of Pixels in Spectrum: 1044
>>>>>Begin Spectral Data<<<<<
160.701	-35.5
166.742	2.5
172.777	99.5
178.805	401.5
184.826	1111.5
190.841	2325.5
196.849	3724.5
202.85	4584.5
208.845	4818.5
214.833	4648.5
220.815	4480.5
226.789	4306.5
232.758	4168.5
238.719	4027.5
244.674	3803.5
250.623	3657.5
256.565	3475.5
262.5	3310.5
268.429	3158.5
274.351	3012.5
280.267	2858.5
286.176	2741.5
292.079	2618.5
297.975	2552.5
303.865	2443.5
309.748	2384.5
315.625	2294.5
321.495	2261.5
327.359	2201.5
333.217	2180.5
339.068	2178.5
344.912	2143.5
350.751	2142.5
356.583	2142.5
362.408	2142.5
368.227	2129.5
374.04	2159.5
379.847	2156.5
385.647	2146.5
391.44	2180.5
397.228	2186.5
403.009	2192.5
408.784	2236.5
414.553	2209.5
420.315	2217.5
426.071	2215.5
431.821	2239.5
437.565	2214.5
443.302	2199.5
449.033	2213.5
454.758	2214.5
460.477	2181.5
466.189	2186.5
471.896	2154.5
477.596	2154.5
483.29	2111.5
488.978	2106.5
494.66	2099.5
500.335	2079.5
506.005	2026.5
511.668	1985.5
517.325	1948.5
522.977	1897.5
528.622	1878.5
534.261	1859.5
539.894	1821.5
545.521	1819.5
551.141	1811.5
556.756	1784.5
562.365	1766.5
567.968	1749.5
573.565	1741.5
579.155	1719.5
584.74	1706.5
590.319	1699.5
595.892	1683.5
601.459	1667.5
607.02	1644.5
612.575	1632.5
618.124	1608.5
623.667	1603.5
629.204	1576.5
634.735	1567.5
640.261	1520.5
645.781	1543.5
651.294	1524.5
656.802	1515.5
662.304	1507.5
667.8	1491.5
673.29	1472.5
678.775	1482.5
684.254	1484.5
689.726	1459.5
695.193	1447.5
700.655	1442.5
706.11	1439.5
711.56	1414.5
717.004	1394.5
722.442	1382.5
727.874	1382.5
733.301	1371.5
738.722	1366.5
744.137	1350.5
749.547	1342.5
754.951	1342.5
760.349	1335.5
765.741	1334.5
771.128	1325.5
776.509	1332.5
781.885	1326.5
787.254	1322.5
792.618	1304.5
797.977	1299.5
803.33	1279.5
808.677	1262.5
814.019	1250.5
819.355	1226.5
824.686	1224.5
830.011	1202.5
835.33	1198.5
840.644	1181.5
845.952	1181.5
851.255	1166.5
856.552	1161.5
861.844	1141.5
867.13	1134.5
872.41	1116.5
877.686	1108.5
882.955	1075.5
888.219	1052.5
893.478	1038.5
898.731	1019.5
903.979	1002.5
909.221	985.5
914.458	968.5
919.69	963.5
924.916	957.5
930.136	962.5
935.351	956.5
940.561	958.5
945.766	931.5
950.965	934.5
956.158	905.5
961.347	897.5
966.529	885.5
971.707	872.5
976.879	854.5
982.046	837.5
987.208	841.5
992.364	829.5
997.515	842.5
1002.66	833.5
1007.801	850.5
1012.936	830.5
1018.066	858.5
1023.19	864.5
1028.309	862.5
1033.423	861.5
1038.532	846.5
1043.636	853.5
1048.734	848.5
1053.827	815.5
1058.915	807.5
1063.998	800.5
1069.075	816.5
1074.147	805.5
1079.214	817.5
1084.276	813.5
1089.333	817.5
1094.385	829.5
1099.431	822.5
1104.472	817.5
1109.509	814.5
1114.54	800.5
1119.565	796.5
1124.586	777.5
1129.602	772.5
1134.613	764.5
1139.618	770.5
1144.619	772.5
1149.614	768.5
1154.604	771.5
1159.589	777.5
1164.57	770.5
1169.545	784.5
1174.515	777.5
1179.48	790.5
1184.44	778.5
1189.395	763.5
1194.345	752.5
1199.29	753.5
1204.23	756.5
1209.165	768.5
1214.095	761.5
1219.021	784.5
1223.941	774.5
1228.856	786.5
1233.766	776.5
1238.672	781.5
1243.572	782.5
1248.467	762.5
1253.358	763.5
1258.244	742.5
1263.124	745.5
1268	718.5
1272.871	724.5
1277.737	705.5
1282.599	687.5
1287.455	711.5
1292.306	716.5
1297.153	709.5
1301.995	716.5
1306.832	728.5
1311.664	724.5
1316.491	718.5
1321.314	723.5
1326.132	693.5
1330.945	693.5
1335.753	680.5
1340.556	664.5
1345.354	643.5
1350.148	641.5
1354.937	643.5
1359.722	640.5
1364.501	632.5
1369.276	658.5
1374.046	665.5
1378.811	672.5
1383.572	665.5
1388.327	662.5
1393.079	649.5
1397.825	645.5
1402.567	633.5
1407.304	618.5
1412.036	609.5
1416.764	612.5
1421.487	611.5
1426.205	613.5
1430.919	606.5
1435.628	608.5
1440.333	616.5
1445.032	631.5
1449.727	631.5
1454.418	626.5
1459.104	629.5
1463.785	633.5
1468.462	613.5
1473.134	602.5
1477.802	604.5
1482.465	605.5
1487.123	602.5
1491.777	599.5
1496.426	607.5
1501.071	615.5
1505.711	631.5
1510.347	650.5
1514.978	659.5
1519.604	673.5
1524.226	681.5
1528.844	689.5
1533.457	688.5
1538.065	676.5
1542.669	693.5
1547.269	684.5
1551.864	679.5
1556.454	699.5
1561.041	716.5
1565.622	721.5
1570.199	741.5
1574.772	753.5
1579.34	771.5
1583.904	801.5
1588.464	798.5
1593.019	826.5
1597.569	840.5
1602.115	855.5
1606.657	878.5
1611.195	895.5
1615.728	910.5
1620.256	936.5
1624.78	956.5
1629.3	964.5
1633.816	990.5
1638.327	1000.5
1642.834	1017.5
1647.336	1033.5
1651.834	1013.5
1656.328	1015.5
1660.817	1003.5
1665.302	980.5
1669.783	955.5
1674.259	920.5
1678.732	880.5
1683.199	838.5
1687.663	794.5
1692.122	738.5
1696.577	703.5
1701.028	680.5
1705.474	673.5
1709.917	648.5
1714.355	627.5
1718.788	598.5
1723.218	560.5
1727.643	544.5
1732.064	524.5
1736.481	501.5
1740.893	460.5
1745.301	447.5
1749.705	436.5
1754.105	400.5
1758.501	397.5
1762.893	376.5
1767.28	371.5
1771.663	359.5
1776.042	360.5
1780.417	347.5
1784.787	355.5
1789.154	347.5
1793.516	353.5
1797.874	358.5
1802.228	356.5
1806.578	353.5
1810.924	348.5
1815.266	337.5
1819.603	324.5
1823.937	321.5
1828.266	319.5
1832.591	308.5
1836.913	296.5
1841.23	305.5
1845.543	290.5
1849.852	293.5
1854.156	293.5
1858.457	293.5
1862.754	297.5
1867.047	294.5
1871.335	292.5
1875.62	298.5
1879.9	293.5
1884.177	295.5
1888.449	293.5
1892.718	288.5
1896.982	295.5
1901.243	298.5
1905.499	284.5
1909.752	289.5
1914	288.5
1918.245	292.5
1922.485	297.5
1926.722	294.5
1930.954	307.5
1935.183	300.5
1939.408	307.5
1943.628	308.5
1947.845	310.5
1952.058	311.5
1956.267	308.5
1960.472	307.5
1964.673	306.5
1968.87	310.5
1973.063	299.5
1977.252	301.5
1981.438	300.5
1985.619	295.5
1989.797	297.5
1993.971	298.5
1998.14	299.5
2002.306	295.5
2006.469	298.5
2010.627	303.5
2014.781	301.5
2018.932	305.5
2023.078	296.5
2027.221	303.5
2031.36	300.5
2035.495	297.5
2039.627	305.5
2043.754	294.5
2047.878	300.5
2051.998	306.5
2056.114	300.5
2060.226	310.5
2064.334	304.5
2068.439	314.5
2072.54	305.5
2076.637	326.5
2080.73	323.5
2084.82	319.5
2088.906	318.5
2092.988	318.5
2097.066	327.5
2101.14	327.5
2105.211	327.5
2109.278	315.5
2113.342	323.5
2117.401	322.5
2121.457	322.5
2125.509	313.5
2129.558	323.5
2133.602	315.5
2137.643	313.5
2141.681	305.5
2145.714	303.5
2149.744	304.5
2153.77	294.5
2157.793	298.5
2161.812	290.5
2165.827	283.5
2169.838	288.5
2173.846	268.5
2177.851	271.5
2181.851	259.5
2185.848	265.5
2189.841	252.5
2193.831	246.5
2197.817	245.5
2201.799	249.5
2205.778	236.5
2209.753	230.5
2213.725	228.5
2217.693	234.5
2221.657	235.5
2225.618	226.5
2229.575	231.5
2233.529	226.5
2237.479	217.5
2241.425	223.5
2245.368	215.5
2249.307	209.5
2253.243	205.5
2257.175	203.5
2261.104	201.5
2265.029	183.5
2268.95	190.5
2272.868	185.5
2276.783	172.5
2280.694	174.5
2284.601	173.5
2288.505	169.5
2292.405	160.5
2296.302	165.5
2300.195	155.5
2304.085	157.5
2307.971	152.5
2311.854	151.5
2315.734	139.5
2319.609	134.5
2323.482	138.5
2327.351	131.5
2331.216	138.5
2335.078	128.5
2338.937	126.5
2342.792	122.5
2346.643	119.5
2350.492	121.5
2354.336	118.5
2358.178	117.5
2362.015	115.5
2365.85	118.5
2369.681	120.5
2373.508	117.5
2377.333	115.5
2381.153	113.5
2384.971	122.5
2388.785	110.5
2392.595	105.5
2396.402	114.5
2400.206	101.5
2404.007	96.5
2407.804	100.5
2411.597	101.5
2415.388	102.5
2419.174	105.5
2422.958	96.5
2426.738	102.5
2430.515	102.5
2434.289	100.5
2438.059	92.5
2441.825	91.5
2445.589	92.5
2449.349	89.5
2453.106	85.5
2456.859	90.5
2460.61	78.5
2464.356	85.5
2468.1	89.5
2471.84	84.5
2475.577	75.5
2479.311	81.5
2483.041	73.5
2486.768	75.5
2490.492	83.5
2494.213	74.5
2497.93	79.5
2501.644	79.5
2505.355	68.5
2509.062	82.5
2512.766	77.5
2516.467	78.5
2520.165	69.5
2523.859	75.5
2527.551	68.5
2531.239	76.5
2534.923	68.5
2538.605	73.5
2542.283	74.5
2545.958	62.5
2549.63	67.5
2553.299	66.5
2556.964	62.5
2560.626	62.5
2564.285	57.5
2567.941	64.5
2571.594	61.5
2575.243	59.5
2578.89	62.5
2582.533	62.5
2586.173	63.5
2589.809	58.5
2593.443	55.5
2597.073	50.5
2600.701	51.5
2604.325	53.5
2607.946	47.5
2611.564	51.5
2615.178	54.5
2618.79	46.5
2622.398	52.5
2626.004	48.5
2629.606	56.5
2633.205	54.5
2636.801	52.5
2640.394	45.5
2643.983	44.5
2647.57	43.5
2651.153	42.5
2654.734	34.5
2658.311	46.5
2661.885	39.5
2665.456	36.5
2669.025	34.5
2672.589	37.5
2676.151	36.5
2679.71	31.5
2683.266	37.5
2686.819	37.5
2690.368	32.5
2693.915	34.5
2697.458	34.5
2700.999	40.5
2704.536	29.5
2708.071	30.5
2711.602	29.5
2715.13	21.5
2718.656	24.5
2722.178	23.5
2725.697	26.5
2729.214	27.5
2732.727	33.5
2736.237	32.5
2739.744	40.5
2743.249	35.5
2746.75	37.5
2750.248	39.5
2753.743	37.5
2757.236	40.5
2760.725	43.5
2764.211	40.5
2767.695	44.5
2771.175	41.5
2774.652	40.5
2778.127	46.5
2781.598	42.5
2785.067	40.5
2788.532	44.5
2791.995	44.5
2795.455	46.5
2798.911	50.5
2802.365	54.5
2805.816	56.5
2809.264	48.5
2812.709	56.5
2816.151	57.5
2819.59	55.5
2823.026	52.5
2826.46	62.5
2829.89	56.5
2833.318	65.5
2836.742	62.5
2840.164	68.5
2843.583	73.5
2846.999	87.5
2850.412	78.5
2853.822	90.5
2857.229	86.5
2860.634	88.5
2864.035	89.5
2867.434	94.5
2870.83	100.5
2874.223	102.5
2877.613	106.5
2881	107.5
2884.385	110.5
2887.766	120.5
2891.145	114.5
2894.521	121.5
2897.894	122.5
2901.264	126.5
2904.631	127.5
2907.996	132.5
2911.358	134.5
2914.717	143.5
2918.073	145.5
2921.426	149.5
2924.777	157.5
2928.124	157.5
2931.469	163.5
2934.811	172.5
2938.15	177.5
2941.487	189.5
2944.821	187.5
2948.152	199.5
2951.48	206.5
2954.805	208.5
2958.128	220.5
2961.447	222.5
2964.765	232.5
2968.079	236.5
2971.39	240.5
2974.699	253.5
2978.005	262.5
2981.308	280.5
2984.609	293.5
2987.907	308.5
2991.202	321.5
2994.494	327.5
2997.784	342.5
3001.07	356.5
3004.355	364.5
3007.636	376.5
3010.915	381.5
3014.191	398.5
3017.464	403.5
3020.734	411.5
3024.002	433.5
3027.267	439.5
3030.53	454.5
3033.789	469.5
3037.046	485.5
3040.301	485.5
3043.552	506.5
3046.801	510.5
3050.048	535.5
3053.291	548.5
3056.532	569.5
3059.771	598.5
3063.006	622.5
3066.239	634.5
3069.469	664.5
3072.697	687.5
3075.922	702.5
3079.144	715.5
3082.364	739.5
3085.581	766.5
3088.795	795.5
3092.007	820.5
3095.216	826.5
3098.423	851.5
3101.627	871.5
3104.828	896.5
3108.026	910.5
3111.222	949.5
3114.416	959.5
3117.607	992.5
3120.795	1004.5
3123.98	1044.5
3127.163	1057.5
3130.344	1091.5
3133.521	1116.5
3136.696	1145.5
3139.869	1162.5
3143.039	1171.5
3146.206	1198.5
3149.371	1222.5
3152.533	1232.5
3155.693	1250.5
3158.85	1241.5
3162.005	1241.5
3165.157	1269.5
3168.306	1279.5
3171.453	1284.5
3174.597	1296.5
3177.739	1290.5
3180.878	1300.5
3184.014	1301.5
3187.149	1306.5
3190.28	1300.5
3193.409	1319.5
3196.536	1319.5
3199.659	1322.5
3202.781	1317.5
3205.9	1330.5
3209.016	1323.5
3212.13	1342.5
3215.241	1333.5
3218.35	1324.5
3221.456	1308.5
3224.56	1301.5
3227.661	1282.5
3230.76	1270.5
3233.856	1256.5
3236.95	1249.5
3240.041	1251.5
3243.13	1239.5
3246.216	1234.5
3249.3	1230.5
3252.382	1223.5
3255.46	1213.5
3258.537	1207.5
3261.611	1200.5
3264.682	1200.5
3267.751	1197.5
3270.818	1189.5
3273.882	1197.5
3276.943	1186.5
3280.002	1190.5
3283.059	1158.5
3286.113	1138.5
3289.165	1126.5
3292.214	1116.5
3295.261	1098.5
3298.306	1082.5
3301.348	1057.5
3304.387	1041.5
3307.425	1033.5
3310.459	1027.5
3313.492	1001.5
3316.521	999.5
3319.549	999.5
3322.574	964.5
3325.597	961.5
3328.617	958.5
3331.635	954.5
3334.65	948.5
3337.663	930.5
3340.674	939.5
3343.682	941.5
3346.688	925.5
3349.691	930.5
3352.692	924.5
3355.691	909.5
3358.687	898.5
3361.681	905.5
3364.673	897.5
3367.662	880.5
3370.649	862.5
3373.633	849.5
3376.615	855.5
3379.595	843.5
3382.572	821.5
3385.547	819.5
3388.52	809.5
3391.49	794.5
3394.458	774.5
3397.424	766.5
3400.387	761.5
3403.348	747.5
3406.307	738.5
3409.263	740.5
3412.217	718.5
3415.168	726.5
3418.118	719.5
3421.065	701.5
3424.009	709.5
3426.951	688.5
3429.891	681.5
3432.829	670.5
3435.764	656.5
3438.697	643.5
3441.628	618.5
3444.557	608.5
3447.483	594.5
3450.407	573.5
3453.328	566.5
3456.247	543.5
3459.164	544.5
3462.079	519.5
3464.991	508.5
3467.902	487.5
3470.809	473.5
3473.715	450.5
3476.618	452.5
3479.519	430.5
3482.418	418.5
3485.315	405.5
3488.209	390.5
3491.101	399.5
3493.99	378.5
3496.878	369.5
3499.763	361.5
3502.646	342.5
3505.527	329.5
3508.405	312.5
3511.281	300.5
3514.155	300.5
3517.027	285.5
3519.897	272.5
3522.764	260.5
3525.629	241.5
3528.492	240.5
3531.352	219.5
3534.211	204.5
3537.067	190.5
3539.921	191.5
3542.773	181.5
3545.622	156.5
3548.469	155.5
3551.315	146.5
3554.157	145.5
3556.998	133.5
3559.837	124.5
3562.673	113.5
3565.507	105.5
3568.339	101.5
3571.169	91.5
3573.996	91.5
3576.822	79.5
3579.645	71.5
3582.466	76.5
3585.285	65.5
3588.101	58.5
3590.916	53.5
3593.728	40.5
3596.538	42.5
3599.346	31.5
3602.152	28.5
3604.956	23.5
3607.757	16.5
3610.556	14.5
3613.354	17.5
3616.149	10.5
3618.942	0.5
3621.732	0.5
3624.521	-10.5
3627.307	-10.5
3630.092	-17.5
3632.874	-23.5
3635.654	-20.5
3638.432	-20.5
3641.208	-27.5
3643.982	-28.5
3646.753	-26.5
3649.523	-31.5
3652.29	-37.5
3655.055	-38.5
3657.818	-41.5
3660.579	-48.5
3663.338	-49.5
3666.095	-55.5
3668.849	-59.5
3671.602	-61.5
3674.352	-61.5
3677.101	-63.5
3679.847	-60.5
3682.591	-66.5
3685.333	-67.5
3688.073	-71.5
3690.811	-71.5
3693.547	-76.5
3696.281	-75.5
3699.013	-79.5
3701.742	-76.5
3704.47	-78.5
3707.195	-80.5
3709.919	-81.5
3712.64	-87.5
3715.359	-86.5
3718.076	-85.5
3720.792	-86.5
3723.505	-88.5
3726.216	-88.5
3728.925	-86.5
3731.632	-90.5
3734.336	-90.5
3737.039	-89.5
3739.74	-93.5
3742.439	-98.5
3745.136	-97.5
3747.83	-97.5
3750.523	-99.5
3753.213	-98.5
3755.902	-101.5
3758.589	-98.5
3761.273	-100.5
3763.956	-101.5
3766.636	-100.5
3769.315	-96.5
3771.991	-99.5
3774.665	-103.5
3777.338	-103.5
3780.008	-102.5
3782.677	-102.5
3785.343	-109.5
3788.007	-103.5
3790.67	-107.5
3793.33	-106.5
3795.989	-106.5
3798.645	-105.5
3801.299	-105.5
3803.952	-107.5
3806.602	-107.5
3809.251	-107.5
3811.897	-107.5
3814.542	-107.5
3817.184	-107.5
3819.825	-101.5
3822.463	-106.5
3825.1	-107.5
3827.735	-111.5
3830.367	-107.5
3832.998	-107.5
3835.627	-109.5
3838.253	-110.5
3840.878	-109.5
3843.501	-109.5
3846.122	-108.5
3848.741	-109.5
3851.358	-107.5
3853.973	-106.5
3856.586	-110.5
3859.197	-111.5
3861.806	-110.5
3864.414	-112.5
3867.019	-107.5
3869.622	-111.5
3872.224	-113.5
3874.823	-108.5
3877.421	-99.5
3880.016	-104.5
3882.61	-101.5
3885.202	-101.5
3887.792	-101.5
3890.38	-106.5
3892.966	-108.5
3895.55	-109.5
3898.132	-105.5
3900.713	-111.5
3903.291	-108.5
3905.868	-110.5
3908.442	-108.5
3911.015	-115.5
3913.586	-110.5
3916.155	-112.5
3918.722	-112.5
3921.287	-114.5
3923.85	-113.5
3926.411	-116.5
3928.971	-112.5
3931.528	-108.5
3934.084	-111.5
3936.638	-111.5
3939.19	-113.5
3941.74	-114.5
3944.288	-118.5
3946.834	-115.5
3949.378	-113.5
3951.921	-113.5
3954.462	-112.5
3957	-110.5
3959.537	-106.5
3962.072	-112.5
3964.606	-108.5
3967.137	-108.5
3969.667	-111.5
3972.194	-113.5
3974.72	-111.5
3977.244	-113.5
3979.766	-112.5
3982.286	-111.5
3984.805	-111.5
3987.321	-108.5
3989.836	-112.5
3992.349	-109.5
3994.86	-112.5
3997.369	-112.5
3999.877	-111.5
4002.382	-109.5
4004.886	-108.5
4007.388	-108.5
4009.888	-112.5
4012.386	-111.5
4014.883	-109.5
4017.377	-112.5
4019.87	-115.5
4022.361	-112.5
4024.85	-114.5
4027.338	-111.5
4029.823	-112.5
4032.307	-109.5
4034.789	-112.5
4037.269	-109.5
4039.747	-107.5
4042.224	-110.5
4044.699	-116.5
4047.172	-111.5
4049.643	-114.5
4052.112	-118.5
4054.58	-113.5
4057.046	-112.5
4059.51	-112.5
4061.972	-109.5
4064.432	-111.5
4066.891	-110.5
4069.348	-107.5
4071.803	-112.5
4074.256	-111.5
4076.708	-113.5
4079.158	-112.5
4081.606	-113.5
4084.052	-113.5
4086.497	-116.5
4088.939	-112.5
4091.38	-111.5
4093.819	-114.5
4096.257	-114.5
4098.693	-116.5
4101.127	-114.5
4103.559	-114.5
4105.989	-72.5
4108.418	-69.5
4110.845	-66.5
4113.27	-64.5
4115.694	-54.5
4118.115	-45.5
4120.535	-113.5
4122.954	-106.5
4125.37	-111.5
4127.785	-112.5
4130.198	-115.5
4132.609	-113.5
4135.019	-116.5
4137.427	-117.5
4139.833	-117.5
4142.237	-116.5
