Data from Bsub_water_DIL102_B_1_RamanShift_1.txt Node
Date: Wed Feb 22 13:29:36 IST 2017
User: aro
Spectrometer: QEPB0276
Trigger mode: 0
Integration Time (sec): 5.000000E0
Scans to average: 1
Electric dark correction enabled: true
Nonlinearity correction enabled: false
Boxcar width: 0
XAxis mode: Raman Shifts
Number of Pixels in Spectrum: 1044
>>>>>Begin Spectral Data<<<<<
160.701	-30.5
166.742	3.5
172.777	98.5
178.805	374.5
184.826	1063.5
190.841	2216.5
196.849	3526.5
202.85	4416.5
208.845	4650.5
214.833	4496.5
220.815	4303.5
226.789	4171.5
232.758	4066.5
238.719	3935.5
244.674	3780.5
250.623	3598.5
256.565	3449.5
262.5	3281.5
268.429	3100.5
274.351	2971.5
280.267	2884.5
286.176	2746.5
292.079	2650.5
297.975	2555.5
303.865	2471.5
309.748	2398.5
315.625	2359.5
321.495	2288.5
327.359	2270.5
333.217	2245.5
339.068	2210.5
344.912	2198.5
350.751	2197.5
356.583	2174.5
362.408	2192.5
368.227	2189.5
374.04	2200.5
379.847	2206.5
385.647	2223.5
391.44	2221.5
397.228	2250.5
403.009	2243.5
408.784	2264.5
414.553	2288.5
420.315	2272.5
426.071	2281.5
431.821	2288.5
437.565	2292.5
443.302	2282.5
449.033	2269.5
454.758	2260.5
460.477	2255.5
466.189	2236.5
471.896	2215.5
477.596	2210.5
483.29	2231.5
488.978	2198.5
494.66	2186.5
500.335	2156.5
506.005	2116.5
511.668	2081.5
517.325	2031.5
522.977	2028.5
528.622	1988.5
534.261	1966.5
539.894	1926.5
545.521	1931.5
551.141	1910.5
556.756	1894.5
562.365	1901.5
567.968	1888.5
573.565	1868.5
579.155	1841.5
584.74	1858.5
590.319	1820.5
595.892	1800.5
601.459	1809.5
607.02	1786.5
612.575	1788.5
618.124	1739.5
623.667	1732.5
629.204	1723.5
634.735	1683.5
640.261	1699.5
645.781	1683.5
651.294	1672.5
656.802	1662.5
662.304	1647.5
667.8	1647.5
673.29	1648.5
678.775	1635.5
684.254	1618.5
689.726	1627.5
695.193	1605.5
700.655	1619.5
706.11	1578.5
711.56	1561.5
717.004	1539.5
722.442	1541.5
727.874	1529.5
733.301	1520.5
738.722	1535.5
744.137	1517.5
749.547	1521.5
754.951	1502.5
760.349	1499.5
765.741	1501.5
771.128	1509.5
776.509	1508.5
781.885	1501.5
787.254	1500.5
792.618	1493.5
797.977	1470.5
803.33	1455.5
808.677	1444.5
814.019	1433.5
819.355	1423.5
824.686	1403.5
830.011	1406.5
835.33	1369.5
840.644	1376.5
845.952	1363.5
851.255	1372.5
856.552	1356.5
861.844	1347.5
867.13	1339.5
872.41	1326.5
877.686	1316.5
882.955	1293.5
888.219	1270.5
893.478	1256.5
898.731	1220.5
903.979	1200.5
909.221	1207.5
914.458	1181.5
919.69	1166.5
924.916	1167.5
930.136	1162.5
935.351	1142.5
940.561	1168.5
945.766	1157.5
950.965	1161.5
956.158	1140.5
961.347	1127.5
966.529	1094.5
971.707	1095.5
976.879	1073.5
982.046	1059.5
987.208	1061.5
992.364	1059.5
997.515	1066.5
1002.66	1049.5
1007.801	1071.5
1012.936	1080.5
1018.066	1091.5
1023.19	1099.5
1028.309	1102.5
1033.423	1097.5
1038.532	1085.5
1043.636	1073.5
1048.734	1067.5
1053.827	1061.5
1058.915	1046.5
1063.998	1040.5
1069.075	1048.5
1074.147	1036.5
1079.214	1036.5
1084.276	1040.5
1089.333	1047.5
1094.385	1052.5
1099.431	1061.5
1104.472	1071.5
1109.509	1060.5
1114.54	1040.5
1119.565	1016.5
1124.586	1012.5
1129.602	987.5
1134.613	1000.5
1139.618	984.5
1144.619	997.5
1149.614	1007.5
1154.604	1000.5
1159.589	1017.5
1164.57	1010.5
1169.545	1018.5
1174.515	1020.5
1179.48	1008.5
1184.44	995.5
1189.395	1002.5
1194.345	998.5
1199.29	985.5
1204.23	976.5
1209.165	991.5
1214.095	994.5
1219.021	1001.5
1223.941	1017.5
1228.856	1009.5
1233.766	1028.5
1238.672	1031.5
1243.572	1012.5
1248.467	1017.5
1253.358	1001.5
1258.244	985.5
1263.124	969.5
1268	958.5
1272.871	950.5
1277.737	935.5
1282.599	927.5
1287.455	948.5
1292.306	924.5
1297.153	943.5
1301.995	947.5
1306.832	955.5
1311.664	954.5
1316.491	970.5
1321.314	937.5
1326.132	927.5
1330.945	918.5
1335.753	903.5
1340.556	880.5
1345.354	882.5
1350.148	865.5
1354.937	856.5
1359.722	866.5
1364.501	877.5
1369.276	880.5
1374.046	892.5
1378.811	905.5
1383.572	895.5
1388.327	909.5
1393.079	877.5
1397.825	875.5
1402.567	859.5
1407.304	846.5
1412.036	847.5
1416.764	841.5
1421.487	827.5
1426.205	837.5
1430.919	830.5
1435.628	842.5
1440.333	845.5
1445.032	859.5
1449.727	854.5
1454.418	848.5
1459.104	852.5
1463.785	844.5
1468.462	839.5
1473.134	823.5
1477.802	822.5
1482.465	817.5
1487.123	817.5
1491.777	829.5
1496.426	827.5
1501.071	845.5
1505.711	861.5
1510.347	874.5
1514.978	894.5
1519.604	899.5
1524.226	900.5
1528.844	898.5
1533.457	903.5
1538.065	921.5
1542.669	915.5
1547.269	924.5
1551.864	910.5
1556.454	917.5
1561.041	925.5
1565.622	937.5
1570.199	946.5
1574.772	964.5
1579.34	977.5
1583.904	991.5
1588.464	1022.5
1593.019	1011.5
1597.569	1047.5
1602.115	1053.5
1606.657	1079.5
1611.195	1083.5
1615.728	1098.5
1620.256	1105.5
1624.78	1125.5
1629.3	1133.5
1633.816	1152.5
1638.327	1171.5
1642.834	1181.5
1647.336	1210.5
1651.834	1190.5
1656.328	1212.5
1660.817	1192.5
1665.302	1164.5
1669.783	1141.5
1674.259	1100.5
1678.732	1059.5
1683.199	1022.5
1687.663	985.5
1692.122	919.5
1696.577	904.5
1701.028	877.5
1705.474	872.5
1709.917	847.5
1714.355	818.5
1718.788	800.5
1723.218	764.5
1727.643	741.5
1732.064	728.5
1736.481	705.5
1740.893	670.5
1745.301	645.5
1749.705	637.5
1754.105	604.5
1758.501	593.5
1762.893	576.5
1767.28	563.5
1771.663	545.5
1776.042	546.5
1780.417	551.5
1784.787	553.5
1789.154	549.5
1793.516	549.5
1797.874	556.5
1802.228	554.5
1806.578	575.5
1810.924	559.5
1815.266	546.5
1819.603	538.5
1823.937	533.5
1828.266	519.5
1832.591	505.5
1836.913	502.5
1841.23	502.5
1845.543	487.5
1849.852	488.5
1854.156	495.5
1858.457	486.5
1862.754	484.5
1867.047	493.5
1871.335	497.5
1875.62	494.5
1879.9	491.5
1884.177	488.5
1888.449	502.5
1892.718	489.5
1896.982	480.5
1901.243	488.5
1905.499	489.5
1909.752	484.5
1914	488.5
1918.245	481.5
1922.485	500.5
1926.722	498.5
1930.954	495.5
1935.183	495.5
1939.408	512.5
1943.628	497.5
1947.845	505.5
1952.058	515.5
1956.267	505.5
1960.472	501.5
1964.673	506.5
1968.87	498.5
1973.063	496.5
1977.252	491.5
1981.438	489.5
1985.619	470.5
1989.797	491.5
1993.971	479.5
1998.14	491.5
2002.306	479.5
2006.469	474.5
2010.627	477.5
2014.781	480.5
2018.932	488.5
2023.078	482.5
2027.221	479.5
2031.36	476.5
2035.495	471.5
2039.627	471.5
2043.754	473.5
2047.878	471.5
2051.998	468.5
2056.114	471.5
2060.226	464.5
2064.334	477.5
2068.439	483.5
2072.54	476.5
2076.637	473.5
2080.73	482.5
2084.82	486.5
2088.906	488.5
2092.988	490.5
2097.066	486.5
2101.14	492.5
2105.211	498.5
2109.278	478.5
2113.342	492.5
2117.401	480.5
2121.457	480.5
2125.509	474.5
2129.558	481.5
2133.602	470.5
2137.643	464.5
2141.681	469.5
2145.714	464.5
2149.744	462.5
2153.77	461.5
2157.793	459.5
2161.812	449.5
2165.827	445.5
2169.838	444.5
2173.846	437.5
2177.851	418.5
2181.851	415.5
2185.848	413.5
2189.841	405.5
2193.831	398.5
2197.817	389.5
2201.799	394.5
2205.778	387.5
2209.753	388.5
2213.725	383.5
2217.693	383.5
2221.657	381.5
2225.618	382.5
2229.575	378.5
2233.529	369.5
2237.479	365.5
2241.425	368.5
2245.368	371.5
2249.307	347.5
2253.243	356.5
2257.175	346.5
2261.104	339.5
2265.029	338.5
2268.95	327.5
2272.868	322.5
2276.783	317.5
2280.694	304.5
2284.601	303.5
2288.505	306.5
2292.405	308.5
2296.302	303.5
2300.195	293.5
2304.085	292.5
2307.971	286.5
2311.854	278.5
2315.734	264.5
2319.609	268.5
2323.482	264.5
2327.351	257.5
2331.216	265.5
2335.078	263.5
2338.937	249.5
2342.792	249.5
2346.643	241.5
2350.492	245.5
2354.336	237.5
2358.178	241.5
2362.015	239.5
2365.85	247.5
2369.681	248.5
2373.508	245.5
2377.333	244.5
2381.153	244.5
2384.971	239.5
2388.785	236.5
2392.595	223.5
2396.402	238.5
2400.206	216.5
2404.007	220.5
2407.804	222.5
2411.597	217.5
2415.388	225.5
2419.174	221.5
2422.958	216.5
2426.738	220.5
2430.515	219.5
2434.289	221.5
2438.059	212.5
2441.825	211.5
2445.589	206.5
2449.349	208.5
2453.106	201.5
2456.859	202.5
2460.61	197.5
2464.356	196.5
2468.1	193.5
2471.84	189.5
2475.577	186.5
2479.311	183.5
2483.041	188.5
2486.768	182.5
2490.492	185.5
2494.213	190.5
2497.93	186.5
2501.644	187.5
2505.355	186.5
2509.062	190.5
2512.766	185.5
2516.467	185.5
2520.165	183.5
2523.859	181.5
2527.551	184.5
2531.239	173.5
2534.923	171.5
2538.605	169.5
2542.283	174.5
2545.958	176.5
2549.63	176.5
2553.299	174.5
2556.964	173.5
2560.626	164.5
2564.285	169.5
2567.941	173.5
2571.594	167.5
2575.243	168.5
2578.89	167.5
2582.533	161.5
2586.173	164.5
2589.809	155.5
2593.443	157.5
2597.073	156.5
2600.701	153.5
2604.325	154.5
2607.946	153.5
2611.564	146.5
2615.178	146.5
2618.79	150.5
2622.398	151.5
2626.004	148.5
2629.606	146.5
2633.205	144.5
2636.801	148.5
2640.394	148.5
2643.983	135.5
2647.57	133.5
2651.153	129.5
2654.734	130.5
2658.311	136.5
2661.885	129.5
2665.456	126.5
2669.025	125.5
2672.589	121.5
2676.151	128.5
2679.71	124.5
2683.266	120.5
2686.819	120.5
2690.368	119.5
2693.915	116.5
2697.458	117.5
2700.999	117.5
2704.536	112.5
2708.071	106.5
2711.602	106.5
2715.13	105.5
2718.656	104.5
2722.178	100.5
2725.697	102.5
2729.214	98.5
2732.727	109.5
2736.237	104.5
2739.744	110.5
2743.249	107.5
2746.75	110.5
2750.248	121.5
2753.743	120.5
2757.236	119.5
2760.725	124.5
2764.211	122.5
2767.695	124.5
2771.175	118.5
2774.652	124.5
2778.127	125.5
2781.598	120.5
2785.067	109.5
2788.532	114.5
2791.995	116.5
2795.455	113.5
2798.911	115.5
2802.365	120.5
2805.816	126.5
2809.264	125.5
2812.709	121.5
2816.151	126.5
2819.59	124.5
2823.026	129.5
2826.46	135.5
2829.89	132.5
2833.318	131.5
2836.742	131.5
2840.164	136.5
2843.583	140.5
2846.999	140.5
2850.412	145.5
2853.822	142.5
2857.229	142.5
2860.634	147.5
2864.035	143.5
2867.434	153.5
2870.83	151.5
2874.223	159.5
2877.613	169.5
2881	169.5
2884.385	169.5
2887.766	177.5
2891.145	173.5
2894.521	177.5
2897.894	177.5
2901.264	176.5
2904.631	184.5
2907.996	187.5
2911.358	190.5
2914.717	187.5
2918.073	189.5
2921.426	207.5
2924.777	207.5
2928.124	205.5
2931.469	214.5
2934.811	212.5
2938.15	227.5
2941.487	235.5
2944.821	241.5
2948.152	244.5
2951.48	253.5
2954.805	251.5
2958.128	257.5
2961.447	275.5
2964.765	275.5
2968.079	272.5
2971.39	284.5
2974.699	297.5
2978.005	300.5
2981.308	310.5
2984.609	323.5
2987.907	324.5
2991.202	352.5
2994.494	362.5
2997.784	373.5
3001.07	387.5
3004.355	393.5
3007.636	409.5
3010.915	421.5
3014.191	431.5
3017.464	456.5
3020.734	445.5
3024.002	461.5
3027.267	465.5
3030.53	476.5
3033.789	495.5
3037.046	487.5
3040.301	504.5
3043.552	520.5
3046.801	527.5
3050.048	542.5
3053.291	575.5
3056.532	575.5
3059.771	614.5
3063.006	637.5
3066.239	647.5
3069.469	665.5
3072.697	699.5
3075.922	699.5
3079.144	719.5
3082.364	741.5
3085.581	749.5
3088.795	783.5
3092.007	798.5
3095.216	810.5
3098.423	839.5
3101.627	867.5
3104.828	883.5
3108.026	894.5
3111.222	914.5
3114.416	935.5
3117.607	965.5
3120.795	980.5
3123.98	1005.5
3127.163	1038.5
3130.344	1053.5
3133.521	1079.5
3136.696	1104.5
3139.869	1135.5
3143.039	1140.5
3146.206	1177.5
3149.371	1192.5
3152.533	1190.5
3155.693	1212.5
3158.85	1215.5
3162.005	1221.5
3165.157	1226.5
3168.306	1238.5
3171.453	1244.5
3174.597	1240.5
3177.739	1250.5
3180.878	1257.5
3184.014	1270.5
3187.149	1257.5
3190.28	1282.5
3193.409	1270.5
3196.536	1274.5
3199.659	1269.5
3202.781	1283.5
3205.9	1286.5
3209.016	1281.5
3212.13	1265.5
3215.241	1292.5
3218.35	1271.5
3221.456	1251.5
3224.56	1242.5
3227.661	1240.5
3230.76	1226.5
3233.856	1210.5
3236.95	1206.5
3240.041	1201.5
3243.13	1190.5
3246.216	1187.5
3249.3	1184.5
3252.382	1172.5
3255.46	1167.5
3258.537	1165.5
3261.611	1153.5
3264.682	1149.5
3267.751	1135.5
3270.818	1142.5
3273.882	1129.5
3276.943	1137.5
3280.002	1122.5
3283.059	1117.5
3286.113	1099.5
3289.165	1080.5
3292.214	1070.5
3295.261	1064.5
3298.306	1027.5
3301.348	1013.5
3304.387	1005.5
3307.425	982.5
3310.459	969.5
3313.492	959.5
3316.521	956.5
3319.549	938.5
3322.574	930.5
3325.597	923.5
3328.617	902.5
3331.635	911.5
3334.65	903.5
3337.663	909.5
3340.674	894.5
3343.682	902.5
3346.688	888.5
3349.691	894.5
3352.692	890.5
3355.691	874.5
3358.687	861.5
3361.681	855.5
3364.673	846.5
3367.662	835.5
3370.649	828.5
3373.633	805.5
3376.615	784.5
3379.595	786.5
3382.572	776.5
3385.547	779.5
3388.52	761.5
3391.49	745.5
3394.458	746.5
3397.424	733.5
3400.387	713.5
3403.348	705.5
3406.307	704.5
3409.263	690.5
3412.217	675.5
3415.168	679.5
3418.118	678.5
3421.065	676.5
3424.009	664.5
3426.951	657.5
3429.891	638.5
3432.829	631.5
3435.764	628.5
3438.697	610.5
3441.628	597.5
3444.557	580.5
3447.483	569.5
3450.407	546.5
3453.328	537.5
3456.247	518.5
3459.164	504.5
3462.079	499.5
3464.991	479.5
3467.902	467.5
3470.809	446.5
3473.715	438.5
3476.618	426.5
3479.519	419.5
3482.418	399.5
3485.315	389.5
3488.209	375.5
3491.101	377.5
3493.99	359.5
3496.878	346.5
3499.763	343.5
3502.646	321.5
3505.527	320.5
3508.405	302.5
3511.281	298.5
3514.155	287.5
3517.027	276.5
3519.897	259.5
3522.764	253.5
3525.629	236.5
3528.492	224.5
3531.352	212.5
3534.211	210.5
3537.067	188.5
3539.921	177.5
3542.773	165.5
3545.622	154.5
3548.469	152.5
3551.315	140.5
3554.157	138.5
3556.998	124.5
3559.837	122.5
3562.673	112.5
3565.507	107.5
3568.339	99.5
3571.169	91.5
3573.996	87.5
3576.822	77.5
3579.645	78.5
3582.466	70.5
3585.285	64.5
3588.101	59.5
3590.916	49.5
3593.728	48.5
3596.538	37.5
3599.346	28.5
3602.152	26.5
3604.956	29.5
3607.757	13.5
3610.556	15.5
3613.354	9.5
3616.149	13.5
3618.942	5.5
3621.732	3.5
3624.521	-1.5
3627.307	-9.5
3630.092	-10.5
3632.874	-13.5
3635.654	-17.5
3638.432	-19.5
3641.208	-24.5
3643.982	-21.5
3646.753	-26.5
3649.523	-30.5
3652.29	-34.5
3655.055	-38.5
3657.818	-45.5
3660.579	-42.5
3663.338	-44.5
3666.095	-50.5
3668.849	-51.5
3671.602	-51.5
3674.352	-61.5
3677.101	-58.5
3679.847	-57.5
3682.591	-60.5
3685.333	-64.5
3688.073	-67.5
3690.811	-68.5
3693.547	-71.5
3696.281	-72.5
3699.013	-74.5
3701.742	-74.5
3704.47	-72.5
3707.195	-76.5
3709.919	-78.5
3712.64	-78.5
3715.359	-77.5
3718.076	-80.5
3720.792	-84.5
3723.505	-83.5
3726.216	-81.5
3728.925	-83.5
3731.632	-84.5
3734.336	-88.5
3737.039	-83.5
3739.74	-87.5
3742.439	-92.5
3745.136	-92.5
3747.83	-92.5
3750.523	-91.5
3753.213	-89.5
3755.902	-96.5
3758.589	-94.5
3761.273	-94.5
3763.956	-91.5
3766.636	-93.5
3769.315	-88.5
3771.991	-97.5
3774.665	-96.5
3777.338	-95.5
3780.008	-94.5
3782.677	-96.5
3785.343	-101.5
3788.007	-99.5
3790.67	-101.5
3793.33	-103.5
3795.989	-95.5
3798.645	-98.5
3801.299	-101.5
3803.952	-103.5
3806.602	-98.5
3809.251	-100.5
3811.897	-100.5
3814.542	-98.5
3817.184	-98.5
3819.825	-97.5
3822.463	-101.5
3825.1	-98.5
3827.735	-105.5
3830.367	-105.5
3832.998	-104.5
3835.627	-108.5
3838.253	-102.5
3840.878	-109.5
3843.501	-102.5
3846.122	-102.5
3848.741	-100.5
3851.358	-99.5
3853.973	-97.5
3856.586	-101.5
3859.197	-101.5
3861.806	-102.5
3864.414	-103.5
3867.019	-104.5
3869.622	-104.5
3872.224	-105.5
3874.823	-101.5
3877.421	-97.5
3880.016	-100.5
3882.61	-95.5
3885.202	-94.5
3887.792	-93.5
3890.38	-98.5
3892.966	-104.5
3895.55	-101.5
3898.132	-101.5
3900.713	-103.5
3903.291	-101.5
3905.868	-100.5
3908.442	-101.5
3911.015	-106.5
3913.586	-106.5
3916.155	-108.5
3918.722	-108.5
3921.287	-105.5
3923.85	-110.5
3926.411	-108.5
3928.971	-109.5
3931.528	-103.5
3934.084	-108.5
3936.638	-107.5
3939.19	-104.5
3941.74	-107.5
3944.288	-106.5
3946.834	-105.5
3949.378	-108.5
3951.921	-102.5
3954.462	-105.5
3957	-104.5
3959.537	-102.5
3962.072	-107.5
3964.606	-108.5
3967.137	-104.5
3969.667	-104.5
3972.194	-110.5
3974.72	-108.5
3977.244	-105.5
3979.766	-108.5
3982.286	-106.5
3984.805	-105.5
3987.321	-102.5
3989.836	-106.5
3992.349	-103.5
3994.86	-107.5
3997.369	-105.5
3999.877	-107.5
4002.382	-102.5
4004.886	-105.5
4007.388	-103.5
4009.888	-104.5
4012.386	-104.5
4014.883	-103.5
4017.377	-104.5
4019.87	-113.5
4022.361	-106.5
4024.85	-108.5
4027.338	-105.5
4029.823	-111.5
4032.307	-106.5
4034.789	-107.5
4037.269	-101.5
4039.747	-102.5
4042.224	-102.5
4044.699	-106.5
4047.172	-104.5
4049.643	-108.5
4052.112	-109.5
4054.58	-106.5
4057.046	-106.5
4059.51	-108.5
4061.972	-104.5
4064.432	-107.5
4066.891	-105.5
4069.348	-106.5
4071.803	-108.5
4074.256	-108.5
4076.708	-105.5
4079.158	-107.5
4081.606	-106.5
4084.052	-108.5
4086.497	-104.5
4088.939	-106.5
4091.38	-100.5
4093.819	-107.5
4096.257	-107.5
4098.693	-108.5
4101.127	-108.5
4103.559	-104.5
4105.989	-62.5
4108.418	-66.5
4110.845	-62.5
4113.27	-56.5
4115.694	-51.5
4118.115	-40.5
4120.535	-108.5
4122.954	-103.5
4125.37	-109.5
4127.785	-110.5
4130.198	-111.5
4132.609	-108.5
4135.019	-111.5
4137.427	-114.5
4139.833	-109.5
4142.237	-110.5
