Data from Bsub_water_DIL106_A_3_RamanShift_1.txt Node
Date: Wed Feb 22 12:52:06 IST 2017
User: aro
Spectrometer: QEPB0276
Trigger mode: 0
Integration Time (sec): 5.000000E0
Scans to average: 1
Electric dark correction enabled: true
Nonlinearity correction enabled: false
Boxcar width: 0
XAxis mode: Raman Shifts
Number of Pixels in Spectrum: 1044
>>>>>Begin Spectral Data<<<<<
160.701	-30.62
166.742	5.38
172.777	101.38
178.805	398.38
184.826	1138.38
190.841	2333.38
196.849	3674.38
202.85	4602.38
208.845	4819.38
214.833	4697.38
220.815	4498.38
226.789	4348.38
232.758	4255.38
238.719	4122.38
244.674	3949.38
250.623	3781.38
256.565	3608.38
262.5	3418.38
268.429	3255.38
274.351	3158.38
280.267	3017.38
286.176	2885.38
292.079	2796.38
297.975	2704.38
303.865	2607.38
309.748	2563.38
315.625	2482.38
321.495	2445.38
327.359	2406.38
333.217	2368.38
339.068	2348.38
344.912	2335.38
350.751	2341.38
356.583	2325.38
362.408	2331.38
368.227	2319.38
374.04	2321.38
379.847	2322.38
385.647	2351.38
391.44	2362.38
397.228	2397.38
403.009	2402.38
408.784	2428.38
414.553	2404.38
420.315	2404.38
426.071	2439.38
431.821	2422.38
437.565	2415.38
443.302	2438.38
449.033	2429.38
454.758	2379.38
460.477	2385.38
466.189	2380.38
471.896	2366.38
477.596	2352.38
483.29	2335.38
488.978	2317.38
494.66	2305.38
500.335	2270.38
506.005	2251.38
511.668	2201.38
517.325	2169.38
522.977	2116.38
528.622	2117.38
534.261	2096.38
539.894	2065.38
545.521	2047.38
551.141	2015.38
556.756	2017.38
562.365	2010.38
567.968	2006.38
573.565	1971.38
579.155	1965.38
584.74	1945.38
590.319	1947.38
595.892	1923.38
601.459	1910.38
607.02	1888.38
612.575	1883.38
618.124	1865.38
623.667	1847.38
629.204	1829.38
634.735	1811.38
640.261	1803.38
645.781	1800.38
651.294	1772.38
656.802	1785.38
662.304	1774.38
667.8	1743.38
673.29	1730.38
678.775	1741.38
684.254	1720.38
689.726	1745.38
695.193	1715.38
700.655	1690.38
706.11	1695.38
711.56	1689.38
717.004	1675.38
722.442	1671.38
727.874	1654.38
733.301	1632.38
738.722	1626.38
744.137	1613.38
749.547	1601.38
754.951	1600.38
760.349	1609.38
765.741	1614.38
771.128	1609.38
776.509	1619.38
781.885	1606.38
787.254	1585.38
792.618	1610.38
797.977	1582.38
803.33	1561.38
808.677	1539.38
814.019	1533.38
819.355	1527.38
824.686	1503.38
830.011	1487.38
835.33	1484.38
840.644	1483.38
845.952	1464.38
851.255	1454.38
856.552	1459.38
861.844	1446.38
867.13	1425.38
872.41	1423.38
877.686	1394.38
882.955	1383.38
888.219	1364.38
893.478	1344.38
898.731	1315.38
903.979	1300.38
909.221	1291.38
914.458	1274.38
919.69	1264.38
924.916	1255.38
930.136	1269.38
935.351	1266.38
940.561	1261.38
945.766	1255.38
950.965	1248.38
956.158	1229.38
961.347	1215.38
966.529	1192.38
971.707	1186.38
976.879	1180.38
982.046	1155.38
987.208	1136.38
992.364	1149.38
997.515	1172.38
1002.66	1158.38
1007.801	1160.38
1012.936	1175.38
1018.066	1181.38
1023.19	1184.38
1028.309	1187.38
1033.423	1190.38
1038.532	1196.38
1043.636	1172.38
1048.734	1162.38
1053.827	1151.38
1058.915	1126.38
1063.998	1129.38
1069.075	1128.38
1074.147	1127.38
1079.214	1150.38
1084.276	1154.38
1089.333	1156.38
1094.385	1161.38
1099.431	1154.38
1104.472	1156.38
1109.509	1165.38
1114.54	1142.38
1119.565	1133.38
1124.586	1116.38
1129.602	1102.38
1134.613	1090.38
1139.618	1097.38
1144.619	1092.38
1149.614	1090.38
1154.604	1104.38
1159.589	1097.38
1164.57	1103.38
1169.545	1117.38
1174.515	1126.38
1179.48	1117.38
1184.44	1104.38
1189.395	1099.38
1194.345	1079.38
1199.29	1093.38
1204.23	1093.38
1209.165	1078.38
1214.095	1099.38
1219.021	1106.38
1223.941	1127.38
1228.856	1120.38
1233.766	1125.38
1238.672	1138.38
1243.572	1125.38
1248.467	1120.38
1253.358	1107.38
1258.244	1082.38
1263.124	1076.38
1268	1057.38
1272.871	1057.38
1277.737	1040.38
1282.599	1037.38
1287.455	1033.38
1292.306	1035.38
1297.153	1044.38
1301.995	1049.38
1306.832	1064.38
1311.664	1071.38
1316.491	1083.38
1321.314	1069.38
1326.132	1046.38
1330.945	1045.38
1335.753	1011.38
1340.556	981.38
1345.354	974.38
1350.148	953.38
1354.937	958.38
1359.722	944.38
1364.501	964.38
1369.276	972.38
1374.046	1005.38
1378.811	1001.38
1383.572	1024.38
1388.327	1009.38
1393.079	999.38
1397.825	979.38
1402.567	966.38
1407.304	949.38
1412.036	937.38
1416.764	931.38
1421.487	922.38
1426.205	921.38
1430.919	927.38
1435.628	924.38
1440.333	954.38
1445.032	943.38
1449.727	949.38
1454.418	949.38
1459.104	949.38
1463.785	946.38
1468.462	937.38
1473.134	931.38
1477.802	914.38
1482.465	913.38
1487.123	901.38
1491.777	928.38
1496.426	918.38
1501.071	942.38
1505.711	958.38
1510.347	971.38
1514.978	974.38
1519.604	997.38
1524.226	1016.38
1528.844	1017.38
1533.457	1023.38
1538.065	1012.38
1542.669	1021.38
1547.269	1012.38
1551.864	1020.38
1556.454	1031.38
1561.041	1040.38
1565.622	1043.38
1570.199	1059.38
1574.772	1070.38
1579.34	1090.38
1583.904	1111.38
1588.464	1129.38
1593.019	1138.38
1597.569	1160.38
1602.115	1159.38
1606.657	1172.38
1611.195	1198.38
1615.728	1207.38
1620.256	1217.38
1624.78	1234.38
1629.3	1260.38
1633.816	1265.38
1638.327	1290.38
1642.834	1309.38
1647.336	1315.38
1651.834	1323.38
1656.328	1311.38
1660.817	1293.38
1665.302	1279.38
1669.783	1255.38
1674.259	1219.38
1678.732	1180.38
1683.199	1123.38
1687.663	1080.38
1692.122	1032.38
1696.577	989.38
1701.028	978.38
1705.474	963.38
1709.917	960.38
1714.355	927.38
1718.788	905.38
1723.218	867.38
1727.643	849.38
1732.064	823.38
1736.481	788.38
1740.893	768.38
1745.301	734.38
1749.705	720.38
1754.105	690.38
1758.501	669.38
1762.893	661.38
1767.28	631.38
1771.663	632.38
1776.042	633.38
1780.417	620.38
1784.787	627.38
1789.154	626.38
1793.516	630.38
1797.874	641.38
1802.228	659.38
1806.578	645.38
1810.924	641.38
1815.266	635.38
1819.603	631.38
1823.937	604.38
1828.266	606.38
1832.591	592.38
1836.913	583.38
1841.23	569.38
1845.543	574.38
1849.852	563.38
1854.156	565.38
1858.457	559.38
1862.754	565.38
1867.047	567.38
1871.335	575.38
1875.62	578.38
1879.9	580.38
1884.177	567.38
1888.449	558.38
1892.718	572.38
1896.982	570.38
1901.243	559.38
1905.499	550.38
1909.752	547.38
1914	551.38
1918.245	560.38
1922.485	568.38
1926.722	572.38
1930.954	574.38
1935.183	571.38
1939.408	581.38
1943.628	599.38
1947.845	580.38
1952.058	589.38
1956.267	581.38
1960.472	584.38
1964.673	590.38
1968.87	578.38
1973.063	569.38
1977.252	563.38
1981.438	566.38
1985.619	554.38
1989.797	553.38
1993.971	559.38
1998.14	554.38
2002.306	560.38
2006.469	570.38
2010.627	562.38
2014.781	570.38
2018.932	558.38
2023.078	553.38
2027.221	549.38
2031.36	542.38
2035.495	542.38
2039.627	538.38
2043.754	541.38
2047.878	537.38
2051.998	529.38
2056.114	537.38
2060.226	550.38
2064.334	533.38
2068.439	547.38
2072.54	560.38
2076.637	564.38
2080.73	550.38
2084.82	553.38
2088.906	560.38
2092.988	564.38
2097.066	561.38
2101.14	554.38
2105.211	557.38
2109.278	564.38
2113.342	554.38
2117.401	557.38
2121.457	553.38
2125.509	538.38
2129.558	556.38
2133.602	531.38
2137.643	528.38
2141.681	542.38
2145.714	537.38
2149.744	533.38
2153.77	525.38
2157.793	518.38
2161.812	511.38
2165.827	498.38
2169.838	497.38
2173.846	490.38
2177.851	477.38
2181.851	478.38
2185.848	467.38
2189.841	449.38
2193.831	453.38
2197.817	446.38
2201.799	458.38
2205.778	453.38
2209.753	443.38
2213.725	437.38
2217.693	438.38
2221.657	433.38
2225.618	439.38
2229.575	433.38
2233.529	422.38
2237.479	421.38
2241.425	421.38
2245.368	415.38
2249.307	417.38
2253.243	402.38
2257.175	402.38
2261.104	390.38
2265.029	386.38
2268.95	381.38
2272.868	370.38
2276.783	361.38
2280.694	361.38
2284.601	357.38
2288.505	354.38
2292.405	353.38
2296.302	348.38
2300.195	342.38
2304.085	340.38
2307.971	335.38
2311.854	322.38
2315.734	316.38
2319.609	311.38
2323.482	307.38
2327.351	301.38
2331.216	305.38
2335.078	296.38
2338.937	291.38
2342.792	298.38
2346.643	291.38
2350.492	297.38
2354.336	291.38
2358.178	283.38
2362.015	279.38
2365.85	286.38
2369.681	292.38
2373.508	281.38
2377.333	280.38
2381.153	274.38
2384.971	284.38
2388.785	274.38
2392.595	274.38
2396.402	271.38
2400.206	264.38
2404.007	274.38
2407.804	264.38
2411.597	260.38
2415.388	252.38
2419.174	270.38
2422.958	262.38
2426.738	259.38
2430.515	250.38
2434.289	251.38
2438.059	253.38
2441.825	252.38
2445.589	242.38
2449.349	248.38
2453.106	245.38
2456.859	243.38
2460.61	236.38
2464.356	226.38
2468.1	239.38
2471.84	235.38
2475.577	233.38
2479.311	226.38
2483.041	223.38
2486.768	225.38
2490.492	228.38
2494.213	230.38
2497.93	221.38
2501.644	231.38
2505.355	230.38
2509.062	227.38
2512.766	230.38
2516.467	217.38
2520.165	226.38
2523.859	217.38
2527.551	209.38
2531.239	216.38
2534.923	210.38
2538.605	211.38
2542.283	211.38
2545.958	219.38
2549.63	215.38
2553.299	211.38
2556.964	208.38
2560.626	205.38
2564.285	201.38
2567.941	202.38
2571.594	207.38
2575.243	200.38
2578.89	195.38
2582.533	199.38
2586.173	194.38
2589.809	192.38
2593.443	188.38
2597.073	186.38
2600.701	190.38
2604.325	195.38
2607.946	183.38
2611.564	186.38
2615.178	183.38
2618.79	189.38
2622.398	179.38
2626.004	195.38
2629.606	179.38
2633.205	174.38
2636.801	177.38
2640.394	178.38
2643.983	176.38
2647.57	169.38
2651.153	162.38
2654.734	170.38
2658.311	167.38
2661.885	162.38
2665.456	153.38
2669.025	161.38
2672.589	156.38
2676.151	159.38
2679.71	150.38
2683.266	147.38
2686.819	153.38
2690.368	144.38
2693.915	143.38
2697.458	140.38
2700.999	139.38
2704.536	142.38
2708.071	143.38
2711.602	133.38
2715.13	131.38
2718.656	131.38
2722.178	135.38
2725.697	130.38
2729.214	129.38
2732.727	134.38
2736.237	131.38
2739.744	137.38
2743.249	140.38
2746.75	140.38
2750.248	137.38
2753.743	142.38
2757.236	138.38
2760.725	148.38
2764.211	145.38
2767.695	149.38
2771.175	145.38
2774.652	153.38
2778.127	143.38
2781.598	148.38
2785.067	134.38
2788.532	137.38
2791.995	138.38
2795.455	141.38
2798.911	147.38
2802.365	146.38
2805.816	152.38
2809.264	143.38
2812.709	158.38
2816.151	149.38
2819.59	151.38
2823.026	153.38
2826.46	151.38
2829.89	156.38
2833.318	151.38
2836.742	159.38
2840.164	151.38
2843.583	162.38
2846.999	167.38
2850.412	169.38
2853.822	172.38
2857.229	174.38
2860.634	172.38
2864.035	177.38
2867.434	179.38
2870.83	183.38
2874.223	185.38
2877.613	189.38
2881	197.38
2884.385	189.38
2887.766	194.38
2891.145	194.38
2894.521	194.38
2897.894	197.38
2901.264	200.38
2904.631	202.38
2907.996	209.38
2911.358	212.38
2914.717	217.38
2918.073	214.38
2921.426	219.38
2924.777	223.38
2928.124	231.38
2931.469	247.38
2934.811	238.38
2938.15	248.38
2941.487	246.38
2944.821	250.38
2948.152	260.38
2951.48	266.38
2954.805	273.38
2958.128	279.38
2961.447	279.38
2964.765	290.38
2968.079	293.38
2971.39	305.38
2974.699	310.38
2978.005	328.38
2981.308	334.38
2984.609	344.38
2987.907	361.38
2991.202	372.38
2994.494	386.38
2997.784	399.38
3001.07	409.38
3004.355	419.38
3007.636	430.38
3010.915	440.38
3014.191	452.38
3017.464	465.38
3020.734	470.38
3024.002	478.38
3027.267	501.38
3030.53	504.38
3033.789	516.38
3037.046	520.38
3040.301	527.38
3043.552	544.38
3046.801	559.38
3050.048	574.38
3053.291	595.38
3056.532	610.38
3059.771	638.38
3063.006	663.38
3066.239	674.38
3069.469	694.38
3072.697	720.38
3075.922	745.38
3079.144	753.38
3082.364	778.38
3085.581	802.38
3088.795	810.38
3092.007	823.38
3095.216	848.38
3098.423	866.38
3101.627	902.38
3104.828	927.38
3108.026	938.38
3111.222	959.38
3114.416	974.38
3117.607	996.38
3120.795	1028.38
3123.98	1064.38
3127.163	1081.38
3130.344	1107.38
3133.521	1122.38
3136.696	1150.38
3139.869	1189.38
3143.039	1192.38
3146.206	1207.38
3149.371	1230.38
3152.533	1251.38
3155.693	1243.38
3158.85	1258.38
3162.005	1278.38
3165.157	1277.38
3168.306	1284.38
3171.453	1304.38
3174.597	1301.38
3177.739	1301.38
3180.878	1305.38
3184.014	1311.38
3187.149	1287.38
3190.28	1314.38
3193.409	1312.38
3196.536	1313.38
3199.659	1335.38
3202.781	1330.38
3205.9	1333.38
3209.016	1319.38
3212.13	1344.38
3215.241	1335.38
3218.35	1336.38
3221.456	1310.38
3224.56	1300.38
3227.661	1280.38
3230.76	1289.38
3233.856	1275.38
3236.95	1256.38
3240.041	1264.38
3243.13	1246.38
3246.216	1230.38
3249.3	1233.38
3252.382	1237.38
3255.46	1227.38
3258.537	1222.38
3261.611	1212.38
3264.682	1205.38
3267.751	1207.38
3270.818	1208.38
3273.882	1198.38
3276.943	1189.38
3280.002	1173.38
3283.059	1157.38
3286.113	1161.38
3289.165	1131.38
3292.214	1139.38
3295.261	1106.38
3298.306	1088.38
3301.348	1063.38
3304.387	1044.38
3307.425	1036.38
3310.459	1033.38
3313.492	1014.38
3316.521	992.38
3319.549	986.38
3322.574	962.38
3325.597	968.38
3328.617	975.38
3331.635	941.38
3334.65	928.38
3337.663	940.38
3340.674	936.38
3343.682	939.38
3346.688	943.38
3349.691	921.38
3352.692	928.38
3355.691	915.38
3358.687	910.38
3361.681	904.38
3364.673	878.38
3367.662	873.38
3370.649	865.38
3373.633	851.38
3376.615	853.38
3379.595	846.38
3382.572	824.38
3385.547	818.38
3388.52	788.38
3391.49	797.38
3394.458	777.38
3397.424	777.38
3400.387	750.38
3403.348	755.38
3406.307	735.38
3409.263	737.38
3412.217	727.38
3415.168	728.38
3418.118	712.38
3421.065	702.38
3424.009	697.38
3426.951	686.38
3429.891	677.38
3432.829	664.38
3435.764	669.38
3438.697	636.38
3441.628	624.38
3444.557	613.38
3447.483	586.38
3450.407	588.38
3453.328	562.38
3456.247	553.38
3459.164	533.38
3462.079	517.38
3464.991	508.38
3467.902	496.38
3470.809	476.38
3473.715	454.38
3476.618	444.38
3479.519	437.38
3482.418	415.38
3485.315	418.38
3488.209	408.38
3491.101	406.38
3493.99	385.38
3496.878	374.38
3499.763	361.38
3502.646	347.38
3505.527	339.38
3508.405	322.38
3511.281	319.38
3514.155	303.38
3517.027	297.38
3519.897	282.38
3522.764	262.38
3525.629	257.38
3528.492	250.38
3531.352	222.38
3534.211	212.38
3537.067	194.38
3539.921	191.38
3542.773	172.38
3545.622	177.38
3548.469	163.38
3551.315	145.38
3554.157	145.38
3556.998	138.38
3559.837	122.38
3562.673	118.38
3565.507	113.38
3568.339	104.38
3571.169	105.38
3573.996	97.38
3576.822	84.38
3579.645	82.38
3582.466	80.38
3585.285	66.38
3588.101	58.38
3590.916	55.38
3593.728	47.38
3596.538	40.38
3599.346	35.38
3602.152	37.38
3604.956	34.38
3607.757	22.38
3610.556	19.38
3613.354	18.38
3616.149	12.38
3618.942	14.38
3621.732	6.38
3624.521	-2.62
3627.307	1.38
3630.092	-12.62
3632.874	-11.62
3635.654	-19.62
3638.432	-15.62
3641.208	-20.62
3643.982	-26.62
3646.753	-18.62
3649.523	-26.62
3652.29	-32.62
3655.055	-36.62
3657.818	-41.62
3660.579	-40.62
3663.338	-51.62
3666.095	-47.62
3668.849	-58.62
3671.602	-53.62
3674.352	-63.62
3677.101	-61.62
3679.847	-60.62
3682.591	-62.62
3685.333	-66.62
3688.073	-68.62
3690.811	-71.62
3693.547	-70.62
3696.281	-73.62
3699.013	-71.62
3701.742	-72.62
3704.47	-75.62
3707.195	-79.62
3709.919	-80.62
3712.64	-84.62
3715.359	-82.62
3718.076	-88.62
3720.792	-88.62
3723.505	-87.62
3726.216	-85.62
3728.925	-83.62
3731.632	-87.62
3734.336	-91.62
3737.039	-89.62
3739.74	-91.62
3742.439	-95.62
3745.136	-95.62
3747.83	-96.62
3750.523	-100.62
3753.213	-96.62
3755.902	-101.62
3758.589	-96.62
3761.273	-98.62
3763.956	-96.62
3766.636	-95.62
3769.315	-93.62
3771.991	-99.62
3774.665	-102.62
3777.338	-101.62
3780.008	-103.62
3782.677	-98.62
3785.343	-105.62
3788.007	-103.62
3790.67	-102.62
3793.33	-105.62
3795.989	-102.62
3798.645	-102.62
3801.299	-103.62
3803.952	-104.62
3806.602	-104.62
3809.251	-104.62
3811.897	-102.62
3814.542	-106.62
3817.184	-102.62
3819.825	-103.62
3822.463	-105.62
3825.1	-103.62
3827.735	-107.62
3830.367	-108.62
3832.998	-104.62
3835.627	-107.62
3838.253	-106.62
3840.878	-107.62
3843.501	-106.62
3846.122	-109.62
3848.741	-107.62
3851.358	-107.62
3853.973	-111.62
3856.586	-110.62
3859.197	-108.62
3861.806	-113.62
3864.414	-111.62
3867.019	-108.62
3869.622	-110.62
3872.224	-106.62
3874.823	-105.62
3877.421	-100.62
3880.016	-103.62
3882.61	-98.62
3885.202	-101.62
3887.792	-103.62
3890.38	-108.62
3892.966	-110.62
3895.55	-110.62
3898.132	-109.62
3900.713	-112.62
3903.291	-110.62
3905.868	-109.62
3908.442	-104.62
3911.015	-110.62
3913.586	-110.62
3916.155	-111.62
3918.722	-111.62
3921.287	-111.62
3923.85	-112.62
3926.411	-113.62
3928.971	-115.62
3931.528	-109.62
3934.084	-109.62
3936.638	-110.62
3939.19	-114.62
3941.74	-111.62
3944.288	-112.62
3946.834	-110.62
3949.378	-113.62
3951.921	-107.62
3954.462	-113.62
3957	-111.62
3959.537	-109.62
3962.072	-111.62
3964.606	-113.62
3967.137	-110.62
3969.667	-112.62
3972.194	-111.62
3974.72	-111.62
3977.244	-111.62
3979.766	-112.62
3982.286	-109.62
3984.805	-108.62
3987.321	-107.62
3989.836	-109.62
3992.349	-108.62
3994.86	-113.62
3997.369	-113.62
3999.877	-114.62
4002.382	-110.62
4004.886	-110.62
4007.388	-109.62
4009.888	-113.62
4012.386	-111.62
4014.883	-112.62
4017.377	-107.62
4019.87	-115.62
4022.361	-108.62
4024.85	-112.62
4027.338	-110.62
4029.823	-115.62
4032.307	-111.62
4034.789	-111.62
4037.269	-108.62
4039.747	-108.62
4042.224	-110.62
4044.699	-113.62
4047.172	-111.62
4049.643	-112.62
4052.112	-116.62
4054.58	-111.62
4057.046	-108.62
4059.51	-115.62
4061.972	-107.62
4064.432	-110.62
4066.891	-108.62
4069.348	-110.62
4071.803	-111.62
4074.256	-113.62
4076.708	-113.62
4079.158	-111.62
4081.606	-113.62
4084.052	-115.62
4086.497	-110.62
4088.939	-110.62
4091.38	-106.62
4093.819	-111.62
4096.257	-114.62
4098.693	-114.62
4101.127	-113.62
4103.559	-117.62
4105.989	-74.62
4108.418	-71.62
4110.845	-70.62
4113.27	-62.62
4115.694	-52.62
4118.115	-41.62
4120.535	-108.62
4122.954	-109.62
4125.37	-108.62
4127.785	-113.62
4130.198	-114.62
4132.609	-112.62
4135.019	-119.62
4137.427	-120.62
4139.833	-116.62
4142.237	-117.62
