Data from Bsub_water_DIL106_A_2_RamanShift_1.txt Node
Date: Wed Feb 22 12:51:06 IST 2017
User: aro
Spectrometer: QEPB0276
Trigger mode: 0
Integration Time (sec): 5.000000E0
Scans to average: 1
Electric dark correction enabled: true
Nonlinearity correction enabled: false
Boxcar width: 0
XAxis mode: Raman Shifts
Number of Pixels in Spectrum: 1044
>>>>>Begin Spectral Data<<<<<
160.701	-28.25
166.742	6.75
172.777	99.75
178.805	372.75
184.826	1056.75
190.841	2185.75
196.849	3493.75
202.85	4308.75
208.845	4516.75
214.833	4403.75
220.815	4221.75
226.789	4125.75
232.758	4032.75
238.719	3914.75
244.674	3747.75
250.623	3611.75
256.565	3443.75
262.5	3310.75
268.429	3130.75
274.351	3052.75
280.267	2916.75
286.176	2825.75
292.079	2730.75
297.975	2634.75
303.865	2576.75
309.748	2501.75
315.625	2451.75
321.495	2381.75
327.359	2370.75
333.217	2335.75
339.068	2322.75
344.912	2291.75
350.751	2325.75
356.583	2309.75
362.408	2287.75
368.227	2306.75
374.04	2309.75
379.847	2321.75
385.647	2333.75
391.44	2323.75
397.228	2350.75
403.009	2360.75
408.784	2365.75
414.553	2381.75
420.315	2400.75
426.071	2382.75
431.821	2381.75
437.565	2386.75
443.302	2387.75
449.033	2377.75
454.758	2365.75
460.477	2370.75
466.189	2345.75
471.896	2335.75
477.596	2326.75
483.29	2345.75
488.978	2311.75
494.66	2300.75
500.335	2284.75
506.005	2222.75
511.668	2193.75
517.325	2177.75
522.977	2142.75
528.622	2123.75
534.261	2085.75
539.894	2073.75
545.521	2060.75
551.141	2027.75
556.756	2026.75
562.365	2027.75
567.968	2002.75
573.565	1998.75
579.155	1967.75
584.74	1959.75
590.319	1968.75
595.892	1948.75
601.459	1915.75
607.02	1927.75
612.575	1915.75
618.124	1894.75
623.667	1854.75
629.204	1849.75
634.735	1839.75
640.261	1825.75
645.781	1811.75
651.294	1818.75
656.802	1813.75
662.304	1787.75
667.8	1794.75
673.29	1794.75
678.775	1783.75
684.254	1768.75
689.726	1771.75
695.193	1763.75
700.655	1755.75
706.11	1734.75
711.56	1725.75
717.004	1710.75
722.442	1711.75
727.874	1690.75
733.301	1667.75
738.722	1686.75
744.137	1681.75
749.547	1668.75
754.951	1665.75
760.349	1671.75
765.741	1667.75
771.128	1661.75
776.509	1658.75
781.885	1662.75
787.254	1651.75
792.618	1646.75
797.977	1638.75
803.33	1609.75
808.677	1616.75
814.019	1610.75
819.355	1585.75
824.686	1570.75
830.011	1559.75
835.33	1563.75
840.644	1551.75
845.952	1556.75
851.255	1540.75
856.552	1533.75
861.844	1533.75
867.13	1514.75
872.41	1518.75
877.686	1512.75
882.955	1483.75
888.219	1456.75
893.478	1434.75
898.731	1427.75
903.979	1393.75
909.221	1390.75
914.458	1383.75
919.69	1375.75
924.916	1365.75
930.136	1371.75
935.351	1369.75
940.561	1365.75
945.766	1351.75
950.965	1344.75
956.158	1336.75
961.347	1313.75
966.529	1304.75
971.707	1292.75
976.879	1273.75
982.046	1249.75
987.208	1273.75
992.364	1241.75
997.515	1262.75
1002.66	1280.75
1007.801	1283.75
1012.936	1284.75
1018.066	1295.75
1023.19	1306.75
1028.309	1311.75
1033.423	1294.75
1038.532	1295.75
1043.636	1290.75
1048.734	1290.75
1053.827	1265.75
1058.915	1266.75
1063.998	1242.75
1069.075	1251.75
1074.147	1262.75
1079.214	1257.75
1084.276	1249.75
1089.333	1271.75
1094.385	1280.75
1099.431	1294.75
1104.472	1294.75
1109.509	1276.75
1114.54	1253.75
1119.565	1242.75
1124.586	1257.75
1129.602	1219.75
1134.613	1211.75
1139.618	1201.75
1144.619	1204.75
1149.614	1220.75
1154.604	1219.75
1159.589	1232.75
1164.57	1221.75
1169.545	1232.75
1174.515	1233.75
1179.48	1228.75
1184.44	1214.75
1189.395	1217.75
1194.345	1210.75
1199.29	1190.75
1204.23	1215.75
1209.165	1222.75
1214.095	1215.75
1219.021	1231.75
1223.941	1232.75
1228.856	1241.75
1233.766	1249.75
1238.672	1254.75
1243.572	1264.75
1248.467	1243.75
1253.358	1230.75
1258.244	1216.75
1263.124	1200.75
1268	1194.75
1272.871	1177.75
1277.737	1154.75
1282.599	1159.75
1287.455	1167.75
1292.306	1139.75
1297.153	1181.75
1301.995	1189.75
1306.832	1196.75
1311.664	1201.75
1316.491	1195.75
1321.314	1169.75
1326.132	1168.75
1330.945	1147.75
1335.753	1125.75
1340.556	1099.75
1345.354	1082.75
1350.148	1070.75
1354.937	1067.75
1359.722	1065.75
1364.501	1097.75
1369.276	1092.75
1374.046	1132.75
1378.811	1146.75
1383.572	1141.75
1388.327	1138.75
1393.079	1123.75
1397.825	1095.75
1402.567	1082.75
1407.304	1068.75
1412.036	1057.75
1416.764	1054.75
1421.487	1040.75
1426.205	1047.75
1430.919	1040.75
1435.628	1051.75
1440.333	1070.75
1445.032	1072.75
1449.727	1075.75
1454.418	1082.75
1459.104	1072.75
1463.785	1079.75
1468.462	1060.75
1473.134	1061.75
1477.802	1043.75
1482.465	1023.75
1487.123	1028.75
1491.777	1027.75
1496.426	1038.75
1501.071	1058.75
1505.711	1077.75
1510.347	1101.75
1514.978	1099.75
1519.604	1127.75
1524.226	1131.75
1528.844	1123.75
1533.457	1137.75
1538.065	1126.75
1542.669	1155.75
1547.269	1135.75
1551.864	1130.75
1556.454	1152.75
1561.041	1158.75
1565.622	1155.75
1570.199	1162.75
1574.772	1172.75
1579.34	1208.75
1583.904	1208.75
1588.464	1231.75
1593.019	1236.75
1597.569	1248.75
1602.115	1265.75
1606.657	1273.75
1611.195	1283.75
1615.728	1288.75
1620.256	1298.75
1624.78	1302.75
1629.3	1338.75
1633.816	1354.75
1638.327	1362.75
1642.834	1371.75
1647.336	1376.75
1651.834	1397.75
1656.328	1393.75
1660.817	1390.75
1665.302	1349.75
1669.783	1344.75
1674.259	1301.75
1678.732	1262.75
1683.199	1229.75
1687.663	1165.75
1692.122	1119.75
1696.577	1105.75
1701.028	1056.75
1705.474	1069.75
1709.917	1056.75
1714.355	1037.75
1718.788	1015.75
1723.218	966.75
1727.643	950.75
1732.064	934.75
1736.481	905.75
1740.893	867.75
1745.301	849.75
1749.705	834.75
1754.105	807.75
1758.501	785.75
1762.893	772.75
1767.28	759.75
1771.663	748.75
1776.042	742.75
1780.417	745.75
1784.787	764.75
1789.154	747.75
1793.516	751.75
1797.874	756.75
1802.228	764.75
1806.578	764.75
1810.924	762.75
1815.266	777.75
1819.603	755.75
1823.937	737.75
1828.266	725.75
1832.591	713.75
1836.913	703.75
1841.23	693.75
1845.543	689.75
1849.852	686.75
1854.156	682.75
1858.457	691.75
1862.754	697.75
1867.047	675.75
1871.335	689.75
1875.62	692.75
1879.9	705.75
1884.177	687.75
1888.449	697.75
1892.718	672.75
1896.982	672.75
1901.243	676.75
1905.499	663.75
1909.752	670.75
1914	680.75
1918.245	674.75
1922.485	696.75
1926.722	678.75
1930.954	695.75
1935.183	705.75
1939.408	710.75
1943.628	707.75
1947.845	708.75
1952.058	712.75
1956.267	713.75
1960.472	690.75
1964.673	694.75
1968.87	689.75
1973.063	689.75
1977.252	680.75
1981.438	680.75
1985.619	683.75
1989.797	672.75
1993.971	667.75
1998.14	665.75
2002.306	656.75
2006.469	669.75
2010.627	674.75
2014.781	674.75
2018.932	671.75
2023.078	669.75
2027.221	662.75
2031.36	655.75
2035.495	646.75
2039.627	641.75
2043.754	641.75
2047.878	644.75
2051.998	639.75
2056.114	647.75
2060.226	640.75
2064.334	642.75
2068.439	651.75
2072.54	654.75
2076.637	664.75
2080.73	668.75
2084.82	655.75
2088.906	672.75
2092.988	673.75
2097.066	658.75
2101.14	659.75
2105.211	655.75
2109.278	642.75
2113.342	655.75
2117.401	649.75
2121.457	647.75
2125.509	634.75
2129.558	636.75
2133.602	636.75
2137.643	643.75
2141.681	642.75
2145.714	629.75
2149.744	637.75
2153.77	619.75
2157.793	611.75
2161.812	597.75
2165.827	601.75
2169.838	600.75
2173.846	591.75
2177.851	590.75
2181.851	573.75
2185.848	560.75
2189.841	550.75
2193.831	557.75
2197.817	550.75
2201.799	546.75
2205.778	536.75
2209.753	529.75
2213.725	534.75
2217.693	541.75
2221.657	530.75
2225.618	531.75
2229.575	533.75
2233.529	524.75
2237.479	520.75
2241.425	520.75
2245.368	515.75
2249.307	504.75
2253.243	501.75
2257.175	481.75
2261.104	482.75
2265.029	473.75
2268.95	469.75
2272.868	464.75
2276.783	455.75
2280.694	453.75
2284.601	454.75
2288.505	442.75
2292.405	438.75
2296.302	438.75
2300.195	432.75
2304.085	422.75
2307.971	414.75
2311.854	419.75
2315.734	390.75
2319.609	380.75
2323.482	389.75
2327.351	385.75
2331.216	383.75
2335.078	381.75
2338.937	379.75
2342.792	380.75
2346.643	373.75
2350.492	358.75
2354.336	365.75
2358.178	372.75
2362.015	360.75
2365.85	370.75
2369.681	357.75
2373.508	362.75
2377.333	368.75
2381.153	373.75
2384.971	360.75
2388.785	359.75
2392.595	352.75
2396.402	356.75
2400.206	348.75
2404.007	357.75
2407.804	336.75
2411.597	345.75
2415.388	346.75
2419.174	335.75
2422.958	333.75
2426.738	338.75
2430.515	335.75
2434.289	337.75
2438.059	324.75
2441.825	333.75
2445.589	320.75
2449.349	326.75
2453.106	311.75
2456.859	318.75
2460.61	317.75
2464.356	313.75
2468.1	314.75
2471.84	314.75
2475.577	304.75
2479.311	305.75
2483.041	299.75
2486.768	301.75
2490.492	303.75
2494.213	306.75
2497.93	308.75
2501.644	302.75
2505.355	304.75
2509.062	299.75
2512.766	302.75
2516.467	298.75
2520.165	301.75
2523.859	297.75
2527.551	290.75
2531.239	289.75
2534.923	279.75
2538.605	284.75
2542.283	279.75
2545.958	283.75
2549.63	283.75
2553.299	279.75
2556.964	276.75
2560.626	272.75
2564.285	278.75
2567.941	279.75
2571.594	267.75
2575.243	267.75
2578.89	263.75
2582.533	266.75
2586.173	270.75
2589.809	271.75
2593.443	262.75
2597.073	265.75
2600.701	252.75
2604.325	252.75
2607.946	248.75
2611.564	253.75
2615.178	249.75
2618.79	244.75
2622.398	257.75
2626.004	242.75
2629.606	253.75
2633.205	247.75
2636.801	241.75
2640.394	237.75
2643.983	239.75
2647.57	228.75
2651.153	217.75
2654.734	233.75
2658.311	223.75
2661.885	221.75
2665.456	222.75
2669.025	219.75
2672.589	217.75
2676.151	218.75
2679.71	213.75
2683.266	210.75
2686.819	203.75
2690.368	201.75
2693.915	199.75
2697.458	199.75
2700.999	191.75
2704.536	196.75
2708.071	193.75
2711.602	182.75
2715.13	181.75
2718.656	186.75
2722.178	182.75
2725.697	181.75
2729.214	183.75
2732.727	190.75
2736.237	183.75
2739.744	187.75
2743.249	186.75
2746.75	189.75
2750.248	195.75
2753.743	184.75
2757.236	183.75
2760.725	200.75
2764.211	196.75
2767.695	199.75
2771.175	196.75
2774.652	195.75
2778.127	194.75
2781.598	195.75
2785.067	186.75
2788.532	191.75
2791.995	191.75
2795.455	191.75
2798.911	189.75
2802.365	193.75
2805.816	199.75
2809.264	197.75
2812.709	191.75
2816.151	193.75
2819.59	190.75
2823.026	188.75
2826.46	192.75
2829.89	191.75
2833.318	194.75
2836.742	194.75
2840.164	201.75
2843.583	200.75
2846.999	208.75
2850.412	205.75
2853.822	204.75
2857.229	199.75
2860.634	211.75
2864.035	214.75
2867.434	216.75
2870.83	215.75
2874.223	218.75
2877.613	224.75
2881	222.75
2884.385	233.75
2887.766	234.75
2891.145	229.75
2894.521	229.75
2897.894	228.75
2901.264	224.75
2904.631	224.75
2907.996	234.75
2911.358	228.75
2914.717	247.75
2918.073	238.75
2921.426	248.75
2924.777	251.75
2928.124	247.75
2931.469	259.75
2934.811	259.75
2938.15	263.75
2941.487	270.75
2944.821	276.75
2948.152	278.75
2951.48	286.75
2954.805	283.75
2958.128	293.75
2961.447	287.75
2964.765	302.75
2968.079	307.75
2971.39	308.75
2974.699	336.75
2978.005	339.75
2981.308	340.75
2984.609	360.75
2987.907	363.75
2991.202	374.75
2994.494	396.75
2997.784	402.75
3001.07	405.75
3004.355	426.75
3007.636	430.75
3010.915	449.75
3014.191	447.75
3017.464	461.75
3020.734	468.75
3024.002	479.75
3027.267	485.75
3030.53	496.75
3033.789	506.75
3037.046	508.75
3040.301	516.75
3043.552	529.75
3046.801	536.75
3050.048	557.75
3053.291	562.75
3056.532	583.75
3059.771	609.75
3063.006	631.75
3066.239	649.75
3069.469	670.75
3072.697	672.75
3075.922	702.75
3079.144	703.75
3082.364	742.75
3085.581	750.75
3088.795	762.75
3092.007	775.75
3095.216	793.75
3098.423	809.75
3101.627	846.75
3104.828	856.75
3108.026	882.75
3111.222	895.75
3114.416	910.75
3117.607	925.75
3120.795	961.75
3123.98	988.75
3127.163	1010.75
3130.344	1025.75
3133.521	1057.75
3136.696	1069.75
3139.869	1100.75
3143.039	1118.75
3146.206	1136.75
3149.371	1140.75
3152.533	1157.75
3155.693	1172.75
3158.85	1171.75
3162.005	1175.75
3165.157	1190.75
3168.306	1189.75
3171.453	1191.75
3174.597	1192.75
3177.739	1205.75
3180.878	1210.75
3184.014	1217.75
3187.149	1219.75
3190.28	1215.75
3193.409	1201.75
3196.536	1210.75
3199.659	1213.75
3202.781	1220.75
3205.9	1218.75
3209.016	1213.75
3212.13	1225.75
3215.241	1232.75
3218.35	1220.75
3221.456	1197.75
3224.56	1188.75
3227.661	1201.75
3230.76	1172.75
3233.856	1176.75
3236.95	1160.75
3240.041	1160.75
3243.13	1150.75
3246.216	1161.75
3249.3	1129.75
3252.382	1134.75
3255.46	1131.75
3258.537	1122.75
3261.611	1110.75
3264.682	1115.75
3267.751	1111.75
3270.818	1110.75
3273.882	1113.75
3276.943	1096.75
3280.002	1092.75
3283.059	1073.75
3286.113	1068.75
3289.165	1040.75
3292.214	1034.75
3295.261	1026.75
3298.306	997.75
3301.348	978.75
3304.387	963.75
3307.425	962.75
3310.459	940.75
3313.492	941.75
3316.521	937.75
3319.549	919.75
3322.574	894.75
3325.597	884.75
3328.617	877.75
3331.635	866.75
3334.65	867.75
3337.663	868.75
3340.674	862.75
3343.682	864.75
3346.688	862.75
3349.691	837.75
3352.692	834.75
3355.691	846.75
3358.687	836.75
3361.681	817.75
3364.673	821.75
3367.662	794.75
3370.649	798.75
3373.633	789.75
3376.615	767.75
3379.595	757.75
3382.572	753.75
3385.547	748.75
3388.52	723.75
3391.49	722.75
3394.458	705.75
3397.424	710.75
3400.387	688.75
3403.348	687.75
3406.307	674.75
3409.263	677.75
3412.217	667.75
3415.168	668.75
3418.118	650.75
3421.065	657.75
3424.009	637.75
3426.951	629.75
3429.891	616.75
3432.829	614.75
3435.764	603.75
3438.697	594.75
3441.628	574.75
3444.557	562.75
3447.483	530.75
3450.407	527.75
3453.328	514.75
3456.247	512.75
3459.164	491.75
3462.079	481.75
3464.991	466.75
3467.902	454.75
3470.809	435.75
3473.715	421.75
3476.618	411.75
3479.519	404.75
3482.418	376.75
3485.315	386.75
3488.209	366.75
3491.101	369.75
3493.99	351.75
3496.878	333.75
3499.763	339.75
3502.646	317.75
3505.527	309.75
3508.405	303.75
3511.281	285.75
3514.155	269.75
3517.027	263.75
3519.897	257.75
3522.764	245.75
3525.629	223.75
3528.492	217.75
3531.352	199.75
3534.211	198.75
3537.067	182.75
3539.921	177.75
3542.773	162.75
3545.622	151.75
3548.469	152.75
3551.315	141.75
3554.157	135.75
3556.998	129.75
3559.837	115.75
3562.673	106.75
3565.507	101.75
3568.339	92.75
3571.169	89.75
3573.996	80.75
3576.822	74.75
3579.645	68.75
3582.466	64.75
3585.285	60.75
3588.101	59.75
3590.916	46.75
3593.728	44.75
3596.538	38.75
3599.346	29.75
3602.152	28.75
3604.956	27.75
3607.757	16.75
3610.556	11.75
3613.354	8.75
3616.149	11.75
3618.942	6.75
3621.732	1.75
3624.521	-0.25
3627.307	-6.25
3630.092	-8.25
3632.874	-7.25
3635.654	-21.25
3638.432	-17.25
3641.208	-22.25
3643.982	-27.25
3646.753	-33.25
3649.523	-31.25
3652.29	-33.25
3655.055	-37.25
3657.818	-39.25
3660.579	-49.25
3663.338	-44.25
3666.095	-49.25
3668.849	-53.25
3671.602	-48.25
3674.352	-58.25
3677.101	-57.25
3679.847	-59.25
3682.591	-61.25
3685.333	-68.25
3688.073	-67.25
3690.811	-71.25
3693.547	-73.25
3696.281	-73.25
3699.013	-71.25
3701.742	-71.25
3704.47	-68.25
3707.195	-75.25
3709.919	-77.25
3712.64	-79.25
3715.359	-80.25
3718.076	-84.25
3720.792	-80.25
3723.505	-82.25
3726.216	-85.25
3728.925	-84.25
3731.632	-87.25
3734.336	-88.25
3737.039	-90.25
3739.74	-83.25
3742.439	-89.25
3745.136	-87.25
3747.83	-91.25
3750.523	-90.25
3753.213	-91.25
3755.902	-95.25
3758.589	-94.25
3761.273	-96.25
3763.956	-91.25
3766.636	-99.25
3769.315	-89.25
3771.991	-98.25
3774.665	-98.25
3777.338	-96.25
3780.008	-96.25
3782.677	-95.25
3785.343	-97.25
3788.007	-92.25
3790.67	-96.25
3793.33	-95.25
3795.989	-97.25
3798.645	-98.25
3801.299	-101.25
3803.952	-104.25
3806.602	-104.25
3809.251	-101.25
3811.897	-103.25
3814.542	-104.25
3817.184	-105.25
3819.825	-100.25
3822.463	-100.25
3825.1	-97.25
3827.735	-101.25
3830.367	-105.25
3832.998	-102.25
3835.627	-104.25
3838.253	-104.25
3840.878	-104.25
3843.501	-106.25
3846.122	-104.25
3848.741	-102.25
3851.358	-104.25
3853.973	-103.25
3856.586	-102.25
3859.197	-105.25
3861.806	-106.25
3864.414	-105.25
3867.019	-102.25
3869.622	-105.25
3872.224	-105.25
3874.823	-102.25
3877.421	-96.25
3880.016	-99.25
3882.61	-98.25
3885.202	-95.25
3887.792	-101.25
3890.38	-103.25
3892.966	-106.25
3895.55	-103.25
3898.132	-102.25
3900.713	-106.25
3903.291	-103.25
3905.868	-101.25
3908.442	-103.25
3911.015	-107.25
3913.586	-106.25
3916.155	-109.25
3918.722	-107.25
3921.287	-106.25
3923.85	-110.25
3926.411	-110.25
3928.971	-108.25
3931.528	-106.25
3934.084	-108.25
3936.638	-106.25
3939.19	-108.25
3941.74	-106.25
3944.288	-108.25
3946.834	-109.25
3949.378	-108.25
3951.921	-105.25
3954.462	-107.25
3957	-108.25
3959.537	-103.25
3962.072	-110.25
3964.606	-109.25
3967.137	-108.25
3969.667	-104.25
3972.194	-108.25
3974.72	-107.25
3977.244	-109.25
3979.766	-107.25
3982.286	-103.25
3984.805	-105.25
3987.321	-101.25
3989.836	-106.25
3992.349	-104.25
3994.86	-112.25
3997.369	-107.25
3999.877	-110.25
4002.382	-109.25
4004.886	-107.25
4007.388	-107.25
4009.888	-113.25
4012.386	-104.25
4014.883	-105.25
4017.377	-105.25
4019.87	-110.25
4022.361	-106.25
4024.85	-108.25
4027.338	-106.25
4029.823	-110.25
4032.307	-103.25
4034.789	-109.25
4037.269	-108.25
4039.747	-103.25
4042.224	-108.25
4044.699	-112.25
4047.172	-106.25
4049.643	-113.25
4052.112	-111.25
4054.58	-109.25
4057.046	-106.25
4059.51	-109.25
4061.972	-102.25
4064.432	-105.25
4066.891	-104.25
4069.348	-105.25
4071.803	-109.25
4074.256	-109.25
4076.708	-108.25
4079.158	-110.25
4081.606	-109.25
4084.052	-113.25
4086.497	-107.25
4088.939	-106.25
4091.38	-104.25
4093.819	-107.25
4096.257	-108.25
4098.693	-109.25
4101.127	-110.25
4103.559	-112.25
4105.989	-68.25
4108.418	-64.25
4110.845	-64.25
4113.27	-60.25
4115.694	-51.25
4118.115	-44.25
4120.535	-105.25
4122.954	-105.25
4125.37	-107.25
4127.785	-107.25
4130.198	-107.25
4132.609	-106.25
4135.019	-112.25
4137.427	-114.25
4139.833	-114.25
4142.237	-110.25
