Data from Bsub_water_DIL102_A_2_RamanShift_1.txt Node
Date: Wed Feb 22 13:03:21 IST 2017
User: aro
Spectrometer: QEPB0276
Trigger mode: 0
Integration Time (sec): 5.000000E0
Scans to average: 1
Electric dark correction enabled: true
Nonlinearity correction enabled: false
Boxcar width: 0
XAxis mode: Raman Shifts
Number of Pixels in Spectrum: 1044
>>>>>Begin Spectral Data<<<<<
160.701	-32.25
166.742	4.75
172.777	96.75
178.805	402.75
184.826	1125.75
190.841	2343.75
196.849	3686.75
202.85	4589.75
208.845	4807.75
214.833	4687.75
220.815	4503.75
226.789	4378.75
232.758	4254.75
238.719	4108.75
244.674	3938.75
250.623	3766.75
256.565	3567.75
262.5	3388.75
268.429	3243.75
274.351	3116.75
280.267	2959.75
286.176	2866.75
292.079	2759.75
297.975	2652.75
303.865	2581.75
309.748	2504.75
315.625	2438.75
321.495	2369.75
327.359	2346.75
333.217	2338.75
339.068	2315.75
344.912	2299.75
350.751	2268.75
356.583	2293.75
362.408	2293.75
368.227	2273.75
374.04	2285.75
379.847	2288.75
385.647	2316.75
391.44	2337.75
397.228	2353.75
403.009	2336.75
408.784	2348.75
414.553	2389.75
420.315	2383.75
426.071	2364.75
431.821	2375.75
437.565	2363.75
443.302	2383.75
449.033	2351.75
454.758	2347.75
460.477	2338.75
466.189	2334.75
471.896	2309.75
477.596	2295.75
483.29	2271.75
488.978	2287.75
494.66	2255.75
500.335	2231.75
506.005	2185.75
511.668	2149.75
517.325	2099.75
522.977	2065.75
528.622	2045.75
534.261	2012.75
539.894	1985.75
545.521	1995.75
551.141	1979.75
556.756	1952.75
562.365	1918.75
567.968	1926.75
573.565	1922.75
579.155	1900.75
584.74	1880.75
590.319	1887.75
595.892	1881.75
601.459	1843.75
607.02	1845.75
612.575	1812.75
618.124	1797.75
623.667	1772.75
629.204	1754.75
634.735	1741.75
640.261	1738.75
645.781	1722.75
651.294	1708.75
656.802	1701.75
662.304	1706.75
667.8	1676.75
673.29	1678.75
678.775	1679.75
684.254	1671.75
689.726	1644.75
695.193	1642.75
700.655	1629.75
706.11	1603.75
711.56	1615.75
717.004	1589.75
722.442	1594.75
727.874	1567.75
733.301	1555.75
738.722	1547.75
744.137	1548.75
749.547	1556.75
754.951	1524.75
760.349	1548.75
765.741	1534.75
771.128	1539.75
776.509	1534.75
781.885	1554.75
787.254	1521.75
792.618	1524.75
797.977	1489.75
803.33	1488.75
808.677	1470.75
814.019	1453.75
819.355	1457.75
824.686	1440.75
830.011	1420.75
835.33	1408.75
840.644	1398.75
845.952	1393.75
851.255	1386.75
856.552	1378.75
861.844	1368.75
867.13	1357.75
872.41	1350.75
877.686	1331.75
882.955	1313.75
888.219	1290.75
893.478	1279.75
898.731	1256.75
903.979	1221.75
909.221	1213.75
914.458	1201.75
919.69	1192.75
924.916	1183.75
930.136	1195.75
935.351	1194.75
940.561	1179.75
945.766	1161.75
950.965	1174.75
956.158	1151.75
961.347	1137.75
966.529	1118.75
971.707	1089.75
976.879	1075.75
982.046	1068.75
987.208	1064.75
992.364	1064.75
997.515	1068.75
1002.66	1078.75
1007.801	1090.75
1012.936	1095.75
1018.066	1097.75
1023.19	1106.75
1028.309	1106.75
1033.423	1118.75
1038.532	1098.75
1043.636	1086.75
1048.734	1076.75
1053.827	1058.75
1058.915	1061.75
1063.998	1049.75
1069.075	1057.75
1074.147	1038.75
1079.214	1041.75
1084.276	1065.75
1089.333	1079.75
1094.385	1084.75
1099.431	1080.75
1104.472	1074.75
1109.509	1071.75
1114.54	1054.75
1119.565	1034.75
1124.586	1032.75
1129.602	1027.75
1134.613	1012.75
1139.618	1014.75
1144.619	1019.75
1149.614	1010.75
1154.604	1002.75
1159.589	1019.75
1164.57	1014.75
1169.545	1029.75
1174.515	1032.75
1179.48	1022.75
1184.44	1014.75
1189.395	1010.75
1194.345	988.75
1199.29	1011.75
1204.23	1009.75
1209.165	994.75
1214.095	1011.75
1219.021	1015.75
1223.941	1029.75
1228.856	1041.75
1233.766	1030.75
1238.672	1034.75
1243.572	1025.75
1248.467	1027.75
1253.358	1011.75
1258.244	1012.75
1263.124	994.75
1268	973.75
1272.871	967.75
1277.737	950.75
1282.599	957.75
1287.455	942.75
1292.306	949.75
1297.153	962.75
1301.995	964.75
1306.832	964.75
1311.664	976.75
1316.491	970.75
1321.314	953.75
1326.132	951.75
1330.945	945.75
1335.753	912.75
1340.556	891.75
1345.354	876.75
1350.148	879.75
1354.937	867.75
1359.722	862.75
1364.501	883.75
1369.276	895.75
1374.046	912.75
1378.811	913.75
1383.572	919.75
1388.327	903.75
1393.079	914.75
1397.825	878.75
1402.567	870.75
1407.304	857.75
1412.036	842.75
1416.764	838.75
1421.487	842.75
1426.205	839.75
1430.919	836.75
1435.628	854.75
1440.333	853.75
1445.032	872.75
1449.727	867.75
1454.418	870.75
1459.104	862.75
1463.785	856.75
1468.462	841.75
1473.134	842.75
1477.802	845.75
1482.465	835.75
1487.123	827.75
1491.777	831.75
1496.426	851.75
1501.071	855.75
1505.711	867.75
1510.347	887.75
1514.978	902.75
1519.604	906.75
1524.226	931.75
1528.844	911.75
1533.457	935.75
1538.065	932.75
1542.669	929.75
1547.269	938.75
1551.864	924.75
1556.454	930.75
1561.041	952.75
1565.622	968.75
1570.199	972.75
1574.772	993.75
1579.34	1059.75
1583.904	1098.75
1588.464	1046.75
1593.019	1050.75
1597.569	1073.75
1602.115	1072.75
1606.657	1105.75
1611.195	1098.75
1615.728	1112.75
1620.256	1128.75
1624.78	1153.75
1629.3	1162.75
1633.816	1207.75
1638.327	1215.75
1642.834	1229.75
1647.336	1244.75
1651.834	1251.75
1656.328	1226.75
1660.817	1214.75
1665.302	1192.75
1669.783	1169.75
1674.259	1131.75
1678.732	1112.75
1683.199	1054.75
1687.663	1004.75
1692.122	945.75
1696.577	915.75
1701.028	900.75
1705.474	888.75
1709.917	858.75
1714.355	843.75
1718.788	812.75
1723.218	792.75
1727.643	757.75
1732.064	732.75
1736.481	712.75
1740.893	692.75
1745.301	664.75
1749.705	642.75
1754.105	605.75
1758.501	587.75
1762.893	588.75
1767.28	574.75
1771.663	556.75
1776.042	550.75
1780.417	552.75
1784.787	552.75
1789.154	557.75
1793.516	558.75
1797.874	559.75
1802.228	569.75
1806.578	572.75
1810.924	562.75
1815.266	555.75
1819.603	533.75
1823.937	533.75
1828.266	521.75
1832.591	516.75
1836.913	503.75
1841.23	504.75
1845.543	500.75
1849.852	496.75
1854.156	492.75
1858.457	477.75
1862.754	494.75
1867.047	495.75
1871.335	491.75
1875.62	486.75
1879.9	504.75
1884.177	498.75
1888.449	492.75
1892.718	492.75
1896.982	487.75
1901.243	485.75
1905.499	489.75
1909.752	484.75
1914	496.75
1918.245	487.75
1922.485	492.75
1926.722	506.75
1930.954	507.75
1935.183	519.75
1939.408	509.75
1943.628	517.75
1947.845	518.75
1952.058	516.75
1956.267	519.75
1960.472	503.75
1964.673	515.75
1968.87	499.75
1973.063	504.75
1977.252	490.75
1981.438	487.75
1985.619	479.75
1989.797	489.75
1993.971	480.75
1998.14	496.75
2002.306	488.75
2006.469	482.75
2010.627	487.75
2014.781	499.75
2018.932	494.75
2023.078	485.75
2027.221	490.75
2031.36	483.75
2035.495	489.75
2039.627	475.75
2043.754	467.75
2047.878	473.75
2051.998	467.75
2056.114	478.75
2060.226	473.75
2064.334	468.75
2068.439	477.75
2072.54	496.75
2076.637	498.75
2080.73	500.75
2084.82	503.75
2088.906	507.75
2092.988	515.75
2097.066	500.75
2101.14	499.75
2105.211	510.75
2109.278	494.75
2113.342	491.75
2117.401	497.75
2121.457	486.75
2125.509	492.75
2129.558	488.75
2133.602	485.75
2137.643	479.75
2141.681	483.75
2145.714	481.75
2149.744	476.75
2153.77	468.75
2157.793	461.75
2161.812	459.75
2165.827	449.75
2169.838	429.75
2173.846	439.75
2177.851	424.75
2181.851	421.75
2185.848	415.75
2189.841	409.75
2193.831	410.75
2197.817	396.75
2201.799	398.75
2205.778	390.75
2209.753	389.75
2213.725	394.75
2217.693	391.75
2221.657	394.75
2225.618	388.75
2229.575	389.75
2233.529	380.75
2237.479	377.75
2241.425	376.75
2245.368	366.75
2249.307	362.75
2253.243	348.75
2257.175	344.75
2261.104	346.75
2265.029	342.75
2268.95	335.75
2272.868	326.75
2276.783	327.75
2280.694	317.75
2284.601	309.75
2288.505	304.75
2292.405	304.75
2296.302	307.75
2300.195	297.75
2304.085	291.75
2307.971	284.75
2311.854	282.75
2315.734	273.75
2319.609	268.75
2323.482	261.75
2327.351	258.75
2331.216	264.75
2335.078	261.75
2338.937	256.75
2342.792	248.75
2346.643	249.75
2350.492	251.75
2354.336	255.75
2358.178	248.75
2362.015	245.75
2365.85	247.75
2369.681	243.75
2373.508	248.75
2377.333	240.75
2381.153	243.75
2384.971	246.75
2388.785	242.75
2392.595	235.75
2396.402	232.75
2400.206	231.75
2404.007	231.75
2407.804	224.75
2411.597	222.75
2415.388	229.75
2419.174	224.75
2422.958	228.75
2426.738	214.75
2430.515	216.75
2434.289	210.75
2438.059	205.75
2441.825	210.75
2445.589	209.75
2449.349	199.75
2453.106	204.75
2456.859	203.75
2460.61	203.75
2464.356	199.75
2468.1	195.75
2471.84	206.75
2475.577	188.75
2479.311	195.75
2483.041	189.75
2486.768	191.75
2490.492	186.75
2494.213	188.75
2497.93	186.75
2501.644	191.75
2505.355	188.75
2509.062	190.75
2512.766	180.75
2516.467	186.75
2520.165	191.75
2523.859	177.75
2527.551	182.75
2531.239	184.75
2534.923	183.75
2538.605	179.75
2542.283	183.75
2545.958	177.75
2549.63	182.75
2553.299	169.75
2556.964	170.75
2560.626	166.75
2564.285	168.75
2567.941	163.75
2571.594	167.75
2575.243	161.75
2578.89	167.75
2582.533	164.75
2586.173	165.75
2589.809	163.75
2593.443	164.75
2597.073	154.75
2600.701	154.75
2604.325	159.75
2607.946	154.75
2611.564	155.75
2615.178	153.75
2618.79	154.75
2622.398	151.75
2626.004	145.75
2629.606	145.75
2633.205	139.75
2636.801	143.75
2640.394	140.75
2643.983	142.75
2647.57	133.75
2651.153	137.75
2654.734	133.75
2658.311	143.75
2661.885	128.75
2665.456	132.75
2669.025	126.75
2672.589	127.75
2676.151	128.75
2679.71	122.75
2683.266	124.75
2686.819	115.75
2690.368	121.75
2693.915	112.75
2697.458	111.75
2700.999	110.75
2704.536	119.75
2708.071	115.75
2711.602	109.75
2715.13	112.75
2718.656	106.75
2722.178	105.75
2725.697	106.75
2729.214	110.75
2732.727	114.75
2736.237	107.75
2739.744	116.75
2743.249	108.75
2746.75	116.75
2750.248	112.75
2753.743	121.75
2757.236	113.75
2760.725	118.75
2764.211	124.75
2767.695	112.75
2771.175	123.75
2774.652	125.75
2778.127	121.75
2781.598	122.75
2785.067	116.75
2788.532	114.75
2791.995	129.75
2795.455	115.75
2798.911	123.75
2802.365	133.75
2805.816	128.75
2809.264	129.75
2812.709	132.75
2816.151	127.75
2819.59	126.75
2823.026	131.75
2826.46	137.75
2829.89	130.75
2833.318	128.75
2836.742	142.75
2840.164	136.75
2843.583	136.75
2846.999	144.75
2850.412	141.75
2853.822	149.75
2857.229	147.75
2860.634	149.75
2864.035	160.75
2867.434	161.75
2870.83	152.75
2874.223	164.75
2877.613	170.75
2881	170.75
2884.385	168.75
2887.766	180.75
2891.145	183.75
2894.521	185.75
2897.894	183.75
2901.264	181.75
2904.631	188.75
2907.996	187.75
2911.358	184.75
2914.717	194.75
2918.073	193.75
2921.426	208.75
2924.777	217.75
2928.124	219.75
2931.469	221.75
2934.811	221.75
2938.15	238.75
2941.487	235.75
2944.821	244.75
2948.152	251.75
2951.48	249.75
2954.805	258.75
2958.128	268.75
2961.447	271.75
2964.765	281.75
2968.079	282.75
2971.39	290.75
2974.699	310.75
2978.005	320.75
2981.308	331.75
2984.609	343.75
2987.907	355.75
2991.202	356.75
2994.494	374.75
2997.784	392.75
3001.07	394.75
3004.355	407.75
3007.636	422.75
3010.915	431.75
3014.191	443.75
3017.464	456.75
3020.734	463.75
3024.002	477.75
3027.267	483.75
3030.53	489.75
3033.789	501.75
3037.046	521.75
3040.301	526.75
3043.552	546.75
3046.801	551.75
3050.048	572.75
3053.291	579.75
3056.532	602.75
3059.771	628.75
3063.006	641.75
3066.239	671.75
3069.469	691.75
3072.697	722.75
3075.922	729.75
3079.144	751.75
3082.364	777.75
3085.581	802.75
3088.795	818.75
3092.007	837.75
3095.216	857.75
3098.423	873.75
3101.627	891.75
3104.828	913.75
3108.026	958.75
3111.222	943.75
3114.416	983.75
3117.607	1001.75
3120.795	1037.75
3123.98	1046.75
3127.163	1071.75
3130.344	1111.75
3133.521	1124.75
3136.696	1160.75
3139.869	1191.75
3143.039	1213.75
3146.206	1222.75
3149.371	1237.75
3152.533	1239.75
3155.693	1261.75
3158.85	1267.75
3162.005	1267.75
3165.157	1297.75
3168.306	1289.75
3171.453	1288.75
3174.597	1281.75
3177.739	1311.75
3180.878	1320.75
3184.014	1326.75
3187.149	1308.75
3190.28	1321.75
3193.409	1334.75
3196.536	1326.75
3199.659	1313.75
3202.781	1336.75
3205.9	1327.75
3209.016	1348.75
3212.13	1341.75
3215.241	1343.75
3218.35	1313.75
3221.456	1318.75
3224.56	1317.75
3227.661	1298.75
3230.76	1279.75
3233.856	1259.75
3236.95	1248.75
3240.041	1253.75
3243.13	1254.75
3246.216	1250.75
3249.3	1232.75
3252.382	1224.75
3255.46	1235.75
3258.537	1222.75
3261.611	1225.75
3264.682	1209.75
3267.751	1199.75
3270.818	1210.75
3273.882	1196.75
3276.943	1176.75
3280.002	1184.75
3283.059	1174.75
3286.113	1173.75
3289.165	1153.75
3292.214	1111.75
3295.261	1095.75
3298.306	1077.75
3301.348	1073.75
3304.387	1053.75
3307.425	1046.75
3310.459	1025.75
3313.492	1012.75
3316.521	989.75
3319.549	998.75
3322.574	962.75
3325.597	966.75
3328.617	965.75
3331.635	950.75
3334.65	947.75
3337.663	943.75
3340.674	935.75
3343.682	931.75
3346.688	933.75
3349.691	932.75
3352.692	929.75
3355.691	911.75
3358.687	912.75
3361.681	910.75
3364.673	889.75
3367.662	872.75
3370.649	865.75
3373.633	871.75
3376.615	844.75
3379.595	840.75
3382.572	816.75
3385.547	803.75
3388.52	804.75
3391.49	796.75
3394.458	778.75
3397.424	782.75
3400.387	759.75
3403.348	752.75
3406.307	734.75
3409.263	740.75
3412.217	743.75
3415.168	715.75
3418.118	703.75
3421.065	716.75
3424.009	697.75
3426.951	694.75
3429.891	671.75
3432.829	664.75
3435.764	651.75
3438.697	643.75
3441.628	631.75
3444.557	619.75
3447.483	591.75
3450.407	578.75
3453.328	564.75
3456.247	543.75
3459.164	536.75
3462.079	514.75
3464.991	501.75
3467.902	487.75
3470.809	475.75
3473.715	461.75
3476.618	458.75
3479.519	428.75
3482.418	430.75
3485.315	412.75
3488.209	403.75
3491.101	394.75
3493.99	389.75
3496.878	366.75
3499.763	358.75
3502.646	344.75
3505.527	336.75
3508.405	320.75
3511.281	310.75
3514.155	300.75
3517.027	293.75
3519.897	273.75
3522.764	252.75
3525.629	245.75
3528.492	237.75
3531.352	219.75
3534.211	211.75
3537.067	198.75
3539.921	192.75
3542.773	177.75
3545.622	163.75
3548.469	151.75
3551.315	144.75
3554.157	146.75
3556.998	136.75
3559.837	124.75
3562.673	118.75
3565.507	106.75
3568.339	100.75
3571.169	92.75
3573.996	95.75
3576.822	83.75
3579.645	81.75
3582.466	75.75
3585.285	67.75
3588.101	57.75
3590.916	56.75
3593.728	48.75
3596.538	42.75
3599.346	40.75
3602.152	27.75
3604.956	27.75
3607.757	16.75
3610.556	19.75
3613.354	13.75
3616.149	9.75
3618.942	8.75
3621.732	0.75
3624.521	-3.25
3627.307	-5.25
3630.092	-9.25
3632.874	-9.25
3635.654	-18.25
3638.432	-21.25
3641.208	-21.25
3643.982	-24.25
3646.753	-28.25
3649.523	-30.25
3652.29	-35.25
3655.055	-39.25
3657.818	-44.25
3660.579	-46.25
3663.338	-49.25
3666.095	-51.25
3668.849	-55.25
3671.602	-57.25
3674.352	-56.25
3677.101	-61.25
3679.847	-63.25
3682.591	-65.25
3685.333	-64.25
3688.073	-71.25
3690.811	-76.25
3693.547	-73.25
3696.281	-75.25
3699.013	-75.25
3701.742	-77.25
3704.47	-73.25
3707.195	-82.25
3709.919	-84.25
3712.64	-85.25
3715.359	-83.25
3718.076	-88.25
3720.792	-88.25
3723.505	-85.25
3726.216	-85.25
3728.925	-87.25
3731.632	-93.25
3734.336	-91.25
3737.039	-92.25
3739.74	-88.25
3742.439	-96.25
3745.136	-95.25
3747.83	-97.25
3750.523	-96.25
3753.213	-95.25
3755.902	-103.25
3758.589	-97.25
3761.273	-101.25
3763.956	-102.25
3766.636	-98.25
3769.315	-95.25
3771.991	-101.25
3774.665	-103.25
3777.338	-101.25
3780.008	-104.25
3782.677	-99.25
3785.343	-106.25
3788.007	-104.25
3790.67	-108.25
3793.33	-105.25
3795.989	-105.25
3798.645	-102.25
3801.299	-105.25
3803.952	-104.25
3806.602	-105.25
3809.251	-105.25
3811.897	-106.25
3814.542	-107.25
3817.184	-108.25
3819.825	-101.25
3822.463	-106.25
3825.1	-105.25
3827.735	-107.25
3830.367	-109.25
3832.998	-109.25
3835.627	-112.25
3838.253	-112.25
3840.878	-111.25
3843.501	-109.25
3846.122	-109.25
3848.741	-109.25
3851.358	-106.25
3853.973	-108.25
3856.586	-108.25
3859.197	-111.25
3861.806	-112.25
3864.414	-112.25
3867.019	-111.25
3869.622	-112.25
3872.224	-113.25
3874.823	-110.25
3877.421	-103.25
3880.016	-106.25
3882.61	-103.25
3885.202	-104.25
3887.792	-103.25
3890.38	-108.25
3892.966	-110.25
3895.55	-110.25
3898.132	-111.25
3900.713	-113.25
3903.291	-107.25
3905.868	-109.25
3908.442	-108.25
3911.015	-115.25
3913.586	-116.25
3916.155	-116.25
3918.722	-114.25
3921.287	-114.25
3923.85	-117.25
3926.411	-115.25
3928.971	-112.25
3931.528	-109.25
3934.084	-111.25
3936.638	-112.25
3939.19	-112.25
3941.74	-110.25
3944.288	-116.25
3946.834	-113.25
3949.378	-115.25
3951.921	-111.25
3954.462	-115.25
3957	-113.25
3959.537	-112.25
3962.072	-117.25
3964.606	-114.25
3967.137	-111.25
3969.667	-109.25
3972.194	-111.25
3974.72	-111.25
3977.244	-109.25
3979.766	-111.25
3982.286	-110.25
3984.805	-111.25
3987.321	-111.25
3989.836	-112.25
3992.349	-115.25
3994.86	-113.25
3997.369	-114.25
3999.877	-118.25
4002.382	-114.25
4004.886	-109.25
4007.388	-112.25
4009.888	-115.25
4012.386	-112.25
4014.883	-108.25
4017.377	-108.25
4019.87	-114.25
4022.361	-111.25
4024.85	-113.25
4027.338	-113.25
4029.823	-114.25
4032.307	-112.25
4034.789	-116.25
4037.269	-111.25
4039.747	-111.25
4042.224	-114.25
4044.699	-116.25
4047.172	-110.25
4049.643	-116.25
4052.112	-118.25
4054.58	-110.25
4057.046	-110.25
4059.51	-114.25
4061.972	-111.25
4064.432	-113.25
4066.891	-112.25
4069.348	-110.25
4071.803	-114.25
4074.256	-113.25
4076.708	-116.25
4079.158	-114.25
4081.606	-112.25
4084.052	-113.25
4086.497	-112.25
4088.939	-109.25
4091.38	-111.25
4093.819	-112.25
4096.257	-116.25
4098.693	-115.25
4101.127	-115.25
4103.559	-114.25
4105.989	-69.25
4108.418	-72.25
4110.845	-70.25
4113.27	-61.25
4115.694	-54.25
4118.115	-43.25
4120.535	-111.25
4122.954	-110.25
4125.37	-112.25
4127.785	-114.25
4130.198	-117.25
4132.609	-113.25
4135.019	-117.25
4137.427	-120.25
4139.833	-117.25
4142.237	-117.25
