Data from Bsub_water_DIL106_A_1_RamanShift_1.txt Node
Date: Wed Feb 22 12:50:06 IST 2017
User: aro
Spectrometer: QEPB0276
Trigger mode: 0
Integration Time (sec): 5.000000E0
Scans to average: 1
Electric dark correction enabled: true
Nonlinearity correction enabled: false
Boxcar width: 0
XAxis mode: Raman Shifts
Number of Pixels in Spectrum: 1044
>>>>>Begin Spectral Data<<<<<
160.701	-29.38
166.742	3.62
172.777	98.62
178.805	387.62
184.826	1091.62
190.841	2230.62
196.849	3554.62
202.85	4447.62
208.845	4667.62
214.833	4511.62
220.815	4374.62
226.789	4241.62
232.758	4137.62
238.719	4046.62
244.674	3910.62
250.623	3768.62
256.565	3611.62
262.5	3451.62
268.429	3315.62
274.351	3180.62
280.267	3089.62
286.176	2991.62
292.079	2893.62
297.975	2828.62
303.865	2747.62
309.748	2679.62
315.625	2619.62
321.495	2545.62
327.359	2548.62
333.217	2531.62
339.068	2508.62
344.912	2485.62
350.751	2475.62
356.583	2475.62
362.408	2489.62
368.227	2471.62
374.04	2472.62
379.847	2470.62
385.647	2510.62
391.44	2513.62
397.228	2534.62
403.009	2523.62
408.784	2557.62
414.553	2550.62
420.315	2563.62
426.071	2549.62
431.821	2559.62
437.565	2568.62
443.302	2570.62
449.033	2565.62
454.758	2554.62
460.477	2509.62
466.189	2544.62
471.896	2514.62
477.596	2515.62
483.29	2498.62
488.978	2499.62
494.66	2480.62
500.335	2465.62
506.005	2420.62
511.668	2389.62
517.325	2337.62
522.977	2339.62
528.622	2310.62
534.261	2279.62
539.894	2276.62
545.521	2253.62
551.141	2238.62
556.756	2209.62
562.365	2217.62
567.968	2197.62
573.565	2213.62
579.155	2178.62
584.74	2179.62
590.319	2160.62
595.892	2151.62
601.459	2140.62
607.02	2117.62
612.575	2114.62
618.124	2077.62
623.667	2067.62
629.204	2062.62
634.735	2035.62
640.261	2037.62
645.781	2018.62
651.294	2020.62
656.802	2027.62
662.304	1998.62
667.8	1989.62
673.29	1984.62
678.775	2007.62
684.254	1992.62
689.726	1973.62
695.193	1962.62
700.655	1962.62
706.11	1970.62
711.56	1932.62
717.004	1935.62
722.442	1947.62
727.874	1895.62
733.301	1906.62
738.722	1899.62
744.137	1877.62
749.547	1877.62
754.951	1874.62
760.349	1883.62
765.741	1880.62
771.128	1889.62
776.509	1873.62
781.885	1873.62
787.254	1902.62
792.618	1870.62
797.977	1869.62
803.33	1848.62
808.677	1845.62
814.019	1839.62
819.355	1801.62
824.686	1787.62
830.011	1766.62
835.33	1778.62
840.644	1779.62
845.952	1773.62
851.255	1783.62
856.552	1766.62
861.844	1743.62
867.13	1748.62
872.41	1749.62
877.686	1722.62
882.955	1714.62
888.219	1696.62
893.478	1679.62
898.731	1638.62
903.979	1618.62
909.221	1596.62
914.458	1618.62
919.69	1602.62
924.916	1597.62
930.136	1613.62
935.351	1609.62
940.561	1595.62
945.766	1592.62
950.965	1595.62
956.158	1578.62
961.347	1561.62
966.529	1530.62
971.707	1516.62
976.879	1510.62
982.046	1481.62
987.208	1496.62
992.364	1490.62
997.515	1519.62
1002.66	1488.62
1007.801	1517.62
1012.936	1541.62
1018.066	1550.62
1023.19	1553.62
1028.309	1533.62
1033.423	1545.62
1038.532	1538.62
1043.636	1531.62
1048.734	1537.62
1053.827	1518.62
1058.915	1486.62
1063.998	1487.62
1069.075	1489.62
1074.147	1473.62
1079.214	1490.62
1084.276	1482.62
1089.333	1514.62
1094.385	1521.62
1099.431	1548.62
1104.472	1541.62
1109.509	1506.62
1114.54	1505.62
1119.565	1486.62
1124.586	1475.62
1129.602	1469.62
1134.613	1456.62
1139.618	1442.62
1144.619	1460.62
1149.614	1467.62
1154.604	1460.62
1159.589	1473.62
1164.57	1469.62
1169.545	1501.62
1174.515	1484.62
1179.48	1478.62
1184.44	1468.62
1189.395	1451.62
1194.345	1459.62
1199.29	1443.62
1204.23	1462.62
1209.165	1466.62
1214.095	1466.62
1219.021	1485.62
1223.941	1499.62
1228.856	1515.62
1233.766	1495.62
1238.672	1510.62
1243.572	1513.62
1248.467	1496.62
1253.358	1469.62
1258.244	1462.62
1263.124	1430.62
1268	1430.62
1272.871	1397.62
1277.737	1391.62
1282.599	1388.62
1287.455	1407.62
1292.306	1404.62
1297.153	1419.62
1301.995	1422.62
1306.832	1431.62
1311.664	1434.62
1316.491	1425.62
1321.314	1428.62
1326.132	1409.62
1330.945	1393.62
1335.753	1366.62
1340.556	1343.62
1345.354	1316.62
1350.148	1298.62
1354.937	1299.62
1359.722	1287.62
1364.501	1322.62
1369.276	1343.62
1374.046	1359.62
1378.811	1374.62
1383.572	1362.62
1388.327	1365.62
1393.079	1348.62
1397.825	1338.62
1402.567	1313.62
1407.304	1305.62
1412.036	1287.62
1416.764	1283.62
1421.487	1268.62
1426.205	1274.62
1430.919	1280.62
1435.628	1268.62
1440.333	1297.62
1445.032	1299.62
1449.727	1312.62
1454.418	1312.62
1459.104	1295.62
1463.785	1288.62
1468.462	1287.62
1473.134	1271.62
1477.802	1278.62
1482.465	1268.62
1487.123	1253.62
1491.777	1254.62
1496.426	1264.62
1501.071	1280.62
1505.711	1314.62
1510.347	1317.62
1514.978	1349.62
1519.604	1370.62
1524.226	1372.62
1528.844	1386.62
1533.457	1384.62
1538.065	1376.62
1542.669	1376.62
1547.269	1370.62
1551.864	1373.62
1556.454	1372.62
1561.041	1380.62
1565.622	1390.62
1570.199	1395.62
1574.772	1400.62
1579.34	1434.62
1583.904	1423.62
1588.464	1450.62
1593.019	1455.62
1597.569	1469.62
1602.115	1494.62
1606.657	1505.62
1611.195	1490.62
1615.728	1505.62
1620.256	1514.62
1624.78	1522.62
1629.3	1545.62
1633.816	1557.62
1638.327	1577.62
1642.834	1592.62
1647.336	1597.62
1651.834	1621.62
1656.328	1610.62
1660.817	1605.62
1665.302	1588.62
1669.783	1571.62
1674.259	1513.62
1678.732	1486.62
1683.199	1423.62
1687.663	1372.62
1692.122	1334.62
1696.577	1291.62
1701.028	1291.62
1705.474	1274.62
1709.917	1266.62
1714.355	1252.62
1718.788	1216.62
1723.218	1191.62
1727.643	1173.62
1732.064	1133.62
1736.481	1108.62
1740.893	1110.62
1745.301	1072.62
1749.705	1044.62
1754.105	1004.62
1758.501	991.62
1762.893	966.62
1767.28	951.62
1771.663	933.62
1776.042	952.62
1780.417	936.62
1784.787	947.62
1789.154	954.62
1793.516	966.62
1797.874	969.62
1802.228	979.62
1806.578	971.62
1810.924	971.62
1815.266	976.62
1819.603	945.62
1823.937	928.62
1828.266	915.62
1832.591	906.62
1836.913	898.62
1841.23	882.62
1845.543	891.62
1849.852	870.62
1854.156	878.62
1858.457	890.62
1862.754	892.62
1867.047	877.62
1871.335	893.62
1875.62	885.62
1879.9	885.62
1884.177	884.62
1888.449	878.62
1892.718	867.62
1896.982	868.62
1901.243	882.62
1905.499	864.62
1909.752	863.62
1914	867.62
1918.245	869.62
1922.485	883.62
1926.722	885.62
1930.954	895.62
1935.183	889.62
1939.408	904.62
1943.628	904.62
1947.845	888.62
1952.058	914.62
1956.267	899.62
1960.472	893.62
1964.673	884.62
1968.87	871.62
1973.063	860.62
1977.252	862.62
1981.438	867.62
1985.619	851.62
1989.797	847.62
1993.971	838.62
1998.14	854.62
2002.306	838.62
2006.469	852.62
2010.627	844.62
2014.781	845.62
2018.932	853.62
2023.078	841.62
2027.221	826.62
2031.36	827.62
2035.495	812.62
2039.627	821.62
2043.754	807.62
2047.878	803.62
2051.998	811.62
2056.114	821.62
2060.226	812.62
2064.334	807.62
2068.439	821.62
2072.54	818.62
2076.637	812.62
2080.73	830.62
2084.82	830.62
2088.906	839.62
2092.988	828.62
2097.066	828.62
2101.14	814.62
2105.211	816.62
2109.278	814.62
2113.342	810.62
2117.401	807.62
2121.457	816.62
2125.509	806.62
2129.558	812.62
2133.602	799.62
2137.643	791.62
2141.681	792.62
2145.714	793.62
2149.744	790.62
2153.77	779.62
2157.793	773.62
2161.812	754.62
2165.827	755.62
2169.838	756.62
2173.846	741.62
2177.851	712.62
2181.851	714.62
2185.848	700.62
2189.841	697.62
2193.831	689.62
2197.817	686.62
2201.799	692.62
2205.778	677.62
2209.753	671.62
2213.725	675.62
2217.693	672.62
2221.657	667.62
2225.618	676.62
2229.575	663.62
2233.529	665.62
2237.479	664.62
2241.425	652.62
2245.368	654.62
2249.307	639.62
2253.243	635.62
2257.175	631.62
2261.104	615.62
2265.029	619.62
2268.95	603.62
2272.868	592.62
2276.783	588.62
2280.694	589.62
2284.601	581.62
2288.505	577.62
2292.405	557.62
2296.302	560.62
2300.195	556.62
2304.085	549.62
2307.971	545.62
2311.854	533.62
2315.734	519.62
2319.609	512.62
2323.482	502.62
2327.351	497.62
2331.216	492.62
2335.078	488.62
2338.937	489.62
2342.792	480.62
2346.643	486.62
2350.492	479.62
2354.336	482.62
2358.178	473.62
2362.015	472.62
2365.85	488.62
2369.681	470.62
2373.508	483.62
2377.333	474.62
2381.153	470.62
2384.971	473.62
2388.785	469.62
2392.595	466.62
2396.402	462.62
2400.206	462.62
2404.007	457.62
2407.804	454.62
2411.597	453.62
2415.388	461.62
2419.174	455.62
2422.958	444.62
2426.738	443.62
2430.515	441.62
2434.289	433.62
2438.059	438.62
2441.825	432.62
2445.589	427.62
2449.349	424.62
2453.106	424.62
2456.859	425.62
2460.61	411.62
2464.356	412.62
2468.1	412.62
2471.84	419.62
2475.577	405.62
2479.311	403.62
2483.041	397.62
2486.768	396.62
2490.492	406.62
2494.213	406.62
2497.93	396.62
2501.644	408.62
2505.355	399.62
2509.062	398.62
2512.766	403.62
2516.467	389.62
2520.165	393.62
2523.859	386.62
2527.551	386.62
2531.239	388.62
2534.923	395.62
2538.605	387.62
2542.283	383.62
2545.958	388.62
2549.63	385.62
2553.299	379.62
2556.964	384.62
2560.626	360.62
2564.285	367.62
2567.941	362.62
2571.594	367.62
2575.243	353.62
2578.89	365.62
2582.533	361.62
2586.173	357.62
2589.809	354.62
2593.443	354.62
2597.073	357.62
2600.701	341.62
2604.325	346.62
2607.946	346.62
2611.564	334.62
2615.178	340.62
2618.79	346.62
2622.398	342.62
2626.004	333.62
2629.606	331.62
2633.205	326.62
2636.801	331.62
2640.394	328.62
2643.983	319.62
2647.57	311.62
2651.153	310.62
2654.734	296.62
2658.311	303.62
2661.885	307.62
2665.456	292.62
2669.025	297.62
2672.589	289.62
2676.151	296.62
2679.71	289.62
2683.266	277.62
2686.819	299.62
2690.368	285.62
2693.915	280.62
2697.458	281.62
2700.999	265.62
2704.536	261.62
2708.071	272.62
2711.602	267.62
2715.13	251.62
2718.656	256.62
2722.178	240.62
2725.697	245.62
2729.214	246.62
2732.727	257.62
2736.237	262.62
2739.744	269.62
2743.249	263.62
2746.75	257.62
2750.248	257.62
2753.743	265.62
2757.236	259.62
2760.725	264.62
2764.211	264.62
2767.695	262.62
2771.175	269.62
2774.652	262.62
2778.127	266.62
2781.598	260.62
2785.067	253.62
2788.532	262.62
2791.995	254.62
2795.455	257.62
2798.911	260.62
2802.365	261.62
2805.816	250.62
2809.264	254.62
2812.709	257.62
2816.151	256.62
2819.59	251.62
2823.026	255.62
2826.46	254.62
2829.89	249.62
2833.318	253.62
2836.742	259.62
2840.164	259.62
2843.583	266.62
2846.999	271.62
2850.412	264.62
2853.822	260.62
2857.229	261.62
2860.634	267.62
2864.035	271.62
2867.434	271.62
2870.83	270.62
2874.223	277.62
2877.613	279.62
2881	282.62
2884.385	291.62
2887.766	278.62
2891.145	283.62
2894.521	274.62
2897.894	281.62
2901.264	275.62
2904.631	284.62
2907.996	277.62
2911.358	286.62
2914.717	281.62
2918.073	290.62
2921.426	286.62
2924.777	294.62
2928.124	292.62
2931.469	309.62
2934.811	307.62
2938.15	312.62
2941.487	309.62
2944.821	321.62
2948.152	323.62
2951.48	323.62
2954.805	337.62
2958.128	334.62
2961.447	335.62
2964.765	351.62
2968.079	350.62
2971.39	354.62
2974.699	375.62
2978.005	373.62
2981.308	379.62
2984.609	400.62
2987.907	404.62
2991.202	410.62
2994.494	427.62
2997.784	438.62
3001.07	436.62
3004.355	456.62
3007.636	468.62
3010.915	473.62
3014.191	497.62
3017.464	494.62
3020.734	505.62
3024.002	506.62
3027.267	518.62
3030.53	521.62
3033.789	526.62
3037.046	536.62
3040.301	545.62
3043.552	546.62
3046.801	568.62
3050.048	591.62
3053.291	587.62
3056.532	612.62
3059.771	623.62
3063.006	655.62
3066.239	667.62
3069.469	692.62
3072.697	699.62
3075.922	721.62
3079.144	728.62
3082.364	750.62
3085.581	771.62
3088.795	784.62
3092.007	795.62
3095.216	824.62
3098.423	836.62
3101.627	859.62
3104.828	885.62
3108.026	899.62
3111.222	918.62
3114.416	944.62
3117.607	951.62
3120.795	955.62
3123.98	1002.62
3127.163	1013.62
3130.344	1029.62
3133.521	1062.62
3136.696	1080.62
3139.869	1113.62
3143.039	1130.62
3146.206	1141.62
3149.371	1134.62
3152.533	1151.62
3155.693	1176.62
3158.85	1163.62
3162.005	1173.62
3165.157	1179.62
3168.306	1198.62
3171.453	1205.62
3174.597	1206.62
3177.739	1216.62
3180.878	1217.62
3184.014	1204.62
3187.149	1229.62
3190.28	1224.62
3193.409	1219.62
3196.536	1218.62
3199.659	1227.62
3202.781	1232.62
3205.9	1230.62
3209.016	1229.62
3212.13	1222.62
3215.241	1227.62
3218.35	1218.62
3221.456	1196.62
3224.56	1194.62
3227.661	1188.62
3230.76	1191.62
3233.856	1176.62
3236.95	1163.62
3240.041	1156.62
3243.13	1162.62
3246.216	1151.62
3249.3	1132.62
3252.382	1132.62
3255.46	1133.62
3258.537	1116.62
3261.611	1128.62
3264.682	1121.62
3267.751	1115.62
3270.818	1099.62
3273.882	1105.62
3276.943	1089.62
3280.002	1093.62
3283.059	1075.62
3286.113	1076.62
3289.165	1049.62
3292.214	1036.62
3295.261	1022.62
3298.306	993.62
3301.348	989.62
3304.387	974.62
3307.425	951.62
3310.459	953.62
3313.492	918.62
3316.521	931.62
3319.549	913.62
3322.574	903.62
3325.597	905.62
3328.617	881.62
3331.635	869.62
3334.65	882.62
3337.663	877.62
3340.674	863.62
3343.682	855.62
3346.688	858.62
3349.691	859.62
3352.692	841.62
3355.691	843.62
3358.687	843.62
3361.681	825.62
3364.673	803.62
3367.662	799.62
3370.649	796.62
3373.633	774.62
3376.615	771.62
3379.595	761.62
3382.572	745.62
3385.547	743.62
3388.52	742.62
3391.49	731.62
3394.458	720.62
3397.424	702.62
3400.387	695.62
3403.348	694.62
3406.307	675.62
3409.263	664.62
3412.217	670.62
3415.168	657.62
3418.118	650.62
3421.065	653.62
3424.009	637.62
3426.951	646.62
3429.891	632.62
3432.829	604.62
3435.764	606.62
3438.697	587.62
3441.628	563.62
3444.557	557.62
3447.483	549.62
3450.407	537.62
3453.328	509.62
3456.247	495.62
3459.164	482.62
3462.079	477.62
3464.991	467.62
3467.902	455.62
3470.809	440.62
3473.715	428.62
3476.618	408.62
3479.519	400.62
3482.418	389.62
3485.315	381.62
3488.209	374.62
3491.101	366.62
3493.99	345.62
3496.878	345.62
3499.763	337.62
3502.646	320.62
3505.527	311.62
3508.405	295.62
3511.281	281.62
3514.155	278.62
3517.027	266.62
3519.897	263.62
3522.764	246.62
3525.629	232.62
3528.492	218.62
3531.352	203.62
3534.211	191.62
3537.067	182.62
3539.921	176.62
3542.773	162.62
3545.622	153.62
3548.469	140.62
3551.315	140.62
3554.157	130.62
3556.998	136.62
3559.837	116.62
3562.673	110.62
3565.507	106.62
3568.339	94.62
3571.169	93.62
3573.996	84.62
3576.822	74.62
3579.645	76.62
3582.466	70.62
3585.285	63.62
3588.101	53.62
3590.916	46.62
3593.728	45.62
3596.538	38.62
3599.346	40.62
3602.152	29.62
3604.956	26.62
3607.757	16.62
3610.556	14.62
3613.354	14.62
3616.149	8.62
3618.942	1.62
3621.732	0.62
3624.521	-8.38
3627.307	-9.38
3630.092	-8.38
3632.874	-12.38
3635.654	-15.38
3638.432	-19.38
3641.208	-22.38
3643.982	-23.38
3646.753	-27.38
3649.523	-24.38
3652.29	-28.38
3655.055	-37.38
3657.818	-42.38
3660.579	-43.38
3663.338	-47.38
3666.095	-47.38
3668.849	-53.38
3671.602	-51.38
3674.352	-59.38
3677.101	-59.38
3679.847	-57.38
3682.591	-56.38
3685.333	-67.38
3688.073	-64.38
3690.811	-63.38
3693.547	-70.38
3696.281	-71.38
3699.013	-71.38
3701.742	-73.38
3704.47	-73.38
3707.195	-78.38
3709.919	-77.38
3712.64	-78.38
3715.359	-76.38
3718.076	-78.38
3720.792	-80.38
3723.505	-80.38
3726.216	-81.38
3728.925	-81.38
3731.632	-83.38
3734.336	-85.38
3737.039	-83.38
3739.74	-84.38
3742.439	-91.38
3745.136	-89.38
3747.83	-91.38
3750.523	-91.38
3753.213	-94.38
3755.902	-93.38
3758.589	-91.38
3761.273	-90.38
3763.956	-90.38
3766.636	-92.38
3769.315	-89.38
3771.991	-91.38
3774.665	-96.38
3777.338	-100.38
3780.008	-97.38
3782.677	-97.38
3785.343	-101.38
3788.007	-98.38
3790.67	-99.38
3793.33	-100.38
3795.989	-101.38
3798.645	-100.38
3801.299	-99.38
3803.952	-103.38
3806.602	-98.38
3809.251	-100.38
3811.897	-102.38
3814.542	-102.38
3817.184	-100.38
3819.825	-97.38
3822.463	-101.38
3825.1	-99.38
3827.735	-100.38
3830.367	-105.38
3832.998	-105.38
3835.627	-104.38
3838.253	-100.38
3840.878	-106.38
3843.501	-103.38
3846.122	-102.38
3848.741	-99.38
3851.358	-100.38
3853.973	-104.38
3856.586	-106.38
3859.197	-106.38
3861.806	-109.38
3864.414	-108.38
3867.019	-108.38
3869.622	-108.38
3872.224	-107.38
3874.823	-104.38
3877.421	-97.38
3880.016	-100.38
3882.61	-96.38
3885.202	-97.38
3887.792	-99.38
3890.38	-100.38
3892.966	-107.38
3895.55	-106.38
3898.132	-106.38
3900.713	-109.38
3903.291	-105.38
3905.868	-105.38
3908.442	-104.38
3911.015	-111.38
3913.586	-106.38
3916.155	-107.38
3918.722	-106.38
3921.287	-105.38
3923.85	-107.38
3926.411	-108.38
3928.971	-108.38
3931.528	-107.38
3934.084	-104.38
3936.638	-107.38
3939.19	-111.38
3941.74	-112.38
3944.288	-113.38
3946.834	-107.38
3949.378	-110.38
3951.921	-108.38
3954.462	-107.38
3957	-107.38
3959.537	-102.38
3962.072	-108.38
3964.606	-110.38
3967.137	-105.38
3969.667	-107.38
3972.194	-109.38
3974.72	-111.38
3977.244	-107.38
3979.766	-107.38
3982.286	-109.38
3984.805	-109.38
3987.321	-103.38
3989.836	-109.38
3992.349	-106.38
3994.86	-107.38
3997.369	-108.38
3999.877	-109.38
4002.382	-105.38
4004.886	-107.38
4007.388	-108.38
4009.888	-109.38
4012.386	-107.38
4014.883	-107.38
4017.377	-108.38
4019.87	-112.38
4022.361	-106.38
4024.85	-110.38
4027.338	-107.38
4029.823	-108.38
4032.307	-102.38
4034.789	-106.38
4037.269	-103.38
4039.747	-103.38
4042.224	-108.38
4044.699	-112.38
4047.172	-106.38
4049.643	-112.38
4052.112	-111.38
4054.58	-110.38
4057.046	-106.38
4059.51	-105.38
4061.972	-102.38
4064.432	-109.38
4066.891	-105.38
4069.348	-105.38
4071.803	-106.38
4074.256	-109.38
4076.708	-110.38
4079.158	-112.38
4081.606	-106.38
4084.052	-110.38
4086.497	-105.38
4088.939	-105.38
4091.38	-104.38
4093.819	-110.38
4096.257	-109.38
4098.693	-110.38
4101.127	-110.38
4103.559	-108.38
4105.989	-68.38
4108.418	-67.38
4110.845	-64.38
4113.27	-62.38
4115.694	-50.38
4118.115	-42.38
4120.535	-106.38
4122.954	-103.38
4125.37	-107.38
4127.785	-109.38
4130.198	-110.38
4132.609	-110.38
4135.019	-114.38
4137.427	-115.38
4139.833	-117.38
4142.237	-113.38
