Data from Bsub_water_DIL105_B_1_RamanShift_1.txt Node
Date: Wed Feb 22 13:21:46 IST 2017
User: aro
Spectrometer: QEPB0276
Trigger mode: 0
Integration Time (sec): 5.000000E0
Scans to average: 1
Electric dark correction enabled: true
Nonlinearity correction enabled: false
Boxcar width: 0
XAxis mode: Raman Shifts
Number of Pixels in Spectrum: 1044
>>>>>Begin Spectral Data<<<<<
160.701	-33.12
166.742	3.88
172.777	100.88
178.805	407.88
184.826	1168.88
190.841	2430.88
196.849	3857.88
202.85	4803.88
208.845	5039.88
214.833	4867.88
220.815	4685.88
226.789	4517.88
232.758	4380.88
238.719	4242.88
244.674	4048.88
250.623	3884.88
256.565	3674.88
262.5	3479.88
268.429	3315.88
274.351	3164.88
280.267	3024.88
286.176	2885.88
292.079	2790.88
297.975	2677.88
303.865	2579.88
309.748	2509.88
315.625	2440.88
321.495	2389.88
327.359	2360.88
333.217	2322.88
339.068	2297.88
344.912	2280.88
350.751	2280.88
356.583	2249.88
362.408	2264.88
368.227	2264.88
374.04	2280.88
379.847	2295.88
385.647	2311.88
391.44	2297.88
397.228	2302.88
403.009	2352.88
408.784	2375.88
414.553	2367.88
420.315	2372.88
426.071	2380.88
431.821	2376.88
437.565	2367.88
443.302	2356.88
449.033	2360.88
454.758	2339.88
460.477	2322.88
466.189	2332.88
471.896	2318.88
477.596	2284.88
483.29	2291.88
488.978	2255.88
494.66	2228.88
500.335	2209.88
506.005	2175.88
511.668	2131.88
517.325	2080.88
522.977	2041.88
528.622	2017.88
534.261	2001.88
539.894	1971.88
545.521	1964.88
551.141	1940.88
556.756	1909.88
562.365	1898.88
567.968	1894.88
573.565	1887.88
579.155	1867.88
584.74	1834.88
590.319	1818.88
595.892	1824.88
601.459	1813.88
607.02	1788.88
612.575	1795.88
618.124	1745.88
623.667	1747.88
629.204	1724.88
634.735	1711.88
640.261	1686.88
645.781	1687.88
651.294	1674.88
656.802	1677.88
662.304	1639.88
667.8	1633.88
673.29	1619.88
678.775	1624.88
684.254	1610.88
689.726	1609.88
695.193	1590.88
700.655	1583.88
706.11	1577.88
711.56	1563.88
717.004	1534.88
722.442	1543.88
727.874	1526.88
733.301	1514.88
738.722	1491.88
744.137	1484.88
749.547	1472.88
754.951	1492.88
760.349	1469.88
765.741	1470.88
771.128	1464.88
776.509	1471.88
781.885	1462.88
787.254	1467.88
792.618	1447.88
797.977	1452.88
803.33	1422.88
808.677	1414.88
814.019	1414.88
819.355	1376.88
824.686	1366.88
830.011	1349.88
835.33	1346.88
840.644	1319.88
845.952	1310.88
851.255	1311.88
856.552	1302.88
861.844	1276.88
867.13	1281.88
872.41	1261.88
877.686	1257.88
882.955	1232.88
888.219	1221.88
893.478	1189.88
898.731	1165.88
903.979	1149.88
909.221	1116.88
914.458	1114.88
919.69	1102.88
924.916	1102.88
930.136	1093.88
935.351	1088.88
940.561	1084.88
945.766	1063.88
950.965	1072.88
956.158	1057.88
961.347	1043.88
966.529	1028.88
971.707	1003.88
976.879	1000.88
982.046	973.88
987.208	969.88
992.364	963.88
997.515	983.88
1002.66	982.88
1007.801	994.88
1012.936	978.88
1018.066	1000.88
1023.19	1014.88
1028.309	1006.88
1033.423	999.88
1038.532	989.88
1043.636	995.88
1048.734	982.88
1053.827	966.88
1058.915	949.88
1063.998	944.88
1069.075	946.88
1074.147	941.88
1079.214	943.88
1084.276	955.88
1089.333	959.88
1094.385	970.88
1099.431	980.88
1104.472	968.88
1109.509	975.88
1114.54	953.88
1119.565	952.88
1124.586	921.88
1129.602	911.88
1134.613	912.88
1139.618	897.88
1144.619	912.88
1149.614	924.88
1154.604	914.88
1159.589	921.88
1164.57	903.88
1169.545	922.88
1174.515	928.88
1179.48	917.88
1184.44	920.88
1189.395	903.88
1194.345	903.88
1199.29	902.88
1204.23	892.88
1209.165	905.88
1214.095	904.88
1219.021	908.88
1223.941	911.88
1228.856	931.88
1233.766	933.88
1238.672	925.88
1243.572	924.88
1248.467	919.88
1253.358	896.88
1258.244	878.88
1263.124	879.88
1268	865.88
1272.871	858.88
1277.737	849.88
1282.599	834.88
1287.455	857.88
1292.306	853.88
1297.153	853.88
1301.995	864.88
1306.832	853.88
1311.664	873.88
1316.491	856.88
1321.314	851.88
1326.132	845.88
1330.945	833.88
1335.753	820.88
1340.556	795.88
1345.354	795.88
1350.148	764.88
1354.937	763.88
1359.722	771.88
1364.501	793.88
1369.276	783.88
1374.046	811.88
1378.811	809.88
1383.572	807.88
1388.327	801.88
1393.079	783.88
1397.825	775.88
1402.567	759.88
1407.304	762.88
1412.036	748.88
1416.764	752.88
1421.487	746.88
1426.205	739.88
1430.919	737.88
1435.628	753.88
1440.333	763.88
1445.032	758.88
1449.727	772.88
1454.418	769.88
1459.104	775.88
1463.785	762.88
1468.462	746.88
1473.134	735.88
1477.802	743.88
1482.465	730.88
1487.123	731.88
1491.777	730.88
1496.426	747.88
1501.071	749.88
1505.711	768.88
1510.347	804.88
1514.978	794.88
1519.604	812.88
1524.226	808.88
1528.844	822.88
1533.457	823.88
1538.065	825.88
1542.669	824.88
1547.269	824.88
1551.864	830.88
1556.454	840.88
1561.041	843.88
1565.622	862.88
1570.199	879.88
1574.772	881.88
1579.34	902.88
1583.904	932.88
1588.464	947.88
1593.019	963.88
1597.569	993.88
1602.115	997.88
1606.657	1012.88
1611.195	1027.88
1615.728	1047.88
1620.256	1050.88
1624.78	1074.88
1629.3	1099.88
1633.816	1142.88
1638.327	1133.88
1642.834	1159.88
1647.336	1173.88
1651.834	1169.88
1656.328	1164.88
1660.817	1163.88
1665.302	1140.88
1669.783	1111.88
1674.259	1066.88
1678.732	1028.88
1683.199	980.88
1687.663	915.88
1692.122	872.88
1696.577	850.88
1701.028	823.88
1705.474	803.88
1709.917	788.88
1714.355	748.88
1718.788	727.88
1723.218	692.88
1727.643	662.88
1732.064	650.88
1736.481	608.88
1740.893	596.88
1745.301	567.88
1749.705	540.88
1754.105	514.88
1758.501	502.88
1762.893	491.88
1767.28	478.88
1771.663	458.88
1776.042	461.88
1780.417	451.88
1784.787	472.88
1789.154	461.88
1793.516	460.88
1797.874	473.88
1802.228	459.88
1806.578	457.88
1810.924	459.88
1815.266	451.88
1819.603	442.88
1823.937	429.88
1828.266	417.88
1832.591	417.88
1836.913	409.88
1841.23	403.88
1845.543	398.88
1849.852	396.88
1854.156	398.88
1858.457	389.88
1862.754	400.88
1867.047	391.88
1871.335	399.88
1875.62	405.88
1879.9	402.88
1884.177	398.88
1888.449	403.88
1892.718	400.88
1896.982	401.88
1901.243	393.88
1905.499	397.88
1909.752	389.88
1914	393.88
1918.245	401.88
1922.485	395.88
1926.722	405.88
1930.954	415.88
1935.183	415.88
1939.408	410.88
1943.628	416.88
1947.845	417.88
1952.058	419.88
1956.267	427.88
1960.472	405.88
1964.673	408.88
1968.87	409.88
1973.063	400.88
1977.252	400.88
1981.438	403.88
1985.619	398.88
1989.797	390.88
1993.971	392.88
1998.14	391.88
2002.306	392.88
2006.469	397.88
2010.627	399.88
2014.781	410.88
2018.932	402.88
2023.078	407.88
2027.221	403.88
2031.36	407.88
2035.495	402.88
2039.627	399.88
2043.754	397.88
2047.878	392.88
2051.998	388.88
2056.114	392.88
2060.226	399.88
2064.334	398.88
2068.439	402.88
2072.54	414.88
2076.637	417.88
2080.73	410.88
2084.82	420.88
2088.906	423.88
2092.988	432.88
2097.066	421.88
2101.14	414.88
2105.211	430.88
2109.278	423.88
2113.342	417.88
2117.401	409.88
2121.457	418.88
2125.509	413.88
2129.558	408.88
2133.602	410.88
2137.643	407.88
2141.681	405.88
2145.714	404.88
2149.744	394.88
2153.77	401.88
2157.793	380.88
2161.812	376.88
2165.827	375.88
2169.838	375.88
2173.846	362.88
2177.851	354.88
2181.851	342.88
2185.848	335.88
2189.841	341.88
2193.831	334.88
2197.817	330.88
2201.799	333.88
2205.778	313.88
2209.753	318.88
2213.725	331.88
2217.693	328.88
2221.657	318.88
2225.618	318.88
2229.575	319.88
2233.529	301.88
2237.479	303.88
2241.425	312.88
2245.368	296.88
2249.307	289.88
2253.243	284.88
2257.175	280.88
2261.104	266.88
2265.029	273.88
2268.95	272.88
2272.868	259.88
2276.783	254.88
2280.694	248.88
2284.601	245.88
2288.505	236.88
2292.405	243.88
2296.302	238.88
2300.195	229.88
2304.085	231.88
2307.971	214.88
2311.854	219.88
2315.734	217.88
2319.609	209.88
2323.482	201.88
2327.351	199.88
2331.216	207.88
2335.078	198.88
2338.937	189.88
2342.792	192.88
2346.643	181.88
2350.492	179.88
2354.336	183.88
2358.178	184.88
2362.015	179.88
2365.85	187.88
2369.681	184.88
2373.508	187.88
2377.333	179.88
2381.153	177.88
2384.971	188.88
2388.785	175.88
2392.595	171.88
2396.402	178.88
2400.206	160.88
2404.007	167.88
2407.804	162.88
2411.597	166.88
2415.388	166.88
2419.174	159.88
2422.958	158.88
2426.738	156.88
2430.515	155.88
2434.289	153.88
2438.059	155.88
2441.825	155.88
2445.589	157.88
2449.349	159.88
2453.106	147.88
2456.859	146.88
2460.61	143.88
2464.356	142.88
2468.1	142.88
2471.84	139.88
2475.577	126.88
2479.311	133.88
2483.041	131.88
2486.768	129.88
2490.492	133.88
2494.213	141.88
2497.93	141.88
2501.644	139.88
2505.355	133.88
2509.062	145.88
2512.766	132.88
2516.467	133.88
2520.165	126.88
2523.859	128.88
2527.551	125.88
2531.239	119.88
2534.923	117.88
2538.605	129.88
2542.283	121.88
2545.958	124.88
2549.63	122.88
2553.299	122.88
2556.964	116.88
2560.626	113.88
2564.285	118.88
2567.941	112.88
2571.594	116.88
2575.243	115.88
2578.89	119.88
2582.533	112.88
2586.173	108.88
2589.809	108.88
2593.443	112.88
2597.073	96.88
2600.701	99.88
2604.325	98.88
2607.946	93.88
2611.564	100.88
2615.178	92.88
2618.79	107.88
2622.398	99.88
2626.004	101.88
2629.606	103.88
2633.205	91.88
2636.801	95.88
2640.394	92.88
2643.983	84.88
2647.57	81.88
2651.153	80.88
2654.734	82.88
2658.311	81.88
2661.885	86.88
2665.456	83.88
2669.025	78.88
2672.589	81.88
2676.151	82.88
2679.71	79.88
2683.266	77.88
2686.819	77.88
2690.368	80.88
2693.915	70.88
2697.458	72.88
2700.999	75.88
2704.536	68.88
2708.071	65.88
2711.602	68.88
2715.13	60.88
2718.656	65.88
2722.178	63.88
2725.697	74.88
2729.214	72.88
2732.727	74.88
2736.237	78.88
2739.744	72.88
2743.249	73.88
2746.75	82.88
2750.248	77.88
2753.743	73.88
2757.236	73.88
2760.725	80.88
2764.211	78.88
2767.695	84.88
2771.175	86.88
2774.652	87.88
2778.127	85.88
2781.598	86.88
2785.067	86.88
2788.532	85.88
2791.995	88.88
2795.455	83.88
2798.911	87.88
2802.365	89.88
2805.816	93.88
2809.264	96.88
2812.709	96.88
2816.151	91.88
2819.59	93.88
2823.026	94.88
2826.46	99.88
2829.89	102.88
2833.318	105.88
2836.742	104.88
2840.164	115.88
2843.583	112.88
2846.999	119.88
2850.412	117.88
2853.822	122.88
2857.229	121.88
2860.634	126.88
2864.035	124.88
2867.434	125.88
2870.83	135.88
2874.223	142.88
2877.613	135.88
2881	149.88
2884.385	153.88
2887.766	161.88
2891.145	164.88
2894.521	161.88
2897.894	161.88
2901.264	159.88
2904.631	162.88
2907.996	171.88
2911.358	183.88
2914.717	182.88
2918.073	178.88
2921.426	192.88
2924.777	190.88
2928.124	193.88
2931.469	201.88
2934.811	202.88
2938.15	214.88
2941.487	219.88
2944.821	228.88
2948.152	241.88
2951.48	238.88
2954.805	254.88
2958.128	257.88
2961.447	262.88
2964.765	272.88
2968.079	279.88
2971.39	287.88
2974.699	300.88
2978.005	309.88
2981.308	326.88
2984.609	326.88
2987.907	347.88
2991.202	369.88
2994.494	372.88
2997.784	390.88
3001.07	418.88
3004.355	422.88
3007.636	428.88
3010.915	444.88
3014.191	448.88
3017.464	471.88
3020.734	468.88
3024.002	490.88
3027.267	498.88
3030.53	497.88
3033.789	519.88
3037.046	535.88
3040.301	535.88
3043.552	569.88
3046.801	579.88
3050.048	600.88
3053.291	615.88
3056.532	632.88
3059.771	652.88
3063.006	676.88
3066.239	701.88
3069.469	727.88
3072.697	746.88
3075.922	778.88
3079.144	780.88
3082.364	806.88
3085.581	839.88
3088.795	860.88
3092.007	871.88
3095.216	907.88
3098.423	924.88
3101.627	952.88
3104.828	986.88
3108.026	985.88
3111.222	1029.88
3114.416	1046.88
3117.607	1057.88
3120.795	1107.88
3123.98	1128.88
3127.163	1155.88
3130.344	1179.88
3133.521	1220.88
3136.696	1236.88
3139.869	1279.88
3143.039	1291.88
3146.206	1317.88
3149.371	1337.88
3152.533	1333.88
3155.693	1352.88
3158.85	1361.88
3162.005	1383.88
3165.157	1373.88
3168.306	1369.88
3171.453	1394.88
3174.597	1394.88
3177.739	1409.88
3180.878	1389.88
3184.014	1407.88
3187.149	1405.88
3190.28	1405.88
3193.409	1427.88
3196.536	1432.88
3199.659	1431.88
3202.781	1445.88
3205.9	1441.88
3209.016	1447.88
3212.13	1436.88
3215.241	1427.88
3218.35	1414.88
3221.456	1396.88
3224.56	1401.88
3227.661	1386.88
3230.76	1381.88
3233.856	1366.88
3236.95	1356.88
3240.041	1361.88
3243.13	1333.88
3246.216	1331.88
3249.3	1331.88
3252.382	1331.88
3255.46	1319.88
3258.537	1320.88
3261.611	1306.88
3264.682	1302.88
3267.751	1286.88
3270.818	1301.88
3273.882	1294.88
3276.943	1269.88
3280.002	1280.88
3283.059	1248.88
3286.113	1235.88
3289.165	1213.88
3292.214	1190.88
3295.261	1177.88
3298.306	1145.88
3301.348	1138.88
3304.387	1139.88
3307.425	1115.88
3310.459	1094.88
3313.492	1091.88
3316.521	1079.88
3319.549	1062.88
3322.574	1044.88
3325.597	1049.88
3328.617	1034.88
3331.635	1025.88
3334.65	1009.88
3337.663	1007.88
3340.674	997.88
3343.682	990.88
3346.688	1002.88
3349.691	1002.88
3352.692	1000.88
3355.691	983.88
3358.687	975.88
3361.681	965.88
3364.673	954.88
3367.662	937.88
3370.649	934.88
3373.633	919.88
3376.615	908.88
3379.595	890.88
3382.572	879.88
3385.547	873.88
3388.52	850.88
3391.49	858.88
3394.458	838.88
3397.424	824.88
3400.387	821.88
3403.348	801.88
3406.307	806.88
3409.263	790.88
3412.217	783.88
3415.168	772.88
3418.118	772.88
3421.065	747.88
3424.009	756.88
3426.951	736.88
3429.891	715.88
3432.829	709.88
3435.764	690.88
3438.697	677.88
3441.628	659.88
3444.557	654.88
3447.483	630.88
3450.407	627.88
3453.328	599.88
3456.247	589.88
3459.164	568.88
3462.079	559.88
3464.991	534.88
3467.902	521.88
3470.809	502.88
3473.715	486.88
3476.618	486.88
3479.519	471.88
3482.418	454.88
3485.315	441.88
3488.209	425.88
3491.101	417.88
3493.99	406.88
3496.878	400.88
3499.763	381.88
3502.646	374.88
3505.527	359.88
3508.405	346.88
3511.281	337.88
3514.155	326.88
3517.027	316.88
3519.897	292.88
3522.764	271.88
3525.629	271.88
3528.492	256.88
3531.352	236.88
3534.211	215.88
3537.067	205.88
3539.921	199.88
3542.773	185.88
3545.622	168.88
3548.469	173.88
3551.315	156.88
3554.157	157.88
3556.998	146.88
3559.837	133.88
3562.673	126.88
3565.507	121.88
3568.339	111.88
3571.169	103.88
3573.996	98.88
3576.822	83.88
3579.645	78.88
3582.466	77.88
3585.285	67.88
3588.101	63.88
3590.916	54.88
3593.728	45.88
3596.538	44.88
3599.346	39.88
3602.152	36.88
3604.956	26.88
3607.757	27.88
3610.556	22.88
3613.354	17.88
3616.149	15.88
3618.942	9.88
3621.732	4.88
3624.521	-3.12
3627.307	-7.12
3630.092	-15.12
3632.874	-15.12
3635.654	-22.12
3638.432	-23.12
3641.208	-25.12
3643.982	-30.12
3646.753	-28.12
3649.523	-28.12
3652.29	-33.12
3655.055	-37.12
3657.818	-45.12
3660.579	-47.12
3663.338	-48.12
3666.095	-50.12
3668.849	-59.12
3671.602	-57.12
3674.352	-63.12
3677.101	-60.12
3679.847	-64.12
3682.591	-69.12
3685.333	-74.12
3688.073	-74.12
3690.811	-76.12
3693.547	-75.12
3696.281	-78.12
3699.013	-78.12
3701.742	-79.12
3704.47	-79.12
3707.195	-83.12
3709.919	-85.12
3712.64	-88.12
3715.359	-85.12
3718.076	-94.12
3720.792	-88.12
3723.505	-93.12
3726.216	-92.12
3728.925	-95.12
3731.632	-97.12
3734.336	-100.12
3737.039	-93.12
3739.74	-96.12
3742.439	-101.12
3745.136	-100.12
3747.83	-100.12
3750.523	-98.12
3753.213	-97.12
3755.902	-104.12
3758.589	-101.12
3761.273	-106.12
3763.956	-103.12
3766.636	-105.12
3769.315	-100.12
3771.991	-109.12
3774.665	-108.12
3777.338	-111.12
3780.008	-109.12
3782.677	-110.12
3785.343	-109.12
3788.007	-104.12
3790.67	-108.12
3793.33	-105.12
3795.989	-107.12
3798.645	-107.12
3801.299	-110.12
3803.952	-112.12
3806.602	-112.12
3809.251	-112.12
3811.897	-113.12
3814.542	-115.12
3817.184	-113.12
3819.825	-109.12
3822.463	-108.12
3825.1	-110.12
3827.735	-113.12
3830.367	-110.12
3832.998	-111.12
3835.627	-114.12
3838.253	-112.12
3840.878	-113.12
3843.501	-114.12
3846.122	-114.12
3848.741	-114.12
3851.358	-111.12
3853.973	-115.12
3856.586	-115.12
3859.197	-115.12
3861.806	-116.12
3864.414	-119.12
3867.019	-116.12
3869.622	-116.12
3872.224	-115.12
3874.823	-110.12
3877.421	-103.12
3880.016	-105.12
3882.61	-104.12
3885.202	-103.12
3887.792	-104.12
3890.38	-111.12
3892.966	-114.12
3895.55	-115.12
3898.132	-112.12
3900.713	-118.12
3903.291	-117.12
3905.868	-117.12
3908.442	-114.12
3911.015	-117.12
3913.586	-114.12
3916.155	-116.12
3918.722	-117.12
3921.287	-114.12
3923.85	-114.12
3926.411	-119.12
3928.971	-119.12
3931.528	-114.12
3934.084	-116.12
3936.638	-115.12
3939.19	-116.12
3941.74	-116.12
3944.288	-121.12
3946.834	-116.12
3949.378	-120.12
3951.921	-115.12
3954.462	-120.12
3957	-117.12
3959.537	-112.12
3962.072	-116.12
3964.606	-117.12
3967.137	-115.12
3969.667	-115.12
3972.194	-119.12
3974.72	-120.12
3977.244	-117.12
3979.766	-117.12
3982.286	-116.12
3984.805	-116.12
3987.321	-117.12
3989.836	-119.12
3992.349	-117.12
3994.86	-118.12
3997.369	-116.12
3999.877	-118.12
4002.382	-113.12
4004.886	-114.12
4007.388	-114.12
4009.888	-119.12
4012.386	-115.12
4014.883	-114.12
4017.377	-116.12
4019.87	-122.12
4022.361	-118.12
4024.85	-121.12
4027.338	-118.12
4029.823	-119.12
4032.307	-116.12
4034.789	-116.12
4037.269	-114.12
4039.747	-112.12
4042.224	-114.12
4044.699	-117.12
4047.172	-114.12
4049.643	-119.12
4052.112	-121.12
4054.58	-121.12
4057.046	-119.12
4059.51	-121.12
4061.972	-116.12
4064.432	-117.12
4066.891	-114.12
4069.348	-118.12
4071.803	-116.12
4074.256	-118.12
4076.708	-116.12
4079.158	-119.12
4081.606	-114.12
4084.052	-117.12
4086.497	-116.12
4088.939	-116.12
4091.38	-112.12
4093.819	-118.12
4096.257	-121.12
4098.693	-122.12
4101.127	-123.12
4103.559	-117.12
4105.989	-73.12
4108.418	-72.12
4110.845	-67.12
4113.27	-67.12
4115.694	-57.12
4118.115	-49.12
4120.535	-118.12
4122.954	-118.12
4125.37	-117.12
4127.785	-120.12
4130.198	-121.12
4132.609	-118.12
4135.019	-121.12
4137.427	-121.12
4139.833	-119.12
4142.237	-118.12
