Data from I0.5_T10s_Bsub_water_1-10^2_1_RamanShift_1.txt Node
Date: Mon Mar 13 14:07:27 IST 2017
User: aro
Spectrometer: QEPB0276
Trigger mode: 0
Integration Time (sec): 1.000000E1
Scans to average: 1
Electric dark correction enabled: true
Nonlinearity correction enabled: false
Boxcar width: 0
XAxis mode: Raman Shifts
Number of Pixels in Spectrum: 1044
>>>>>Begin Spectral Data<<<<<
160.701	-19.75
166.742	2.25
172.777	77.25
178.805	288.25
184.826	825.25
190.841	1778.25
196.849	2837.25
202.85	3559.25
208.845	3715.25
214.833	3674.25
220.815	3572.25
226.789	3509.25
232.758	3481.25
238.719	3419.25
244.674	3346.25
250.623	3254.25
256.565	3147.25
262.5	3057.25
268.429	3005.25
274.351	2925.25
280.267	2868.25
286.176	2796.25
292.079	2758.25
297.975	2715.25
303.865	2633.25
309.748	2608.25
315.625	2548.25
321.495	2497.25
327.359	2451.25
333.217	2440.25
339.068	2411.25
344.912	2386.25
350.751	2372.25
356.583	2343.25
362.408	2319.25
368.227	2313.25
374.04	2323.25
379.847	2329.25
385.647	2321.25
391.44	2341.25
397.228	2321.25
403.009	2352.25
408.784	2330.25
414.553	2331.25
420.315	2349.25
426.071	2342.25
431.821	2325.25
437.565	2333.25
443.302	2344.25
449.033	2316.25
454.758	2310.25
460.477	2304.25
466.189	2283.25
471.896	2289.25
477.596	2267.25
483.29	2289.25
488.978	2274.25
494.66	2274.25
500.335	2251.25
506.005	2216.25
511.668	2185.25
517.325	2170.25
522.977	2138.25
528.622	2121.25
534.261	2117.25
539.894	2096.25
545.521	2100.25
551.141	2089.25
556.756	2102.25
562.365	2072.25
567.968	2083.25
573.565	2081.25
579.155	2075.25
584.74	2065.25
590.319	2057.25
595.892	2063.25
601.459	2040.25
607.02	2032.25
612.575	2017.25
618.124	1999.25
623.667	1988.25
629.204	1974.25
634.735	1984.25
640.261	1954.25
645.781	1955.25
651.294	1953.25
656.802	1935.25
662.304	1945.25
667.8	1939.25
673.29	1938.25
678.775	1945.25
684.254	1957.25
689.726	1937.25
695.193	1948.25
700.655	1935.25
706.11	1917.25
711.56	1932.25
717.004	1914.25
722.442	1910.25
727.874	1918.25
733.301	1904.25
738.722	1901.25
744.137	1901.25
749.547	1888.25
754.951	1906.25
760.349	1885.25
765.741	1909.25
771.128	1915.25
776.509	1915.25
781.885	1924.25
787.254	1918.25
792.618	1919.25
797.977	1911.25
803.33	1896.25
808.677	1902.25
814.019	1889.25
819.355	1892.25
824.686	1871.25
830.011	1856.25
835.33	1847.25
840.644	1859.25
845.952	1872.25
851.255	1863.25
856.552	1876.25
861.844	1874.25
867.13	1872.25
872.41	1868.25
877.686	1887.25
882.955	1867.25
888.219	1845.25
893.478	1831.25
898.731	1794.25
903.979	1792.25
909.221	1769.25
914.458	1771.25
919.69	1773.25
924.916	1788.25
930.136	1803.25
935.351	1783.25
940.561	1800.25
945.766	1819.25
950.965	1815.25
956.158	1793.25
961.347	1776.25
966.529	1759.25
971.707	1758.25
976.879	1733.25
982.046	1718.25
987.208	1702.25
992.364	1714.25
997.515	1714.25
1002.66	1745.25
1007.801	1778.25
1012.936	1777.25
1018.066	1792.25
1023.19	1825.25
1028.309	1820.25
1033.423	1803.25
1038.532	1798.25
1043.636	1808.25
1048.734	1773.25
1053.827	1775.25
1058.915	1754.25
1063.998	1744.25
1069.075	1763.25
1074.147	1755.25
1079.214	1775.25
1084.276	1783.25
1089.333	1804.25
1094.385	1825.25
1099.431	1813.25
1104.472	1820.25
1109.509	1833.25
1114.54	1824.25
1119.565	1792.25
1124.586	1769.25
1129.602	1753.25
1134.613	1756.25
1139.618	1754.25
1144.619	1756.25
1149.614	1747.25
1154.604	1778.25
1159.589	1773.25
1164.57	1783.25
1169.545	1782.25
1174.515	1800.25
1179.48	1787.25
1184.44	1782.25
1189.395	1774.25
1194.345	1756.25
1199.29	1763.25
1204.23	1774.25
1209.165	1779.25
1214.095	1790.25
1219.021	1797.25
1223.941	1804.25
1228.856	1833.25
1233.766	1844.25
1238.672	1833.25
1243.572	1829.25
1248.467	1824.25
1253.358	1814.25
1258.244	1798.25
1263.124	1776.25
1268	1741.25
1272.871	1737.25
1277.737	1730.25
1282.599	1702.25
1287.455	1719.25
1292.306	1741.25
1297.153	1739.25
1301.995	1774.25
1306.832	1769.25
1311.664	1780.25
1316.491	1793.25
1321.314	1773.25
1326.132	1757.25
1330.945	1758.25
1335.753	1702.25
1340.556	1690.25
1345.354	1656.25
1350.148	1634.25
1354.937	1620.25
1359.722	1636.25
1364.501	1668.25
1369.276	1677.25
1374.046	1723.25
1378.811	1731.25
1383.572	1743.25
1388.327	1741.25
1393.079	1719.25
1397.825	1691.25
1402.567	1661.25
1407.304	1655.25
1412.036	1631.25
1416.764	1614.25
1421.487	1626.25
1426.205	1644.25
1430.919	1636.25
1435.628	1664.25
1440.333	1676.25
1445.032	1679.25
1449.727	1684.25
1454.418	1694.25
1459.104	1693.25
1463.785	1683.25
1468.462	1654.25
1473.134	1650.25
1477.802	1644.25
1482.465	1620.25
1487.123	1634.25
1491.777	1642.25
1496.426	1650.25
1501.071	1664.25
1505.711	1690.25
1510.347	1726.25
1514.978	1729.25
1519.604	1744.25
1524.226	1747.25
1528.844	1758.25
1533.457	1756.25
1538.065	1758.25
1542.669	1745.25
1547.269	1732.25
1551.864	1735.25
1556.454	1743.25
1561.041	1739.25
1565.622	1721.25
1570.199	1745.25
1574.772	1748.25
1579.34	1770.25
1583.904	1791.25
1588.464	1793.25
1593.019	1790.25
1597.569	1806.25
1602.115	1785.25
1606.657	1803.25
1611.195	1772.25
1615.728	1762.25
1620.256	1782.25
1624.78	1788.25
1629.3	1787.25
1633.816	1817.25
1638.327	1815.25
1642.834	1840.25
1647.336	1852.25
1651.834	1860.25
1656.328	1875.25
1660.817	1857.25
1665.302	1854.25
1669.783	1835.25
1674.259	1826.25
1678.732	1777.25
1683.199	1729.25
1687.663	1695.25
1692.122	1644.25
1696.577	1615.25
1701.028	1599.25
1705.474	1616.25
1709.917	1604.25
1714.355	1604.25
1718.788	1589.25
1723.218	1588.25
1727.643	1550.25
1732.064	1541.25
1736.481	1501.25
1740.893	1481.25
1745.301	1464.25
1749.705	1432.25
1754.105	1423.25
1758.501	1390.25
1762.893	1365.25
1767.28	1367.25
1771.663	1345.25
1776.042	1349.25
1780.417	1349.25
1784.787	1375.25
1789.154	1384.25
1793.516	1402.25
1797.874	1422.25
1802.228	1419.25
1806.578	1427.25
1810.924	1421.25
1815.266	1413.25
1819.603	1393.25
1823.937	1373.25
1828.266	1344.25
1832.591	1351.25
1836.913	1354.25
1841.23	1319.25
1845.543	1323.25
1849.852	1315.25
1854.156	1325.25
1858.457	1333.25
1862.754	1329.25
1867.047	1334.25
1871.335	1336.25
1875.62	1336.25
1879.9	1353.25
1884.177	1326.25
1888.449	1327.25
1892.718	1333.25
1896.982	1319.25
1901.243	1315.25
1905.499	1304.25
1909.752	1312.25
1914	1309.25
1918.245	1321.25
1922.485	1322.25
1926.722	1342.25
1930.954	1337.25
1935.183	1327.25
1939.408	1343.25
1943.628	1356.25
1947.845	1355.25
1952.058	1371.25
1956.267	1353.25
1960.472	1350.25
1964.673	1333.25
1968.87	1325.25
1973.063	1302.25
1977.252	1295.25
1981.438	1296.25
1985.619	1295.25
1989.797	1277.25
1993.971	1272.25
1998.14	1276.25
2002.306	1295.25
2006.469	1290.25
2010.627	1272.25
2014.781	1283.25
2018.932	1284.25
2023.078	1270.25
2027.221	1268.25
2031.36	1243.25
2035.495	1222.25
2039.627	1224.25
2043.754	1206.25
2047.878	1212.25
2051.998	1209.25
2056.114	1219.25
2060.226	1217.25
2064.334	1213.25
2068.439	1212.25
2072.54	1217.25
2076.637	1239.25
2080.73	1234.25
2084.82	1239.25
2088.906	1237.25
2092.988	1243.25
2097.066	1220.25
2101.14	1230.25
2105.211	1221.25
2109.278	1226.25
2113.342	1207.25
2117.401	1203.25
2121.457	1205.25
2125.509	1198.25
2129.558	1187.25
2133.602	1202.25
2137.643	1197.25
2141.681	1175.25
2145.714	1198.25
2149.744	1182.25
2153.77	1165.25
2157.793	1181.25
2161.812	1167.25
2165.827	1152.25
2169.838	1136.25
2173.846	1112.25
2177.851	1101.25
2181.851	1107.25
2185.848	1099.25
2189.841	1081.25
2193.831	1070.25
2197.817	1065.25
2201.799	1064.25
2205.778	1075.25
2209.753	1065.25
2213.725	1057.25
2217.693	1073.25
2221.657	1069.25
2225.618	1062.25
2229.575	1057.25
2233.529	1063.25
2237.479	1057.25
2241.425	1040.25
2245.368	1030.25
2249.307	1025.25
2253.243	1016.25
2257.175	999.25
2261.104	984.25
2265.029	997.25
2268.95	984.25
2272.868	980.25
2276.783	963.25
2280.694	961.25
2284.601	955.25
2288.505	951.25
2292.405	939.25
2296.302	928.25
2300.195	932.25
2304.085	914.25
2307.971	904.25
2311.854	891.25
2315.734	889.25
2319.609	871.25
2323.482	849.25
2327.351	845.25
2331.216	841.25
2335.078	856.25
2338.937	825.25
2342.792	832.25
2346.643	820.25
2350.492	832.25
2354.336	837.25
2358.178	825.25
2362.015	828.25
2365.85	827.25
2369.681	834.25
2373.508	836.25
2377.333	835.25
2381.153	826.25
2384.971	817.25
2388.785	828.25
2392.595	828.25
2396.402	810.25
2400.206	826.25
2404.007	816.25
2407.804	805.25
2411.597	797.25
2415.388	790.25
2419.174	806.25
2422.958	811.25
2426.738	804.25
2430.515	788.25
2434.289	789.25
2438.059	781.25
2441.825	786.25
2445.589	781.25
2449.349	768.25
2453.106	756.25
2456.859	749.25
2460.61	753.25
2464.356	759.25
2468.1	751.25
2471.84	743.25
2475.577	738.25
2479.311	742.25
2483.041	749.25
2486.768	748.25
2490.492	738.25
2494.213	748.25
2497.93	732.25
2501.644	744.25
2505.355	738.25
2509.062	750.25
2512.766	742.25
2516.467	738.25
2520.165	739.25
2523.859	721.25
2527.551	723.25
2531.239	710.25
2534.923	726.25
2538.605	714.25
2542.283	713.25
2545.958	707.25
2549.63	703.25
2553.299	709.25
2556.964	709.25
2560.626	700.25
2564.285	700.25
2567.941	692.25
2571.594	694.25
2575.243	692.25
2578.89	699.25
2582.533	672.25
2586.173	676.25
2589.809	675.25
2593.443	672.25
2597.073	669.25
2600.701	647.25
2604.325	652.25
2607.946	657.25
2611.564	650.25
2615.178	657.25
2618.79	641.25
2622.398	642.25
2626.004	648.25
2629.606	645.25
2633.205	635.25
2636.801	631.25
2640.394	628.25
2643.983	615.25
2647.57	616.25
2651.153	600.25
2654.734	606.25
2658.311	601.25
2661.885	594.25
2665.456	593.25
2669.025	589.25
2672.589	578.25
2676.151	582.25
2679.71	573.25
2683.266	570.25
2686.819	556.25
2690.368	564.25
2693.915	550.25
2697.458	539.25
2700.999	539.25
2704.536	513.25
2708.071	520.25
2711.602	524.25
2715.13	515.25
2718.656	507.25
2722.178	509.25
2725.697	503.25
2729.214	507.25
2732.727	503.25
2736.237	507.25
2739.744	515.25
2743.249	507.25
2746.75	518.25
2750.248	504.25
2753.743	514.25
2757.236	512.25
2760.725	526.25
2764.211	514.25
2767.695	513.25
2771.175	502.25
2774.652	508.25
2778.127	502.25
2781.598	495.25
2785.067	500.25
2788.532	483.25
2791.995	487.25
2795.455	492.25
2798.911	490.25
2802.365	472.25
2805.816	477.25
2809.264	473.25
2812.709	471.25
2816.151	459.25
2819.59	477.25
2823.026	469.25
2826.46	463.25
2829.89	462.25
2833.318	453.25
2836.742	462.25
2840.164	459.25
2843.583	461.25
2846.999	450.25
2850.412	461.25
2853.822	459.25
2857.229	457.25
2860.634	450.25
2864.035	466.25
2867.434	459.25
2870.83	465.25
2874.223	460.25
2877.613	463.25
2881	459.25
2884.385	447.25
2887.766	454.25
2891.145	444.25
2894.521	444.25
2897.894	448.25
2901.264	433.25
2904.631	434.25
2907.996	440.25
2911.358	438.25
2914.717	421.25
2918.073	431.25
2921.426	426.25
2924.777	436.25
2928.124	444.25
2931.469	436.25
2934.811	444.25
2938.15	443.25
2941.487	441.25
2944.821	438.25
2948.152	443.25
2951.48	434.25
2954.805	435.25
2958.128	430.25
2961.447	438.25
2964.765	436.25
2968.079	439.25
2971.39	435.25
2974.699	439.25
2978.005	442.25
2981.308	457.25
2984.609	457.25
2987.907	459.25
2991.202	471.25
2994.494	471.25
2997.784	481.25
3001.07	483.25
3004.355	493.25
3007.636	491.25
3010.915	501.25
3014.191	512.25
3017.464	506.25
3020.734	507.25
3024.002	505.25
3027.267	511.25
3030.53	509.25
3033.789	523.25
3037.046	524.25
3040.301	529.25
3043.552	531.25
3046.801	541.25
3050.048	540.25
3053.291	546.25
3056.532	555.25
3059.771	565.25
3063.006	571.25
3066.239	578.25
3069.469	600.25
3072.697	607.25
3075.922	611.25
3079.144	628.25
3082.364	638.25
3085.581	637.25
3088.795	658.25
3092.007	664.25
3095.216	667.25
3098.423	675.25
3101.627	677.25
3104.828	698.25
3108.026	708.25
3111.222	719.25
3114.416	731.25
3117.607	730.25
3120.795	754.25
3123.98	769.25
3127.163	792.25
3130.344	784.25
3133.521	806.25
3136.696	821.25
3139.869	826.25
3143.039	850.25
3146.206	844.25
3149.371	854.25
3152.533	856.25
3155.693	861.25
3158.85	863.25
3162.005	865.25
3165.157	859.25
3168.306	862.25
3171.453	874.25
3174.597	869.25
3177.739	878.25
3180.878	870.25
3184.014	870.25
3187.149	863.25
3190.28	873.25
3193.409	870.25
3196.536	866.25
3199.659	878.25
3202.781	888.25
3205.9	882.25
3209.016	873.25
3212.13	879.25
3215.241	870.25
3218.35	859.25
3221.456	865.25
3224.56	848.25
3227.661	841.25
3230.76	834.25
3233.856	836.25
3236.95	831.25
3240.041	818.25
3243.13	798.25
3246.216	798.25
3249.3	800.25
3252.382	795.25
3255.46	782.25
3258.537	789.25
3261.611	788.25
3264.682	778.25
3267.751	789.25
3270.818	773.25
3273.882	765.25
3276.943	763.25
3280.002	757.25
3283.059	761.25
3286.113	739.25
3289.165	749.25
3292.214	727.25
3295.261	715.25
3298.306	705.25
3301.348	704.25
3304.387	667.25
3307.425	672.25
3310.459	659.25
3313.492	653.25
3316.521	641.25
3319.549	633.25
3322.574	628.25
3325.597	623.25
3328.617	609.25
3331.635	614.25
3334.65	604.25
3337.663	606.25
3340.674	590.25
3343.682	601.25
3346.688	597.25
3349.691	597.25
3352.692	604.25
3355.691	586.25
3358.687	572.25
3361.681	573.25
3364.673	562.25
3367.662	560.25
3370.649	555.25
3373.633	542.25
3376.615	539.25
3379.595	519.25
3382.572	531.25
3385.547	516.25
3388.52	509.25
3391.49	509.25
3394.458	482.25
3397.424	494.25
3400.387	479.25
3403.348	477.25
3406.307	471.25
3409.263	459.25
3412.217	457.25
3415.168	441.25
3418.118	446.25
3421.065	443.25
3424.009	444.25
3426.951	436.25
3429.891	427.25
3432.829	426.25
3435.764	411.25
3438.697	409.25
3441.628	405.25
3444.557	381.25
3447.483	386.25
3450.407	363.25
3453.328	354.25
3456.247	355.25
3459.164	335.25
3462.079	329.25
3464.991	325.25
3467.902	303.25
3470.809	298.25
3473.715	286.25
3476.618	284.25
3479.519	266.25
3482.418	261.25
3485.315	259.25
3488.209	245.25
3491.101	244.25
3493.99	233.25
3496.878	233.25
3499.763	217.25
3502.646	215.25
3505.527	216.25
3508.405	203.25
3511.281	199.25
3514.155	200.25
3517.027	176.25
3519.897	163.25
3522.764	166.25
3525.629	153.25
3528.492	150.25
3531.352	144.25
3534.211	132.25
3537.067	129.25
3539.921	118.25
3542.773	115.25
3545.622	110.25
3548.469	96.25
3551.315	92.25
3554.157	85.25
3556.998	81.25
3559.837	78.25
3562.673	72.25
3565.507	64.25
3568.339	57.25
3571.169	64.25
3573.996	52.25
3576.822	49.25
3579.645	42.25
3582.466	41.25
3585.285	37.25
3588.101	31.25
3590.916	26.25
3593.728	33.25
3596.538	29.25
3599.346	22.25
3602.152	19.25
3604.956	13.25
3607.757	13.25
3610.556	10.25
3613.354	9.25
3616.149	7.25
3618.942	-2.75
3621.732	-2.75
3624.521	-6.75
3627.307	-3.75
3630.092	-4.75
3632.874	-10.75
3635.654	-9.75
3638.432	-23.75
3641.208	-13.75
3643.982	-13.75
3646.753	-18.75
3649.523	-23.75
3652.29	-29.75
3655.055	-31.75
3657.818	-32.75
3660.579	-29.75
3663.338	-31.75
3666.095	-34.75
3668.849	-37.75
3671.602	-37.75
3674.352	-37.75
3677.101	-42.75
3679.847	-43.75
3682.591	-44.75
3685.333	-43.75
3688.073	-51.75
3690.811	-48.75
3693.547	-48.75
3696.281	-53.75
3699.013	-54.75
3701.742	-49.75
3704.47	-51.75
3707.195	-53.75
3709.919	-56.75
3712.64	-55.75
3715.359	-56.75
3718.076	-51.75
3720.792	-56.75
3723.505	-56.75
3726.216	-55.75
3728.925	-58.75
3731.632	-56.75
3734.336	-56.75
3737.039	-61.75
3739.74	-59.75
3742.439	-59.75
3745.136	-59.75
3747.83	-63.75
3750.523	-64.75
3753.213	-65.75
3755.902	-69.75
3758.589	-70.75
3761.273	-69.75
3763.956	-65.75
3766.636	-66.75
3769.315	-68.75
3771.991	-67.75
3774.665	-66.75
3777.338	-72.75
3780.008	-64.75
3782.677	-64.75
3785.343	-61.75
3788.007	-65.75
3790.67	-67.75
3793.33	-67.75
3795.989	-68.75
3798.645	-65.75
3801.299	-67.75
3803.952	-68.75
3806.602	-67.75
3809.251	-68.75
3811.897	-70.75
3814.542	-69.75
3817.184	-71.75
3819.825	-73.75
3822.463	-75.75
3825.1	-72.75
3827.735	-74.75
3830.367	-75.75
3832.998	-72.75
3835.627	-74.75
3838.253	-71.75
3840.878	-78.75
3843.501	-75.75
3846.122	-74.75
3848.741	-77.75
3851.358	-69.75
3853.973	-72.75
3856.586	-74.75
3859.197	-71.75
3861.806	-73.75
3864.414	-69.75
3867.019	-73.75
3869.622	-69.75
3872.224	-68.75
3874.823	-70.75
3877.421	-72.75
3880.016	-70.75
3882.61	-67.75
3885.202	-70.75
3887.792	-72.75
3890.38	-75.75
3892.966	-73.75
3895.55	-78.75
3898.132	-78.75
3900.713	-82.75
3903.291	-81.75
3905.868	-80.75
3908.442	-80.75
3911.015	-79.75
3913.586	-79.75
3916.155	-76.75
3918.722	-80.75
3921.287	-80.75
3923.85	-74.75
3926.411	-77.75
3928.971	-80.75
3931.528	-76.75
3934.084	-80.75
3936.638	-77.75
3939.19	-79.75
3941.74	-79.75
3944.288	-79.75
3946.834	-77.75
3949.378	-81.75
3951.921	-79.75
3954.462	-82.75
3957	-85.75
3959.537	-78.75
3962.072	-80.75
3964.606	-80.75
3967.137	-79.75
3969.667	-81.75
3972.194	-85.75
3974.72	-83.75
3977.244	-79.75
3979.766	-79.75
3982.286	-83.75
3984.805	-77.75
3987.321	-83.75
3989.836	-78.75
3992.349	-75.75
3994.86	-80.75
3997.369	-81.75
3999.877	-77.75
4002.382	-76.75
4004.886	-77.75
4007.388	-78.75
4009.888	-75.75
4012.386	-79.75
4014.883	-80.75
4017.377	-80.75
4019.87	-75.75
4022.361	-79.75
4024.85	-77.75
4027.338	-81.75
4029.823	-76.75
4032.307	-78.75
4034.789	-80.75
4037.269	-81.75
4039.747	-79.75
4042.224	-81.75
4044.699	-79.75
4047.172	-79.75
4049.643	-83.75
4052.112	-81.75
4054.58	-79.75
4057.046	-77.75
4059.51	-76.75
4061.972	-78.75
4064.432	-76.75
4066.891	-85.75
4069.348	-76.75
4071.803	-78.75
4074.256	-78.75
4076.708	-75.75
4079.158	-76.75
4081.606	-79.75
4084.052	-81.75
4086.497	-80.75
4088.939	-80.75
4091.38	-79.75
4093.819	-78.75
4096.257	-84.75
4098.693	-86.75
4101.127	-84.75
4103.559	-84.75
4105.989	-53.75
4108.418	-49.75
4110.845	-50.75
4113.27	-44.75
4115.694	-39.75
4118.115	-31.75
4120.535	-80.75
4122.954	-82.75
4125.37	-83.75
4127.785	-80.75
4130.198	-83.75
4132.609	-79.75
4135.019	-84.75
4137.427	-89.75
4139.833	-88.75
4142.237	-84.75
