Data from I0.5_T15s_Bsub_water_1-10^4_3_RamanShift_1.txt Node
Date: Mon Mar 13 14:24:32 IST 2017
User: aro
Spectrometer: QEPB0276
Trigger mode: 0
Integration Time (sec): 1.500000E1
Scans to average: 1
Electric dark correction enabled: true
Nonlinearity correction enabled: false
Boxcar width: 0
XAxis mode: Raman Shifts
Number of Pixels in Spectrum: 1044
>>>>>Begin Spectral Data<<<<<
160.701	-34.25
166.742	1.75
172.777	100.75
178.805	432.75
184.826	1232.75
190.841	2645.75
196.849	4222.75
202.85	5219.75
208.845	5508.75
214.833	5370.75
220.815	5244.75
226.789	5124.75
232.758	5088.75
238.719	4944.75
244.674	4730.75
250.623	4400.75
256.565	4146.75
262.5	3917.75
268.429	3839.75
274.351	3983.75
280.267	4103.75
286.176	4054.75
292.079	3955.75
297.975	3871.75
303.865	3781.75
309.748	3709.75
315.625	3611.75
321.495	3546.75
327.359	3531.75
333.217	3487.75
339.068	3473.75
344.912	3435.75
350.751	3393.75
356.583	3380.75
362.408	3352.75
368.227	3334.75
374.04	3360.75
379.847	3299.75
385.647	3278.75
391.44	3076.75
397.228	2790.75
403.009	2453.75
408.784	2150.75
414.553	1546.75
420.315	988.75
426.071	1684.75
431.821	2860.75
437.565	3296.75
443.302	3314.75
449.033	3336.75
454.758	3337.75
460.477	3338.75
466.189	3300.75
471.896	3300.75
477.596	3304.75
483.29	3275.75
488.978	3277.75
494.66	3216.75
500.335	3230.75
506.005	3204.75
511.668	3129.75
517.325	3122.75
522.977	3093.75
528.622	3069.75
534.261	3019.75
539.894	3030.75
545.521	3012.75
551.141	3006.75
556.756	2973.75
562.365	2940.75
567.968	2959.75
573.565	2947.75
579.155	2945.75
584.74	2955.75
590.319	2954.75
595.892	2913.75
601.459	2915.75
607.02	2872.75
612.575	2877.75
618.124	2826.75
623.667	2833.75
629.204	2748.75
634.735	2609.75
640.261	2447.75
645.781	2437.75
651.294	2608.75
656.802	2739.75
662.304	2770.75
667.8	2785.75
673.29	2785.75
678.775	2761.75
684.254	2754.75
689.726	2762.75
695.193	2735.75
700.655	2747.75
706.11	2737.75
711.56	2712.75
717.004	2706.75
722.442	2708.75
727.874	2687.75
733.301	2673.75
738.722	2679.75
744.137	2659.75
749.547	2662.75
754.951	2664.75
760.349	2692.75
765.741	2688.75
771.128	2663.75
776.509	2693.75
781.885	2687.75
787.254	2698.75
792.618	2685.75
797.977	2670.75
803.33	2650.75
808.677	2638.75
814.019	2613.75
819.355	2619.75
824.686	2583.75
830.011	2593.75
835.33	2510.75
840.644	2274.75
845.952	1892.75
851.255	1770.75
856.552	2100.75
861.844	2189.75
867.13	1690.75
872.41	1197.75
877.686	1611.75
882.955	2264.75
888.219	2519.75
893.478	2528.75
898.731	2474.75
903.979	2458.75
909.221	2452.75
914.458	2469.75
919.69	2486.75
924.916	2495.75
930.136	2503.75
935.351	2493.75
940.561	2492.75
945.766	2496.75
950.965	2497.75
956.158	2490.75
961.347	2447.75
966.529	2425.75
971.707	2408.75
976.879	2381.75
982.046	2365.75
987.208	2343.75
992.364	2337.75
997.515	2313.75
1002.66	2132.75
1007.801	2000.75
1012.936	2177.75
1018.066	2411.75
1023.19	2503.75
1028.309	2494.75
1033.423	2528.75
1038.532	2535.75
1043.636	2488.75
1048.734	2478.75
1053.827	2438.75
1058.915	2442.75
1063.998	2415.75
1069.075	2427.75
1074.147	2424.75
1079.214	2474.75
1084.276	2461.75
1089.333	2481.75
1094.385	2501.75
1099.431	2529.75
1104.472	2532.75
1109.509	2511.75
1114.54	2483.75
1119.565	2470.75
1124.586	2445.75
1129.602	2408.75
1134.613	2399.75
1139.618	2408.75
1144.619	2386.75
1149.614	2398.75
1154.604	2410.75
1159.589	2419.75
1164.57	2442.75
1169.545	2474.75
1174.515	2480.75
1179.48	2468.75
1184.44	2453.75
1189.395	2452.75
1194.345	2440.75
1199.29	2392.75
1204.23	2341.75
1209.165	2357.75
1214.095	2435.75
1219.021	2485.75
1223.941	2507.75
1228.856	2528.75
1233.766	2535.75
1238.672	2525.75
1243.572	2540.75
1248.467	2556.75
1253.358	2532.75
1258.244	2472.75
1263.124	2430.75
1268	2375.75
1272.871	2369.75
1277.737	2367.75
1282.599	2383.75
1287.455	2373.75
1292.306	2381.75
1297.153	2434.75
1301.995	2433.75
1306.832	2435.75
1311.664	2471.75
1316.491	2482.75
1321.314	2463.75
1326.132	2449.75
1330.945	2415.75
1335.753	2364.75
1340.556	2335.75
1345.354	2277.75
1350.148	2281.75
1354.937	2258.75
1359.722	2282.75
1364.501	2293.75
1369.276	2347.75
1374.046	2348.75
1378.811	2368.75
1383.572	2357.75
1388.327	2367.75
1393.079	2343.75
1397.825	2306.75
1402.567	2266.75
1407.304	2275.75
1412.036	2238.75
1416.764	2254.75
1421.487	2221.75
1426.205	2246.75
1430.919	2271.75
1435.628	2288.75
1440.333	2286.75
1445.032	2308.75
1449.727	2337.75
1454.418	2311.75
1459.104	2334.75
1463.785	2301.75
1468.462	2298.75
1473.134	2278.75
1477.802	2258.75
1482.465	2250.75
1487.123	2243.75
1491.777	2258.75
1496.426	2268.75
1501.071	2285.75
1505.711	2319.75
1510.347	2326.75
1514.978	2370.75
1519.604	2403.75
1524.226	2426.75
1528.844	2424.75
1533.457	2394.75
1538.065	2407.75
1542.669	2401.75
1547.269	2393.75
1551.864	2380.75
1556.454	2374.75
1561.041	2376.75
1565.622	2388.75
1570.199	2371.75
1574.772	2423.75
1579.34	2463.75
1583.904	2464.75
1588.464	2469.75
1593.019	2495.75
1597.569	2527.75
1602.115	2481.75
1606.657	2481.75
1611.195	2499.75
1615.728	2476.75
1620.256	2499.75
1624.78	2505.75
1629.3	2531.75
1633.816	2543.75
1638.327	2569.75
1642.834	2605.75
1647.336	2621.75
1651.834	2639.75
1656.328	2619.75
1660.817	2628.75
1665.302	2620.75
1669.783	2570.75
1674.259	2540.75
1678.732	2486.75
1683.199	2403.75
1687.663	2351.75
1692.122	2301.75
1696.577	2251.75
1701.028	2221.75
1705.474	2224.75
1709.917	2225.75
1714.355	2213.75
1718.788	2181.75
1723.218	2144.75
1727.643	2146.75
1732.064	2087.75
1736.481	2080.75
1740.893	2026.75
1745.301	1989.75
1749.705	1953.75
1754.105	1917.75
1758.501	1880.75
1762.893	1848.75
1767.28	1759.75
1771.663	1607.75
1776.042	760.75
1780.417	-239.25
1784.787	291.75
1789.154	1469.75
1793.516	1796.75
1797.874	1885.75
1802.228	1913.75
1806.578	1914.75
1810.924	1913.75
1815.266	1914.75
1819.603	1880.75
1823.937	1866.75
1828.266	1838.75
1832.591	1835.75
1836.913	1807.75
1841.23	1806.75
1845.543	1792.75
1849.852	1802.75
1854.156	1811.75
1858.457	1804.75
1862.754	1801.75
1867.047	1797.75
1871.335	1808.75
1875.62	1805.75
1879.9	1799.75
1884.177	1808.75
1888.449	1789.75
1892.718	1755.75
1896.982	1551.75
1901.243	1308.75
1905.499	1441.75
1909.752	1710.75
1914	1766.75
1918.245	1770.75
1922.485	1771.75
1926.722	1791.75
1930.954	1832.75
1935.183	1826.75
1939.408	1845.75
1943.628	1846.75
1947.845	1832.75
1952.058	1853.75
1956.267	1842.75
1960.472	1835.75
1964.673	1808.75
1968.87	1808.75
1973.063	1794.75
1977.252	1766.75
1981.438	1771.75
1985.619	1751.75
1989.797	1741.75
1993.971	1752.75
1998.14	1748.75
2002.306	1759.75
2006.469	1770.75
2010.627	1767.75
2014.781	1775.75
2018.932	1766.75
2023.078	1759.75
2027.221	1738.75
2031.36	1723.75
2035.495	1709.75
2039.627	1692.75
2043.754	1670.75
2047.878	1644.75
2051.998	1604.75
2056.114	1666.75
2060.226	1686.75
2064.334	1682.75
2068.439	1686.75
2072.54	1697.75
2076.637	1705.75
2080.73	1726.75
2084.82	1707.75
2088.906	1723.75
2092.988	1696.75
2097.066	1686.75
2101.14	1695.75
2105.211	1682.75
2109.278	1683.75
2113.342	1674.75
2117.401	1657.75
2121.457	1653.75
2125.509	1653.75
2129.558	1637.75
2133.602	1638.75
2137.643	1624.75
2141.681	1619.75
2145.714	1628.75
2149.744	1623.75
2153.77	1630.75
2157.793	1611.75
2161.812	1607.75
2165.827	1578.75
2169.838	1547.75
2173.846	1538.75
2177.851	1545.75
2181.851	1505.75
2185.848	1490.75
2189.841	1478.75
2193.831	1483.75
2197.817	1486.75
2201.799	1459.75
2205.778	1466.75
2209.753	1466.75
2213.725	1472.75
2217.693	1476.75
2221.657	1437.75
2225.618	1476.75
2229.575	1453.75
2233.529	1462.75
2237.479	1448.75
2241.425	1423.75
2245.368	1422.75
2249.307	1404.75
2253.243	1399.75
2257.175	1379.75
2261.104	1369.75
2265.029	1354.75
2268.95	1349.75
2272.868	1338.75
2276.783	1330.75
2280.694	1303.75
2284.601	1295.75
2288.505	1293.75
2292.405	1291.75
2296.302	1272.75
2300.195	1278.75
2304.085	1240.75
2307.971	1239.75
2311.854	1219.75
2315.734	1205.75
2319.609	1177.75
2323.482	1176.75
2327.351	1159.75
2331.216	1153.75
2335.078	1137.75
2338.937	1125.75
2342.792	1132.75
2346.643	1130.75
2350.492	1118.75
2354.336	1130.75
2358.178	1128.75
2362.015	1132.75
2365.85	1121.75
2369.681	1131.75
2373.508	1113.75
2377.333	1080.75
2381.153	1035.75
2384.971	818.75
2388.785	763.75
2392.595	926.75
2396.402	1062.75
2400.206	1065.75
2404.007	1083.75
2407.804	1080.75
2411.597	1072.75
2415.388	1075.75
2419.174	1053.75
2422.958	1074.75
2426.738	1077.75
2430.515	1075.75
2434.289	1074.75
2438.059	1068.75
2441.825	1055.75
2445.589	1044.75
2449.349	1044.75
2453.106	1036.75
2456.859	1024.75
2460.61	1023.75
2464.356	1016.75
2468.1	1002.75
2471.84	988.75
2475.577	977.75
2479.311	989.75
2483.041	988.75
2486.768	1004.75
2490.492	1002.75
2494.213	1000.75
2497.93	994.75
2501.644	1013.75
2505.355	1015.75
2509.062	989.75
2512.766	1006.75
2516.467	976.75
2520.165	928.75
2523.859	920.75
2527.551	944.75
2531.239	944.75
2534.923	947.75
2538.605	936.75
2542.283	938.75
2545.958	947.75
2549.63	941.75
2553.299	952.75
2556.964	943.75
2560.626	931.75
2564.285	934.75
2567.941	914.75
2571.594	921.75
2575.243	911.75
2578.89	900.75
2582.533	895.75
2586.173	902.75
2589.809	909.75
2593.443	887.75
2597.073	887.75
2600.701	883.75
2604.325	872.75
2607.946	878.75
2611.564	864.75
2615.178	867.75
2618.79	874.75
2622.398	879.75
2626.004	869.75
2629.606	852.75
2633.205	858.75
2636.801	827.75
2640.394	839.75
2643.983	827.75
2647.57	828.75
2651.153	806.75
2654.734	805.75
2658.311	795.75
2661.885	775.75
2665.456	784.75
2669.025	774.75
2672.589	761.75
2676.151	762.75
2679.71	767.75
2683.266	754.75
2686.819	747.75
2690.368	729.75
2693.915	725.75
2697.458	725.75
2700.999	715.75
2704.536	698.75
2708.071	694.75
2711.602	681.75
2715.13	677.75
2718.656	666.75
2722.178	661.75
2725.697	653.75
2729.214	667.75
2732.727	647.75
2736.237	669.75
2739.744	663.75
2743.249	682.75
2746.75	664.75
2750.248	678.75
2753.743	689.75
2757.236	681.75
2760.725	673.75
2764.211	672.75
2767.695	657.75
2771.175	653.75
2774.652	640.75
2778.127	657.75
2781.598	641.75
2785.067	628.75
2788.532	624.75
2791.995	618.75
2795.455	601.75
2798.911	588.75
2802.365	583.75
2805.816	589.75
2809.264	573.75
2812.709	580.75
2816.151	564.75
2819.59	568.75
2823.026	558.75
2826.46	558.75
2829.89	540.75
2833.318	521.75
2836.742	509.75
2840.164	489.75
2843.583	481.75
2846.999	452.75
2850.412	428.75
2853.822	385.75
2857.229	347.75
2860.634	294.75
2864.035	204.75
2867.434	108.75
2870.83	-92.25
2874.223	-884.25
2877.613	-2614.25
2881	-2875.25
2884.385	-1267.25
2887.766	-212.25
2891.145	34.75
2894.521	185.75
2897.894	260.75
2901.264	316.75
2904.631	353.75
2907.996	394.75
2911.358	424.75
2914.717	438.75
2918.073	465.75
2921.426	479.75
2924.777	481.75
2928.124	479.75
2931.469	497.75
2934.811	503.75
2938.15	497.75
2941.487	505.75
2944.821	493.75
2948.152	478.75
2951.48	482.75
2954.805	487.75
2958.128	507.75
2961.447	515.75
2964.765	528.75
2968.079	526.75
2971.39	549.75
2974.699	556.75
2978.005	558.75
2981.308	566.75
2984.609	577.75
2987.907	582.75
2991.202	575.75
2994.494	578.75
2997.784	571.75
3001.07	559.75
3004.355	542.75
3007.636	561.75
3010.915	570.75
3014.191	591.75
3017.464	627.75
3020.734	641.75
3024.002	665.75
3027.267	676.75
3030.53	678.75
3033.789	705.75
3037.046	704.75
3040.301	725.75
3043.552	715.75
3046.801	724.75
3050.048	738.75
3053.291	753.75
3056.532	761.75
3059.771	753.75
3063.006	749.75
3066.239	762.75
3069.469	764.75
3072.697	777.75
3075.922	793.75
3079.144	825.75
3082.364	877.75
3085.581	893.75
3088.795	929.75
3092.007	938.75
3095.216	945.75
3098.423	966.75
3101.627	996.75
3104.828	1007.75
3108.026	1005.75
3111.222	1025.75
3114.416	1042.75
3117.607	1026.75
3120.795	1069.75
3123.98	1073.75
3127.163	1072.75
3130.344	1086.75
3133.521	1095.75
3136.696	1133.75
3139.869	1154.75
3143.039	1194.75
3146.206	1210.75
3149.371	1246.75
3152.533	1242.75
3155.693	1248.75
3158.85	1265.75
3162.005	1261.75
3165.157	1245.75
3168.306	1257.75
3171.453	1262.75
3174.597	1235.75
3177.739	1227.75
3180.878	1220.75
3184.014	1173.75
3187.149	1168.75
3190.28	1168.75
3193.409	1169.75
3196.536	1183.75
3199.659	1211.75
3202.781	1235.75
3205.9	1248.75
3209.016	1258.75
3212.13	1268.75
3215.241	1255.75
3218.35	1261.75
3221.456	1253.75
3224.56	1230.75
3227.661	1222.75
3230.76	1206.75
3233.856	1175.75
3236.95	1161.75
3240.041	1130.75
3243.13	1103.75
3246.216	1102.75
3249.3	1089.75
3252.382	1111.75
3255.46	1119.75
3258.537	1107.75
3261.611	1131.75
3264.682	1136.75
3267.751	1132.75
3270.818	1152.75
3273.882	1141.75
3276.943	1135.75
3280.002	1129.75
3283.059	1120.75
3286.113	1102.75
3289.165	1076.75
3292.214	1061.75
3295.261	1029.75
3298.306	999.75
3301.348	983.75
3304.387	939.75
3307.425	908.75
3310.459	905.75
3313.492	886.75
3316.521	891.75
3319.549	892.75
3322.574	885.75
3325.597	894.75
3328.617	888.75
3331.635	901.75
3334.65	893.75
3337.663	866.75
3340.674	855.75
3343.682	857.75
3346.688	848.75
3349.691	839.75
3352.692	817.75
3355.691	778.75
3358.687	741.75
3361.681	716.75
3364.673	688.75
3367.662	661.75
3370.649	678.75
3373.633	697.75
3376.615	717.75
3379.595	730.75
3382.572	739.75
3385.547	730.75
3388.52	741.75
3391.49	725.75
3394.458	722.75
3397.424	711.75
3400.387	693.75
3403.348	690.75
3406.307	669.75
3409.263	665.75
3412.217	632.75
3415.168	598.75
3418.118	602.75
3421.065	543.75
3424.009	502.75
3426.951	468.75
3429.891	456.75
3432.829	448.75
3435.764	427.75
3438.697	446.75
3441.628	441.75
3444.557	437.75
3447.483	433.75
3450.407	436.75
3453.328	426.75
3456.247	397.75
3459.164	389.75
3462.079	348.75
3464.991	311.75
3467.902	255.75
3470.809	175.75
3473.715	62.75
3476.618	-74.25
3479.519	-282.25
3482.418	-504.25
3485.315	-690.25
3488.209	-846.25
3491.101	-891.25
3493.99	-872.25
3496.878	-830.25
3499.763	-791.25
3502.646	-823.25
3505.527	-890.25
3508.405	-948.25
3511.281	-911.25
3514.155	-836.25
3517.027	-747.25
3519.897	-666.25
3522.764	-657.25
3525.629	-658.25
3528.492	-689.25
3531.352	-782.25
3534.211	-926.25
3537.067	-1100.25
3539.921	-1259.25
3542.773	-1396.25
3545.622	-1454.25
3548.469	-1398.25
3551.315	-1268.25
3554.157	-1085.25
3556.998	-912.25
3559.837	-747.25
3562.673	-623.25
3565.507	-518.25
3568.339	-428.25
3571.169	-393.25
3573.996	-376.25
3576.822	-381.25
3579.645	-522.25
3582.466	-1163.25
3585.285	-1777.25
3588.101	-1743.25
3590.916	-1161.25
3593.728	-819.25
3596.538	-815.25
3599.346	-904.25
3602.152	-987.25
3604.956	-1046.25
3607.757	-1038.25
3610.556	-1018.25
3613.354	-956.25
3616.149	-883.25
3618.942	-786.25
3621.732	-713.25
3624.521	-654.25
3627.307	-577.25
3630.092	-540.25
3632.874	-508.25
3635.654	-475.25
3638.432	-467.25
3641.208	-485.25
3643.982	-498.25
3646.753	-528.25
3649.523	-584.25
3652.29	-615.25
3655.055	-640.25
3657.818	-659.25
3660.579	-668.25
3663.338	-636.25
3666.095	-597.25
3668.849	-539.25
3671.602	-479.25
3674.352	-405.25
3677.101	-347.25
3679.847	-296.25
3682.591	-263.25
3685.333	-226.25
3688.073	-206.25
3690.811	-182.25
3693.547	-180.25
3696.281	-167.25
3699.013	-169.25
3701.742	-161.25
3704.47	-163.25
3707.195	-166.25
3709.919	-165.25
3712.64	-166.25
3715.359	-171.25
3718.076	-171.25
3720.792	-165.25
3723.505	-161.25
3726.216	-153.25
3728.925	-145.25
3731.632	-144.25
3734.336	-138.25
3737.039	-128.25
3739.74	-125.25
3742.439	-129.25
3745.136	-121.25
3747.83	-121.25
3750.523	-127.25
3753.213	-124.25
3755.902	-120.25
3758.589	-124.25
3761.273	-123.25
3763.956	-124.25
3766.636	-134.25
3769.315	-137.25
3771.991	-145.25
3774.665	-141.25
3777.338	-151.25
3780.008	-150.25
3782.677	-159.25
3785.343	-156.25
3788.007	-159.25
3790.67	-154.25
3793.33	-152.25
3795.989	-145.25
3798.645	-147.25
3801.299	-140.25
3803.952	-139.25
3806.602	-139.25
3809.251	-135.25
3811.897	-135.25
3814.542	-132.25
3817.184	-134.25
3819.825	-135.25
3822.463	-130.25
3825.1	-135.25
3827.735	-129.25
3830.367	-129.25
3832.998	-136.25
3835.627	-123.25
3838.253	-127.25
3840.878	-130.25
3843.501	-126.25
3846.122	-124.25
3848.741	-125.25
3851.358	-126.25
3853.973	-124.25
3856.586	-126.25
3859.197	-120.25
3861.806	-128.25
3864.414	-121.25
3867.019	-127.25
3869.622	-122.25
3872.224	-130.25
3874.823	-124.25
3877.421	-125.25
3880.016	-127.25
3882.61	-126.25
3885.202	-128.25
3887.792	-130.25
3890.38	-133.25
3892.966	-129.25
3895.55	-134.25
3898.132	-133.25
3900.713	-132.25
3903.291	-131.25
3905.868	-130.25
3908.442	-124.25
3911.015	-126.25
3913.586	-128.25
3916.155	-122.25
3918.722	-118.25
3921.287	-122.25
3923.85	-124.25
3926.411	-125.25
3928.971	-123.25
3931.528	-127.25
3934.084	-128.25
3936.638	-126.25
3939.19	-127.25
3941.74	-124.25
3944.288	-132.25
3946.834	-130.25
3949.378	-131.25
3951.921	-135.25
3954.462	-134.25
3957	-133.25
3959.537	-127.25
3962.072	-128.25
3964.606	-135.25
3967.137	-133.25
3969.667	-128.25
3972.194	-125.25
3974.72	-125.25
3977.244	-128.25
3979.766	-118.25
3982.286	-121.25
3984.805	-120.25
3987.321	-116.25
3989.836	-121.25
3992.349	-118.25
3994.86	-121.25
3997.369	-118.25
3999.877	-117.25
4002.382	-121.25
4004.886	-123.25
4007.388	-118.25
4009.888	-121.25
4012.386	-122.25
4014.883	-120.25
4017.377	-119.25
4019.87	-119.25
4022.361	-123.25
4024.85	-120.25
4027.338	-115.25
4029.823	-116.25
4032.307	-121.25
4034.789	-118.25
4037.269	-122.25
4039.747	-118.25
4042.224	-125.25
4044.699	-123.25
4047.172	-120.25
4049.643	-127.25
4052.112	-124.25
4054.58	-129.25
4057.046	-121.25
4059.51	-123.25
4061.972	-125.25
4064.432	-124.25
4066.891	-125.25
4069.348	-137.25
4071.803	-146.25
4074.256	-228.25
4076.708	-348.25
4079.158	-355.25
4081.606	-256.25
4084.052	-191.25
4086.497	-159.25
4088.939	-146.25
4091.38	-138.25
4093.819	-135.25
4096.257	-124.25
4098.693	-120.25
4101.127	-123.25
4103.559	-123.25
4105.989	-79.25
4108.418	-70.25
4110.845	-75.25
4113.27	-65.25
4115.694	-64.25
4118.115	-44.25
4120.535	-130.25
4122.954	-131.25
4125.37	-136.25
4127.785	-143.25
4130.198	-186.25
4132.609	-238.25
4135.019	-125.25
4137.427	-123.25
4139.833	-126.25
4142.237	-126.25
