Data from I0.5_T5s_Bsub_water_1-10^2_2_RamanShift_1.txt Node
Date: Mon Mar 13 13:52:30 IST 2017
User: aro
Spectrometer: QEPB0276
Trigger mode: 0
Integration Time (sec): 5.000000E0
Scans to average: 1
Electric dark correction enabled: true
Nonlinearity correction enabled: false
Boxcar width: 0
XAxis mode: Raman Shifts
Number of Pixels in Spectrum: 1044
>>>>>Begin Spectral Data<<<<<
160.701	-9.62
166.742	-0.62
172.777	34.38
178.805	140.38
184.826	402.38
190.841	873.38
196.849	1366.38
202.85	1738.38
208.845	1816.38
214.833	1783.38
220.815	1730.38
226.789	1686.38
232.758	1686.38
238.719	1645.38
244.674	1620.38
250.623	1562.38
256.565	1522.38
262.5	1469.38
268.429	1442.38
274.351	1419.38
280.267	1373.38
286.176	1344.38
292.079	1322.38
297.975	1297.38
303.865	1255.38
309.748	1230.38
315.625	1202.38
321.495	1174.38
327.359	1160.38
333.217	1150.38
339.068	1142.38
344.912	1133.38
350.751	1138.38
356.583	1114.38
362.408	1097.38
368.227	1115.38
374.04	1094.38
379.847	1091.38
385.647	1100.38
391.44	1096.38
397.228	1095.38
403.009	1102.38
408.784	1105.38
414.553	1100.38
420.315	1109.38
426.071	1098.38
431.821	1105.38
437.565	1107.38
443.302	1100.38
449.033	1102.38
454.758	1096.38
460.477	1089.38
466.189	1090.38
471.896	1084.38
477.596	1086.38
483.29	1071.38
488.978	1062.38
494.66	1067.38
500.335	1071.38
506.005	1058.38
511.668	1034.38
517.325	1012.38
522.977	1018.38
528.622	1008.38
534.261	999.38
539.894	1002.38
545.521	993.38
551.141	1001.38
556.756	969.38
562.365	984.38
567.968	980.38
573.565	971.38
579.155	982.38
584.74	955.38
590.319	957.38
595.892	967.38
601.459	954.38
607.02	957.38
612.575	943.38
618.124	944.38
623.667	936.38
629.204	935.38
634.735	931.38
640.261	927.38
645.781	928.38
651.294	919.38
656.802	917.38
662.304	919.38
667.8	905.38
673.29	917.38
678.775	915.38
684.254	925.38
689.726	912.38
695.193	907.38
700.655	909.38
706.11	903.38
711.56	895.38
717.004	897.38
722.442	891.38
727.874	896.38
733.301	884.38
738.722	880.38
744.137	892.38
749.547	879.38
754.951	893.38
760.349	891.38
765.741	896.38
771.128	898.38
776.509	900.38
781.885	895.38
787.254	899.38
792.618	892.38
797.977	889.38
803.33	870.38
808.677	875.38
814.019	895.38
819.355	880.38
824.686	868.38
830.011	861.38
835.33	864.38
840.644	863.38
845.952	862.38
851.255	867.38
856.552	874.38
861.844	867.38
867.13	869.38
872.41	866.38
877.686	863.38
882.955	865.38
888.219	846.38
893.478	845.38
898.731	843.38
903.979	828.38
909.221	828.38
914.458	831.38
919.69	833.38
924.916	833.38
930.136	830.38
935.351	837.38
940.561	843.38
945.766	835.38
950.965	848.38
956.158	830.38
961.347	818.38
966.529	812.38
971.707	809.38
976.879	799.38
982.046	796.38
987.208	790.38
992.364	796.38
997.515	798.38
1002.66	811.38
1007.801	809.38
1012.936	824.38
1018.066	827.38
1023.19	825.38
1028.309	832.38
1033.423	840.38
1038.532	833.38
1043.636	840.38
1048.734	835.38
1053.827	812.38
1058.915	806.38
1063.998	809.38
1069.075	816.38
1074.147	822.38
1079.214	819.38
1084.276	821.38
1089.333	823.38
1094.385	841.38
1099.431	838.38
1104.472	836.38
1109.509	822.38
1114.54	849.38
1119.565	809.38
1124.586	815.38
1129.602	809.38
1134.613	801.38
1139.618	810.38
1144.619	790.38
1149.614	810.38
1154.604	812.38
1159.589	825.38
1164.57	828.38
1169.545	819.38
1174.515	821.38
1179.48	823.38
1184.44	812.38
1189.395	824.38
1194.345	828.38
1199.29	817.38
1204.23	818.38
1209.165	832.38
1214.095	826.38
1219.021	838.38
1223.941	849.38
1228.856	848.38
1233.766	838.38
1238.672	848.38
1243.572	842.38
1248.467	836.38
1253.358	832.38
1258.244	830.38
1263.124	835.38
1268	789.38
1272.871	800.38
1277.737	794.38
1282.599	779.38
1287.455	788.38
1292.306	799.38
1297.153	804.38
1301.995	811.38
1306.832	816.38
1311.664	822.38
1316.491	841.38
1321.314	819.38
1326.132	824.38
1330.945	810.38
1335.753	794.38
1340.556	780.38
1345.354	774.38
1350.148	759.38
1354.937	764.38
1359.722	767.38
1364.501	779.38
1369.276	781.38
1374.046	778.38
1378.811	799.38
1383.572	791.38
1388.327	791.38
1393.079	784.38
1397.825	782.38
1402.567	763.38
1407.304	763.38
1412.036	751.38
1416.764	754.38
1421.487	761.38
1426.205	752.38
1430.919	748.38
1435.628	769.38
1440.333	772.38
1445.032	785.38
1449.727	780.38
1454.418	782.38
1459.104	781.38
1463.785	783.38
1468.462	764.38
1473.134	768.38
1477.802	766.38
1482.465	747.38
1487.123	751.38
1491.777	761.38
1496.426	760.38
1501.071	765.38
1505.711	781.38
1510.347	780.38
1514.978	789.38
1519.604	806.38
1524.226	805.38
1528.844	808.38
1533.457	808.38
1538.065	811.38
1542.669	796.38
1547.269	798.38
1551.864	795.38
1556.454	797.38
1561.041	797.38
1565.622	796.38
1570.199	810.38
1574.772	802.38
1579.34	812.38
1583.904	810.38
1588.464	816.38
1593.019	824.38
1597.569	837.38
1602.115	824.38
1606.657	831.38
1611.195	816.38
1615.728	824.38
1620.256	826.38
1624.78	819.38
1629.3	835.38
1633.816	839.38
1638.327	845.38
1642.834	842.38
1647.336	866.38
1651.834	863.38
1656.328	874.38
1660.817	866.38
1665.302	863.38
1669.783	853.38
1674.259	846.38
1678.732	827.38
1683.199	800.38
1687.663	794.38
1692.122	763.38
1696.577	757.38
1701.028	744.38
1705.474	740.38
1709.917	749.38
1714.355	734.38
1718.788	724.38
1723.218	723.38
1727.643	702.38
1732.064	702.38
1736.481	695.38
1740.893	696.38
1745.301	680.38
1749.705	661.38
1754.105	653.38
1758.501	645.38
1762.893	627.38
1767.28	621.38
1771.663	620.38
1776.042	624.38
1780.417	624.38
1784.787	619.38
1789.154	640.38
1793.516	642.38
1797.874	644.38
1802.228	643.38
1806.578	657.38
1810.924	648.38
1815.266	639.38
1819.603	638.38
1823.937	627.38
1828.266	616.38
1832.591	613.38
1836.913	606.38
1841.23	610.38
1845.543	622.38
1849.852	598.38
1854.156	596.38
1858.457	607.38
1862.754	610.38
1867.047	611.38
1871.335	614.38
1875.62	616.38
1879.9	602.38
1884.177	614.38
1888.449	609.38
1892.718	604.38
1896.982	603.38
1901.243	606.38
1905.499	604.38
1909.752	587.38
1914	599.38
1918.245	597.38
1922.485	600.38
1926.722	606.38
1930.954	607.38
1935.183	624.38
1939.408	619.38
1943.628	612.38
1947.845	626.38
1952.058	615.38
1956.267	618.38
1960.472	611.38
1964.673	603.38
1968.87	598.38
1973.063	592.38
1977.252	587.38
1981.438	584.38
1985.619	593.38
1989.797	581.38
1993.971	586.38
1998.14	582.38
2002.306	581.38
2006.469	585.38
2010.627	587.38
2014.781	581.38
2018.932	583.38
2023.078	580.38
2027.221	584.38
2031.36	570.38
2035.495	559.38
2039.627	559.38
2043.754	563.38
2047.878	551.38
2051.998	554.38
2056.114	563.38
2060.226	551.38
2064.334	554.38
2068.439	563.38
2072.54	561.38
2076.637	563.38
2080.73	554.38
2084.82	562.38
2088.906	571.38
2092.988	564.38
2097.066	569.38
2101.14	570.38
2105.211	549.38
2109.278	555.38
2113.342	544.38
2117.401	547.38
2121.457	545.38
2125.509	548.38
2129.558	541.38
2133.602	551.38
2137.643	551.38
2141.681	537.38
2145.714	537.38
2149.744	545.38
2153.77	532.38
2157.793	536.38
2161.812	534.38
2165.827	530.38
2169.838	509.38
2173.846	516.38
2177.851	509.38
2181.851	490.38
2185.848	497.38
2189.841	496.38
2193.831	487.38
2197.817	491.38
2201.799	490.38
2205.778	488.38
2209.753	488.38
2213.725	494.38
2217.693	479.38
2221.657	484.38
2225.618	488.38
2229.575	485.38
2233.529	477.38
2237.479	481.38
2241.425	470.38
2245.368	479.38
2249.307	469.38
2253.243	471.38
2257.175	461.38
2261.104	452.38
2265.029	446.38
2268.95	454.38
2272.868	448.38
2276.783	436.38
2280.694	442.38
2284.601	450.38
2288.505	435.38
2292.405	438.38
2296.302	428.38
2300.195	427.38
2304.085	418.38
2307.971	422.38
2311.854	407.38
2315.734	397.38
2319.609	402.38
2323.482	396.38
2327.351	386.38
2331.216	385.38
2335.078	391.38
2338.937	387.38
2342.792	382.38
2346.643	374.38
2350.492	378.38
2354.336	381.38
2358.178	382.38
2362.015	384.38
2365.85	373.38
2369.681	377.38
2373.508	379.38
2377.333	388.38
2381.153	386.38
2384.971	381.38
2388.785	364.38
2392.595	392.38
2396.402	379.38
2400.206	379.38
2404.007	377.38
2407.804	369.38
2411.597	372.38
2415.388	370.38
2419.174	361.38
2422.958	375.38
2426.738	371.38
2430.515	366.38
2434.289	366.38
2438.059	368.38
2441.825	359.38
2445.589	360.38
2449.349	353.38
2453.106	357.38
2456.859	346.38
2460.61	350.38
2464.356	340.38
2468.1	344.38
2471.84	339.38
2475.577	332.38
2479.311	338.38
2483.041	354.38
2486.768	338.38
2490.492	336.38
2494.213	345.38
2497.93	339.38
2501.644	346.38
2505.355	330.38
2509.062	333.38
2512.766	340.38
2516.467	348.38
2520.165	341.38
2523.859	340.38
2527.551	338.38
2531.239	329.38
2534.923	338.38
2538.605	327.38
2542.283	323.38
2545.958	325.38
2549.63	321.38
2553.299	321.38
2556.964	321.38
2560.626	315.38
2564.285	313.38
2567.941	318.38
2571.594	310.38
2575.243	310.38
2578.89	309.38
2582.533	312.38
2586.173	311.38
2589.809	307.38
2593.443	313.38
2597.073	310.38
2600.701	301.38
2604.325	298.38
2607.946	301.38
2611.564	303.38
2615.178	300.38
2618.79	297.38
2622.398	294.38
2626.004	288.38
2629.606	291.38
2633.205	292.38
2636.801	288.38
2640.394	282.38
2643.983	296.38
2647.57	287.38
2651.153	283.38
2654.734	281.38
2658.311	278.38
2661.885	264.38
2665.456	269.38
2669.025	265.38
2672.589	268.38
2676.151	261.38
2679.71	265.38
2683.266	255.38
2686.819	263.38
2690.368	254.38
2693.915	251.38
2697.458	249.38
2700.999	242.38
2704.536	238.38
2708.071	241.38
2711.602	241.38
2715.13	238.38
2718.656	238.38
2722.178	229.38
2725.697	234.38
2729.214	230.38
2732.727	228.38
2736.237	228.38
2739.744	231.38
2743.249	235.38
2746.75	229.38
2750.248	240.38
2753.743	234.38
2757.236	229.38
2760.725	228.38
2764.211	234.38
2767.695	230.38
2771.175	238.38
2774.652	227.38
2778.127	227.38
2781.598	223.38
2785.067	225.38
2788.532	230.38
2791.995	229.38
2795.455	222.38
2798.911	221.38
2802.365	224.38
2805.816	217.38
2809.264	210.38
2812.709	212.38
2816.151	215.38
2819.59	218.38
2823.026	214.38
2826.46	214.38
2829.89	211.38
2833.318	208.38
2836.742	210.38
2840.164	208.38
2843.583	210.38
2846.999	214.38
2850.412	207.38
2853.822	209.38
2857.229	212.38
2860.634	216.38
2864.035	211.38
2867.434	212.38
2870.83	213.38
2874.223	216.38
2877.613	214.38
2881	208.38
2884.385	216.38
2887.766	211.38
2891.145	198.38
2894.521	207.38
2897.894	201.38
2901.264	200.38
2904.631	205.38
2907.996	195.38
2911.358	209.38
2914.717	200.38
2918.073	200.38
2921.426	197.38
2924.777	193.38
2928.124	204.38
2931.469	199.38
2934.811	203.38
2938.15	207.38
2941.487	205.38
2944.821	199.38
2948.152	204.38
2951.48	209.38
2954.805	203.38
2958.128	203.38
2961.447	213.38
2964.765	208.38
2968.079	211.38
2971.39	216.38
2974.699	210.38
2978.005	212.38
2981.308	208.38
2984.609	209.38
2987.907	215.38
2991.202	220.38
2994.494	224.38
2997.784	232.38
3001.07	225.38
3004.355	240.38
3007.636	236.38
3010.915	241.38
3014.191	244.38
3017.464	247.38
3020.734	247.38
3024.002	241.38
3027.267	246.38
3030.53	248.38
3033.789	244.38
3037.046	250.38
3040.301	248.38
3043.552	256.38
3046.801	257.38
3050.048	256.38
3053.291	266.38
3056.532	272.38
3059.771	273.38
3063.006	279.38
3066.239	282.38
3069.469	295.38
3072.697	296.38
3075.922	296.38
3079.144	302.38
3082.364	300.38
3085.581	307.38
3088.795	313.38
3092.007	333.38
3095.216	333.38
3098.423	334.38
3101.627	343.38
3104.828	340.38
3108.026	346.38
3111.222	346.38
3114.416	364.38
3117.607	356.38
3120.795	374.38
3123.98	377.38
3127.163	395.38
3130.344	385.38
3133.521	400.38
3136.696	400.38
3139.869	407.38
3143.039	404.38
3146.206	412.38
3149.371	423.38
3152.533	407.38
3155.693	425.38
3158.85	420.38
3162.005	434.38
3165.157	432.38
3168.306	431.38
3171.453	427.38
3174.597	430.38
3177.739	429.38
3180.878	440.38
3184.014	431.38
3187.149	429.38
3190.28	425.38
3193.409	438.38
3196.536	432.38
3199.659	428.38
3202.781	437.38
3205.9	441.38
3209.016	425.38
3212.13	433.38
3215.241	429.38
3218.35	427.38
3221.456	420.38
3224.56	417.38
3227.661	414.38
3230.76	413.38
3233.856	408.38
3236.95	399.38
3240.041	400.38
3243.13	402.38
3246.216	394.38
3249.3	399.38
3252.382	395.38
3255.46	392.38
3258.537	394.38
3261.611	395.38
3264.682	394.38
3267.751	391.38
3270.818	387.38
3273.882	385.38
3276.943	379.38
3280.002	377.38
3283.059	371.38
3286.113	365.38
3289.165	365.38
3292.214	363.38
3295.261	349.38
3298.306	348.38
3301.348	341.38
3304.387	338.38
3307.425	327.38
3310.459	327.38
3313.492	324.38
3316.521	321.38
3319.549	313.38
3322.574	306.38
3325.597	308.38
3328.617	308.38
3331.635	306.38
3334.65	307.38
3337.663	300.38
3340.674	294.38
3343.682	293.38
3346.688	297.38
3349.691	291.38
3352.692	294.38
3355.691	285.38
3358.687	282.38
3361.681	291.38
3364.673	279.38
3367.662	276.38
3370.649	263.38
3373.633	261.38
3376.615	266.38
3379.595	266.38
3382.572	262.38
3385.547	254.38
3388.52	252.38
3391.49	255.38
3394.458	250.38
3397.424	243.38
3400.387	237.38
3403.348	235.38
3406.307	225.38
3409.263	236.38
3412.217	231.38
3415.168	228.38
3418.118	221.38
3421.065	220.38
3424.009	210.38
3426.951	206.38
3429.891	207.38
3432.829	206.38
3435.764	194.38
3438.697	199.38
3441.628	200.38
3444.557	184.38
3447.483	187.38
3450.407	178.38
3453.328	178.38
3456.247	174.38
3459.164	172.38
3462.079	161.38
3464.991	166.38
3467.902	157.38
3470.809	150.38
3473.715	141.38
3476.618	138.38
3479.519	138.38
3482.418	133.38
3485.315	125.38
3488.209	133.38
3491.101	122.38
3493.99	114.38
3496.878	112.38
3499.763	115.38
3502.646	105.38
3505.527	99.38
3508.405	104.38
3511.281	95.38
3514.155	93.38
3517.027	87.38
3519.897	89.38
3522.764	82.38
3525.629	80.38
3528.492	79.38
3531.352	71.38
3534.211	69.38
3537.067	63.38
3539.921	63.38
3542.773	61.38
3545.622	54.38
3548.469	49.38
3551.315	44.38
3554.157	45.38
3556.998	37.38
3559.837	40.38
3562.673	37.38
3565.507	32.38
3568.339	30.38
3571.169	32.38
3573.996	26.38
3576.822	29.38
3579.645	25.38
3582.466	22.38
3585.285	22.38
3588.101	20.38
3590.916	20.38
3593.728	18.38
3596.538	16.38
3599.346	16.38
3602.152	7.38
3604.956	10.38
3607.757	7.38
3610.556	4.38
3613.354	7.38
3616.149	6.38
3618.942	-0.62
3621.732	-1.62
3624.521	-3.62
3627.307	-2.62
3630.092	-7.62
3632.874	-5.62
3635.654	-4.62
3638.432	-7.62
3641.208	-9.62
3643.982	-8.62
3646.753	-9.62
3649.523	-6.62
3652.29	-11.62
3655.055	-9.62
3657.818	-10.62
3660.579	-13.62
3663.338	-14.62
3666.095	-13.62
3668.849	-14.62
3671.602	-11.62
3674.352	-13.62
3677.101	-16.62
3679.847	-16.62
3682.591	-20.62
3685.333	-19.62
3688.073	-20.62
3690.811	-22.62
3693.547	-20.62
3696.281	-21.62
3699.013	-26.62
3701.742	-22.62
3704.47	-26.62
3707.195	-24.62
3709.919	-25.62
3712.64	-24.62
3715.359	-27.62
3718.076	-27.62
3720.792	-23.62
3723.505	-25.62
3726.216	-28.62
3728.925	-32.62
3731.632	-31.62
3734.336	-25.62
3737.039	-26.62
3739.74	-23.62
3742.439	-26.62
3745.136	-29.62
3747.83	-24.62
3750.523	-22.62
3753.213	-29.62
3755.902	-29.62
3758.589	-28.62
3761.273	-27.62
3763.956	-29.62
3766.636	-29.62
3769.315	-33.62
3771.991	-31.62
3774.665	-30.62
3777.338	-33.62
3780.008	-34.62
3782.677	-32.62
3785.343	-30.62
3788.007	-31.62
3790.67	-34.62
3793.33	-32.62
3795.989	-33.62
3798.645	-31.62
3801.299	-30.62
3803.952	-29.62
3806.602	-27.62
3809.251	-27.62
3811.897	-30.62
3814.542	-28.62
3817.184	-35.62
3819.825	-28.62
3822.463	-32.62
3825.1	-34.62
3827.735	-35.62
3830.367	-34.62
3832.998	-35.62
3835.627	-33.62
3838.253	-31.62
3840.878	-34.62
3843.501	-37.62
3846.122	-34.62
3848.741	-35.62
3851.358	-36.62
3853.973	-38.62
3856.586	-35.62
3859.197	-34.62
3861.806	-31.62
3864.414	-33.62
3867.019	-33.62
3869.622	-36.62
3872.224	-32.62
3874.823	-34.62
3877.421	-29.62
3880.016	-30.62
3882.61	-28.62
3885.202	-29.62
3887.792	-29.62
3890.38	-35.62
3892.966	-34.62
3895.55	-36.62
3898.132	-33.62
3900.713	-36.62
3903.291	-37.62
3905.868	-39.62
3908.442	-37.62
3911.015	-36.62
3913.586	-37.62
3916.155	-40.62
3918.722	-38.62
3921.287	-39.62
3923.85	-38.62
3926.411	-41.62
3928.971	-40.62
3931.528	-38.62
3934.084	-38.62
3936.638	-37.62
3939.19	-35.62
3941.74	-40.62
3944.288	-34.62
3946.834	-36.62
3949.378	-37.62
3951.921	-37.62
3954.462	-36.62
3957	-39.62
3959.537	-34.62
3962.072	-36.62
3964.606	-37.62
3967.137	-36.62
3969.667	-39.62
3972.194	-41.62
3974.72	-38.62
3977.244	-36.62
3979.766	-36.62
3982.286	-39.62
3984.805	-42.62
3987.321	-37.62
3989.836	-37.62
3992.349	-38.62
3994.86	-38.62
3997.369	-38.62
3999.877	-33.62
4002.382	-40.62
4004.886	-37.62
4007.388	-36.62
4009.888	-34.62
4012.386	-31.62
4014.883	-33.62
4017.377	-35.62
4019.87	-36.62
4022.361	-35.62
4024.85	-37.62
4027.338	-33.62
4029.823	-40.62
4032.307	-40.62
4034.789	-38.62
4037.269	-39.62
4039.747	-37.62
4042.224	-38.62
4044.699	-41.62
4047.172	-37.62
4049.643	-37.62
4052.112	-36.62
4054.58	-37.62
4057.046	-39.62
4059.51	-35.62
4061.972	-37.62
4064.432	-33.62
4066.891	-38.62
4069.348	-37.62
4071.803	-33.62
4074.256	-38.62
4076.708	-33.62
4079.158	-37.62
4081.606	-38.62
4084.052	-35.62
4086.497	-37.62
4088.939	-38.62
4091.38	-38.62
4093.819	-38.62
4096.257	-42.62
4098.693	-37.62
4101.127	-35.62
4103.559	-33.62
4105.989	-21.62
4108.418	-24.62
4110.845	-20.62
4113.27	-22.62
4115.694	-24.62
4118.115	-12.62
4120.535	-39.62
4122.954	-39.62
4125.37	-38.62
4127.785	-35.62
4130.198	-38.62
4132.609	-42.62
4135.019	-41.62
4137.427	-40.62
4139.833	-40.62
4142.237	-41.62
