Data from I0.5_T15s_Bsub_water_1-10^4_1_RamanShift_1.txt Node
Date: Mon Mar 13 14:19:47 IST 2017
User: aro
Spectrometer: QEPB0276
Trigger mode: 0
Integration Time (sec): 1.500000E1
Scans to average: 1
Electric dark correction enabled: true
Nonlinearity correction enabled: false
Boxcar width: 0
XAxis mode: Raman Shifts
Number of Pixels in Spectrum: 1044
>>>>>Begin Spectral Data<<<<<
160.701	-33.75
166.742	2.25
172.777	103.25
178.805	431.25
184.826	1254.25
190.841	2678.25
196.849	4285.25
202.85	5284.25
208.845	5550.25
214.833	5398.25
220.815	5269.25
226.789	5151.25
232.758	5067.25
238.719	4936.25
244.674	4675.25
250.623	4389.25
256.565	4077.25
262.5	3841.25
268.429	3761.25
274.351	3878.25
280.267	4023.25
286.176	3948.25
292.079	3870.25
297.975	3759.25
303.865	3644.25
309.748	3564.25
315.625	3492.25
321.495	3407.25
327.359	3394.25
333.217	3335.25
339.068	3316.25
344.912	3284.25
350.751	3260.25
356.583	3242.25
362.408	3228.25
368.227	3205.25
374.04	3200.25
379.847	3183.25
385.647	3134.25
391.44	2954.25
397.228	2639.25
403.009	2325.25
408.784	2009.25
414.553	1438.25
420.315	853.25
426.071	1536.25
431.821	2709.25
437.565	3151.25
443.302	3156.25
449.033	3184.25
454.758	3189.25
460.477	3177.25
466.189	3160.25
471.896	3145.25
477.596	3123.25
483.29	3101.25
488.978	3108.25
494.66	3109.25
500.335	3046.25
506.005	3010.25
511.668	2974.25
517.325	2934.25
522.977	2910.25
528.622	2877.25
534.261	2865.25
539.894	2836.25
545.521	2820.25
551.141	2792.25
556.756	2792.25
562.365	2783.25
567.968	2743.25
573.565	2778.25
579.155	2785.25
584.74	2733.25
590.319	2755.25
595.892	2716.25
601.459	2703.25
607.02	2708.25
612.575	2674.25
618.124	2629.25
623.667	2607.25
629.204	2548.25
634.735	2416.25
640.261	2223.25
645.781	2242.25
651.294	2395.25
656.802	2551.25
662.304	2541.25
667.8	2548.25
673.29	2535.25
678.775	2541.25
684.254	2543.25
689.726	2555.25
695.193	2519.25
700.655	2522.25
706.11	2512.25
711.56	2495.25
717.004	2485.25
722.442	2501.25
727.874	2476.25
733.301	2472.25
738.722	2471.25
744.137	2475.25
749.547	2461.25
754.951	2441.25
760.349	2436.25
765.741	2447.25
771.128	2459.25
776.509	2468.25
781.885	2473.25
787.254	2465.25
792.618	2448.25
797.977	2445.25
803.33	2430.25
808.677	2403.25
814.019	2392.25
819.355	2368.25
824.686	2371.25
830.011	2324.25
835.33	2271.25
840.644	2028.25
845.952	1641.25
851.255	1530.25
856.552	1839.25
861.844	1976.25
867.13	1452.25
872.41	934.25
877.686	1347.25
882.955	2029.25
888.219	2251.25
893.478	2254.25
898.731	2232.25
903.979	2228.25
909.221	2232.25
914.458	2228.25
919.69	2231.25
924.916	2221.25
930.136	2233.25
935.351	2209.25
940.561	2231.25
945.766	2252.25
950.965	2230.25
956.158	2206.25
961.347	2178.25
966.529	2164.25
971.707	2143.25
976.879	2128.25
982.046	2096.25
987.208	2092.25
992.364	2085.25
997.515	2024.25
1002.66	1850.25
1007.801	1723.25
1012.936	1901.25
1018.066	2140.25
1023.19	2216.25
1028.309	2226.25
1033.423	2242.25
1038.532	2226.25
1043.636	2233.25
1048.734	2194.25
1053.827	2181.25
1058.915	2142.25
1063.998	2151.25
1069.075	2141.25
1074.147	2144.25
1079.214	2183.25
1084.276	2178.25
1089.333	2186.25
1094.385	2209.25
1099.431	2227.25
1104.472	2240.25
1109.509	2240.25
1114.54	2202.25
1119.565	2177.25
1124.586	2133.25
1129.602	2156.25
1134.613	2144.25
1139.618	2127.25
1144.619	2126.25
1149.614	2142.25
1154.604	2118.25
1159.589	2142.25
1164.57	2125.25
1169.545	2166.25
1174.515	2187.25
1179.48	2190.25
1184.44	2158.25
1189.395	2168.25
1194.345	2145.25
1199.29	2100.25
1204.23	2055.25
1209.165	2081.25
1214.095	2168.25
1219.021	2183.25
1223.941	2196.25
1228.856	2237.25
1233.766	2243.25
1238.672	2249.25
1243.572	2252.25
1248.467	2234.25
1253.358	2232.25
1258.244	2188.25
1263.124	2133.25
1268	2113.25
1272.871	2073.25
1277.737	2099.25
1282.599	2110.25
1287.455	2108.25
1292.306	2100.25
1297.153	2131.25
1301.995	2143.25
1306.832	2163.25
1311.664	2163.25
1316.491	2179.25
1321.314	2179.25
1326.132	2140.25
1330.945	2130.25
1335.753	2094.25
1340.556	2051.25
1345.354	2011.25
1350.148	2019.25
1354.937	2008.25
1359.722	2027.25
1364.501	2021.25
1369.276	2057.25
1374.046	2082.25
1378.811	2085.25
1383.572	2125.25
1388.327	2075.25
1393.079	2073.25
1397.825	2039.25
1402.567	2015.25
1407.304	1985.25
1412.036	2003.25
1416.764	1986.25
1421.487	1970.25
1426.205	1971.25
1430.919	1985.25
1435.628	1998.25
1440.333	2040.25
1445.032	2059.25
1449.727	2062.25
1454.418	2068.25
1459.104	2073.25
1463.785	2049.25
1468.462	2011.25
1473.134	1987.25
1477.802	1996.25
1482.465	1989.25
1487.123	1997.25
1491.777	1981.25
1496.426	2018.25
1501.071	2035.25
1505.711	2038.25
1510.347	2066.25
1514.978	2104.25
1519.604	2122.25
1524.226	2128.25
1528.844	2131.25
1533.457	2116.25
1538.065	2117.25
1542.669	2108.25
1547.269	2120.25
1551.864	2086.25
1556.454	2104.25
1561.041	2115.25
1565.622	2134.25
1570.199	2148.25
1574.772	2173.25
1579.34	2194.25
1583.904	2211.25
1588.464	2227.25
1593.019	2233.25
1597.569	2254.25
1602.115	2239.25
1606.657	2233.25
1611.195	2252.25
1615.728	2244.25
1620.256	2258.25
1624.78	2270.25
1629.3	2301.25
1633.816	2312.25
1638.327	2342.25
1642.834	2339.25
1647.336	2375.25
1651.834	2394.25
1656.328	2398.25
1660.817	2392.25
1665.302	2390.25
1669.783	2341.25
1674.259	2268.25
1678.732	2269.25
1683.199	2197.25
1687.663	2108.25
1692.122	2039.25
1696.577	2012.25
1701.028	1997.25
1705.474	1994.25
1709.917	1974.25
1714.355	1956.25
1718.788	1920.25
1723.218	1909.25
1727.643	1884.25
1732.064	1845.25
1736.481	1796.25
1740.893	1778.25
1745.301	1744.25
1749.705	1706.25
1754.105	1678.25
1758.501	1635.25
1762.893	1599.25
1767.28	1518.25
1771.663	1360.25
1776.042	534.25
1780.417	-479.75
1784.787	22.25
1789.154	1220.25
1793.516	1556.25
1797.874	1602.25
1802.228	1661.25
1806.578	1669.25
1810.924	1644.25
1815.266	1633.25
1819.603	1643.25
1823.937	1613.25
1828.266	1599.25
1832.591	1578.25
1836.913	1571.25
1841.23	1561.25
1845.543	1565.25
1849.852	1552.25
1854.156	1544.25
1858.457	1542.25
1862.754	1549.25
1867.047	1556.25
1871.335	1572.25
1875.62	1563.25
1879.9	1561.25
1884.177	1556.25
1888.449	1559.25
1892.718	1514.25
1896.982	1300.25
1901.243	1069.25
1905.499	1187.25
1909.752	1461.25
1914	1535.25
1918.245	1527.25
1922.485	1541.25
1926.722	1561.25
1930.954	1572.25
1935.183	1580.25
1939.408	1599.25
1943.628	1584.25
1947.845	1609.25
1952.058	1595.25
1956.267	1597.25
1960.472	1583.25
1964.673	1577.25
1968.87	1557.25
1973.063	1538.25
1977.252	1527.25
1981.438	1536.25
1985.619	1515.25
1989.797	1520.25
1993.971	1502.25
1998.14	1521.25
2002.306	1542.25
2006.469	1534.25
2010.627	1545.25
2014.781	1527.25
2018.932	1537.25
2023.078	1527.25
2027.221	1521.25
2031.36	1515.25
2035.495	1477.25
2039.627	1473.25
2043.754	1454.25
2047.878	1443.25
2051.998	1427.25
2056.114	1441.25
2060.226	1474.25
2064.334	1474.25
2068.439	1486.25
2072.54	1490.25
2076.637	1500.25
2080.73	1510.25
2084.82	1502.25
2088.906	1505.25
2092.988	1489.25
2097.066	1487.25
2101.14	1458.25
2105.211	1461.25
2109.278	1469.25
2113.342	1457.25
2117.401	1457.25
2121.457	1456.25
2125.509	1442.25
2129.558	1448.25
2133.602	1438.25
2137.643	1437.25
2141.681	1440.25
2145.714	1431.25
2149.744	1429.25
2153.77	1426.25
2157.793	1403.25
2161.812	1401.25
2165.827	1376.25
2169.838	1375.25
2173.846	1345.25
2177.851	1319.25
2181.851	1320.25
2185.848	1303.25
2189.841	1305.25
2193.831	1276.25
2197.817	1271.25
2201.799	1248.25
2205.778	1287.25
2209.753	1271.25
2213.725	1277.25
2217.693	1285.25
2221.657	1264.25
2225.618	1269.25
2229.575	1272.25
2233.529	1264.25
2237.479	1272.25
2241.425	1250.25
2245.368	1232.25
2249.307	1222.25
2253.243	1198.25
2257.175	1201.25
2261.104	1192.25
2265.029	1204.25
2268.95	1177.25
2272.868	1161.25
2276.783	1163.25
2280.694	1136.25
2284.601	1129.25
2288.505	1106.25
2292.405	1130.25
2296.302	1093.25
2300.195	1092.25
2304.085	1082.25
2307.971	1061.25
2311.854	1037.25
2315.734	1050.25
2319.609	1016.25
2323.482	1021.25
2327.351	1016.25
2331.216	991.25
2335.078	991.25
2338.937	984.25
2342.792	964.25
2346.643	973.25
2350.492	978.25
2354.336	982.25
2358.178	963.25
2362.015	963.25
2365.85	959.25
2369.681	961.25
2373.508	959.25
2377.333	945.25
2381.153	877.25
2384.971	671.25
2388.785	603.25
2392.595	770.25
2396.402	908.25
2400.206	931.25
2404.007	937.25
2407.804	924.25
2411.597	934.25
2415.388	912.25
2419.174	916.25
2422.958	919.25
2426.738	914.25
2430.515	922.25
2434.289	926.25
2438.059	906.25
2441.825	919.25
2445.589	914.25
2449.349	911.25
2453.106	921.25
2456.859	902.25
2460.61	897.25
2464.356	882.25
2468.1	875.25
2471.84	863.25
2475.577	846.25
2479.311	860.25
2483.041	839.25
2486.768	857.25
2490.492	861.25
2494.213	862.25
2497.93	871.25
2501.644	864.25
2505.355	856.25
2509.062	863.25
2512.766	861.25
2516.467	828.25
2520.165	778.25
2523.859	785.25
2527.551	822.25
2531.239	809.25
2534.923	804.25
2538.605	807.25
2542.283	819.25
2545.958	803.25
2549.63	809.25
2553.299	804.25
2556.964	809.25
2560.626	806.25
2564.285	811.25
2567.941	794.25
2571.594	791.25
2575.243	790.25
2578.89	782.25
2582.533	778.25
2586.173	781.25
2589.809	772.25
2593.443	763.25
2597.073	764.25
2600.701	758.25
2604.325	741.25
2607.946	761.25
2611.564	742.25
2615.178	738.25
2618.79	741.25
2622.398	747.25
2626.004	748.25
2629.606	736.25
2633.205	731.25
2636.801	723.25
2640.394	717.25
2643.983	712.25
2647.57	691.25
2651.153	691.25
2654.734	685.25
2658.311	672.25
2661.885	670.25
2665.456	665.25
2669.025	660.25
2672.589	656.25
2676.151	653.25
2679.71	645.25
2683.266	633.25
2686.819	643.25
2690.368	628.25
2693.915	625.25
2697.458	619.25
2700.999	600.25
2704.536	592.25
2708.071	583.25
2711.602	584.25
2715.13	575.25
2718.656	566.25
2722.178	577.25
2725.697	564.25
2729.214	563.25
2732.727	566.25
2736.237	556.25
2739.744	558.25
2743.249	575.25
2746.75	565.25
2750.248	591.25
2753.743	584.25
2757.236	576.25
2760.725	573.25
2764.211	572.25
2767.695	579.25
2771.175	554.25
2774.652	558.25
2778.127	556.25
2781.598	569.25
2785.067	539.25
2788.532	533.25
2791.995	515.25
2795.455	513.25
2798.911	505.25
2802.365	507.25
2805.816	490.25
2809.264	487.25
2812.709	498.25
2816.151	480.25
2819.59	483.25
2823.026	474.25
2826.46	465.25
2829.89	455.25
2833.318	450.25
2836.742	424.25
2840.164	413.25
2843.583	392.25
2846.999	358.25
2850.412	340.25
2853.822	297.25
2857.229	252.25
2860.634	208.25
2864.035	127.25
2867.434	21.25
2870.83	-168.75
2874.223	-962.75
2877.613	-2689.75
2881	-2949.75
2884.385	-1348.75
2887.766	-274.75
2891.145	-26.75
2894.521	121.25
2897.894	197.25
2901.264	244.25
2904.631	287.25
2907.996	347.25
2911.358	365.25
2914.717	383.25
2918.073	401.25
2921.426	426.25
2924.777	441.25
2928.124	431.25
2931.469	443.25
2934.811	443.25
2938.15	442.25
2941.487	445.25
2944.821	447.25
2948.152	434.25
2951.48	433.25
2954.805	438.25
2958.128	450.25
2961.447	466.25
2964.765	476.25
2968.079	499.25
2971.39	511.25
2974.699	519.25
2978.005	525.25
2981.308	542.25
2984.609	541.25
2987.907	548.25
2991.202	545.25
2994.494	547.25
2997.784	524.25
3001.07	530.25
3004.355	520.25
3007.636	530.25
3010.915	550.25
3014.191	578.25
3017.464	605.25
3020.734	617.25
3024.002	645.25
3027.267	650.25
3030.53	676.25
3033.789	680.25
3037.046	676.25
3040.301	702.25
3043.552	709.25
3046.801	729.25
3050.048	737.25
3053.291	739.25
3056.532	752.25
3059.771	757.25
3063.006	750.25
3066.239	758.25
3069.469	755.25
3072.697	771.25
3075.922	801.25
3079.144	852.25
3082.364	886.25
3085.581	908.25
3088.795	915.25
3092.007	967.25
3095.216	981.25
3098.423	982.25
3101.627	997.25
3104.828	1029.25
3108.026	1061.25
3111.222	1053.25
3114.416	1072.25
3117.607	1085.25
3120.795	1088.25
3123.98	1115.25
3127.163	1101.25
3130.344	1137.25
3133.521	1147.25
3136.696	1174.25
3139.869	1216.25
3143.039	1231.25
3146.206	1276.25
3149.371	1290.25
3152.533	1289.25
3155.693	1315.25
3158.85	1302.25
3162.005	1321.25
3165.157	1330.25
3168.306	1315.25
3171.453	1329.25
3174.597	1312.25
3177.739	1292.25
3180.878	1272.25
3184.014	1250.25
3187.149	1248.25
3190.28	1227.25
3193.409	1262.25
3196.536	1278.25
3199.659	1308.25
3202.781	1317.25
3205.9	1332.25
3209.016	1341.25
3212.13	1347.25
3215.241	1325.25
3218.35	1340.25
3221.456	1330.25
3224.56	1317.25
3227.661	1291.25
3230.76	1282.25
3233.856	1254.25
3236.95	1232.25
3240.041	1218.25
3243.13	1177.25
3246.216	1176.25
3249.3	1164.25
3252.382	1171.25
3255.46	1199.25
3258.537	1192.25
3261.611	1200.25
3264.682	1213.25
3267.751	1219.25
3270.818	1213.25
3273.882	1239.25
3276.943	1217.25
3280.002	1204.25
3283.059	1188.25
3286.113	1174.25
3289.165	1150.25
3292.214	1127.25
3295.261	1099.25
3298.306	1064.25
3301.348	1027.25
3304.387	1014.25
3307.425	986.25
3310.459	962.25
3313.492	955.25
3316.521	958.25
3319.549	943.25
3322.574	955.25
3325.597	932.25
3328.617	941.25
3331.635	944.25
3334.65	935.25
3337.663	924.25
3340.674	922.25
3343.682	910.25
3346.688	918.25
3349.691	897.25
3352.692	869.25
3355.691	828.25
3358.687	791.25
3361.681	778.25
3364.673	749.25
3367.662	703.25
3370.649	729.25
3373.633	753.25
3376.615	763.25
3379.595	781.25
3382.572	782.25
3385.547	783.25
3388.52	796.25
3391.49	781.25
3394.458	784.25
3397.424	761.25
3400.387	740.25
3403.348	751.25
3406.307	723.25
3409.263	711.25
3412.217	681.25
3415.168	653.25
3418.118	627.25
3421.065	592.25
3424.009	544.25
3426.951	522.25
3429.891	508.25
3432.829	498.25
3435.764	482.25
3438.697	483.25
3441.628	497.25
3444.557	494.25
3447.483	474.25
3450.407	481.25
3453.328	453.25
3456.247	440.25
3459.164	427.25
3462.079	391.25
3464.991	351.25
3467.902	287.25
3470.809	199.25
3473.715	95.25
3476.618	-53.75
3479.519	-250.75
3482.418	-487.75
3485.315	-662.75
3488.209	-819.75
3491.101	-875.75
3493.99	-854.75
3496.878	-802.75
3499.763	-769.75
3502.646	-804.75
3505.527	-863.75
3508.405	-928.75
3511.281	-898.75
3514.155	-804.75
3517.027	-728.75
3519.897	-650.75
3522.764	-645.75
3525.629	-647.75
3528.492	-675.75
3531.352	-769.75
3534.211	-907.75
3537.067	-1078.75
3539.921	-1242.75
3542.773	-1379.75
3545.622	-1451.75
3548.469	-1393.75
3551.315	-1262.75
3554.157	-1076.75
3556.998	-906.75
3559.837	-742.75
3562.673	-607.75
3565.507	-512.75
3568.339	-422.75
3571.169	-385.75
3573.996	-361.75
3576.822	-371.75
3579.645	-507.75
3582.466	-1155.75
3585.285	-1767.75
3588.101	-1732.75
3590.916	-1158.75
3593.728	-813.75
3596.538	-812.75
3599.346	-893.75
3602.152	-991.75
3604.956	-1037.75
3607.757	-1039.75
3610.556	-1009.75
3613.354	-956.75
3616.149	-875.75
3618.942	-784.75
3621.732	-710.75
3624.521	-651.75
3627.307	-578.75
3630.092	-539.75
3632.874	-507.75
3635.654	-481.75
3638.432	-464.75
3641.208	-477.75
3643.982	-494.75
3646.753	-528.75
3649.523	-585.75
3652.29	-612.75
3655.055	-632.75
3657.818	-663.75
3660.579	-663.75
3663.338	-637.75
3666.095	-598.75
3668.849	-534.75
3671.602	-477.75
3674.352	-408.75
3677.101	-350.75
3679.847	-300.75
3682.591	-266.75
3685.333	-231.75
3688.073	-211.75
3690.811	-184.75
3693.547	-184.75
3696.281	-174.75
3699.013	-169.75
3701.742	-165.75
3704.47	-167.75
3707.195	-169.75
3709.919	-171.75
3712.64	-170.75
3715.359	-167.75
3718.076	-173.75
3720.792	-160.75
3723.505	-158.75
3726.216	-153.75
3728.925	-147.75
3731.632	-143.75
3734.336	-131.75
3737.039	-125.75
3739.74	-124.75
3742.439	-126.75
3745.136	-121.75
3747.83	-118.75
3750.523	-123.75
3753.213	-120.75
3755.902	-122.75
3758.589	-121.75
3761.273	-124.75
3763.956	-132.75
3766.636	-136.75
3769.315	-140.75
3771.991	-145.75
3774.665	-149.75
3777.338	-160.75
3780.008	-160.75
3782.677	-162.75
3785.343	-158.75
3788.007	-168.75
3790.67	-155.75
3793.33	-157.75
3795.989	-147.75
3798.645	-150.75
3801.299	-146.75
3803.952	-143.75
3806.602	-144.75
3809.251	-135.75
3811.897	-138.75
3814.542	-136.75
3817.184	-133.75
3819.825	-131.75
3822.463	-131.75
3825.1	-133.75
3827.735	-130.75
3830.367	-133.75
3832.998	-136.75
3835.627	-124.75
3838.253	-129.75
3840.878	-129.75
3843.501	-132.75
3846.122	-129.75
3848.741	-129.75
3851.358	-131.75
3853.973	-129.75
3856.586	-127.75
3859.197	-126.75
3861.806	-128.75
3864.414	-127.75
3867.019	-129.75
3869.622	-129.75
3872.224	-133.75
3874.823	-130.75
3877.421	-127.75
3880.016	-131.75
3882.61	-129.75
3885.202	-131.75
3887.792	-134.75
3890.38	-135.75
3892.966	-134.75
3895.55	-132.75
3898.132	-133.75
3900.713	-132.75
3903.291	-133.75
3905.868	-132.75
3908.442	-125.75
3911.015	-127.75
3913.586	-122.75
3916.155	-124.75
3918.722	-121.75
3921.287	-121.75
3923.85	-128.75
3926.411	-129.75
3928.971	-125.75
3931.528	-129.75
3934.084	-129.75
3936.638	-129.75
3939.19	-130.75
3941.74	-134.75
3944.288	-134.75
3946.834	-134.75
3949.378	-134.75
3951.921	-140.75
3954.462	-136.75
3957	-138.75
3959.537	-132.75
3962.072	-130.75
3964.606	-135.75
3967.137	-136.75
3969.667	-128.75
3972.194	-122.75
3974.72	-128.75
3977.244	-124.75
3979.766	-120.75
3982.286	-121.75
3984.805	-121.75
3987.321	-118.75
3989.836	-123.75
3992.349	-122.75
3994.86	-125.75
3997.369	-124.75
3999.877	-123.75
4002.382	-128.75
4004.886	-126.75
4007.388	-123.75
4009.888	-125.75
4012.386	-125.75
4014.883	-121.75
4017.377	-125.75
4019.87	-126.75
4022.361	-125.75
4024.85	-124.75
4027.338	-121.75
4029.823	-118.75
4032.307	-125.75
4034.789	-126.75
4037.269	-124.75
4039.747	-119.75
4042.224	-128.75
4044.699	-122.75
4047.172	-125.75
4049.643	-126.75
4052.112	-123.75
4054.58	-131.75
4057.046	-124.75
4059.51	-128.75
4061.972	-133.75
4064.432	-127.75
4066.891	-125.75
4069.348	-139.75
4071.803	-148.75
4074.256	-233.75
4076.708	-349.75
4079.158	-358.75
4081.606	-261.75
4084.052	-196.75
4086.497	-165.75
4088.939	-149.75
4091.38	-137.75
4093.819	-138.75
4096.257	-127.75
4098.693	-127.75
4101.127	-128.75
4103.559	-126.75
4105.989	-79.75
4108.418	-73.75
4110.845	-70.75
4113.27	-73.75
4115.694	-62.75
4118.115	-46.75
4120.535	-137.75
4122.954	-140.75
4125.37	-137.75
4127.785	-146.75
4130.198	-191.75
4132.609	-240.75
4135.019	-124.75
4137.427	-126.75
4139.833	-125.75
4142.237	-125.75
