Data from I0.5_T10s_Bsub_water_1-1_2_RamanShift_1.txt Node
Date: Mon Mar 13 14:12:17 IST 2017
User: aro
Spectrometer: QEPB0276
Trigger mode: 0
Integration Time (sec): 1.000000E1
Scans to average: 1
Electric dark correction enabled: true
Nonlinearity correction enabled: false
Boxcar width: 0
XAxis mode: Raman Shifts
Number of Pixels in Spectrum: 1044
>>>>>Begin Spectral Data<<<<<
160.701	-20.12
166.742	0.88
172.777	60.88
178.805	258.88
184.826	734.88
190.841	1578.88
196.849	2528.88
202.85	3150.88
208.845	3300.88
214.833	3252.88
220.815	3127.88
226.789	3106.88
232.758	3054.88
238.719	2985.88
244.674	2917.88
250.623	2842.88
256.565	2767.88
262.5	2671.88
268.429	2583.88
274.351	2545.88
280.267	2456.88
286.176	2419.88
292.079	2349.88
297.975	2306.88
303.865	2266.88
309.748	2216.88
315.625	2190.88
321.495	2140.88
327.359	2094.88
333.217	2058.88
339.068	2046.88
344.912	2045.88
350.751	1999.88
356.583	2004.88
362.408	2001.88
368.227	1984.88
374.04	1994.88
379.847	2001.88
385.647	1978.88
391.44	1996.88
397.228	2009.88
403.009	1995.88
408.784	2014.88
414.553	1988.88
420.315	2007.88
426.071	1988.88
431.821	1994.88
437.565	1997.88
443.302	1980.88
449.033	1992.88
454.758	1987.88
460.477	1970.88
466.189	1964.88
471.896	1948.88
477.596	1949.88
483.29	1922.88
488.978	1932.88
494.66	1917.88
500.335	1896.88
506.005	1873.88
511.668	1855.88
517.325	1831.88
522.977	1827.88
528.622	1797.88
534.261	1794.88
539.894	1769.88
545.521	1770.88
551.141	1775.88
556.756	1749.88
562.365	1754.88
567.968	1733.88
573.565	1743.88
579.155	1738.88
584.74	1721.88
590.319	1719.88
595.892	1727.88
601.459	1706.88
607.02	1694.88
612.575	1695.88
618.124	1655.88
623.667	1661.88
629.204	1650.88
634.735	1650.88
640.261	1637.88
645.781	1636.88
651.294	1638.88
656.802	1630.88
662.304	1622.88
667.8	1631.88
673.29	1614.88
678.775	1637.88
684.254	1628.88
689.726	1613.88
695.193	1603.88
700.655	1591.88
706.11	1594.88
711.56	1586.88
717.004	1573.88
722.442	1566.88
727.874	1572.88
733.301	1563.88
738.722	1571.88
744.137	1549.88
749.547	1556.88
754.951	1569.88
760.349	1557.88
765.741	1564.88
771.128	1552.88
776.509	1569.88
781.885	1576.88
787.254	1572.88
792.618	1567.88
797.977	1569.88
803.33	1561.88
808.677	1549.88
814.019	1544.88
819.355	1532.88
824.686	1517.88
830.011	1530.88
835.33	1528.88
840.644	1523.88
845.952	1519.88
851.255	1506.88
856.552	1536.88
861.844	1523.88
867.13	1517.88
872.41	1501.88
877.686	1524.88
882.955	1485.88
888.219	1494.88
893.478	1470.88
898.731	1450.88
903.979	1437.88
909.221	1446.88
914.458	1426.88
919.69	1433.88
924.916	1434.88
930.136	1448.88
935.351	1441.88
940.561	1455.88
945.766	1444.88
950.965	1434.88
956.158	1445.88
961.347	1426.88
966.529	1404.88
971.707	1397.88
976.879	1381.88
982.046	1362.88
987.208	1371.88
992.364	1375.88
997.515	1392.88
1002.66	1393.88
1007.801	1417.88
1012.936	1426.88
1018.066	1439.88
1023.19	1437.88
1028.309	1461.88
1033.423	1449.88
1038.532	1435.88
1043.636	1421.88
1048.734	1420.88
1053.827	1410.88
1058.915	1390.88
1063.998	1396.88
1069.075	1385.88
1074.147	1382.88
1079.214	1413.88
1084.276	1413.88
1089.333	1435.88
1094.385	1438.88
1099.431	1458.88
1104.472	1456.88
1109.509	1450.88
1114.54	1435.88
1119.565	1416.88
1124.586	1388.88
1129.602	1397.88
1134.613	1376.88
1139.618	1381.88
1144.619	1370.88
1149.614	1391.88
1154.604	1389.88
1159.589	1416.88
1164.57	1412.88
1169.545	1405.88
1174.515	1404.88
1179.48	1414.88
1184.44	1418.88
1189.395	1396.88
1194.345	1388.88
1199.29	1385.88
1204.23	1402.88
1209.165	1409.88
1214.095	1407.88
1219.021	1417.88
1223.941	1447.88
1228.856	1453.88
1233.766	1455.88
1238.672	1456.88
1243.572	1449.88
1248.467	1437.88
1253.358	1435.88
1258.244	1424.88
1263.124	1377.88
1268	1380.88
1272.871	1365.88
1277.737	1370.88
1282.599	1350.88
1287.455	1356.88
1292.306	1365.88
1297.153	1370.88
1301.995	1396.88
1306.832	1391.88
1311.664	1415.88
1316.491	1416.88
1321.314	1407.88
1326.132	1395.88
1330.945	1373.88
1335.753	1362.88
1340.556	1325.88
1345.354	1314.88
1350.148	1301.88
1354.937	1294.88
1359.722	1279.88
1364.501	1316.88
1369.276	1313.88
1374.046	1341.88
1378.811	1363.88
1383.572	1370.88
1388.327	1344.88
1393.079	1333.88
1397.825	1331.88
1402.567	1305.88
1407.304	1293.88
1412.036	1269.88
1416.764	1279.88
1421.487	1276.88
1426.205	1282.88
1430.919	1281.88
1435.628	1297.88
1440.333	1302.88
1445.032	1318.88
1449.727	1334.88
1454.418	1336.88
1459.104	1303.88
1463.785	1321.88
1468.462	1313.88
1473.134	1301.88
1477.802	1271.88
1482.465	1283.88
1487.123	1303.88
1491.777	1277.88
1496.426	1308.88
1501.071	1304.88
1505.711	1318.88
1510.347	1326.88
1514.978	1346.88
1519.604	1361.88
1524.226	1375.88
1528.844	1382.88
1533.457	1380.88
1538.065	1362.88
1542.669	1376.88
1547.269	1356.88
1551.864	1358.88
1556.454	1350.88
1561.041	1364.88
1565.622	1363.88
1570.199	1374.88
1574.772	1362.88
1579.34	1381.88
1583.904	1405.88
1588.464	1414.88
1593.019	1404.88
1597.569	1432.88
1602.115	1427.88
1606.657	1406.88
1611.195	1417.88
1615.728	1433.88
1620.256	1416.88
1624.78	1429.88
1629.3	1442.88
1633.816	1453.88
1638.327	1463.88
1642.834	1482.88
1647.336	1484.88
1651.834	1492.88
1656.328	1482.88
1660.817	1486.88
1665.302	1479.88
1669.783	1460.88
1674.259	1434.88
1678.732	1409.88
1683.199	1366.88
1687.663	1343.88
1692.122	1309.88
1696.577	1265.88
1701.028	1263.88
1705.474	1281.88
1709.917	1265.88
1714.355	1243.88
1718.788	1231.88
1723.218	1226.88
1727.643	1204.88
1732.064	1188.88
1736.481	1177.88
1740.893	1145.88
1745.301	1128.88
1749.705	1114.88
1754.105	1098.88
1758.501	1066.88
1762.893	1062.88
1767.28	1054.88
1771.663	1030.88
1776.042	1035.88
1780.417	1032.88
1784.787	1043.88
1789.154	1053.88
1793.516	1068.88
1797.874	1081.88
1802.228	1082.88
1806.578	1087.88
1810.924	1082.88
1815.266	1075.88
1819.603	1056.88
1823.937	1036.88
1828.266	1025.88
1832.591	1021.88
1836.913	1005.88
1841.23	1007.88
1845.543	1003.88
1849.852	1014.88
1854.156	1005.88
1858.457	1008.88
1862.754	1016.88
1867.047	1016.88
1871.335	1008.88
1875.62	1016.88
1879.9	1031.88
1884.177	1026.88
1888.449	1024.88
1892.718	1012.88
1896.982	1011.88
1901.243	999.88
1905.499	992.88
1909.752	990.88
1914	996.88
1918.245	1005.88
1922.485	1007.88
1926.722	1017.88
1930.954	1015.88
1935.183	1002.88
1939.408	1029.88
1943.628	1032.88
1947.845	1011.88
1952.058	1023.88
1956.267	1017.88
1960.472	1015.88
1964.673	1001.88
1968.87	996.88
1973.063	984.88
1977.252	975.88
1981.438	970.88
1985.619	973.88
1989.797	959.88
1993.971	965.88
1998.14	978.88
2002.306	965.88
2006.469	962.88
2010.627	961.88
2014.781	963.88
2018.932	970.88
2023.078	961.88
2027.221	963.88
2031.36	954.88
2035.495	932.88
2039.627	935.88
2043.754	923.88
2047.878	907.88
2051.998	921.88
2056.114	913.88
2060.226	919.88
2064.334	910.88
2068.439	916.88
2072.54	930.88
2076.637	946.88
2080.73	931.88
2084.82	939.88
2088.906	940.88
2092.988	941.88
2097.066	934.88
2101.14	924.88
2105.211	920.88
2109.278	922.88
2113.342	927.88
2117.401	930.88
2121.457	912.88
2125.509	906.88
2129.558	910.88
2133.602	894.88
2137.643	904.88
2141.681	902.88
2145.714	906.88
2149.744	893.88
2153.77	891.88
2157.793	883.88
2161.812	878.88
2165.827	865.88
2169.838	847.88
2173.846	834.88
2177.851	826.88
2181.851	820.88
2185.848	828.88
2189.841	804.88
2193.831	805.88
2197.817	812.88
2201.799	808.88
2205.778	807.88
2209.753	798.88
2213.725	796.88
2217.693	807.88
2221.657	803.88
2225.618	801.88
2229.575	789.88
2233.529	796.88
2237.479	789.88
2241.425	791.88
2245.368	770.88
2249.307	768.88
2253.243	750.88
2257.175	755.88
2261.104	746.88
2265.029	745.88
2268.95	734.88
2272.868	730.88
2276.783	717.88
2280.694	708.88
2284.601	708.88
2288.505	702.88
2292.405	691.88
2296.302	704.88
2300.195	686.88
2304.085	685.88
2307.971	668.88
2311.854	655.88
2315.734	667.88
2319.609	651.88
2323.482	640.88
2327.351	628.88
2331.216	632.88
2335.078	627.88
2338.937	620.88
2342.792	607.88
2346.643	620.88
2350.492	614.88
2354.336	613.88
2358.178	617.88
2362.015	613.88
2365.85	618.88
2369.681	621.88
2373.508	620.88
2377.333	611.88
2381.153	615.88
2384.971	617.88
2388.785	618.88
2392.595	611.88
2396.402	600.88
2400.206	597.88
2404.007	603.88
2407.804	592.88
2411.597	605.88
2415.388	590.88
2419.174	597.88
2422.958	595.88
2426.738	592.88
2430.515	587.88
2434.289	598.88
2438.059	574.88
2441.825	576.88
2445.589	573.88
2449.349	571.88
2453.106	563.88
2456.859	570.88
2460.61	554.88
2464.356	554.88
2468.1	547.88
2471.84	552.88
2475.577	547.88
2479.311	546.88
2483.041	563.88
2486.768	547.88
2490.492	544.88
2494.213	550.88
2497.93	554.88
2501.644	555.88
2505.355	541.88
2509.062	555.88
2512.766	536.88
2516.467	551.88
2520.165	536.88
2523.859	543.88
2527.551	537.88
2531.239	526.88
2534.923	534.88
2538.605	534.88
2542.283	530.88
2545.958	518.88
2549.63	528.88
2553.299	511.88
2556.964	515.88
2560.626	529.88
2564.285	517.88
2567.941	518.88
2571.594	513.88
2575.243	507.88
2578.89	512.88
2582.533	502.88
2586.173	499.88
2589.809	499.88
2593.443	483.88
2597.073	489.88
2600.701	475.88
2604.325	483.88
2607.946	482.88
2611.564	486.88
2615.178	475.88
2618.79	487.88
2622.398	474.88
2626.004	480.88
2629.606	463.88
2633.205	454.88
2636.801	462.88
2640.394	458.88
2643.983	464.88
2647.57	456.88
2651.153	449.88
2654.734	435.88
2658.311	436.88
2661.885	432.88
2665.456	431.88
2669.025	432.88
2672.589	428.88
2676.151	422.88
2679.71	412.88
2683.266	411.88
2686.819	415.88
2690.368	416.88
2693.915	398.88
2697.458	402.88
2700.999	388.88
2704.536	388.88
2708.071	386.88
2711.602	379.88
2715.13	384.88
2718.656	368.88
2722.178	373.88
2725.697	369.88
2729.214	365.88
2732.727	378.88
2736.237	374.88
2739.744	372.88
2743.249	378.88
2746.75	363.88
2750.248	376.88
2753.743	370.88
2757.236	381.88
2760.725	378.88
2764.211	374.88
2767.695	367.88
2771.175	374.88
2774.652	366.88
2778.127	368.88
2781.598	366.88
2785.067	351.88
2788.532	357.88
2791.995	368.88
2795.455	350.88
2798.911	357.88
2802.365	350.88
2805.816	353.88
2809.264	357.88
2812.709	336.88
2816.151	358.88
2819.59	344.88
2823.026	357.88
2826.46	347.88
2829.89	337.88
2833.318	344.88
2836.742	344.88
2840.164	344.88
2843.583	341.88
2846.999	339.88
2850.412	337.88
2853.822	344.88
2857.229	339.88
2860.634	332.88
2864.035	344.88
2867.434	341.88
2870.83	342.88
2874.223	330.88
2877.613	343.88
2881	340.88
2884.385	335.88
2887.766	345.88
2891.145	346.88
2894.521	342.88
2897.894	333.88
2901.264	333.88
2904.631	332.88
2907.996	333.88
2911.358	335.88
2914.717	329.88
2918.073	326.88
2921.426	324.88
2924.777	331.88
2928.124	328.88
2931.469	334.88
2934.811	349.88
2938.15	339.88
2941.487	342.88
2944.821	338.88
2948.152	344.88
2951.48	341.88
2954.805	351.88
2958.128	347.88
2961.447	340.88
2964.765	339.88
2968.079	346.88
2971.39	350.88
2974.699	352.88
2978.005	362.88
2981.308	356.88
2984.609	368.88
2987.907	373.88
2991.202	376.88
2994.494	380.88
2997.784	388.88
3001.07	388.88
3004.355	410.88
3007.636	415.88
3010.915	417.88
3014.191	417.88
3017.464	423.88
3020.734	426.88
3024.002	417.88
3027.267	431.88
3030.53	433.88
3033.789	438.88
3037.046	443.88
3040.301	440.88
3043.552	444.88
3046.801	455.88
3050.048	452.88
3053.291	466.88
3056.532	469.88
3059.771	493.88
3063.006	485.88
3066.239	494.88
3069.469	514.88
3072.697	528.88
3075.922	525.88
3079.144	539.88
3082.364	560.88
3085.581	567.88
3088.795	571.88
3092.007	577.88
3095.216	590.88
3098.423	599.88
3101.627	607.88
3104.828	621.88
3108.026	629.88
3111.222	649.88
3114.416	654.88
3117.607	668.88
3120.795	671.88
3123.98	688.88
3127.163	708.88
3130.344	716.88
3133.521	722.88
3136.696	735.88
3139.869	757.88
3143.039	761.88
3146.206	759.88
3149.371	773.88
3152.533	769.88
3155.693	786.88
3158.85	783.88
3162.005	786.88
3165.157	788.88
3168.306	784.88
3171.453	793.88
3174.597	787.88
3177.739	802.88
3180.878	787.88
3184.014	789.88
3187.149	793.88
3190.28	810.88
3193.409	802.88
3196.536	799.88
3199.659	815.88
3202.781	797.88
3205.9	807.88
3209.016	814.88
3212.13	808.88
3215.241	800.88
3218.35	801.88
3221.456	775.88
3224.56	784.88
3227.661	776.88
3230.76	778.88
3233.856	751.88
3236.95	749.88
3240.041	750.88
3243.13	750.88
3246.216	742.88
3249.3	727.88
3252.382	729.88
3255.46	724.88
3258.537	723.88
3261.611	719.88
3264.682	714.88
3267.751	717.88
3270.818	706.88
3273.882	708.88
3276.943	701.88
3280.002	697.88
3283.059	685.88
3286.113	677.88
3289.165	688.88
3292.214	671.88
3295.261	659.88
3298.306	646.88
3301.348	639.88
3304.387	622.88
3307.425	626.88
3310.459	597.88
3313.492	604.88
3316.521	590.88
3319.549	584.88
3322.574	579.88
3325.597	579.88
3328.617	568.88
3331.635	578.88
3334.65	569.88
3337.663	559.88
3340.674	556.88
3343.682	561.88
3346.688	552.88
3349.691	544.88
3352.692	544.88
3355.691	543.88
3358.687	537.88
3361.681	532.88
3364.673	524.88
3367.662	519.88
3370.649	495.88
3373.633	519.88
3376.615	499.88
3379.595	493.88
3382.572	489.88
3385.547	483.88
3388.52	474.88
3391.49	476.88
3394.458	453.88
3397.424	461.88
3400.387	445.88
3403.348	440.88
3406.307	443.88
3409.263	451.88
3412.217	427.88
3415.168	422.88
3418.118	417.88
3421.065	415.88
3424.009	418.88
3426.951	407.88
3429.891	400.88
3432.829	387.88
3435.764	385.88
3438.697	381.88
3441.628	366.88
3444.557	355.88
3447.483	348.88
3450.407	340.88
3453.328	338.88
3456.247	322.88
3459.164	308.88
3462.079	307.88
3464.991	299.88
3467.902	284.88
3470.809	275.88
3473.715	267.88
3476.618	271.88
3479.519	259.88
3482.418	241.88
3485.315	246.88
3488.209	238.88
3491.101	231.88
3493.99	227.88
3496.878	212.88
3499.763	216.88
3502.646	201.88
3505.527	201.88
3508.405	192.88
3511.281	183.88
3514.155	178.88
3517.027	168.88
3519.897	156.88
3522.764	151.88
3525.629	144.88
3528.492	138.88
3531.352	127.88
3534.211	118.88
3537.067	115.88
3539.921	111.88
3542.773	103.88
3545.622	100.88
3548.469	89.88
3551.315	85.88
3554.157	80.88
3556.998	65.88
3559.837	71.88
3562.673	67.88
3565.507	62.88
3568.339	57.88
3571.169	59.88
3573.996	51.88
3576.822	48.88
3579.645	40.88
3582.466	44.88
3585.285	38.88
3588.101	31.88
3590.916	26.88
3593.728	31.88
3596.538	24.88
3599.346	21.88
3602.152	20.88
3604.956	21.88
3607.757	17.88
3610.556	8.88
3613.354	4.88
3616.149	3.88
3618.942	-2.12
3621.732	-1.12
3624.521	-8.12
3627.307	-5.12
3630.092	-8.12
3632.874	-11.12
3635.654	-11.12
3638.432	-18.12
3641.208	-9.12
3643.982	-16.12
3646.753	-19.12
3649.523	-18.12
3652.29	-22.12
3655.055	-26.12
3657.818	-27.12
3660.579	-27.12
3663.338	-25.12
3666.095	-31.12
3668.849	-34.12
3671.602	-30.12
3674.352	-31.12
3677.101	-33.12
3679.847	-38.12
3682.591	-38.12
3685.333	-37.12
3688.073	-42.12
3690.811	-36.12
3693.547	-45.12
3696.281	-44.12
3699.013	-49.12
3701.742	-47.12
3704.47	-43.12
3707.195	-47.12
3709.919	-48.12
3712.64	-52.12
3715.359	-47.12
3718.076	-44.12
3720.792	-49.12
3723.505	-57.12
3726.216	-54.12
3728.925	-53.12
3731.632	-52.12
3734.336	-55.12
3737.039	-55.12
3739.74	-53.12
3742.439	-54.12
3745.136	-56.12
3747.83	-56.12
3750.523	-53.12
3753.213	-61.12
3755.902	-57.12
3758.589	-61.12
3761.273	-60.12
3763.956	-52.12
3766.636	-60.12
3769.315	-61.12
3771.991	-60.12
3774.665	-63.12
3777.338	-62.12
3780.008	-55.12
3782.677	-61.12
3785.343	-56.12
3788.007	-59.12
3790.67	-61.12
3793.33	-59.12
3795.989	-63.12
3798.645	-59.12
3801.299	-66.12
3803.952	-63.12
3806.602	-62.12
3809.251	-67.12
3811.897	-66.12
3814.542	-63.12
3817.184	-64.12
3819.825	-65.12
3822.463	-68.12
3825.1	-70.12
3827.735	-67.12
3830.367	-71.12
3832.998	-67.12
3835.627	-67.12
3838.253	-67.12
3840.878	-70.12
3843.501	-69.12
3846.122	-67.12
3848.741	-69.12
3851.358	-65.12
3853.973	-67.12
3856.586	-70.12
3859.197	-65.12
3861.806	-66.12
3864.414	-62.12
3867.019	-65.12
3869.622	-64.12
3872.224	-61.12
3874.823	-66.12
3877.421	-68.12
3880.016	-61.12
3882.61	-58.12
3885.202	-62.12
3887.792	-61.12
3890.38	-68.12
3892.966	-66.12
3895.55	-68.12
3898.132	-69.12
3900.713	-71.12
3903.291	-71.12
3905.868	-69.12
3908.442	-75.12
3911.015	-73.12
3913.586	-73.12
3916.155	-70.12
3918.722	-70.12
3921.287	-71.12
3923.85	-73.12
3926.411	-72.12
3928.971	-73.12
3931.528	-72.12
3934.084	-71.12
3936.638	-71.12
3939.19	-71.12
3941.74	-71.12
3944.288	-72.12
3946.834	-66.12
3949.378	-73.12
3951.921	-70.12
3954.462	-73.12
3957	-78.12
3959.537	-71.12
3962.072	-71.12
3964.606	-72.12
3967.137	-72.12
3969.667	-70.12
3972.194	-74.12
3974.72	-74.12
3977.244	-70.12
3979.766	-69.12
3982.286	-71.12
3984.805	-68.12
3987.321	-70.12
3989.836	-66.12
3992.349	-68.12
3994.86	-72.12
3997.369	-74.12
3999.877	-72.12
4002.382	-72.12
4004.886	-70.12
4007.388	-71.12
4009.888	-73.12
4012.386	-70.12
4014.883	-73.12
4017.377	-74.12
4019.87	-69.12
4022.361	-73.12
4024.85	-72.12
4027.338	-72.12
4029.823	-68.12
4032.307	-73.12
4034.789	-69.12
4037.269	-71.12
4039.747	-72.12
4042.224	-71.12
4044.699	-66.12
4047.172	-68.12
4049.643	-69.12
4052.112	-72.12
4054.58	-69.12
4057.046	-66.12
4059.51	-64.12
4061.972	-71.12
4064.432	-71.12
4066.891	-75.12
4069.348	-67.12
4071.803	-70.12
4074.256	-71.12
4076.708	-69.12
4079.158	-69.12
4081.606	-73.12
4084.052	-74.12
4086.497	-70.12
4088.939	-72.12
4091.38	-78.12
4093.819	-76.12
4096.257	-76.12
4098.693	-77.12
4101.127	-77.12
4103.559	-77.12
4105.989	-48.12
4108.418	-45.12
4110.845	-43.12
4113.27	-38.12
4115.694	-38.12
4118.115	-25.12
4120.535	-76.12
4122.954	-75.12
4125.37	-76.12
4127.785	-71.12
4130.198	-76.12
4132.609	-73.12
4135.019	-74.12
4137.427	-76.12
4139.833	-79.12
4142.237	-71.12
