Data from I0.5_T10s_Bsub_water_1-10^4_2_RamanShift_1.txt Node
Date: Mon Mar 13 14:05:07 IST 2017
User: aro
Spectrometer: QEPB0276
Trigger mode: 0
Integration Time (sec): 1.000000E1
Scans to average: 1
Electric dark correction enabled: true
Nonlinearity correction enabled: false
Boxcar width: 0
XAxis mode: Raman Shifts
Number of Pixels in Spectrum: 1044
>>>>>Begin Spectral Data<<<<<
160.701	-21.25
166.742	3.75
172.777	75.75
178.805	299.75
184.826	861.75
190.841	1825.75
196.849	2921.75
202.85	3636.75
208.845	3840.75
214.833	3698.75
220.815	3593.75
226.789	3530.75
232.758	3470.75
238.719	3433.75
244.674	3329.75
250.623	3251.75
256.565	3145.75
262.5	3050.75
268.429	2981.75
274.351	2880.75
280.267	2813.75
286.176	2760.75
292.079	2705.75
297.975	2650.75
303.865	2557.75
309.748	2513.75
315.625	2480.75
321.495	2418.75
327.359	2405.75
333.217	2350.75
339.068	2334.75
344.912	2312.75
350.751	2269.75
356.583	2280.75
362.408	2261.75
368.227	2252.75
374.04	2250.75
379.847	2255.75
385.647	2245.75
391.44	2228.75
397.228	2271.75
403.009	2260.75
408.784	2261.75
414.553	2263.75
420.315	2263.75
426.071	2266.75
431.821	2263.75
437.565	2234.75
443.302	2232.75
449.033	2241.75
454.758	2253.75
460.477	2231.75
466.189	2233.75
471.896	2213.75
477.596	2183.75
483.29	2195.75
488.978	2195.75
494.66	2188.75
500.335	2160.75
506.005	2143.75
511.668	2107.75
517.325	2071.75
522.977	2039.75
528.622	2048.75
534.261	2026.75
539.894	2011.75
545.521	2000.75
551.141	2011.75
556.756	1997.75
562.365	2008.75
567.968	1982.75
573.565	1970.75
579.155	1970.75
584.74	1955.75
590.319	1938.75
595.892	1936.75
601.459	1934.75
607.02	1926.75
612.575	1903.75
618.124	1877.75
623.667	1876.75
629.204	1850.75
634.735	1850.75
640.261	1849.75
645.781	1850.75
651.294	1830.75
656.802	1824.75
662.304	1840.75
667.8	1831.75
673.29	1843.75
678.775	1827.75
684.254	1849.75
689.726	1830.75
695.193	1821.75
700.655	1803.75
706.11	1786.75
711.56	1789.75
717.004	1786.75
722.442	1780.75
727.874	1780.75
733.301	1751.75
738.722	1778.75
744.137	1751.75
749.547	1762.75
754.951	1764.75
760.349	1767.75
765.741	1777.75
771.128	1770.75
776.509	1763.75
781.885	1767.75
787.254	1771.75
792.618	1760.75
797.977	1761.75
803.33	1772.75
808.677	1745.75
814.019	1737.75
819.355	1735.75
824.686	1720.75
830.011	1727.75
835.33	1717.75
840.644	1711.75
845.952	1712.75
851.255	1723.75
856.552	1701.75
861.844	1705.75
867.13	1728.75
872.41	1707.75
877.686	1718.75
882.955	1686.75
888.219	1659.75
893.478	1649.75
898.731	1638.75
903.979	1617.75
909.221	1602.75
914.458	1613.75
919.69	1601.75
924.916	1612.75
930.136	1618.75
935.351	1629.75
940.561	1623.75
945.766	1616.75
950.965	1615.75
956.158	1628.75
961.347	1589.75
966.529	1586.75
971.707	1590.75
976.879	1553.75
982.046	1554.75
987.208	1549.75
992.364	1546.75
997.515	1545.75
1002.66	1578.75
1007.801	1574.75
1012.936	1599.75
1018.066	1620.75
1023.19	1619.75
1028.309	1627.75
1033.423	1626.75
1038.532	1610.75
1043.636	1600.75
1048.734	1598.75
1053.827	1577.75
1058.915	1579.75
1063.998	1555.75
1069.075	1565.75
1074.147	1581.75
1079.214	1583.75
1084.276	1581.75
1089.333	1600.75
1094.385	1597.75
1099.431	1625.75
1104.472	1624.75
1109.509	1628.75
1114.54	1593.75
1119.565	1601.75
1124.586	1587.75
1129.602	1567.75
1134.613	1551.75
1139.618	1555.75
1144.619	1556.75
1149.614	1560.75
1154.604	1561.75
1159.589	1575.75
1164.57	1591.75
1169.545	1601.75
1174.515	1591.75
1179.48	1593.75
1184.44	1580.75
1189.395	1581.75
1194.345	1577.75
1199.29	1569.75
1204.23	1563.75
1209.165	1575.75
1214.095	1579.75
1219.021	1598.75
1223.941	1637.75
1228.856	1620.75
1233.766	1639.75
1238.672	1628.75
1243.572	1616.75
1248.467	1629.75
1253.358	1600.75
1258.244	1586.75
1263.124	1575.75
1268	1546.75
1272.871	1530.75
1277.737	1534.75
1282.599	1529.75
1287.455	1530.75
1292.306	1554.75
1297.153	1554.75
1301.995	1564.75
1306.832	1586.75
1311.664	1576.75
1316.491	1588.75
1321.314	1565.75
1326.132	1563.75
1330.945	1555.75
1335.753	1507.75
1340.556	1486.75
1345.354	1446.75
1350.148	1436.75
1354.937	1425.75
1359.722	1438.75
1364.501	1455.75
1369.276	1501.75
1374.046	1514.75
1378.811	1543.75
1383.572	1535.75
1388.327	1534.75
1393.079	1517.75
1397.825	1496.75
1402.567	1466.75
1407.304	1458.75
1412.036	1427.75
1416.764	1435.75
1421.487	1429.75
1426.205	1431.75
1430.919	1451.75
1435.628	1459.75
1440.333	1452.75
1445.032	1465.75
1449.727	1470.75
1454.418	1475.75
1459.104	1478.75
1463.785	1474.75
1468.462	1465.75
1473.134	1435.75
1477.802	1438.75
1482.465	1419.75
1487.123	1426.75
1491.777	1435.75
1496.426	1447.75
1501.071	1456.75
1505.711	1473.75
1510.347	1507.75
1514.978	1495.75
1519.604	1534.75
1524.226	1538.75
1528.844	1532.75
1533.457	1542.75
1538.065	1526.75
1542.669	1526.75
1547.269	1549.75
1551.864	1524.75
1556.454	1528.75
1561.041	1542.75
1565.622	1535.75
1570.199	1551.75
1574.772	1551.75
1579.34	1569.75
1583.904	1590.75
1588.464	1606.75
1593.019	1596.75
1597.569	1597.75
1602.115	1636.75
1606.657	1597.75
1611.195	1593.75
1615.728	1593.75
1620.256	1585.75
1624.78	1615.75
1629.3	1619.75
1633.816	1628.75
1638.327	1646.75
1642.834	1666.75
1647.336	1672.75
1651.834	1685.75
1656.328	1695.75
1660.817	1688.75
1665.302	1676.75
1669.783	1649.75
1674.259	1636.75
1678.732	1584.75
1683.199	1553.75
1687.663	1498.75
1692.122	1477.75
1696.577	1442.75
1701.028	1427.75
1705.474	1445.75
1709.917	1446.75
1714.355	1418.75
1718.788	1392.75
1723.218	1386.75
1727.643	1349.75
1732.064	1350.75
1736.481	1325.75
1740.893	1291.75
1745.301	1281.75
1749.705	1250.75
1754.105	1232.75
1758.501	1215.75
1762.893	1187.75
1767.28	1178.75
1771.663	1159.75
1776.042	1158.75
1780.417	1181.75
1784.787	1166.75
1789.154	1189.75
1793.516	1213.75
1797.874	1210.75
1802.228	1229.75
1806.578	1242.75
1810.924	1219.75
1815.266	1223.75
1819.603	1214.75
1823.937	1181.75
1828.266	1168.75
1832.591	1155.75
1836.913	1146.75
1841.23	1146.75
1845.543	1148.75
1849.852	1148.75
1854.156	1160.75
1858.457	1146.75
1862.754	1156.75
1867.047	1147.75
1871.335	1145.75
1875.62	1143.75
1879.9	1164.75
1884.177	1159.75
1888.449	1146.75
1892.718	1144.75
1896.982	1127.75
1901.243	1140.75
1905.499	1132.75
1909.752	1122.75
1914	1127.75
1918.245	1132.75
1922.485	1143.75
1926.722	1149.75
1930.954	1136.75
1935.183	1148.75
1939.408	1160.75
1943.628	1168.75
1947.845	1174.75
1952.058	1171.75
1956.267	1171.75
1960.472	1160.75
1964.673	1148.75
1968.87	1141.75
1973.063	1129.75
1977.252	1118.75
1981.438	1101.75
1985.619	1110.75
1989.797	1098.75
1993.971	1095.75
1998.14	1102.75
2002.306	1095.75
2006.469	1106.75
2010.627	1102.75
2014.781	1100.75
2018.932	1101.75
2023.078	1102.75
2027.221	1087.75
2031.36	1074.75
2035.495	1072.75
2039.627	1063.75
2043.754	1059.75
2047.878	1041.75
2051.998	1047.75
2056.114	1056.75
2060.226	1048.75
2064.334	1051.75
2068.439	1057.75
2072.54	1067.75
2076.637	1066.75
2080.73	1081.75
2084.82	1070.75
2088.906	1079.75
2092.988	1078.75
2097.066	1059.75
2101.14	1067.75
2105.211	1062.75
2109.278	1043.75
2113.342	1051.75
2117.401	1045.75
2121.457	1037.75
2125.509	1017.75
2129.558	1031.75
2133.602	1025.75
2137.643	1026.75
2141.681	1028.75
2145.714	1035.75
2149.744	1024.75
2153.77	1016.75
2157.793	1014.75
2161.812	993.75
2165.827	1010.75
2169.838	984.75
2173.846	966.75
2177.851	945.75
2181.851	955.75
2185.848	937.75
2189.841	926.75
2193.831	927.75
2197.817	918.75
2201.799	915.75
2205.778	919.75
2209.753	925.75
2213.725	897.75
2217.693	907.75
2221.657	908.75
2225.618	919.75
2229.575	914.75
2233.529	912.75
2237.479	921.75
2241.425	897.75
2245.368	893.75
2249.307	870.75
2253.243	866.75
2257.175	857.75
2261.104	845.75
2265.029	848.75
2268.95	837.75
2272.868	841.75
2276.783	820.75
2280.694	828.75
2284.601	822.75
2288.505	803.75
2292.405	799.75
2296.302	800.75
2300.195	786.75
2304.085	791.75
2307.971	771.75
2311.854	754.75
2315.734	762.75
2319.609	745.75
2323.482	723.75
2327.351	722.75
2331.216	722.75
2335.078	707.75
2338.937	708.75
2342.792	704.75
2346.643	705.75
2350.492	707.75
2354.336	707.75
2358.178	708.75
2362.015	704.75
2365.85	700.75
2369.681	697.75
2373.508	700.75
2377.333	704.75
2381.153	699.75
2384.971	703.75
2388.785	705.75
2392.595	695.75
2396.402	687.75
2400.206	686.75
2404.007	681.75
2407.804	676.75
2411.597	668.75
2415.388	669.75
2419.174	679.75
2422.958	666.75
2426.738	669.75
2430.515	666.75
2434.289	662.75
2438.059	656.75
2441.825	652.75
2445.589	647.75
2449.349	659.75
2453.106	639.75
2456.859	635.75
2460.61	651.75
2464.356	645.75
2468.1	623.75
2471.84	622.75
2475.577	617.75
2479.311	615.75
2483.041	624.75
2486.768	620.75
2490.492	618.75
2494.213	616.75
2497.93	621.75
2501.644	623.75
2505.355	618.75
2509.062	627.75
2512.766	614.75
2516.467	614.75
2520.165	610.75
2523.859	614.75
2527.551	608.75
2531.239	606.75
2534.923	600.75
2538.605	603.75
2542.283	589.75
2545.958	586.75
2549.63	591.75
2553.299	592.75
2556.964	596.75
2560.626	575.75
2564.285	592.75
2567.941	590.75
2571.594	571.75
2575.243	576.75
2578.89	569.75
2582.533	570.75
2586.173	566.75
2589.809	567.75
2593.443	556.75
2597.073	561.75
2600.701	555.75
2604.325	547.75
2607.946	545.75
2611.564	552.75
2615.178	548.75
2618.79	548.75
2622.398	534.75
2626.004	538.75
2629.606	546.75
2633.205	534.75
2636.801	526.75
2640.394	511.75
2643.983	509.75
2647.57	507.75
2651.153	511.75
2654.734	504.75
2658.311	503.75
2661.885	490.75
2665.456	497.75
2669.025	489.75
2672.589	491.75
2676.151	489.75
2679.71	481.75
2683.266	472.75
2686.819	466.75
2690.368	461.75
2693.915	459.75
2697.458	442.75
2700.999	453.75
2704.536	434.75
2708.071	427.75
2711.602	424.75
2715.13	420.75
2718.656	419.75
2722.178	419.75
2725.697	416.75
2729.214	416.75
2732.727	411.75
2736.237	421.75
2739.744	425.75
2743.249	429.75
2746.75	429.75
2750.248	432.75
2753.743	425.75
2757.236	423.75
2760.725	433.75
2764.211	425.75
2767.695	425.75
2771.175	423.75
2774.652	420.75
2778.127	417.75
2781.598	419.75
2785.067	414.75
2788.532	410.75
2791.995	414.75
2795.455	405.75
2798.911	410.75
2802.365	403.75
2805.816	400.75
2809.264	404.75
2812.709	401.75
2816.151	392.75
2819.59	391.75
2823.026	391.75
2826.46	390.75
2829.89	387.75
2833.318	383.75
2836.742	386.75
2840.164	378.75
2843.583	385.75
2846.999	379.75
2850.412	392.75
2853.822	390.75
2857.229	385.75
2860.634	390.75
2864.035	396.75
2867.434	381.75
2870.83	395.75
2874.223	395.75
2877.613	387.75
2881	392.75
2884.385	388.75
2887.766	392.75
2891.145	377.75
2894.521	383.75
2897.894	377.75
2901.264	382.75
2904.631	378.75
2907.996	378.75
2911.358	378.75
2914.717	375.75
2918.073	378.75
2921.426	373.75
2924.777	376.75
2928.124	366.75
2931.469	381.75
2934.811	381.75
2938.15	380.75
2941.487	382.75
2944.821	381.75
2948.152	382.75
2951.48	383.75
2954.805	387.75
2958.128	386.75
2961.447	385.75
2964.765	403.75
2968.079	391.75
2971.39	392.75
2974.699	390.75
2978.005	400.75
2981.308	411.75
2984.609	418.75
2987.907	411.75
2991.202	416.75
2994.494	434.75
2997.784	447.75
3001.07	450.75
3004.355	455.75
3007.636	466.75
3010.915	465.75
3014.191	468.75
3017.464	469.75
3020.734	470.75
3024.002	474.75
3027.267	485.75
3030.53	480.75
3033.789	479.75
3037.046	486.75
3040.301	504.75
3043.552	497.75
3046.801	519.75
3050.048	524.75
3053.291	522.75
3056.532	541.75
3059.771	551.75
3063.006	570.75
3066.239	570.75
3069.469	577.75
3072.697	602.75
3075.922	608.75
3079.144	618.75
3082.364	627.75
3085.581	640.75
3088.795	650.75
3092.007	657.75
3095.216	672.75
3098.423	682.75
3101.627	682.75
3104.828	687.75
3108.026	701.75
3111.222	714.75
3114.416	726.75
3117.607	734.75
3120.795	759.75
3123.98	768.75
3127.163	788.75
3130.344	795.75
3133.521	817.75
3136.696	828.75
3139.869	847.75
3143.039	860.75
3146.206	859.75
3149.371	861.75
3152.533	877.75
3155.693	896.75
3158.85	887.75
3162.005	891.75
3165.157	893.75
3168.306	893.75
3171.453	881.75
3174.597	899.75
3177.739	900.75
3180.878	894.75
3184.014	898.75
3187.149	897.75
3190.28	876.75
3193.409	895.75
3196.536	898.75
3199.659	905.75
3202.781	896.75
3205.9	913.75
3209.016	906.75
3212.13	896.75
3215.241	906.75
3218.35	898.75
3221.456	886.75
3224.56	880.75
3227.661	867.75
3230.76	871.75
3233.856	868.75
3236.95	857.75
3240.041	845.75
3243.13	833.75
3246.216	826.75
3249.3	824.75
3252.382	825.75
3255.46	817.75
3258.537	821.75
3261.611	815.75
3264.682	808.75
3267.751	802.75
3270.818	809.75
3273.882	795.75
3276.943	795.75
3280.002	788.75
3283.059	773.75
3286.113	778.75
3289.165	775.75
3292.214	752.75
3295.261	750.75
3298.306	728.75
3301.348	722.75
3304.387	698.75
3307.425	702.75
3310.459	693.75
3313.492	677.75
3316.521	668.75
3319.549	659.75
3322.574	653.75
3325.597	649.75
3328.617	637.75
3331.635	645.75
3334.65	625.75
3337.663	635.75
3340.674	611.75
3343.682	629.75
3346.688	612.75
3349.691	622.75
3352.692	613.75
3355.691	612.75
3358.687	608.75
3361.681	585.75
3364.673	578.75
3367.662	592.75
3370.649	573.75
3373.633	580.75
3376.615	547.75
3379.595	543.75
3382.572	548.75
3385.547	544.75
3388.52	537.75
3391.49	517.75
3394.458	510.75
3397.424	515.75
3400.387	503.75
3403.348	504.75
3406.307	490.75
3409.263	500.75
3412.217	481.75
3415.168	479.75
3418.118	479.75
3421.065	470.75
3424.009	472.75
3426.951	447.75
3429.891	444.75
3432.829	439.75
3435.764	426.75
3438.697	422.75
3441.628	409.75
3444.557	414.75
3447.483	396.75
3450.407	382.75
3453.328	369.75
3456.247	364.75
3459.164	354.75
3462.079	344.75
3464.991	328.75
3467.902	320.75
3470.809	306.75
3473.715	291.75
3476.618	299.75
3479.519	287.75
3482.418	278.75
3485.315	263.75
3488.209	267.75
3491.101	257.75
3493.99	257.75
3496.878	242.75
3499.763	232.75
3502.646	231.75
3505.527	225.75
3508.405	219.75
3511.281	208.75
3514.155	198.75
3517.027	184.75
3519.897	179.75
3522.764	171.75
3525.629	162.75
3528.492	154.75
3531.352	143.75
3534.211	136.75
3537.067	131.75
3539.921	123.75
3542.773	115.75
3545.622	110.75
3548.469	101.75
3551.315	95.75
3554.157	92.75
3556.998	82.75
3559.837	76.75
3562.673	76.75
3565.507	64.75
3568.339	65.75
3571.169	58.75
3573.996	55.75
3576.822	52.75
3579.645	46.75
3582.466	44.75
3585.285	43.75
3588.101	33.75
3590.916	28.75
3593.728	33.75
3596.538	27.75
3599.346	19.75
3602.152	17.75
3604.956	15.75
3607.757	11.75
3610.556	7.75
3613.354	5.75
3616.149	2.75
3618.942	-11.25
3621.732	-4.25
3624.521	-5.25
3627.307	-10.25
3630.092	-10.25
3632.874	-17.25
3635.654	-15.25
3638.432	-23.25
3641.208	-15.25
3643.982	-22.25
3646.753	-25.25
3649.523	-24.25
3652.29	-26.25
3655.055	-29.25
3657.818	-29.25
3660.579	-29.25
3663.338	-32.25
3666.095	-31.25
3668.849	-37.25
3671.602	-36.25
3674.352	-37.25
3677.101	-44.25
3679.847	-44.25
3682.591	-47.25
3685.333	-43.25
3688.073	-47.25
3690.811	-50.25
3693.547	-55.25
3696.281	-58.25
3699.013	-57.25
3701.742	-54.25
3704.47	-53.25
3707.195	-58.25
3709.919	-58.25
3712.64	-57.25
3715.359	-57.25
3718.076	-59.25
3720.792	-63.25
3723.505	-61.25
3726.216	-62.25
3728.925	-62.25
3731.632	-66.25
3734.336	-60.25
3737.039	-63.25
3739.74	-63.25
3742.439	-63.25
3745.136	-63.25
3747.83	-65.25
3750.523	-63.25
3753.213	-67.25
3755.902	-64.25
3758.589	-68.25
3761.273	-73.25
3763.956	-66.25
3766.636	-73.25
3769.315	-71.25
3771.991	-70.25
3774.665	-66.25
3777.338	-77.25
3780.008	-69.25
3782.677	-73.25
3785.343	-71.25
3788.007	-66.25
3790.67	-74.25
3793.33	-73.25
3795.989	-74.25
3798.645	-69.25
3801.299	-74.25
3803.952	-77.25
3806.602	-76.25
3809.251	-80.25
3811.897	-77.25
3814.542	-78.25
3817.184	-73.25
3819.825	-73.25
3822.463	-77.25
3825.1	-73.25
3827.735	-78.25
3830.367	-78.25
3832.998	-80.25
3835.627	-78.25
3838.253	-75.25
3840.878	-76.25
3843.501	-78.25
3846.122	-78.25
3848.741	-78.25
3851.358	-76.25
3853.973	-75.25
3856.586	-81.25
3859.197	-75.25
3861.806	-74.25
3864.414	-73.25
3867.019	-78.25
3869.622	-79.25
3872.224	-77.25
3874.823	-79.25
3877.421	-81.25
3880.016	-77.25
3882.61	-70.25
3885.202	-73.25
3887.792	-76.25
3890.38	-80.25
3892.966	-79.25
3895.55	-80.25
3898.132	-82.25
3900.713	-84.25
3903.291	-85.25
3905.868	-81.25
3908.442	-83.25
3911.015	-80.25
3913.586	-81.25
3916.155	-76.25
3918.722	-83.25
3921.287	-76.25
3923.85	-79.25
3926.411	-81.25
3928.971	-81.25
3931.528	-78.25
3934.084	-80.25
3936.638	-79.25
3939.19	-84.25
3941.74	-81.25
3944.288	-83.25
3946.834	-81.25
3949.378	-85.25
3951.921	-85.25
3954.462	-88.25
3957	-87.25
3959.537	-83.25
3962.072	-82.25
3964.606	-88.25
3967.137	-83.25
3969.667	-85.25
3972.194	-89.25
3974.72	-86.25
3977.244	-80.25
3979.766	-85.25
3982.286	-82.25
3984.805	-82.25
3987.321	-83.25
3989.836	-76.25
3992.349	-80.25
3994.86	-81.25
3997.369	-85.25
3999.877	-77.25
4002.382	-81.25
4004.886	-81.25
4007.388	-82.25
4009.888	-79.25
4012.386	-77.25
4014.883	-84.25
4017.377	-82.25
4019.87	-80.25
4022.361	-82.25
4024.85	-80.25
4027.338	-87.25
4029.823	-84.25
4032.307	-85.25
4034.789	-81.25
4037.269	-86.25
4039.747	-82.25
4042.224	-82.25
4044.699	-85.25
4047.172	-85.25
4049.643	-85.25
4052.112	-83.25
4054.58	-81.25
4057.046	-81.25
4059.51	-77.25
4061.972	-84.25
4064.432	-77.25
4066.891	-84.25
4069.348	-77.25
4071.803	-80.25
4074.256	-81.25
4076.708	-82.25
4079.158	-78.25
4081.606	-83.25
4084.052	-86.25
4086.497	-80.25
4088.939	-84.25
4091.38	-87.25
4093.819	-82.25
4096.257	-89.25
4098.693	-92.25
4101.127	-87.25
4103.559	-85.25
4105.989	-54.25
4108.418	-49.25
4110.845	-47.25
4113.27	-45.25
4115.694	-43.25
4118.115	-25.25
4120.535	-85.25
4122.954	-90.25
4125.37	-88.25
4127.785	-86.25
4130.198	-86.25
4132.609	-88.25
4135.019	-88.25
4137.427	-90.25
4139.833	-93.25
4142.237	-86.25
