Data from I0.5_T15s_Bsub_water_1-10^2_2_RamanShift_1.txt Node
Date: Mon Mar 13 14:29:02 IST 2017
User: aro
Spectrometer: QEPB0276
Trigger mode: 0
Integration Time (sec): 1.500000E1
Scans to average: 1
Electric dark correction enabled: true
Nonlinearity correction enabled: false
Boxcar width: 0
XAxis mode: Raman Shifts
Number of Pixels in Spectrum: 1044
>>>>>Begin Spectral Data<<<<<
160.701	-28.25
166.742	0.75
172.777	104.75
178.805	416.75
184.826	1207.75
190.841	2598.75
196.849	4186.75
202.85	5200.75
208.845	5476.75
214.833	5320.75
220.815	5159.75
226.789	5079.75
232.758	5020.75
238.719	4902.75
244.674	4683.75
250.623	4348.75
256.565	4104.75
262.5	3869.75
268.429	3745.75
274.351	3933.75
280.267	4032.75
286.176	3977.75
292.079	3894.75
297.975	3800.75
303.865	3711.75
309.748	3630.75
315.625	3540.75
321.495	3470.75
327.359	3448.75
333.217	3379.75
339.068	3350.75
344.912	3330.75
350.751	3294.75
356.583	3271.75
362.408	3259.75
368.227	3230.75
374.04	3235.75
379.847	3195.75
385.647	3145.75
391.44	2967.75
397.228	2663.75
403.009	2345.75
408.784	2023.75
414.553	1437.75
420.315	858.75
426.071	1567.75
431.821	2740.75
437.565	3165.75
443.302	3197.75
449.033	3183.75
454.758	3179.75
460.477	3178.75
466.189	3198.75
471.896	3168.75
477.596	3158.75
483.29	3157.75
488.978	3116.75
494.66	3105.75
500.335	3098.75
506.005	3084.75
511.668	3023.75
517.325	2973.75
522.977	2967.75
528.622	2927.75
534.261	2883.75
539.894	2865.75
545.521	2863.75
551.141	2859.75
556.756	2839.75
562.365	2838.75
567.968	2824.75
573.565	2815.75
579.155	2832.75
584.74	2791.75
590.319	2807.75
595.892	2796.75
601.459	2785.75
607.02	2769.75
612.575	2756.75
618.124	2712.75
623.667	2686.75
629.204	2629.75
634.735	2474.75
640.261	2298.75
645.781	2304.75
651.294	2485.75
656.802	2613.75
662.304	2631.75
667.8	2636.75
673.29	2648.75
678.775	2622.75
684.254	2611.75
689.726	2604.75
695.193	2617.75
700.655	2622.75
706.11	2594.75
711.56	2597.75
717.004	2551.75
722.442	2592.75
727.874	2566.75
733.301	2564.75
738.722	2545.75
744.137	2563.75
749.547	2523.75
754.951	2548.75
760.349	2563.75
765.741	2534.75
771.128	2567.75
776.509	2562.75
781.885	2556.75
787.254	2571.75
792.618	2558.75
797.977	2540.75
803.33	2526.75
808.677	2526.75
814.019	2488.75
819.355	2476.75
824.686	2485.75
830.011	2457.75
835.33	2395.75
840.644	2131.75
845.952	1751.75
851.255	1648.75
856.552	1989.75
861.844	2090.75
867.13	1581.75
872.41	1073.75
877.686	1490.75
882.955	2179.75
888.219	2375.75
893.478	2414.75
898.731	2387.75
903.979	2359.75
909.221	2366.75
914.458	2353.75
919.69	2376.75
924.916	2375.75
930.136	2373.75
935.351	2379.75
940.561	2392.75
945.766	2378.75
950.965	2375.75
956.158	2373.75
961.347	2352.75
966.529	2304.75
971.707	2280.75
976.879	2258.75
982.046	2263.75
987.208	2234.75
992.364	2220.75
997.515	2175.75
1002.66	2015.75
1007.801	1893.75
1012.936	2064.75
1018.066	2310.75
1023.19	2377.75
1028.309	2419.75
1033.423	2400.75
1038.532	2417.75
1043.636	2374.75
1048.734	2338.75
1053.827	2337.75
1058.915	2324.75
1063.998	2313.75
1069.075	2337.75
1074.147	2303.75
1079.214	2345.75
1084.276	2361.75
1089.333	2379.75
1094.385	2417.75
1099.431	2422.75
1104.472	2440.75
1109.509	2415.75
1114.54	2405.75
1119.565	2352.75
1124.586	2339.75
1129.602	2327.75
1134.613	2316.75
1139.618	2297.75
1144.619	2294.75
1149.614	2301.75
1154.604	2334.75
1159.589	2340.75
1164.57	2346.75
1169.545	2375.75
1174.515	2372.75
1179.48	2363.75
1184.44	2354.75
1189.395	2333.75
1194.345	2335.75
1199.29	2289.75
1204.23	2227.75
1209.165	2275.75
1214.095	2358.75
1219.021	2386.75
1223.941	2432.75
1228.856	2430.75
1233.766	2449.75
1238.672	2451.75
1243.572	2456.75
1248.467	2427.75
1253.358	2395.75
1258.244	2379.75
1263.124	2336.75
1268	2298.75
1272.871	2282.75
1277.737	2274.75
1282.599	2306.75
1287.455	2309.75
1292.306	2299.75
1297.153	2354.75
1301.995	2349.75
1306.832	2367.75
1311.664	2377.75
1316.491	2384.75
1321.314	2353.75
1326.132	2338.75
1330.945	2334.75
1335.753	2293.75
1340.556	2255.75
1345.354	2225.75
1350.148	2200.75
1354.937	2207.75
1359.722	2193.75
1364.501	2219.75
1369.276	2262.75
1374.046	2268.75
1378.811	2271.75
1383.572	2289.75
1388.327	2253.75
1393.079	2269.75
1397.825	2215.75
1402.567	2205.75
1407.304	2177.75
1412.036	2188.75
1416.764	2179.75
1421.487	2158.75
1426.205	2170.75
1430.919	2183.75
1435.628	2210.75
1440.333	2239.75
1445.032	2238.75
1449.727	2268.75
1454.418	2242.75
1459.104	2255.75
1463.785	2250.75
1468.462	2217.75
1473.134	2185.75
1477.802	2169.75
1482.465	2193.75
1487.123	2176.75
1491.777	2204.75
1496.426	2215.75
1501.071	2211.75
1505.711	2245.75
1510.347	2269.75
1514.978	2296.75
1519.604	2314.75
1524.226	2330.75
1528.844	2324.75
1533.457	2318.75
1538.065	2342.75
1542.669	2330.75
1547.269	2338.75
1551.864	2289.75
1556.454	2305.75
1561.041	2290.75
1565.622	2315.75
1570.199	2327.75
1574.772	2361.75
1579.34	2378.75
1583.904	2403.75
1588.464	2417.75
1593.019	2441.75
1597.569	2452.75
1602.115	2413.75
1606.657	2430.75
1611.195	2445.75
1615.728	2409.75
1620.256	2415.75
1624.78	2433.75
1629.3	2457.75
1633.816	2502.75
1638.327	2509.75
1642.834	2534.75
1647.336	2554.75
1651.834	2569.75
1656.328	2575.75
1660.817	2582.75
1665.302	2563.75
1669.783	2524.75
1674.259	2473.75
1678.732	2438.75
1683.199	2373.75
1687.663	2327.75
1692.122	2235.75
1696.577	2196.75
1701.028	2173.75
1705.474	2169.75
1709.917	2135.75
1714.355	2113.75
1718.788	2105.75
1723.218	2087.75
1727.643	2065.75
1732.064	2034.75
1736.481	2021.75
1740.893	1976.75
1745.301	1936.75
1749.705	1906.75
1754.105	1861.75
1758.501	1831.75
1762.893	1783.75
1767.28	1721.75
1771.663	1569.75
1776.042	732.75
1780.417	-282.25
1784.787	236.75
1789.154	1432.75
1793.516	1740.75
1797.874	1814.75
1802.228	1868.75
1806.578	1858.75
1810.924	1865.75
1815.266	1847.75
1819.603	1851.75
1823.937	1804.75
1828.266	1800.75
1832.591	1775.75
1836.913	1777.75
1841.23	1756.75
1845.543	1756.75
1849.852	1786.75
1854.156	1769.75
1858.457	1758.75
1862.754	1782.75
1867.047	1754.75
1871.335	1757.75
1875.62	1763.75
1879.9	1782.75
1884.177	1787.75
1888.449	1770.75
1892.718	1725.75
1896.982	1498.75
1901.243	1274.75
1905.499	1400.75
1909.752	1684.75
1914	1738.75
1918.245	1739.75
1922.485	1755.75
1926.722	1745.75
1930.954	1781.75
1935.183	1787.75
1939.408	1797.75
1943.628	1806.75
1947.845	1811.75
1952.058	1816.75
1956.267	1813.75
1960.472	1796.75
1964.673	1797.75
1968.87	1781.75
1973.063	1748.75
1977.252	1742.75
1981.438	1722.75
1985.619	1699.75
1989.797	1721.75
1993.971	1699.75
1998.14	1720.75
2002.306	1722.75
2006.469	1734.75
2010.627	1730.75
2014.781	1748.75
2018.932	1737.75
2023.078	1726.75
2027.221	1721.75
2031.36	1689.75
2035.495	1690.75
2039.627	1665.75
2043.754	1655.75
2047.878	1613.75
2051.998	1589.75
2056.114	1633.75
2060.226	1657.75
2064.334	1659.75
2068.439	1669.75
2072.54	1672.75
2076.637	1701.75
2080.73	1694.75
2084.82	1695.75
2088.906	1698.75
2092.988	1683.75
2097.066	1684.75
2101.14	1672.75
2105.211	1649.75
2109.278	1644.75
2113.342	1648.75
2117.401	1632.75
2121.457	1623.75
2125.509	1630.75
2129.558	1619.75
2133.602	1624.75
2137.643	1612.75
2141.681	1613.75
2145.714	1596.75
2149.744	1621.75
2153.77	1605.75
2157.793	1578.75
2161.812	1589.75
2165.827	1556.75
2169.838	1557.75
2173.846	1510.75
2177.851	1510.75
2181.851	1490.75
2185.848	1492.75
2189.841	1460.75
2193.831	1456.75
2197.817	1445.75
2201.799	1444.75
2205.778	1448.75
2209.753	1439.75
2213.725	1448.75
2217.693	1442.75
2221.657	1443.75
2225.618	1449.75
2229.575	1438.75
2233.529	1432.75
2237.479	1444.75
2241.425	1432.75
2245.368	1410.75
2249.307	1381.75
2253.243	1397.75
2257.175	1371.75
2261.104	1366.75
2265.029	1375.75
2268.95	1332.75
2272.868	1333.75
2276.783	1318.75
2280.694	1312.75
2284.601	1288.75
2288.505	1276.75
2292.405	1278.75
2296.302	1261.75
2300.195	1237.75
2304.085	1232.75
2307.971	1225.75
2311.854	1220.75
2315.734	1192.75
2319.609	1182.75
2323.482	1144.75
2327.351	1151.75
2331.216	1144.75
2335.078	1146.75
2338.937	1142.75
2342.792	1136.75
2346.643	1137.75
2350.492	1131.75
2354.336	1121.75
2358.178	1121.75
2362.015	1113.75
2365.85	1128.75
2369.681	1125.75
2373.508	1114.75
2377.333	1095.75
2381.153	1026.75
2384.971	821.75
2388.785	768.75
2392.595	924.75
2396.402	1061.75
2400.206	1082.75
2404.007	1074.75
2407.804	1085.75
2411.597	1066.75
2415.388	1078.75
2419.174	1073.75
2422.958	1079.75
2426.738	1073.75
2430.515	1072.75
2434.289	1072.75
2438.059	1067.75
2441.825	1073.75
2445.589	1049.75
2449.349	1055.75
2453.106	1044.75
2456.859	1037.75
2460.61	1030.75
2464.356	1021.75
2468.1	1017.75
2471.84	1000.75
2475.577	1000.75
2479.311	988.75
2483.041	992.75
2486.768	1003.75
2490.492	1004.75
2494.213	1013.75
2497.93	1018.75
2501.644	1023.75
2505.355	997.75
2509.062	1006.75
2512.766	996.75
2516.467	978.75
2520.165	930.75
2523.859	924.75
2527.551	962.75
2531.239	955.75
2534.923	943.75
2538.605	944.75
2542.283	950.75
2545.958	954.75
2549.63	952.75
2553.299	933.75
2556.964	964.75
2560.626	953.75
2564.285	946.75
2567.941	947.75
2571.594	932.75
2575.243	919.75
2578.89	908.75
2582.533	910.75
2586.173	918.75
2589.809	909.75
2593.443	916.75
2597.073	881.75
2600.701	879.75
2604.325	873.75
2607.946	861.75
2611.564	875.75
2615.178	874.75
2618.79	879.75
2622.398	883.75
2626.004	871.75
2629.606	881.75
2633.205	856.75
2636.801	858.75
2640.394	864.75
2643.983	832.75
2647.57	839.75
2651.153	819.75
2654.734	806.75
2658.311	800.75
2661.885	779.75
2665.456	783.75
2669.025	775.75
2672.589	770.75
2676.151	776.75
2679.71	760.75
2683.266	754.75
2686.819	753.75
2690.368	729.75
2693.915	731.75
2697.458	721.75
2700.999	722.75
2704.536	708.75
2708.071	687.75
2711.602	695.75
2715.13	680.75
2718.656	678.75
2722.178	666.75
2725.697	656.75
2729.214	672.75
2732.727	680.75
2736.237	675.75
2739.744	681.75
2743.249	683.75
2746.75	674.75
2750.248	688.75
2753.743	685.75
2757.236	681.75
2760.725	678.75
2764.211	678.75
2767.695	679.75
2771.175	657.75
2774.652	658.75
2778.127	660.75
2781.598	651.75
2785.067	634.75
2788.532	624.75
2791.995	623.75
2795.455	611.75
2798.911	591.75
2802.365	595.75
2805.816	589.75
2809.264	570.75
2812.709	581.75
2816.151	564.75
2819.59	575.75
2823.026	562.75
2826.46	545.75
2829.89	535.75
2833.318	525.75
2836.742	508.75
2840.164	497.75
2843.583	482.75
2846.999	452.75
2850.412	427.75
2853.822	387.75
2857.229	345.75
2860.634	292.75
2864.035	219.75
2867.434	107.75
2870.83	-88.25
2874.223	-879.25
2877.613	-2612.25
2881	-2867.25
2884.385	-1253.25
2887.766	-204.25
2891.145	41.75
2894.521	186.75
2897.894	266.75
2901.264	321.75
2904.631	362.75
2907.996	403.75
2911.358	421.75
2914.717	452.75
2918.073	456.75
2921.426	475.75
2924.777	501.75
2928.124	506.75
2931.469	498.75
2934.811	509.75
2938.15	507.75
2941.487	498.75
2944.821	488.75
2948.152	487.75
2951.48	472.75
2954.805	490.75
2958.128	500.75
2961.447	512.75
2964.765	525.75
2968.079	534.75
2971.39	560.75
2974.699	560.75
2978.005	569.75
2981.308	575.75
2984.609	573.75
2987.907	591.75
2991.202	575.75
2994.494	584.75
2997.784	570.75
3001.07	564.75
3004.355	558.75
3007.636	562.75
3010.915	576.75
3014.191	596.75
3017.464	626.75
3020.734	644.75
3024.002	664.75
3027.267	671.75
3030.53	679.75
3033.789	695.75
3037.046	717.75
3040.301	719.75
3043.552	730.75
3046.801	737.75
3050.048	744.75
3053.291	742.75
3056.532	746.75
3059.771	753.75
3063.006	747.75
3066.239	761.75
3069.469	764.75
3072.697	785.75
3075.922	773.75
3079.144	830.75
3082.364	861.75
3085.581	895.75
3088.795	916.75
3092.007	936.75
3095.216	950.75
3098.423	969.75
3101.627	977.75
3104.828	1015.75
3108.026	1016.75
3111.222	1025.75
3114.416	1044.75
3117.607	1051.75
3120.795	1051.75
3123.98	1074.75
3127.163	1068.75
3130.344	1089.75
3133.521	1097.75
3136.696	1124.75
3139.869	1146.75
3143.039	1175.75
3146.206	1195.75
3149.371	1244.75
3152.533	1242.75
3155.693	1254.75
3158.85	1255.75
3162.005	1266.75
3165.157	1241.75
3168.306	1262.75
3171.453	1235.75
3174.597	1216.75
3177.739	1220.75
3180.878	1179.75
3184.014	1176.75
3187.149	1176.75
3190.28	1149.75
3193.409	1152.75
3196.536	1189.75
3199.659	1205.75
3202.781	1239.75
3205.9	1246.75
3209.016	1257.75
3212.13	1252.75
3215.241	1253.75
3218.35	1261.75
3221.456	1247.75
3224.56	1228.75
3227.661	1218.75
3230.76	1185.75
3233.856	1180.75
3236.95	1137.75
3240.041	1124.75
3243.13	1098.75
3246.216	1099.75
3249.3	1080.75
3252.382	1100.75
3255.46	1101.75
3258.537	1106.75
3261.611	1121.75
3264.682	1125.75
3267.751	1131.75
3270.818	1127.75
3273.882	1144.75
3276.943	1126.75
3280.002	1120.75
3283.059	1090.75
3286.113	1097.75
3289.165	1074.75
3292.214	1044.75
3295.261	1025.75
3298.306	1000.75
3301.348	965.75
3304.387	943.75
3307.425	917.75
3310.459	887.75
3313.492	877.75
3316.521	876.75
3319.549	870.75
3322.574	880.75
3325.597	882.75
3328.617	882.75
3331.635	877.75
3334.65	877.75
3337.663	870.75
3340.674	857.75
3343.682	844.75
3346.688	833.75
3349.691	823.75
3352.692	803.75
3355.691	772.75
3358.687	730.75
3361.681	706.75
3364.673	692.75
3367.662	664.75
3370.649	661.75
3373.633	694.75
3376.615	712.75
3379.595	738.75
3382.572	740.75
3385.547	737.75
3388.52	748.75
3391.49	730.75
3394.458	724.75
3397.424	717.75
3400.387	693.75
3403.348	691.75
3406.307	678.75
3409.263	658.75
3412.217	637.75
3415.168	603.75
3418.118	577.75
3421.065	549.75
3424.009	499.75
3426.951	472.75
3429.891	458.75
3432.829	436.75
3435.764	437.75
3438.697	445.75
3441.628	440.75
3444.557	450.75
3447.483	439.75
3450.407	428.75
3453.328	416.75
3456.247	408.75
3459.164	376.75
3462.079	355.75
3464.991	302.75
3467.902	258.75
3470.809	167.75
3473.715	50.75
3476.618	-82.25
3479.519	-298.25
3482.418	-510.25
3485.315	-691.25
3488.209	-849.25
3491.101	-899.25
3493.99	-871.25
3496.878	-830.25
3499.763	-784.25
3502.646	-825.25
3505.527	-887.25
3508.405	-940.25
3511.281	-905.25
3514.155	-823.25
3517.027	-739.25
3519.897	-680.25
3522.764	-656.25
3525.629	-653.25
3528.492	-697.25
3531.352	-784.25
3534.211	-930.25
3537.067	-1098.25
3539.921	-1259.25
3542.773	-1399.25
3545.622	-1472.25
3548.469	-1397.25
3551.315	-1273.25
3554.157	-1094.25
3556.998	-912.25
3559.837	-756.25
3562.673	-618.25
3565.507	-510.25
3568.339	-424.25
3571.169	-384.25
3573.996	-368.25
3576.822	-377.25
3579.645	-524.25
3582.466	-1162.25
3585.285	-1776.25
3588.101	-1737.25
3590.916	-1162.25
3593.728	-819.25
3596.538	-818.25
3599.346	-901.25
3602.152	-983.25
3604.956	-1042.25
3607.757	-1035.25
3610.556	-1017.25
3613.354	-956.25
3616.149	-883.25
3618.942	-788.25
3621.732	-708.25
3624.521	-647.25
3627.307	-576.25
3630.092	-537.25
3632.874	-505.25
3635.654	-477.25
3638.432	-471.25
3641.208	-484.25
3643.982	-500.25
3646.753	-533.25
3649.523	-586.25
3652.29	-614.25
3655.055	-640.25
3657.818	-663.25
3660.579	-668.25
3663.338	-632.25
3666.095	-597.25
3668.849	-538.25
3671.602	-474.25
3674.352	-403.25
3677.101	-344.25
3679.847	-294.25
3682.591	-260.25
3685.333	-226.25
3688.073	-200.25
3690.811	-184.25
3693.547	-177.25
3696.281	-166.25
3699.013	-166.25
3701.742	-160.25
3704.47	-162.25
3707.195	-163.25
3709.919	-168.25
3712.64	-170.25
3715.359	-170.25
3718.076	-171.25
3720.792	-159.25
3723.505	-160.25
3726.216	-154.25
3728.925	-141.25
3731.632	-145.25
3734.336	-133.25
3737.039	-121.25
3739.74	-124.25
3742.439	-118.25
3745.136	-117.25
3747.83	-113.25
3750.523	-117.25
3753.213	-123.25
3755.902	-119.25
3758.589	-122.25
3761.273	-122.25
3763.956	-128.25
3766.636	-132.25
3769.315	-133.25
3771.991	-147.25
3774.665	-144.25
3777.338	-157.25
3780.008	-153.25
3782.677	-155.25
3785.343	-152.25
3788.007	-156.25
3790.67	-150.25
3793.33	-150.25
3795.989	-146.25
3798.645	-144.25
3801.299	-140.25
3803.952	-133.25
3806.602	-137.25
3809.251	-131.25
3811.897	-133.25
3814.542	-131.25
3817.184	-134.25
3819.825	-131.25
3822.463	-134.25
3825.1	-131.25
3827.735	-131.25
3830.367	-133.25
3832.998	-129.25
3835.627	-123.25
3838.253	-127.25
3840.878	-126.25
3843.501	-128.25
3846.122	-121.25
3848.741	-124.25
3851.358	-130.25
3853.973	-120.25
3856.586	-126.25
3859.197	-126.25
3861.806	-124.25
3864.414	-124.25
3867.019	-126.25
3869.622	-117.25
3872.224	-129.25
3874.823	-126.25
3877.421	-128.25
3880.016	-125.25
3882.61	-126.25
3885.202	-127.25
3887.792	-131.25
3890.38	-132.25
3892.966	-129.25
3895.55	-131.25
3898.132	-131.25
3900.713	-130.25
3903.291	-125.25
3905.868	-125.25
3908.442	-119.25
3911.015	-126.25
3913.586	-124.25
3916.155	-123.25
3918.722	-118.25
3921.287	-122.25
3923.85	-128.25
3926.411	-126.25
3928.971	-124.25
3931.528	-127.25
3934.084	-125.25
3936.638	-128.25
3939.19	-127.25
3941.74	-129.25
3944.288	-129.25
3946.834	-131.25
3949.378	-126.25
3951.921	-132.25
3954.462	-130.25
3957	-131.25
3959.537	-125.25
3962.072	-128.25
3964.606	-131.25
3967.137	-131.25
3969.667	-127.25
3972.194	-122.25
3974.72	-124.25
3977.244	-123.25
3979.766	-119.25
3982.286	-124.25
3984.805	-125.25
3987.321	-117.25
3989.836	-118.25
3992.349	-122.25
3994.86	-122.25
3997.369	-121.25
3999.877	-117.25
4002.382	-124.25
4004.886	-121.25
4007.388	-115.25
4009.888	-121.25
4012.386	-120.25
4014.883	-120.25
4017.377	-119.25
4019.87	-119.25
4022.361	-120.25
4024.85	-118.25
4027.338	-118.25
4029.823	-117.25
4032.307	-118.25
4034.789	-118.25
4037.269	-119.25
4039.747	-117.25
4042.224	-120.25
4044.699	-120.25
4047.172	-117.25
4049.643	-122.25
4052.112	-122.25
4054.58	-130.25
4057.046	-121.25
4059.51	-122.25
4061.972	-124.25
4064.432	-123.25
4066.891	-127.25
4069.348	-137.25
4071.803	-144.25
4074.256	-233.25
4076.708	-345.25
4079.158	-357.25
4081.606	-258.25
4084.052	-194.25
4086.497	-156.25
4088.939	-145.25
4091.38	-137.25
4093.819	-134.25
4096.257	-124.25
4098.693	-122.25
4101.127	-119.25
4103.559	-118.25
4105.989	-74.25
4108.418	-66.25
4110.845	-71.25
4113.27	-65.25
4115.694	-61.25
4118.115	-45.25
4120.535	-128.25
4122.954	-134.25
4125.37	-133.25
4127.785	-141.25
4130.198	-184.25
4132.609	-231.25
4135.019	-121.25
4137.427	-122.25
4139.833	-124.25
4142.237	-126.25
