Data from I0.5_T5s_Bsub_water_1-10^4_2_RamanShift_1.txt Node
Date: Mon Mar 13 13:48:50 IST 2017
User: aro
Spectrometer: QEPB0276
Trigger mode: 0
Integration Time (sec): 5.000000E0
Scans to average: 1
Electric dark correction enabled: true
Nonlinearity correction enabled: false
Boxcar width: 0
XAxis mode: Raman Shifts
Number of Pixels in Spectrum: 1044
>>>>>Begin Spectral Data<<<<<
160.701	-11.88
166.742	-0.88
172.777	35.12
178.805	153.12
184.826	439.12
190.841	925.12
196.849	1476.12
202.85	1853.12
208.845	1911.12
214.833	1885.12
220.815	1840.12
226.789	1805.12
232.758	1779.12
238.719	1744.12
244.674	1711.12
250.623	1668.12
256.565	1622.12
262.5	1557.12
268.429	1522.12
274.351	1474.12
280.267	1434.12
286.176	1411.12
292.079	1372.12
297.975	1364.12
303.865	1320.12
309.748	1305.12
315.625	1279.12
321.495	1241.12
327.359	1237.12
333.217	1207.12
339.068	1199.12
344.912	1199.12
350.751	1190.12
356.583	1172.12
362.408	1166.12
368.227	1161.12
374.04	1158.12
379.847	1141.12
385.647	1162.12
391.44	1153.12
397.228	1160.12
403.009	1155.12
408.784	1161.12
414.553	1157.12
420.315	1163.12
426.071	1160.12
431.821	1154.12
437.565	1159.12
443.302	1151.12
449.033	1153.12
454.758	1138.12
460.477	1132.12
466.189	1127.12
471.896	1122.12
477.596	1118.12
483.29	1118.12
488.978	1125.12
494.66	1128.12
500.335	1110.12
506.005	1104.12
511.668	1083.12
517.325	1067.12
522.977	1054.12
528.622	1065.12
534.261	1049.12
539.894	1052.12
545.521	1043.12
551.141	1034.12
556.756	1037.12
562.365	1028.12
567.968	1025.12
573.565	1022.12
579.155	1028.12
584.74	1034.12
590.319	1002.12
595.892	1013.12
601.459	1000.12
607.02	1002.12
612.575	997.12
618.124	991.12
623.667	988.12
629.204	998.12
634.735	977.12
640.261	957.12
645.781	978.12
651.294	967.12
656.802	963.12
662.304	965.12
667.8	943.12
673.29	966.12
678.775	970.12
684.254	955.12
689.726	956.12
695.193	953.12
700.655	954.12
706.11	949.12
711.56	947.12
717.004	938.12
722.442	934.12
727.874	936.12
733.301	929.12
738.722	928.12
744.137	915.12
749.547	934.12
754.951	936.12
760.349	935.12
765.741	942.12
771.128	935.12
776.509	945.12
781.885	926.12
787.254	930.12
792.618	934.12
797.977	935.12
803.33	930.12
808.677	920.12
814.019	912.12
819.355	918.12
824.686	922.12
830.011	909.12
835.33	909.12
840.644	902.12
845.952	924.12
851.255	907.12
856.552	915.12
861.844	904.12
867.13	901.12
872.41	907.12
877.686	906.12
882.955	903.12
888.219	895.12
893.478	887.12
898.731	886.12
903.979	856.12
909.221	868.12
914.458	860.12
919.69	875.12
924.916	855.12
930.136	872.12
935.351	873.12
940.561	877.12
945.766	885.12
950.965	865.12
956.158	872.12
961.347	871.12
966.529	847.12
971.707	854.12
976.879	834.12
982.046	821.12
987.208	836.12
992.364	826.12
997.515	843.12
1002.66	846.12
1007.801	868.12
1012.936	875.12
1018.066	876.12
1023.19	878.12
1028.309	893.12
1033.423	890.12
1038.532	870.12
1043.636	872.12
1048.734	863.12
1053.827	848.12
1058.915	856.12
1063.998	846.12
1069.075	852.12
1074.147	844.12
1079.214	850.12
1084.276	863.12
1089.333	857.12
1094.385	879.12
1099.431	879.12
1104.472	899.12
1109.509	872.12
1114.54	867.12
1119.565	867.12
1124.586	868.12
1129.602	860.12
1134.613	858.12
1139.618	846.12
1144.619	859.12
1149.614	849.12
1154.604	861.12
1159.589	864.12
1164.57	861.12
1169.545	869.12
1174.515	877.12
1179.48	870.12
1184.44	862.12
1189.395	855.12
1194.345	857.12
1199.29	836.12
1204.23	846.12
1209.165	849.12
1214.095	872.12
1219.021	874.12
1223.941	870.12
1228.856	879.12
1233.766	885.12
1238.672	888.12
1243.572	886.12
1248.467	873.12
1253.358	873.12
1258.244	877.12
1263.124	861.12
1268	850.12
1272.871	838.12
1277.737	849.12
1282.599	838.12
1287.455	840.12
1292.306	849.12
1297.153	845.12
1301.995	846.12
1306.832	856.12
1311.664	863.12
1316.491	865.12
1321.314	856.12
1326.132	867.12
1330.945	840.12
1335.753	828.12
1340.556	817.12
1345.354	816.12
1350.148	799.12
1354.937	804.12
1359.722	796.12
1364.501	817.12
1369.276	826.12
1374.046	841.12
1378.811	833.12
1383.572	856.12
1388.327	841.12
1393.079	842.12
1397.825	823.12
1402.567	818.12
1407.304	800.12
1412.036	789.12
1416.764	789.12
1421.487	799.12
1426.205	786.12
1430.919	799.12
1435.628	804.12
1440.333	802.12
1445.032	817.12
1449.727	820.12
1454.418	817.12
1459.104	819.12
1463.785	816.12
1468.462	810.12
1473.134	808.12
1477.802	785.12
1482.465	797.12
1487.123	788.12
1491.777	803.12
1496.426	807.12
1501.071	809.12
1505.711	824.12
1510.347	823.12
1514.978	838.12
1519.604	849.12
1524.226	847.12
1528.844	874.12
1533.457	850.12
1538.065	868.12
1542.669	861.12
1547.269	859.12
1551.864	844.12
1556.454	846.12
1561.041	843.12
1565.622	844.12
1570.199	859.12
1574.772	854.12
1579.34	864.12
1583.904	868.12
1588.464	878.12
1593.019	878.12
1597.569	876.12
1602.115	875.12
1606.657	872.12
1611.195	867.12
1615.728	867.12
1620.256	865.12
1624.78	880.12
1629.3	883.12
1633.816	882.12
1638.327	892.12
1642.834	912.12
1647.336	907.12
1651.834	910.12
1656.328	924.12
1660.817	915.12
1665.302	908.12
1669.783	897.12
1674.259	900.12
1678.732	875.12
1683.199	859.12
1687.663	829.12
1692.122	806.12
1696.577	801.12
1701.028	788.12
1705.474	777.12
1709.917	776.12
1714.355	781.12
1718.788	776.12
1723.218	766.12
1727.643	742.12
1732.064	743.12
1736.481	736.12
1740.893	717.12
1745.301	696.12
1749.705	698.12
1754.105	684.12
1758.501	676.12
1762.893	663.12
1767.28	642.12
1771.663	652.12
1776.042	658.12
1780.417	669.12
1784.787	657.12
1789.154	668.12
1793.516	671.12
1797.874	693.12
1802.228	693.12
1806.578	697.12
1810.924	684.12
1815.266	685.12
1819.603	673.12
1823.937	668.12
1828.266	652.12
1832.591	647.12
1836.913	649.12
1841.23	634.12
1845.543	643.12
1849.852	642.12
1854.156	639.12
1858.457	645.12
1862.754	630.12
1867.047	646.12
1871.335	652.12
1875.62	650.12
1879.9	653.12
1884.177	649.12
1888.449	653.12
1892.718	637.12
1896.982	645.12
1901.243	650.12
1905.499	637.12
1909.752	634.12
1914	639.12
1918.245	634.12
1922.485	654.12
1926.722	643.12
1930.954	648.12
1935.183	646.12
1939.408	647.12
1943.628	662.12
1947.845	659.12
1952.058	656.12
1956.267	650.12
1960.472	650.12
1964.673	646.12
1968.87	618.12
1973.063	633.12
1977.252	627.12
1981.438	623.12
1985.619	626.12
1989.797	608.12
1993.971	614.12
1998.14	621.12
2002.306	624.12
2006.469	620.12
2010.627	620.12
2014.781	624.12
2018.932	619.12
2023.078	616.12
2027.221	619.12
2031.36	605.12
2035.495	608.12
2039.627	601.12
2043.754	593.12
2047.878	580.12
2051.998	599.12
2056.114	592.12
2060.226	582.12
2064.334	586.12
2068.439	588.12
2072.54	588.12
2076.637	587.12
2080.73	599.12
2084.82	586.12
2088.906	609.12
2092.988	604.12
2097.066	604.12
2101.14	602.12
2105.211	593.12
2109.278	600.12
2113.342	589.12
2117.401	589.12
2121.457	597.12
2125.509	593.12
2129.558	597.12
2133.602	589.12
2137.643	575.12
2141.681	590.12
2145.714	585.12
2149.744	586.12
2153.77	574.12
2157.793	571.12
2161.812	555.12
2165.827	567.12
2169.838	550.12
2173.846	545.12
2177.851	539.12
2181.851	529.12
2185.848	532.12
2189.841	517.12
2193.831	508.12
2197.817	509.12
2201.799	519.12
2205.778	522.12
2209.753	508.12
2213.725	521.12
2217.693	518.12
2221.657	511.12
2225.618	520.12
2229.575	519.12
2233.529	520.12
2237.479	515.12
2241.425	512.12
2245.368	500.12
2249.307	504.12
2253.243	493.12
2257.175	489.12
2261.104	496.12
2265.029	476.12
2268.95	477.12
2272.868	476.12
2276.783	472.12
2280.694	473.12
2284.601	457.12
2288.505	462.12
2292.405	456.12
2296.302	457.12
2300.195	450.12
2304.085	442.12
2307.971	441.12
2311.854	429.12
2315.734	429.12
2319.609	412.12
2323.482	417.12
2327.351	415.12
2331.216	408.12
2335.078	409.12
2338.937	413.12
2342.792	404.12
2346.643	408.12
2350.492	400.12
2354.336	405.12
2358.178	412.12
2362.015	405.12
2365.85	411.12
2369.681	405.12
2373.508	401.12
2377.333	407.12
2381.153	400.12
2384.971	412.12
2388.785	400.12
2392.595	400.12
2396.402	395.12
2400.206	393.12
2404.007	399.12
2407.804	390.12
2411.597	394.12
2415.388	396.12
2419.174	394.12
2422.958	386.12
2426.738	383.12
2430.515	383.12
2434.289	373.12
2438.059	384.12
2441.825	379.12
2445.589	383.12
2449.349	372.12
2453.106	374.12
2456.859	373.12
2460.61	366.12
2464.356	363.12
2468.1	359.12
2471.84	368.12
2475.577	362.12
2479.311	359.12
2483.041	359.12
2486.768	358.12
2490.492	359.12
2494.213	372.12
2497.93	364.12
2501.644	367.12
2505.355	366.12
2509.062	362.12
2512.766	356.12
2516.467	361.12
2520.165	362.12
2523.859	361.12
2527.551	359.12
2531.239	350.12
2534.923	349.12
2538.605	339.12
2542.283	343.12
2545.958	348.12
2549.63	345.12
2553.299	337.12
2556.964	348.12
2560.626	341.12
2564.285	334.12
2567.941	335.12
2571.594	331.12
2575.243	340.12
2578.89	327.12
2582.533	323.12
2586.173	322.12
2589.809	321.12
2593.443	334.12
2597.073	330.12
2600.701	326.12
2604.325	324.12
2607.946	326.12
2611.564	324.12
2615.178	326.12
2618.79	322.12
2622.398	327.12
2626.004	315.12
2629.606	313.12
2633.205	307.12
2636.801	308.12
2640.394	309.12
2643.983	295.12
2647.57	292.12
2651.153	296.12
2654.734	289.12
2658.311	294.12
2661.885	293.12
2665.456	283.12
2669.025	283.12
2672.589	285.12
2676.151	283.12
2679.71	273.12
2683.266	275.12
2686.819	279.12
2690.368	272.12
2693.915	271.12
2697.458	265.12
2700.999	259.12
2704.536	253.12
2708.071	253.12
2711.602	262.12
2715.13	257.12
2718.656	248.12
2722.178	242.12
2725.697	246.12
2729.214	252.12
2732.727	246.12
2736.237	250.12
2739.744	244.12
2743.249	251.12
2746.75	247.12
2750.248	249.12
2753.743	244.12
2757.236	245.12
2760.725	243.12
2764.211	247.12
2767.695	243.12
2771.175	247.12
2774.652	237.12
2778.127	242.12
2781.598	238.12
2785.067	239.12
2788.532	240.12
2791.995	245.12
2795.455	235.12
2798.911	241.12
2802.365	242.12
2805.816	239.12
2809.264	234.12
2812.709	229.12
2816.151	225.12
2819.59	234.12
2823.026	228.12
2826.46	229.12
2829.89	222.12
2833.318	225.12
2836.742	229.12
2840.164	219.12
2843.583	223.12
2846.999	222.12
2850.412	220.12
2853.822	227.12
2857.229	224.12
2860.634	223.12
2864.035	220.12
2867.434	221.12
2870.83	224.12
2874.223	224.12
2877.613	218.12
2881	226.12
2884.385	221.12
2887.766	217.12
2891.145	222.12
2894.521	220.12
2897.894	215.12
2901.264	221.12
2904.631	209.12
2907.996	212.12
2911.358	214.12
2914.717	210.12
2918.073	213.12
2921.426	214.12
2924.777	212.12
2928.124	218.12
2931.469	214.12
2934.811	218.12
2938.15	217.12
2941.487	213.12
2944.821	218.12
2948.152	216.12
2951.48	214.12
2954.805	210.12
2958.128	216.12
2961.447	218.12
2964.765	207.12
2968.079	220.12
2971.39	215.12
2974.699	221.12
2978.005	228.12
2981.308	226.12
2984.609	228.12
2987.907	227.12
2991.202	243.12
2994.494	240.12
2997.784	245.12
3001.07	244.12
3004.355	252.12
3007.636	249.12
3010.915	251.12
3014.191	254.12
3017.464	259.12
3020.734	261.12
3024.002	256.12
3027.267	256.12
3030.53	254.12
3033.789	265.12
3037.046	259.12
3040.301	267.12
3043.552	262.12
3046.801	273.12
3050.048	268.12
3053.291	275.12
3056.532	287.12
3059.771	289.12
3063.006	299.12
3066.239	304.12
3069.469	314.12
3072.697	313.12
3075.922	312.12
3079.144	330.12
3082.364	337.12
3085.581	338.12
3088.795	340.12
3092.007	340.12
3095.216	344.12
3098.423	354.12
3101.627	359.12
3104.828	371.12
3108.026	367.12
3111.222	375.12
3114.416	384.12
3117.607	385.12
3120.795	399.12
3123.98	402.12
3127.163	413.12
3130.344	418.12
3133.521	431.12
3136.696	435.12
3139.869	440.12
3143.039	453.12
3146.206	442.12
3149.371	452.12
3152.533	453.12
3155.693	461.12
3158.85	457.12
3162.005	464.12
3165.157	453.12
3168.306	461.12
3171.453	461.12
3174.597	456.12
3177.739	453.12
3180.878	463.12
3184.014	447.12
3187.149	462.12
3190.28	461.12
3193.409	459.12
3196.536	457.12
3199.659	462.12
3202.781	459.12
3205.9	464.12
3209.016	457.12
3212.13	464.12
3215.241	456.12
3218.35	458.12
3221.456	451.12
3224.56	448.12
3227.661	440.12
3230.76	433.12
3233.856	436.12
3236.95	421.12
3240.041	435.12
3243.13	416.12
3246.216	427.12
3249.3	423.12
3252.382	416.12
3255.46	420.12
3258.537	407.12
3261.611	405.12
3264.682	402.12
3267.751	406.12
3270.818	410.12
3273.882	408.12
3276.943	408.12
3280.002	410.12
3283.059	396.12
3286.113	392.12
3289.165	390.12
3292.214	375.12
3295.261	375.12
3298.306	363.12
3301.348	367.12
3304.387	358.12
3307.425	349.12
3310.459	350.12
3313.492	336.12
3316.521	338.12
3319.549	329.12
3322.574	328.12
3325.597	328.12
3328.617	321.12
3331.635	319.12
3334.65	319.12
3337.663	319.12
3340.674	324.12
3343.682	304.12
3346.688	315.12
3349.691	317.12
3352.692	313.12
3355.691	308.12
3358.687	304.12
3361.681	297.12
3364.673	297.12
3367.662	295.12
3370.649	287.12
3373.633	287.12
3376.615	282.12
3379.595	280.12
3382.572	282.12
3385.547	278.12
3388.52	262.12
3391.49	263.12
3394.458	248.12
3397.424	254.12
3400.387	253.12
3403.348	246.12
3406.307	243.12
3409.263	243.12
3412.217	240.12
3415.168	237.12
3418.118	242.12
3421.065	232.12
3424.009	231.12
3426.951	236.12
3429.891	226.12
3432.829	216.12
3435.764	216.12
3438.697	204.12
3441.628	202.12
3444.557	194.12
3447.483	189.12
3450.407	188.12
3453.328	188.12
3456.247	183.12
3459.164	175.12
3462.079	166.12
3464.991	166.12
3467.902	155.12
3470.809	151.12
3473.715	151.12
3476.618	155.12
3479.519	142.12
3482.418	134.12
3485.315	132.12
3488.209	131.12
3491.101	131.12
3493.99	124.12
3496.878	120.12
3499.763	121.12
3502.646	118.12
3505.527	114.12
3508.405	107.12
3511.281	100.12
3514.155	101.12
3517.027	96.12
3519.897	86.12
3522.764	90.12
3525.629	86.12
3528.492	75.12
3531.352	76.12
3534.211	68.12
3537.067	67.12
3539.921	63.12
3542.773	54.12
3545.622	52.12
3548.469	49.12
3551.315	48.12
3554.157	43.12
3556.998	45.12
3559.837	39.12
3562.673	38.12
3565.507	37.12
3568.339	41.12
3571.169	35.12
3573.996	31.12
3576.822	24.12
3579.645	28.12
3582.466	26.12
3585.285	21.12
3588.101	20.12
3590.916	21.12
3593.728	18.12
3596.538	16.12
3599.346	12.12
3602.152	8.12
3604.956	10.12
3607.757	5.12
3610.556	5.12
3613.354	4.12
3616.149	0.12
3618.942	-2.88
3621.732	-5.88
3624.521	-3.88
3627.307	-2.88
3630.092	-4.88
3632.874	-2.88
3635.654	-5.88
3638.432	-11.88
3641.208	-6.88
3643.982	-9.88
3646.753	-9.88
3649.523	-10.88
3652.29	-7.88
3655.055	-8.88
3657.818	-13.88
3660.579	-13.88
3663.338	-13.88
3666.095	-11.88
3668.849	-10.88
3671.602	-15.88
3674.352	-16.88
3677.101	-23.88
3679.847	-20.88
3682.591	-19.88
3685.333	-24.88
3688.073	-20.88
3690.811	-22.88
3693.547	-26.88
3696.281	-24.88
3699.013	-26.88
3701.742	-31.88
3704.47	-30.88
3707.195	-26.88
3709.919	-32.88
3712.64	-28.88
3715.359	-29.88
3718.076	-27.88
3720.792	-30.88
3723.505	-28.88
3726.216	-27.88
3728.925	-26.88
3731.632	-28.88
3734.336	-24.88
3737.039	-26.88
3739.74	-27.88
3742.439	-34.88
3745.136	-29.88
3747.83	-29.88
3750.523	-30.88
3753.213	-28.88
3755.902	-31.88
3758.589	-27.88
3761.273	-30.88
3763.956	-32.88
3766.636	-32.88
3769.315	-36.88
3771.991	-34.88
3774.665	-36.88
3777.338	-37.88
3780.008	-30.88
3782.677	-34.88
3785.343	-34.88
3788.007	-33.88
3790.67	-40.88
3793.33	-35.88
3795.989	-36.88
3798.645	-33.88
3801.299	-35.88
3803.952	-34.88
3806.602	-37.88
3809.251	-31.88
3811.897	-36.88
3814.542	-31.88
3817.184	-36.88
3819.825	-37.88
3822.463	-37.88
3825.1	-33.88
3827.735	-37.88
3830.367	-34.88
3832.998	-35.88
3835.627	-33.88
3838.253	-37.88
3840.878	-32.88
3843.501	-34.88
3846.122	-33.88
3848.741	-37.88
3851.358	-34.88
3853.973	-36.88
3856.586	-34.88
3859.197	-36.88
3861.806	-36.88
3864.414	-40.88
3867.019	-34.88
3869.622	-39.88
3872.224	-36.88
3874.823	-37.88
3877.421	-36.88
3880.016	-42.88
3882.61	-41.88
3885.202	-37.88
3887.792	-36.88
3890.38	-37.88
3892.966	-42.88
3895.55	-39.88
3898.132	-37.88
3900.713	-40.88
3903.291	-37.88
3905.868	-35.88
3908.442	-38.88
3911.015	-39.88
3913.586	-37.88
3916.155	-38.88
3918.722	-38.88
3921.287	-39.88
3923.85	-34.88
3926.411	-38.88
3928.971	-36.88
3931.528	-41.88
3934.084	-41.88
3936.638	-38.88
3939.19	-40.88
3941.74	-43.88
3944.288	-45.88
3946.834	-45.88
3949.378	-43.88
3951.921	-45.88
3954.462	-43.88
3957	-47.88
3959.537	-40.88
3962.072	-40.88
3964.606	-37.88
3967.137	-40.88
3969.667	-39.88
3972.194	-38.88
3974.72	-35.88
3977.244	-40.88
3979.766	-35.88
3982.286	-34.88
3984.805	-33.88
3987.321	-38.88
3989.836	-37.88
3992.349	-39.88
3994.86	-39.88
3997.369	-38.88
3999.877	-39.88
4002.382	-39.88
4004.886	-40.88
4007.388	-42.88
4009.888	-41.88
4012.386	-43.88
4014.883	-45.88
4017.377	-41.88
4019.87	-38.88
4022.361	-41.88
4024.85	-40.88
4027.338	-37.88
4029.823	-34.88
4032.307	-41.88
4034.789	-39.88
4037.269	-40.88
4039.747	-40.88
4042.224	-36.88
4044.699	-40.88
4047.172	-38.88
4049.643	-38.88
4052.112	-35.88
4054.58	-37.88
4057.046	-37.88
4059.51	-36.88
4061.972	-40.88
4064.432	-40.88
4066.891	-40.88
4069.348	-39.88
4071.803	-41.88
4074.256	-41.88
4076.708	-38.88
4079.158	-41.88
4081.606	-40.88
4084.052	-40.88
4086.497	-38.88
4088.939	-39.88
4091.38	-43.88
4093.819	-37.88
4096.257	-38.88
4098.693	-41.88
4101.127	-43.88
4103.559	-41.88
4105.989	-30.88
4108.418	-24.88
4110.845	-22.88
4113.27	-20.88
4115.694	-19.88
4118.115	-18.88
4120.535	-37.88
4122.954	-40.88
4125.37	-40.88
4127.785	-40.88
4130.198	-38.88
4132.609	-40.88
4135.019	-43.88
4137.427	-44.88
4139.833	-42.88
4142.237	-43.88
