Data from I0.5_T10s_Bsub_water_1-10^2_3_RamanShift_1.txt Node
Date: Mon Mar 13 14:09:47 IST 2017
User: aro
Spectrometer: QEPB0276
Trigger mode: 0
Integration Time (sec): 1.000000E1
Scans to average: 1
Electric dark correction enabled: true
Nonlinearity correction enabled: false
Boxcar width: 0
XAxis mode: Raman Shifts
Number of Pixels in Spectrum: 1044
>>>>>Begin Spectral Data<<<<<
160.701	-21.62
166.742	3.38
172.777	71.38
178.805	289.38
184.826	848.38
190.841	1782.38
196.849	2853.38
202.85	3590.38
208.845	3724.38
214.833	3666.38
220.815	3574.38
226.789	3514.38
232.758	3485.38
238.719	3415.38
244.674	3351.38
250.623	3258.38
256.565	3132.38
262.5	3032.38
268.429	2972.38
274.351	2899.38
280.267	2842.38
286.176	2806.38
292.079	2718.38
297.975	2643.38
303.865	2609.38
309.748	2548.38
315.625	2511.38
321.495	2459.38
327.359	2414.38
333.217	2386.38
339.068	2366.38
344.912	2336.38
350.751	2312.38
356.583	2302.38
362.408	2285.38
368.227	2283.38
374.04	2272.38
379.847	2271.38
385.647	2275.38
391.44	2258.38
397.228	2252.38
403.009	2291.38
408.784	2278.38
414.553	2285.38
420.315	2279.38
426.071	2265.38
431.821	2270.38
437.565	2271.38
443.302	2270.38
449.033	2236.38
454.758	2245.38
460.477	2240.38
466.189	2230.38
471.896	2207.38
477.596	2204.38
483.29	2203.38
488.978	2196.38
494.66	2188.38
500.335	2175.38
506.005	2156.38
511.668	2128.38
517.325	2076.38
522.977	2093.38
528.622	2051.38
534.261	2047.38
539.894	2016.38
545.521	2027.38
551.141	2023.38
556.756	2015.38
562.365	2017.38
567.968	2002.38
573.565	1988.38
579.155	1974.38
584.74	1984.38
590.319	1984.38
595.892	1971.38
601.459	1958.38
607.02	1931.38
612.575	1921.38
618.124	1920.38
623.667	1903.38
629.204	1889.38
634.735	1889.38
640.261	1876.38
645.781	1873.38
651.294	1862.38
656.802	1869.38
662.304	1852.38
667.8	1854.38
673.29	1865.38
678.775	1863.38
684.254	1854.38
689.726	1855.38
695.193	1849.38
700.655	1845.38
706.11	1819.38
711.56	1823.38
717.004	1821.38
722.442	1815.38
727.874	1820.38
733.301	1809.38
738.722	1796.38
744.137	1796.38
749.547	1800.38
754.951	1797.38
760.349	1809.38
765.741	1804.38
771.128	1810.38
776.509	1799.38
781.885	1810.38
787.254	1815.38
792.618	1806.38
797.977	1810.38
803.33	1785.38
808.677	1768.38
814.019	1776.38
819.355	1769.38
824.686	1764.38
830.011	1767.38
835.33	1762.38
840.644	1757.38
845.952	1752.38
851.255	1771.38
856.552	1770.38
861.844	1759.38
867.13	1752.38
872.41	1771.38
877.686	1764.38
882.955	1742.38
888.219	1741.38
893.478	1706.38
898.731	1703.38
903.979	1687.38
909.221	1665.38
914.458	1673.38
919.69	1666.38
924.916	1679.38
930.136	1673.38
935.351	1687.38
940.561	1688.38
945.766	1679.38
950.965	1693.38
956.158	1672.38
961.347	1655.38
966.529	1642.38
971.707	1634.38
976.879	1614.38
982.046	1596.38
987.208	1599.38
992.364	1597.38
997.515	1612.38
1002.66	1631.38
1007.801	1656.38
1012.936	1654.38
1018.066	1672.38
1023.19	1696.38
1028.309	1700.38
1033.423	1689.38
1038.532	1687.38
1043.636	1673.38
1048.734	1656.38
1053.827	1635.38
1058.915	1640.38
1063.998	1634.38
1069.075	1645.38
1074.147	1640.38
1079.214	1664.38
1084.276	1675.38
1089.333	1679.38
1094.385	1696.38
1099.431	1703.38
1104.472	1713.38
1109.509	1705.38
1114.54	1681.38
1119.565	1680.38
1124.586	1645.38
1129.602	1632.38
1134.613	1624.38
1139.618	1634.38
1144.619	1631.38
1149.614	1629.38
1154.604	1647.38
1159.589	1653.38
1164.57	1646.38
1169.545	1661.38
1174.515	1676.38
1179.48	1666.38
1184.44	1656.38
1189.395	1644.38
1194.345	1639.38
1199.29	1639.38
1204.23	1641.38
1209.165	1646.38
1214.095	1677.38
1219.021	1677.38
1223.941	1697.38
1228.856	1713.38
1233.766	1711.38
1238.672	1718.38
1243.572	1724.38
1248.467	1708.38
1253.358	1704.38
1258.244	1688.38
1263.124	1639.38
1268	1625.38
1272.871	1621.38
1277.737	1604.38
1282.599	1597.38
1287.455	1610.38
1292.306	1636.38
1297.153	1646.38
1301.995	1654.38
1306.832	1657.38
1311.664	1668.38
1316.491	1683.38
1321.314	1680.38
1326.132	1640.38
1330.945	1625.38
1335.753	1605.38
1340.556	1571.38
1345.354	1565.38
1350.148	1552.38
1354.937	1529.38
1359.722	1546.38
1364.501	1549.38
1369.276	1572.38
1374.046	1606.38
1378.811	1601.38
1383.572	1592.38
1388.327	1595.38
1393.079	1565.38
1397.825	1565.38
1402.567	1547.38
1407.304	1525.38
1412.036	1519.38
1416.764	1513.38
1421.487	1515.38
1426.205	1531.38
1430.919	1532.38
1435.628	1535.38
1440.333	1545.38
1445.032	1574.38
1449.727	1587.38
1454.418	1577.38
1459.104	1586.38
1463.785	1572.38
1468.462	1570.38
1473.134	1544.38
1477.802	1534.38
1482.465	1533.38
1487.123	1550.38
1491.777	1532.38
1496.426	1547.38
1501.071	1547.38
1505.711	1577.38
1510.347	1591.38
1514.978	1606.38
1519.604	1618.38
1524.226	1634.38
1528.844	1634.38
1533.457	1632.38
1538.065	1625.38
1542.669	1630.38
1547.269	1606.38
1551.864	1619.38
1556.454	1613.38
1561.041	1619.38
1565.622	1612.38
1570.199	1628.38
1574.772	1623.38
1579.34	1649.38
1583.904	1680.38
1588.464	1683.38
1593.019	1683.38
1597.569	1691.38
1602.115	1680.38
1606.657	1687.38
1611.195	1669.38
1615.728	1674.38
1620.256	1685.38
1624.78	1679.38
1629.3	1691.38
1633.816	1709.38
1638.327	1735.38
1642.834	1751.38
1647.336	1749.38
1651.834	1764.38
1656.328	1786.38
1660.817	1764.38
1665.302	1764.38
1669.783	1746.38
1674.259	1719.38
1678.732	1690.38
1683.199	1640.38
1687.663	1605.38
1692.122	1563.38
1696.577	1525.38
1701.028	1520.38
1705.474	1509.38
1709.917	1506.38
1714.355	1496.38
1718.788	1466.38
1723.218	1458.38
1727.643	1444.38
1732.064	1429.38
1736.481	1399.38
1740.893	1385.38
1745.301	1365.38
1749.705	1345.38
1754.105	1339.38
1758.501	1299.38
1762.893	1289.38
1767.28	1265.38
1771.663	1266.38
1776.042	1268.38
1780.417	1274.38
1784.787	1284.38
1789.154	1282.38
1793.516	1319.38
1797.874	1306.38
1802.228	1328.38
1806.578	1309.38
1810.924	1309.38
1815.266	1290.38
1819.603	1283.38
1823.937	1277.38
1828.266	1249.38
1832.591	1240.38
1836.913	1237.38
1841.23	1243.38
1845.543	1214.38
1849.852	1222.38
1854.156	1216.38
1858.457	1241.38
1862.754	1240.38
1867.047	1233.38
1871.335	1249.38
1875.62	1246.38
1879.9	1248.38
1884.177	1254.38
1888.449	1241.38
1892.718	1246.38
1896.982	1223.38
1901.243	1243.38
1905.499	1221.38
1909.752	1213.38
1914	1228.38
1918.245	1227.38
1922.485	1225.38
1926.722	1232.38
1930.954	1245.38
1935.183	1246.38
1939.408	1257.38
1943.628	1254.38
1947.845	1260.38
1952.058	1261.38
1956.267	1253.38
1960.472	1246.38
1964.673	1236.38
1968.87	1228.38
1973.063	1226.38
1977.252	1185.38
1981.438	1210.38
1985.619	1199.38
1989.797	1188.38
1993.971	1205.38
1998.14	1194.38
2002.306	1179.38
2006.469	1207.38
2010.627	1197.38
2014.781	1203.38
2018.932	1201.38
2023.078	1189.38
2027.221	1173.38
2031.36	1156.38
2035.495	1139.38
2039.627	1142.38
2043.754	1144.38
2047.878	1126.38
2051.998	1130.38
2056.114	1144.38
2060.226	1125.38
2064.334	1129.38
2068.439	1142.38
2072.54	1144.38
2076.637	1145.38
2080.73	1158.38
2084.82	1155.38
2088.906	1156.38
2092.988	1156.38
2097.066	1152.38
2101.14	1139.38
2105.211	1133.38
2109.278	1138.38
2113.342	1142.38
2117.401	1122.38
2121.457	1125.38
2125.509	1122.38
2129.558	1109.38
2133.602	1103.38
2137.643	1105.38
2141.681	1100.38
2145.714	1101.38
2149.744	1103.38
2153.77	1108.38
2157.793	1078.38
2161.812	1082.38
2165.827	1064.38
2169.838	1063.38
2173.846	1041.38
2177.851	1020.38
2181.851	1024.38
2185.848	1015.38
2189.841	997.38
2193.831	997.38
2197.817	985.38
2201.799	992.38
2205.778	991.38
2209.753	993.38
2213.725	986.38
2217.693	1002.38
2221.657	1002.38
2225.618	1009.38
2229.575	983.38
2233.529	993.38
2237.479	977.38
2241.425	988.38
2245.368	980.38
2249.307	974.38
2253.243	953.38
2257.175	946.38
2261.104	932.38
2265.029	922.38
2268.95	902.38
2272.868	907.38
2276.783	903.38
2280.694	897.38
2284.601	889.38
2288.505	886.38
2292.405	871.38
2296.302	873.38
2300.195	866.38
2304.085	855.38
2307.971	835.38
2311.854	825.38
2315.734	817.38
2319.609	799.38
2323.482	801.38
2327.351	797.38
2331.216	788.38
2335.078	789.38
2338.937	782.38
2342.792	767.38
2346.643	764.38
2350.492	766.38
2354.336	771.38
2358.178	774.38
2362.015	777.38
2365.85	781.38
2369.681	780.38
2373.508	768.38
2377.333	783.38
2381.153	787.38
2384.971	768.38
2388.785	764.38
2392.595	767.38
2396.402	757.38
2400.206	755.38
2404.007	751.38
2407.804	752.38
2411.597	739.38
2415.388	745.38
2419.174	748.38
2422.958	740.38
2426.738	745.38
2430.515	731.38
2434.289	739.38
2438.059	727.38
2441.825	730.38
2445.589	721.38
2449.349	716.38
2453.106	709.38
2456.859	705.38
2460.61	708.38
2464.356	715.38
2468.1	692.38
2471.84	701.38
2475.577	704.38
2479.311	694.38
2483.041	697.38
2486.768	702.38
2490.492	699.38
2494.213	697.38
2497.93	706.38
2501.644	694.38
2505.355	687.38
2509.062	689.38
2512.766	694.38
2516.467	687.38
2520.165	685.38
2523.859	689.38
2527.551	667.38
2531.239	667.38
2534.923	668.38
2538.605	668.38
2542.283	658.38
2545.958	661.38
2549.63	658.38
2553.299	647.38
2556.964	664.38
2560.626	654.38
2564.285	635.38
2567.941	643.38
2571.594	628.38
2575.243	642.38
2578.89	631.38
2582.533	629.38
2586.173	618.38
2589.809	632.38
2593.443	626.38
2597.073	617.38
2600.701	620.38
2604.325	604.38
2607.946	621.38
2611.564	613.38
2615.178	612.38
2618.79	604.38
2622.398	599.38
2626.004	607.38
2629.606	603.38
2633.205	600.38
2636.801	591.38
2640.394	586.38
2643.983	581.38
2647.57	576.38
2651.153	566.38
2654.734	552.38
2658.311	556.38
2661.885	550.38
2665.456	542.38
2669.025	541.38
2672.589	547.38
2676.151	541.38
2679.71	528.38
2683.266	526.38
2686.819	515.38
2690.368	528.38
2693.915	510.38
2697.458	499.38
2700.999	500.38
2704.536	488.38
2708.071	488.38
2711.602	477.38
2715.13	473.38
2718.656	472.38
2722.178	482.38
2725.697	480.38
2729.214	478.38
2732.727	481.38
2736.237	477.38
2739.744	474.38
2743.249	480.38
2746.75	473.38
2750.248	473.38
2753.743	489.38
2757.236	484.38
2760.725	486.38
2764.211	475.38
2767.695	468.38
2771.175	459.38
2774.652	473.38
2778.127	457.38
2781.598	465.38
2785.067	452.38
2788.532	450.38
2791.995	450.38
2795.455	454.38
2798.911	452.38
2802.365	444.38
2805.816	447.38
2809.264	452.38
2812.709	429.38
2816.151	437.38
2819.59	438.38
2823.026	435.38
2826.46	443.38
2829.89	431.38
2833.318	437.38
2836.742	434.38
2840.164	431.38
2843.583	425.38
2846.999	427.38
2850.412	429.38
2853.822	435.38
2857.229	439.38
2860.634	434.38
2864.035	435.38
2867.434	428.38
2870.83	429.38
2874.223	429.38
2877.613	443.38
2881	425.38
2884.385	419.38
2887.766	416.38
2891.145	424.38
2894.521	414.38
2897.894	412.38
2901.264	417.38
2904.631	416.38
2907.996	414.38
2911.358	410.38
2914.717	402.38
2918.073	407.38
2921.426	404.38
2924.777	414.38
2928.124	413.38
2931.469	414.38
2934.811	410.38
2938.15	422.38
2941.487	416.38
2944.821	425.38
2948.152	421.38
2951.48	421.38
2954.805	421.38
2958.128	422.38
2961.447	425.38
2964.765	422.38
2968.079	425.38
2971.39	427.38
2974.699	438.38
2978.005	434.38
2981.308	435.38
2984.609	446.38
2987.907	445.38
2991.202	455.38
2994.494	455.38
2997.784	472.38
3001.07	471.38
3004.355	487.38
3007.636	483.38
3010.915	494.38
3014.191	494.38
3017.464	495.38
3020.734	495.38
3024.002	500.38
3027.267	498.38
3030.53	503.38
3033.789	504.38
3037.046	507.38
3040.301	510.38
3043.552	513.38
3046.801	522.38
3050.048	527.38
3053.291	548.38
3056.532	554.38
3059.771	559.38
3063.006	577.38
3066.239	578.38
3069.469	593.38
3072.697	619.38
3075.922	616.38
3079.144	625.38
3082.364	637.38
3085.581	632.38
3088.795	647.38
3092.007	652.38
3095.216	683.38
3098.423	689.38
3101.627	690.38
3104.828	702.38
3108.026	710.38
3111.222	714.38
3114.416	728.38
3117.607	743.38
3120.795	757.38
3123.98	760.38
3127.163	784.38
3130.344	793.38
3133.521	812.38
3136.696	834.38
3139.869	836.38
3143.039	852.38
3146.206	858.38
3149.371	853.38
3152.533	869.38
3155.693	877.38
3158.85	878.38
3162.005	892.38
3165.157	873.38
3168.306	875.38
3171.453	883.38
3174.597	894.38
3177.739	892.38
3180.878	888.38
3184.014	884.38
3187.149	889.38
3190.28	886.38
3193.409	888.38
3196.536	884.38
3199.659	888.38
3202.781	889.38
3205.9	893.38
3209.016	905.38
3212.13	895.38
3215.241	884.38
3218.35	879.38
3221.456	859.38
3224.56	866.38
3227.661	858.38
3230.76	861.38
3233.856	842.38
3236.95	846.38
3240.041	836.38
3243.13	816.38
3246.216	809.38
3249.3	808.38
3252.382	814.38
3255.46	821.38
3258.537	813.38
3261.611	806.38
3264.682	799.38
3267.751	793.38
3270.818	784.38
3273.882	779.38
3276.943	796.38
3280.002	762.38
3283.059	768.38
3286.113	764.38
3289.165	763.38
3292.214	743.38
3295.261	738.38
3298.306	716.38
3301.348	702.38
3304.387	697.38
3307.425	695.38
3310.459	678.38
3313.492	664.38
3316.521	662.38
3319.549	642.38
3322.574	639.38
3325.597	650.38
3328.617	639.38
3331.635	631.38
3334.65	619.38
3337.663	612.38
3340.674	619.38
3343.682	607.38
3346.688	600.38
3349.691	607.38
3352.692	598.38
3355.691	601.38
3358.687	592.38
3361.681	578.38
3364.673	582.38
3367.662	576.38
3370.649	566.38
3373.633	565.38
3376.615	553.38
3379.595	541.38
3382.572	533.38
3385.547	530.38
3388.52	525.38
3391.49	521.38
3394.458	502.38
3397.424	499.38
3400.387	500.38
3403.348	483.38
3406.307	494.38
3409.263	483.38
3412.217	473.38
3415.168	471.38
3418.118	458.38
3421.065	452.38
3424.009	452.38
3426.951	451.38
3429.891	434.38
3432.829	425.38
3435.764	427.38
3438.697	415.38
3441.628	409.38
3444.557	395.38
3447.483	396.38
3450.407	375.38
3453.328	372.38
3456.247	360.38
3459.164	353.38
3462.079	328.38
3464.991	335.38
3467.902	321.38
3470.809	302.38
3473.715	290.38
3476.618	291.38
3479.519	280.38
3482.418	271.38
3485.315	272.38
3488.209	257.38
3491.101	250.38
3493.99	255.38
3496.878	238.38
3499.763	232.38
3502.646	218.38
3505.527	216.38
3508.405	206.38
3511.281	194.38
3514.155	196.38
3517.027	190.38
3519.897	177.38
3522.764	172.38
3525.629	159.38
3528.492	156.38
3531.352	148.38
3534.211	133.38
3537.067	132.38
3539.921	123.38
3542.773	119.38
3545.622	107.38
3548.469	108.38
3551.315	95.38
3554.157	93.38
3556.998	78.38
3559.837	77.38
3562.673	73.38
3565.507	68.38
3568.339	66.38
3571.169	61.38
3573.996	58.38
3576.822	50.38
3579.645	43.38
3582.466	46.38
3585.285	39.38
3588.101	36.38
3590.916	33.38
3593.728	33.38
3596.538	26.38
3599.346	24.38
3602.152	19.38
3604.956	13.38
3607.757	18.38
3610.556	8.38
3613.354	4.38
3616.149	0.38
3618.942	-0.62
3621.732	-0.62
3624.521	-2.62
3627.307	-7.62
3630.092	-10.62
3632.874	-12.62
3635.654	-6.62
3638.432	-17.62
3641.208	-15.62
3643.982	-18.62
3646.753	-23.62
3649.523	-22.62
3652.29	-29.62
3655.055	-26.62
3657.818	-29.62
3660.579	-27.62
3663.338	-33.62
3666.095	-37.62
3668.849	-38.62
3671.602	-35.62
3674.352	-38.62
3677.101	-41.62
3679.847	-45.62
3682.591	-48.62
3685.333	-41.62
3688.073	-51.62
3690.811	-47.62
3693.547	-48.62
3696.281	-54.62
3699.013	-55.62
3701.742	-49.62
3704.47	-49.62
3707.195	-54.62
3709.919	-56.62
3712.64	-53.62
3715.359	-55.62
3718.076	-54.62
3720.792	-52.62
3723.505	-56.62
3726.216	-58.62
3728.925	-60.62
3731.632	-59.62
3734.336	-59.62
3737.039	-62.62
3739.74	-62.62
3742.439	-63.62
3745.136	-66.62
3747.83	-60.62
3750.523	-66.62
3753.213	-68.62
3755.902	-66.62
3758.589	-72.62
3761.273	-65.62
3763.956	-64.62
3766.636	-71.62
3769.315	-68.62
3771.991	-68.62
3774.665	-67.62
3777.338	-70.62
3780.008	-64.62
3782.677	-69.62
3785.343	-66.62
3788.007	-65.62
3790.67	-69.62
3793.33	-68.62
3795.989	-71.62
3798.645	-67.62
3801.299	-67.62
3803.952	-70.62
3806.602	-71.62
3809.251	-71.62
3811.897	-68.62
3814.542	-79.62
3817.184	-72.62
3819.825	-74.62
3822.463	-76.62
3825.1	-74.62
3827.735	-77.62
3830.367	-79.62
3832.998	-75.62
3835.627	-78.62
3838.253	-74.62
3840.878	-79.62
3843.501	-75.62
3846.122	-74.62
3848.741	-79.62
3851.358	-70.62
3853.973	-69.62
3856.586	-75.62
3859.197	-70.62
3861.806	-71.62
3864.414	-69.62
3867.019	-73.62
3869.622	-73.62
3872.224	-73.62
3874.823	-76.62
3877.421	-73.62
3880.016	-73.62
3882.61	-67.62
3885.202	-73.62
3887.792	-72.62
3890.38	-77.62
3892.966	-79.62
3895.55	-80.62
3898.132	-79.62
3900.713	-81.62
3903.291	-82.62
3905.868	-83.62
3908.442	-82.62
3911.015	-81.62
3913.586	-81.62
3916.155	-77.62
3918.722	-80.62
3921.287	-78.62
3923.85	-77.62
3926.411	-79.62
3928.971	-82.62
3931.528	-79.62
3934.084	-81.62
3936.638	-78.62
3939.19	-78.62
3941.74	-79.62
3944.288	-77.62
3946.834	-83.62
3949.378	-81.62
3951.921	-82.62
3954.462	-82.62
3957	-86.62
3959.537	-76.62
3962.072	-82.62
3964.606	-82.62
3967.137	-79.62
3969.667	-79.62
3972.194	-84.62
3974.72	-82.62
3977.244	-81.62
3979.766	-78.62
3982.286	-79.62
3984.805	-75.62
3987.321	-83.62
3989.836	-77.62
3992.349	-78.62
3994.86	-77.62
3997.369	-83.62
3999.877	-76.62
4002.382	-79.62
4004.886	-81.62
4007.388	-81.62
4009.888	-78.62
4012.386	-80.62
4014.883	-83.62
4017.377	-81.62
4019.87	-81.62
4022.361	-81.62
4024.85	-82.62
4027.338	-83.62
4029.823	-81.62
4032.307	-82.62
4034.789	-79.62
4037.269	-84.62
4039.747	-80.62
4042.224	-80.62
4044.699	-82.62
4047.172	-77.62
4049.643	-80.62
4052.112	-80.62
4054.58	-77.62
4057.046	-75.62
4059.51	-77.62
4061.972	-78.62
4064.432	-77.62
4066.891	-84.62
4069.348	-78.62
4071.803	-77.62
4074.256	-79.62
4076.708	-80.62
4079.158	-76.62
4081.606	-80.62
4084.052	-85.62
4086.497	-81.62
4088.939	-82.62
4091.38	-83.62
4093.819	-83.62
4096.257	-85.62
4098.693	-88.62
4101.127	-84.62
4103.559	-88.62
4105.989	-54.62
4108.418	-55.62
4110.845	-52.62
4113.27	-48.62
4115.694	-41.62
4118.115	-29.62
4120.535	-86.62
4122.954	-87.62
4125.37	-87.62
4127.785	-82.62
4130.198	-83.62
4132.609	-78.62
4135.019	-84.62
4137.427	-87.62
4139.833	-86.62
4142.237	-83.62
