Data from I0.5_T5s_Bsub_water_0_1_RamanShift_1.txt Node
Date: Mon Mar 13 13:43:50 IST 2017
User: aro
Spectrometer: QEPB0276
Trigger mode: 0
Integration Time (sec): 5.000000E0
Scans to average: 1
Electric dark correction enabled: true
Nonlinearity correction enabled: false
Boxcar width: 0
XAxis mode: Raman Shifts
Number of Pixels in Spectrum: 1044
>>>>>Begin Spectral Data<<<<<
160.701	-11.75
166.742	-4.75
172.777	34.25
178.805	156.25
184.826	430.25
190.841	906.25
196.849	1480.25
202.85	1816.25
208.845	1916.25
214.833	1843.25
220.815	1801.25
226.789	1749.25
232.758	1744.25
238.719	1702.25
244.674	1646.25
250.623	1607.25
256.565	1547.25
262.5	1504.25
268.429	1457.25
274.351	1410.25
280.267	1368.25
286.176	1336.25
292.079	1303.25
297.975	1268.25
303.865	1229.25
309.748	1210.25
315.625	1175.25
321.495	1160.25
327.359	1154.25
333.217	1132.25
339.068	1107.25
344.912	1104.25
350.751	1096.25
356.583	1096.25
362.408	1076.25
368.227	1076.25
374.04	1069.25
379.847	1070.25
385.647	1079.25
391.44	1069.25
397.228	1058.25
403.009	1077.25
408.784	1080.25
414.553	1078.25
420.315	1077.25
426.071	1069.25
431.821	1068.25
437.565	1076.25
443.302	1070.25
449.033	1063.25
454.758	1062.25
460.477	1050.25
466.189	1062.25
471.896	1046.25
477.596	1048.25
483.29	1034.25
488.978	1045.25
494.66	1040.25
500.335	1017.25
506.005	1010.25
511.668	996.25
517.325	978.25
522.977	975.25
528.622	965.25
534.261	953.25
539.894	957.25
545.521	947.25
551.141	947.25
556.756	950.25
562.365	945.25
567.968	926.25
573.565	930.25
579.155	924.25
584.74	926.25
590.319	926.25
595.892	908.25
601.459	899.25
607.02	912.25
612.575	897.25
618.124	881.25
623.667	884.25
629.204	879.25
634.735	875.25
640.261	875.25
645.781	861.25
651.294	862.25
656.802	854.25
662.304	874.25
667.8	861.25
673.29	851.25
678.775	862.25
684.254	875.25
689.726	861.25
695.193	853.25
700.655	841.25
706.11	851.25
711.56	838.25
717.004	830.25
722.442	822.25
727.874	822.25
733.301	840.25
738.722	827.25
744.137	823.25
749.547	832.25
754.951	830.25
760.349	817.25
765.741	827.25
771.128	821.25
776.509	840.25
781.885	832.25
787.254	823.25
792.618	824.25
797.977	832.25
803.33	804.25
808.677	813.25
814.019	800.25
819.355	792.25
824.686	786.25
830.011	792.25
835.33	795.25
840.644	796.25
845.952	805.25
851.255	799.25
856.552	787.25
861.844	794.25
867.13	806.25
872.41	792.25
877.686	794.25
882.955	801.25
888.219	792.25
893.478	771.25
898.731	761.25
903.979	737.25
909.221	748.25
914.458	746.25
919.69	747.25
924.916	743.25
930.136	746.25
935.351	747.25
940.561	751.25
945.766	740.25
950.965	742.25
956.158	753.25
961.347	738.25
966.529	722.25
971.707	730.25
976.879	705.25
982.046	708.25
987.208	704.25
992.364	711.25
997.515	722.25
1002.66	708.25
1007.801	719.25
1012.936	736.25
1018.066	742.25
1023.19	744.25
1028.309	747.25
1033.423	755.25
1038.532	746.25
1043.636	740.25
1048.734	725.25
1053.827	729.25
1058.915	725.25
1063.998	719.25
1069.075	713.25
1074.147	721.25
1079.214	729.25
1084.276	722.25
1089.333	740.25
1094.385	743.25
1099.431	746.25
1104.472	763.25
1109.509	724.25
1114.54	732.25
1119.565	726.25
1124.586	728.25
1129.602	718.25
1134.613	720.25
1139.618	714.25
1144.619	717.25
1149.614	714.25
1154.604	702.25
1159.589	732.25
1164.57	733.25
1169.545	733.25
1174.515	729.25
1179.48	734.25
1184.44	731.25
1189.395	727.25
1194.345	701.25
1199.29	718.25
1204.23	711.25
1209.165	714.25
1214.095	717.25
1219.021	733.25
1223.941	728.25
1228.856	749.25
1233.766	741.25
1238.672	752.25
1243.572	752.25
1248.467	748.25
1253.358	747.25
1258.244	713.25
1263.124	728.25
1268	700.25
1272.871	709.25
1277.737	713.25
1282.599	707.25
1287.455	695.25
1292.306	712.25
1297.153	715.25
1301.995	716.25
1306.832	725.25
1311.664	728.25
1316.491	723.25
1321.314	733.25
1326.132	717.25
1330.945	709.25
1335.753	694.25
1340.556	683.25
1345.354	666.25
1350.148	666.25
1354.937	655.25
1359.722	660.25
1364.501	686.25
1369.276	691.25
1374.046	695.25
1378.811	709.25
1383.572	694.25
1388.327	696.25
1393.079	687.25
1397.825	689.25
1402.567	666.25
1407.304	671.25
1412.036	657.25
1416.764	662.25
1421.487	663.25
1426.205	667.25
1430.919	665.25
1435.628	665.25
1440.333	664.25
1445.032	666.25
1449.727	679.25
1454.418	691.25
1459.104	686.25
1463.785	684.25
1468.462	670.25
1473.134	677.25
1477.802	664.25
1482.465	665.25
1487.123	657.25
1491.777	670.25
1496.426	678.25
1501.071	679.25
1505.711	691.25
1510.347	690.25
1514.978	701.25
1519.604	705.25
1524.226	712.25
1528.844	705.25
1533.457	713.25
1538.065	717.25
1542.669	703.25
1547.269	704.25
1551.864	701.25
1556.454	703.25
1561.041	703.25
1565.622	708.25
1570.199	712.25
1574.772	715.25
1579.34	715.25
1583.904	735.25
1588.464	732.25
1593.019	739.25
1597.569	740.25
1602.115	739.25
1606.657	744.25
1611.195	751.25
1615.728	746.25
1620.256	735.25
1624.78	757.25
1629.3	755.25
1633.816	757.25
1638.327	781.25
1642.834	776.25
1647.336	787.25
1651.834	806.25
1656.328	796.25
1660.817	791.25
1665.302	783.25
1669.783	778.25
1674.259	756.25
1678.732	737.25
1683.199	727.25
1687.663	705.25
1692.122	668.25
1696.577	662.25
1701.028	664.25
1705.474	660.25
1709.917	653.25
1714.355	643.25
1718.788	631.25
1723.218	634.25
1727.643	612.25
1732.064	611.25
1736.481	607.25
1740.893	590.25
1745.301	591.25
1749.705	563.25
1754.105	568.25
1758.501	546.25
1762.893	545.25
1767.28	534.25
1771.663	539.25
1776.042	539.25
1780.417	540.25
1784.787	546.25
1789.154	543.25
1793.516	552.25
1797.874	554.25
1802.228	558.25
1806.578	566.25
1810.924	568.25
1815.266	550.25
1819.603	546.25
1823.937	529.25
1828.266	526.25
1832.591	530.25
1836.913	527.25
1841.23	519.25
1845.543	503.25
1849.852	515.25
1854.156	516.25
1858.457	518.25
1862.754	514.25
1867.047	522.25
1871.335	524.25
1875.62	518.25
1879.9	522.25
1884.177	522.25
1888.449	520.25
1892.718	512.25
1896.982	512.25
1901.243	512.25
1905.499	513.25
1909.752	514.25
1914	520.25
1918.245	506.25
1922.485	513.25
1926.722	514.25
1930.954	522.25
1935.183	527.25
1939.408	524.25
1943.628	524.25
1947.845	526.25
1952.058	521.25
1956.267	524.25
1960.472	529.25
1964.673	513.25
1968.87	520.25
1973.063	503.25
1977.252	504.25
1981.438	505.25
1985.619	499.25
1989.797	497.25
1993.971	507.25
1998.14	506.25
2002.306	504.25
2006.469	506.25
2010.627	497.25
2014.781	495.25
2018.932	499.25
2023.078	499.25
2027.221	500.25
2031.36	488.25
2035.495	491.25
2039.627	473.25
2043.754	477.25
2047.878	479.25
2051.998	479.25
2056.114	472.25
2060.226	476.25
2064.334	474.25
2068.439	486.25
2072.54	482.25
2076.637	468.25
2080.73	486.25
2084.82	492.25
2088.906	498.25
2092.988	485.25
2097.066	495.25
2101.14	483.25
2105.211	495.25
2109.278	481.25
2113.342	471.25
2117.401	479.25
2121.457	470.25
2125.509	487.25
2129.558	473.25
2133.602	464.25
2137.643	474.25
2141.681	471.25
2145.714	461.25
2149.744	460.25
2153.77	459.25
2157.793	457.25
2161.812	450.25
2165.827	452.25
2169.838	439.25
2173.846	433.25
2177.851	443.25
2181.851	435.25
2185.848	425.25
2189.841	427.25
2193.831	420.25
2197.817	414.25
2201.799	419.25
2205.778	413.25
2209.753	417.25
2213.725	416.25
2217.693	412.25
2221.657	416.25
2225.618	422.25
2229.575	411.25
2233.529	410.25
2237.479	414.25
2241.425	405.25
2245.368	399.25
2249.307	398.25
2253.243	391.25
2257.175	390.25
2261.104	391.25
2265.029	387.25
2268.95	390.25
2272.868	375.25
2276.783	378.25
2280.694	376.25
2284.601	362.25
2288.505	371.25
2292.405	368.25
2296.302	359.25
2300.195	359.25
2304.085	354.25
2307.971	340.25
2311.854	345.25
2315.734	334.25
2319.609	327.25
2323.482	327.25
2327.351	329.25
2331.216	335.25
2335.078	325.25
2338.937	325.25
2342.792	314.25
2346.643	317.25
2350.492	322.25
2354.336	327.25
2358.178	317.25
2362.015	322.25
2365.85	321.25
2369.681	326.25
2373.508	321.25
2377.333	319.25
2381.153	314.25
2384.971	319.25
2388.785	315.25
2392.595	309.25
2396.402	307.25
2400.206	313.25
2404.007	312.25
2407.804	312.25
2411.597	307.25
2415.388	305.25
2419.174	310.25
2422.958	308.25
2426.738	308.25
2430.515	299.25
2434.289	305.25
2438.059	302.25
2441.825	301.25
2445.589	301.25
2449.349	295.25
2453.106	296.25
2456.859	300.25
2460.61	289.25
2464.356	284.25
2468.1	279.25
2471.84	285.25
2475.577	282.25
2479.311	288.25
2483.041	280.25
2486.768	283.25
2490.492	289.25
2494.213	280.25
2497.93	291.25
2501.644	288.25
2505.355	284.25
2509.062	285.25
2512.766	284.25
2516.467	280.25
2520.165	284.25
2523.859	281.25
2527.551	281.25
2531.239	265.25
2534.923	278.25
2538.605	271.25
2542.283	266.25
2545.958	267.25
2549.63	262.25
2553.299	265.25
2556.964	271.25
2560.626	268.25
2564.285	265.25
2567.941	262.25
2571.594	265.25
2575.243	269.25
2578.89	267.25
2582.533	257.25
2586.173	256.25
2589.809	251.25
2593.443	255.25
2597.073	263.25
2600.701	256.25
2604.325	243.25
2607.946	257.25
2611.564	252.25
2615.178	254.25
2618.79	245.25
2622.398	248.25
2626.004	246.25
2629.606	244.25
2633.205	245.25
2636.801	233.25
2640.394	235.25
2643.983	232.25
2647.57	234.25
2651.153	232.25
2654.734	231.25
2658.311	225.25
2661.885	222.25
2665.456	222.25
2669.025	221.25
2672.589	218.25
2676.151	214.25
2679.71	213.25
2683.266	209.25
2686.819	211.25
2690.368	206.25
2693.915	201.25
2697.458	199.25
2700.999	202.25
2704.536	199.25
2708.071	199.25
2711.602	194.25
2715.13	199.25
2718.656	195.25
2722.178	192.25
2725.697	197.25
2729.214	194.25
2732.727	192.25
2736.237	188.25
2739.744	192.25
2743.249	197.25
2746.75	195.25
2750.248	192.25
2753.743	190.25
2757.236	181.25
2760.725	192.25
2764.211	192.25
2767.695	190.25
2771.175	185.25
2774.652	196.25
2778.127	189.25
2781.598	186.25
2785.067	188.25
2788.532	189.25
2791.995	182.25
2795.455	182.25
2798.911	188.25
2802.365	193.25
2805.816	184.25
2809.264	188.25
2812.709	186.25
2816.151	178.25
2819.59	176.25
2823.026	181.25
2826.46	187.25
2829.89	179.25
2833.318	177.25
2836.742	176.25
2840.164	170.25
2843.583	178.25
2846.999	175.25
2850.412	177.25
2853.822	176.25
2857.229	183.25
2860.634	185.25
2864.035	185.25
2867.434	177.25
2870.83	182.25
2874.223	184.25
2877.613	185.25
2881	186.25
2884.385	180.25
2887.766	181.25
2891.145	175.25
2894.521	172.25
2897.894	181.25
2901.264	173.25
2904.631	178.25
2907.996	177.25
2911.358	175.25
2914.717	179.25
2918.073	183.25
2921.426	180.25
2924.777	178.25
2928.124	181.25
2931.469	182.25
2934.811	187.25
2938.15	183.25
2941.487	183.25
2944.821	189.25
2948.152	187.25
2951.48	186.25
2954.805	188.25
2958.128	197.25
2961.447	183.25
2964.765	185.25
2968.079	194.25
2971.39	195.25
2974.699	197.25
2978.005	191.25
2981.308	205.25
2984.609	207.25
2987.907	207.25
2991.202	211.25
2994.494	212.25
2997.784	216.25
3001.07	223.25
3004.355	230.25
3007.636	235.25
3010.915	230.25
3014.191	233.25
3017.464	234.25
3020.734	241.25
3024.002	235.25
3027.267	237.25
3030.53	241.25
3033.789	247.25
3037.046	242.25
3040.301	239.25
3043.552	242.25
3046.801	257.25
3050.048	252.25
3053.291	263.25
3056.532	272.25
3059.771	272.25
3063.006	280.25
3066.239	293.25
3069.469	298.25
3072.697	301.25
3075.922	307.25
3079.144	324.25
3082.364	324.25
3085.581	326.25
3088.795	337.25
3092.007	334.25
3095.216	340.25
3098.423	346.25
3101.627	353.25
3104.828	368.25
3108.026	370.25
3111.222	367.25
3114.416	374.25
3117.607	382.25
3120.795	396.25
3123.98	402.25
3127.163	402.25
3130.344	412.25
3133.521	428.25
3136.696	427.25
3139.869	433.25
3143.039	441.25
3146.206	456.25
3149.371	452.25
3152.533	457.25
3155.693	456.25
3158.85	469.25
3162.005	466.25
3165.157	471.25
3168.306	464.25
3171.453	458.25
3174.597	468.25
3177.739	464.25
3180.878	470.25
3184.014	462.25
3187.149	460.25
3190.28	475.25
3193.409	464.25
3196.536	467.25
3199.659	474.25
3202.781	462.25
3205.9	467.25
3209.016	470.25
3212.13	478.25
3215.241	466.25
3218.35	464.25
3221.456	469.25
3224.56	463.25
3227.661	453.25
3230.76	449.25
3233.856	440.25
3236.95	444.25
3240.041	440.25
3243.13	428.25
3246.216	439.25
3249.3	429.25
3252.382	420.25
3255.46	425.25
3258.537	423.25
3261.611	420.25
3264.682	425.25
3267.751	414.25
3270.818	416.25
3273.882	419.25
3276.943	411.25
3280.002	411.25
3283.059	412.25
3286.113	401.25
3289.165	406.25
3292.214	388.25
3295.261	377.25
3298.306	380.25
3301.348	366.25
3304.387	366.25
3307.425	361.25
3310.459	353.25
3313.492	351.25
3316.521	354.25
3319.549	337.25
3322.574	343.25
3325.597	337.25
3328.617	330.25
3331.635	334.25
3334.65	327.25
3337.663	332.25
3340.674	325.25
3343.682	326.25
3346.688	327.25
3349.691	327.25
3352.692	322.25
3355.691	327.25
3358.687	314.25
3361.681	315.25
3364.673	309.25
3367.662	302.25
3370.649	301.25
3373.633	288.25
3376.615	300.25
3379.595	284.25
3382.572	284.25
3385.547	281.25
3388.52	270.25
3391.49	273.25
3394.458	271.25
3397.424	261.25
3400.387	259.25
3403.348	256.25
3406.307	255.25
3409.263	254.25
3412.217	251.25
3415.168	245.25
3418.118	249.25
3421.065	246.25
3424.009	239.25
3426.951	234.25
3429.891	239.25
3432.829	220.25
3435.764	222.25
3438.697	219.25
3441.628	213.25
3444.557	205.25
3447.483	193.25
3450.407	195.25
3453.328	190.25
3456.247	180.25
3459.164	177.25
3462.079	177.25
3464.991	165.25
3467.902	167.25
3470.809	161.25
3473.715	158.25
3476.618	154.25
3479.519	151.25
3482.418	147.25
3485.315	142.25
3488.209	137.25
3491.101	135.25
3493.99	133.25
3496.878	131.25
3499.763	128.25
3502.646	124.25
3505.527	114.25
3508.405	108.25
3511.281	107.25
3514.155	105.25
3517.027	96.25
3519.897	98.25
3522.764	86.25
3525.629	76.25
3528.492	77.25
3531.352	76.25
3534.211	71.25
3537.067	65.25
3539.921	62.25
3542.773	54.25
3545.622	53.25
3548.469	47.25
3551.315	48.25
3554.157	49.25
3556.998	50.25
3559.837	44.25
3562.673	47.25
3565.507	37.25
3568.339	43.25
3571.169	36.25
3573.996	32.25
3576.822	27.25
3579.645	28.25
3582.466	23.25
3585.285	21.25
3588.101	20.25
3590.916	20.25
3593.728	14.25
3596.538	11.25
3599.346	11.25
3602.152	13.25
3604.956	13.25
3607.757	6.25
3610.556	3.25
3613.354	6.25
3616.149	5.25
3618.942	1.25
3621.732	-2.75
3624.521	2.25
3627.307	-6.75
3630.092	-3.75
3632.874	-6.75
3635.654	-5.75
3638.432	-11.75
3641.208	-9.75
3643.982	-11.75
3646.753	-8.75
3649.523	-15.75
3652.29	-11.75
3655.055	-11.75
3657.818	-12.75
3660.579	-13.75
3663.338	-13.75
3666.095	-16.75
3668.849	-10.75
3671.602	-17.75
3674.352	-15.75
3677.101	-19.75
3679.847	-23.75
3682.591	-20.75
3685.333	-22.75
3688.073	-22.75
3690.811	-20.75
3693.547	-25.75
3696.281	-22.75
3699.013	-31.75
3701.742	-31.75
3704.47	-30.75
3707.195	-26.75
3709.919	-29.75
3712.64	-28.75
3715.359	-28.75
3718.076	-32.75
3720.792	-29.75
3723.505	-29.75
3726.216	-28.75
3728.925	-25.75
3731.632	-28.75
3734.336	-24.75
3737.039	-28.75
3739.74	-28.75
3742.439	-33.75
3745.136	-32.75
3747.83	-27.75
3750.523	-33.75
3753.213	-36.75
3755.902	-33.75
3758.589	-28.75
3761.273	-31.75
3763.956	-31.75
3766.636	-34.75
3769.315	-33.75
3771.991	-31.75
3774.665	-35.75
3777.338	-34.75
3780.008	-29.75
3782.677	-33.75
3785.343	-34.75
3788.007	-33.75
3790.67	-36.75
3793.33	-36.75
3795.989	-32.75
3798.645	-36.75
3801.299	-37.75
3803.952	-34.75
3806.602	-41.75
3809.251	-33.75
3811.897	-39.75
3814.542	-32.75
3817.184	-38.75
3819.825	-40.75
3822.463	-37.75
3825.1	-31.75
3827.735	-34.75
3830.367	-35.75
3832.998	-31.75
3835.627	-33.75
3838.253	-31.75
3840.878	-34.75
3843.501	-33.75
3846.122	-31.75
3848.741	-35.75
3851.358	-37.75
3853.973	-36.75
3856.586	-37.75
3859.197	-38.75
3861.806	-40.75
3864.414	-39.75
3867.019	-41.75
3869.622	-36.75
3872.224	-38.75
3874.823	-39.75
3877.421	-34.75
3880.016	-36.75
3882.61	-34.75
3885.202	-34.75
3887.792	-33.75
3890.38	-36.75
3892.966	-37.75
3895.55	-39.75
3898.132	-39.75
3900.713	-36.75
3903.291	-34.75
3905.868	-39.75
3908.442	-38.75
3911.015	-40.75
3913.586	-38.75
3916.155	-41.75
3918.722	-41.75
3921.287	-38.75
3923.85	-37.75
3926.411	-38.75
3928.971	-35.75
3931.528	-40.75
3934.084	-40.75
3936.638	-39.75
3939.19	-37.75
3941.74	-40.75
3944.288	-42.75
3946.834	-42.75
3949.378	-41.75
3951.921	-40.75
3954.462	-40.75
3957	-43.75
3959.537	-39.75
3962.072	-41.75
3964.606	-38.75
3967.137	-41.75
3969.667	-39.75
3972.194	-41.75
3974.72	-36.75
3977.244	-37.75
3979.766	-37.75
3982.286	-36.75
3984.805	-37.75
3987.321	-37.75
3989.836	-35.75
3992.349	-38.75
3994.86	-34.75
3997.369	-32.75
3999.877	-37.75
4002.382	-38.75
4004.886	-39.75
4007.388	-41.75
4009.888	-37.75
4012.386	-38.75
4014.883	-44.75
4017.377	-43.75
4019.87	-37.75
4022.361	-39.75
4024.85	-41.75
4027.338	-36.75
4029.823	-34.75
4032.307	-38.75
4034.789	-37.75
4037.269	-39.75
4039.747	-41.75
4042.224	-34.75
4044.699	-37.75
4047.172	-36.75
4049.643	-40.75
4052.112	-36.75
4054.58	-38.75
4057.046	-38.75
4059.51	-37.75
4061.972	-40.75
4064.432	-41.75
4066.891	-40.75
4069.348	-41.75
4071.803	-44.75
4074.256	-39.75
4076.708	-39.75
4079.158	-39.75
4081.606	-40.75
4084.052	-38.75
4086.497	-38.75
4088.939	-37.75
4091.38	-39.75
4093.819	-37.75
4096.257	-39.75
4098.693	-38.75
4101.127	-41.75
4103.559	-41.75
4105.989	-28.75
4108.418	-26.75
4110.845	-22.75
4113.27	-16.75
4115.694	-21.75
4118.115	-18.75
4120.535	-37.75
4122.954	-38.75
4125.37	-39.75
4127.785	-38.75
4130.198	-39.75
4132.609	-43.75
4135.019	-44.75
4137.427	-42.75
4139.833	-41.75
4142.237	-44.75
