Data from I0.75_T15s_Bsub_water_0_2_RamanShift_1.txt Node
Date: Mon Mar 13 15:44:52 IST 2017
User: aro
Spectrometer: QEPB0276
Trigger mode: 0
Integration Time (sec): 1.500000E1
Scans to average: 1
Electric dark correction enabled: true
Nonlinearity correction enabled: false
Boxcar width: 0
XAxis mode: Raman Shifts
Number of Pixels in Spectrum: 1044
>>>>>Begin Spectral Data<<<<<
160.701	-76.5
166.742	9.5
172.777	254.5
178.805	1068.5
184.826	3128.5
190.841	6735.5
196.849	10813.5
202.85	13526.5
208.845	14259.5
214.833	13863.5
220.815	13471.5
226.789	13241.5
232.758	13015.5
238.719	12833.5
244.674	12540.5
250.623	12188.5
256.565	11748.5
262.5	11376.5
268.429	11085.5
274.351	10780.5
280.267	10519.5
286.176	10296.5
292.079	10029.5
297.975	9794.5
303.865	9581.5
309.748	9381.5
315.625	9157.5
321.495	9013.5
327.359	8880.5
333.217	8775.5
339.068	8653.5
344.912	8570.5
350.751	8486.5
356.583	8450.5
362.408	8396.5
368.227	8327.5
374.04	8331.5
379.847	8317.5
385.647	8299.5
391.44	8308.5
397.228	8313.5
403.009	8355.5
408.784	8362.5
414.553	8372.5
420.315	8387.5
426.071	8399.5
431.821	8339.5
437.565	8361.5
443.302	8334.5
449.033	8258.5
454.758	8299.5
460.477	8249.5
466.189	8241.5
471.896	8203.5
477.596	8164.5
483.29	8111.5
488.978	8081.5
494.66	8060.5
500.335	7990.5
506.005	7883.5
511.668	7782.5
517.325	7687.5
522.977	7589.5
528.622	7589.5
534.261	7497.5
539.894	7478.5
545.521	7427.5
551.141	7416.5
556.756	7417.5
562.365	7367.5
567.968	7362.5
573.565	7327.5
579.155	7312.5
584.74	7271.5
590.319	7265.5
595.892	7211.5
601.459	7202.5
607.02	7164.5
612.575	7090.5
618.124	7058.5
623.667	6999.5
629.204	6966.5
634.735	6939.5
640.261	6909.5
645.781	6895.5
651.294	6867.5
656.802	6838.5
662.304	6853.5
667.8	6837.5
673.29	6834.5
678.775	6786.5
684.254	6784.5
689.726	6768.5
695.193	6760.5
700.655	6733.5
706.11	6721.5
711.56	6664.5
717.004	6671.5
722.442	6680.5
727.874	6644.5
733.301	6608.5
738.722	6576.5
744.137	6604.5
749.547	6577.5
754.951	6578.5
760.349	6612.5
765.741	6582.5
771.128	6625.5
776.509	6638.5
781.885	6649.5
787.254	6619.5
792.618	6634.5
797.977	6611.5
803.33	6559.5
808.677	6542.5
814.019	6485.5
819.355	6490.5
824.686	6430.5
830.011	6439.5
835.33	6408.5
840.644	6384.5
845.952	6416.5
851.255	6428.5
856.552	6432.5
861.844	6454.5
867.13	6422.5
872.41	6448.5
877.686	6416.5
882.955	6363.5
888.219	6307.5
893.478	6258.5
898.731	6184.5
903.979	6103.5
909.221	6086.5
914.458	6044.5
919.69	6061.5
924.916	6086.5
930.136	6117.5
935.351	6115.5
940.561	6132.5
945.766	6146.5
950.965	6140.5
956.158	6108.5
961.347	6039.5
966.529	5988.5
971.707	5930.5
976.879	5874.5
982.046	5824.5
987.208	5822.5
992.364	5829.5
997.515	5870.5
1002.66	5911.5
1007.801	5975.5
1012.936	6032.5
1018.066	6095.5
1023.19	6106.5
1028.309	6152.5
1033.423	6167.5
1038.532	6100.5
1043.636	6101.5
1048.734	6040.5
1053.827	6002.5
1058.915	5927.5
1063.998	5934.5
1069.075	5913.5
1074.147	5940.5
1079.214	5977.5
1084.276	6027.5
1089.333	6092.5
1094.385	6118.5
1099.431	6199.5
1104.472	6181.5
1109.509	6153.5
1114.54	6126.5
1119.565	6056.5
1124.586	6005.5
1129.602	5933.5
1134.613	5907.5
1139.618	5945.5
1144.619	5923.5
1149.614	5963.5
1154.604	5975.5
1159.589	6006.5
1164.57	6046.5
1169.545	6078.5
1174.515	6076.5
1179.48	6037.5
1184.44	6032.5
1189.395	6012.5
1194.345	5936.5
1199.29	5939.5
1204.23	5957.5
1209.165	5962.5
1214.095	6027.5
1219.021	6087.5
1223.941	6155.5
1228.856	6219.5
1233.766	6218.5
1238.672	6209.5
1243.572	6233.5
1248.467	6189.5
1253.358	6137.5
1258.244	6061.5
1263.124	5967.5
1268	5904.5
1272.871	5852.5
1277.737	5839.5
1282.599	5844.5
1287.455	5849.5
1292.306	5898.5
1297.153	5924.5
1301.995	6001.5
1306.832	6009.5
1311.664	6041.5
1316.491	6073.5
1321.314	6051.5
1326.132	5986.5
1330.945	5947.5
1335.753	5825.5
1340.556	5724.5
1345.354	5651.5
1350.148	5586.5
1354.937	5577.5
1359.722	5626.5
1364.501	5683.5
1369.276	5739.5
1374.046	5835.5
1378.811	5840.5
1383.572	5827.5
1388.327	5788.5
1393.079	5731.5
1397.825	5705.5
1402.567	5605.5
1407.304	5568.5
1412.036	5467.5
1416.764	5484.5
1421.487	5497.5
1426.205	5502.5
1430.919	5575.5
1435.628	5625.5
1440.333	5661.5
1445.032	5691.5
1449.727	5733.5
1454.418	5736.5
1459.104	5708.5
1463.785	5714.5
1468.462	5659.5
1473.134	5576.5
1477.802	5566.5
1482.465	5551.5
1487.123	5538.5
1491.777	5544.5
1496.426	5620.5
1501.071	5659.5
1505.711	5712.5
1510.347	5765.5
1514.978	5827.5
1519.604	5889.5
1524.226	5942.5
1528.844	5953.5
1533.457	5923.5
1538.065	5921.5
1542.669	5939.5
1547.269	5887.5
1551.864	5896.5
1556.454	5884.5
1561.041	5896.5
1565.622	5898.5
1570.199	5946.5
1574.772	5975.5
1579.34	6034.5
1583.904	6080.5
1588.464	6129.5
1593.019	6151.5
1597.569	6138.5
1602.115	6181.5
1606.657	6145.5
1611.195	6157.5
1615.728	6164.5
1620.256	6139.5
1624.78	6192.5
1629.3	6218.5
1633.816	6257.5
1638.327	6374.5
1642.834	6378.5
1647.336	6483.5
1651.834	6515.5
1656.328	6539.5
1660.817	6521.5
1665.302	6461.5
1669.783	6398.5
1674.259	6299.5
1678.732	6164.5
1683.199	6001.5
1687.663	5838.5
1692.122	5681.5
1696.577	5600.5
1701.028	5549.5
1705.474	5552.5
1709.917	5492.5
1714.355	5437.5
1718.788	5359.5
1723.218	5305.5
1727.643	5259.5
1732.064	5179.5
1736.481	5128.5
1740.893	5034.5
1745.301	4933.5
1749.705	4839.5
1754.105	4759.5
1758.501	4676.5
1762.893	4642.5
1767.28	4560.5
1771.663	4560.5
1776.042	4543.5
1780.417	4551.5
1784.787	4603.5
1789.154	4666.5
1793.516	4716.5
1797.874	4725.5
1802.228	4786.5
1806.578	4812.5
1810.924	4774.5
1815.266	4725.5
1819.603	4656.5
1823.937	4623.5
1828.266	4543.5
1832.591	4494.5
1836.913	4480.5
1841.23	4446.5
1845.543	4452.5
1849.852	4414.5
1854.156	4437.5
1858.457	4430.5
1862.754	4450.5
1867.047	4473.5
1871.335	4498.5
1875.62	4496.5
1879.9	4521.5
1884.177	4479.5
1888.449	4494.5
1892.718	4464.5
1896.982	4450.5
1901.243	4420.5
1905.499	4421.5
1909.752	4430.5
1914	4437.5
1918.245	4456.5
1922.485	4489.5
1926.722	4467.5
1930.954	4471.5
1935.183	4515.5
1939.408	4530.5
1943.628	4559.5
1947.845	4546.5
1952.058	4589.5
1956.267	4574.5
1960.472	4530.5
1964.673	4489.5
1968.87	4426.5
1973.063	4401.5
1977.252	4367.5
1981.438	4356.5
1985.619	4327.5
1989.797	4297.5
1993.971	4292.5
1998.14	4327.5
2002.306	4278.5
2006.469	4303.5
2010.627	4345.5
2014.781	4322.5
2018.932	4308.5
2023.078	4272.5
2027.221	4264.5
2031.36	4215.5
2035.495	4170.5
2039.627	4159.5
2043.754	4123.5
2047.878	4102.5
2051.998	4111.5
2056.114	4122.5
2060.226	4111.5
2064.334	4133.5
2068.439	4151.5
2072.54	4172.5
2076.637	4187.5
2080.73	4197.5
2084.82	4220.5
2088.906	4213.5
2092.988	4218.5
2097.066	4164.5
2101.14	4164.5
2105.211	4152.5
2109.278	4135.5
2113.342	4129.5
2117.401	4105.5
2121.457	4114.5
2125.509	4082.5
2129.558	4068.5
2133.602	4057.5
2137.643	4041.5
2141.681	4032.5
2145.714	4023.5
2149.744	4008.5
2153.77	3998.5
2157.793	3976.5
2161.812	3939.5
2165.827	3900.5
2169.838	3844.5
2173.846	3807.5
2177.851	3748.5
2181.851	3719.5
2185.848	3677.5
2189.841	3666.5
2193.831	3649.5
2197.817	3596.5
2201.799	3597.5
2205.778	3597.5
2209.753	3609.5
2213.725	3611.5
2217.693	3607.5
2221.657	3605.5
2225.618	3597.5
2229.575	3613.5
2233.529	3601.5
2237.479	3594.5
2241.425	3526.5
2245.368	3529.5
2249.307	3508.5
2253.243	3428.5
2257.175	3417.5
2261.104	3364.5
2265.029	3357.5
2268.95	3329.5
2272.868	3282.5
2276.783	3257.5
2280.694	3243.5
2284.601	3228.5
2288.505	3197.5
2292.405	3166.5
2296.302	3156.5
2300.195	3123.5
2304.085	3059.5
2307.971	3041.5
2311.854	3005.5
2315.734	2947.5
2319.609	2943.5
2323.482	2887.5
2327.351	2829.5
2331.216	2850.5
2335.078	2841.5
2338.937	2801.5
2342.792	2815.5
2346.643	2793.5
2350.492	2791.5
2354.336	2811.5
2358.178	2812.5
2362.015	2784.5
2365.85	2810.5
2369.681	2794.5
2373.508	2794.5
2377.333	2811.5
2381.153	2810.5
2384.971	2793.5
2388.785	2792.5
2392.595	2785.5
2396.402	2734.5
2400.206	2734.5
2404.007	2712.5
2407.804	2732.5
2411.597	2704.5
2415.388	2694.5
2419.174	2711.5
2422.958	2679.5
2426.738	2696.5
2430.515	2671.5
2434.289	2669.5
2438.059	2645.5
2441.825	2631.5
2445.589	2625.5
2449.349	2634.5
2453.106	2590.5
2456.859	2597.5
2460.61	2564.5
2464.356	2529.5
2468.1	2525.5
2471.84	2510.5
2475.577	2513.5
2479.311	2523.5
2483.041	2492.5
2486.768	2509.5
2490.492	2510.5
2494.213	2530.5
2497.93	2517.5
2501.644	2519.5
2505.355	2511.5
2509.062	2514.5
2512.766	2503.5
2516.467	2496.5
2520.165	2502.5
2523.859	2465.5
2527.551	2430.5
2531.239	2446.5
2534.923	2418.5
2538.605	2400.5
2542.283	2384.5
2545.958	2386.5
2549.63	2381.5
2553.299	2375.5
2556.964	2348.5
2560.626	2366.5
2564.285	2331.5
2567.941	2303.5
2571.594	2302.5
2575.243	2297.5
2578.89	2285.5
2582.533	2284.5
2586.173	2240.5
2589.809	2258.5
2593.443	2235.5
2597.073	2233.5
2600.701	2224.5
2604.325	2209.5
2607.946	2186.5
2611.564	2191.5
2615.178	2204.5
2618.79	2188.5
2622.398	2203.5
2626.004	2177.5
2629.606	2159.5
2633.205	2137.5
2636.801	2125.5
2640.394	2088.5
2643.983	2069.5
2647.57	2050.5
2651.153	2031.5
2654.734	2031.5
2658.311	2011.5
2661.885	1969.5
2665.456	1974.5
2669.025	1942.5
2672.589	1933.5
2676.151	1937.5
2679.71	1918.5
2683.266	1884.5
2686.819	1877.5
2690.368	1838.5
2693.915	1821.5
2697.458	1804.5
2700.999	1789.5
2704.536	1750.5
2708.071	1753.5
2711.602	1745.5
2715.13	1717.5
2718.656	1712.5
2722.178	1696.5
2725.697	1692.5
2729.214	1705.5
2732.727	1716.5
2736.237	1712.5
2739.744	1708.5
2743.249	1716.5
2746.75	1717.5
2750.248	1714.5
2753.743	1715.5
2757.236	1715.5
2760.725	1717.5
2764.211	1719.5
2767.695	1699.5
2771.175	1695.5
2774.652	1691.5
2778.127	1673.5
2781.598	1654.5
2785.067	1633.5
2788.532	1639.5
2791.995	1631.5
2795.455	1621.5
2798.911	1628.5
2802.365	1639.5
2805.816	1615.5
2809.264	1616.5
2812.709	1604.5
2816.151	1579.5
2819.59	1577.5
2823.026	1570.5
2826.46	1547.5
2829.89	1568.5
2833.318	1538.5
2836.742	1546.5
2840.164	1523.5
2843.583	1537.5
2846.999	1537.5
2850.412	1536.5
2853.822	1535.5
2857.229	1549.5
2860.634	1554.5
2864.035	1552.5
2867.434	1568.5
2870.83	1555.5
2874.223	1569.5
2877.613	1566.5
2881	1557.5
2884.385	1553.5
2887.766	1541.5
2891.145	1539.5
2894.521	1531.5
2897.894	1517.5
2901.264	1514.5
2904.631	1493.5
2907.996	1486.5
2911.358	1501.5
2914.717	1511.5
2918.073	1503.5
2921.426	1499.5
2924.777	1507.5
2928.124	1500.5
2931.469	1527.5
2934.811	1521.5
2938.15	1522.5
2941.487	1536.5
2944.821	1522.5
2948.152	1556.5
2951.48	1540.5
2954.805	1534.5
2958.128	1543.5
2961.447	1533.5
2964.765	1542.5
2968.079	1547.5
2971.39	1573.5
2974.699	1578.5
2978.005	1589.5
2981.308	1612.5
2984.609	1645.5
2987.907	1651.5
2991.202	1700.5
2994.494	1692.5
2997.784	1730.5
3001.07	1765.5
3004.355	1786.5
3007.636	1826.5
3010.915	1831.5
3014.191	1853.5
3017.464	1844.5
3020.734	1853.5
3024.002	1859.5
3027.267	1866.5
3030.53	1877.5
3033.789	1905.5
3037.046	1912.5
3040.301	1905.5
3043.552	1952.5
3046.801	1982.5
3050.048	1990.5
3053.291	2037.5
3056.532	2069.5
3059.771	2111.5
3063.006	2144.5
3066.239	2195.5
3069.469	2250.5
3072.697	2277.5
3075.922	2340.5
3079.144	2378.5
3082.364	2415.5
3085.581	2453.5
3088.795	2470.5
3092.007	2488.5
3095.216	2557.5
3098.423	2600.5
3101.627	2629.5
3104.828	2690.5
3108.026	2722.5
3111.222	2750.5
3114.416	2790.5
3117.607	2838.5
3120.795	2883.5
3123.98	2967.5
3127.163	2997.5
3130.344	3037.5
3133.521	3124.5
3136.696	3171.5
3139.869	3185.5
3143.039	3254.5
3146.206	3278.5
3149.371	3329.5
3152.533	3338.5
3155.693	3345.5
3158.85	3344.5
3162.005	3377.5
3165.157	3365.5
3168.306	3411.5
3171.453	3385.5
3174.597	3411.5
3177.739	3382.5
3180.878	3404.5
3184.014	3393.5
3187.149	3399.5
3190.28	3408.5
3193.409	3414.5
3196.536	3413.5
3199.659	3442.5
3202.781	3432.5
3205.9	3442.5
3209.016	3458.5
3212.13	3431.5
3215.241	3426.5
3218.35	3395.5
3221.456	3370.5
3224.56	3356.5
3227.661	3303.5
3230.76	3273.5
3233.856	3239.5
3236.95	3217.5
3240.041	3185.5
3243.13	3174.5
3246.216	3163.5
3249.3	3133.5
3252.382	3120.5
3255.46	3097.5
3258.537	3084.5
3261.611	3075.5
3264.682	3073.5
3267.751	3067.5
3270.818	3049.5
3273.882	3048.5
3276.943	3028.5
3280.002	2997.5
3283.059	2968.5
3286.113	2924.5
3289.165	2888.5
3292.214	2851.5
3295.261	2808.5
3298.306	2758.5
3301.348	2710.5
3304.387	2669.5
3307.425	2631.5
3310.459	2596.5
3313.492	2576.5
3316.521	2513.5
3319.549	2486.5
3322.574	2448.5
3325.597	2457.5
3328.617	2426.5
3331.635	2402.5
3334.65	2396.5
3337.663	2398.5
3340.674	2377.5
3343.682	2355.5
3346.688	2348.5
3349.691	2334.5
3352.692	2319.5
3355.691	2287.5
3358.687	2267.5
3361.681	2264.5
3364.673	2249.5
3367.662	2196.5
3370.649	2166.5
3373.633	2156.5
3376.615	2114.5
3379.595	2092.5
3382.572	2048.5
3385.547	2045.5
3388.52	2005.5
3391.49	1986.5
3394.458	1939.5
3397.424	1932.5
3400.387	1912.5
3403.348	1888.5
3406.307	1846.5
3409.263	1865.5
3412.217	1829.5
3415.168	1793.5
3418.118	1794.5
3421.065	1783.5
3424.009	1744.5
3426.951	1728.5
3429.891	1721.5
3432.829	1682.5
3435.764	1629.5
3438.697	1604.5
3441.628	1557.5
3444.557	1528.5
3447.483	1493.5
3450.407	1457.5
3453.328	1406.5
3456.247	1370.5
3459.164	1336.5
3462.079	1308.5
3464.991	1256.5
3467.902	1233.5
3470.809	1170.5
3473.715	1153.5
3476.618	1117.5
3479.519	1075.5
3482.418	1056.5
3485.315	1034.5
3488.209	1010.5
3491.101	987.5
3493.99	949.5
3496.878	921.5
3499.763	902.5
3502.646	889.5
3505.527	838.5
3508.405	825.5
3511.281	793.5
3514.155	773.5
3517.027	729.5
3519.897	702.5
3522.764	658.5
3525.629	635.5
3528.492	604.5
3531.352	556.5
3534.211	541.5
3537.067	507.5
3539.921	470.5
3542.773	450.5
3545.622	420.5
3548.469	399.5
3551.315	386.5
3554.157	363.5
3556.998	336.5
3559.837	317.5
3562.673	304.5
3565.507	294.5
3568.339	271.5
3571.169	246.5
3573.996	240.5
3576.822	220.5
3579.645	204.5
3582.466	182.5
3585.285	178.5
3588.101	155.5
3590.916	143.5
3593.728	127.5
3596.538	115.5
3599.346	90.5
3602.152	79.5
3604.956	71.5
3607.757	61.5
3610.556	45.5
3613.354	34.5
3616.149	29.5
3618.942	11.5
3621.732	2.5
3624.521	1.5
3627.307	-11.5
3630.092	-24.5
3632.874	-23.5
3635.654	-29.5
3638.432	-48.5
3641.208	-48.5
3643.982	-50.5
3646.753	-63.5
3649.523	-80.5
3652.29	-83.5
3655.055	-87.5
3657.818	-92.5
3660.579	-111.5
3663.338	-120.5
3666.095	-107.5
3668.849	-124.5
3671.602	-139.5
3674.352	-140.5
3677.101	-147.5
3679.847	-156.5
3682.591	-153.5
3685.333	-163.5
3688.073	-165.5
3690.811	-166.5
3693.547	-179.5
3696.281	-180.5
3699.013	-180.5
3701.742	-184.5
3704.47	-189.5
3707.195	-193.5
3709.919	-190.5
3712.64	-201.5
3715.359	-204.5
3718.076	-209.5
3720.792	-205.5
3723.505	-211.5
3726.216	-219.5
3728.925	-218.5
3731.632	-212.5
3734.336	-225.5
3737.039	-222.5
3739.74	-228.5
3742.439	-230.5
3745.136	-229.5
3747.83	-235.5
3750.523	-232.5
3753.213	-229.5
3755.902	-237.5
3758.589	-235.5
3761.273	-237.5
3763.956	-247.5
3766.636	-240.5
3769.315	-250.5
3771.991	-253.5
3774.665	-244.5
3777.338	-252.5
3780.008	-248.5
3782.677	-256.5
3785.343	-249.5
3788.007	-254.5
3790.67	-259.5
3793.33	-253.5
3795.989	-254.5
3798.645	-255.5
3801.299	-258.5
3803.952	-256.5
3806.602	-261.5
3809.251	-260.5
3811.897	-263.5
3814.542	-265.5
3817.184	-265.5
3819.825	-267.5
3822.463	-273.5
3825.1	-270.5
3827.735	-272.5
3830.367	-274.5
3832.998	-278.5
3835.627	-270.5
3838.253	-274.5
3840.878	-275.5
3843.501	-280.5
3846.122	-281.5
3848.741	-283.5
3851.358	-279.5
3853.973	-277.5
3856.586	-281.5
3859.197	-278.5
3861.806	-287.5
3864.414	-285.5
3867.019	-286.5
3869.622	-283.5
3872.224	-282.5
3874.823	-281.5
3877.421	-280.5
3880.016	-271.5
3882.61	-264.5
3885.202	-263.5
3887.792	-267.5
3890.38	-280.5
3892.966	-281.5
3895.55	-286.5
3898.132	-286.5
3900.713	-288.5
3903.291	-287.5
3905.868	-291.5
3908.442	-289.5
3911.015	-290.5
3913.586	-297.5
3916.155	-294.5
3918.722	-295.5
3921.287	-288.5
3923.85	-294.5
3926.411	-296.5
3928.971	-299.5
3931.528	-292.5
3934.084	-296.5
3936.638	-297.5
3939.19	-297.5
3941.74	-301.5
3944.288	-301.5
3946.834	-303.5
3949.378	-298.5
3951.921	-304.5
3954.462	-302.5
3957	-303.5
3959.537	-304.5
3962.072	-295.5
3964.606	-298.5
3967.137	-302.5
3969.667	-299.5
3972.194	-299.5
3974.72	-303.5
3977.244	-296.5
3979.766	-299.5
3982.286	-299.5
3984.805	-294.5
3987.321	-294.5
3989.836	-297.5
3992.349	-294.5
3994.86	-292.5
3997.369	-297.5
3999.877	-292.5
4002.382	-296.5
4004.886	-291.5
4007.388	-296.5
4009.888	-291.5
4012.386	-287.5
4014.883	-297.5
4017.377	-294.5
4019.87	-294.5
4022.361	-291.5
4024.85	-286.5
4027.338	-294.5
4029.823	-295.5
4032.307	-292.5
4034.789	-297.5
4037.269	-296.5
4039.747	-292.5
4042.224	-298.5
4044.699	-294.5
4047.172	-297.5
4049.643	-298.5
4052.112	-295.5
4054.58	-296.5
4057.046	-294.5
4059.51	-300.5
4061.972	-304.5
4064.432	-302.5
4066.891	-302.5
4069.348	-302.5
4071.803	-297.5
4074.256	-300.5
4076.708	-300.5
4079.158	-303.5
4081.606	-304.5
4084.052	-298.5
4086.497	-299.5
4088.939	-299.5
4091.38	-299.5
4093.819	-300.5
4096.257	-318.5
4098.693	-317.5
4101.127	-317.5
4103.559	-311.5
4105.989	-193.5
4108.418	-187.5
4110.845	-172.5
4113.27	-162.5
4115.694	-148.5
4118.115	-116.5
4120.535	-300.5
4122.954	-304.5
4125.37	-298.5
4127.785	-301.5
4130.198	-299.5
4132.609	-300.5
4135.019	-312.5
4137.427	-313.5
4139.833	-311.5
4142.237	-318.5
