Data from I0.75_T10s_Bsub_water_1-10^2_2_RamanShift_1.txt Node
Date: Mon Mar 13 15:33:17 IST 2017
User: aro
Spectrometer: QEPB0276
Trigger mode: 0
Integration Time (sec): 1.000000E1
Scans to average: 1
Electric dark correction enabled: true
Nonlinearity correction enabled: false
Boxcar width: 0
XAxis mode: Raman Shifts
Number of Pixels in Spectrum: 1044
>>>>>Begin Spectral Data<<<<<
160.701	-55.25
166.742	19.75
172.777	183.75
178.805	746.75
184.826	2195.75
190.841	4686.75
196.849	7535.75
202.85	9442.75
208.845	9931.75
214.833	9692.75
220.815	9385.75
226.789	9252.75
232.758	9160.75
238.719	8951.75
244.674	8752.75
250.623	8483.75
256.565	8196.75
262.5	7935.75
268.429	7727.75
274.351	7520.75
280.267	7350.75
286.176	7171.75
292.079	7015.75
297.975	6857.75
303.865	6674.75
309.748	6530.75
315.625	6393.75
321.495	6275.75
327.359	6163.75
333.217	6094.75
339.068	6020.75
344.912	5972.75
350.751	5950.75
356.583	5866.75
362.408	5807.75
368.227	5789.75
374.04	5799.75
379.847	5782.75
385.647	5777.75
391.44	5797.75
397.228	5781.75
403.009	5784.75
408.784	5769.75
414.553	5798.75
420.315	5790.75
426.071	5779.75
431.821	5784.75
437.565	5789.75
443.302	5769.75
449.033	5743.75
454.758	5706.75
460.477	5744.75
466.189	5702.75
471.896	5666.75
477.596	5648.75
483.29	5627.75
488.978	5607.75
494.66	5579.75
500.335	5527.75
506.005	5481.75
511.668	5409.75
517.325	5345.75
522.977	5270.75
528.622	5225.75
534.261	5202.75
539.894	5163.75
545.521	5146.75
551.141	5128.75
556.756	5122.75
562.365	5122.75
567.968	5089.75
573.565	5063.75
579.155	5079.75
584.74	5035.75
590.319	5029.75
595.892	4985.75
601.459	4977.75
607.02	4978.75
612.575	4943.75
618.124	4870.75
623.667	4847.75
629.204	4830.75
634.735	4823.75
640.261	4796.75
645.781	4775.75
651.294	4745.75
656.802	4770.75
662.304	4758.75
667.8	4726.75
673.29	4725.75
678.775	4703.75
684.254	4723.75
689.726	4708.75
695.193	4675.75
700.655	4677.75
706.11	4644.75
711.56	4654.75
717.004	4641.75
722.442	4624.75
727.874	4604.75
733.301	4643.75
738.722	4598.75
744.137	4572.75
749.547	4582.75
754.951	4614.75
760.349	4602.75
765.741	4609.75
771.128	4585.75
776.509	4608.75
781.885	4620.75
787.254	4592.75
792.618	4620.75
797.977	4578.75
803.33	4573.75
808.677	4524.75
814.019	4509.75
819.355	4486.75
824.686	4458.75
830.011	4437.75
835.33	4451.75
840.644	4462.75
845.952	4441.75
851.255	4446.75
856.552	4476.75
861.844	4467.75
867.13	4470.75
872.41	4467.75
877.686	4438.75
882.955	4425.75
888.219	4369.75
893.478	4299.75
898.731	4288.75
903.979	4266.75
909.221	4232.75
914.458	4210.75
919.69	4236.75
924.916	4235.75
930.136	4223.75
935.351	4283.75
940.561	4278.75
945.766	4265.75
950.965	4264.75
956.158	4216.75
961.347	4219.75
966.529	4166.75
971.707	4103.75
976.879	4086.75
982.046	4041.75
987.208	4021.75
992.364	4044.75
997.515	4073.75
1002.66	4139.75
1007.801	4171.75
1012.936	4198.75
1018.066	4280.75
1023.19	4269.75
1028.309	4260.75
1033.423	4292.75
1038.532	4269.75
1043.636	4242.75
1048.734	4215.75
1053.827	4161.75
1058.915	4145.75
1063.998	4112.75
1069.075	4133.75
1074.147	4135.75
1079.214	4131.75
1084.276	4167.75
1089.333	4209.75
1094.385	4264.75
1099.431	4288.75
1104.472	4278.75
1109.509	4297.75
1114.54	4225.75
1119.565	4188.75
1124.586	4177.75
1129.602	4136.75
1134.613	4132.75
1139.618	4108.75
1144.619	4113.75
1149.614	4148.75
1154.604	4164.75
1159.589	4192.75
1164.57	4205.75
1169.545	4226.75
1174.515	4206.75
1179.48	4222.75
1184.44	4196.75
1189.395	4178.75
1194.345	4157.75
1199.29	4128.75
1204.23	4150.75
1209.165	4170.75
1214.095	4190.75
1219.021	4262.75
1223.941	4299.75
1228.856	4305.75
1233.766	4315.75
1238.672	4351.75
1243.572	4328.75
1248.467	4303.75
1253.358	4279.75
1258.244	4225.75
1263.124	4172.75
1268	4109.75
1272.871	4108.75
1277.737	4062.75
1282.599	4062.75
1287.455	4083.75
1292.306	4098.75
1297.153	4130.75
1301.995	4160.75
1306.832	4198.75
1311.664	4203.75
1316.491	4201.75
1321.314	4211.75
1326.132	4166.75
1330.945	4115.75
1335.753	4042.75
1340.556	3969.75
1345.354	3909.75
1350.148	3852.75
1354.937	3833.75
1359.722	3858.75
1364.501	3919.75
1369.276	3983.75
1374.046	4038.75
1378.811	4061.75
1383.572	4069.75
1388.327	4038.75
1393.079	4006.75
1397.825	3942.75
1402.567	3913.75
1407.304	3853.75
1412.036	3808.75
1416.764	3823.75
1421.487	3832.75
1426.205	3863.75
1430.919	3873.75
1435.628	3886.75
1440.333	3914.75
1445.032	3940.75
1449.727	3980.75
1454.418	3977.75
1459.104	3974.75
1463.785	3955.75
1468.462	3884.75
1473.134	3859.75
1477.802	3852.75
1482.465	3810.75
1487.123	3798.75
1491.777	3848.75
1496.426	3839.75
1501.071	3904.75
1505.711	3952.75
1510.347	3997.75
1514.978	4027.75
1519.604	4083.75
1524.226	4115.75
1528.844	4117.75
1533.457	4121.75
1538.065	4111.75
1542.669	4118.75
1547.269	4074.75
1551.864	4070.75
1556.454	4097.75
1561.041	4117.75
1565.622	4131.75
1570.199	4068.75
1574.772	4154.75
1579.34	4170.75
1583.904	4200.75
1588.464	4249.75
1593.019	4258.75
1597.569	4268.75
1602.115	4278.75
1606.657	4234.75
1611.195	4266.75
1615.728	4219.75
1620.256	4257.75
1624.78	4284.75
1629.3	4316.75
1633.816	4330.75
1638.327	4389.75
1642.834	4409.75
1647.336	4459.75
1651.834	4470.75
1656.328	4520.75
1660.817	4482.75
1665.302	4447.75
1669.783	4412.75
1674.259	4337.75
1678.732	4234.75
1683.199	4091.75
1687.663	4003.75
1692.122	3907.75
1696.577	3836.75
1701.028	3824.75
1705.474	3833.75
1709.917	3810.75
1714.355	3751.75
1718.788	3713.75
1723.218	3693.75
1727.643	3629.75
1732.064	3606.75
1736.481	3523.75
1740.893	3465.75
1745.301	3433.75
1749.705	3350.75
1754.105	3319.75
1758.501	3251.75
1762.893	3208.75
1767.28	3152.75
1771.663	3118.75
1776.042	3134.75
1780.417	3137.75
1784.787	3158.75
1789.154	3202.75
1793.516	3240.75
1797.874	3265.75
1802.228	3296.75
1806.578	3347.75
1810.924	3309.75
1815.266	3246.75
1819.603	3235.75
1823.937	3190.75
1828.266	3156.75
1832.591	3086.75
1836.913	3081.75
1841.23	3048.75
1845.543	3063.75
1849.852	3053.75
1854.156	3075.75
1858.457	3077.75
1862.754	3055.75
1867.047	3083.75
1871.335	3101.75
1875.62	3087.75
1879.9	3101.75
1884.177	3095.75
1888.449	3098.75
1892.718	3032.75
1896.982	3029.75
1901.243	3052.75
1905.499	3018.75
1909.752	3045.75
1914	3022.75
1918.245	3044.75
1922.485	3067.75
1926.722	3061.75
1930.954	3094.75
1935.183	3130.75
1939.408	3122.75
1943.628	3128.75
1947.845	3137.75
1952.058	3141.75
1956.267	3140.75
1960.472	3125.75
1964.673	3078.75
1968.87	3055.75
1973.063	3046.75
1977.252	3005.75
1981.438	2989.75
1985.619	2996.75
1989.797	2957.75
1993.971	3000.75
1998.14	2964.75
2002.306	2991.75
2006.469	2955.75
2010.627	2993.75
2014.781	2963.75
2018.932	2966.75
2023.078	2963.75
2027.221	2949.75
2031.36	2897.75
2035.495	2881.75
2039.627	2857.75
2043.754	2831.75
2047.878	2810.75
2051.998	2813.75
2056.114	2812.75
2060.226	2811.75
2064.334	2825.75
2068.439	2834.75
2072.54	2827.75
2076.637	2860.75
2080.73	2858.75
2084.82	2897.75
2088.906	2878.75
2092.988	2889.75
2097.066	2886.75
2101.14	2848.75
2105.211	2836.75
2109.278	2845.75
2113.342	2816.75
2117.401	2806.75
2121.457	2815.75
2125.509	2800.75
2129.558	2784.75
2133.602	2778.75
2137.643	2766.75
2141.681	2779.75
2145.714	2767.75
2149.744	2761.75
2153.77	2721.75
2157.793	2719.75
2161.812	2703.75
2165.827	2687.75
2169.838	2616.75
2173.846	2610.75
2177.851	2554.75
2181.851	2532.75
2185.848	2525.75
2189.841	2499.75
2193.831	2490.75
2197.817	2496.75
2201.799	2471.75
2205.778	2484.75
2209.753	2474.75
2213.725	2464.75
2217.693	2465.75
2221.657	2459.75
2225.618	2477.75
2229.575	2454.75
2233.529	2455.75
2237.479	2443.75
2241.425	2427.75
2245.368	2407.75
2249.307	2368.75
2253.243	2351.75
2257.175	2333.75
2261.104	2313.75
2265.029	2285.75
2268.95	2286.75
2272.868	2253.75
2276.783	2251.75
2280.694	2204.75
2284.601	2191.75
2288.505	2177.75
2292.405	2181.75
2296.302	2148.75
2300.195	2143.75
2304.085	2103.75
2307.971	2089.75
2311.854	2039.75
2315.734	2034.75
2319.609	2013.75
2323.482	1987.75
2327.351	1948.75
2331.216	1935.75
2335.078	1937.75
2338.937	1931.75
2342.792	1929.75
2346.643	1912.75
2350.492	1917.75
2354.336	1922.75
2358.178	1904.75
2362.015	1914.75
2365.85	1940.75
2369.681	1920.75
2373.508	1916.75
2377.333	1912.75
2381.153	1908.75
2384.971	1918.75
2388.785	1898.75
2392.595	1894.75
2396.402	1886.75
2400.206	1870.75
2404.007	1875.75
2407.804	1876.75
2411.597	1848.75
2415.388	1856.75
2419.174	1853.75
2422.958	1834.75
2426.738	1831.75
2430.515	1827.75
2434.289	1829.75
2438.059	1814.75
2441.825	1834.75
2445.589	1798.75
2449.349	1778.75
2453.106	1764.75
2456.859	1779.75
2460.61	1760.75
2464.356	1724.75
2468.1	1713.75
2471.84	1706.75
2475.577	1703.75
2479.311	1697.75
2483.041	1707.75
2486.768	1705.75
2490.492	1713.75
2494.213	1713.75
2497.93	1703.75
2501.644	1717.75
2505.355	1707.75
2509.062	1682.75
2512.766	1687.75
2516.467	1700.75
2520.165	1689.75
2523.859	1665.75
2527.551	1677.75
2531.239	1652.75
2534.923	1634.75
2538.605	1636.75
2542.283	1627.75
2545.958	1623.75
2549.63	1619.75
2553.299	1621.75
2556.964	1608.75
2560.626	1601.75
2564.285	1596.75
2567.941	1573.75
2571.594	1588.75
2575.243	1571.75
2578.89	1572.75
2582.533	1552.75
2586.173	1544.75
2589.809	1549.75
2593.443	1520.75
2597.073	1527.75
2600.701	1521.75
2604.325	1512.75
2607.946	1509.75
2611.564	1498.75
2615.178	1507.75
2618.79	1501.75
2622.398	1490.75
2626.004	1486.75
2629.606	1470.75
2633.205	1464.75
2636.801	1440.75
2640.394	1437.75
2643.983	1420.75
2647.57	1414.75
2651.153	1394.75
2654.734	1366.75
2658.311	1368.75
2661.885	1342.75
2665.456	1347.75
2669.025	1330.75
2672.589	1318.75
2676.151	1328.75
2679.71	1302.75
2683.266	1288.75
2686.819	1286.75
2690.368	1271.75
2693.915	1240.75
2697.458	1223.75
2700.999	1213.75
2704.536	1206.75
2708.071	1194.75
2711.602	1186.75
2715.13	1172.75
2718.656	1165.75
2722.178	1163.75
2725.697	1150.75
2729.214	1144.75
2732.727	1146.75
2736.237	1158.75
2739.744	1160.75
2743.249	1156.75
2746.75	1167.75
2750.248	1181.75
2753.743	1169.75
2757.236	1159.75
2760.725	1166.75
2764.211	1154.75
2767.695	1161.75
2771.175	1138.75
2774.652	1144.75
2778.127	1137.75
2781.598	1142.75
2785.067	1107.75
2788.532	1119.75
2791.995	1108.75
2795.455	1107.75
2798.911	1103.75
2802.365	1100.75
2805.816	1101.75
2809.264	1111.75
2812.709	1087.75
2816.151	1089.75
2819.59	1070.75
2823.026	1072.75
2826.46	1083.75
2829.89	1068.75
2833.318	1055.75
2836.742	1053.75
2840.164	1049.75
2843.583	1047.75
2846.999	1071.75
2850.412	1061.75
2853.822	1058.75
2857.229	1070.75
2860.634	1061.75
2864.035	1063.75
2867.434	1067.75
2870.83	1066.75
2874.223	1084.75
2877.613	1075.75
2881	1071.75
2884.385	1071.75
2887.766	1075.75
2891.145	1048.75
2894.521	1049.75
2897.894	1044.75
2901.264	1037.75
2904.631	1029.75
2907.996	1023.75
2911.358	1026.75
2914.717	1030.75
2918.073	1022.75
2921.426	1022.75
2924.777	1011.75
2928.124	1029.75
2931.469	1035.75
2934.811	1030.75
2938.15	1043.75
2941.487	1044.75
2944.821	1055.75
2948.152	1041.75
2951.48	1036.75
2954.805	1049.75
2958.128	1054.75
2961.447	1048.75
2964.765	1048.75
2968.079	1051.75
2971.39	1063.75
2974.699	1088.75
2978.005	1079.75
2981.308	1102.75
2984.609	1123.75
2987.907	1131.75
2991.202	1168.75
2994.494	1173.75
2997.784	1191.75
3001.07	1220.75
3004.355	1225.75
3007.636	1231.75
3010.915	1247.75
3014.191	1253.75
3017.464	1267.75
3020.734	1267.75
3024.002	1272.75
3027.267	1293.75
3030.53	1300.75
3033.789	1313.75
3037.046	1309.75
3040.301	1321.75
3043.552	1330.75
3046.801	1350.75
3050.048	1377.75
3053.291	1398.75
3056.532	1406.75
3059.771	1469.75
3063.006	1484.75
3066.239	1517.75
3069.469	1542.75
3072.697	1572.75
3075.922	1619.75
3079.144	1640.75
3082.364	1676.75
3085.581	1671.75
3088.795	1694.75
3092.007	1743.75
3095.216	1767.75
3098.423	1797.75
3101.627	1824.75
3104.828	1847.75
3108.026	1867.75
3111.222	1908.75
3114.416	1947.75
3117.607	1971.75
3120.795	1999.75
3123.98	2061.75
3127.163	2074.75
3130.344	2083.75
3133.521	2147.75
3136.696	2187.75
3139.869	2224.75
3143.039	2271.75
3146.206	2264.75
3149.371	2295.75
3152.533	2302.75
3155.693	2324.75
3158.85	2311.75
3162.005	2346.75
3165.157	2350.75
3168.306	2347.75
3171.453	2313.75
3174.597	2341.75
3177.739	2340.75
3180.878	2350.75
3184.014	2354.75
3187.149	2358.75
3190.28	2361.75
3193.409	2346.75
3196.536	2352.75
3199.659	2345.75
3202.781	2369.75
3205.9	2372.75
3209.016	2358.75
3212.13	2345.75
3215.241	2331.75
3218.35	2342.75
3221.456	2308.75
3224.56	2301.75
3227.661	2253.75
3230.76	2251.75
3233.856	2229.75
3236.95	2187.75
3240.041	2173.75
3243.13	2160.75
3246.216	2150.75
3249.3	2142.75
3252.382	2135.75
3255.46	2117.75
3258.537	2105.75
3261.611	2124.75
3264.682	2106.75
3267.751	2079.75
3270.818	2093.75
3273.882	2068.75
3276.943	2066.75
3280.002	2044.75
3283.059	2018.75
3286.113	2004.75
3289.165	1974.75
3292.214	1958.75
3295.261	1930.75
3298.306	1886.75
3301.348	1863.75
3304.387	1833.75
3307.425	1805.75
3310.459	1771.75
3313.492	1760.75
3316.521	1741.75
3319.549	1711.75
3322.574	1708.75
3325.597	1704.75
3328.617	1662.75
3331.635	1646.75
3334.65	1637.75
3337.663	1639.75
3340.674	1637.75
3343.682	1626.75
3346.688	1632.75
3349.691	1596.75
3352.692	1597.75
3355.691	1586.75
3358.687	1571.75
3361.681	1560.75
3364.673	1528.75
3367.662	1523.75
3370.649	1493.75
3373.633	1467.75
3376.615	1449.75
3379.595	1434.75
3382.572	1423.75
3385.547	1405.75
3388.52	1373.75
3391.49	1357.75
3394.458	1324.75
3397.424	1324.75
3400.387	1305.75
3403.348	1295.75
3406.307	1285.75
3409.263	1265.75
3412.217	1245.75
3415.168	1240.75
3418.118	1233.75
3421.065	1203.75
3424.009	1193.75
3426.951	1201.75
3429.891	1173.75
3432.829	1160.75
3435.764	1115.75
3438.697	1098.75
3441.628	1076.75
3444.557	1035.75
3447.483	1014.75
3450.407	975.75
3453.328	965.75
3456.247	933.75
3459.164	906.75
3462.079	881.75
3464.991	852.75
3467.902	834.75
3470.809	807.75
3473.715	762.75
3476.618	762.75
3479.519	735.75
3482.418	702.75
3485.315	699.75
3488.209	675.75
3491.101	677.75
3493.99	650.75
3496.878	627.75
3499.763	613.75
3502.646	597.75
3505.527	562.75
3508.405	538.75
3511.281	540.75
3514.155	513.75
3517.027	481.75
3519.897	455.75
3522.764	448.75
3525.629	420.75
3528.492	401.75
3531.352	385.75
3534.211	368.75
3537.067	343.75
3539.921	322.75
3542.773	300.75
3545.622	288.75
3548.469	268.75
3551.315	251.75
3554.157	235.75
3556.998	227.75
3559.837	213.75
3562.673	197.75
3565.507	192.75
3568.339	184.75
3571.169	165.75
3573.996	156.75
3576.822	144.75
3579.645	136.75
3582.466	116.75
3585.285	106.75
3588.101	96.75
3590.916	81.75
3593.728	77.75
3596.538	73.75
3599.346	60.75
3602.152	57.75
3604.956	37.75
3607.757	33.75
3610.556	20.75
3613.354	21.75
3616.149	6.75
3618.942	6.75
3621.732	-7.25
3624.521	-12.25
3627.307	-15.25
3630.092	-22.25
3632.874	-29.25
3635.654	-22.25
3638.432	-33.25
3641.208	-38.25
3643.982	-34.25
3646.753	-49.25
3649.523	-56.25
3652.29	-59.25
3655.055	-68.25
3657.818	-76.25
3660.579	-74.25
3663.338	-83.25
3666.095	-93.25
3668.849	-93.25
3671.602	-100.25
3674.352	-96.25
3677.101	-104.25
3679.847	-107.25
3682.591	-118.25
3685.333	-118.25
3688.073	-122.25
3690.811	-120.25
3693.547	-132.25
3696.281	-129.25
3699.013	-129.25
3701.742	-134.25
3704.47	-134.25
3707.195	-140.25
3709.919	-139.25
3712.64	-143.25
3715.359	-144.25
3718.076	-143.25
3720.792	-144.25
3723.505	-149.25
3726.216	-152.25
3728.925	-156.25
3731.632	-154.25
3734.336	-154.25
3737.039	-158.25
3739.74	-161.25
3742.439	-162.25
3745.136	-166.25
3747.83	-161.25
3750.523	-159.25
3753.213	-167.25
3755.902	-168.25
3758.589	-162.25
3761.273	-170.25
3763.956	-171.25
3766.636	-170.25
3769.315	-171.25
3771.991	-173.25
3774.665	-177.25
3777.338	-179.25
3780.008	-178.25
3782.677	-176.25
3785.343	-179.25
3788.007	-183.25
3790.67	-181.25
3793.33	-180.25
3795.989	-184.25
3798.645	-182.25
3801.299	-186.25
3803.952	-182.25
3806.602	-184.25
3809.251	-186.25
3811.897	-186.25
3814.542	-186.25
3817.184	-189.25
3819.825	-181.25
3822.463	-194.25
3825.1	-186.25
3827.735	-186.25
3830.367	-192.25
3832.998	-192.25
3835.627	-189.25
3838.253	-190.25
3840.878	-192.25
3843.501	-188.25
3846.122	-192.25
3848.741	-193.25
3851.358	-192.25
3853.973	-194.25
3856.586	-197.25
3859.197	-196.25
3861.806	-194.25
3864.414	-198.25
3867.019	-194.25
3869.622	-196.25
3872.224	-197.25
3874.823	-193.25
3877.421	-198.25
3880.016	-189.25
3882.61	-187.25
3885.202	-188.25
3887.792	-195.25
3890.38	-198.25
3892.966	-202.25
3895.55	-205.25
3898.132	-206.25
3900.713	-207.25
3903.291	-206.25
3905.868	-208.25
3908.442	-199.25
3911.015	-206.25
3913.586	-209.25
3916.155	-202.25
3918.722	-205.25
3921.287	-209.25
3923.85	-209.25
3926.411	-206.25
3928.971	-206.25
3931.528	-210.25
3934.084	-204.25
3936.638	-204.25
3939.19	-212.25
3941.74	-208.25
3944.288	-209.25
3946.834	-206.25
3949.378	-211.25
3951.921	-214.25
3954.462	-207.25
3957	-212.25
3959.537	-212.25
3962.072	-210.25
3964.606	-206.25
3967.137	-210.25
3969.667	-207.25
3972.194	-209.25
3974.72	-207.25
3977.244	-206.25
3979.766	-207.25
3982.286	-204.25
3984.805	-207.25
3987.321	-205.25
3989.836	-207.25
3992.349	-208.25
3994.86	-200.25
3997.369	-207.25
3999.877	-203.25
4002.382	-204.25
4004.886	-206.25
4007.388	-203.25
4009.888	-210.25
4012.386	-210.25
4014.883	-211.25
4017.377	-207.25
4019.87	-205.25
4022.361	-202.25
4024.85	-208.25
4027.338	-211.25
4029.823	-211.25
4032.307	-212.25
4034.789	-211.25
4037.269	-208.25
4039.747	-207.25
4042.224	-212.25
4044.699	-211.25
4047.172	-211.25
4049.643	-207.25
4052.112	-209.25
4054.58	-211.25
4057.046	-212.25
4059.51	-206.25
4061.972	-204.25
4064.432	-204.25
4066.891	-203.25
4069.348	-208.25
4071.803	-209.25
4074.256	-208.25
4076.708	-208.25
4079.158	-212.25
4081.606	-209.25
4084.052	-208.25
4086.497	-205.25
4088.939	-208.25
4091.38	-206.25
4093.819	-205.25
4096.257	-223.25
4098.693	-222.25
4101.127	-222.25
4103.559	-219.25
4105.989	-143.25
4108.418	-132.25
4110.845	-127.25
4113.27	-120.25
4115.694	-103.25
4118.115	-77.25
4120.535	-211.25
4122.954	-209.25
4125.37	-208.25
4127.785	-215.25
4130.198	-208.25
4132.609	-211.25
4135.019	-224.25
4137.427	-223.25
4139.833	-225.25
4142.237	-222.25
