Data from I0.75_T5s_Bsub_water_1-10^2_3_RamanShift_1.txt Node
Date: Mon Mar 13 15:14:07 IST 2017
User: aro
Spectrometer: QEPB0276
Trigger mode: 0
Integration Time (sec): 5.000000E0
Scans to average: 1
Electric dark correction enabled: true
Nonlinearity correction enabled: false
Boxcar width: 0
XAxis mode: Raman Shifts
Number of Pixels in Spectrum: 1044
>>>>>Begin Spectral Data<<<<<
160.701	-32.75
166.742	1.25
172.777	88.25
178.805	372.25
184.826	1062.25
190.841	2277.25
196.849	3622.25
202.85	4564.25
208.845	4796.25
214.833	4636.25
220.815	4495.25
226.789	4415.25
232.758	4337.25
238.719	4292.25
244.674	4183.25
250.623	4022.25
256.565	3900.25
262.5	3785.25
268.429	3671.25
274.351	3562.25
280.267	3476.25
286.176	3403.25
292.079	3326.25
297.975	3220.25
303.865	3164.25
309.748	3115.25
315.625	2999.25
321.495	2972.25
327.359	2910.25
333.217	2881.25
339.068	2844.25
344.912	2820.25
350.751	2778.25
356.583	2771.25
362.408	2746.25
368.227	2737.25
374.04	2744.25
379.847	2732.25
385.647	2734.25
391.44	2726.25
397.228	2726.25
403.009	2728.25
408.784	2720.25
414.553	2746.25
420.315	2728.25
426.071	2744.25
431.821	2723.25
437.565	2718.25
443.302	2712.25
449.033	2697.25
454.758	2694.25
460.477	2688.25
466.189	2676.25
471.896	2681.25
477.596	2663.25
483.29	2658.25
488.978	2666.25
494.66	2635.25
500.335	2612.25
506.005	2595.25
511.668	2555.25
517.325	2520.25
522.977	2493.25
528.622	2483.25
534.261	2441.25
539.894	2451.25
545.521	2437.25
551.141	2408.25
556.756	2406.25
562.365	2395.25
567.968	2403.25
573.565	2406.25
579.155	2386.25
584.74	2370.25
590.319	2364.25
595.892	2349.25
601.459	2341.25
607.02	2344.25
612.575	2300.25
618.124	2285.25
623.667	2303.25
629.204	2271.25
634.735	2263.25
640.261	2239.25
645.781	2246.25
651.294	2234.25
656.802	2229.25
662.304	2247.25
667.8	2240.25
673.29	2215.25
678.775	2211.25
684.254	2232.25
689.726	2216.25
695.193	2206.25
700.655	2211.25
706.11	2193.25
711.56	2170.25
717.004	2177.25
722.442	2179.25
727.874	2154.25
733.301	2139.25
738.722	2150.25
744.137	2168.25
749.547	2163.25
754.951	2151.25
760.349	2157.25
765.741	2145.25
771.128	2154.25
776.509	2155.25
781.885	2174.25
787.254	2167.25
792.618	2161.25
797.977	2147.25
803.33	2141.25
808.677	2109.25
814.019	2133.25
819.355	2092.25
824.686	2088.25
830.011	2084.25
835.33	2075.25
840.644	2091.25
845.952	2097.25
851.255	2090.25
856.552	2064.25
861.844	2071.25
867.13	2097.25
872.41	2058.25
877.686	2067.25
882.955	2054.25
888.219	2038.25
893.478	2002.25
898.731	1985.25
903.979	1979.25
909.221	1983.25
914.458	1977.25
919.69	1965.25
924.916	1966.25
930.136	1985.25
935.351	1980.25
940.561	1995.25
945.766	1977.25
950.965	1986.25
956.158	1969.25
961.347	1945.25
966.529	1917.25
971.707	1914.25
976.879	1897.25
982.046	1898.25
987.208	1861.25
992.364	1893.25
997.515	1905.25
1002.66	1907.25
1007.801	1919.25
1012.936	1947.25
1018.066	1954.25
1023.19	1969.25
1028.309	1987.25
1033.423	1984.25
1038.532	1995.25
1043.636	1971.25
1048.734	1952.25
1053.827	1935.25
1058.915	1928.25
1063.998	1904.25
1069.075	1903.25
1074.147	1938.25
1079.214	1947.25
1084.276	1959.25
1089.333	1960.25
1094.385	1968.25
1099.431	2004.25
1104.472	2006.25
1109.509	1991.25
1114.54	1990.25
1119.565	1939.25
1124.586	1952.25
1129.602	1916.25
1134.613	1905.25
1139.618	1909.25
1144.619	1900.25
1149.614	1914.25
1154.604	1933.25
1159.589	1932.25
1164.57	1956.25
1169.545	1940.25
1174.515	1958.25
1179.48	1969.25
1184.44	1934.25
1189.395	1930.25
1194.345	1923.25
1199.29	1919.25
1204.23	1922.25
1209.165	1936.25
1214.095	1931.25
1219.021	1973.25
1223.941	1980.25
1228.856	1984.25
1233.766	1984.25
1238.672	1999.25
1243.572	2016.25
1248.467	2014.25
1253.358	1982.25
1258.244	1958.25
1263.124	1950.25
1268	1904.25
1272.871	1897.25
1277.737	1890.25
1282.599	1889.25
1287.455	1902.25
1292.306	1902.25
1297.153	1898.25
1301.995	1932.25
1306.832	1949.25
1311.664	1954.25
1316.491	1982.25
1321.314	1933.25
1326.132	1932.25
1330.945	1894.25
1335.753	1878.25
1340.556	1842.25
1345.354	1812.25
1350.148	1797.25
1354.937	1777.25
1359.722	1811.25
1364.501	1835.25
1369.276	1845.25
1374.046	1874.25
1378.811	1894.25
1383.572	1915.25
1388.327	1890.25
1393.079	1845.25
1397.825	1850.25
1402.567	1814.25
1407.304	1807.25
1412.036	1779.25
1416.764	1762.25
1421.487	1777.25
1426.205	1779.25
1430.919	1797.25
1435.628	1812.25
1440.333	1831.25
1445.032	1852.25
1449.727	1858.25
1454.418	1846.25
1459.104	1857.25
1463.785	1850.25
1468.462	1828.25
1473.134	1795.25
1477.802	1791.25
1482.465	1782.25
1487.123	1799.25
1491.777	1789.25
1496.426	1808.25
1501.071	1825.25
1505.711	1849.25
1510.347	1852.25
1514.978	1889.25
1519.604	1908.25
1524.226	1916.25
1528.844	1925.25
1533.457	1922.25
1538.065	1912.25
1542.669	1899.25
1547.269	1906.25
1551.864	1917.25
1556.454	1910.25
1561.041	1901.25
1565.622	1913.25
1570.199	1933.25
1574.772	1943.25
1579.34	1941.25
1583.904	1978.25
1588.464	1971.25
1593.019	2001.25
1597.569	2008.25
1602.115	2009.25
1606.657	2002.25
1611.195	1987.25
1615.728	1983.25
1620.256	2006.25
1624.78	2015.25
1629.3	2011.25
1633.816	2049.25
1638.327	2055.25
1642.834	2086.25
1647.336	2090.25
1651.834	2104.25
1656.328	2110.25
1660.817	2102.25
1665.302	2103.25
1669.783	2062.25
1674.259	2032.25
1678.732	1978.25
1683.199	1945.25
1687.663	1873.25
1692.122	1831.25
1696.577	1788.25
1701.028	1802.25
1705.474	1770.25
1709.917	1817.25
1714.355	1768.25
1718.788	1738.25
1723.218	1698.25
1727.643	1692.25
1732.064	1667.25
1736.481	1651.25
1740.893	1619.25
1745.301	1574.25
1749.705	1549.25
1754.105	1519.25
1758.501	1498.25
1762.893	1480.25
1767.28	1448.25
1771.663	1456.25
1776.042	1448.25
1780.417	1465.25
1784.787	1485.25
1789.154	1489.25
1793.516	1511.25
1797.874	1533.25
1802.228	1542.25
1806.578	1549.25
1810.924	1542.25
1815.266	1515.25
1819.603	1503.25
1823.937	1479.25
1828.266	1461.25
1832.591	1440.25
1836.913	1426.25
1841.23	1423.25
1845.543	1422.25
1849.852	1415.25
1854.156	1419.25
1858.457	1405.25
1862.754	1430.25
1867.047	1424.25
1871.335	1439.25
1875.62	1438.25
1879.9	1437.25
1884.177	1447.25
1888.449	1428.25
1892.718	1441.25
1896.982	1419.25
1901.243	1411.25
1905.499	1410.25
1909.752	1426.25
1914	1432.25
1918.245	1421.25
1922.485	1431.25
1926.722	1444.25
1930.954	1443.25
1935.183	1433.25
1939.408	1457.25
1943.628	1444.25
1947.845	1451.25
1952.058	1462.25
1956.267	1458.25
1960.472	1457.25
1964.673	1434.25
1968.87	1412.25
1973.063	1410.25
1977.252	1391.25
1981.438	1413.25
1985.619	1382.25
1989.797	1374.25
1993.971	1383.25
1998.14	1378.25
2002.306	1386.25
2006.469	1377.25
2010.627	1387.25
2014.781	1373.25
2018.932	1379.25
2023.078	1365.25
2027.221	1364.25
2031.36	1338.25
2035.495	1318.25
2039.627	1317.25
2043.754	1322.25
2047.878	1302.25
2051.998	1293.25
2056.114	1302.25
2060.226	1314.25
2064.334	1314.25
2068.439	1321.25
2072.54	1330.25
2076.637	1320.25
2080.73	1333.25
2084.82	1340.25
2088.906	1351.25
2092.988	1343.25
2097.066	1346.25
2101.14	1337.25
2105.211	1331.25
2109.278	1315.25
2113.342	1314.25
2117.401	1311.25
2121.457	1293.25
2125.509	1326.25
2129.558	1292.25
2133.602	1310.25
2137.643	1293.25
2141.681	1290.25
2145.714	1280.25
2149.744	1279.25
2153.77	1291.25
2157.793	1265.25
2161.812	1249.25
2165.827	1223.25
2169.838	1225.25
2173.846	1196.25
2177.851	1186.25
2181.851	1176.25
2185.848	1178.25
2189.841	1157.25
2193.831	1158.25
2197.817	1152.25
2201.799	1145.25
2205.778	1138.25
2209.753	1132.25
2213.725	1142.25
2217.693	1148.25
2221.657	1140.25
2225.618	1143.25
2229.575	1131.25
2233.529	1132.25
2237.479	1129.25
2241.425	1113.25
2245.368	1113.25
2249.307	1103.25
2253.243	1090.25
2257.175	1088.25
2261.104	1070.25
2265.029	1062.25
2268.95	1021.25
2272.868	1055.25
2276.783	1029.25
2280.694	1020.25
2284.601	1019.25
2288.505	1001.25
2292.405	1001.25
2296.302	986.25
2300.195	996.25
2304.085	976.25
2307.971	956.25
2311.854	961.25
2315.734	951.25
2319.609	936.25
2323.482	908.25
2327.351	895.25
2331.216	890.25
2335.078	880.25
2338.937	877.25
2342.792	883.25
2346.643	874.25
2350.492	883.25
2354.336	885.25
2358.178	880.25
2362.015	878.25
2365.85	894.25
2369.681	875.25
2373.508	882.25
2377.333	879.25
2381.153	880.25
2384.971	878.25
2388.785	877.25
2392.595	873.25
2396.402	873.25
2400.206	854.25
2404.007	859.25
2407.804	859.25
2411.597	851.25
2415.388	844.25
2419.174	847.25
2422.958	841.25
2426.738	840.25
2430.515	827.25
2434.289	829.25
2438.059	843.25
2441.825	827.25
2445.589	819.25
2449.349	822.25
2453.106	795.25
2456.859	795.25
2460.61	791.25
2464.356	800.25
2468.1	795.25
2471.84	799.25
2475.577	782.25
2479.311	790.25
2483.041	783.25
2486.768	780.25
2490.492	787.25
2494.213	793.25
2497.93	794.25
2501.644	794.25
2505.355	786.25
2509.062	782.25
2512.766	786.25
2516.467	780.25
2520.165	789.25
2523.859	772.25
2527.551	769.25
2531.239	752.25
2534.923	748.25
2538.605	763.25
2542.283	752.25
2545.958	750.25
2549.63	741.25
2553.299	733.25
2556.964	741.25
2560.626	741.25
2564.285	736.25
2567.941	725.25
2571.594	721.25
2575.243	727.25
2578.89	711.25
2582.533	714.25
2586.173	714.25
2589.809	712.25
2593.443	710.25
2597.073	693.25
2600.701	693.25
2604.325	696.25
2607.946	693.25
2611.564	704.25
2615.178	701.25
2618.79	691.25
2622.398	677.25
2626.004	684.25
2629.606	680.25
2633.205	672.25
2636.801	660.25
2640.394	662.25
2643.983	660.25
2647.57	645.25
2651.153	640.25
2654.734	625.25
2658.311	629.25
2661.885	624.25
2665.456	615.25
2669.025	620.25
2672.589	609.25
2676.151	615.25
2679.71	602.25
2683.266	593.25
2686.819	582.25
2690.368	583.25
2693.915	570.25
2697.458	567.25
2700.999	551.25
2704.536	548.25
2708.071	551.25
2711.602	537.25
2715.13	534.25
2718.656	514.25
2722.178	520.25
2725.697	520.25
2729.214	518.25
2732.727	531.25
2736.237	537.25
2739.744	534.25
2743.249	535.25
2746.75	539.25
2750.248	538.25
2753.743	543.25
2757.236	536.25
2760.725	537.25
2764.211	542.25
2767.695	531.25
2771.175	541.25
2774.652	529.25
2778.127	526.25
2781.598	518.25
2785.067	515.25
2788.532	513.25
2791.995	515.25
2795.455	502.25
2798.911	513.25
2802.365	510.25
2805.816	507.25
2809.264	495.25
2812.709	512.25
2816.151	492.25
2819.59	503.25
2823.026	492.25
2826.46	489.25
2829.89	485.25
2833.318	487.25
2836.742	478.25
2840.164	488.25
2843.583	488.25
2846.999	486.25
2850.412	481.25
2853.822	488.25
2857.229	497.25
2860.634	499.25
2864.035	498.25
2867.434	498.25
2870.83	486.25
2874.223	502.25
2877.613	496.25
2881	487.25
2884.385	491.25
2887.766	499.25
2891.145	487.25
2894.521	483.25
2897.894	468.25
2901.264	476.25
2904.631	482.25
2907.996	482.25
2911.358	472.25
2914.717	474.25
2918.073	463.25
2921.426	473.25
2924.777	476.25
2928.124	461.25
2931.469	484.25
2934.811	474.25
2938.15	481.25
2941.487	477.25
2944.821	484.25
2948.152	481.25
2951.48	492.25
2954.805	496.25
2958.128	485.25
2961.447	493.25
2964.765	487.25
2968.079	493.25
2971.39	506.25
2974.699	500.25
2978.005	527.25
2981.308	510.25
2984.609	525.25
2987.907	540.25
2991.202	547.25
2994.494	556.25
2997.784	567.25
3001.07	580.25
3004.355	577.25
3007.636	582.25
3010.915	581.25
3014.191	593.25
3017.464	600.25
3020.734	603.25
3024.002	609.25
3027.267	604.25
3030.53	609.25
3033.789	626.25
3037.046	617.25
3040.301	635.25
3043.552	648.25
3046.801	649.25
3050.048	663.25
3053.291	679.25
3056.532	682.25
3059.771	691.25
3063.006	703.25
3066.239	721.25
3069.469	742.25
3072.697	756.25
3075.922	761.25
3079.144	782.25
3082.364	802.25
3085.581	814.25
3088.795	833.25
3092.007	831.25
3095.216	861.25
3098.423	855.25
3101.627	876.25
3104.828	894.25
3108.026	908.25
3111.222	913.25
3114.416	925.25
3117.607	948.25
3120.795	961.25
3123.98	986.25
3127.163	1000.25
3130.344	1029.25
3133.521	1021.25
3136.696	1055.25
3139.869	1085.25
3143.039	1096.25
3146.206	1101.25
3149.371	1121.25
3152.533	1119.25
3155.693	1123.25
3158.85	1122.25
3162.005	1129.25
3165.157	1131.25
3168.306	1130.25
3171.453	1129.25
3174.597	1138.25
3177.739	1142.25
3180.878	1137.25
3184.014	1126.25
3187.149	1152.25
3190.28	1143.25
3193.409	1157.25
3196.536	1145.25
3199.659	1149.25
3202.781	1140.25
3205.9	1156.25
3209.016	1154.25
3212.13	1160.25
3215.241	1148.25
3218.35	1135.25
3221.456	1126.25
3224.56	1113.25
3227.661	1105.25
3230.76	1083.25
3233.856	1097.25
3236.95	1083.25
3240.041	1055.25
3243.13	1073.25
3246.216	1045.25
3249.3	1046.25
3252.382	1054.25
3255.46	1034.25
3258.537	1042.25
3261.611	1032.25
3264.682	1031.25
3267.751	1018.25
3270.818	1025.25
3273.882	1022.25
3276.943	1019.25
3280.002	999.25
3283.059	987.25
3286.113	990.25
3289.165	969.25
3292.214	961.25
3295.261	937.25
3298.306	939.25
3301.348	913.25
3304.387	891.25
3307.425	872.25
3310.459	864.25
3313.492	853.25
3316.521	836.25
3319.549	834.25
3322.574	825.25
3325.597	822.25
3328.617	808.25
3331.635	805.25
3334.65	800.25
3337.663	790.25
3340.674	796.25
3343.682	803.25
3346.688	797.25
3349.691	780.25
3352.692	764.25
3355.691	776.25
3358.687	767.25
3361.681	756.25
3364.673	750.25
3367.662	732.25
3370.649	737.25
3373.633	710.25
3376.615	706.25
3379.595	709.25
3382.572	681.25
3385.547	679.25
3388.52	676.25
3391.49	661.25
3394.458	648.25
3397.424	651.25
3400.387	635.25
3403.348	630.25
3406.307	618.25
3409.263	624.25
3412.217	605.25
3415.168	604.25
3418.118	603.25
3421.065	590.25
3424.009	579.25
3426.951	569.25
3429.891	560.25
3432.829	554.25
3435.764	545.25
3438.697	540.25
3441.628	518.25
3444.557	502.25
3447.483	485.25
3450.407	487.25
3453.328	472.25
3456.247	452.25
3459.164	450.25
3462.079	432.25
3464.991	425.25
3467.902	397.25
3470.809	395.25
3473.715	379.25
3476.618	374.25
3479.519	364.25
3482.418	353.25
3485.315	341.25
3488.209	336.25
3491.101	324.25
3493.99	314.25
3496.878	299.25
3499.763	300.25
3502.646	288.25
3505.527	283.25
3508.405	266.25
3511.281	267.25
3514.155	246.25
3517.027	236.25
3519.897	228.25
3522.764	220.25
3525.629	201.25
3528.492	188.25
3531.352	184.25
3534.211	176.25
3537.067	159.25
3539.921	146.25
3542.773	144.25
3545.622	136.25
3548.469	130.25
3551.315	121.25
3554.157	120.25
3556.998	112.25
3559.837	116.25
3562.673	101.25
3565.507	92.25
3568.339	87.25
3571.169	79.25
3573.996	81.25
3576.822	68.25
3579.645	62.25
3582.466	59.25
3585.285	50.25
3588.101	53.25
3590.916	41.25
3593.728	37.25
3596.538	34.25
3599.346	28.25
3602.152	23.25
3604.956	17.25
3607.757	15.25
3610.556	6.25
3613.354	11.25
3616.149	0.25
3618.942	2.25
3621.732	-2.75
3624.521	-9.75
3627.307	-8.75
3630.092	-4.75
3632.874	-14.75
3635.654	-10.75
3638.432	-20.75
3641.208	-19.75
3643.982	-24.75
3646.753	-24.75
3649.523	-27.75
3652.29	-30.75
3655.055	-34.75
3657.818	-36.75
3660.579	-41.75
3663.338	-40.75
3666.095	-46.75
3668.849	-51.75
3671.602	-48.75
3674.352	-50.75
3677.101	-53.75
3679.847	-55.75
3682.591	-57.75
3685.333	-59.75
3688.073	-55.75
3690.811	-60.75
3693.547	-59.75
3696.281	-61.75
3699.013	-66.75
3701.742	-65.75
3704.47	-67.75
3707.195	-64.75
3709.919	-70.75
3712.64	-69.75
3715.359	-70.75
3718.076	-71.75
3720.792	-75.75
3723.505	-75.75
3726.216	-74.75
3728.925	-72.75
3731.632	-75.75
3734.336	-81.75
3737.039	-78.75
3739.74	-77.75
3742.439	-85.75
3745.136	-77.75
3747.83	-79.75
3750.523	-82.75
3753.213	-81.75
3755.902	-81.75
3758.589	-83.75
3761.273	-84.75
3763.956	-85.75
3766.636	-84.75
3769.315	-80.75
3771.991	-84.75
3774.665	-87.75
3777.338	-88.75
3780.008	-88.75
3782.677	-90.75
3785.343	-86.75
3788.007	-89.75
3790.67	-92.75
3793.33	-93.75
3795.989	-92.75
3798.645	-94.75
3801.299	-91.75
3803.952	-92.75
3806.602	-95.75
3809.251	-93.75
3811.897	-95.75
3814.542	-90.75
3817.184	-96.75
3819.825	-93.75
3822.463	-93.75
3825.1	-91.75
3827.735	-95.75
3830.367	-93.75
3832.998	-90.75
3835.627	-94.75
3838.253	-94.75
3840.878	-95.75
3843.501	-93.75
3846.122	-92.75
3848.741	-95.75
3851.358	-95.75
3853.973	-96.75
3856.586	-93.75
3859.197	-94.75
3861.806	-97.75
3864.414	-96.75
3867.019	-98.75
3869.622	-102.75
3872.224	-98.75
3874.823	-98.75
3877.421	-99.75
3880.016	-97.75
3882.61	-94.75
3885.202	-96.75
3887.792	-98.75
3890.38	-97.75
3892.966	-101.75
3895.55	-100.75
3898.132	-101.75
3900.713	-100.75
3903.291	-105.75
3905.868	-102.75
3908.442	-104.75
3911.015	-104.75
3913.586	-100.75
3916.155	-99.75
3918.722	-100.75
3921.287	-99.75
3923.85	-101.75
3926.411	-99.75
3928.971	-99.75
3931.528	-101.75
3934.084	-103.75
3936.638	-104.75
3939.19	-104.75
3941.74	-107.75
3944.288	-109.75
3946.834	-109.75
3949.378	-108.75
3951.921	-106.75
3954.462	-107.75
3957	-108.75
3959.537	-108.75
3962.072	-107.75
3964.606	-108.75
3967.137	-106.75
3969.667	-106.75
3972.194	-105.75
3974.72	-103.75
3977.244	-99.75
3979.766	-104.75
3982.286	-102.75
3984.805	-100.75
3987.321	-102.75
3989.836	-102.75
3992.349	-101.75
3994.86	-103.75
3997.369	-105.75
3999.877	-105.75
4002.382	-98.75
4004.886	-102.75
4007.388	-107.75
4009.888	-103.75
4012.386	-103.75
4014.883	-104.75
4017.377	-103.75
4019.87	-103.75
4022.361	-105.75
4024.85	-103.75
4027.338	-102.75
4029.823	-103.75
4032.307	-104.75
4034.789	-102.75
4037.269	-104.75
4039.747	-99.75
4042.224	-102.75
4044.699	-103.75
4047.172	-107.75
4049.643	-104.75
4052.112	-104.75
4054.58	-102.75
4057.046	-105.75
4059.51	-103.75
4061.972	-106.75
4064.432	-101.75
4066.891	-107.75
4069.348	-106.75
4071.803	-110.75
4074.256	-106.75
4076.708	-104.75
4079.158	-107.75
4081.606	-107.75
4084.052	-107.75
4086.497	-104.75
4088.939	-105.75
4091.38	-102.75
4093.819	-104.75
4096.257	-108.75
4098.693	-107.75
4101.127	-108.75
4103.559	-111.75
4105.989	-73.75
4108.418	-69.75
4110.845	-63.75
4113.27	-54.75
4115.694	-50.75
4118.115	-42.75
4120.535	-103.75
4122.954	-104.75
4125.37	-105.75
4127.785	-101.75
4130.198	-101.75
4132.609	-104.75
4135.019	-110.75
4137.427	-106.75
4139.833	-107.75
4142.237	-103.75
