Data from I0.75_T5s_Bsub_water_1-10^4_2_RamanShift_1.txt Node
Date: Mon Mar 13 15:09:27 IST 2017
User: aro
Spectrometer: QEPB0276
Trigger mode: 0
Integration Time (sec): 5.000000E0
Scans to average: 1
Electric dark correction enabled: true
Nonlinearity correction enabled: false
Boxcar width: 0
XAxis mode: Raman Shifts
Number of Pixels in Spectrum: 1044
>>>>>Begin Spectral Data<<<<<
160.701	-31.75
166.742	3.25
172.777	93.25
178.805	379.25
184.826	1100.25
190.841	2345.25
196.849	3773.25
202.85	4698.25
208.845	4948.25
214.833	4815.25
220.815	4712.25
226.789	4612.25
232.758	4558.25
238.719	4462.25
244.674	4375.25
250.623	4255.25
256.565	4132.25
262.5	3991.25
268.429	3882.25
274.351	3793.25
280.267	3692.25
286.176	3626.25
292.079	3538.25
297.975	3451.25
303.865	3370.25
309.748	3300.25
315.625	3239.25
321.495	3177.25
327.359	3144.25
333.217	3096.25
339.068	3051.25
344.912	3025.25
350.751	2969.25
356.583	2978.25
362.408	2952.25
368.227	2967.25
374.04	2930.25
379.847	2937.25
385.647	2915.25
391.44	2945.25
397.228	2944.25
403.009	2932.25
408.784	2942.25
414.553	2932.25
420.315	2918.25
426.071	2950.25
431.821	2941.25
437.565	2949.25
443.302	2927.25
449.033	2932.25
454.758	2893.25
460.477	2906.25
466.189	2910.25
471.896	2901.25
477.596	2865.25
483.29	2859.25
488.978	2862.25
494.66	2842.25
500.335	2828.25
506.005	2808.25
511.668	2784.25
517.325	2734.25
522.977	2719.25
528.622	2687.25
534.261	2660.25
539.894	2675.25
545.521	2649.25
551.141	2637.25
556.756	2639.25
562.365	2614.25
567.968	2600.25
573.565	2625.25
579.155	2599.25
584.74	2588.25
590.319	2588.25
595.892	2574.25
601.459	2557.25
607.02	2565.25
612.575	2534.25
618.124	2521.25
623.667	2499.25
629.204	2490.25
634.735	2487.25
640.261	2484.25
645.781	2459.25
651.294	2483.25
656.802	2447.25
662.304	2460.25
667.8	2458.25
673.29	2439.25
678.775	2446.25
684.254	2431.25
689.726	2441.25
695.193	2427.25
700.655	2407.25
706.11	2405.25
711.56	2388.25
717.004	2399.25
722.442	2375.25
727.874	2388.25
733.301	2373.25
738.722	2370.25
744.137	2364.25
749.547	2364.25
754.951	2373.25
760.349	2366.25
765.741	2364.25
771.128	2397.25
776.509	2387.25
781.885	2381.25
787.254	2377.25
792.618	2382.25
797.977	2379.25
803.33	2371.25
808.677	2356.25
814.019	2340.25
819.355	2330.25
824.686	2313.25
830.011	2318.25
835.33	2318.25
840.644	2313.25
845.952	2330.25
851.255	2324.25
856.552	2328.25
861.844	2328.25
867.13	2329.25
872.41	2309.25
877.686	2311.25
882.955	2269.25
888.219	2271.25
893.478	2233.25
898.731	2229.25
903.979	2211.25
909.221	2190.25
914.458	2208.25
919.69	2207.25
924.916	2206.25
930.136	2219.25
935.351	2226.25
940.561	2218.25
945.766	2237.25
950.965	2219.25
956.158	2213.25
961.347	2191.25
966.529	2180.25
971.707	2175.25
976.879	2142.25
982.046	2124.25
987.208	2106.25
992.364	2119.25
997.515	2138.25
1002.66	2164.25
1007.801	2193.25
1012.936	2193.25
1018.066	2211.25
1023.19	2261.25
1028.309	2228.25
1033.423	2231.25
1038.532	2217.25
1043.636	2225.25
1048.734	2199.25
1053.827	2188.25
1058.915	2172.25
1063.998	2144.25
1069.075	2148.25
1074.147	2160.25
1079.214	2170.25
1084.276	2183.25
1089.333	2204.25
1094.385	2234.25
1099.431	2251.25
1104.472	2253.25
1109.509	2238.25
1114.54	2231.25
1119.565	2193.25
1124.586	2176.25
1129.602	2166.25
1134.613	2155.25
1139.618	2144.25
1144.619	2153.25
1149.614	2151.25
1154.604	2177.25
1159.589	2180.25
1164.57	2191.25
1169.545	2195.25
1174.515	2214.25
1179.48	2203.25
1184.44	2184.25
1189.395	2181.25
1194.345	2176.25
1199.29	2171.25
1204.23	2175.25
1209.165	2184.25
1214.095	2211.25
1219.021	2215.25
1223.941	2241.25
1228.856	2244.25
1233.766	2273.25
1238.672	2280.25
1243.572	2282.25
1248.467	2258.25
1253.358	2227.25
1258.244	2205.25
1263.124	2158.25
1268	2152.25
1272.871	2118.25
1277.737	2112.25
1282.599	2134.25
1287.455	2121.25
1292.306	2122.25
1297.153	2166.25
1301.995	2189.25
1306.832	2189.25
1311.664	2211.25
1316.491	2205.25
1321.314	2198.25
1326.132	2190.25
1330.945	2151.25
1335.753	2118.25
1340.556	2080.25
1345.354	2044.25
1350.148	2039.25
1354.937	2014.25
1359.722	2013.25
1364.501	2048.25
1369.276	2089.25
1374.046	2128.25
1378.811	2149.25
1383.572	2133.25
1388.327	2103.25
1393.079	2089.25
1397.825	2057.25
1402.567	2031.25
1407.304	2042.25
1412.036	2003.25
1416.764	2005.25
1421.487	1993.25
1426.205	2002.25
1430.919	2025.25
1435.628	2026.25
1440.333	2052.25
1445.032	2053.25
1449.727	2072.25
1454.418	2084.25
1459.104	2071.25
1463.785	2067.25
1468.462	2035.25
1473.134	2043.25
1477.802	2002.25
1482.465	2006.25
1487.123	2011.25
1491.777	2015.25
1496.426	2022.25
1501.071	2029.25
1505.711	2060.25
1510.347	2100.25
1514.978	2120.25
1519.604	2138.25
1524.226	2149.25
1528.844	2160.25
1533.457	2155.25
1538.065	2126.25
1542.669	2142.25
1547.269	2139.25
1551.864	2119.25
1556.454	2113.25
1561.041	2147.25
1565.622	2149.25
1570.199	2144.25
1574.772	2182.25
1579.34	2185.25
1583.904	2223.25
1588.464	2218.25
1593.019	2229.25
1597.569	2228.25
1602.115	2218.25
1606.657	2202.25
1611.195	2204.25
1615.728	2202.25
1620.256	2181.25
1624.78	2206.25
1629.3	2232.25
1633.816	2257.25
1638.327	2273.25
1642.834	2298.25
1647.336	2304.25
1651.834	2308.25
1656.328	2323.25
1660.817	2307.25
1665.302	2318.25
1669.783	2288.25
1674.259	2239.25
1678.732	2199.25
1683.199	2142.25
1687.663	2076.25
1692.122	2036.25
1696.577	2014.25
1701.028	2006.25
1705.474	1999.25
1709.917	2000.25
1714.355	1967.25
1718.788	1934.25
1723.218	1912.25
1727.643	1894.25
1732.064	1881.25
1736.481	1840.25
1740.893	1818.25
1745.301	1791.25
1749.705	1762.25
1754.105	1732.25
1758.501	1687.25
1762.893	1658.25
1767.28	1652.25
1771.663	1651.25
1776.042	1637.25
1780.417	1655.25
1784.787	1665.25
1789.154	1675.25
1793.516	1711.25
1797.874	1733.25
1802.228	1737.25
1806.578	1750.25
1810.924	1748.25
1815.266	1717.25
1819.603	1695.25
1823.937	1691.25
1828.266	1669.25
1832.591	1649.25
1836.913	1635.25
1841.23	1619.25
1845.543	1616.25
1849.852	1622.25
1854.156	1607.25
1858.457	1596.25
1862.754	1628.25
1867.047	1625.25
1871.335	1604.25
1875.62	1634.25
1879.9	1630.25
1884.177	1625.25
1888.449	1627.25
1892.718	1635.25
1896.982	1611.25
1901.243	1602.25
1905.499	1598.25
1909.752	1607.25
1914	1615.25
1918.245	1622.25
1922.485	1622.25
1926.722	1619.25
1930.954	1636.25
1935.183	1636.25
1939.408	1649.25
1943.628	1660.25
1947.845	1650.25
1952.058	1659.25
1956.267	1639.25
1960.472	1631.25
1964.673	1621.25
1968.87	1603.25
1973.063	1598.25
1977.252	1574.25
1981.438	1569.25
1985.619	1576.25
1989.797	1555.25
1993.971	1546.25
1998.14	1554.25
2002.306	1553.25
2006.469	1571.25
2010.627	1560.25
2014.781	1559.25
2018.932	1551.25
2023.078	1535.25
2027.221	1540.25
2031.36	1536.25
2035.495	1508.25
2039.627	1493.25
2043.754	1505.25
2047.878	1462.25
2051.998	1465.25
2056.114	1457.25
2060.226	1477.25
2064.334	1477.25
2068.439	1478.25
2072.54	1479.25
2076.637	1495.25
2080.73	1504.25
2084.82	1509.25
2088.906	1504.25
2092.988	1505.25
2097.066	1502.25
2101.14	1472.25
2105.211	1477.25
2109.278	1485.25
2113.342	1473.25
2117.401	1453.25
2121.457	1463.25
2125.509	1459.25
2129.558	1447.25
2133.602	1466.25
2137.643	1457.25
2141.681	1426.25
2145.714	1434.25
2149.744	1440.25
2153.77	1443.25
2157.793	1416.25
2161.812	1418.25
2165.827	1387.25
2169.838	1378.25
2173.846	1358.25
2177.851	1330.25
2181.851	1323.25
2185.848	1324.25
2189.841	1324.25
2193.831	1282.25
2197.817	1289.25
2201.799	1294.25
2205.778	1283.25
2209.753	1288.25
2213.725	1290.25
2217.693	1307.25
2221.657	1291.25
2225.618	1290.25
2229.575	1275.25
2233.529	1282.25
2237.479	1267.25
2241.425	1275.25
2245.368	1239.25
2249.307	1249.25
2253.243	1235.25
2257.175	1214.25
2261.104	1202.25
2265.029	1186.25
2268.95	1184.25
2272.868	1174.25
2276.783	1160.25
2280.694	1148.25
2284.601	1153.25
2288.505	1144.25
2292.405	1130.25
2296.302	1115.25
2300.195	1115.25
2304.085	1085.25
2307.971	1072.25
2311.854	1071.25
2315.734	1057.25
2319.609	1041.25
2323.482	1029.25
2327.351	1045.25
2331.216	1005.25
2335.078	1007.25
2338.937	996.25
2342.792	991.25
2346.643	991.25
2350.492	993.25
2354.336	995.25
2358.178	996.25
2362.015	994.25
2365.85	1006.25
2369.681	1007.25
2373.508	993.25
2377.333	1000.25
2381.153	982.25
2384.971	988.25
2388.785	995.25
2392.595	993.25
2396.402	983.25
2400.206	963.25
2404.007	974.25
2407.804	971.25
2411.597	963.25
2415.388	967.25
2419.174	959.25
2422.958	961.25
2426.738	947.25
2430.515	924.25
2434.289	949.25
2438.059	952.25
2441.825	918.25
2445.589	927.25
2449.349	924.25
2453.106	917.25
2456.859	915.25
2460.61	910.25
2464.356	900.25
2468.1	886.25
2471.84	889.25
2475.577	895.25
2479.311	890.25
2483.041	900.25
2486.768	887.25
2490.492	889.25
2494.213	888.25
2497.93	900.25
2501.644	885.25
2505.355	884.25
2509.062	881.25
2512.766	888.25
2516.467	865.25
2520.165	888.25
2523.859	877.25
2527.551	869.25
2531.239	861.25
2534.923	849.25
2538.605	856.25
2542.283	856.25
2545.958	839.25
2549.63	844.25
2553.299	841.25
2556.964	849.25
2560.626	827.25
2564.285	823.25
2567.941	817.25
2571.594	822.25
2575.243	812.25
2578.89	812.25
2582.533	796.25
2586.173	814.25
2589.809	809.25
2593.443	790.25
2597.073	788.25
2600.701	808.25
2604.325	795.25
2607.946	779.25
2611.564	787.25
2615.178	794.25
2618.79	786.25
2622.398	772.25
2626.004	774.25
2629.606	768.25
2633.205	769.25
2636.801	759.25
2640.394	754.25
2643.983	726.25
2647.57	728.25
2651.153	718.25
2654.734	715.25
2658.311	707.25
2661.885	696.25
2665.456	702.25
2669.025	691.25
2672.589	695.25
2676.151	685.25
2679.71	691.25
2683.266	680.25
2686.819	679.25
2690.368	666.25
2693.915	654.25
2697.458	644.25
2700.999	626.25
2704.536	635.25
2708.071	621.25
2711.602	618.25
2715.13	626.25
2718.656	593.25
2722.178	601.25
2725.697	597.25
2729.214	597.25
2732.727	608.25
2736.237	611.25
2739.744	607.25
2743.249	615.25
2746.75	612.25
2750.248	604.25
2753.743	605.25
2757.236	606.25
2760.725	603.25
2764.211	612.25
2767.695	587.25
2771.175	605.25
2774.652	588.25
2778.127	590.25
2781.598	584.25
2785.067	588.25
2788.532	576.25
2791.995	594.25
2795.455	591.25
2798.911	583.25
2802.365	581.25
2805.816	573.25
2809.264	571.25
2812.709	569.25
2816.151	563.25
2819.59	565.25
2823.026	564.25
2826.46	551.25
2829.89	558.25
2833.318	533.25
2836.742	551.25
2840.164	551.25
2843.583	549.25
2846.999	550.25
2850.412	539.25
2853.822	540.25
2857.229	559.25
2860.634	548.25
2864.035	544.25
2867.434	558.25
2870.83	559.25
2874.223	561.25
2877.613	553.25
2881	549.25
2884.385	551.25
2887.766	544.25
2891.145	541.25
2894.521	543.25
2897.894	534.25
2901.264	522.25
2904.631	527.25
2907.996	530.25
2911.358	528.25
2914.717	526.25
2918.073	534.25
2921.426	538.25
2924.777	521.25
2928.124	526.25
2931.469	534.25
2934.811	529.25
2938.15	533.25
2941.487	541.25
2944.821	537.25
2948.152	542.25
2951.48	532.25
2954.805	530.25
2958.128	531.25
2961.447	537.25
2964.765	534.25
2968.079	544.25
2971.39	555.25
2974.699	547.25
2978.005	560.25
2981.308	561.25
2984.609	571.25
2987.907	576.25
2991.202	591.25
2994.494	598.25
2997.784	608.25
3001.07	625.25
3004.355	620.25
3007.636	629.25
3010.915	630.25
3014.191	636.25
3017.464	636.25
3020.734	650.25
3024.002	641.25
3027.267	647.25
3030.53	643.25
3033.789	650.25
3037.046	660.25
3040.301	658.25
3043.552	663.25
3046.801	673.25
3050.048	694.25
3053.291	702.25
3056.532	702.25
3059.771	723.25
3063.006	732.25
3066.239	760.25
3069.469	772.25
3072.697	791.25
3075.922	792.25
3079.144	809.25
3082.364	827.25
3085.581	845.25
3088.795	853.25
3092.007	862.25
3095.216	867.25
3098.423	875.25
3101.627	900.25
3104.828	909.25
3108.026	929.25
3111.222	937.25
3114.416	949.25
3117.607	983.25
3120.795	984.25
3123.98	1006.25
3127.163	1017.25
3130.344	1037.25
3133.521	1056.25
3136.696	1083.25
3139.869	1092.25
3143.039	1103.25
3146.206	1112.25
3149.371	1120.25
3152.533	1122.25
3155.693	1134.25
3158.85	1160.25
3162.005	1140.25
3165.157	1160.25
3168.306	1149.25
3171.453	1148.25
3174.597	1149.25
3177.739	1139.25
3180.878	1161.25
3184.014	1145.25
3187.149	1147.25
3190.28	1155.25
3193.409	1158.25
3196.536	1153.25
3199.659	1173.25
3202.781	1155.25
3205.9	1163.25
3209.016	1171.25
3212.13	1159.25
3215.241	1150.25
3218.35	1151.25
3221.456	1133.25
3224.56	1116.25
3227.661	1117.25
3230.76	1118.25
3233.856	1086.25
3236.95	1098.25
3240.041	1072.25
3243.13	1078.25
3246.216	1062.25
3249.3	1052.25
3252.382	1051.25
3255.46	1038.25
3258.537	1037.25
3261.611	1042.25
3264.682	1050.25
3267.751	1030.25
3270.818	1026.25
3273.882	1033.25
3276.943	1011.25
3280.002	1012.25
3283.059	1002.25
3286.113	989.25
3289.165	967.25
3292.214	947.25
3295.261	941.25
3298.306	933.25
3301.348	913.25
3304.387	892.25
3307.425	905.25
3310.459	874.25
3313.492	858.25
3316.521	859.25
3319.549	836.25
3322.574	833.25
3325.597	818.25
3328.617	822.25
3331.635	822.25
3334.65	825.25
3337.663	795.25
3340.674	803.25
3343.682	804.25
3346.688	801.25
3349.691	792.25
3352.692	775.25
3355.691	781.25
3358.687	771.25
3361.681	761.25
3364.673	750.25
3367.662	749.25
3370.649	729.25
3373.633	721.25
3376.615	704.25
3379.595	693.25
3382.572	683.25
3385.547	681.25
3388.52	681.25
3391.49	649.25
3394.458	646.25
3397.424	646.25
3400.387	654.25
3403.348	623.25
3406.307	627.25
3409.263	623.25
3412.217	619.25
3415.168	621.25
3418.118	600.25
3421.065	591.25
3424.009	582.25
3426.951	580.25
3429.891	559.25
3432.829	557.25
3435.764	556.25
3438.697	548.25
3441.628	528.25
3444.557	506.25
3447.483	495.25
3450.407	482.25
3453.328	468.25
3456.247	456.25
3459.164	436.25
3462.079	420.25
3464.991	421.25
3467.902	407.25
3470.809	388.25
3473.715	383.25
3476.618	366.25
3479.519	363.25
3482.418	358.25
3485.315	345.25
3488.209	341.25
3491.101	329.25
3493.99	325.25
3496.878	305.25
3499.763	303.25
3502.646	287.25
3505.527	277.25
3508.405	273.25
3511.281	255.25
3514.155	245.25
3517.027	239.25
3519.897	224.25
3522.764	228.25
3525.629	196.25
3528.492	200.25
3531.352	180.25
3534.211	174.25
3537.067	165.25
3539.921	155.25
3542.773	146.25
3545.622	138.25
3548.469	127.25
3551.315	128.25
3554.157	113.25
3556.998	108.25
3559.837	108.25
3562.673	98.25
3565.507	96.25
3568.339	90.25
3571.169	80.25
3573.996	73.25
3576.822	72.25
3579.645	62.25
3582.466	56.25
3585.285	52.25
3588.101	47.25
3590.916	45.25
3593.728	38.25
3596.538	30.25
3599.346	22.25
3602.152	18.25
3604.956	19.25
3607.757	14.25
3610.556	2.25
3613.354	2.25
3616.149	0.25
3618.942	-2.75
3621.732	-9.75
3624.521	-4.75
3627.307	-7.75
3630.092	-10.75
3632.874	-13.75
3635.654	-16.75
3638.432	-14.75
3641.208	-23.75
3643.982	-26.75
3646.753	-24.75
3649.523	-29.75
3652.29	-32.75
3655.055	-34.75
3657.818	-40.75
3660.579	-40.75
3663.338	-42.75
3666.095	-45.75
3668.849	-50.75
3671.602	-49.75
3674.352	-53.75
3677.101	-55.75
3679.847	-54.75
3682.591	-58.75
3685.333	-61.75
3688.073	-58.75
3690.811	-65.75
3693.547	-61.75
3696.281	-64.75
3699.013	-66.75
3701.742	-67.75
3704.47	-67.75
3707.195	-67.75
3709.919	-70.75
3712.64	-75.75
3715.359	-72.75
3718.076	-73.75
3720.792	-76.75
3723.505	-77.75
3726.216	-76.75
3728.925	-79.75
3731.632	-79.75
3734.336	-82.75
3737.039	-80.75
3739.74	-83.75
3742.439	-86.75
3745.136	-79.75
3747.83	-84.75
3750.523	-86.75
3753.213	-85.75
3755.902	-82.75
3758.589	-88.75
3761.273	-84.75
3763.956	-81.75
3766.636	-88.75
3769.315	-85.75
3771.991	-88.75
3774.665	-91.75
3777.338	-89.75
3780.008	-90.75
3782.677	-96.75
3785.343	-92.75
3788.007	-91.75
3790.67	-93.75
3793.33	-94.75
3795.989	-92.75
3798.645	-95.75
3801.299	-96.75
3803.952	-95.75
3806.602	-98.75
3809.251	-90.75
3811.897	-92.75
3814.542	-95.75
3817.184	-97.75
3819.825	-93.75
3822.463	-95.75
3825.1	-93.75
3827.735	-94.75
3830.367	-95.75
3832.998	-97.75
3835.627	-95.75
3838.253	-100.75
3840.878	-95.75
3843.501	-94.75
3846.122	-97.75
3848.741	-98.75
3851.358	-98.75
3853.973	-99.75
3856.586	-98.75
3859.197	-98.75
3861.806	-101.75
3864.414	-104.75
3867.019	-98.75
3869.622	-104.75
3872.224	-102.75
3874.823	-99.75
3877.421	-97.75
3880.016	-98.75
3882.61	-97.75
3885.202	-96.75
3887.792	-97.75
3890.38	-96.75
3892.966	-98.75
3895.55	-102.75
3898.132	-98.75
3900.713	-103.75
3903.291	-105.75
3905.868	-105.75
3908.442	-105.75
3911.015	-108.75
3913.586	-104.75
3916.155	-101.75
3918.722	-103.75
3921.287	-104.75
3923.85	-105.75
3926.411	-103.75
3928.971	-105.75
3931.528	-106.75
3934.084	-108.75
3936.638	-105.75
3939.19	-105.75
3941.74	-109.75
3944.288	-112.75
3946.834	-110.75
3949.378	-107.75
3951.921	-107.75
3954.462	-105.75
3957	-104.75
3959.537	-107.75
3962.072	-106.75
3964.606	-107.75
3967.137	-106.75
3969.667	-106.75
3972.194	-102.75
3974.72	-102.75
3977.244	-99.75
3979.766	-102.75
3982.286	-103.75
3984.805	-103.75
3987.321	-106.75
3989.836	-105.75
3992.349	-107.75
3994.86	-107.75
3997.369	-105.75
3999.877	-110.75
4002.382	-106.75
4004.886	-107.75
4007.388	-109.75
4009.888	-106.75
4012.386	-111.75
4014.883	-107.75
4017.377	-106.75
4019.87	-106.75
4022.361	-108.75
4024.85	-107.75
4027.338	-105.75
4029.823	-103.75
4032.307	-106.75
4034.789	-103.75
4037.269	-105.75
4039.747	-104.75
4042.224	-105.75
4044.699	-103.75
4047.172	-107.75
4049.643	-104.75
4052.112	-105.75
4054.58	-104.75
4057.046	-102.75
4059.51	-105.75
4061.972	-107.75
4064.432	-105.75
4066.891	-109.75
4069.348	-108.75
4071.803	-111.75
4074.256	-108.75
4076.708	-111.75
4079.158	-110.75
4081.606	-111.75
4084.052	-109.75
4086.497	-106.75
4088.939	-105.75
4091.38	-108.75
4093.819	-108.75
4096.257	-111.75
4098.693	-113.75
4101.127	-113.75
4103.559	-115.75
4105.989	-70.75
4108.418	-68.75
4110.845	-68.75
4113.27	-61.75
4115.694	-55.75
4118.115	-46.75
4120.535	-104.75
4122.954	-107.75
4125.37	-109.75
4127.785	-103.75
4130.198	-106.75
4132.609	-104.75
4135.019	-111.75
4137.427	-110.75
4139.833	-111.75
4142.237	-109.75
