Data from I0.75_T5s_Bsub_water_1-10^2_1_RamanShift_1.txt Node
Date: Mon Mar 13 15:11:32 IST 2017
User: aro
Spectrometer: QEPB0276
Trigger mode: 0
Integration Time (sec): 5.000000E0
Scans to average: 1
Electric dark correction enabled: true
Nonlinearity correction enabled: false
Boxcar width: 0
XAxis mode: Raman Shifts
Number of Pixels in Spectrum: 1044
>>>>>Begin Spectral Data<<<<<
160.701	-28.62
166.742	0.38
172.777	88.38
178.805	366.38
184.826	1079.38
190.841	2297.38
196.849	3678.38
202.85	4585.38
208.845	4815.38
214.833	4683.38
220.815	4533.38
226.789	4459.38
232.758	4388.38
238.719	4305.38
244.674	4212.38
250.623	4057.38
256.565	3934.38
262.5	3779.38
268.429	3661.38
274.351	3556.38
280.267	3487.38
286.176	3391.38
292.079	3302.38
297.975	3199.38
303.865	3135.38
309.748	3050.38
315.625	2986.38
321.495	2949.38
327.359	2868.38
333.217	2856.38
339.068	2815.38
344.912	2780.38
350.751	2760.38
356.583	2750.38
362.408	2725.38
368.227	2717.38
374.04	2720.38
379.847	2710.38
385.647	2718.38
391.44	2720.38
397.228	2722.38
403.009	2716.38
408.784	2725.38
414.553	2725.38
420.315	2714.38
426.071	2727.38
431.821	2728.38
437.565	2724.38
443.302	2707.38
449.033	2707.38
454.758	2699.38
460.477	2675.38
466.189	2660.38
471.896	2668.38
477.596	2636.38
483.29	2664.38
488.978	2634.38
494.66	2629.38
500.335	2586.38
506.005	2562.38
511.668	2528.38
517.325	2502.38
522.977	2463.38
528.622	2454.38
534.261	2433.38
539.894	2426.38
545.521	2417.38
551.141	2413.38
556.756	2395.38
562.365	2387.38
567.968	2391.38
573.565	2384.38
579.155	2359.38
584.74	2361.38
590.319	2325.38
595.892	2329.38
601.459	2330.38
607.02	2303.38
612.575	2310.38
618.124	2273.38
623.667	2257.38
629.204	2249.38
634.735	2252.38
640.261	2228.38
645.781	2219.38
651.294	2222.38
656.802	2205.38
662.304	2198.38
667.8	2206.38
673.29	2193.38
678.775	2178.38
684.254	2194.38
689.726	2178.38
695.193	2189.38
700.655	2162.38
706.11	2155.38
711.56	2156.38
717.004	2150.38
722.442	2131.38
727.874	2129.38
733.301	2112.38
738.722	2108.38
744.137	2108.38
749.547	2117.38
754.951	2112.38
760.349	2105.38
765.741	2139.38
771.128	2132.38
776.509	2115.38
781.885	2124.38
787.254	2127.38
792.618	2130.38
797.977	2100.38
803.33	2100.38
808.677	2080.38
814.019	2068.38
819.355	2060.38
824.686	2042.38
830.011	2037.38
835.33	2049.38
840.644	2057.38
845.952	2046.38
851.255	2042.38
856.552	2040.38
861.844	2039.38
867.13	2038.38
872.41	2039.38
877.686	2030.38
882.955	2017.38
888.219	1983.38
893.478	1961.38
898.731	1952.38
903.979	1942.38
909.221	1918.38
914.458	1910.38
919.69	1909.38
924.916	1937.38
930.136	1924.38
935.351	1922.38
940.561	1937.38
945.766	1934.38
950.965	1901.38
956.158	1901.38
961.347	1897.38
966.529	1869.38
971.707	1841.38
976.879	1844.38
982.046	1825.38
987.208	1820.38
992.364	1820.38
997.515	1844.38
1002.66	1852.38
1007.801	1874.38
1012.936	1892.38
1018.066	1899.38
1023.19	1910.38
1028.309	1942.38
1033.423	1915.38
1038.532	1913.38
1043.636	1912.38
1048.734	1889.38
1053.827	1873.38
1058.915	1873.38
1063.998	1840.38
1069.075	1863.38
1074.147	1855.38
1079.214	1863.38
1084.276	1899.38
1089.333	1882.38
1094.385	1920.38
1099.431	1921.38
1104.472	1926.38
1109.509	1922.38
1114.54	1899.38
1119.565	1896.38
1124.586	1872.38
1129.602	1836.38
1134.613	1836.38
1139.618	1850.38
1144.619	1826.38
1149.614	1847.38
1154.604	1848.38
1159.589	1857.38
1164.57	1879.38
1169.545	1892.38
1174.515	1892.38
1179.48	1882.38
1184.44	1894.38
1189.395	1859.38
1194.345	1879.38
1199.29	1844.38
1204.23	1858.38
1209.165	1869.38
1214.095	1903.38
1219.021	1896.38
1223.941	1918.38
1228.856	1924.38
1233.766	1930.38
1238.672	1941.38
1243.572	1943.38
1248.467	1933.38
1253.358	1911.38
1258.244	1879.38
1263.124	1870.38
1268	1829.38
1272.871	1836.38
1277.737	1805.38
1282.599	1805.38
1287.455	1812.38
1292.306	1838.38
1297.153	1852.38
1301.995	1840.38
1306.832	1867.38
1311.664	1863.38
1316.491	1878.38
1321.314	1871.38
1326.132	1854.38
1330.945	1826.38
1335.753	1799.38
1340.556	1770.38
1345.354	1719.38
1350.148	1731.38
1354.937	1709.38
1359.722	1730.38
1364.501	1752.38
1369.276	1777.38
1374.046	1792.38
1378.811	1842.38
1383.572	1832.38
1388.327	1827.38
1393.079	1819.38
1397.825	1775.38
1402.567	1750.38
1407.304	1725.38
1412.036	1716.38
1416.764	1719.38
1421.487	1704.38
1426.205	1717.38
1430.919	1723.38
1435.628	1736.38
1440.333	1745.38
1445.032	1759.38
1449.727	1777.38
1454.418	1784.38
1459.104	1756.38
1463.785	1763.38
1468.462	1755.38
1473.134	1725.38
1477.802	1719.38
1482.465	1715.38
1487.123	1715.38
1491.777	1727.38
1496.426	1736.38
1501.071	1755.38
1505.711	1776.38
1510.347	1793.38
1514.978	1825.38
1519.604	1847.38
1524.226	1852.38
1528.844	1839.38
1533.457	1858.38
1538.065	1849.38
1542.669	1851.38
1547.269	1848.38
1551.864	1844.38
1556.454	1838.38
1561.041	1857.38
1565.622	1854.38
1570.199	1850.38
1574.772	1875.38
1579.34	1885.38
1583.904	1894.38
1588.464	1933.38
1593.019	1933.38
1597.569	1935.38
1602.115	1920.38
1606.657	1933.38
1611.195	1914.38
1615.728	1916.38
1620.256	1939.38
1624.78	1951.38
1629.3	1941.38
1633.816	1984.38
1638.327	1990.38
1642.834	2013.38
1647.336	2049.38
1651.834	2051.38
1656.328	2046.38
1660.817	2041.38
1665.302	2037.38
1669.783	2020.38
1674.259	1982.38
1678.732	1935.38
1683.199	1890.38
1687.663	1806.38
1692.122	1774.38
1696.577	1723.38
1701.028	1740.38
1705.474	1744.38
1709.917	1731.38
1714.355	1714.38
1718.788	1679.38
1723.218	1646.38
1727.643	1624.38
1732.064	1597.38
1736.481	1578.38
1740.893	1541.38
1745.301	1515.38
1749.705	1473.38
1754.105	1447.38
1758.501	1424.38
1762.893	1408.38
1767.28	1380.38
1771.663	1384.38
1776.042	1370.38
1780.417	1384.38
1784.787	1397.38
1789.154	1439.38
1793.516	1448.38
1797.874	1445.38
1802.228	1473.38
1806.578	1488.38
1810.924	1466.38
1815.266	1453.38
1819.603	1440.38
1823.937	1417.38
1828.266	1404.38
1832.591	1369.38
1836.913	1369.38
1841.23	1352.38
1845.543	1356.38
1849.852	1345.38
1854.156	1329.38
1858.457	1331.38
1862.754	1350.38
1867.047	1338.38
1871.335	1352.38
1875.62	1347.38
1879.9	1358.38
1884.177	1368.38
1888.449	1371.38
1892.718	1327.38
1896.982	1346.38
1901.243	1346.38
1905.499	1334.38
1909.752	1349.38
1914	1344.38
1918.245	1333.38
1922.485	1360.38
1926.722	1350.38
1930.954	1382.38
1935.183	1387.38
1939.408	1377.38
1943.628	1384.38
1947.845	1386.38
1952.058	1407.38
1956.267	1399.38
1960.472	1386.38
1964.673	1355.38
1968.87	1345.38
1973.063	1346.38
1977.252	1332.38
1981.438	1321.38
1985.619	1325.38
1989.797	1313.38
1993.971	1297.38
1998.14	1304.38
2002.306	1319.38
2006.469	1301.38
2010.627	1314.38
2014.781	1327.38
2018.932	1284.38
2023.078	1288.38
2027.221	1298.38
2031.36	1288.38
2035.495	1264.38
2039.627	1263.38
2043.754	1261.38
2047.878	1247.38
2051.998	1245.38
2056.114	1244.38
2060.226	1256.38
2064.334	1249.38
2068.439	1246.38
2072.54	1258.38
2076.637	1283.38
2080.73	1294.38
2084.82	1281.38
2088.906	1261.38
2092.988	1281.38
2097.066	1282.38
2101.14	1265.38
2105.211	1257.38
2109.278	1277.38
2113.342	1245.38
2117.401	1257.38
2121.457	1246.38
2125.509	1243.38
2129.558	1230.38
2133.602	1233.38
2137.643	1227.38
2141.681	1239.38
2145.714	1222.38
2149.744	1228.38
2153.77	1208.38
2157.793	1198.38
2161.812	1185.38
2165.827	1169.38
2169.838	1178.38
2173.846	1139.38
2177.851	1146.38
2181.851	1118.38
2185.848	1092.38
2189.841	1105.38
2193.831	1090.38
2197.817	1089.38
2201.799	1093.38
2205.778	1078.38
2209.753	1086.38
2213.725	1076.38
2217.693	1087.38
2221.657	1078.38
2225.618	1088.38
2229.575	1072.38
2233.529	1078.38
2237.479	1061.38
2241.425	1058.38
2245.368	1040.38
2249.307	1047.38
2253.243	1029.38
2257.175	1010.38
2261.104	997.38
2265.029	988.38
2268.95	990.38
2272.868	979.38
2276.783	958.38
2280.694	968.38
2284.601	963.38
2288.505	953.38
2292.405	944.38
2296.302	937.38
2300.195	930.38
2304.085	917.38
2307.971	896.38
2311.854	904.38
2315.734	886.38
2319.609	868.38
2323.482	864.38
2327.351	838.38
2331.216	825.38
2335.078	833.38
2338.937	834.38
2342.792	835.38
2346.643	817.38
2350.492	821.38
2354.336	812.38
2358.178	837.38
2362.015	813.38
2365.85	830.38
2369.681	833.38
2373.508	836.38
2377.333	826.38
2381.153	817.38
2384.971	829.38
2388.785	801.38
2392.595	820.38
2396.402	810.38
2400.206	806.38
2404.007	796.38
2407.804	808.38
2411.597	786.38
2415.388	796.38
2419.174	785.38
2422.958	776.38
2426.738	784.38
2430.515	779.38
2434.289	763.38
2438.059	778.38
2441.825	771.38
2445.589	769.38
2449.349	759.38
2453.106	738.38
2456.859	745.38
2460.61	740.38
2464.356	738.38
2468.1	735.38
2471.84	749.38
2475.577	737.38
2479.311	729.38
2483.041	730.38
2486.768	734.38
2490.492	728.38
2494.213	731.38
2497.93	742.38
2501.644	737.38
2505.355	737.38
2509.062	735.38
2512.766	736.38
2516.467	723.38
2520.165	721.38
2523.859	716.38
2527.551	706.38
2531.239	704.38
2534.923	705.38
2538.605	697.38
2542.283	697.38
2545.958	703.38
2549.63	688.38
2553.299	689.38
2556.964	687.38
2560.626	680.38
2564.285	677.38
2567.941	665.38
2571.594	662.38
2575.243	665.38
2578.89	658.38
2582.533	659.38
2586.173	661.38
2589.809	659.38
2593.443	659.38
2597.073	642.38
2600.701	643.38
2604.325	639.38
2607.946	643.38
2611.564	658.38
2615.178	639.38
2618.79	637.38
2622.398	640.38
2626.004	634.38
2629.606	631.38
2633.205	623.38
2636.801	619.38
2640.394	613.38
2643.983	598.38
2647.57	594.38
2651.153	594.38
2654.734	583.38
2658.311	575.38
2661.885	576.38
2665.456	565.38
2669.025	565.38
2672.589	551.38
2676.151	562.38
2679.71	554.38
2683.266	551.38
2686.819	543.38
2690.368	549.38
2693.915	525.38
2697.458	523.38
2700.999	518.38
2704.536	506.38
2708.071	508.38
2711.602	498.38
2715.13	500.38
2718.656	489.38
2722.178	487.38
2725.697	478.38
2729.214	492.38
2732.727	485.38
2736.237	485.38
2739.744	489.38
2743.249	498.38
2746.75	503.38
2750.248	502.38
2753.743	494.38
2757.236	491.38
2760.725	504.38
2764.211	500.38
2767.695	501.38
2771.175	491.38
2774.652	486.38
2778.127	486.38
2781.598	484.38
2785.067	478.38
2788.532	474.38
2791.995	479.38
2795.455	478.38
2798.911	480.38
2802.365	476.38
2805.816	481.38
2809.264	472.38
2812.709	474.38
2816.151	462.38
2819.59	460.38
2823.026	464.38
2826.46	464.38
2829.89	467.38
2833.318	448.38
2836.742	453.38
2840.164	455.38
2843.583	455.38
2846.999	452.38
2850.412	447.38
2853.822	455.38
2857.229	458.38
2860.634	461.38
2864.035	464.38
2867.434	467.38
2870.83	459.38
2874.223	457.38
2877.613	465.38
2881	455.38
2884.385	448.38
2887.766	455.38
2891.145	459.38
2894.521	457.38
2897.894	450.38
2901.264	442.38
2904.631	451.38
2907.996	448.38
2911.358	450.38
2914.717	455.38
2918.073	454.38
2921.426	452.38
2924.777	450.38
2928.124	448.38
2931.469	454.38
2934.811	457.38
2938.15	458.38
2941.487	471.38
2944.821	473.38
2948.152	482.38
2951.48	478.38
2954.805	483.38
2958.128	479.38
2961.447	475.38
2964.765	481.38
2968.079	477.38
2971.39	495.38
2974.699	499.38
2978.005	507.38
2981.308	514.38
2984.609	521.38
2987.907	523.38
2991.202	558.38
2994.494	556.38
2997.784	557.38
3001.07	573.38
3004.355	588.38
3007.636	583.38
3010.915	601.38
3014.191	603.38
3017.464	602.38
3020.734	605.38
3024.002	614.38
3027.267	610.38
3030.53	622.38
3033.789	627.38
3037.046	632.38
3040.301	639.38
3043.552	644.38
3046.801	656.38
3050.048	673.38
3053.291	679.38
3056.532	695.38
3059.771	715.38
3063.006	713.38
3066.239	736.38
3069.469	761.38
3072.697	765.38
3075.922	787.38
3079.144	805.38
3082.364	821.38
3085.581	833.38
3088.795	837.38
3092.007	855.38
3095.216	871.38
3098.423	893.38
3101.627	903.38
3104.828	920.38
3108.026	949.38
3111.222	948.38
3114.416	976.38
3117.607	1001.38
3120.795	993.38
3123.98	1011.38
3127.163	1050.38
3130.344	1070.38
3133.521	1086.38
3136.696	1116.38
3139.869	1111.38
3143.039	1146.38
3146.206	1146.38
3149.371	1158.38
3152.533	1174.38
3155.693	1171.38
3158.85	1183.38
3162.005	1182.38
3165.157	1191.38
3168.306	1182.38
3171.453	1191.38
3174.597	1196.38
3177.739	1195.38
3180.878	1193.38
3184.014	1201.38
3187.149	1208.38
3190.28	1209.38
3193.409	1219.38
3196.536	1210.38
3199.659	1212.38
3202.781	1232.38
3205.9	1215.38
3209.016	1211.38
3212.13	1218.38
3215.241	1204.38
3218.35	1197.38
3221.456	1181.38
3224.56	1191.38
3227.661	1160.38
3230.76	1169.38
3233.856	1154.38
3236.95	1150.38
3240.041	1146.38
3243.13	1122.38
3246.216	1118.38
3249.3	1111.38
3252.382	1128.38
3255.46	1113.38
3258.537	1114.38
3261.611	1105.38
3264.682	1098.38
3267.751	1090.38
3270.818	1095.38
3273.882	1086.38
3276.943	1083.38
3280.002	1080.38
3283.059	1067.38
3286.113	1040.38
3289.165	1024.38
3292.214	1025.38
3295.261	1009.38
3298.306	991.38
3301.348	969.38
3304.387	950.38
3307.425	946.38
3310.459	922.38
3313.492	905.38
3316.521	898.38
3319.549	887.38
3322.574	863.38
3325.597	860.38
3328.617	862.38
3331.635	856.38
3334.65	859.38
3337.663	846.38
3340.674	833.38
3343.682	840.38
3346.688	838.38
3349.691	831.38
3352.692	827.38
3355.691	800.38
3358.687	828.38
3361.681	800.38
3364.673	800.38
3367.662	785.38
3370.649	763.38
3373.633	773.38
3376.615	757.38
3379.595	742.38
3382.572	734.38
3385.547	720.38
3388.52	723.38
3391.49	710.38
3394.458	677.38
3397.424	680.38
3400.387	679.38
3403.348	669.38
3406.307	662.38
3409.263	658.38
3412.217	648.38
3415.168	639.38
3418.118	636.38
3421.065	635.38
3424.009	618.38
3426.951	609.38
3429.891	604.38
3432.829	601.38
3435.764	584.38
3438.697	565.38
3441.628	556.38
3444.557	544.38
3447.483	526.38
3450.407	517.38
3453.328	509.38
3456.247	496.38
3459.164	471.38
3462.079	464.38
3464.991	456.38
3467.902	432.38
3470.809	434.38
3473.715	421.38
3476.618	402.38
3479.519	388.38
3482.418	384.38
3485.315	381.38
3488.209	365.38
3491.101	359.38
3493.99	341.38
3496.878	330.38
3499.763	328.38
3502.646	318.38
3505.527	297.38
3508.405	291.38
3511.281	285.38
3514.155	274.38
3517.027	263.38
3519.897	245.38
3522.764	237.38
3525.629	221.38
3528.492	212.38
3531.352	206.38
3534.211	193.38
3537.067	185.38
3539.921	171.38
3542.773	164.38
3545.622	147.38
3548.469	144.38
3551.315	135.38
3554.157	132.38
3556.998	124.38
3559.837	127.38
3562.673	108.38
3565.507	108.38
3568.339	100.38
3571.169	93.38
3573.996	86.38
3576.822	84.38
3579.645	81.38
3582.466	73.38
3585.285	66.38
3588.101	59.38
3590.916	53.38
3593.728	46.38
3596.538	39.38
3599.346	40.38
3602.152	31.38
3604.956	24.38
3607.757	18.38
3610.556	15.38
3613.354	15.38
3616.149	12.38
3618.942	8.38
3621.732	0.38
3624.521	-2.62
3627.307	-2.62
3630.092	-4.62
3632.874	-8.62
3635.654	-7.62
3638.432	-16.62
3641.208	-16.62
3643.982	-22.62
3646.753	-18.62
3649.523	-22.62
3652.29	-30.62
3655.055	-34.62
3657.818	-32.62
3660.579	-32.62
3663.338	-38.62
3666.095	-36.62
3668.849	-42.62
3671.602	-42.62
3674.352	-48.62
3677.101	-49.62
3679.847	-50.62
3682.591	-51.62
3685.333	-50.62
3688.073	-51.62
3690.811	-57.62
3693.547	-50.62
3696.281	-59.62
3699.013	-64.62
3701.742	-63.62
3704.47	-65.62
3707.195	-63.62
3709.919	-68.62
3712.64	-70.62
3715.359	-68.62
3718.076	-73.62
3720.792	-74.62
3723.505	-79.62
3726.216	-78.62
3728.925	-77.62
3731.632	-74.62
3734.336	-78.62
3737.039	-75.62
3739.74	-82.62
3742.439	-79.62
3745.136	-79.62
3747.83	-74.62
3750.523	-80.62
3753.213	-75.62
3755.902	-76.62
3758.589	-77.62
3761.273	-78.62
3763.956	-78.62
3766.636	-79.62
3769.315	-79.62
3771.991	-80.62
3774.665	-82.62
3777.338	-82.62
3780.008	-87.62
3782.677	-88.62
3785.343	-85.62
3788.007	-89.62
3790.67	-93.62
3793.33	-90.62
3795.989	-88.62
3798.645	-90.62
3801.299	-89.62
3803.952	-89.62
3806.602	-94.62
3809.251	-90.62
3811.897	-92.62
3814.542	-91.62
3817.184	-94.62
3819.825	-91.62
3822.463	-89.62
3825.1	-90.62
3827.735	-93.62
3830.367	-96.62
3832.998	-90.62
3835.627	-92.62
3838.253	-88.62
3840.878	-90.62
3843.501	-86.62
3846.122	-90.62
3848.741	-90.62
3851.358	-92.62
3853.973	-90.62
3856.586	-90.62
3859.197	-90.62
3861.806	-95.62
3864.414	-98.62
3867.019	-94.62
3869.622	-96.62
3872.224	-97.62
3874.823	-94.62
3877.421	-93.62
3880.016	-92.62
3882.61	-90.62
3885.202	-89.62
3887.792	-92.62
3890.38	-91.62
3892.966	-99.62
3895.55	-99.62
3898.132	-96.62
3900.713	-96.62
3903.291	-102.62
3905.868	-97.62
3908.442	-102.62
3911.015	-103.62
3913.586	-97.62
3916.155	-95.62
3918.722	-95.62
3921.287	-99.62
3923.85	-98.62
3926.411	-95.62
3928.971	-98.62
3931.528	-100.62
3934.084	-103.62
3936.638	-98.62
3939.19	-100.62
3941.74	-101.62
3944.288	-105.62
3946.834	-104.62
3949.378	-104.62
3951.921	-105.62
3954.462	-102.62
3957	-105.62
3959.537	-105.62
3962.072	-105.62
3964.606	-107.62
3967.137	-104.62
3969.667	-102.62
3972.194	-103.62
3974.72	-100.62
3977.244	-96.62
3979.766	-100.62
3982.286	-96.62
3984.805	-99.62
3987.321	-99.62
3989.836	-100.62
3992.349	-101.62
3994.86	-98.62
3997.369	-97.62
3999.877	-102.62
4002.382	-97.62
4004.886	-99.62
4007.388	-105.62
4009.888	-101.62
4012.386	-102.62
4014.883	-104.62
4017.377	-99.62
4019.87	-101.62
4022.361	-103.62
4024.85	-103.62
4027.338	-103.62
4029.823	-102.62
4032.307	-100.62
4034.789	-101.62
4037.269	-103.62
4039.747	-100.62
4042.224	-103.62
4044.699	-100.62
4047.172	-102.62
4049.643	-102.62
4052.112	-99.62
4054.58	-99.62
4057.046	-98.62
4059.51	-100.62
4061.972	-101.62
4064.432	-100.62
4066.891	-99.62
4069.348	-96.62
4071.803	-103.62
4074.256	-103.62
4076.708	-103.62
4079.158	-101.62
4081.606	-103.62
4084.052	-103.62
4086.497	-102.62
4088.939	-100.62
4091.38	-99.62
4093.819	-104.62
4096.257	-105.62
4098.693	-104.62
4101.127	-103.62
4103.559	-106.62
4105.989	-61.62
4108.418	-64.62
4110.845	-56.62
4113.27	-53.62
4115.694	-50.62
4118.115	-38.62
4120.535	-100.62
4122.954	-104.62
4125.37	-106.62
4127.785	-101.62
4130.198	-102.62
4132.609	-101.62
4135.019	-109.62
4137.427	-106.62
4139.833	-106.62
4142.237	-103.62
