Data from I0.75_T15s_Bsub_water_1-1_3_RamanShift_1.txt Node
Date: Mon Mar 13 16:02:36 IST 2017
User: aro
Spectrometer: QEPB0276
Trigger mode: 0
Integration Time (sec): 1.500000E1
Scans to average: 1
Electric dark correction enabled: true
Nonlinearity correction enabled: false
Boxcar width: 0
XAxis mode: Raman Shifts
Number of Pixels in Spectrum: 1044
>>>>>Begin Spectral Data<<<<<
160.701	-65.25
166.742	5.75
172.777	216.75
178.805	882.75
184.826	2536.75
190.841	5426.75
196.849	8736.75
202.85	10941.75
208.845	11512.75
214.833	11162.75
220.815	10878.75
226.789	10672.75
232.758	10556.75
238.719	10330.75
244.674	10027.75
250.623	9784.75
256.565	9408.75
262.5	9095.75
268.429	8836.75
274.351	8583.75
280.267	8352.75
286.176	8150.75
292.079	7968.75
297.975	7774.75
303.865	7586.75
309.748	7438.75
315.625	7305.75
321.495	7164.75
327.359	7046.75
333.217	7000.75
339.068	6888.75
344.912	6836.75
350.751	6777.75
356.583	6754.75
362.408	6699.75
368.227	6718.75
374.04	6690.75
379.847	6682.75
385.647	6747.75
391.44	6761.75
397.228	6742.75
403.009	6750.75
408.784	6738.75
414.553	6759.75
420.315	6750.75
426.071	6778.75
431.821	6772.75
437.565	6754.75
443.302	6749.75
449.033	6720.75
454.758	6694.75
460.477	6725.75
466.189	6678.75
471.896	6591.75
477.596	6587.75
483.29	6563.75
488.978	6567.75
494.66	6513.75
500.335	6484.75
506.005	6365.75
511.668	6289.75
517.325	6174.75
522.977	6140.75
528.622	6060.75
534.261	6030.75
539.894	5963.75
545.521	5959.75
551.141	5914.75
556.756	5894.75
562.365	5906.75
567.968	5859.75
573.565	5876.75
579.155	5846.75
584.74	5824.75
590.319	5798.75
595.892	5771.75
601.459	5758.75
607.02	5698.75
612.575	5638.75
618.124	5644.75
623.667	5595.75
629.204	5542.75
634.735	5506.75
640.261	5497.75
645.781	5485.75
651.294	5479.75
656.802	5457.75
662.304	5444.75
667.8	5404.75
673.29	5430.75
678.775	5439.75
684.254	5395.75
689.726	5389.75
695.193	5382.75
700.655	5372.75
706.11	5320.75
711.56	5299.75
717.004	5281.75
722.442	5281.75
727.874	5253.75
733.301	5226.75
738.722	5240.75
744.137	5199.75
749.547	5214.75
754.951	5214.75
760.349	5229.75
765.741	5238.75
771.128	5221.75
776.509	5260.75
781.885	5260.75
787.254	5255.75
792.618	5258.75
797.977	5204.75
803.33	5170.75
808.677	5144.75
814.019	5143.75
819.355	5113.75
824.686	5082.75
830.011	5047.75
835.33	5057.75
840.644	5044.75
845.952	5074.75
851.255	5034.75
856.552	5055.75
861.844	5029.75
867.13	5054.75
872.41	5061.75
877.686	5041.75
882.955	5035.75
888.219	5023.75
893.478	4926.75
898.731	4855.75
903.979	4791.75
909.221	4751.75
914.458	4748.75
919.69	4776.75
924.916	4765.75
930.136	4770.75
935.351	4779.75
940.561	4792.75
945.766	4786.75
950.965	4773.75
956.158	4762.75
961.347	4694.75
966.529	4655.75
971.707	4601.75
976.879	4587.75
982.046	4514.75
987.208	4514.75
992.364	4514.75
997.515	4567.75
1002.66	4579.75
1007.801	4667.75
1012.936	4696.75
1018.066	4720.75
1023.19	4753.75
1028.309	4797.75
1033.423	4772.75
1038.532	4745.75
1043.636	4701.75
1048.734	4691.75
1053.827	4647.75
1058.915	4602.75
1063.998	4579.75
1069.075	4575.75
1074.147	4587.75
1079.214	4631.75
1084.276	4656.75
1089.333	4729.75
1094.385	4759.75
1099.431	4796.75
1104.472	4798.75
1109.509	4772.75
1114.54	4729.75
1119.565	4674.75
1124.586	4621.75
1129.602	4588.75
1134.613	4555.75
1139.618	4556.75
1144.619	4557.75
1149.614	4566.75
1154.604	4581.75
1159.589	4600.75
1164.57	4652.75
1169.545	4640.75
1174.515	4634.75
1179.48	4644.75
1184.44	4610.75
1189.395	4571.75
1194.345	4547.75
1199.29	4563.75
1204.23	4547.75
1209.165	4614.75
1214.095	4611.75
1219.021	4683.75
1223.941	4711.75
1228.856	4745.75
1233.766	4745.75
1238.672	4754.75
1243.572	4743.75
1248.467	4715.75
1253.358	4690.75
1258.244	4658.75
1263.124	4573.75
1268	4527.75
1272.871	4487.75
1277.737	4448.75
1282.599	4431.75
1287.455	4472.75
1292.306	4480.75
1297.153	4529.75
1301.995	4538.75
1306.832	4605.75
1311.664	4584.75
1316.491	4597.75
1321.314	4598.75
1326.132	4568.75
1330.945	4506.75
1335.753	4413.75
1340.556	4389.75
1345.354	4305.75
1350.148	4259.75
1354.937	4211.75
1359.722	4213.75
1364.501	4269.75
1369.276	4324.75
1374.046	4405.75
1378.811	4423.75
1383.572	4417.75
1388.327	4403.75
1393.079	4375.75
1397.825	4325.75
1402.567	4256.75
1407.304	4193.75
1412.036	4172.75
1416.764	4129.75
1421.487	4137.75
1426.205	4171.75
1430.919	4194.75
1435.628	4239.75
1440.333	4266.75
1445.032	4296.75
1449.727	4333.75
1454.418	4362.75
1459.104	4337.75
1463.785	4308.75
1468.462	4262.75
1473.134	4238.75
1477.802	4185.75
1482.465	4174.75
1487.123	4153.75
1491.777	4168.75
1496.426	4203.75
1501.071	4249.75
1505.711	4280.75
1510.347	4319.75
1514.978	4389.75
1519.604	4424.75
1524.226	4452.75
1528.844	4463.75
1533.457	4473.75
1538.065	4472.75
1542.669	4440.75
1547.269	4404.75
1551.864	4430.75
1556.454	4435.75
1561.041	4407.75
1565.622	4463.75
1570.199	4472.75
1574.772	4521.75
1579.34	4574.75
1583.904	4598.75
1588.464	4626.75
1593.019	4644.75
1597.569	4639.75
1602.115	4694.75
1606.657	4650.75
1611.195	4652.75
1615.728	4670.75
1620.256	4670.75
1624.78	4715.75
1629.3	4763.75
1633.816	4780.75
1638.327	4804.75
1642.834	4903.75
1647.336	4942.75
1651.834	4957.75
1656.328	4972.75
1660.817	4953.75
1665.302	4887.75
1669.783	4851.75
1674.259	4729.75
1678.732	4648.75
1683.199	4520.75
1687.663	4398.75
1692.122	4266.75
1696.577	4214.75
1701.028	4158.75
1705.474	4150.75
1709.917	4114.75
1714.355	4063.75
1718.788	4008.75
1723.218	3942.75
1727.643	3905.75
1732.064	3833.75
1736.481	3794.75
1740.893	3712.75
1745.301	3627.75
1749.705	3589.75
1754.105	3517.75
1758.501	3458.75
1762.893	3404.75
1767.28	3384.75
1771.663	3332.75
1776.042	3325.75
1780.417	3354.75
1784.787	3371.75
1789.154	3429.75
1793.516	3429.75
1797.874	3483.75
1802.228	3525.75
1806.578	3531.75
1810.924	3481.75
1815.266	3456.75
1819.603	3408.75
1823.937	3355.75
1828.266	3333.75
1832.591	3247.75
1836.913	3245.75
1841.23	3208.75
1845.543	3235.75
1849.852	3183.75
1854.156	3221.75
1858.457	3225.75
1862.754	3235.75
1867.047	3240.75
1871.335	3253.75
1875.62	3264.75
1879.9	3283.75
1884.177	3259.75
1888.449	3253.75
1892.718	3230.75
1896.982	3241.75
1901.243	3212.75
1905.499	3227.75
1909.752	3236.75
1914	3223.75
1918.245	3198.75
1922.485	3233.75
1926.722	3252.75
1930.954	3264.75
1935.183	3300.75
1939.408	3287.75
1943.628	3346.75
1947.845	3320.75
1952.058	3300.75
1956.267	3287.75
1960.472	3281.75
1964.673	3226.75
1968.87	3218.75
1973.063	3190.75
1977.252	3141.75
1981.438	3140.75
1985.619	3133.75
1989.797	3114.75
1993.971	3116.75
1998.14	3136.75
2002.306	3129.75
2006.469	3143.75
2010.627	3131.75
2014.781	3123.75
2018.932	3115.75
2023.078	3104.75
2027.221	3092.75
2031.36	3037.75
2035.495	3044.75
2039.627	2990.75
2043.754	2991.75
2047.878	2974.75
2051.998	2966.75
2056.114	2979.75
2060.226	2977.75
2064.334	2978.75
2068.439	2992.75
2072.54	3002.75
2076.637	3020.75
2080.73	3037.75
2084.82	3032.75
2088.906	3049.75
2092.988	3053.75
2097.066	3012.75
2101.14	3005.75
2105.211	3000.75
2109.278	3003.75
2113.342	2966.75
2117.401	2962.75
2121.457	2951.75
2125.509	2939.75
2129.558	2933.75
2133.602	2931.75
2137.643	2916.75
2141.681	2927.75
2145.714	2905.75
2149.744	2889.75
2153.77	2881.75
2157.793	2856.75
2161.812	2850.75
2165.827	2804.75
2169.838	2791.75
2173.846	2753.75
2177.851	2707.75
2181.851	2678.75
2185.848	2635.75
2189.841	2608.75
2193.831	2597.75
2197.817	2593.75
2201.799	2581.75
2205.778	2590.75
2209.753	2571.75
2213.725	2602.75
2217.693	2574.75
2221.657	2573.75
2225.618	2590.75
2229.575	2560.75
2233.529	2583.75
2237.479	2572.75
2241.425	2533.75
2245.368	2531.75
2249.307	2500.75
2253.243	2452.75
2257.175	2440.75
2261.104	2421.75
2265.029	2372.75
2268.95	2369.75
2272.868	2343.75
2276.783	2317.75
2280.694	2323.75
2284.601	2305.75
2288.505	2268.75
2292.405	2262.75
2296.302	2219.75
2300.195	2226.75
2304.085	2199.75
2307.971	2171.75
2311.854	2123.75
2315.734	2094.75
2319.609	2073.75
2323.482	2063.75
2327.351	2039.75
2331.216	2021.75
2335.078	2008.75
2338.937	1988.75
2342.792	1977.75
2346.643	1982.75
2350.492	1979.75
2354.336	1977.75
2358.178	1969.75
2362.015	1981.75
2365.85	1990.75
2369.681	1982.75
2373.508	2005.75
2377.333	1995.75
2381.153	1990.75
2384.971	1984.75
2388.785	1975.75
2392.595	1951.75
2396.402	1953.75
2400.206	1946.75
2404.007	1926.75
2407.804	1924.75
2411.597	1932.75
2415.388	1916.75
2419.174	1896.75
2422.958	1908.75
2426.738	1902.75
2430.515	1893.75
2434.289	1875.75
2438.059	1886.75
2441.825	1877.75
2445.589	1845.75
2449.349	1842.75
2453.106	1816.75
2456.859	1800.75
2460.61	1809.75
2464.356	1795.75
2468.1	1786.75
2471.84	1778.75
2475.577	1761.75
2479.311	1780.75
2483.041	1756.75
2486.768	1770.75
2490.492	1770.75
2494.213	1758.75
2497.93	1754.75
2501.644	1754.75
2505.355	1762.75
2509.062	1747.75
2512.766	1756.75
2516.467	1756.75
2520.165	1740.75
2523.859	1739.75
2527.551	1708.75
2531.239	1699.75
2534.923	1699.75
2538.605	1685.75
2542.283	1679.75
2545.958	1666.75
2549.63	1686.75
2553.299	1654.75
2556.964	1666.75
2560.626	1665.75
2564.285	1658.75
2567.941	1626.75
2571.594	1624.75
2575.243	1634.75
2578.89	1614.75
2582.533	1599.75
2586.173	1589.75
2589.809	1567.75
2593.443	1583.75
2597.073	1574.75
2600.701	1554.75
2604.325	1542.75
2607.946	1535.75
2611.564	1558.75
2615.178	1536.75
2618.79	1533.75
2622.398	1527.75
2626.004	1521.75
2629.606	1505.75
2633.205	1502.75
2636.801	1488.75
2640.394	1467.75
2643.983	1466.75
2647.57	1432.75
2651.153	1434.75
2654.734	1402.75
2658.311	1386.75
2661.885	1382.75
2665.456	1385.75
2669.025	1364.75
2672.589	1349.75
2676.151	1340.75
2679.71	1341.75
2683.266	1325.75
2686.819	1309.75
2690.368	1303.75
2693.915	1271.75
2697.458	1253.75
2700.999	1267.75
2704.536	1241.75
2708.071	1226.75
2711.602	1221.75
2715.13	1202.75
2718.656	1204.75
2722.178	1202.75
2725.697	1185.75
2729.214	1183.75
2732.727	1182.75
2736.237	1204.75
2739.744	1199.75
2743.249	1211.75
2746.75	1195.75
2750.248	1213.75
2753.743	1205.75
2757.236	1211.75
2760.725	1209.75
2764.211	1192.75
2767.695	1198.75
2771.175	1203.75
2774.652	1186.75
2778.127	1163.75
2781.598	1167.75
2785.067	1148.75
2788.532	1149.75
2791.995	1137.75
2795.455	1162.75
2798.911	1137.75
2802.365	1135.75
2805.816	1152.75
2809.264	1138.75
2812.709	1128.75
2816.151	1119.75
2819.59	1120.75
2823.026	1122.75
2826.46	1101.75
2829.89	1106.75
2833.318	1104.75
2836.742	1092.75
2840.164	1100.75
2843.583	1100.75
2846.999	1088.75
2850.412	1097.75
2853.822	1101.75
2857.229	1110.75
2860.634	1119.75
2864.035	1106.75
2867.434	1114.75
2870.83	1135.75
2874.223	1129.75
2877.613	1145.75
2881	1126.75
2884.385	1120.75
2887.766	1128.75
2891.145	1109.75
2894.521	1092.75
2897.894	1103.75
2901.264	1099.75
2904.631	1115.75
2907.996	1106.75
2911.358	1097.75
2914.717	1110.75
2918.073	1086.75
2921.426	1093.75
2924.777	1116.75
2928.124	1118.75
2931.469	1107.75
2934.811	1134.75
2938.15	1158.75
2941.487	1158.75
2944.821	1150.75
2948.152	1144.75
2951.48	1149.75
2954.805	1145.75
2958.128	1160.75
2961.447	1151.75
2964.765	1148.75
2968.079	1157.75
2971.39	1177.75
2974.699	1194.75
2978.005	1202.75
2981.308	1218.75
2984.609	1238.75
2987.907	1249.75
2991.202	1288.75
2994.494	1307.75
2997.784	1327.75
3001.07	1350.75
3004.355	1354.75
3007.636	1398.75
3010.915	1405.75
3014.191	1424.75
3017.464	1413.75
3020.734	1438.75
3024.002	1432.75
3027.267	1450.75
3030.53	1453.75
3033.789	1475.75
3037.046	1472.75
3040.301	1495.75
3043.552	1530.75
3046.801	1543.75
3050.048	1557.75
3053.291	1595.75
3056.532	1639.75
3059.771	1675.75
3063.006	1691.75
3066.239	1739.75
3069.469	1766.75
3072.697	1803.75
3075.922	1853.75
3079.144	1864.75
3082.364	1914.75
3085.581	1940.75
3088.795	1949.75
3092.007	2001.75
3095.216	2056.75
3098.423	2058.75
3101.627	2109.75
3104.828	2135.75
3108.026	2180.75
3111.222	2216.75
3114.416	2265.75
3117.607	2319.75
3120.795	2335.75
3123.98	2371.75
3127.163	2428.75
3130.344	2489.75
3133.521	2524.75
3136.696	2567.75
3139.869	2604.75
3143.039	2654.75
3146.206	2678.75
3149.371	2720.75
3152.533	2753.75
3155.693	2738.75
3158.85	2761.75
3162.005	2763.75
3165.157	2756.75
3168.306	2776.75
3171.453	2787.75
3174.597	2802.75
3177.739	2794.75
3180.878	2805.75
3184.014	2799.75
3187.149	2800.75
3190.28	2789.75
3193.409	2818.75
3196.536	2821.75
3199.659	2831.75
3202.781	2851.75
3205.9	2853.75
3209.016	2833.75
3212.13	2876.75
3215.241	2820.75
3218.35	2796.75
3221.456	2775.75
3224.56	2770.75
3227.661	2733.75
3230.76	2684.75
3233.856	2665.75
3236.95	2672.75
3240.041	2671.75
3243.13	2636.75
3246.216	2622.75
3249.3	2577.75
3252.382	2575.75
3255.46	2586.75
3258.537	2573.75
3261.611	2568.75
3264.682	2547.75
3267.751	2530.75
3270.818	2545.75
3273.882	2537.75
3276.943	2523.75
3280.002	2507.75
3283.059	2484.75
3286.113	2455.75
3289.165	2424.75
3292.214	2389.75
3295.261	2331.75
3298.306	2319.75
3301.348	2257.75
3304.387	2236.75
3307.425	2197.75
3310.459	2188.75
3313.492	2150.75
3316.521	2125.75
3319.549	2083.75
3322.574	2081.75
3325.597	2056.75
3328.617	2027.75
3331.635	2011.75
3334.65	2028.75
3337.663	1993.75
3340.674	1969.75
3343.682	1957.75
3346.688	1972.75
3349.691	1956.75
3352.692	1945.75
3355.691	1940.75
3358.687	1909.75
3361.681	1888.75
3364.673	1885.75
3367.662	1844.75
3370.649	1829.75
3373.633	1800.75
3376.615	1775.75
3379.595	1755.75
3382.572	1721.75
3385.547	1725.75
3388.52	1673.75
3391.49	1657.75
3394.458	1632.75
3397.424	1601.75
3400.387	1599.75
3403.348	1593.75
3406.307	1558.75
3409.263	1538.75
3412.217	1547.75
3415.168	1517.75
3418.118	1502.75
3421.065	1482.75
3424.009	1466.75
3426.951	1446.75
3429.891	1428.75
3432.829	1391.75
3435.764	1387.75
3438.697	1341.75
3441.628	1336.75
3444.557	1304.75
3447.483	1260.75
3450.407	1235.75
3453.328	1171.75
3456.247	1146.75
3459.164	1132.75
3462.079	1106.75
3464.991	1057.75
3467.902	1018.75
3470.809	1004.75
3473.715	967.75
3476.618	952.75
3479.519	925.75
3482.418	897.75
3485.315	878.75
3488.209	850.75
3491.101	826.75
3493.99	806.75
3496.878	786.75
3499.763	765.75
3502.646	743.75
3505.527	729.75
3508.405	695.75
3511.281	674.75
3514.155	639.75
3517.027	624.75
3519.897	600.75
3522.764	574.75
3525.629	548.75
3528.492	519.75
3531.352	484.75
3534.211	460.75
3537.067	434.75
3539.921	413.75
3542.773	391.75
3545.622	369.75
3548.469	345.75
3551.315	331.75
3554.157	315.75
3556.998	291.75
3559.837	282.75
3562.673	257.75
3565.507	258.75
3568.339	225.75
3571.169	226.75
3573.996	205.75
3576.822	192.75
3579.645	165.75
3582.466	161.75
3585.285	141.75
3588.101	126.75
3590.916	126.75
3593.728	114.75
3596.538	107.75
3599.346	87.75
3602.152	65.75
3604.956	63.75
3607.757	60.75
3610.556	40.75
3613.354	30.75
3616.149	35.75
3618.942	5.75
3621.732	8.75
3624.521	-4.25
3627.307	-6.25
3630.092	-14.25
3632.874	-20.25
3635.654	-27.25
3638.432	-30.25
3641.208	-35.25
3643.982	-45.25
3646.753	-54.25
3649.523	-57.25
3652.29	-59.25
3655.055	-69.25
3657.818	-76.25
3660.579	-81.25
3663.338	-92.25
3666.095	-96.25
3668.849	-101.25
3671.602	-111.25
3674.352	-118.25
3677.101	-116.25
3679.847	-125.25
3682.591	-134.25
3685.333	-138.25
3688.073	-136.25
3690.811	-140.25
3693.547	-142.25
3696.281	-152.25
3699.013	-154.25
3701.742	-154.25
3704.47	-160.25
3707.195	-163.25
3709.919	-164.25
3712.64	-168.25
3715.359	-172.25
3718.076	-177.25
3720.792	-171.25
3723.505	-177.25
3726.216	-184.25
3728.925	-188.25
3731.632	-184.25
3734.336	-189.25
3737.039	-186.25
3739.74	-191.25
3742.439	-196.25
3745.136	-191.25
3747.83	-202.25
3750.523	-196.25
3753.213	-192.25
3755.902	-200.25
3758.589	-201.25
3761.273	-202.25
3763.956	-199.25
3766.636	-204.25
3769.315	-206.25
3771.991	-210.25
3774.665	-209.25
3777.338	-211.25
3780.008	-204.25
3782.677	-207.25
3785.343	-208.25
3788.007	-210.25
3790.67	-218.25
3793.33	-212.25
3795.989	-212.25
3798.645	-212.25
3801.299	-217.25
3803.952	-212.25
3806.602	-220.25
3809.251	-220.25
3811.897	-219.25
3814.542	-228.25
3817.184	-218.25
3819.825	-217.25
3822.463	-230.25
3825.1	-223.25
3827.735	-229.25
3830.367	-229.25
3832.998	-226.25
3835.627	-224.25
3838.253	-228.25
3840.878	-230.25
3843.501	-236.25
3846.122	-235.25
3848.741	-238.25
3851.358	-233.25
3853.973	-233.25
3856.586	-235.25
3859.197	-236.25
3861.806	-238.25
3864.414	-239.25
3867.019	-244.25
3869.622	-239.25
3872.224	-239.25
3874.823	-232.25
3877.421	-230.25
3880.016	-225.25
3882.61	-220.25
3885.202	-219.25
3887.792	-223.25
3890.38	-225.25
3892.966	-231.25
3895.55	-240.25
3898.132	-240.25
3900.713	-238.25
3903.291	-239.25
3905.868	-245.25
3908.442	-241.25
3911.015	-242.25
3913.586	-249.25
3916.155	-245.25
3918.722	-238.25
3921.287	-240.25
3923.85	-241.25
3926.411	-247.25
3928.971	-252.25
3931.528	-246.25
3934.084	-247.25
3936.638	-248.25
3939.19	-244.25
3941.74	-249.25
3944.288	-249.25
3946.834	-250.25
3949.378	-245.25
3951.921	-249.25
3954.462	-247.25
3957	-252.25
3959.537	-252.25
3962.072	-246.25
3964.606	-247.25
3967.137	-253.25
3969.667	-249.25
3972.194	-252.25
3974.72	-248.25
3977.244	-244.25
3979.766	-245.25
3982.286	-252.25
3984.805	-244.25
3987.321	-243.25
3989.836	-250.25
3992.349	-246.25
3994.86	-249.25
3997.369	-242.25
3999.877	-247.25
4002.382	-248.25
4004.886	-242.25
4007.388	-249.25
4009.888	-242.25
4012.386	-241.25
4014.883	-244.25
4017.377	-247.25
4019.87	-243.25
4022.361	-241.25
4024.85	-239.25
4027.338	-240.25
4029.823	-245.25
4032.307	-244.25
4034.789	-246.25
4037.269	-246.25
4039.747	-241.25
4042.224	-246.25
4044.699	-241.25
4047.172	-246.25
4049.643	-247.25
4052.112	-242.25
4054.58	-247.25
4057.046	-246.25
4059.51	-247.25
4061.972	-250.25
4064.432	-246.25
4066.891	-248.25
4069.348	-245.25
4071.803	-243.25
4074.256	-247.25
4076.708	-243.25
4079.158	-247.25
4081.606	-245.25
4084.052	-247.25
4086.497	-247.25
4088.939	-246.25
4091.38	-250.25
4093.819	-244.25
4096.257	-264.25
4098.693	-265.25
4101.127	-262.25
4103.559	-258.25
4105.989	-162.25
4108.418	-164.25
4110.845	-149.25
4113.27	-141.25
4115.694	-121.25
4118.115	-105.25
4120.535	-249.25
4122.954	-252.25
4125.37	-248.25
4127.785	-249.25
4130.198	-249.25
4132.609	-250.25
4135.019	-259.25
4137.427	-259.25
4139.833	-258.25
4142.237	-263.25
