Data from I0.75_T10s_Bsub_water_0_1_RamanShift_2.txt Node
Date: Mon Mar 13 15:25:27 IST 2017
User: aro
Spectrometer: QEPB0276
Trigger mode: 0
Integration Time (sec): 1.000000E1
Scans to average: 1
Electric dark correction enabled: true
Nonlinearity correction enabled: false
Boxcar width: 0
XAxis mode: Raman Shifts
Number of Pixels in Spectrum: 1044
>>>>>Begin Spectral Data<<<<<
160.701	-54.62
166.742	7.38
172.777	183.38
178.805	717.38
184.826	2081.38
190.841	4468.38
196.849	7185.38
202.85	9013.38
208.845	9506.38
214.833	9295.38
220.815	9000.38
226.789	8843.38
232.758	8760.38
238.719	8578.38
244.674	8418.38
250.623	8151.38
256.565	7933.38
262.5	7675.38
268.429	7484.38
274.351	7266.38
280.267	7132.38
286.176	6974.38
292.079	6835.38
297.975	6674.38
303.865	6544.38
309.748	6362.38
315.625	6258.38
321.495	6110.38
327.359	6006.38
333.217	5890.38
339.068	5867.38
344.912	5787.38
350.751	5752.38
356.583	5719.38
362.408	5647.38
368.227	5601.38
374.04	5616.38
379.847	5618.38
385.647	5590.38
391.44	5614.38
397.228	5600.38
403.009	5643.38
408.784	5630.38
414.553	5638.38
420.315	5642.38
426.071	5614.38
431.821	5624.38
437.565	5612.38
443.302	5577.38
449.033	5587.38
454.758	5561.38
460.477	5593.38
466.189	5526.38
471.896	5497.38
477.596	5500.38
483.29	5464.38
488.978	5460.38
494.66	5417.38
500.335	5397.38
506.005	5335.38
511.668	5264.38
517.325	5233.38
522.977	5169.38
528.622	5136.38
534.261	5103.38
539.894	5049.38
545.521	5037.38
551.141	5048.38
556.756	5039.38
562.365	4999.38
567.968	4981.38
573.565	4962.38
579.155	4978.38
584.74	4924.38
590.319	4914.38
595.892	4920.38
601.459	4888.38
607.02	4855.38
612.575	4841.38
618.124	4786.38
623.667	4764.38
629.204	4727.38
634.735	4702.38
640.261	4715.38
645.781	4698.38
651.294	4667.38
656.802	4664.38
662.304	4621.38
667.8	4667.38
673.29	4679.38
678.775	4661.38
684.254	4636.38
689.726	4611.38
695.193	4636.38
700.655	4628.38
706.11	4601.38
711.56	4568.38
717.004	4570.38
722.442	4566.38
727.874	4520.38
733.301	4515.38
738.722	4532.38
744.137	4538.38
749.547	4529.38
754.951	4502.38
760.349	4551.38
765.741	4534.38
771.128	4556.38
776.509	4548.38
781.885	4551.38
787.254	4576.38
792.618	4558.38
797.977	4515.38
803.33	4519.38
808.677	4505.38
814.019	4471.38
819.355	4461.38
824.686	4446.38
830.011	4449.38
835.33	4430.38
840.644	4434.38
845.952	4429.38
851.255	4462.38
856.552	4450.38
861.844	4459.38
867.13	4430.38
872.41	4436.38
877.686	4420.38
882.955	4430.38
888.219	4409.38
893.478	4330.38
898.731	4257.38
903.979	4263.38
909.221	4210.38
914.458	4219.38
919.69	4198.38
924.916	4217.38
930.136	4273.38
935.351	4247.38
940.561	4264.38
945.766	4259.38
950.965	4254.38
956.158	4237.38
961.347	4203.38
966.529	4152.38
971.707	4120.38
976.879	4077.38
982.046	4057.38
987.208	4045.38
992.364	4076.38
997.515	4111.38
1002.66	4119.38
1007.801	4171.38
1012.936	4221.38
1018.066	4270.38
1023.19	4309.38
1028.309	4300.38
1033.423	4298.38
1038.532	4309.38
1043.636	4251.38
1048.734	4223.38
1053.827	4198.38
1058.915	4154.38
1063.998	4138.38
1069.075	4138.38
1074.147	4160.38
1079.214	4193.38
1084.276	4201.38
1089.333	4270.38
1094.385	4303.38
1099.431	4303.38
1104.472	4331.38
1109.509	4301.38
1114.54	4277.38
1119.565	4213.38
1124.586	4173.38
1129.602	4140.38
1134.613	4131.38
1139.618	4129.38
1144.619	4122.38
1149.614	4168.38
1154.604	4174.38
1159.589	4217.38
1164.57	4227.38
1169.545	4243.38
1174.515	4259.38
1179.48	4258.38
1184.44	4235.38
1189.395	4218.38
1194.345	4172.38
1199.29	4153.38
1204.23	4195.38
1209.165	4176.38
1214.095	4220.38
1219.021	4266.38
1223.941	4302.38
1228.856	4382.38
1233.766	4346.38
1238.672	4354.38
1243.572	4373.38
1248.467	4345.38
1253.358	4316.38
1258.244	4258.38
1263.124	4198.38
1268	4188.38
1272.871	4136.38
1277.737	4099.38
1282.599	4110.38
1287.455	4110.38
1292.306	4120.38
1297.153	4156.38
1301.995	4229.38
1306.832	4252.38
1311.664	4254.38
1316.491	4260.38
1321.314	4234.38
1326.132	4203.38
1330.945	4154.38
1335.753	4075.38
1340.556	4046.38
1345.354	3949.38
1350.148	3918.38
1354.937	3889.38
1359.722	3933.38
1364.501	3998.38
1369.276	4046.38
1374.046	4085.38
1378.811	4128.38
1383.572	4164.38
1388.327	4153.38
1393.079	4087.38
1397.825	4029.38
1402.567	4002.38
1407.304	3927.38
1412.036	3901.38
1416.764	3891.38
1421.487	3903.38
1426.205	3896.38
1430.919	3903.38
1435.628	3959.38
1440.333	3987.38
1445.032	4012.38
1449.727	4035.38
1454.418	4062.38
1459.104	4044.38
1463.785	4030.38
1468.462	4005.38
1473.134	3967.38
1477.802	3934.38
1482.465	3890.38
1487.123	3895.38
1491.777	3921.38
1496.426	3955.38
1501.071	3989.38
1505.711	4022.38
1510.347	4074.38
1514.978	4115.38
1519.604	4158.38
1524.226	4156.38
1528.844	4236.38
1533.457	4169.38
1538.065	4191.38
1542.669	4158.38
1547.269	4140.38
1551.864	4126.38
1556.454	4150.38
1561.041	4159.38
1565.622	4160.38
1570.199	4198.38
1574.772	4215.38
1579.34	4247.38
1583.904	4280.38
1588.464	4314.38
1593.019	4345.38
1597.569	4325.38
1602.115	4304.38
1606.657	4265.38
1611.195	4295.38
1615.728	4276.38
1620.256	4290.38
1624.78	4285.38
1629.3	4328.38
1633.816	4367.38
1638.327	4420.38
1642.834	4453.38
1647.336	4501.38
1651.834	4545.38
1656.328	4532.38
1660.817	4500.38
1665.302	4536.38
1669.783	4487.38
1674.259	4384.38
1678.732	4328.38
1683.199	4175.38
1687.663	4048.38
1692.122	3988.38
1696.577	3908.38
1701.028	3895.38
1705.474	3900.38
1709.917	3885.38
1714.355	3880.38
1718.788	3807.38
1723.218	3769.38
1727.643	3700.38
1732.064	3653.38
1736.481	3623.38
1740.893	3565.38
1745.301	3462.38
1749.705	3429.38
1754.105	3362.38
1758.501	3306.38
1762.893	3266.38
1767.28	3247.38
1771.663	3216.38
1776.042	3203.38
1780.417	3261.38
1784.787	3254.38
1789.154	3286.38
1793.516	3335.38
1797.874	3396.38
1802.228	3408.38
1806.578	3427.38
1810.924	3409.38
1815.266	3367.38
1819.603	3350.38
1823.937	3307.38
1828.266	3260.38
1832.591	3208.38
1836.913	3192.38
1841.23	3182.38
1845.543	3142.38
1849.852	3145.38
1854.156	3169.38
1858.457	3157.38
1862.754	3160.38
1867.047	3164.38
1871.335	3204.38
1875.62	3194.38
1879.9	3203.38
1884.177	3186.38
1888.449	3195.38
1892.718	3170.38
1896.982	3149.38
1901.243	3140.38
1905.499	3123.38
1909.752	3143.38
1914	3160.38
1918.245	3147.38
1922.485	3150.38
1926.722	3174.38
1930.954	3213.38
1935.183	3220.38
1939.408	3258.38
1943.628	3258.38
1947.845	3266.38
1952.058	3266.38
1956.267	3267.38
1960.472	3207.38
1964.673	3186.38
1968.87	3160.38
1973.063	3139.38
1977.252	3109.38
1981.438	3115.38
1985.619	3073.38
1989.797	3077.38
1993.971	3067.38
1998.14	3057.38
2002.306	3069.38
2006.469	3075.38
2010.627	3062.38
2014.781	3079.38
2018.932	3058.38
2023.078	3058.38
2027.221	3023.38
2031.36	2967.38
2035.495	2954.38
2039.627	2943.38
2043.754	2924.38
2047.878	2901.38
2051.998	2890.38
2056.114	2920.38
2060.226	2919.38
2064.334	2924.38
2068.439	2949.38
2072.54	2950.38
2076.637	2956.38
2080.73	2962.38
2084.82	2985.38
2088.906	2983.38
2092.988	2973.38
2097.066	2967.38
2101.14	2969.38
2105.211	2938.38
2109.278	2952.38
2113.342	2926.38
2117.401	2914.38
2121.457	2907.38
2125.509	2887.38
2129.558	2866.38
2133.602	2871.38
2137.643	2882.38
2141.681	2852.38
2145.714	2862.38
2149.744	2842.38
2153.77	2838.38
2157.793	2811.38
2161.812	2778.38
2165.827	2750.38
2169.838	2739.38
2173.846	2704.38
2177.851	2670.38
2181.851	2615.38
2185.848	2625.38
2189.841	2597.38
2193.831	2568.38
2197.817	2554.38
2201.799	2546.38
2205.778	2551.38
2209.753	2542.38
2213.725	2545.38
2217.693	2566.38
2221.657	2578.38
2225.618	2531.38
2229.575	2570.38
2233.529	2522.38
2237.479	2542.38
2241.425	2488.38
2245.368	2468.38
2249.307	2454.38
2253.243	2426.38
2257.175	2424.38
2261.104	2392.38
2265.029	2382.38
2268.95	2371.38
2272.868	2339.38
2276.783	2317.38
2280.694	2301.38
2284.601	2291.38
2288.505	2270.38
2292.405	2239.38
2296.302	2219.38
2300.195	2204.38
2304.085	2175.38
2307.971	2160.38
2311.854	2126.38
2315.734	2096.38
2319.609	2086.38
2323.482	2057.38
2327.351	2031.38
2331.216	2004.38
2335.078	2039.38
2338.937	1988.38
2342.792	1970.38
2346.643	1983.38
2350.492	1979.38
2354.336	1994.38
2358.178	1997.38
2362.015	2000.38
2365.85	1981.38
2369.681	1998.38
2373.508	2006.38
2377.333	2000.38
2381.153	1997.38
2384.971	1970.38
2388.785	1963.38
2392.595	1956.38
2396.402	1965.38
2400.206	1949.38
2404.007	1927.38
2407.804	1948.38
2411.597	1944.38
2415.388	1922.38
2419.174	1902.38
2422.958	1920.38
2426.738	1904.38
2430.515	1900.38
2434.289	1881.38
2438.059	1883.38
2441.825	1870.38
2445.589	1853.38
2449.349	1862.38
2453.106	1855.38
2456.859	1839.38
2460.61	1826.38
2464.356	1822.38
2468.1	1800.38
2471.84	1793.38
2475.577	1780.38
2479.311	1785.38
2483.041	1789.38
2486.768	1787.38
2490.492	1785.38
2494.213	1780.38
2497.93	1784.38
2501.644	1785.38
2505.355	1781.38
2509.062	1784.38
2512.766	1786.38
2516.467	1774.38
2520.165	1753.38
2523.859	1748.38
2527.551	1737.38
2531.239	1739.38
2534.923	1722.38
2538.605	1705.38
2542.283	1697.38
2545.958	1686.38
2549.63	1699.38
2553.299	1681.38
2556.964	1673.38
2560.626	1659.38
2564.285	1670.38
2567.941	1669.38
2571.594	1656.38
2575.243	1661.38
2578.89	1634.38
2582.533	1621.38
2586.173	1609.38
2589.809	1590.38
2593.443	1591.38
2597.073	1589.38
2600.701	1578.38
2604.325	1568.38
2607.946	1549.38
2611.564	1583.38
2615.178	1586.38
2618.79	1555.38
2622.398	1545.38
2626.004	1558.38
2629.606	1543.38
2633.205	1526.38
2636.801	1521.38
2640.394	1505.38
2643.983	1498.38
2647.57	1473.38
2651.153	1461.38
2654.734	1452.38
2658.311	1425.38
2661.885	1416.38
2665.456	1413.38
2669.025	1400.38
2672.589	1367.38
2676.151	1383.38
2679.71	1370.38
2683.266	1349.38
2686.819	1329.38
2690.368	1326.38
2693.915	1309.38
2697.458	1289.38
2700.999	1273.38
2704.536	1261.38
2708.071	1251.38
2711.602	1240.38
2715.13	1233.38
2718.656	1234.38
2722.178	1199.38
2725.697	1202.38
2729.214	1208.38
2732.727	1214.38
2736.237	1215.38
2739.744	1222.38
2743.249	1239.38
2746.75	1225.38
2750.248	1247.38
2753.743	1226.38
2757.236	1233.38
2760.725	1207.38
2764.211	1220.38
2767.695	1213.38
2771.175	1208.38
2774.652	1214.38
2778.127	1195.38
2781.598	1203.38
2785.067	1195.38
2788.532	1182.38
2791.995	1180.38
2795.455	1170.38
2798.911	1181.38
2802.365	1166.38
2805.816	1145.38
2809.264	1140.38
2812.709	1151.38
2816.151	1127.38
2819.59	1127.38
2823.026	1137.38
2826.46	1132.38
2829.89	1118.38
2833.318	1112.38
2836.742	1097.38
2840.164	1092.38
2843.583	1099.38
2846.999	1111.38
2850.412	1101.38
2853.822	1102.38
2857.229	1101.38
2860.634	1114.38
2864.035	1112.38
2867.434	1125.38
2870.83	1111.38
2874.223	1095.38
2877.613	1098.38
2881	1102.38
2884.385	1115.38
2887.766	1092.38
2891.145	1094.38
2894.521	1090.38
2897.894	1086.38
2901.264	1080.38
2904.631	1069.38
2907.996	1074.38
2911.358	1051.38
2914.717	1060.38
2918.073	1054.38
2921.426	1056.38
2924.777	1060.38
2928.124	1052.38
2931.469	1076.38
2934.811	1077.38
2938.15	1073.38
2941.487	1086.38
2944.821	1071.38
2948.152	1082.38
2951.48	1063.38
2954.805	1068.38
2958.128	1081.38
2961.447	1067.38
2964.765	1083.38
2968.079	1084.38
2971.39	1088.38
2974.699	1101.38
2978.005	1111.38
2981.308	1144.38
2984.609	1140.38
2987.907	1148.38
2991.202	1158.38
2994.494	1199.38
2997.784	1211.38
3001.07	1226.38
3004.355	1241.38
3007.636	1246.38
3010.915	1272.38
3014.191	1271.38
3017.464	1265.38
3020.734	1284.38
3024.002	1268.38
3027.267	1274.38
3030.53	1276.38
3033.789	1292.38
3037.046	1285.38
3040.301	1311.38
3043.552	1315.38
3046.801	1342.38
3050.048	1357.38
3053.291	1379.38
3056.532	1411.38
3059.771	1432.38
3063.006	1460.38
3066.239	1491.38
3069.469	1505.38
3072.697	1539.38
3075.922	1569.38
3079.144	1574.38
3082.364	1603.38
3085.581	1621.38
3088.795	1668.38
3092.007	1669.38
3095.216	1691.38
3098.423	1725.38
3101.627	1754.38
3104.828	1793.38
3108.026	1801.38
3111.222	1816.38
3114.416	1878.38
3117.607	1904.38
3120.795	1940.38
3123.98	1964.38
3127.163	2003.38
3130.344	2025.38
3133.521	2051.38
3136.696	2107.38
3139.869	2136.38
3143.039	2159.38
3146.206	2182.38
3149.371	2225.38
3152.533	2214.38
3155.693	2212.38
3158.85	2230.38
3162.005	2224.38
3165.157	2228.38
3168.306	2222.38
3171.453	2246.38
3174.597	2238.38
3177.739	2248.38
3180.878	2244.38
3184.014	2260.38
3187.149	2258.38
3190.28	2270.38
3193.409	2243.38
3196.536	2253.38
3199.659	2263.38
3202.781	2262.38
3205.9	2285.38
3209.016	2268.38
3212.13	2249.38
3215.241	2257.38
3218.35	2229.38
3221.456	2225.38
3224.56	2193.38
3227.661	2191.38
3230.76	2142.38
3233.856	2136.38
3236.95	2124.38
3240.041	2100.38
3243.13	2102.38
3246.216	2085.38
3249.3	2072.38
3252.382	2041.38
3255.46	2046.38
3258.537	2050.38
3261.611	2053.38
3264.682	2042.38
3267.751	2039.38
3270.818	2051.38
3273.882	2034.38
3276.943	2000.38
3280.002	1982.38
3283.059	1952.38
3286.113	1949.38
3289.165	1923.38
3292.214	1891.38
3295.261	1854.38
3298.306	1806.38
3301.348	1800.38
3304.387	1771.38
3307.425	1722.38
3310.459	1711.38
3313.492	1685.38
3316.521	1655.38
3319.549	1641.38
3322.574	1631.38
3325.597	1618.38
3328.617	1603.38
3331.635	1594.38
3334.65	1583.38
3337.663	1572.38
3340.674	1571.38
3343.682	1552.38
3346.688	1541.38
3349.691	1532.38
3352.692	1528.38
3355.691	1522.38
3358.687	1505.38
3361.681	1498.38
3364.673	1471.38
3367.662	1462.38
3370.649	1438.38
3373.633	1409.38
3376.615	1381.38
3379.595	1368.38
3382.572	1363.38
3385.547	1337.38
3388.52	1335.38
3391.49	1290.38
3394.458	1292.38
3397.424	1266.38
3400.387	1253.38
3403.348	1235.38
3406.307	1234.38
3409.263	1191.38
3412.217	1184.38
3415.168	1179.38
3418.118	1165.38
3421.065	1150.38
3424.009	1141.38
3426.951	1128.38
3429.891	1112.38
3432.829	1090.38
3435.764	1067.38
3438.697	1065.38
3441.628	1024.38
3444.557	1009.38
3447.483	983.38
3450.407	953.38
3453.328	929.38
3456.247	896.38
3459.164	870.38
3462.079	851.38
3464.991	828.38
3467.902	815.38
3470.809	788.38
3473.715	760.38
3476.618	733.38
3479.519	720.38
3482.418	708.38
3485.315	676.38
3488.209	665.38
3491.101	651.38
3493.99	628.38
3496.878	620.38
3499.763	602.38
3502.646	579.38
3505.527	566.38
3508.405	537.38
3511.281	525.38
3514.155	494.38
3517.027	476.38
3519.897	455.38
3522.764	441.38
3525.629	411.38
3528.492	396.38
3531.352	367.38
3534.211	354.38
3537.067	332.38
3539.921	323.38
3542.773	302.38
3545.622	279.38
3548.469	265.38
3551.315	260.38
3554.157	245.38
3556.998	229.38
3559.837	220.38
3562.673	208.38
3565.507	201.38
3568.339	187.38
3571.169	167.38
3573.996	162.38
3576.822	150.38
3579.645	130.38
3582.466	119.38
3585.285	114.38
3588.101	104.38
3590.916	96.38
3593.728	87.38
3596.538	77.38
3599.346	57.38
3602.152	59.38
3604.956	44.38
3607.757	34.38
3610.556	23.38
3613.354	31.38
3616.149	14.38
3618.942	9.38
3621.732	6.38
3624.521	-6.62
3627.307	-9.62
3630.092	-7.62
3632.874	-20.62
3635.654	-20.62
3638.432	-28.62
3641.208	-25.62
3643.982	-31.62
3646.753	-40.62
3649.523	-51.62
3652.29	-46.62
3655.055	-58.62
3657.818	-58.62
3660.579	-65.62
3663.338	-74.62
3666.095	-77.62
3668.849	-78.62
3671.602	-91.62
3674.352	-83.62
3677.101	-96.62
3679.847	-99.62
3682.591	-105.62
3685.333	-114.62
3688.073	-112.62
3690.811	-116.62
3693.547	-116.62
3696.281	-127.62
3699.013	-119.62
3701.742	-127.62
3704.47	-127.62
3707.195	-131.62
3709.919	-132.62
3712.64	-130.62
3715.359	-137.62
3718.076	-140.62
3720.792	-140.62
3723.505	-134.62
3726.216	-142.62
3728.925	-147.62
3731.632	-146.62
3734.336	-149.62
3737.039	-146.62
3739.74	-149.62
3742.439	-146.62
3745.136	-149.62
3747.83	-146.62
3750.523	-152.62
3753.213	-153.62
3755.902	-157.62
3758.589	-150.62
3761.273	-154.62
3763.956	-156.62
3766.636	-158.62
3769.315	-161.62
3771.991	-159.62
3774.665	-164.62
3777.338	-169.62
3780.008	-163.62
3782.677	-169.62
3785.343	-170.62
3788.007	-173.62
3790.67	-170.62
3793.33	-169.62
3795.989	-175.62
3798.645	-174.62
3801.299	-174.62
3803.952	-176.62
3806.602	-180.62
3809.251	-180.62
3811.897	-177.62
3814.542	-174.62
3817.184	-178.62
3819.825	-174.62
3822.463	-181.62
3825.1	-176.62
3827.735	-178.62
3830.367	-181.62
3832.998	-175.62
3835.627	-181.62
3838.253	-179.62
3840.878	-180.62
3843.501	-179.62
3846.122	-182.62
3848.741	-179.62
3851.358	-185.62
3853.973	-185.62
3856.586	-187.62
3859.197	-188.62
3861.806	-186.62
3864.414	-195.62
3867.019	-190.62
3869.622	-190.62
3872.224	-191.62
3874.823	-185.62
3877.421	-185.62
3880.016	-184.62
3882.61	-179.62
3885.202	-180.62
3887.792	-184.62
3890.38	-186.62
3892.966	-189.62
3895.55	-194.62
3898.132	-194.62
3900.713	-197.62
3903.291	-195.62
3905.868	-198.62
3908.442	-192.62
3911.015	-192.62
3913.586	-197.62
3916.155	-193.62
3918.722	-195.62
3921.287	-198.62
3923.85	-198.62
3926.411	-201.62
3928.971	-199.62
3931.528	-197.62
3934.084	-198.62
3936.638	-197.62
3939.19	-201.62
3941.74	-200.62
3944.288	-198.62
3946.834	-201.62
3949.378	-203.62
3951.921	-203.62
3954.462	-201.62
3957	-208.62
3959.537	-204.62
3962.072	-202.62
3964.606	-202.62
3967.137	-206.62
3969.667	-200.62
3972.194	-201.62
3974.72	-202.62
3977.244	-202.62
3979.766	-202.62
3982.286	-201.62
3984.805	-201.62
3987.321	-196.62
3989.836	-201.62
3992.349	-199.62
3994.86	-197.62
3997.369	-199.62
3999.877	-197.62
4002.382	-197.62
4004.886	-194.62
4007.388	-191.62
4009.888	-201.62
4012.386	-197.62
4014.883	-198.62
4017.377	-196.62
4019.87	-197.62
4022.361	-193.62
4024.85	-198.62
4027.338	-198.62
4029.823	-196.62
4032.307	-199.62
4034.789	-200.62
4037.269	-199.62
4039.747	-198.62
4042.224	-203.62
4044.699	-203.62
4047.172	-206.62
4049.643	-199.62
4052.112	-198.62
4054.58	-203.62
4057.046	-203.62
4059.51	-201.62
4061.972	-202.62
4064.432	-195.62
4066.891	-201.62
4069.348	-205.62
4071.803	-201.62
4074.256	-201.62
4076.708	-199.62
4079.158	-207.62
4081.606	-202.62
4084.052	-200.62
4086.497	-204.62
4088.939	-201.62
4091.38	-198.62
4093.819	-195.62
4096.257	-211.62
4098.693	-210.62
4101.127	-211.62
4103.559	-212.62
4105.989	-132.62
4108.418	-125.62
4110.845	-117.62
4113.27	-114.62
4115.694	-99.62
4118.115	-76.62
4120.535	-201.62
4122.954	-202.62
4125.37	-198.62
4127.785	-203.62
4130.198	-199.62
4132.609	-201.62
4135.019	-212.62
4137.427	-213.62
4139.833	-213.62
4142.237	-213.62
