Data from I0.75_T10s_Bsub_water_1-10^2_1_RamanShift_1.txt Node
Date: Mon Mar 13 15:32:17 IST 2017
User: aro
Spectrometer: QEPB0276
Trigger mode: 0
Integration Time (sec): 1.000000E1
Scans to average: 1
Electric dark correction enabled: true
Nonlinearity correction enabled: false
Boxcar width: 0
XAxis mode: Raman Shifts
Number of Pixels in Spectrum: 1044
>>>>>Begin Spectral Data<<<<<
160.701	-55.38
166.742	8.62
172.777	181.62
178.805	732.62
184.826	2109.62
190.841	4507.62
196.849	7332.62
202.85	9133.62
208.845	9582.62
214.833	9283.62
220.815	9042.62
226.789	8881.62
232.758	8758.62
238.719	8616.62
244.674	8395.62
250.623	8162.62
256.565	7897.62
262.5	7641.62
268.429	7393.62
274.351	7219.62
280.267	7059.62
286.176	6880.62
292.079	6731.62
297.975	6606.62
303.865	6428.62
309.748	6298.62
315.625	6153.62
321.495	6049.62
327.359	5945.62
333.217	5872.62
339.068	5803.62
344.912	5737.62
350.751	5663.62
356.583	5621.62
362.408	5587.62
368.227	5561.62
374.04	5551.62
379.847	5514.62
385.647	5507.62
391.44	5566.62
397.228	5557.62
403.009	5579.62
408.784	5564.62
414.553	5534.62
420.315	5560.62
426.071	5548.62
431.821	5563.62
437.565	5554.62
443.302	5565.62
449.033	5527.62
454.758	5531.62
460.477	5488.62
466.189	5481.62
471.896	5425.62
477.596	5443.62
483.29	5416.62
488.978	5407.62
494.66	5356.62
500.335	5304.62
506.005	5268.62
511.668	5191.62
517.325	5125.62
522.977	5095.62
528.622	5016.62
534.261	4999.62
539.894	5002.62
545.521	4965.62
551.141	4950.62
556.756	4966.62
562.365	4917.62
567.968	4930.62
573.565	4904.62
579.155	4905.62
584.74	4827.62
590.319	4835.62
595.892	4825.62
601.459	4809.62
607.02	4779.62
612.575	4755.62
618.124	4689.62
623.667	4693.62
629.204	4646.62
634.735	4611.62
640.261	4587.62
645.781	4602.62
651.294	4580.62
656.802	4575.62
662.304	4566.62
667.8	4559.62
673.29	4582.62
678.775	4548.62
684.254	4542.62
689.726	4547.62
695.193	4518.62
700.655	4496.62
706.11	4479.62
711.56	4455.62
717.004	4422.62
722.442	4449.62
727.874	4416.62
733.301	4432.62
738.722	4390.62
744.137	4427.62
749.547	4386.62
754.951	4407.62
760.349	4424.62
765.741	4421.62
771.128	4435.62
776.509	4453.62
781.885	4448.62
787.254	4452.62
792.618	4444.62
797.977	4420.62
803.33	4415.62
808.677	4367.62
814.019	4368.62
819.355	4341.62
824.686	4306.62
830.011	4275.62
835.33	4299.62
840.644	4297.62
845.952	4304.62
851.255	4333.62
856.552	4311.62
861.844	4324.62
867.13	4316.62
872.41	4309.62
877.686	4303.62
882.955	4294.62
888.219	4239.62
893.478	4171.62
898.731	4145.62
903.979	4129.62
909.221	4088.62
914.458	4084.62
919.69	4085.62
924.916	4098.62
930.136	4105.62
935.351	4121.62
940.561	4122.62
945.766	4147.62
950.965	4135.62
956.158	4096.62
961.347	4074.62
966.529	4015.62
971.707	3972.62
976.879	3942.62
982.046	3903.62
987.208	3916.62
992.364	3916.62
997.515	3970.62
1002.66	3986.62
1007.801	4037.62
1012.936	4055.62
1018.066	4117.62
1023.19	4114.62
1028.309	4166.62
1033.423	4133.62
1038.532	4124.62
1043.636	4098.62
1048.734	4074.62
1053.827	4024.62
1058.915	4017.62
1063.998	3982.62
1069.075	3973.62
1074.147	4014.62
1079.214	4020.62
1084.276	4095.62
1089.333	4117.62
1094.385	4139.62
1099.431	4171.62
1104.472	4178.62
1109.509	4163.62
1114.54	4118.62
1119.565	4068.62
1124.586	4043.62
1129.602	3980.62
1134.613	3990.62
1139.618	4002.62
1144.619	3968.62
1149.614	4032.62
1154.604	4053.62
1159.589	4055.62
1164.57	4080.62
1169.545	4087.62
1174.515	4104.62
1179.48	4103.62
1184.44	4045.62
1189.395	4041.62
1194.345	4018.62
1199.29	3992.62
1204.23	4028.62
1209.165	4048.62
1214.095	4078.62
1219.021	4118.62
1223.941	4188.62
1228.856	4210.62
1233.766	4179.62
1238.672	4215.62
1243.572	4184.62
1248.467	4188.62
1253.358	4130.62
1258.244	4125.62
1263.124	4037.62
1268	3987.62
1272.871	3943.62
1277.737	3953.62
1282.599	3933.62
1287.455	3957.62
1292.306	4001.62
1297.153	3983.62
1301.995	4012.62
1306.832	4066.62
1311.664	4079.62
1316.491	4111.62
1321.314	4058.62
1326.132	4041.62
1330.945	3971.62
1335.753	3904.62
1340.556	3824.62
1345.354	3808.62
1350.148	3748.62
1354.937	3744.62
1359.722	3771.62
1364.501	3774.62
1369.276	3864.62
1374.046	3946.62
1378.811	3979.62
1383.572	3992.62
1388.327	3945.62
1393.079	3902.62
1397.825	3870.62
1402.567	3794.62
1407.304	3775.62
1412.036	3737.62
1416.764	3730.62
1421.487	3731.62
1426.205	3736.62
1430.919	3739.62
1435.628	3800.62
1440.333	3810.62
1445.032	3841.62
1449.727	3861.62
1454.418	3864.62
1459.104	3879.62
1463.785	3827.62
1468.462	3805.62
1473.134	3771.62
1477.802	3737.62
1482.465	3729.62
1487.123	3705.62
1491.777	3752.62
1496.426	3742.62
1501.071	3820.62
1505.711	3850.62
1510.347	3926.62
1514.978	3946.62
1519.604	3995.62
1524.226	4014.62
1528.844	4019.62
1533.457	4028.62
1538.065	4018.62
1542.669	3988.62
1547.269	3977.62
1551.864	3966.62
1556.454	3967.62
1561.041	3993.62
1565.622	3992.62
1570.199	4030.62
1574.772	4042.62
1579.34	4080.62
1583.904	4108.62
1588.464	4134.62
1593.019	4141.62
1597.569	4154.62
1602.115	4140.62
1606.657	4125.62
1611.195	4122.62
1615.728	4136.62
1620.256	4136.62
1624.78	4146.62
1629.3	4175.62
1633.816	4211.62
1638.327	4267.62
1642.834	4307.62
1647.336	4334.62
1651.834	4365.62
1656.328	4363.62
1660.817	4391.62
1665.302	4361.62
1669.783	4274.62
1674.259	4232.62
1678.732	4112.62
1683.199	4041.62
1687.663	3882.62
1692.122	3805.62
1696.577	3739.62
1701.028	3737.62
1705.474	3728.62
1709.917	3753.62
1714.355	3719.62
1718.788	3661.62
1723.218	3592.62
1727.643	3567.62
1732.064	3481.62
1736.481	3453.62
1740.893	3397.62
1745.301	3327.62
1749.705	3252.62
1754.105	3230.62
1758.501	3163.62
1762.893	3121.62
1767.28	3078.62
1771.663	3065.62
1776.042	3054.62
1780.417	3063.62
1784.787	3083.62
1789.154	3149.62
1793.516	3154.62
1797.874	3199.62
1802.228	3207.62
1806.578	3274.62
1810.924	3246.62
1815.266	3211.62
1819.603	3182.62
1823.937	3118.62
1828.266	3099.62
1832.591	3064.62
1836.913	3029.62
1841.23	2998.62
1845.543	3004.62
1849.852	3004.62
1854.156	3017.62
1858.457	3004.62
1862.754	3015.62
1867.047	3025.62
1871.335	3031.62
1875.62	3037.62
1879.9	3034.62
1884.177	3046.62
1888.449	3005.62
1892.718	3008.62
1896.982	2985.62
1901.243	2955.62
1905.499	2964.62
1909.752	2971.62
1914	3006.62
1918.245	2987.62
1922.485	2984.62
1926.722	3029.62
1930.954	3024.62
1935.183	3032.62
1939.408	3072.62
1943.628	3077.62
1947.845	3063.62
1952.058	3099.62
1956.267	3095.62
1960.472	3038.62
1964.673	3026.62
1968.87	3004.62
1973.063	2995.62
1977.252	2954.62
1981.438	2948.62
1985.619	2917.62
1989.797	2920.62
1993.971	2907.62
1998.14	2897.62
2002.306	2917.62
2006.469	2938.62
2010.627	2928.62
2014.781	2921.62
2018.932	2899.62
2023.078	2887.62
2027.221	2864.62
2031.36	2843.62
2035.495	2825.62
2039.627	2797.62
2043.754	2753.62
2047.878	2763.62
2051.998	2755.62
2056.114	2767.62
2060.226	2763.62
2064.334	2768.62
2068.439	2785.62
2072.54	2771.62
2076.637	2782.62
2080.73	2816.62
2084.82	2825.62
2088.906	2816.62
2092.988	2810.62
2097.066	2816.62
2101.14	2795.62
2105.211	2787.62
2109.278	2786.62
2113.342	2747.62
2117.401	2775.62
2121.457	2743.62
2125.509	2728.62
2129.558	2726.62
2133.602	2732.62
2137.643	2712.62
2141.681	2721.62
2145.714	2712.62
2149.744	2713.62
2153.77	2700.62
2157.793	2664.62
2161.812	2653.62
2165.827	2629.62
2169.838	2587.62
2173.846	2540.62
2177.851	2518.62
2181.851	2481.62
2185.848	2461.62
2189.841	2451.62
2193.831	2436.62
2197.817	2424.62
2201.799	2419.62
2205.778	2410.62
2209.753	2409.62
2213.725	2442.62
2217.693	2406.62
2221.657	2419.62
2225.618	2420.62
2229.575	2411.62
2233.529	2403.62
2237.479	2398.62
2241.425	2368.62
2245.368	2350.62
2249.307	2319.62
2253.243	2300.62
2257.175	2267.62
2261.104	2270.62
2265.029	2243.62
2268.95	2217.62
2272.868	2207.62
2276.783	2207.62
2280.694	2165.62
2284.601	2174.62
2288.505	2139.62
2292.405	2137.62
2296.302	2113.62
2300.195	2084.62
2304.085	2066.62
2307.971	2044.62
2311.854	2000.62
2315.734	1994.62
2319.609	1959.62
2323.482	1940.62
2327.351	1930.62
2331.216	1911.62
2335.078	1905.62
2338.937	1897.62
2342.792	1876.62
2346.643	1892.62
2350.492	1878.62
2354.336	1855.62
2358.178	1863.62
2362.015	1876.62
2365.85	1873.62
2369.681	1874.62
2373.508	1903.62
2377.333	1879.62
2381.153	1884.62
2384.971	1875.62
2388.785	1856.62
2392.595	1861.62
2396.402	1832.62
2400.206	1817.62
2404.007	1817.62
2407.804	1812.62
2411.597	1804.62
2415.388	1809.62
2419.174	1800.62
2422.958	1791.62
2426.738	1780.62
2430.515	1775.62
2434.289	1792.62
2438.059	1769.62
2441.825	1770.62
2445.589	1755.62
2449.349	1744.62
2453.106	1744.62
2456.859	1714.62
2460.61	1711.62
2464.356	1703.62
2468.1	1685.62
2471.84	1678.62
2475.577	1675.62
2479.311	1656.62
2483.041	1680.62
2486.768	1664.62
2490.492	1675.62
2494.213	1676.62
2497.93	1667.62
2501.644	1668.62
2505.355	1661.62
2509.062	1662.62
2512.766	1650.62
2516.467	1662.62
2520.165	1650.62
2523.859	1642.62
2527.551	1624.62
2531.239	1596.62
2534.923	1608.62
2538.605	1594.62
2542.283	1596.62
2545.958	1586.62
2549.63	1582.62
2553.299	1583.62
2556.964	1578.62
2560.626	1567.62
2564.285	1553.62
2567.941	1571.62
2571.594	1568.62
2575.243	1531.62
2578.89	1542.62
2582.533	1523.62
2586.173	1525.62
2589.809	1510.62
2593.443	1519.62
2597.073	1510.62
2600.701	1496.62
2604.325	1475.62
2607.946	1489.62
2611.564	1463.62
2615.178	1470.62
2618.79	1471.62
2622.398	1461.62
2626.004	1461.62
2629.606	1427.62
2633.205	1443.62
2636.801	1412.62
2640.394	1403.62
2643.983	1396.62
2647.57	1376.62
2651.153	1383.62
2654.734	1354.62
2658.311	1331.62
2661.885	1327.62
2665.456	1310.62
2669.025	1312.62
2672.589	1309.62
2676.151	1282.62
2679.71	1279.62
2683.266	1271.62
2686.819	1254.62
2690.368	1250.62
2693.915	1220.62
2697.458	1206.62
2700.999	1195.62
2704.536	1190.62
2708.071	1168.62
2711.602	1157.62
2715.13	1146.62
2718.656	1144.62
2722.178	1133.62
2725.697	1124.62
2729.214	1143.62
2732.727	1125.62
2736.237	1132.62
2739.744	1129.62
2743.249	1144.62
2746.75	1144.62
2750.248	1148.62
2753.743	1145.62
2757.236	1152.62
2760.725	1148.62
2764.211	1131.62
2767.695	1141.62
2771.175	1130.62
2774.652	1130.62
2778.127	1137.62
2781.598	1122.62
2785.067	1120.62
2788.532	1116.62
2791.995	1105.62
2795.455	1108.62
2798.911	1089.62
2802.365	1110.62
2805.816	1082.62
2809.264	1073.62
2812.709	1076.62
2816.151	1070.62
2819.59	1064.62
2823.026	1059.62
2826.46	1053.62
2829.89	1048.62
2833.318	1031.62
2836.742	1026.62
2840.164	1032.62
2843.583	1040.62
2846.999	1050.62
2850.412	1047.62
2853.822	1032.62
2857.229	1033.62
2860.634	1054.62
2864.035	1046.62
2867.434	1065.62
2870.83	1039.62
2874.223	1068.62
2877.613	1075.62
2881	1038.62
2884.385	1055.62
2887.766	1053.62
2891.145	1026.62
2894.521	1035.62
2897.894	1023.62
2901.264	1027.62
2904.631	1010.62
2907.996	1010.62
2911.358	1004.62
2914.717	1004.62
2918.073	1021.62
2921.426	993.62
2924.777	1008.62
2928.124	1009.62
2931.469	1009.62
2934.811	1013.62
2938.15	1019.62
2941.487	1039.62
2944.821	1033.62
2948.152	1028.62
2951.48	1017.62
2954.805	1012.62
2958.128	1028.62
2961.447	1029.62
2964.765	1021.62
2968.079	1036.62
2971.39	1041.62
2974.699	1061.62
2978.005	1063.62
2981.308	1082.62
2984.609	1095.62
2987.907	1099.62
2991.202	1131.62
2994.494	1167.62
2997.784	1160.62
3001.07	1189.62
3004.355	1199.62
3007.636	1216.62
3010.915	1224.62
3014.191	1240.62
3017.464	1234.62
3020.734	1237.62
3024.002	1247.62
3027.267	1259.62
3030.53	1250.62
3033.789	1256.62
3037.046	1272.62
3040.301	1300.62
3043.552	1291.62
3046.801	1312.62
3050.048	1340.62
3053.291	1354.62
3056.532	1394.62
3059.771	1412.62
3063.006	1436.62
3066.239	1460.62
3069.469	1490.62
3072.697	1534.62
3075.922	1556.62
3079.144	1562.62
3082.364	1592.62
3085.581	1616.62
3088.795	1661.62
3092.007	1678.62
3095.216	1723.62
3098.423	1720.62
3101.627	1762.62
3104.828	1767.62
3108.026	1821.62
3111.222	1837.62
3114.416	1860.62
3117.607	1892.62
3120.795	1936.62
3123.98	1967.62
3127.163	1998.62
3130.344	2035.62
3133.521	2082.62
3136.696	2095.62
3139.869	2124.62
3143.039	2165.62
3146.206	2188.62
3149.371	2188.62
3152.533	2221.62
3155.693	2229.62
3158.85	2251.62
3162.005	2232.62
3165.157	2244.62
3168.306	2245.62
3171.453	2253.62
3174.597	2261.62
3177.739	2261.62
3180.878	2260.62
3184.014	2268.62
3187.149	2273.62
3190.28	2288.62
3193.409	2245.62
3196.536	2284.62
3199.659	2278.62
3202.781	2286.62
3205.9	2283.62
3209.016	2273.62
3212.13	2279.62
3215.241	2258.62
3218.35	2248.62
3221.456	2215.62
3224.56	2203.62
3227.661	2191.62
3230.76	2166.62
3233.856	2173.62
3236.95	2135.62
3240.041	2132.62
3243.13	2105.62
3246.216	2088.62
3249.3	2084.62
3252.382	2062.62
3255.46	2040.62
3258.537	2046.62
3261.611	2036.62
3264.682	2041.62
3267.751	2037.62
3270.818	2012.62
3273.882	2029.62
3276.943	1982.62
3280.002	1983.62
3283.059	1953.62
3286.113	1939.62
3289.165	1943.62
3292.214	1874.62
3295.261	1852.62
3298.306	1834.62
3301.348	1788.62
3304.387	1773.62
3307.425	1748.62
3310.459	1698.62
3313.492	1690.62
3316.521	1655.62
3319.549	1659.62
3322.574	1631.62
3325.597	1619.62
3328.617	1604.62
3331.635	1609.62
3334.65	1572.62
3337.663	1575.62
3340.674	1586.62
3343.682	1570.62
3346.688	1554.62
3349.691	1546.62
3352.692	1553.62
3355.691	1521.62
3358.687	1509.62
3361.681	1506.62
3364.673	1482.62
3367.662	1469.62
3370.649	1437.62
3373.633	1416.62
3376.615	1398.62
3379.595	1378.62
3382.572	1368.62
3385.547	1341.62
3388.52	1322.62
3391.49	1292.62
3394.458	1277.62
3397.424	1279.62
3400.387	1257.62
3403.348	1242.62
3406.307	1229.62
3409.263	1206.62
3412.217	1196.62
3415.168	1183.62
3418.118	1183.62
3421.065	1165.62
3424.009	1143.62
3426.951	1133.62
3429.891	1113.62
3432.829	1084.62
3435.764	1063.62
3438.697	1050.62
3441.628	1036.62
3444.557	992.62
3447.483	974.62
3450.407	954.62
3453.328	926.62
3456.247	894.62
3459.164	875.62
3462.079	856.62
3464.991	830.62
3467.902	795.62
3470.809	766.62
3473.715	746.62
3476.618	726.62
3479.519	714.62
3482.418	684.62
3485.315	670.62
3488.209	661.62
3491.101	646.62
3493.99	633.62
3496.878	601.62
3499.763	579.62
3502.646	570.62
3505.527	550.62
3508.405	529.62
3511.281	519.62
3514.155	491.62
3517.027	467.62
3519.897	451.62
3522.764	418.62
3525.629	405.62
3528.492	379.62
3531.352	365.62
3534.211	346.62
3537.067	325.62
3539.921	313.62
3542.773	284.62
3545.622	271.62
3548.469	251.62
3551.315	247.62
3554.157	235.62
3556.998	217.62
3559.837	206.62
3562.673	192.62
3565.507	179.62
3568.339	172.62
3571.169	165.62
3573.996	158.62
3576.822	134.62
3579.645	136.62
3582.466	116.62
3585.285	109.62
3588.101	100.62
3590.916	81.62
3593.728	75.62
3596.538	61.62
3599.346	53.62
3602.152	53.62
3604.956	40.62
3607.757	29.62
3610.556	17.62
3613.354	13.62
3616.149	5.62
3618.942	-0.38
3621.732	-8.38
3624.521	-8.38
3627.307	-20.38
3630.092	-18.38
3632.874	-27.38
3635.654	-30.38
3638.432	-31.38
3641.208	-38.38
3643.982	-40.38
3646.753	-50.38
3649.523	-53.38
3652.29	-60.38
3655.055	-66.38
3657.818	-76.38
3660.579	-73.38
3663.338	-76.38
3666.095	-88.38
3668.849	-83.38
3671.602	-96.38
3674.352	-96.38
3677.101	-101.38
3679.847	-104.38
3682.591	-108.38
3685.333	-120.38
3688.073	-111.38
3690.811	-121.38
3693.547	-121.38
3696.281	-120.38
3699.013	-125.38
3701.742	-127.38
3704.47	-129.38
3707.195	-138.38
3709.919	-139.38
3712.64	-141.38
3715.359	-139.38
3718.076	-145.38
3720.792	-144.38
3723.505	-150.38
3726.216	-148.38
3728.925	-158.38
3731.632	-156.38
3734.336	-159.38
3737.039	-160.38
3739.74	-156.38
3742.439	-158.38
3745.136	-163.38
3747.83	-164.38
3750.523	-159.38
3753.213	-160.38
3755.902	-163.38
3758.589	-163.38
3761.273	-161.38
3763.956	-168.38
3766.636	-162.38
3769.315	-164.38
3771.991	-171.38
3774.665	-170.38
3777.338	-171.38
3780.008	-172.38
3782.677	-174.38
3785.343	-175.38
3788.007	-172.38
3790.67	-174.38
3793.33	-173.38
3795.989	-177.38
3798.645	-176.38
3801.299	-174.38
3803.952	-178.38
3806.602	-181.38
3809.251	-183.38
3811.897	-184.38
3814.542	-185.38
3817.184	-184.38
3819.825	-185.38
3822.463	-192.38
3825.1	-185.38
3827.735	-187.38
3830.367	-188.38
3832.998	-188.38
3835.627	-186.38
3838.253	-189.38
3840.878	-186.38
3843.501	-191.38
3846.122	-187.38
3848.741	-190.38
3851.358	-192.38
3853.973	-193.38
3856.586	-193.38
3859.197	-195.38
3861.806	-193.38
3864.414	-197.38
3867.019	-192.38
3869.622	-194.38
3872.224	-190.38
3874.823	-195.38
3877.421	-189.38
3880.016	-187.38
3882.61	-181.38
3885.202	-185.38
3887.792	-188.38
3890.38	-191.38
3892.966	-197.38
3895.55	-199.38
3898.132	-197.38
3900.713	-202.38
3903.291	-197.38
3905.868	-202.38
3908.442	-198.38
3911.015	-202.38
3913.586	-207.38
3916.155	-200.38
3918.722	-203.38
3921.287	-203.38
3923.85	-204.38
3926.411	-205.38
3928.971	-204.38
3931.528	-207.38
3934.084	-204.38
3936.638	-205.38
3939.19	-206.38
3941.74	-206.38
3944.288	-204.38
3946.834	-208.38
3949.378	-206.38
3951.921	-210.38
3954.462	-203.38
3957	-210.38
3959.537	-210.38
3962.072	-205.38
3964.606	-207.38
3967.137	-209.38
3969.667	-205.38
3972.194	-205.38
3974.72	-205.38
3977.244	-202.38
3979.766	-203.38
3982.286	-197.38
3984.805	-202.38
3987.321	-198.38
3989.836	-204.38
3992.349	-200.38
3994.86	-195.38
3997.369	-198.38
3999.877	-198.38
4002.382	-197.38
4004.886	-201.38
4007.388	-195.38
4009.888	-201.38
4012.386	-205.38
4014.883	-201.38
4017.377	-201.38
4019.87	-203.38
4022.361	-200.38
4024.85	-203.38
4027.338	-204.38
4029.823	-204.38
4032.307	-206.38
4034.789	-208.38
4037.269	-205.38
4039.747	-207.38
4042.224	-209.38
4044.699	-208.38
4047.172	-211.38
4049.643	-205.38
4052.112	-202.38
4054.58	-209.38
4057.046	-210.38
4059.51	-207.38
4061.972	-202.38
4064.432	-204.38
4066.891	-205.38
4069.348	-206.38
4071.803	-202.38
4074.256	-201.38
4076.708	-205.38
4079.158	-207.38
4081.606	-204.38
4084.052	-203.38
4086.497	-203.38
4088.939	-202.38
4091.38	-202.38
4093.819	-201.38
4096.257	-220.38
4098.693	-217.38
4101.127	-218.38
4103.559	-213.38
4105.989	-142.38
4108.418	-129.38
4110.845	-120.38
4113.27	-113.38
4115.694	-104.38
4118.115	-82.38
4120.535	-203.38
4122.954	-206.38
4125.37	-201.38
4127.785	-206.38
4130.198	-204.38
4132.609	-206.38
4135.019	-218.38
4137.427	-214.38
4139.833	-217.38
4142.237	-217.38
