Data from I0.75_T15s_Bsub_water_1-1_2_RamanShift_1.txt Node
Date: Mon Mar 13 16:01:06 IST 2017
User: aro
Spectrometer: QEPB0276
Trigger mode: 0
Integration Time (sec): 1.500000E1
Scans to average: 1
Electric dark correction enabled: true
Nonlinearity correction enabled: false
Boxcar width: 0
XAxis mode: Raman Shifts
Number of Pixels in Spectrum: 1044
>>>>>Begin Spectral Data<<<<<
160.701	-63.62
166.742	3.38
172.777	224.38
178.805	917.38
184.826	2639.38
190.841	5671.38
196.849	9040.38
202.85	11329.38
208.845	11888.38
214.833	11612.38
220.815	11285.38
226.789	11056.38
232.758	10940.38
238.719	10742.38
244.674	10421.38
250.623	10206.38
256.565	9830.38
262.5	9547.38
268.429	9278.38
274.351	9007.38
280.267	8800.38
286.176	8600.38
292.079	8416.38
297.975	8239.38
303.865	8074.38
309.748	7910.38
315.625	7751.38
321.495	7593.38
327.359	7499.38
333.217	7408.38
339.068	7325.38
344.912	7283.38
350.751	7215.38
356.583	7178.38
362.408	7120.38
368.227	7092.38
374.04	7090.38
379.847	7075.38
385.647	7086.38
391.44	7100.38
397.228	7106.38
403.009	7101.38
408.784	7129.38
414.553	7117.38
420.315	7156.38
426.071	7122.38
431.821	7106.38
437.565	7125.38
443.302	7112.38
449.033	7094.38
454.758	7080.38
460.477	7075.38
466.189	7004.38
471.896	7033.38
477.596	6959.38
483.29	6958.38
488.978	6942.38
494.66	6901.38
500.335	6826.38
506.005	6722.38
511.668	6654.38
517.325	6548.38
522.977	6478.38
528.622	6479.38
534.261	6372.38
539.894	6352.38
545.521	6326.38
551.141	6339.38
556.756	6298.38
562.365	6266.38
567.968	6227.38
573.565	6241.38
579.155	6240.38
584.74	6200.38
590.319	6139.38
595.892	6136.38
601.459	6132.38
607.02	6118.38
612.575	6054.38
618.124	6018.38
623.667	5976.38
629.204	5971.38
634.735	5908.38
640.261	5877.38
645.781	5871.38
651.294	5863.38
656.802	5854.38
662.304	5839.38
667.8	5820.38
673.29	5818.38
678.775	5803.38
684.254	5819.38
689.726	5830.38
695.193	5783.38
700.655	5760.38
706.11	5739.38
711.56	5699.38
717.004	5688.38
722.442	5695.38
727.874	5662.38
733.301	5634.38
738.722	5667.38
744.137	5635.38
749.547	5638.38
754.951	5609.38
760.349	5618.38
765.741	5679.38
771.128	5643.38
776.509	5690.38
781.885	5677.38
787.254	5680.38
792.618	5652.38
797.977	5652.38
803.33	5603.38
808.677	5591.38
814.019	5567.38
819.355	5529.38
824.686	5471.38
830.011	5495.38
835.33	5483.38
840.644	5480.38
845.952	5471.38
851.255	5504.38
856.552	5523.38
861.844	5488.38
867.13	5515.38
872.41	5484.38
877.686	5462.38
882.955	5475.38
888.219	5386.38
893.478	5323.38
898.731	5279.38
903.979	5209.38
909.221	5182.38
914.458	5207.38
919.69	5159.38
924.916	5220.38
930.136	5251.38
935.351	5247.38
940.561	5244.38
945.766	5257.38
950.965	5241.38
956.158	5206.38
961.347	5172.38
966.529	5107.38
971.707	5058.38
976.879	4989.38
982.046	4967.38
987.208	4978.38
992.364	4979.38
997.515	5025.38
1002.66	5053.38
1007.801	5082.38
1012.936	5131.38
1018.066	5200.38
1023.19	5270.38
1028.309	5244.38
1033.423	5236.38
1038.532	5225.38
1043.636	5178.38
1048.734	5163.38
1053.827	5103.38
1058.915	5057.38
1063.998	5030.38
1069.075	5053.38
1074.147	5025.38
1079.214	5093.38
1084.276	5159.38
1089.333	5187.38
1094.385	5211.38
1099.431	5244.38
1104.472	5261.38
1109.509	5239.38
1114.54	5221.38
1119.565	5146.38
1124.586	5081.38
1129.602	5064.38
1134.613	5015.38
1139.618	5020.38
1144.619	5017.38
1149.614	5036.38
1154.604	5087.38
1159.589	5099.38
1164.57	5120.38
1169.545	5112.38
1174.515	5161.38
1179.48	5128.38
1184.44	5108.38
1189.395	5079.38
1194.345	5043.38
1199.29	5039.38
1204.23	5057.38
1209.165	5053.38
1214.095	5126.38
1219.021	5164.38
1223.941	5246.38
1228.856	5251.38
1233.766	5259.38
1238.672	5267.38
1243.572	5299.38
1248.467	5241.38
1253.358	5166.38
1258.244	5131.38
1263.124	5063.38
1268	5027.38
1272.871	4958.38
1277.737	4925.38
1282.599	4932.38
1287.455	4921.38
1292.306	4946.38
1297.153	5020.38
1301.995	5045.38
1306.832	5081.38
1311.664	5131.38
1316.491	5121.38
1321.314	5117.38
1326.132	5056.38
1330.945	4995.38
1335.753	4914.38
1340.556	4796.38
1345.354	4740.38
1350.148	4689.38
1354.937	4666.38
1359.722	4701.38
1364.501	4753.38
1369.276	4831.38
1374.046	4884.38
1378.811	4927.38
1383.572	4948.38
1388.327	4940.38
1393.079	4856.38
1397.825	4805.38
1402.567	4733.38
1407.304	4681.38
1412.036	4652.38
1416.764	4597.38
1421.487	4613.38
1426.205	4656.38
1430.919	4657.38
1435.628	4725.38
1440.333	4762.38
1445.032	4779.38
1449.727	4802.38
1454.418	4819.38
1459.104	4806.38
1463.785	4778.38
1468.462	4720.38
1473.134	4682.38
1477.802	4671.38
1482.465	4625.38
1487.123	4659.38
1491.777	4645.38
1496.426	4692.38
1501.071	4726.38
1505.711	4795.38
1510.347	4819.38
1514.978	4902.38
1519.604	4949.38
1524.226	4994.38
1528.844	4992.38
1533.457	4969.38
1538.065	4976.38
1542.669	4952.38
1547.269	4955.38
1551.864	4938.38
1556.454	4921.38
1561.041	4941.38
1565.622	4962.38
1570.199	4960.38
1574.772	5006.38
1579.34	5053.38
1583.904	5077.38
1588.464	5127.38
1593.019	5135.38
1597.569	5155.38
1602.115	5112.38
1606.657	5130.38
1611.195	5117.38
1615.728	5094.38
1620.256	5129.38
1624.78	5176.38
1629.3	5202.38
1633.816	5256.38
1638.327	5286.38
1642.834	5336.38
1647.336	5402.38
1651.834	5416.38
1656.328	5403.38
1660.817	5431.38
1665.302	5377.38
1669.783	5362.38
1674.259	5242.38
1678.732	5121.38
1683.199	4979.38
1687.663	4864.38
1692.122	4704.38
1696.577	4654.38
1701.028	4618.38
1705.474	4605.38
1709.917	4602.38
1714.355	4523.38
1718.788	4476.38
1723.218	4448.38
1727.643	4360.38
1732.064	4329.38
1736.481	4224.38
1740.893	4182.38
1745.301	4086.38
1749.705	4031.38
1754.105	3962.38
1758.501	3907.38
1762.893	3851.38
1767.28	3792.38
1771.663	3788.38
1776.042	3778.38
1780.417	3766.38
1784.787	3807.38
1789.154	3876.38
1793.516	3877.38
1797.874	3953.38
1802.228	3973.38
1806.578	4010.38
1810.924	3946.38
1815.266	3923.38
1819.603	3876.38
1823.937	3811.38
1828.266	3795.38
1832.591	3727.38
1836.913	3707.38
1841.23	3687.38
1845.543	3672.38
1849.852	3655.38
1854.156	3688.38
1858.457	3662.38
1862.754	3694.38
1867.047	3697.38
1871.335	3702.38
1875.62	3691.38
1879.9	3713.38
1884.177	3699.38
1888.449	3700.38
1892.718	3676.38
1896.982	3683.38
1901.243	3680.38
1905.499	3640.38
1909.752	3636.38
1914	3645.38
1918.245	3672.38
1922.485	3697.38
1926.722	3738.38
1930.954	3738.38
1935.183	3750.38
1939.408	3774.38
1943.628	3784.38
1947.845	3794.38
1952.058	3812.38
1956.267	3762.38
1960.472	3754.38
1964.673	3699.38
1968.87	3693.38
1973.063	3661.38
1977.252	3602.38
1981.438	3579.38
1985.619	3572.38
1989.797	3552.38
1993.971	3546.38
1998.14	3566.38
2002.306	3584.38
2006.469	3553.38
2010.627	3553.38
2014.781	3536.38
2018.932	3545.38
2023.078	3524.38
2027.221	3502.38
2031.36	3466.38
2035.495	3420.38
2039.627	3423.38
2043.754	3405.38
2047.878	3388.38
2051.998	3386.38
2056.114	3377.38
2060.226	3379.38
2064.334	3413.38
2068.439	3422.38
2072.54	3431.38
2076.637	3428.38
2080.73	3448.38
2084.82	3471.38
2088.906	3445.38
2092.988	3445.38
2097.066	3430.38
2101.14	3412.38
2105.211	3407.38
2109.278	3413.38
2113.342	3379.38
2117.401	3356.38
2121.457	3352.38
2125.509	3358.38
2129.558	3310.38
2133.602	3341.38
2137.643	3319.38
2141.681	3306.38
2145.714	3304.38
2149.744	3300.38
2153.77	3286.38
2157.793	3231.38
2161.812	3229.38
2165.827	3201.38
2169.838	3142.38
2173.846	3130.38
2177.851	3085.38
2181.851	3051.38
2185.848	3015.38
2189.841	2983.38
2193.831	2967.38
2197.817	2955.38
2201.799	2935.38
2205.778	2954.38
2209.753	2960.38
2213.725	2934.38
2217.693	2972.38
2221.657	2972.38
2225.618	2949.38
2229.575	2948.38
2233.529	2939.38
2237.479	2915.38
2241.425	2897.38
2245.368	2867.38
2249.307	2845.38
2253.243	2783.38
2257.175	2759.38
2261.104	2761.38
2265.029	2725.38
2268.95	2692.38
2272.868	2687.38
2276.783	2677.38
2280.694	2652.38
2284.601	2644.38
2288.505	2614.38
2292.405	2572.38
2296.302	2550.38
2300.195	2546.38
2304.085	2496.38
2307.971	2481.38
2311.854	2447.38
2315.734	2421.38
2319.609	2382.38
2323.482	2351.38
2327.351	2324.38
2331.216	2324.38
2335.078	2296.38
2338.937	2275.38
2342.792	2285.38
2346.643	2280.38
2350.492	2272.38
2354.336	2277.38
2358.178	2268.38
2362.015	2262.38
2365.85	2289.38
2369.681	2285.38
2373.508	2305.38
2377.333	2296.38
2381.153	2272.38
2384.971	2262.38
2388.785	2266.38
2392.595	2257.38
2396.402	2245.38
2400.206	2199.38
2404.007	2225.38
2407.804	2184.38
2411.597	2202.38
2415.388	2185.38
2419.174	2200.38
2422.958	2178.38
2426.738	2173.38
2430.515	2180.38
2434.289	2153.38
2438.059	2157.38
2441.825	2153.38
2445.589	2128.38
2449.349	2126.38
2453.106	2094.38
2456.859	2090.38
2460.61	2064.38
2464.356	2042.38
2468.1	2068.38
2471.84	2031.38
2475.577	2015.38
2479.311	2046.38
2483.041	2041.38
2486.768	2036.38
2490.492	2041.38
2494.213	2045.38
2497.93	2022.38
2501.644	2020.38
2505.355	2034.38
2509.062	2020.38
2512.766	1993.38
2516.467	2029.38
2520.165	1994.38
2523.859	2013.38
2527.551	1976.38
2531.239	1994.38
2534.923	1978.38
2538.605	1957.38
2542.283	1934.38
2545.958	1936.38
2549.63	1954.38
2553.299	1904.38
2556.964	1905.38
2560.626	1916.38
2564.285	1927.38
2567.941	1893.38
2571.594	1886.38
2575.243	1875.38
2578.89	1844.38
2582.533	1860.38
2586.173	1855.38
2589.809	1838.38
2593.443	1821.38
2597.073	1816.38
2600.701	1806.38
2604.325	1808.38
2607.946	1786.38
2611.564	1784.38
2615.178	1799.38
2618.79	1786.38
2622.398	1766.38
2626.004	1764.38
2629.606	1761.38
2633.205	1739.38
2636.801	1726.38
2640.394	1708.38
2643.983	1687.38
2647.57	1655.38
2651.153	1663.38
2654.734	1629.38
2658.311	1643.38
2661.885	1605.38
2665.456	1610.38
2669.025	1569.38
2672.589	1567.38
2676.151	1550.38
2679.71	1540.38
2683.266	1537.38
2686.819	1510.38
2690.368	1506.38
2693.915	1476.38
2697.458	1458.38
2700.999	1437.38
2704.536	1412.38
2708.071	1420.38
2711.602	1392.38
2715.13	1386.38
2718.656	1399.38
2722.178	1378.38
2725.697	1368.38
2729.214	1368.38
2732.727	1384.38
2736.237	1375.38
2739.744	1399.38
2743.249	1388.38
2746.75	1383.38
2750.248	1402.38
2753.743	1395.38
2757.236	1382.38
2760.725	1408.38
2764.211	1398.38
2767.695	1389.38
2771.175	1370.38
2774.652	1361.38
2778.127	1364.38
2781.598	1332.38
2785.067	1335.38
2788.532	1332.38
2791.995	1336.38
2795.455	1337.38
2798.911	1322.38
2802.365	1317.38
2805.816	1307.38
2809.264	1308.38
2812.709	1298.38
2816.151	1288.38
2819.59	1283.38
2823.026	1279.38
2826.46	1269.38
2829.89	1263.38
2833.318	1251.38
2836.742	1268.38
2840.164	1255.38
2843.583	1263.38
2846.999	1256.38
2850.412	1262.38
2853.822	1260.38
2857.229	1258.38
2860.634	1269.38
2864.035	1266.38
2867.434	1263.38
2870.83	1269.38
2874.223	1284.38
2877.613	1269.38
2881	1275.38
2884.385	1262.38
2887.766	1257.38
2891.145	1247.38
2894.521	1244.38
2897.894	1231.38
2901.264	1230.38
2904.631	1228.38
2907.996	1220.38
2911.358	1226.38
2914.717	1195.38
2918.073	1219.38
2921.426	1222.38
2924.777	1225.38
2928.124	1234.38
2931.469	1232.38
2934.811	1239.38
2938.15	1247.38
2941.487	1251.38
2944.821	1252.38
2948.152	1260.38
2951.48	1259.38
2954.805	1244.38
2958.128	1267.38
2961.447	1278.38
2964.765	1266.38
2968.079	1270.38
2971.39	1284.38
2974.699	1292.38
2978.005	1299.38
2981.308	1307.38
2984.609	1348.38
2987.907	1375.38
2991.202	1387.38
2994.494	1401.38
2997.784	1436.38
3001.07	1461.38
3004.355	1486.38
3007.636	1484.38
3010.915	1501.38
3014.191	1517.38
3017.464	1538.38
3020.734	1549.38
3024.002	1538.38
3027.267	1539.38
3030.53	1556.38
3033.789	1580.38
3037.046	1577.38
3040.301	1601.38
3043.552	1621.38
3046.801	1634.38
3050.048	1651.38
3053.291	1694.38
3056.532	1724.38
3059.771	1757.38
3063.006	1779.38
3066.239	1829.38
3069.469	1874.38
3072.697	1892.38
3075.922	1948.38
3079.144	1955.38
3082.364	1996.38
3085.581	2015.38
3088.795	2046.38
3092.007	2078.38
3095.216	2116.38
3098.423	2163.38
3101.627	2186.38
3104.828	2250.38
3108.026	2275.38
3111.222	2289.38
3114.416	2347.38
3117.607	2384.38
3120.795	2407.38
3123.98	2447.38
3127.163	2507.38
3130.344	2539.38
3133.521	2585.38
3136.696	2650.38
3139.869	2685.38
3143.039	2726.38
3146.206	2742.38
3149.371	2771.38
3152.533	2777.38
3155.693	2791.38
3158.85	2813.38
3162.005	2843.38
3165.157	2808.38
3168.306	2818.38
3171.453	2832.38
3174.597	2832.38
3177.739	2858.38
3180.878	2860.38
3184.014	2842.38
3187.149	2857.38
3190.28	2858.38
3193.409	2855.38
3196.536	2878.38
3199.659	2860.38
3202.781	2864.38
3205.9	2892.38
3209.016	2895.38
3212.13	2864.38
3215.241	2878.38
3218.35	2843.38
3221.456	2817.38
3224.56	2805.38
3227.661	2748.38
3230.76	2738.38
3233.856	2727.38
3236.95	2686.38
3240.041	2689.38
3243.13	2651.38
3246.216	2626.38
3249.3	2619.38
3252.382	2620.38
3255.46	2618.38
3258.537	2610.38
3261.611	2583.38
3264.682	2609.38
3267.751	2575.38
3270.818	2586.38
3273.882	2567.38
3276.943	2534.38
3280.002	2524.38
3283.059	2490.38
3286.113	2479.38
3289.165	2458.38
3292.214	2403.38
3295.261	2355.38
3298.306	2328.38
3301.348	2314.38
3304.387	2248.38
3307.425	2221.38
3310.459	2198.38
3313.492	2161.38
3316.521	2143.38
3319.549	2092.38
3322.574	2089.38
3325.597	2065.38
3328.617	2051.38
3331.635	2027.38
3334.65	2045.38
3337.663	2009.38
3340.674	1995.38
3343.682	1984.38
3346.688	1994.38
3349.691	1978.38
3352.692	1966.38
3355.691	1966.38
3358.687	1931.38
3361.681	1909.38
3364.673	1869.38
3367.662	1849.38
3370.649	1849.38
3373.633	1809.38
3376.615	1785.38
3379.595	1769.38
3382.572	1749.38
3385.547	1722.38
3388.52	1706.38
3391.49	1678.38
3394.458	1647.38
3397.424	1627.38
3400.387	1618.38
3403.348	1615.38
3406.307	1573.38
3409.263	1560.38
3412.217	1554.38
3415.168	1522.38
3418.118	1513.38
3421.065	1491.38
3424.009	1458.38
3426.951	1449.38
3429.891	1437.38
3432.829	1414.38
3435.764	1380.38
3438.697	1343.38
3441.628	1307.38
3444.557	1288.38
3447.483	1249.38
3450.407	1233.38
3453.328	1196.38
3456.247	1157.38
3459.164	1124.38
3462.079	1102.38
3464.991	1049.38
3467.902	1033.38
3470.809	990.38
3473.715	982.38
3476.618	941.38
3479.519	922.38
3482.418	906.38
3485.315	874.38
3488.209	847.38
3491.101	834.38
3493.99	819.38
3496.878	792.38
3499.763	772.38
3502.646	749.38
3505.527	743.38
3508.405	705.38
3511.281	681.38
3514.155	648.38
3517.027	627.38
3519.897	591.38
3522.764	582.38
3525.629	532.38
3528.492	512.38
3531.352	483.38
3534.211	454.38
3537.067	442.38
3539.921	417.38
3542.773	384.38
3545.622	366.38
3548.469	348.38
3551.315	332.38
3554.157	309.38
3556.998	292.38
3559.837	272.38
3562.673	261.38
3565.507	246.38
3568.339	232.38
3571.169	210.38
3573.996	205.38
3576.822	186.38
3579.645	173.38
3582.466	164.38
3585.285	144.38
3588.101	136.38
3590.916	119.38
3593.728	109.38
3596.538	100.38
3599.346	84.38
3602.152	69.38
3604.956	60.38
3607.757	48.38
3610.556	43.38
3613.354	33.38
3616.149	23.38
3618.942	11.38
3621.732	4.38
3624.521	-4.62
3627.307	-6.62
3630.092	-3.62
3632.874	-19.62
3635.654	-32.62
3638.432	-34.62
3641.208	-35.62
3643.982	-47.62
3646.753	-53.62
3649.523	-54.62
3652.29	-64.62
3655.055	-68.62
3657.818	-77.62
3660.579	-83.62
3663.338	-94.62
3666.095	-105.62
3668.849	-103.62
3671.602	-119.62
3674.352	-116.62
3677.101	-123.62
3679.847	-135.62
3682.591	-141.62
3685.333	-145.62
3688.073	-140.62
3690.811	-146.62
3693.547	-151.62
3696.281	-153.62
3699.013	-158.62
3701.742	-162.62
3704.47	-160.62
3707.195	-164.62
3709.919	-174.62
3712.64	-166.62
3715.359	-175.62
3718.076	-180.62
3720.792	-172.62
3723.505	-182.62
3726.216	-188.62
3728.925	-194.62
3731.632	-188.62
3734.336	-195.62
3737.039	-190.62
3739.74	-199.62
3742.439	-201.62
3745.136	-192.62
3747.83	-202.62
3750.523	-202.62
3753.213	-196.62
3755.902	-205.62
3758.589	-204.62
3761.273	-206.62
3763.956	-203.62
3766.636	-205.62
3769.315	-204.62
3771.991	-207.62
3774.665	-211.62
3777.338	-209.62
3780.008	-214.62
3782.677	-214.62
3785.343	-213.62
3788.007	-214.62
3790.67	-220.62
3793.33	-216.62
3795.989	-216.62
3798.645	-219.62
3801.299	-222.62
3803.952	-228.62
3806.602	-220.62
3809.251	-226.62
3811.897	-231.62
3814.542	-233.62
3817.184	-235.62
3819.825	-225.62
3822.463	-230.62
3825.1	-227.62
3827.735	-234.62
3830.367	-237.62
3832.998	-237.62
3835.627	-236.62
3838.253	-236.62
3840.878	-235.62
3843.501	-243.62
3846.122	-241.62
3848.741	-244.62
3851.358	-238.62
3853.973	-239.62
3856.586	-240.62
3859.197	-241.62
3861.806	-247.62
3864.414	-244.62
3867.019	-245.62
3869.622	-243.62
3872.224	-239.62
3874.823	-237.62
3877.421	-236.62
3880.016	-230.62
3882.61	-227.62
3885.202	-227.62
3887.792	-225.62
3890.38	-238.62
3892.966	-238.62
3895.55	-245.62
3898.132	-246.62
3900.713	-246.62
3903.291	-244.62
3905.868	-249.62
3908.442	-246.62
3911.015	-247.62
3913.586	-255.62
3916.155	-252.62
3918.722	-249.62
3921.287	-248.62
3923.85	-251.62
3926.411	-250.62
3928.971	-260.62
3931.528	-255.62
3934.084	-249.62
3936.638	-252.62
3939.19	-253.62
3941.74	-256.62
3944.288	-257.62
3946.834	-258.62
3949.378	-252.62
3951.921	-260.62
3954.462	-259.62
3957	-259.62
3959.537	-257.62
3962.072	-254.62
3964.606	-257.62
3967.137	-258.62
3969.667	-257.62
3972.194	-259.62
3974.72	-262.62
3977.244	-255.62
3979.766	-252.62
3982.286	-255.62
3984.805	-251.62
3987.321	-251.62
3989.836	-254.62
3992.349	-254.62
3994.86	-255.62
3997.369	-251.62
3999.877	-253.62
4002.382	-256.62
4004.886	-248.62
4007.388	-258.62
4009.888	-255.62
4012.386	-255.62
4014.883	-252.62
4017.377	-251.62
4019.87	-250.62
4022.361	-247.62
4024.85	-249.62
4027.338	-253.62
4029.823	-255.62
4032.307	-251.62
4034.789	-255.62
4037.269	-252.62
4039.747	-254.62
4042.224	-256.62
4044.699	-253.62
4047.172	-255.62
4049.643	-256.62
4052.112	-255.62
4054.58	-251.62
4057.046	-253.62
4059.51	-248.62
4061.972	-259.62
4064.432	-252.62
4066.891	-254.62
4069.348	-253.62
4071.803	-253.62
4074.256	-257.62
4076.708	-251.62
4079.158	-252.62
4081.606	-259.62
4084.052	-256.62
4086.497	-255.62
4088.939	-258.62
4091.38	-257.62
4093.819	-251.62
4096.257	-272.62
4098.693	-271.62
4101.127	-269.62
4103.559	-267.62
4105.989	-166.62
4108.418	-158.62
4110.845	-149.62
4113.27	-138.62
4115.694	-118.62
4118.115	-93.62
4120.535	-256.62
4122.954	-256.62
4125.37	-255.62
4127.785	-257.62
4130.198	-257.62
4132.609	-257.62
4135.019	-269.62
4137.427	-269.62
4139.833	-268.62
4142.237	-273.62
