Data from I0.75_T15s_Bsub_water_0_1_RamanShift_3.txt Node
Date: Mon Mar 13 15:43:22 IST 2017
User: aro
Spectrometer: QEPB0276
Trigger mode: 0
Integration Time (sec): 1.500000E1
Scans to average: 1
Electric dark correction enabled: true
Nonlinearity correction enabled: false
Boxcar width: 0
XAxis mode: Raman Shifts
Number of Pixels in Spectrum: 1044
>>>>>Begin Spectral Data<<<<<
160.701	-79.75
166.742	7.25
172.777	252.25
178.805	1061.25
184.826	3042.25
190.841	6561.25
196.849	10603.25
202.85	13311.25
208.845	13958.25
214.833	13716.25
220.815	13239.25
226.789	13065.25
232.758	12872.25
238.719	12618.25
244.674	12352.25
250.623	11963.25
256.565	11631.25
262.5	11220.25
268.429	10942.25
274.351	10585.25
280.267	10365.25
286.176	10140.25
292.079	9908.25
297.975	9659.25
303.865	9437.25
309.748	9218.25
315.625	9019.25
321.495	8889.25
327.359	8729.25
333.217	8570.25
339.068	8476.25
344.912	8391.25
350.751	8308.25
356.583	8296.25
362.408	8183.25
368.227	8138.25
374.04	8120.25
379.847	8108.25
385.647	8127.25
391.44	8143.25
397.228	8136.25
403.009	8173.25
408.784	8193.25
414.553	8189.25
420.315	8194.25
426.071	8203.25
431.821	8231.25
437.565	8250.25
443.302	8215.25
449.033	8190.25
454.758	8172.25
460.477	8069.25
466.189	8072.25
471.896	7992.25
477.596	7937.25
483.29	7915.25
488.978	7856.25
494.66	7829.25
500.335	7753.25
506.005	7677.25
511.668	7581.25
517.325	7474.25
522.977	7419.25
528.622	7339.25
534.261	7291.25
539.894	7229.25
545.521	7260.25
551.141	7160.25
556.756	7158.25
562.365	7125.25
567.968	7129.25
573.565	7119.25
579.155	7052.25
584.74	7040.25
590.319	6987.25
595.892	6977.25
601.459	6987.25
607.02	6933.25
612.575	6868.25
618.124	6806.25
623.667	6811.25
629.204	6727.25
634.735	6691.25
640.261	6659.25
645.781	6652.25
651.294	6679.25
656.802	6661.25
662.304	6594.25
667.8	6628.25
673.29	6612.25
678.775	6598.25
684.254	6572.25
689.726	6588.25
695.193	6557.25
700.655	6566.25
706.11	6531.25
711.56	6513.25
717.004	6454.25
722.442	6460.25
727.874	6422.25
733.301	6378.25
738.722	6413.25
744.137	6404.25
749.547	6375.25
754.951	6399.25
760.349	6400.25
765.741	6415.25
771.128	6442.25
776.509	6435.25
781.885	6454.25
787.254	6448.25
792.618	6465.25
797.977	6438.25
803.33	6412.25
808.677	6386.25
814.019	6366.25
819.355	6276.25
824.686	6267.25
830.011	6242.25
835.33	6289.25
840.644	6279.25
845.952	6265.25
851.255	6320.25
856.552	6342.25
861.844	6375.25
867.13	6517.25
872.41	6706.25
877.686	7014.25
882.955	7243.25
888.219	7175.25
893.478	6709.25
898.731	6341.25
903.979	6135.25
909.221	6041.25
914.458	5999.25
919.69	5976.25
924.916	5990.25
930.136	6001.25
935.351	6004.25
940.561	6067.25
945.766	6005.25
950.965	5972.25
956.158	5962.25
961.347	5929.25
966.529	5854.25
971.707	5811.25
976.879	5771.25
982.046	5713.25
987.208	5693.25
992.364	5715.25
997.515	5802.25
1002.66	5849.25
1007.801	5927.25
1012.936	5987.25
1018.066	6106.25
1023.19	6118.25
1028.309	6151.25
1033.423	6159.25
1038.532	6161.25
1043.636	6245.25
1048.734	6268.25
1053.827	6226.25
1058.915	6129.25
1063.998	6032.25
1069.075	5987.25
1074.147	6039.25
1079.214	6152.25
1084.276	6243.25
1089.333	6317.25
1094.385	6353.25
1099.431	6341.25
1104.472	6283.25
1109.509	6190.25
1114.54	6099.25
1119.565	6020.25
1124.586	5980.25
1129.602	5947.25
1134.613	5888.25
1139.618	5844.25
1144.619	5851.25
1149.614	5891.25
1154.604	5937.25
1159.589	5955.25
1164.57	5948.25
1169.545	5975.25
1174.515	5979.25
1179.48	5976.25
1184.44	5947.25
1189.395	5889.25
1194.345	5858.25
1199.29	5877.25
1204.23	5908.25
1209.165	5901.25
1214.095	5939.25
1219.021	5993.25
1223.941	6077.25
1228.856	6102.25
1233.766	6168.25
1238.672	6181.25
1243.572	6163.25
1248.467	6153.25
1253.358	6085.25
1258.244	6017.25
1263.124	5948.25
1268	5922.25
1272.871	5896.25
1277.737	5898.25
1282.599	5901.25
1287.455	5933.25
1292.306	5941.25
1297.153	5950.25
1301.995	5980.25
1306.832	6032.25
1311.664	6054.25
1316.491	6083.25
1321.314	6027.25
1326.132	6000.25
1330.945	5922.25
1335.753	5812.25
1340.556	5719.25
1345.354	5673.25
1350.148	5585.25
1354.937	5581.25
1359.722	5624.25
1364.501	5654.25
1369.276	5744.25
1374.046	5815.25
1378.811	5866.25
1383.572	5906.25
1388.327	5866.25
1393.079	5818.25
1397.825	5730.25
1402.567	5648.25
1407.304	5642.25
1412.036	5585.25
1416.764	5569.25
1421.487	5566.25
1426.205	5614.25
1430.919	5679.25
1435.628	5759.25
1440.333	5791.25
1445.032	5886.25
1449.727	6002.25
1454.418	6109.25
1459.104	6217.25
1463.785	6137.25
1468.462	5943.25
1473.134	5814.25
1477.802	5760.25
1482.465	5659.25
1487.123	5688.25
1491.777	5685.25
1496.426	5691.25
1501.071	5738.25
1505.711	5790.25
1510.347	5854.25
1514.978	5883.25
1519.604	5940.25
1524.226	5947.25
1528.844	5974.25
1533.457	5968.25
1538.065	5941.25
1542.669	5915.25
1547.269	5890.25
1551.864	5851.25
1556.454	5847.25
1561.041	5871.25
1565.622	5902.25
1570.199	5902.25
1574.772	5967.25
1579.34	6035.25
1583.904	6064.25
1588.464	6113.25
1593.019	6156.25
1597.569	6125.25
1602.115	6124.25
1606.657	6124.25
1611.195	6090.25
1615.728	6088.25
1620.256	6096.25
1624.78	6132.25
1629.3	6195.25
1633.816	6243.25
1638.327	6300.25
1642.834	6369.25
1647.336	6404.25
1651.834	6440.25
1656.328	6433.25
1660.817	6465.25
1665.302	6438.25
1669.783	6342.25
1674.259	6258.25
1678.732	6084.25
1683.199	5956.25
1687.663	5800.25
1692.122	5637.25
1696.577	5551.25
1701.028	5458.25
1705.474	5455.25
1709.917	5457.25
1714.355	5402.25
1718.788	5321.25
1723.218	5265.25
1727.643	5184.25
1732.064	5136.25
1736.481	5069.25
1740.893	4996.25
1745.301	4897.25
1749.705	4820.25
1754.105	4745.25
1758.501	4651.25
1762.893	4616.25
1767.28	4551.25
1771.663	4501.25
1776.042	4517.25
1780.417	4538.25
1784.787	4569.25
1789.154	4611.25
1793.516	4674.25
1797.874	4701.25
1802.228	4761.25
1806.578	4783.25
1810.924	4712.25
1815.266	4700.25
1819.603	4635.25
1823.937	4572.25
1828.266	4533.25
1832.591	4465.25
1836.913	4399.25
1841.23	4422.25
1845.543	4388.25
1849.852	4385.25
1854.156	4372.25
1858.457	4407.25
1862.754	4414.25
1867.047	4448.25
1871.335	4424.25
1875.62	4460.25
1879.9	4505.25
1884.177	4444.25
1888.449	4457.25
1892.718	4423.25
1896.982	4378.25
1901.243	4409.25
1905.499	4377.25
1909.752	4399.25
1914	4356.25
1918.245	4420.25
1922.485	4409.25
1926.722	4432.25
1930.954	4469.25
1935.183	4499.25
1939.408	4506.25
1943.628	4530.25
1947.845	4507.25
1952.058	4543.25
1956.267	4501.25
1960.472	4500.25
1964.673	4463.25
1968.87	4387.25
1973.063	4373.25
1977.252	4325.25
1981.438	4302.25
1985.619	4269.25
1989.797	4285.25
1993.971	4280.25
1998.14	4265.25
2002.306	4285.25
2006.469	4291.25
2010.627	4302.25
2014.781	4268.25
2018.932	4274.25
2023.078	4254.25
2027.221	4211.25
2031.36	4185.25
2035.495	4142.25
2039.627	4103.25
2043.754	4100.25
2047.878	4076.25
2051.998	4066.25
2056.114	4031.25
2060.226	4091.25
2064.334	4095.25
2068.439	4087.25
2072.54	4129.25
2076.637	4147.25
2080.73	4170.25
2084.82	4162.25
2088.906	4176.25
2092.988	4185.25
2097.066	4143.25
2101.14	4109.25
2105.211	4128.25
2109.278	4075.25
2113.342	4085.25
2117.401	4061.25
2121.457	4042.25
2125.509	4033.25
2129.558	4036.25
2133.602	4037.25
2137.643	4017.25
2141.681	4013.25
2145.714	4036.25
2149.744	3999.25
2153.77	3965.25
2157.793	3934.25
2161.812	3934.25
2165.827	3867.25
2169.838	3840.25
2173.846	3781.25
2177.851	3717.25
2181.851	3679.25
2185.848	3654.25
2189.841	3644.25
2193.831	3610.25
2197.817	3591.25
2201.799	3583.25
2205.778	3569.25
2209.753	3586.25
2213.725	3597.25
2217.693	3580.25
2221.657	3585.25
2225.618	3607.25
2229.575	3578.25
2233.529	3589.25
2237.479	3560.25
2241.425	3530.25
2245.368	3498.25
2249.307	3463.25
2253.243	3408.25
2257.175	3409.25
2261.104	3362.25
2265.029	3330.25
2268.95	3298.25
2272.868	3297.25
2276.783	3258.25
2280.694	3245.25
2284.601	3226.25
2288.505	3177.25
2292.405	3189.25
2296.302	3163.25
2300.195	3118.25
2304.085	3093.25
2307.971	3078.25
2311.854	3004.25
2315.734	2960.25
2319.609	2922.25
2323.482	2891.25
2327.351	2852.25
2331.216	2852.25
2335.078	2833.25
2338.937	2823.25
2342.792	2782.25
2346.643	2784.25
2350.492	2791.25
2354.336	2795.25
2358.178	2825.25
2362.015	2810.25
2365.85	2798.25
2369.681	2818.25
2373.508	2832.25
2377.333	2810.25
2381.153	2794.25
2384.971	2795.25
2388.785	2792.25
2392.595	2804.25
2396.402	2772.25
2400.206	2750.25
2404.007	2756.25
2407.804	2738.25
2411.597	2741.25
2415.388	2706.25
2419.174	2709.25
2422.958	2696.25
2426.738	2690.25
2430.515	2678.25
2434.289	2675.25
2438.059	2657.25
2441.825	2687.25
2445.589	2673.25
2449.349	2656.25
2453.106	2645.25
2456.859	2593.25
2460.61	2588.25
2464.356	2574.25
2468.1	2554.25
2471.84	2552.25
2475.577	2526.25
2479.311	2539.25
2483.041	2515.25
2486.768	2545.25
2490.492	2544.25
2494.213	2514.25
2497.93	2560.25
2501.644	2517.25
2505.355	2524.25
2509.062	2524.25
2512.766	2524.25
2516.467	2510.25
2520.165	2481.25
2523.859	2503.25
2527.551	2472.25
2531.239	2449.25
2534.923	2430.25
2538.605	2428.25
2542.283	2408.25
2545.958	2412.25
2549.63	2410.25
2553.299	2401.25
2556.964	2373.25
2560.626	2376.25
2564.285	2358.25
2567.941	2354.25
2571.594	2353.25
2575.243	2337.25
2578.89	2320.25
2582.533	2312.25
2586.173	2304.25
2589.809	2262.25
2593.443	2260.25
2597.073	2248.25
2600.701	2256.25
2604.325	2242.25
2607.946	2239.25
2611.564	2222.25
2615.178	2234.25
2618.79	2221.25
2622.398	2201.25
2626.004	2195.25
2629.606	2196.25
2633.205	2170.25
2636.801	2130.25
2640.394	2146.25
2643.983	2129.25
2647.57	2085.25
2651.153	2052.25
2654.734	2052.25
2658.311	2045.25
2661.885	2029.25
2665.456	1992.25
2669.025	1981.25
2672.589	1967.25
2676.151	1951.25
2679.71	1943.25
2683.266	1939.25
2686.819	1911.25
2690.368	1892.25
2693.915	1867.25
2697.458	1836.25
2700.999	1830.25
2704.536	1808.25
2708.071	1791.25
2711.602	1785.25
2715.13	1760.25
2718.656	1748.25
2722.178	1749.25
2725.697	1742.25
2729.214	1744.25
2732.727	1764.25
2736.237	1769.25
2739.744	1761.25
2743.249	1776.25
2746.75	1767.25
2750.248	1785.25
2753.743	1783.25
2757.236	1766.25
2760.725	1771.25
2764.211	1788.25
2767.695	1746.25
2771.175	1749.25
2774.652	1723.25
2778.127	1719.25
2781.598	1708.25
2785.067	1692.25
2788.532	1682.25
2791.995	1682.25
2795.455	1679.25
2798.911	1683.25
2802.365	1678.25
2805.816	1670.25
2809.264	1656.25
2812.709	1650.25
2816.151	1660.25
2819.59	1649.25
2823.026	1645.25
2826.46	1638.25
2829.89	1644.25
2833.318	1640.25
2836.742	1643.25
2840.164	1653.25
2843.583	1646.25
2846.999	1674.25
2850.412	1668.25
2853.822	1678.25
2857.229	1691.25
2860.634	1689.25
2864.035	1722.25
2867.434	1728.25
2870.83	1740.25
2874.223	1781.25
2877.613	1788.25
2881	1822.25
2884.385	1845.25
2887.766	1818.25
2891.145	1833.25
2894.521	1807.25
2897.894	1823.25
2901.264	1785.25
2904.631	1783.25
2907.996	1752.25
2911.358	1773.25
2914.717	1760.25
2918.073	1759.25
2921.426	1778.25
2924.777	1810.25
2928.124	1833.25
2931.469	1873.25
2934.811	1952.25
2938.15	1980.25
2941.487	1968.25
2944.821	1921.25
2948.152	1917.25
2951.48	1858.25
2954.805	1820.25
2958.128	1797.25
2961.447	1779.25
2964.765	1754.25
2968.079	1751.25
2971.39	1762.25
2974.699	1784.25
2978.005	1801.25
2981.308	1845.25
2984.609	1839.25
2987.907	1863.25
2991.202	1884.25
2994.494	1895.25
2997.784	1905.25
3001.07	1921.25
3004.355	1902.25
3007.636	1910.25
3010.915	1918.25
3014.191	1922.25
3017.464	1917.25
3020.734	1917.25
3024.002	1924.25
3027.267	1935.25
3030.53	1935.25
3033.789	1911.25
3037.046	1928.25
3040.301	1966.25
3043.552	1981.25
3046.801	1994.25
3050.048	2008.25
3053.291	2053.25
3056.532	2074.25
3059.771	2115.25
3063.006	2172.25
3066.239	2210.25
3069.469	2260.25
3072.697	2300.25
3075.922	2326.25
3079.144	2369.25
3082.364	2415.25
3085.581	2440.25
3088.795	2465.25
3092.007	2522.25
3095.216	2540.25
3098.423	2600.25
3101.627	2644.25
3104.828	2649.25
3108.026	2709.25
3111.222	2732.25
3114.416	2794.25
3117.607	2831.25
3120.795	2885.25
3123.98	2925.25
3127.163	2973.25
3130.344	3026.25
3133.521	3116.25
3136.696	3136.25
3139.869	3185.25
3143.039	3249.25
3146.206	3276.25
3149.371	3302.25
3152.533	3341.25
3155.693	3340.25
3158.85	3333.25
3162.005	3363.25
3165.157	3349.25
3168.306	3363.25
3171.453	3362.25
3174.597	3364.25
3177.739	3386.25
3180.878	3366.25
3184.014	3389.25
3187.149	3343.25
3190.28	3394.25
3193.409	3375.25
3196.536	3396.25
3199.659	3392.25
3202.781	3399.25
3205.9	3413.25
3209.016	3401.25
3212.13	3381.25
3215.241	3368.25
3218.35	3366.25
3221.456	3307.25
3224.56	3304.25
3227.661	3239.25
3230.76	3231.25
3233.856	3211.25
3236.95	3169.25
3240.041	3161.25
3243.13	3123.25
3246.216	3113.25
3249.3	3067.25
3252.382	3067.25
3255.46	3066.25
3258.537	3071.25
3261.611	3031.25
3264.682	3024.25
3267.751	3007.25
3270.818	3012.25
3273.882	2994.25
3276.943	2988.25
3280.002	2971.25
3283.059	2907.25
3286.113	2902.25
3289.165	2857.25
3292.214	2839.25
3295.261	2779.25
3298.306	2737.25
3301.348	2659.25
3304.387	2633.25
3307.425	2583.25
3310.459	2571.25
3313.492	2544.25
3316.521	2489.25
3319.549	2468.25
3322.574	2436.25
3325.597	2403.25
3328.617	2421.25
3331.635	2382.25
3334.65	2375.25
3337.663	2366.25
3340.674	2348.25
3343.682	2316.25
3346.688	2316.25
3349.691	2320.25
3352.692	2301.25
3355.691	2272.25
3358.687	2294.25
3361.681	2222.25
3364.673	2195.25
3367.662	2177.25
3370.649	2149.25
3373.633	2125.25
3376.615	2098.25
3379.595	2069.25
3382.572	2026.25
3385.547	2020.25
3388.52	1986.25
3391.49	1956.25
3394.458	1922.25
3397.424	1895.25
3400.387	1885.25
3403.348	1883.25
3406.307	1843.25
3409.263	1816.25
3412.217	1808.25
3415.168	1778.25
3418.118	1754.25
3421.065	1756.25
3424.009	1719.25
3426.951	1695.25
3429.891	1674.25
3432.829	1638.25
3435.764	1609.25
3438.697	1580.25
3441.628	1545.25
3444.557	1502.25
3447.483	1474.25
3450.407	1405.25
3453.328	1395.25
3456.247	1355.25
3459.164	1320.25
3462.079	1262.25
3464.991	1228.25
3467.902	1198.25
3470.809	1145.25
3473.715	1135.25
3476.618	1108.25
3479.519	1075.25
3482.418	1035.25
3485.315	1011.25
3488.209	991.25
3491.101	959.25
3493.99	919.25
3496.878	914.25
3499.763	890.25
3502.646	858.25
3505.527	825.25
3508.405	805.25
3511.281	763.25
3514.155	740.25
3517.027	712.25
3519.897	690.25
3522.764	651.25
3525.629	610.25
3528.492	585.25
3531.352	549.25
3534.211	519.25
3537.067	500.25
3539.921	471.25
3542.773	449.25
3545.622	429.25
3548.469	403.25
3551.315	380.25
3554.157	350.25
3556.998	339.25
3559.837	324.25
3562.673	287.25
3565.507	284.25
3568.339	259.25
3571.169	256.25
3573.996	233.25
3576.822	215.25
3579.645	191.25
3582.466	183.25
3585.285	165.25
3588.101	155.25
3590.916	140.25
3593.728	128.25
3596.538	109.25
3599.346	97.25
3602.152	80.25
3604.956	75.25
3607.757	60.25
3610.556	40.25
3613.354	36.25
3616.149	32.25
3618.942	13.25
3621.732	14.25
3624.521	4.25
3627.307	-6.75
3630.092	-13.75
3632.874	-24.75
3635.654	-32.75
3638.432	-35.75
3641.208	-46.75
3643.982	-47.75
3646.753	-61.75
3649.523	-71.75
3652.29	-82.75
3655.055	-77.75
3657.818	-89.75
3660.579	-95.75
3663.338	-112.75
3666.095	-110.75
3668.849	-123.75
3671.602	-136.75
3674.352	-131.75
3677.101	-141.75
3679.847	-145.75
3682.591	-150.75
3685.333	-158.75
3688.073	-164.75
3690.811	-163.75
3693.547	-169.75
3696.281	-169.75
3699.013	-176.75
3701.742	-184.75
3704.47	-186.75
3707.195	-191.75
3709.919	-193.75
3712.64	-190.75
3715.359	-196.75
3718.076	-195.75
3720.792	-204.75
3723.505	-206.75
3726.216	-209.75
3728.925	-217.75
3731.632	-214.75
3734.336	-222.75
3737.039	-210.75
3739.74	-218.75
3742.439	-218.75
3745.136	-215.75
3747.83	-229.75
3750.523	-226.75
3753.213	-223.75
3755.902	-231.75
3758.589	-228.75
3761.273	-230.75
3763.956	-232.75
3766.636	-233.75
3769.315	-236.75
3771.991	-237.75
3774.665	-238.75
3777.338	-241.75
3780.008	-235.75
3782.677	-240.75
3785.343	-241.75
3788.007	-246.75
3790.67	-253.75
3793.33	-250.75
3795.989	-245.75
3798.645	-250.75
3801.299	-260.75
3803.952	-253.75
3806.602	-256.75
3809.251	-259.75
3811.897	-258.75
3814.542	-265.75
3817.184	-263.75
3819.825	-263.75
3822.463	-264.75
3825.1	-264.75
3827.735	-264.75
3830.367	-275.75
3832.998	-265.75
3835.627	-267.75
3838.253	-270.75
3840.878	-271.75
3843.501	-271.75
3846.122	-275.75
3848.741	-278.75
3851.358	-275.75
3853.973	-271.75
3856.586	-271.75
3859.197	-273.75
3861.806	-276.75
3864.414	-276.75
3867.019	-279.75
3869.622	-276.75
3872.224	-278.75
3874.823	-271.75
3877.421	-272.75
3880.016	-261.75
3882.61	-258.75
3885.202	-257.75
3887.792	-261.75
3890.38	-271.75
3892.966	-280.75
3895.55	-283.75
3898.132	-282.75
3900.713	-281.75
3903.291	-280.75
3905.868	-287.75
3908.442	-287.75
3911.015	-286.75
3913.586	-294.75
3916.155	-289.75
3918.722	-290.75
3921.287	-286.75
3923.85	-288.75
3926.411	-290.75
3928.971	-298.75
3931.528	-287.75
3934.084	-295.75
3936.638	-290.75
3939.19	-290.75
3941.74	-296.75
3944.288	-296.75
3946.834	-296.75
3949.378	-294.75
3951.921	-298.75
3954.462	-298.75
3957	-297.75
3959.537	-297.75
3962.072	-291.75
3964.606	-294.75
3967.137	-294.75
3969.667	-294.75
3972.194	-296.75
3974.72	-296.75
3977.244	-289.75
3979.766	-289.75
3982.286	-291.75
3984.805	-290.75
3987.321	-286.75
3989.836	-292.75
3992.349	-290.75
3994.86	-288.75
3997.369	-288.75
3999.877	-287.75
4002.382	-293.75
4004.886	-284.75
4007.388	-285.75
4009.888	-292.75
4012.386	-285.75
4014.883	-288.75
4017.377	-293.75
4019.87	-289.75
4022.361	-284.75
4024.85	-281.75
4027.338	-289.75
4029.823	-294.75
4032.307	-288.75
4034.789	-293.75
4037.269	-289.75
4039.747	-293.75
4042.224	-292.75
4044.699	-291.75
4047.172	-293.75
4049.643	-297.75
4052.112	-293.75
4054.58	-294.75
4057.046	-294.75
4059.51	-294.75
4061.972	-300.75
4064.432	-295.75
4066.891	-295.75
4069.348	-293.75
4071.803	-291.75
4074.256	-297.75
4076.708	-293.75
4079.158	-298.75
4081.606	-296.75
4084.052	-298.75
4086.497	-295.75
4088.939	-293.75
4091.38	-300.75
4093.819	-293.75
4096.257	-311.75
4098.693	-314.75
4101.127	-311.75
4103.559	-310.75
4105.989	-197.75
4108.418	-189.75
4110.845	-179.75
4113.27	-162.75
4115.694	-137.75
4118.115	-121.75
4120.535	-294.75
4122.954	-297.75
4125.37	-294.75
4127.785	-293.75
4130.198	-294.75
4132.609	-298.75
4135.019	-310.75
4137.427	-308.75
4139.833	-306.75
4142.237	-314.75
