Data from I0.75_T5s_Bsub_water_1-10^4_3_RamanShift_1.txt Node
Date: Mon Mar 13 15:10:27 IST 2017
User: aro
Spectrometer: QEPB0276
Trigger mode: 0
Integration Time (sec): 5.000000E0
Scans to average: 1
Electric dark correction enabled: true
Nonlinearity correction enabled: false
Boxcar width: 0
XAxis mode: Raman Shifts
Number of Pixels in Spectrum: 1044
>>>>>Begin Spectral Data<<<<<
160.701	-30.38
166.742	-1.38
172.777	91.62
178.805	382.62
184.826	1106.62
190.841	2361.62
196.849	3791.62
202.85	4697.62
208.845	4961.62
214.833	4822.62
220.815	4722.62
226.789	4647.62
232.758	4562.62
238.719	4506.62
244.674	4374.62
250.623	4265.62
256.565	4111.62
262.5	3970.62
268.429	3851.62
274.351	3758.62
280.267	3657.62
286.176	3595.62
292.079	3508.62
297.975	3435.62
303.865	3349.62
309.748	3253.62
315.625	3209.62
321.495	3156.62
327.359	3097.62
333.217	3074.62
339.068	3037.62
344.912	2996.62
350.751	2954.62
356.583	2928.62
362.408	2939.62
368.227	2925.62
374.04	2914.62
379.847	2901.62
385.647	2899.62
391.44	2902.62
397.228	2916.62
403.009	2886.62
408.784	2903.62
414.553	2929.62
420.315	2921.62
426.071	2905.62
431.821	2907.62
437.565	2911.62
443.302	2864.62
449.033	2873.62
454.758	2869.62
460.477	2851.62
466.189	2861.62
471.896	2841.62
477.596	2856.62
483.29	2833.62
488.978	2806.62
494.66	2801.62
500.335	2768.62
506.005	2740.62
511.668	2704.62
517.325	2666.62
522.977	2673.62
528.622	2639.62
534.261	2629.62
539.894	2592.62
545.521	2598.62
551.141	2572.62
556.756	2574.62
562.365	2575.62
567.968	2553.62
573.565	2563.62
579.155	2527.62
584.74	2538.62
590.319	2526.62
595.892	2491.62
601.459	2499.62
607.02	2500.62
612.575	2461.62
618.124	2446.62
623.667	2444.62
629.204	2437.62
634.735	2423.62
640.261	2403.62
645.781	2408.62
651.294	2398.62
656.802	2394.62
662.304	2388.62
667.8	2379.62
673.29	2375.62
678.775	2363.62
684.254	2374.62
689.726	2362.62
695.193	2371.62
700.655	2344.62
706.11	2339.62
711.56	2326.62
717.004	2319.62
722.442	2313.62
727.874	2315.62
733.301	2285.62
738.722	2322.62
744.137	2285.62
749.547	2301.62
754.951	2303.62
760.349	2310.62
765.741	2324.62
771.128	2314.62
776.509	2301.62
781.885	2321.62
787.254	2329.62
792.618	2311.62
797.977	2287.62
803.33	2295.62
808.677	2273.62
814.019	2267.62
819.355	2244.62
824.686	2262.62
830.011	2244.62
835.33	2245.62
840.644	2253.62
845.952	2257.62
851.255	2253.62
856.552	2257.62
861.844	2233.62
867.13	2254.62
872.41	2255.62
877.686	2249.62
882.955	2211.62
888.219	2211.62
893.478	2188.62
898.731	2158.62
903.979	2159.62
909.221	2129.62
914.458	2124.62
919.69	2123.62
924.916	2148.62
930.136	2161.62
935.351	2143.62
940.561	2148.62
945.766	2146.62
950.965	2142.62
956.158	2127.62
961.347	2109.62
966.529	2074.62
971.707	2056.62
976.879	2060.62
982.046	2034.62
987.208	2032.62
992.364	2017.62
997.515	2045.62
1002.66	2078.62
1007.801	2096.62
1012.936	2126.62
1018.066	2132.62
1023.19	2146.62
1028.309	2168.62
1033.423	2159.62
1038.532	2148.62
1043.636	2139.62
1048.734	2126.62
1053.827	2090.62
1058.915	2066.62
1063.998	2083.62
1069.075	2071.62
1074.147	2086.62
1079.214	2077.62
1084.276	2101.62
1089.333	2134.62
1094.385	2162.62
1099.431	2145.62
1104.472	2157.62
1109.509	2153.62
1114.54	2110.62
1119.565	2123.62
1124.586	2075.62
1129.602	2085.62
1134.613	2075.62
1139.618	2065.62
1144.619	2066.62
1149.614	2081.62
1154.604	2095.62
1159.589	2097.62
1164.57	2119.62
1169.545	2131.62
1174.515	2140.62
1179.48	2107.62
1184.44	2086.62
1189.395	2099.62
1194.345	2086.62
1199.29	2084.62
1204.23	2098.62
1209.165	2104.62
1214.095	2129.62
1219.021	2133.62
1223.941	2169.62
1228.856	2159.62
1233.766	2201.62
1238.672	2183.62
1243.572	2191.62
1248.467	2169.62
1253.358	2147.62
1258.244	2126.62
1263.124	2088.62
1268	2084.62
1272.871	2069.62
1277.737	2036.62
1282.599	2034.62
1287.455	2059.62
1292.306	2073.62
1297.153	2069.62
1301.995	2099.62
1306.832	2117.62
1311.664	2121.62
1316.491	2115.62
1321.314	2103.62
1326.132	2086.62
1330.945	2070.62
1335.753	2033.62
1340.556	2011.62
1345.354	1963.62
1350.148	1946.62
1354.937	1955.62
1359.722	1955.62
1364.501	1972.62
1369.276	2018.62
1374.046	2029.62
1378.811	2053.62
1383.572	2058.62
1388.327	2032.62
1393.079	2028.62
1397.825	1994.62
1402.567	1962.62
1407.304	1951.62
1412.036	1927.62
1416.764	1933.62
1421.487	1920.62
1426.205	1946.62
1430.919	1942.62
1435.628	1966.62
1440.333	1971.62
1445.032	2017.62
1449.727	1987.62
1454.418	2002.62
1459.104	1994.62
1463.785	1988.62
1468.462	1966.62
1473.134	1940.62
1477.802	1935.62
1482.465	1915.62
1487.123	1925.62
1491.777	1928.62
1496.426	1952.62
1501.071	1981.62
1505.711	1981.62
1510.347	2022.62
1514.978	2029.62
1519.604	2065.62
1524.226	2069.62
1528.844	2097.62
1533.457	2081.62
1538.065	2077.62
1542.669	2091.62
1547.269	2053.62
1551.864	2058.62
1556.454	2042.62
1561.041	2063.62
1565.622	2081.62
1570.199	2084.62
1574.772	2086.62
1579.34	2111.62
1583.904	2107.62
1588.464	2140.62
1593.019	2164.62
1597.569	2154.62
1602.115	2154.62
1606.657	2135.62
1611.195	2133.62
1615.728	2126.62
1620.256	2112.62
1624.78	2145.62
1629.3	2155.62
1633.816	2187.62
1638.327	2199.62
1642.834	2236.62
1647.336	2230.62
1651.834	2259.62
1656.328	2258.62
1660.817	2268.62
1665.302	2246.62
1669.783	2227.62
1674.259	2188.62
1678.732	2142.62
1683.199	2068.62
1687.663	2019.62
1692.122	1982.62
1696.577	1941.62
1701.028	1922.62
1705.474	1934.62
1709.917	1931.62
1714.355	1880.62
1718.788	1883.62
1723.218	1865.62
1727.643	1830.62
1732.064	1814.62
1736.481	1778.62
1740.893	1745.62
1745.301	1707.62
1749.705	1691.62
1754.105	1661.62
1758.501	1644.62
1762.893	1615.62
1767.28	1581.62
1771.663	1578.62
1776.042	1591.62
1780.417	1600.62
1784.787	1607.62
1789.154	1625.62
1793.516	1648.62
1797.874	1633.62
1802.228	1661.62
1806.578	1669.62
1810.924	1670.62
1815.266	1650.62
1819.603	1634.62
1823.937	1609.62
1828.266	1586.62
1832.591	1584.62
1836.913	1582.62
1841.23	1547.62
1845.543	1541.62
1849.852	1550.62
1854.156	1533.62
1858.457	1532.62
1862.754	1535.62
1867.047	1549.62
1871.335	1566.62
1875.62	1557.62
1879.9	1556.62
1884.177	1566.62
1888.449	1552.62
1892.718	1543.62
1896.982	1550.62
1901.243	1547.62
1905.499	1552.62
1909.752	1537.62
1914	1542.62
1918.245	1561.62
1922.485	1556.62
1926.722	1557.62
1930.954	1555.62
1935.183	1580.62
1939.408	1577.62
1943.628	1576.62
1947.845	1581.62
1952.058	1587.62
1956.267	1596.62
1960.472	1587.62
1964.673	1558.62
1968.87	1539.62
1973.063	1522.62
1977.252	1522.62
1981.438	1500.62
1985.619	1486.62
1989.797	1495.62
1993.971	1495.62
1998.14	1492.62
2002.306	1506.62
2006.469	1499.62
2010.627	1510.62
2014.781	1507.62
2018.932	1496.62
2023.078	1492.62
2027.221	1483.62
2031.36	1469.62
2035.495	1460.62
2039.627	1438.62
2043.754	1432.62
2047.878	1422.62
2051.998	1420.62
2056.114	1422.62
2060.226	1434.62
2064.334	1434.62
2068.439	1417.62
2072.54	1451.62
2076.637	1440.62
2080.73	1457.62
2084.82	1458.62
2088.906	1463.62
2092.988	1454.62
2097.066	1450.62
2101.14	1455.62
2105.211	1426.62
2109.278	1422.62
2113.342	1425.62
2117.401	1413.62
2121.457	1405.62
2125.509	1411.62
2129.558	1396.62
2133.602	1405.62
2137.643	1390.62
2141.681	1401.62
2145.714	1392.62
2149.744	1391.62
2153.77	1383.62
2157.793	1366.62
2161.812	1357.62
2165.827	1346.62
2169.838	1332.62
2173.846	1317.62
2177.851	1296.62
2181.851	1300.62
2185.848	1280.62
2189.841	1276.62
2193.831	1253.62
2197.817	1261.62
2201.799	1239.62
2205.778	1256.62
2209.753	1240.62
2213.725	1252.62
2217.693	1237.62
2221.657	1247.62
2225.618	1254.62
2229.575	1256.62
2233.529	1224.62
2237.479	1236.62
2241.425	1233.62
2245.368	1209.62
2249.307	1198.62
2253.243	1183.62
2257.175	1174.62
2261.104	1174.62
2265.029	1147.62
2268.95	1136.62
2272.868	1136.62
2276.783	1127.62
2280.694	1125.62
2284.601	1111.62
2288.505	1105.62
2292.405	1096.62
2296.302	1094.62
2300.195	1073.62
2304.085	1057.62
2307.971	1060.62
2311.854	1029.62
2315.734	1021.62
2319.609	1021.62
2323.482	994.62
2327.351	980.62
2331.216	976.62
2335.078	974.62
2338.937	963.62
2342.792	965.62
2346.643	963.62
2350.492	965.62
2354.336	972.62
2358.178	960.62
2362.015	969.62
2365.85	973.62
2369.681	976.62
2373.508	960.62
2377.333	977.62
2381.153	964.62
2384.971	962.62
2388.785	958.62
2392.595	948.62
2396.402	954.62
2400.206	953.62
2404.007	948.62
2407.804	943.62
2411.597	940.62
2415.388	926.62
2419.174	935.62
2422.958	921.62
2426.738	915.62
2430.515	911.62
2434.289	912.62
2438.059	913.62
2441.825	902.62
2445.589	904.62
2449.349	889.62
2453.106	889.62
2456.859	884.62
2460.61	886.62
2464.356	890.62
2468.1	871.62
2471.84	861.62
2475.577	868.62
2479.311	856.62
2483.041	867.62
2486.768	864.62
2490.492	862.62
2494.213	863.62
2497.93	857.62
2501.644	872.62
2505.355	852.62
2509.062	860.62
2512.766	867.62
2516.467	848.62
2520.165	859.62
2523.859	840.62
2527.551	840.62
2531.239	848.62
2534.923	833.62
2538.605	818.62
2542.283	821.62
2545.958	822.62
2549.63	822.62
2553.299	825.62
2556.964	815.62
2560.626	809.62
2564.285	806.62
2567.941	804.62
2571.594	785.62
2575.243	783.62
2578.89	788.62
2582.533	782.62
2586.173	783.62
2589.809	785.62
2593.443	772.62
2597.073	772.62
2600.701	753.62
2604.325	761.62
2607.946	765.62
2611.564	770.62
2615.178	753.62
2618.79	760.62
2622.398	753.62
2626.004	752.62
2629.606	745.62
2633.205	734.62
2636.801	732.62
2640.394	728.62
2643.983	713.62
2647.57	713.62
2651.153	694.62
2654.734	699.62
2658.311	683.62
2661.885	686.62
2665.456	683.62
2669.025	678.62
2672.589	670.62
2676.151	661.62
2679.71	667.62
2683.266	655.62
2686.819	646.62
2690.368	640.62
2693.915	627.62
2697.458	625.62
2700.999	614.62
2704.536	612.62
2708.071	598.62
2711.602	588.62
2715.13	599.62
2718.656	575.62
2722.178	578.62
2725.697	584.62
2729.214	581.62
2732.727	571.62
2736.237	583.62
2739.744	578.62
2743.249	589.62
2746.75	590.62
2750.248	592.62
2753.743	582.62
2757.236	592.62
2760.725	594.62
2764.211	593.62
2767.695	588.62
2771.175	590.62
2774.652	588.62
2778.127	574.62
2781.598	561.62
2785.067	562.62
2788.532	563.62
2791.995	566.62
2795.455	562.62
2798.911	561.62
2802.365	565.62
2805.816	564.62
2809.264	541.62
2812.709	545.62
2816.151	544.62
2819.59	536.62
2823.026	544.62
2826.46	544.62
2829.89	538.62
2833.318	531.62
2836.742	532.62
2840.164	522.62
2843.583	527.62
2846.999	532.62
2850.412	528.62
2853.822	531.62
2857.229	530.62
2860.634	534.62
2864.035	550.62
2867.434	544.62
2870.83	538.62
2874.223	544.62
2877.613	543.62
2881	545.62
2884.385	530.62
2887.766	538.62
2891.145	539.62
2894.521	524.62
2897.894	510.62
2901.264	505.62
2904.631	508.62
2907.996	515.62
2911.358	526.62
2914.717	509.62
2918.073	515.62
2921.426	516.62
2924.777	517.62
2928.124	522.62
2931.469	521.62
2934.811	515.62
2938.15	525.62
2941.487	531.62
2944.821	536.62
2948.152	528.62
2951.48	531.62
2954.805	534.62
2958.128	536.62
2961.447	531.62
2964.765	533.62
2968.079	527.62
2971.39	543.62
2974.699	545.62
2978.005	547.62
2981.308	555.62
2984.609	566.62
2987.907	560.62
2991.202	575.62
2994.494	592.62
2997.784	603.62
3001.07	600.62
3004.355	619.62
3007.636	618.62
3010.915	629.62
3014.191	631.62
3017.464	632.62
3020.734	630.62
3024.002	638.62
3027.267	651.62
3030.53	650.62
3033.789	656.62
3037.046	666.62
3040.301	668.62
3043.552	680.62
3046.801	684.62
3050.048	695.62
3053.291	705.62
3056.532	714.62
3059.771	741.62
3063.006	752.62
3066.239	756.62
3069.469	774.62
3072.697	775.62
3075.922	806.62
3079.144	825.62
3082.364	827.62
3085.581	839.62
3088.795	855.62
3092.007	866.62
3095.216	878.62
3098.423	884.62
3101.627	915.62
3104.828	928.62
3108.026	945.62
3111.222	951.62
3114.416	976.62
3117.607	977.62
3120.795	997.62
3123.98	1032.62
3127.163	1032.62
3130.344	1042.62
3133.521	1070.62
3136.696	1119.62
3139.869	1105.62
3143.039	1119.62
3146.206	1132.62
3149.371	1153.62
3152.533	1153.62
3155.693	1145.62
3158.85	1146.62
3162.005	1163.62
3165.157	1154.62
3168.306	1157.62
3171.453	1163.62
3174.597	1162.62
3177.739	1174.62
3180.878	1172.62
3184.014	1167.62
3187.149	1163.62
3190.28	1171.62
3193.409	1184.62
3196.536	1181.62
3199.659	1175.62
3202.781	1185.62
3205.9	1187.62
3209.016	1178.62
3212.13	1189.62
3215.241	1175.62
3218.35	1167.62
3221.456	1144.62
3224.56	1140.62
3227.661	1142.62
3230.76	1130.62
3233.856	1103.62
3236.95	1096.62
3240.041	1086.62
3243.13	1075.62
3246.216	1068.62
3249.3	1070.62
3252.382	1063.62
3255.46	1053.62
3258.537	1055.62
3261.611	1034.62
3264.682	1052.62
3267.751	1039.62
3270.818	1056.62
3273.882	1041.62
3276.943	1038.62
3280.002	1021.62
3283.059	1022.62
3286.113	998.62
3289.165	989.62
3292.214	979.62
3295.261	963.62
3298.306	936.62
3301.348	927.62
3304.387	929.62
3307.425	896.62
3310.459	873.62
3313.492	872.62
3316.521	858.62
3319.549	859.62
3322.574	841.62
3325.597	845.62
3328.617	832.62
3331.635	826.62
3334.65	830.62
3337.663	825.62
3340.674	810.62
3343.682	798.62
3346.688	816.62
3349.691	804.62
3352.692	796.62
3355.691	785.62
3358.687	791.62
3361.681	777.62
3364.673	769.62
3367.662	755.62
3370.649	746.62
3373.633	736.62
3376.615	737.62
3379.595	718.62
3382.572	705.62
3385.547	708.62
3388.52	693.62
3391.49	674.62
3394.458	670.62
3397.424	658.62
3400.387	646.62
3403.348	639.62
3406.307	647.62
3409.263	623.62
3412.217	631.62
3415.168	615.62
3418.118	606.62
3421.065	592.62
3424.009	595.62
3426.951	595.62
3429.891	582.62
3432.829	571.62
3435.764	546.62
3438.697	550.62
3441.628	536.62
3444.557	529.62
3447.483	509.62
3450.407	483.62
3453.328	480.62
3456.247	462.62
3459.164	452.62
3462.079	436.62
3464.991	426.62
3467.902	407.62
3470.809	398.62
3473.715	391.62
3476.618	385.62
3479.519	364.62
3482.418	364.62
3485.315	355.62
3488.209	343.62
3491.101	327.62
3493.99	320.62
3496.878	311.62
3499.763	299.62
3502.646	294.62
3505.527	285.62
3508.405	278.62
3511.281	264.62
3514.155	253.62
3517.027	243.62
3519.897	228.62
3522.764	218.62
3525.629	196.62
3528.492	191.62
3531.352	192.62
3534.211	178.62
3537.067	162.62
3539.921	152.62
3542.773	152.62
3545.622	145.62
3548.469	129.62
3551.315	137.62
3554.157	117.62
3556.998	106.62
3559.837	110.62
3562.673	98.62
3565.507	99.62
3568.339	87.62
3571.169	82.62
3573.996	79.62
3576.822	72.62
3579.645	62.62
3582.466	58.62
3585.285	55.62
3588.101	49.62
3590.916	44.62
3593.728	39.62
3596.538	35.62
3599.346	25.62
3602.152	28.62
3604.956	13.62
3607.757	17.62
3610.556	7.62
3613.354	1.62
3616.149	0.62
3618.942	-0.38
3621.732	-3.38
3624.521	-8.38
3627.307	-9.38
3630.092	-12.38
3632.874	-15.38
3635.654	-14.38
3638.432	-29.38
3641.208	-20.38
3643.982	-25.38
3646.753	-25.38
3649.523	-31.38
3652.29	-36.38
3655.055	-37.38
3657.818	-37.38
3660.579	-40.38
3663.338	-41.38
3666.095	-46.38
3668.849	-50.38
3671.602	-53.38
3674.352	-52.38
3677.101	-57.38
3679.847	-55.38
3682.591	-55.38
3685.333	-63.38
3688.073	-63.38
3690.811	-64.38
3693.547	-60.38
3696.281	-61.38
3699.013	-68.38
3701.742	-68.38
3704.47	-66.38
3707.195	-64.38
3709.919	-73.38
3712.64	-72.38
3715.359	-72.38
3718.076	-75.38
3720.792	-76.38
3723.505	-75.38
3726.216	-80.38
3728.925	-79.38
3731.632	-78.38
3734.336	-81.38
3737.039	-77.38
3739.74	-81.38
3742.439	-86.38
3745.136	-84.38
3747.83	-81.38
3750.523	-85.38
3753.213	-86.38
3755.902	-79.38
3758.589	-88.38
3761.273	-86.38
3763.956	-86.38
3766.636	-86.38
3769.315	-85.38
3771.991	-88.38
3774.665	-89.38
3777.338	-90.38
3780.008	-91.38
3782.677	-90.38
3785.343	-90.38
3788.007	-91.38
3790.67	-97.38
3793.33	-96.38
3795.989	-92.38
3798.645	-93.38
3801.299	-90.38
3803.952	-94.38
3806.602	-99.38
3809.251	-95.38
3811.897	-95.38
3814.542	-95.38
3817.184	-98.38
3819.825	-92.38
3822.463	-95.38
3825.1	-94.38
3827.735	-100.38
3830.367	-100.38
3832.998	-96.38
3835.627	-98.38
3838.253	-99.38
3840.878	-96.38
3843.501	-94.38
3846.122	-91.38
3848.741	-98.38
3851.358	-97.38
3853.973	-101.38
3856.586	-97.38
3859.197	-99.38
3861.806	-103.38
3864.414	-106.38
3867.019	-99.38
3869.622	-103.38
3872.224	-103.38
3874.823	-99.38
3877.421	-96.38
3880.016	-99.38
3882.61	-94.38
3885.202	-94.38
3887.792	-99.38
3890.38	-98.38
3892.966	-100.38
3895.55	-101.38
3898.132	-99.38
3900.713	-101.38
3903.291	-105.38
3905.868	-103.38
3908.442	-107.38
3911.015	-107.38
3913.586	-103.38
3916.155	-104.38
3918.722	-105.38
3921.287	-107.38
3923.85	-104.38
3926.411	-100.38
3928.971	-104.38
3931.528	-107.38
3934.084	-106.38
3936.638	-109.38
3939.19	-106.38
3941.74	-110.38
3944.288	-112.38
3946.834	-112.38
3949.378	-107.38
3951.921	-107.38
3954.462	-104.38
3957	-107.38
3959.537	-109.38
3962.072	-107.38
3964.606	-105.38
3967.137	-108.38
3969.667	-105.38
3972.194	-104.38
3974.72	-105.38
3977.244	-102.38
3979.766	-102.38
3982.286	-101.38
3984.805	-104.38
3987.321	-103.38
3989.836	-106.38
3992.349	-104.38
3994.86	-105.38
3997.369	-106.38
3999.877	-111.38
4002.382	-107.38
4004.886	-106.38
4007.388	-112.38
4009.888	-109.38
4012.386	-108.38
4014.883	-108.38
4017.377	-107.38
4019.87	-106.38
4022.361	-108.38
4024.85	-108.38
4027.338	-109.38
4029.823	-105.38
4032.307	-105.38
4034.789	-100.38
4037.269	-105.38
4039.747	-101.38
4042.224	-101.38
4044.699	-103.38
4047.172	-106.38
4049.643	-106.38
4052.112	-104.38
4054.58	-105.38
4057.046	-102.38
4059.51	-105.38
4061.972	-106.38
4064.432	-106.38
4066.891	-107.38
4069.348	-107.38
4071.803	-112.38
4074.256	-111.38
4076.708	-109.38
4079.158	-108.38
4081.606	-113.38
4084.052	-111.38
4086.497	-110.38
4088.939	-106.38
4091.38	-108.38
4093.819	-106.38
4096.257	-113.38
4098.693	-111.38
4101.127	-114.38
4103.559	-113.38
4105.989	-73.38
4108.418	-69.38
4110.845	-63.38
4113.27	-58.38
4115.694	-50.38
4118.115	-40.38
4120.535	-106.38
4122.954	-107.38
4125.37	-106.38
4127.785	-103.38
4130.198	-104.38
4132.609	-106.38
4135.019	-112.38
4137.427	-110.38
4139.833	-111.38
4142.237	-108.38
