Data from I0.75_T15s_Bsub_water_1-10^4_2_RamanShift_1.txt Node
Date: Mon Mar 13 15:52:06 IST 2017
User: aro
Spectrometer: QEPB0276
Trigger mode: 0
Integration Time (sec): 1.500000E1
Scans to average: 1
Electric dark correction enabled: true
Nonlinearity correction enabled: false
Boxcar width: 0
XAxis mode: Raman Shifts
Number of Pixels in Spectrum: 1044
>>>>>Begin Spectral Data<<<<<
160.701	-80.5
166.742	4.5
172.777	255.5
178.805	1042.5
184.826	3002.5
190.841	6412.5
196.849	10291.5
202.85	12879.5
208.845	13447.5
214.833	13105.5
220.815	12715.5
226.789	12447.5
232.758	12267.5
238.719	12013.5
244.674	11723.5
250.623	11369.5
256.565	10941.5
262.5	10580.5
268.429	10260.5
274.351	9982.5
280.267	9682.5
286.176	9488.5
292.079	9261.5
297.975	9036.5
303.865	8791.5
309.748	8629.5
315.625	8413.5
321.495	8265.5
327.359	8151.5
333.217	8024.5
339.068	7952.5
344.912	7881.5
350.751	7825.5
356.583	7717.5
362.408	7728.5
368.227	7665.5
374.04	7666.5
379.847	7636.5
385.647	7701.5
391.44	7689.5
397.228	7700.5
403.009	7726.5
408.784	7689.5
414.553	7719.5
420.315	7764.5
426.071	7777.5
431.821	7697.5
437.565	7743.5
443.302	7696.5
449.033	7701.5
454.758	7640.5
460.477	7656.5
466.189	7615.5
471.896	7593.5
477.596	7548.5
483.29	7516.5
488.978	7477.5
494.66	7462.5
500.335	7371.5
506.005	7300.5
511.668	7176.5
517.325	7075.5
522.977	7017.5
528.622	6952.5
534.261	6907.5
539.894	6811.5
545.521	6827.5
551.141	6795.5
556.756	6789.5
562.365	6789.5
567.968	6735.5
573.565	6704.5
579.155	6681.5
584.74	6651.5
590.319	6620.5
595.892	6633.5
601.459	6554.5
607.02	6527.5
612.575	6500.5
618.124	6399.5
623.667	6373.5
629.204	6365.5
634.735	6299.5
640.261	6265.5
645.781	6251.5
651.294	6254.5
656.802	6246.5
662.304	6184.5
667.8	6202.5
673.29	6202.5
678.775	6167.5
684.254	6147.5
689.726	6144.5
695.193	6108.5
700.655	6119.5
706.11	6119.5
711.56	6042.5
717.004	6011.5
722.442	6013.5
727.874	6007.5
733.301	5963.5
738.722	5950.5
744.137	5913.5
749.547	5933.5
754.951	5947.5
760.349	5959.5
765.741	5938.5
771.128	5957.5
776.509	5968.5
781.885	5979.5
787.254	5977.5
792.618	5958.5
797.977	5957.5
803.33	5886.5
808.677	5885.5
814.019	5831.5
819.355	5790.5
824.686	5764.5
830.011	5741.5
835.33	5743.5
840.644	5761.5
845.952	5769.5
851.255	5758.5
856.552	5748.5
861.844	5749.5
867.13	5739.5
872.41	5718.5
877.686	5753.5
882.955	5704.5
888.219	5615.5
893.478	5564.5
898.731	5485.5
903.979	5438.5
909.221	5381.5
914.458	5351.5
919.69	5399.5
924.916	5407.5
930.136	5429.5
935.351	5434.5
940.561	5432.5
945.766	5426.5
950.965	5424.5
956.158	5394.5
961.347	5345.5
966.529	5266.5
971.707	5221.5
976.879	5151.5
982.046	5156.5
987.208	5130.5
992.364	5158.5
997.515	5161.5
1002.66	5206.5
1007.801	5256.5
1012.936	5325.5
1018.066	5377.5
1023.19	5381.5
1028.309	5444.5
1033.423	5415.5
1038.532	5372.5
1043.636	5364.5
1048.734	5315.5
1053.827	5276.5
1058.915	5226.5
1063.998	5187.5
1069.075	5188.5
1074.147	5213.5
1079.214	5275.5
1084.276	5290.5
1089.333	5327.5
1094.385	5378.5
1099.431	5429.5
1104.472	5422.5
1109.509	5388.5
1114.54	5348.5
1119.565	5286.5
1124.586	5260.5
1129.602	5198.5
1134.613	5170.5
1139.618	5140.5
1144.619	5192.5
1149.614	5182.5
1154.604	5242.5
1159.589	5280.5
1164.57	5254.5
1169.545	5306.5
1174.515	5314.5
1179.48	5276.5
1184.44	5223.5
1189.395	5227.5
1194.345	5200.5
1199.29	5193.5
1204.23	5208.5
1209.165	5220.5
1214.095	5302.5
1219.021	5311.5
1223.941	5333.5
1228.856	5404.5
1233.766	5394.5
1238.672	5407.5
1243.572	5428.5
1248.467	5398.5
1253.358	5336.5
1258.244	5257.5
1263.124	5231.5
1268	5167.5
1272.871	5086.5
1277.737	5065.5
1282.599	5049.5
1287.455	5046.5
1292.306	5103.5
1297.153	5147.5
1301.995	5175.5
1306.832	5190.5
1311.664	5246.5
1316.491	5255.5
1321.314	5248.5
1326.132	5177.5
1330.945	5114.5
1335.753	5041.5
1340.556	4956.5
1345.354	4880.5
1350.148	4791.5
1354.937	4810.5
1359.722	4833.5
1364.501	4904.5
1369.276	4991.5
1374.046	5023.5
1378.811	5062.5
1383.572	5103.5
1388.327	5032.5
1393.079	4975.5
1397.825	4932.5
1402.567	4844.5
1407.304	4806.5
1412.036	4784.5
1416.764	4739.5
1421.487	4738.5
1426.205	4747.5
1430.919	4806.5
1435.628	4827.5
1440.333	4896.5
1445.032	4927.5
1449.727	4944.5
1454.418	4926.5
1459.104	4945.5
1463.785	4895.5
1468.462	4870.5
1473.134	4812.5
1477.802	4781.5
1482.465	4787.5
1487.123	4767.5
1491.777	4772.5
1496.426	4841.5
1501.071	4856.5
1505.711	4950.5
1510.347	5008.5
1514.978	5021.5
1519.604	5064.5
1524.226	5116.5
1528.844	5140.5
1533.457	5147.5
1538.065	5149.5
1542.669	5162.5
1547.269	5071.5
1551.864	5079.5
1556.454	5066.5
1561.041	5100.5
1565.622	5089.5
1570.199	5133.5
1574.772	5183.5
1579.34	5228.5
1583.904	5274.5
1588.464	5342.5
1593.019	5353.5
1597.569	5356.5
1602.115	5382.5
1606.657	5327.5
1611.195	5364.5
1615.728	5346.5
1620.256	5378.5
1624.78	5416.5
1629.3	5454.5
1633.816	5518.5
1638.327	5571.5
1642.834	5603.5
1647.336	5688.5
1651.834	5682.5
1656.328	5711.5
1660.817	5702.5
1665.302	5616.5
1669.783	5588.5
1674.259	5482.5
1678.732	5360.5
1683.199	5203.5
1687.663	5059.5
1692.122	4896.5
1696.577	4836.5
1701.028	4807.5
1705.474	4780.5
1709.917	4760.5
1714.355	4697.5
1718.788	4636.5
1723.218	4567.5
1727.643	4513.5
1732.064	4417.5
1736.481	4352.5
1740.893	4270.5
1745.301	4224.5
1749.705	4117.5
1754.105	4027.5
1758.501	3960.5
1762.893	3909.5
1767.28	3854.5
1771.663	3858.5
1776.042	3831.5
1780.417	3876.5
1784.787	3881.5
1789.154	3916.5
1793.516	3974.5
1797.874	4004.5
1802.228	4008.5
1806.578	4031.5
1810.924	3998.5
1815.266	3961.5
1819.603	3922.5
1823.937	3875.5
1828.266	3828.5
1832.591	3788.5
1836.913	3748.5
1841.23	3730.5
1845.543	3705.5
1849.852	3709.5
1854.156	3730.5
1858.457	3706.5
1862.754	3739.5
1867.047	3739.5
1871.335	3758.5
1875.62	3759.5
1879.9	3752.5
1884.177	3760.5
1888.449	3710.5
1892.718	3747.5
1896.982	3723.5
1901.243	3691.5
1905.499	3703.5
1909.752	3720.5
1914	3668.5
1918.245	3692.5
1922.485	3744.5
1926.722	3746.5
1930.954	3801.5
1935.183	3788.5
1939.408	3793.5
1943.628	3814.5
1947.845	3818.5
1952.058	3824.5
1956.267	3843.5
1960.472	3806.5
1964.673	3753.5
1968.87	3706.5
1973.063	3675.5
1977.252	3642.5
1981.438	3619.5
1985.619	3627.5
1989.797	3609.5
1993.971	3607.5
1998.14	3616.5
2002.306	3606.5
2006.469	3639.5
2010.627	3617.5
2014.781	3595.5
2018.932	3609.5
2023.078	3627.5
2027.221	3546.5
2031.36	3527.5
2035.495	3512.5
2039.627	3452.5
2043.754	3465.5
2047.878	3454.5
2051.998	3411.5
2056.114	3425.5
2060.226	3446.5
2064.334	3461.5
2068.439	3467.5
2072.54	3490.5
2076.637	3510.5
2080.73	3512.5
2084.82	3507.5
2088.906	3514.5
2092.988	3565.5
2097.066	3498.5
2101.14	3480.5
2105.211	3491.5
2109.278	3462.5
2113.342	3439.5
2117.401	3440.5
2121.457	3426.5
2125.509	3403.5
2129.558	3408.5
2133.602	3401.5
2137.643	3396.5
2141.681	3379.5
2145.714	3390.5
2149.744	3366.5
2153.77	3349.5
2157.793	3316.5
2161.812	3282.5
2165.827	3250.5
2169.838	3216.5
2173.846	3180.5
2177.851	3127.5
2181.851	3113.5
2185.848	3067.5
2189.841	3042.5
2193.831	3041.5
2197.817	2999.5
2201.799	3009.5
2205.778	2989.5
2209.753	3004.5
2213.725	2981.5
2217.693	2980.5
2221.657	3004.5
2225.618	2980.5
2229.575	2998.5
2233.529	2953.5
2237.479	2964.5
2241.425	2944.5
2245.368	2912.5
2249.307	2869.5
2253.243	2851.5
2257.175	2812.5
2261.104	2781.5
2265.029	2746.5
2268.95	2749.5
2272.868	2705.5
2276.783	2705.5
2280.694	2680.5
2284.601	2653.5
2288.505	2638.5
2292.405	2612.5
2296.302	2597.5
2300.195	2534.5
2304.085	2539.5
2307.971	2517.5
2311.854	2452.5
2315.734	2422.5
2319.609	2405.5
2323.482	2369.5
2327.351	2347.5
2331.216	2322.5
2335.078	2313.5
2338.937	2301.5
2342.792	2288.5
2346.643	2298.5
2350.492	2271.5
2354.336	2291.5
2358.178	2283.5
2362.015	2286.5
2365.85	2303.5
2369.681	2296.5
2373.508	2292.5
2377.333	2302.5
2381.153	2292.5
2384.971	2285.5
2388.785	2267.5
2392.595	2257.5
2396.402	2244.5
2400.206	2247.5
2404.007	2217.5
2407.804	2202.5
2411.597	2221.5
2415.388	2191.5
2419.174	2202.5
2422.958	2193.5
2426.738	2170.5
2430.515	2154.5
2434.289	2167.5
2438.059	2161.5
2441.825	2155.5
2445.589	2142.5
2449.349	2126.5
2453.106	2117.5
2456.859	2094.5
2460.61	2069.5
2464.356	2078.5
2468.1	2061.5
2471.84	2039.5
2475.577	2027.5
2479.311	2053.5
2483.041	2033.5
2486.768	2016.5
2490.492	2032.5
2494.213	2032.5
2497.93	2028.5
2501.644	2027.5
2505.355	2025.5
2509.062	2024.5
2512.766	2024.5
2516.467	2024.5
2520.165	2007.5
2523.859	1990.5
2527.551	1980.5
2531.239	1957.5
2534.923	1950.5
2538.605	1953.5
2542.283	1942.5
2545.958	1912.5
2549.63	1910.5
2553.299	1907.5
2556.964	1906.5
2560.626	1908.5
2564.285	1892.5
2567.941	1885.5
2571.594	1879.5
2575.243	1844.5
2578.89	1842.5
2582.533	1838.5
2586.173	1824.5
2589.809	1809.5
2593.443	1836.5
2597.073	1801.5
2600.701	1795.5
2604.325	1786.5
2607.946	1757.5
2611.564	1774.5
2615.178	1768.5
2618.79	1767.5
2622.398	1763.5
2626.004	1749.5
2629.606	1737.5
2633.205	1724.5
2636.801	1695.5
2640.394	1670.5
2643.983	1677.5
2647.57	1665.5
2651.153	1654.5
2654.734	1615.5
2658.311	1609.5
2661.885	1597.5
2665.456	1577.5
2669.025	1575.5
2672.589	1562.5
2676.151	1552.5
2679.71	1520.5
2683.266	1523.5
2686.819	1520.5
2690.368	1491.5
2693.915	1464.5
2697.458	1444.5
2700.999	1431.5
2704.536	1427.5
2708.071	1390.5
2711.602	1404.5
2715.13	1389.5
2718.656	1375.5
2722.178	1364.5
2725.697	1354.5
2729.214	1366.5
2732.727	1386.5
2736.237	1374.5
2739.744	1382.5
2743.249	1391.5
2746.75	1396.5
2750.248	1374.5
2753.743	1392.5
2757.236	1374.5
2760.725	1380.5
2764.211	1391.5
2767.695	1372.5
2771.175	1350.5
2774.652	1367.5
2778.127	1334.5
2781.598	1343.5
2785.067	1325.5
2788.532	1314.5
2791.995	1323.5
2795.455	1313.5
2798.911	1309.5
2802.365	1334.5
2805.816	1311.5
2809.264	1295.5
2812.709	1293.5
2816.151	1298.5
2819.59	1295.5
2823.026	1291.5
2826.46	1281.5
2829.89	1275.5
2833.318	1258.5
2836.742	1262.5
2840.164	1261.5
2843.583	1249.5
2846.999	1266.5
2850.412	1260.5
2853.822	1283.5
2857.229	1272.5
2860.634	1281.5
2864.035	1294.5
2867.434	1300.5
2870.83	1283.5
2874.223	1310.5
2877.613	1302.5
2881	1299.5
2884.385	1288.5
2887.766	1278.5
2891.145	1287.5
2894.521	1269.5
2897.894	1256.5
2901.264	1257.5
2904.631	1251.5
2907.996	1260.5
2911.358	1258.5
2914.717	1244.5
2918.073	1242.5
2921.426	1259.5
2924.777	1274.5
2928.124	1271.5
2931.469	1287.5
2934.811	1303.5
2938.15	1300.5
2941.487	1304.5
2944.821	1314.5
2948.152	1316.5
2951.48	1316.5
2954.805	1319.5
2958.128	1319.5
2961.447	1314.5
2964.765	1321.5
2968.079	1345.5
2971.39	1353.5
2974.699	1360.5
2978.005	1387.5
2981.308	1401.5
2984.609	1432.5
2987.907	1465.5
2991.202	1486.5
2994.494	1516.5
2997.784	1532.5
3001.07	1568.5
3004.355	1582.5
3007.636	1624.5
3010.915	1649.5
3014.191	1641.5
3017.464	1658.5
3020.734	1664.5
3024.002	1695.5
3027.267	1693.5
3030.53	1700.5
3033.789	1719.5
3037.046	1726.5
3040.301	1748.5
3043.552	1777.5
3046.801	1801.5
3050.048	1839.5
3053.291	1875.5
3056.532	1909.5
3059.771	1946.5
3063.006	1987.5
3066.239	2030.5
3069.469	2062.5
3072.697	2115.5
3075.922	2167.5
3079.144	2182.5
3082.364	2225.5
3085.581	2264.5
3088.795	2316.5
3092.007	2351.5
3095.216	2395.5
3098.423	2404.5
3101.627	2491.5
3104.828	2500.5
3108.026	2555.5
3111.222	2588.5
3114.416	2652.5
3117.607	2702.5
3120.795	2726.5
3123.98	2797.5
3127.163	2846.5
3130.344	2913.5
3133.521	2965.5
3136.696	3028.5
3139.869	3046.5
3143.039	3128.5
3146.206	3144.5
3149.371	3179.5
3152.533	3208.5
3155.693	3217.5
3158.85	3233.5
3162.005	3214.5
3165.157	3268.5
3168.306	3243.5
3171.453	3279.5
3174.597	3270.5
3177.739	3269.5
3180.878	3269.5
3184.014	3253.5
3187.149	3290.5
3190.28	3291.5
3193.409	3316.5
3196.536	3304.5
3199.659	3319.5
3202.781	3325.5
3205.9	3349.5
3209.016	3342.5
3212.13	3318.5
3215.241	3323.5
3218.35	3282.5
3221.456	3260.5
3224.56	3210.5
3227.661	3193.5
3230.76	3158.5
3233.856	3145.5
3236.95	3140.5
3240.041	3130.5
3243.13	3096.5
3246.216	3059.5
3249.3	3049.5
3252.382	3040.5
3255.46	3037.5
3258.537	2991.5
3261.611	3008.5
3264.682	3010.5
3267.751	3008.5
3270.818	2993.5
3273.882	2970.5
3276.943	2957.5
3280.002	2924.5
3283.059	2884.5
3286.113	2861.5
3289.165	2834.5
3292.214	2779.5
3295.261	2763.5
3298.306	2697.5
3301.348	2649.5
3304.387	2625.5
3307.425	2544.5
3310.459	2531.5
3313.492	2495.5
3316.521	2453.5
3319.549	2444.5
3322.574	2417.5
3325.597	2377.5
3328.617	2367.5
3331.635	2361.5
3334.65	2345.5
3337.663	2333.5
3340.674	2301.5
3343.682	2307.5
3346.688	2278.5
3349.691	2267.5
3352.692	2277.5
3355.691	2274.5
3358.687	2237.5
3361.681	2205.5
3364.673	2180.5
3367.662	2149.5
3370.649	2110.5
3373.633	2098.5
3376.615	2061.5
3379.595	2037.5
3382.572	2007.5
3385.547	1981.5
3388.52	1949.5
3391.49	1931.5
3394.458	1908.5
3397.424	1870.5
3400.387	1852.5
3403.348	1841.5
3406.307	1816.5
3409.263	1794.5
3412.217	1781.5
3415.168	1754.5
3418.118	1736.5
3421.065	1733.5
3424.009	1709.5
3426.951	1661.5
3429.891	1665.5
3432.829	1625.5
3435.764	1610.5
3438.697	1573.5
3441.628	1521.5
3444.557	1500.5
3447.483	1457.5
3450.407	1414.5
3453.328	1355.5
3456.247	1346.5
3459.164	1294.5
3462.079	1264.5
3464.991	1222.5
3467.902	1180.5
3470.809	1157.5
3473.715	1116.5
3476.618	1085.5
3479.519	1074.5
3482.418	1026.5
3485.315	1014.5
3488.209	992.5
3491.101	959.5
3493.99	942.5
3496.878	908.5
3499.763	890.5
3502.646	858.5
3505.527	825.5
3508.405	812.5
3511.281	778.5
3514.155	745.5
3517.027	720.5
3519.897	685.5
3522.764	646.5
3525.629	627.5
3528.492	579.5
3531.352	551.5
3534.211	526.5
3537.067	498.5
3539.921	462.5
3542.773	439.5
3545.622	422.5
3548.469	405.5
3551.315	370.5
3554.157	351.5
3556.998	341.5
3559.837	323.5
3562.673	299.5
3565.507	288.5
3568.339	263.5
3571.169	246.5
3573.996	226.5
3576.822	212.5
3579.645	193.5
3582.466	181.5
3585.285	172.5
3588.101	151.5
3590.916	143.5
3593.728	127.5
3596.538	111.5
3599.346	94.5
3602.152	85.5
3604.956	66.5
3607.757	55.5
3610.556	50.5
3613.354	35.5
3616.149	23.5
3618.942	6.5
3621.732	2.5
3624.521	-11.5
3627.307	-16.5
3630.092	-26.5
3632.874	-32.5
3635.654	-35.5
3638.432	-50.5
3641.208	-51.5
3643.982	-55.5
3646.753	-68.5
3649.523	-75.5
3652.29	-83.5
3655.055	-86.5
3657.818	-99.5
3660.579	-105.5
3663.338	-115.5
3666.095	-125.5
3668.849	-118.5
3671.602	-133.5
3674.352	-147.5
3677.101	-147.5
3679.847	-151.5
3682.591	-151.5
3685.333	-160.5
3688.073	-166.5
3690.811	-167.5
3693.547	-175.5
3696.281	-172.5
3699.013	-179.5
3701.742	-181.5
3704.47	-187.5
3707.195	-194.5
3709.919	-197.5
3712.64	-196.5
3715.359	-201.5
3718.076	-203.5
3720.792	-211.5
3723.505	-211.5
3726.216	-219.5
3728.925	-217.5
3731.632	-215.5
3734.336	-219.5
3737.039	-221.5
3739.74	-222.5
3742.439	-225.5
3745.136	-225.5
3747.83	-229.5
3750.523	-231.5
3753.213	-229.5
3755.902	-235.5
3758.589	-234.5
3761.273	-238.5
3763.956	-238.5
3766.636	-238.5
3769.315	-242.5
3771.991	-242.5
3774.665	-248.5
3777.338	-245.5
3780.008	-249.5
3782.677	-251.5
3785.343	-251.5
3788.007	-248.5
3790.67	-253.5
3793.33	-252.5
3795.989	-246.5
3798.645	-252.5
3801.299	-256.5
3803.952	-255.5
3806.602	-259.5
3809.251	-255.5
3811.897	-259.5
3814.542	-264.5
3817.184	-260.5
3819.825	-261.5
3822.463	-268.5
3825.1	-266.5
3827.735	-262.5
3830.367	-270.5
3832.998	-267.5
3835.627	-264.5
3838.253	-266.5
3840.878	-268.5
3843.501	-271.5
3846.122	-272.5
3848.741	-276.5
3851.358	-272.5
3853.973	-271.5
3856.586	-273.5
3859.197	-272.5
3861.806	-275.5
3864.414	-274.5
3867.019	-277.5
3869.622	-278.5
3872.224	-270.5
3874.823	-269.5
3877.421	-267.5
3880.016	-266.5
3882.61	-253.5
3885.202	-254.5
3887.792	-260.5
3890.38	-272.5
3892.966	-274.5
3895.55	-281.5
3898.132	-282.5
3900.713	-281.5
3903.291	-280.5
3905.868	-283.5
3908.442	-285.5
3911.015	-286.5
3913.586	-292.5
3916.155	-289.5
3918.722	-287.5
3921.287	-284.5
3923.85	-289.5
3926.411	-290.5
3928.971	-292.5
3931.528	-287.5
3934.084	-292.5
3936.638	-289.5
3939.19	-289.5
3941.74	-295.5
3944.288	-291.5
3946.834	-298.5
3949.378	-291.5
3951.921	-294.5
3954.462	-292.5
3957	-288.5
3959.537	-291.5
3962.072	-284.5
3964.606	-288.5
3967.137	-292.5
3969.667	-286.5
3972.194	-291.5
3974.72	-287.5
3977.244	-282.5
3979.766	-286.5
3982.286	-283.5
3984.805	-288.5
3987.321	-279.5
3989.836	-176.5
3992.349	-282.5
3994.86	-286.5
3997.369	-287.5
3999.877	-282.5
4002.382	-287.5
4004.886	-285.5
4007.388	-285.5
4009.888	-285.5
4012.386	-287.5
4014.883	-285.5
4017.377	-290.5
4019.87	-287.5
4022.361	-281.5
4024.85	-280.5
4027.338	-286.5
4029.823	-290.5
4032.307	-291.5
4034.789	-291.5
4037.269	-288.5
4039.747	-288.5
4042.224	-290.5
4044.699	-291.5
4047.172	-289.5
4049.643	-292.5
4052.112	-289.5
4054.58	-287.5
4057.046	-289.5
4059.51	-292.5
4061.972	-295.5
4064.432	-291.5
4066.891	-290.5
4069.348	-290.5
4071.803	-289.5
4074.256	-288.5
4076.708	-290.5
4079.158	-292.5
4081.606	-291.5
4084.052	-292.5
4086.497	-286.5
4088.939	-292.5
4091.38	-295.5
4093.819	-287.5
4096.257	-308.5
4098.693	-307.5
4101.127	-309.5
4103.559	-301.5
4105.989	-193.5
4108.418	-186.5
4110.845	-178.5
4113.27	-165.5
4115.694	-142.5
4118.115	-118.5
4120.535	-296.5
4122.954	-291.5
4125.37	-293.5
4127.785	-291.5
4130.198	-291.5
4132.609	-293.5
4135.019	-304.5
4137.427	-301.5
4139.833	-306.5
4142.237	-309.5
