Data from I0.75_T10s_Bsub_water_1-10^4_3_RamanShift_1.txt Node
Date: Mon Mar 13 15:30:57 IST 2017
User: aro
Spectrometer: QEPB0276
Trigger mode: 0
Integration Time (sec): 1.000000E1
Scans to average: 1
Electric dark correction enabled: true
Nonlinearity correction enabled: false
Boxcar width: 0
XAxis mode: Raman Shifts
Number of Pixels in Spectrum: 1044
>>>>>Begin Spectral Data<<<<<
160.701	-59.5
166.742	13.5
172.777	186.5
178.805	761.5
184.826	2207.5
190.841	4692.5
196.849	7561.5
202.85	9498.5
208.845	9986.5
214.833	9666.5
220.815	9386.5
226.789	9220.5
232.758	9083.5
238.719	8910.5
244.674	8677.5
250.623	8379.5
256.565	8120.5
262.5	7822.5
268.429	7630.5
274.351	7383.5
280.267	7195.5
286.176	7071.5
292.079	6872.5
297.975	6707.5
303.865	6519.5
309.748	6394.5
315.625	6244.5
321.495	6114.5
327.359	6014.5
333.217	5947.5
339.068	5875.5
344.912	5803.5
350.751	5722.5
356.583	5753.5
362.408	5663.5
368.227	5665.5
374.04	5665.5
379.847	5608.5
385.647	5653.5
391.44	5666.5
397.228	5682.5
403.009	5652.5
408.784	5699.5
414.553	5712.5
420.315	5697.5
426.071	5682.5
431.821	5711.5
437.565	5664.5
443.302	5668.5
449.033	5651.5
454.758	5640.5
460.477	5614.5
466.189	5565.5
471.896	5579.5
477.596	5539.5
483.29	5529.5
488.978	5505.5
494.66	5495.5
500.335	5426.5
506.005	5380.5
511.668	5276.5
517.325	5223.5
522.977	5161.5
528.622	5102.5
534.261	5097.5
539.894	5084.5
545.521	5003.5
551.141	5037.5
556.756	5004.5
562.365	4994.5
567.968	5011.5
573.565	4967.5
579.155	4951.5
584.74	4914.5
590.319	4898.5
595.892	4877.5
601.459	4865.5
607.02	4836.5
612.575	4798.5
618.124	4741.5
623.667	4736.5
629.204	4699.5
634.735	4666.5
640.261	4668.5
645.781	4639.5
651.294	4614.5
656.802	4641.5
662.304	4617.5
667.8	4603.5
673.29	4608.5
678.775	4577.5
684.254	4533.5
689.726	4560.5
695.193	4583.5
700.655	4547.5
706.11	4509.5
711.56	4491.5
717.004	4503.5
722.442	4449.5
727.874	4441.5
733.301	4422.5
738.722	4426.5
744.137	4415.5
749.547	4442.5
754.951	4475.5
760.349	4408.5
765.741	4436.5
771.128	4448.5
776.509	4455.5
781.885	4454.5
787.254	4442.5
792.618	4468.5
797.977	4440.5
803.33	4371.5
808.677	4366.5
814.019	4347.5
819.355	4326.5
824.686	4291.5
830.011	4302.5
835.33	4295.5
840.644	4279.5
845.952	4286.5
851.255	4289.5
856.552	4282.5
861.844	4278.5
867.13	4265.5
872.41	4278.5
877.686	4258.5
882.955	4217.5
888.219	4181.5
893.478	4164.5
898.731	4094.5
903.979	4074.5
909.221	4022.5
914.458	4053.5
919.69	4039.5
924.916	4035.5
930.136	4039.5
935.351	4058.5
940.561	4055.5
945.766	4058.5
950.965	4050.5
956.158	4024.5
961.347	4004.5
966.529	3938.5
971.707	3917.5
976.879	3870.5
982.046	3845.5
987.208	3865.5
992.364	3866.5
997.515	3869.5
1002.66	3916.5
1007.801	3935.5
1012.936	4022.5
1018.066	4020.5
1023.19	4057.5
1028.309	4081.5
1033.423	4063.5
1038.532	4046.5
1043.636	4025.5
1048.734	3975.5
1053.827	3922.5
1058.915	3919.5
1063.998	3900.5
1069.075	3891.5
1074.147	3893.5
1079.214	3934.5
1084.276	3969.5
1089.333	3978.5
1094.385	4040.5
1099.431	4056.5
1104.472	4039.5
1109.509	4054.5
1114.54	4006.5
1119.565	3971.5
1124.586	3912.5
1129.602	3923.5
1134.613	3893.5
1139.618	3881.5
1144.619	3876.5
1149.614	3929.5
1154.604	3923.5
1159.589	3942.5
1164.57	3958.5
1169.545	3981.5
1174.515	4010.5
1179.48	3980.5
1184.44	3946.5
1189.395	3950.5
1194.345	3924.5
1199.29	3918.5
1204.23	3933.5
1209.165	3942.5
1214.095	3962.5
1219.021	3995.5
1223.941	4053.5
1228.856	4055.5
1233.766	4062.5
1238.672	4054.5
1243.572	4081.5
1248.467	4026.5
1253.358	4046.5
1258.244	3978.5
1263.124	3931.5
1268	3854.5
1272.871	3835.5
1277.737	3835.5
1282.599	3792.5
1287.455	3840.5
1292.306	3856.5
1297.153	3865.5
1301.995	3889.5
1306.832	3926.5
1311.664	3964.5
1316.491	3980.5
1321.314	3952.5
1326.132	3909.5
1330.945	3860.5
1335.753	3786.5
1340.556	3730.5
1345.354	3647.5
1350.148	3587.5
1354.937	3622.5
1359.722	3621.5
1364.501	3661.5
1369.276	3753.5
1374.046	3798.5
1378.811	3834.5
1383.572	3846.5
1388.327	3824.5
1393.079	3782.5
1397.825	3725.5
1402.567	3702.5
1407.304	3653.5
1412.036	3629.5
1416.764	3606.5
1421.487	3606.5
1426.205	3609.5
1430.919	3628.5
1435.628	3652.5
1440.333	3702.5
1445.032	3702.5
1449.727	3736.5
1454.418	3719.5
1459.104	3735.5
1463.785	3699.5
1468.462	3684.5
1473.134	3616.5
1477.802	3590.5
1482.465	3581.5
1487.123	3589.5
1491.777	3610.5
1496.426	3606.5
1501.071	3669.5
1505.711	3716.5
1510.347	3756.5
1514.978	3803.5
1519.604	3872.5
1524.226	3870.5
1528.844	3900.5
1533.457	3894.5
1538.065	3882.5
1542.669	3882.5
1547.269	3863.5
1551.864	3853.5
1556.454	3859.5
1561.041	3851.5
1565.622	3882.5
1570.199	3889.5
1574.772	3923.5
1579.34	3978.5
1583.904	3997.5
1588.464	4003.5
1593.019	4055.5
1597.569	4022.5
1602.115	4039.5
1606.657	4014.5
1611.195	4003.5
1615.728	4038.5
1620.256	4022.5
1624.78	4065.5
1629.3	4104.5
1633.816	4116.5
1638.327	4180.5
1642.834	4232.5
1647.336	4246.5
1651.834	4269.5
1656.328	4268.5
1660.817	4286.5
1665.302	4213.5
1669.783	4197.5
1674.259	4098.5
1678.732	4008.5
1683.199	3891.5
1687.663	3759.5
1692.122	3686.5
1696.577	3599.5
1701.028	3594.5
1705.474	3610.5
1709.917	3619.5
1714.355	3556.5
1718.788	3515.5
1723.218	3451.5
1727.643	3405.5
1732.064	3354.5
1736.481	3304.5
1740.893	3232.5
1745.301	3173.5
1749.705	3108.5
1754.105	3067.5
1758.501	3024.5
1762.893	2960.5
1767.28	2915.5
1771.663	2871.5
1776.042	2881.5
1780.417	2896.5
1784.787	2928.5
1789.154	2957.5
1793.516	3005.5
1797.874	3030.5
1802.228	3050.5
1806.578	3083.5
1810.924	3062.5
1815.266	3021.5
1819.603	2996.5
1823.937	2954.5
1828.266	2920.5
1832.591	2892.5
1836.913	2872.5
1841.23	2846.5
1845.543	2830.5
1849.852	2814.5
1854.156	2830.5
1858.457	2825.5
1862.754	2866.5
1867.047	2853.5
1871.335	2854.5
1875.62	2846.5
1879.9	2848.5
1884.177	2852.5
1888.449	2823.5
1892.718	2821.5
1896.982	2814.5
1901.243	2831.5
1905.499	2761.5
1909.752	2789.5
1914	2790.5
1918.245	2841.5
1922.485	2832.5
1926.722	2822.5
1930.954	2854.5
1935.183	2857.5
1939.408	2885.5
1943.628	2911.5
1947.845	2935.5
1952.058	2914.5
1956.267	2894.5
1960.472	2914.5
1964.673	2864.5
1968.87	2831.5
1973.063	2795.5
1977.252	2788.5
1981.438	2763.5
1985.619	2786.5
1989.797	2746.5
1993.971	2723.5
1998.14	2761.5
2002.306	2752.5
2006.469	2761.5
2010.627	2754.5
2014.781	2745.5
2018.932	2724.5
2023.078	2723.5
2027.221	2710.5
2031.36	2678.5
2035.495	2665.5
2039.627	2610.5
2043.754	2623.5
2047.878	2607.5
2051.998	2608.5
2056.114	2593.5
2060.226	2589.5
2064.334	2610.5
2068.439	2622.5
2072.54	2634.5
2076.637	2623.5
2080.73	2651.5
2084.82	2669.5
2088.906	2665.5
2092.988	2658.5
2097.066	2666.5
2101.14	2649.5
2105.211	2630.5
2109.278	2617.5
2113.342	2628.5
2117.401	2610.5
2121.457	2621.5
2125.509	2578.5
2129.558	2607.5
2133.602	2570.5
2137.643	2591.5
2141.681	2572.5
2145.714	2558.5
2149.744	2564.5
2153.77	2551.5
2157.793	2524.5
2161.812	2494.5
2165.827	2468.5
2169.838	2438.5
2173.846	2409.5
2177.851	2385.5
2181.851	2351.5
2185.848	2327.5
2189.841	2299.5
2193.831	2291.5
2197.817	2288.5
2201.799	2279.5
2205.778	2257.5
2209.753	2258.5
2213.725	2255.5
2217.693	2238.5
2221.657	2258.5
2225.618	2269.5
2229.575	2260.5
2233.529	2240.5
2237.479	2236.5
2241.425	2218.5
2245.368	2202.5
2249.307	2192.5
2253.243	2146.5
2257.175	2136.5
2261.104	2114.5
2265.029	2099.5
2268.95	2083.5
2272.868	2067.5
2276.783	2042.5
2280.694	2020.5
2284.601	2013.5
2288.505	1987.5
2292.405	1968.5
2296.302	1968.5
2300.195	1934.5
2304.085	1949.5
2307.971	1890.5
2311.854	1878.5
2315.734	1833.5
2319.609	1840.5
2323.482	1797.5
2327.351	1782.5
2331.216	1766.5
2335.078	1757.5
2338.937	1761.5
2342.792	1744.5
2346.643	1734.5
2350.492	1739.5
2354.336	1742.5
2358.178	1726.5
2362.015	1733.5
2365.85	1742.5
2369.681	1750.5
2373.508	1736.5
2377.333	1746.5
2381.153	1732.5
2384.971	1741.5
2388.785	1710.5
2392.595	1728.5
2396.402	1700.5
2400.206	1692.5
2404.007	1677.5
2407.804	1681.5
2411.597	1680.5
2415.388	1668.5
2419.174	1674.5
2422.958	1676.5
2426.738	1666.5
2430.515	1657.5
2434.289	1623.5
2438.059	1652.5
2441.825	1626.5
2445.589	1618.5
2449.349	1603.5
2453.106	1608.5
2456.859	1596.5
2460.61	1582.5
2464.356	1570.5
2468.1	1552.5
2471.84	1542.5
2475.577	1554.5
2479.311	1542.5
2483.041	1546.5
2486.768	1537.5
2490.492	1550.5
2494.213	1544.5
2497.93	1559.5
2501.644	1541.5
2505.355	1542.5
2509.062	1523.5
2512.766	1529.5
2516.467	1526.5
2520.165	1525.5
2523.859	1510.5
2527.551	1503.5
2531.239	1489.5
2534.923	1489.5
2538.605	1490.5
2542.283	1468.5
2545.958	1458.5
2549.63	1462.5
2553.299	1442.5
2556.964	1461.5
2560.626	1432.5
2564.285	1448.5
2567.941	1436.5
2571.594	1415.5
2575.243	1423.5
2578.89	1406.5
2582.533	1405.5
2586.173	1403.5
2589.809	1387.5
2593.443	1387.5
2597.073	1369.5
2600.701	1357.5
2604.325	1365.5
2607.946	1380.5
2611.564	1345.5
2615.178	1368.5
2618.79	1361.5
2622.398	1336.5
2626.004	1327.5
2629.606	1322.5
2633.205	1318.5
2636.801	1298.5
2640.394	1286.5
2643.983	1296.5
2647.57	1258.5
2651.153	1259.5
2654.734	1230.5
2658.311	1221.5
2661.885	1203.5
2665.456	1223.5
2669.025	1198.5
2672.589	1176.5
2676.151	1186.5
2679.71	1162.5
2683.266	1157.5
2686.819	1133.5
2690.368	1131.5
2693.915	1120.5
2697.458	1107.5
2700.999	1089.5
2704.536	1067.5
2708.071	1068.5
2711.602	1060.5
2715.13	1055.5
2718.656	1056.5
2722.178	1035.5
2725.697	1023.5
2729.214	1028.5
2732.727	1035.5
2736.237	1028.5
2739.744	1035.5
2743.249	1042.5
2746.75	1040.5
2750.248	1055.5
2753.743	1057.5
2757.236	1056.5
2760.725	1045.5
2764.211	1052.5
2767.695	1035.5
2771.175	1040.5
2774.652	1041.5
2778.127	1026.5
2781.598	1033.5
2785.067	1021.5
2788.532	1011.5
2791.995	993.5
2795.455	1001.5
2798.911	1009.5
2802.365	1010.5
2805.816	1000.5
2809.264	986.5
2812.709	984.5
2816.151	988.5
2819.59	967.5
2823.026	963.5
2826.46	968.5
2829.89	957.5
2833.318	959.5
2836.742	957.5
2840.164	949.5
2843.583	943.5
2846.999	955.5
2850.412	937.5
2853.822	958.5
2857.229	959.5
2860.634	969.5
2864.035	963.5
2867.434	975.5
2870.83	959.5
2874.223	991.5
2877.613	985.5
2881	975.5
2884.385	971.5
2887.766	970.5
2891.145	962.5
2894.521	956.5
2897.894	944.5
2901.264	946.5
2904.631	935.5
2907.996	945.5
2911.358	944.5
2914.717	934.5
2918.073	943.5
2921.426	944.5
2924.777	942.5
2928.124	942.5
2931.469	942.5
2934.811	966.5
2938.15	964.5
2941.487	962.5
2944.821	965.5
2948.152	966.5
2951.48	965.5
2954.805	976.5
2958.128	975.5
2961.447	972.5
2964.765	978.5
2968.079	1001.5
2971.39	991.5
2974.699	1010.5
2978.005	1021.5
2981.308	1043.5
2984.609	1074.5
2987.907	1086.5
2991.202	1100.5
2994.494	1112.5
2997.784	1144.5
3001.07	1180.5
3004.355	1185.5
3007.636	1176.5
3010.915	1211.5
3014.191	1213.5
3017.464	1229.5
3020.734	1249.5
3024.002	1237.5
3027.267	1247.5
3030.53	1255.5
3033.789	1270.5
3037.046	1274.5
3040.301	1277.5
3043.552	1304.5
3046.801	1332.5
3050.048	1341.5
3053.291	1369.5
3056.532	1395.5
3059.771	1429.5
3063.006	1454.5
3066.239	1480.5
3069.469	1498.5
3072.697	1542.5
3075.922	1572.5
3079.144	1609.5
3082.364	1644.5
3085.581	1662.5
3088.795	1694.5
3092.007	1726.5
3095.216	1758.5
3098.423	1770.5
3101.627	1807.5
3104.828	1852.5
3108.026	1885.5
3111.222	1886.5
3114.416	1947.5
3117.607	1954.5
3120.795	2017.5
3123.98	2067.5
3127.163	2084.5
3130.344	2117.5
3133.521	2172.5
3136.696	2200.5
3139.869	2226.5
3143.039	2264.5
3146.206	2288.5
3149.371	2303.5
3152.533	2317.5
3155.693	2336.5
3158.85	2355.5
3162.005	2381.5
3165.157	2369.5
3168.306	2374.5
3171.453	2373.5
3174.597	2364.5
3177.739	2356.5
3180.878	2374.5
3184.014	2401.5
3187.149	2385.5
3190.28	2374.5
3193.409	2381.5
3196.536	2401.5
3199.659	2393.5
3202.781	2391.5
3205.9	2399.5
3209.016	2408.5
3212.13	2367.5
3215.241	2370.5
3218.35	2355.5
3221.456	2334.5
3224.56	2318.5
3227.661	2298.5
3230.76	2272.5
3233.856	2280.5
3236.95	2233.5
3240.041	2228.5
3243.13	2218.5
3246.216	2190.5
3249.3	2193.5
3252.382	2181.5
3255.46	2165.5
3258.537	2151.5
3261.611	2149.5
3264.682	2143.5
3267.751	2136.5
3270.818	2136.5
3273.882	2139.5
3276.943	2110.5
3280.002	2107.5
3283.059	2052.5
3286.113	2031.5
3289.165	2012.5
3292.214	1995.5
3295.261	1950.5
3298.306	1910.5
3301.348	1894.5
3304.387	1852.5
3307.425	1823.5
3310.459	1792.5
3313.492	1781.5
3316.521	1759.5
3319.549	1738.5
3322.574	1716.5
3325.597	1716.5
3328.617	1686.5
3331.635	1668.5
3334.65	1675.5
3337.663	1672.5
3340.674	1667.5
3343.682	1643.5
3346.688	1634.5
3349.691	1631.5
3352.692	1607.5
3355.691	1611.5
3358.687	1581.5
3361.681	1595.5
3364.673	1567.5
3367.662	1548.5
3370.649	1523.5
3373.633	1499.5
3376.615	1482.5
3379.595	1443.5
3382.572	1438.5
3385.547	1409.5
3388.52	1381.5
3391.49	1393.5
3394.458	1367.5
3397.424	1347.5
3400.387	1329.5
3403.348	1303.5
3406.307	1302.5
3409.263	1286.5
3412.217	1272.5
3415.168	1251.5
3418.118	1250.5
3421.065	1233.5
3424.009	1221.5
3426.951	1203.5
3429.891	1170.5
3432.829	1142.5
3435.764	1149.5
3438.697	1105.5
3441.628	1083.5
3444.557	1054.5
3447.483	1030.5
3450.407	1000.5
3453.328	972.5
3456.247	946.5
3459.164	929.5
3462.079	889.5
3464.991	866.5
3467.902	839.5
3470.809	828.5
3473.715	797.5
3476.618	772.5
3479.519	742.5
3482.418	728.5
3485.315	706.5
3488.209	692.5
3491.101	670.5
3493.99	653.5
3496.878	638.5
3499.763	632.5
3502.646	603.5
3505.527	590.5
3508.405	559.5
3511.281	543.5
3514.155	516.5
3517.027	497.5
3519.897	475.5
3522.764	449.5
3525.629	416.5
3528.492	419.5
3531.352	382.5
3534.211	362.5
3537.067	340.5
3539.921	328.5
3542.773	304.5
3545.622	280.5
3548.469	268.5
3551.315	263.5
3554.157	237.5
3556.998	228.5
3559.837	214.5
3562.673	216.5
3565.507	190.5
3568.339	173.5
3571.169	164.5
3573.996	162.5
3576.822	147.5
3579.645	145.5
3582.466	122.5
3585.285	105.5
3588.101	102.5
3590.916	98.5
3593.728	73.5
3596.538	74.5
3599.346	67.5
3602.152	49.5
3604.956	44.5
3607.757	30.5
3610.556	23.5
3613.354	21.5
3616.149	10.5
3618.942	1.5
3621.732	-4.5
3624.521	-9.5
3627.307	-13.5
3630.092	-17.5
3632.874	-24.5
3635.654	-30.5
3638.432	-34.5
3641.208	-39.5
3643.982	-45.5
3646.753	-49.5
3649.523	-57.5
3652.29	-65.5
3655.055	-64.5
3657.818	-75.5
3660.579	-77.5
3663.338	-83.5
3666.095	-92.5
3668.849	-96.5
3671.602	-98.5
3674.352	-97.5
3677.101	-109.5
3679.847	-108.5
3682.591	-120.5
3685.333	-125.5
3688.073	-122.5
3690.811	-127.5
3693.547	-131.5
3696.281	-131.5
3699.013	-133.5
3701.742	-136.5
3704.47	-144.5
3707.195	-144.5
3709.919	-145.5
3712.64	-142.5
3715.359	-144.5
3718.076	-156.5
3720.792	-149.5
3723.505	-152.5
3726.216	-159.5
3728.925	-161.5
3731.632	-160.5
3734.336	-162.5
3737.039	-160.5
3739.74	-165.5
3742.439	-162.5
3745.136	-166.5
3747.83	-167.5
3750.523	-163.5
3753.213	-171.5
3755.902	-168.5
3758.589	-168.5
3761.273	-168.5
3763.956	-173.5
3766.636	-167.5
3769.315	-170.5
3771.991	-173.5
3774.665	-173.5
3777.338	-181.5
3780.008	-178.5
3782.677	-182.5
3785.343	-183.5
3788.007	-182.5
3790.67	-182.5
3793.33	-182.5
3795.989	-181.5
3798.645	-189.5
3801.299	-190.5
3803.952	-187.5
3806.602	-190.5
3809.251	-190.5
3811.897	-190.5
3814.542	-196.5
3817.184	-191.5
3819.825	-192.5
3822.463	-195.5
3825.1	-191.5
3827.735	-193.5
3830.367	-196.5
3832.998	-191.5
3835.627	-194.5
3838.253	-195.5
3840.878	-197.5
3843.501	-196.5
3846.122	-197.5
3848.741	-195.5
3851.358	-195.5
3853.973	-196.5
3856.586	-197.5
3859.197	-202.5
3861.806	-192.5
3864.414	-201.5
3867.019	-201.5
3869.622	-201.5
3872.224	-199.5
3874.823	-197.5
3877.421	-196.5
3880.016	-190.5
3882.61	-190.5
3885.202	-186.5
3887.792	-190.5
3890.38	-193.5
3892.966	-202.5
3895.55	-206.5
3898.132	-207.5
3900.713	-206.5
3903.291	-206.5
3905.868	-212.5
3908.442	-205.5
3911.015	-210.5
3913.586	-210.5
3916.155	-209.5
3918.722	-208.5
3921.287	-212.5
3923.85	-211.5
3926.411	-213.5
3928.971	-211.5
3931.528	-212.5
3934.084	-211.5
3936.638	-211.5
3939.19	-214.5
3941.74	-216.5
3944.288	-212.5
3946.834	-214.5
3949.378	-211.5
3951.921	-212.5
3954.462	-209.5
3957	-216.5
3959.537	-212.5
3962.072	-210.5
3964.606	-212.5
3967.137	-212.5
3969.667	-211.5
3972.194	-212.5
3974.72	-211.5
3977.244	-209.5
3979.766	-210.5
3982.286	-209.5
3984.805	-209.5
3987.321	-208.5
3989.836	-212.5
3992.349	-208.5
3994.86	-206.5
3997.369	-206.5
3999.877	-206.5
4002.382	-207.5
4004.886	-208.5
4007.388	-205.5
4009.888	-212.5
4012.386	-213.5
4014.883	-210.5
4017.377	-209.5
4019.87	-208.5
4022.361	-210.5
4024.85	-210.5
4027.338	-215.5
4029.823	-208.5
4032.307	-214.5
4034.789	-209.5
4037.269	-213.5
4039.747	-208.5
4042.224	-215.5
4044.699	-214.5
4047.172	-216.5
4049.643	-209.5
4052.112	-209.5
4054.58	-210.5
4057.046	-215.5
4059.51	-209.5
4061.972	-209.5
4064.432	-211.5
4066.891	-210.5
4069.348	-209.5
4071.803	-210.5
4074.256	-210.5
4076.708	-209.5
4079.158	-212.5
4081.606	-210.5
4084.052	-208.5
4086.497	-212.5
4088.939	-208.5
4091.38	-209.5
4093.819	-209.5
4096.257	-226.5
4098.693	-226.5
4101.127	-224.5
4103.559	-222.5
4105.989	-143.5
4108.418	-139.5
4110.845	-121.5
4113.27	-118.5
4115.694	-104.5
4118.115	-80.5
4120.535	-213.5
4122.954	-213.5
4125.37	-212.5
4127.785	-217.5
4130.198	-215.5
4132.609	-215.5
4135.019	-226.5
4137.427	-226.5
4139.833	-223.5
4142.237	-225.5
