Data from I0.75_T5s_Bsub_water_1-1_3_RamanShift_1.txt Node
Date: Mon Mar 13 15:17:27 IST 2017
User: aro
Spectrometer: QEPB0276
Trigger mode: 0
Integration Time (sec): 5.000000E0
Scans to average: 1
Electric dark correction enabled: true
Nonlinearity correction enabled: false
Boxcar width: 0
XAxis mode: Raman Shifts
Number of Pixels in Spectrum: 1044
>>>>>Begin Spectral Data<<<<<
160.701	-28.12
166.742	0.88
172.777	72.88
178.805	295.88
184.826	875.88
190.841	1865.88
196.849	2997.88
202.85	3722.88
208.845	3888.88
214.833	3822.88
220.815	3707.88
226.789	3647.88
232.758	3587.88
238.719	3538.88
244.674	3432.88
250.623	3341.88
256.565	3225.88
262.5	3142.88
268.429	3048.88
274.351	2985.88
280.267	2898.88
286.176	2838.88
292.079	2774.88
297.975	2699.88
303.865	2653.88
309.748	2590.88
315.625	2554.88
321.495	2502.88
327.359	2460.88
333.217	2431.88
339.068	2405.88
344.912	2358.88
350.751	2355.88
356.583	2349.88
362.408	2324.88
368.227	2335.88
374.04	2315.88
379.847	2318.88
385.647	2308.88
391.44	2333.88
397.228	2332.88
403.009	2327.88
408.784	2325.88
414.553	2339.88
420.315	2332.88
426.071	2338.88
431.821	2326.88
437.565	2326.88
443.302	2316.88
449.033	2311.88
454.758	2318.88
460.477	2318.88
466.189	2292.88
471.896	2292.88
477.596	2280.88
483.29	2265.88
488.978	2273.88
494.66	2249.88
500.335	2235.88
506.005	2204.88
511.668	2183.88
517.325	2155.88
522.977	2158.88
528.622	2117.88
534.261	2086.88
539.894	2091.88
545.521	2065.88
551.141	2071.88
556.756	2064.88
562.365	2040.88
567.968	2056.88
573.565	2046.88
579.155	2042.88
584.74	2020.88
590.319	2023.88
595.892	2027.88
601.459	2006.88
607.02	2002.88
612.575	1984.88
618.124	1981.88
623.667	1953.88
629.204	1939.88
634.735	1937.88
640.261	1942.88
645.781	1909.88
651.294	1928.88
656.802	1927.88
662.304	1930.88
667.8	1914.88
673.29	1894.88
678.775	1900.88
684.254	1903.88
689.726	1891.88
695.193	1882.88
700.655	1879.88
706.11	1880.88
711.56	1874.88
717.004	1876.88
722.442	1850.88
727.874	1848.88
733.301	1856.88
738.722	1836.88
744.137	1843.88
749.547	1832.88
754.951	1851.88
760.349	1835.88
765.741	1849.88
771.128	1862.88
776.509	1857.88
781.885	1870.88
787.254	1856.88
792.618	1855.88
797.977	1854.88
803.33	1844.88
808.677	1839.88
814.019	1818.88
819.355	1812.88
824.686	1792.88
830.011	1796.88
835.33	1810.88
840.644	1788.88
845.952	1785.88
851.255	1792.88
856.552	1807.88
861.844	1801.88
867.13	1816.88
872.41	1803.88
877.686	1785.88
882.955	1787.88
888.219	1766.88
893.478	1733.88
898.731	1724.88
903.979	1709.88
909.221	1694.88
914.458	1691.88
919.69	1701.88
924.916	1707.88
930.136	1721.88
935.351	1723.88
940.561	1716.88
945.766	1717.88
950.965	1715.88
956.158	1706.88
961.347	1704.88
966.529	1669.88
971.707	1657.88
976.879	1636.88
982.046	1619.88
987.208	1621.88
992.364	1626.88
997.515	1641.88
1002.66	1641.88
1007.801	1658.88
1012.936	1680.88
1018.066	1693.88
1023.19	1714.88
1028.309	1706.88
1033.423	1719.88
1038.532	1719.88
1043.636	1700.88
1048.734	1678.88
1053.827	1681.88
1058.915	1661.88
1063.998	1642.88
1069.075	1634.88
1074.147	1661.88
1079.214	1678.88
1084.276	1689.88
1089.333	1710.88
1094.385	1714.88
1099.431	1721.88
1104.472	1724.88
1109.509	1726.88
1114.54	1704.88
1119.565	1677.88
1124.586	1659.88
1129.602	1663.88
1134.613	1658.88
1139.618	1638.88
1144.619	1646.88
1149.614	1655.88
1154.604	1641.88
1159.589	1673.88
1164.57	1668.88
1169.545	1680.88
1174.515	1677.88
1179.48	1670.88
1184.44	1667.88
1189.395	1669.88
1194.345	1673.88
1199.29	1660.88
1204.23	1655.88
1209.165	1650.88
1214.095	1684.88
1219.021	1702.88
1223.941	1725.88
1228.856	1715.88
1233.766	1738.88
1238.672	1728.88
1243.572	1726.88
1248.467	1728.88
1253.358	1693.88
1258.244	1680.88
1263.124	1667.88
1268	1653.88
1272.871	1629.88
1277.737	1607.88
1282.599	1616.88
1287.455	1602.88
1292.306	1630.88
1297.153	1630.88
1301.995	1656.88
1306.832	1659.88
1311.664	1660.88
1316.491	1666.88
1321.314	1678.88
1326.132	1635.88
1330.945	1642.88
1335.753	1616.88
1340.556	1582.88
1345.354	1548.88
1350.148	1535.88
1354.937	1533.88
1359.722	1541.88
1364.501	1560.88
1369.276	1592.88
1374.046	1606.88
1378.811	1625.88
1383.572	1602.88
1388.327	1612.88
1393.079	1577.88
1397.825	1568.88
1402.567	1534.88
1407.304	1527.88
1412.036	1515.88
1416.764	1497.88
1421.487	1514.88
1426.205	1508.88
1430.919	1535.88
1435.628	1539.88
1440.333	1554.88
1445.032	1561.88
1449.727	1575.88
1454.418	1573.88
1459.104	1566.88
1463.785	1550.88
1468.462	1544.88
1473.134	1537.88
1477.802	1527.88
1482.465	1519.88
1487.123	1515.88
1491.777	1526.88
1496.426	1531.88
1501.071	1542.88
1505.711	1566.88
1510.347	1583.88
1514.978	1605.88
1519.604	1605.88
1524.226	1605.88
1528.844	1638.88
1533.457	1634.88
1538.065	1630.88
1542.669	1598.88
1547.269	1611.88
1551.864	1605.88
1556.454	1604.88
1561.041	1609.88
1565.622	1616.88
1570.199	1624.88
1574.772	1634.88
1579.34	1642.88
1583.904	1652.88
1588.464	1662.88
1593.019	1695.88
1597.569	1670.88
1602.115	1680.88
1606.657	1676.88
1611.195	1654.88
1615.728	1676.88
1620.256	1675.88
1624.78	1698.88
1629.3	1689.88
1633.816	1706.88
1638.327	1731.88
1642.834	1743.88
1647.336	1747.88
1651.834	1755.88
1656.328	1765.88
1660.817	1767.88
1665.302	1769.88
1669.783	1747.88
1674.259	1709.88
1678.732	1686.88
1683.199	1605.88
1687.663	1598.88
1692.122	1547.88
1696.577	1529.88
1701.028	1509.88
1705.474	1504.88
1709.917	1496.88
1714.355	1481.88
1718.788	1446.88
1723.218	1437.88
1727.643	1424.88
1732.064	1405.88
1736.481	1368.88
1740.893	1376.88
1745.301	1337.88
1749.705	1293.88
1754.105	1293.88
1758.501	1255.88
1762.893	1256.88
1767.28	1231.88
1771.663	1222.88
1776.042	1238.88
1780.417	1231.88
1784.787	1228.88
1789.154	1251.88
1793.516	1263.88
1797.874	1285.88
1802.228	1303.88
1806.578	1302.88
1810.924	1299.88
1815.266	1290.88
1819.603	1249.88
1823.937	1231.88
1828.266	1227.88
1832.591	1220.88
1836.913	1213.88
1841.23	1181.88
1845.543	1195.88
1849.852	1192.88
1854.156	1183.88
1858.457	1207.88
1862.754	1188.88
1867.047	1209.88
1871.335	1197.88
1875.62	1205.88
1879.9	1208.88
1884.177	1211.88
1888.449	1205.88
1892.718	1203.88
1896.982	1192.88
1901.243	1189.88
1905.499	1197.88
1909.752	1190.88
1914	1192.88
1918.245	1189.88
1922.485	1198.88
1926.722	1208.88
1930.954	1213.88
1935.183	1213.88
1939.408	1228.88
1943.628	1217.88
1947.845	1233.88
1952.058	1234.88
1956.267	1221.88
1960.472	1210.88
1964.673	1194.88
1968.87	1184.88
1973.063	1185.88
1977.252	1166.88
1981.438	1156.88
1985.619	1154.88
1989.797	1154.88
1993.971	1164.88
1998.14	1166.88
2002.306	1159.88
2006.469	1152.88
2010.627	1156.88
2014.781	1156.88
2018.932	1153.88
2023.078	1158.88
2027.221	1136.88
2031.36	1130.88
2035.495	1129.88
2039.627	1107.88
2043.754	1102.88
2047.878	1092.88
2051.998	1095.88
2056.114	1087.88
2060.226	1103.88
2064.334	1107.88
2068.439	1103.88
2072.54	1119.88
2076.637	1115.88
2080.73	1116.88
2084.82	1122.88
2088.906	1121.88
2092.988	1125.88
2097.066	1126.88
2101.14	1111.88
2105.211	1096.88
2109.278	1101.88
2113.342	1092.88
2117.401	1091.88
2121.457	1077.88
2125.509	1089.88
2129.558	1098.88
2133.602	1077.88
2137.643	1076.88
2141.681	1082.88
2145.714	1054.88
2149.744	1073.88
2153.77	1063.88
2157.793	1062.88
2161.812	1042.88
2165.827	1030.88
2169.838	1010.88
2173.846	1017.88
2177.851	998.88
2181.851	988.88
2185.848	971.88
2189.841	975.88
2193.831	963.88
2197.817	967.88
2201.799	959.88
2205.778	962.88
2209.753	947.88
2213.725	958.88
2217.693	954.88
2221.657	968.88
2225.618	956.88
2229.575	957.88
2233.529	950.88
2237.479	940.88
2241.425	931.88
2245.368	940.88
2249.307	919.88
2253.243	911.88
2257.175	898.88
2261.104	892.88
2265.029	886.88
2268.95	864.88
2272.868	870.88
2276.783	862.88
2280.694	859.88
2284.601	859.88
2288.505	851.88
2292.405	845.88
2296.302	826.88
2300.195	825.88
2304.085	807.88
2307.971	805.88
2311.854	793.88
2315.734	778.88
2319.609	769.88
2323.482	758.88
2327.351	752.88
2331.216	744.88
2335.078	733.88
2338.937	740.88
2342.792	731.88
2346.643	735.88
2350.492	731.88
2354.336	731.88
2358.178	734.88
2362.015	746.88
2365.85	735.88
2369.681	750.88
2373.508	740.88
2377.333	744.88
2381.153	731.88
2384.971	734.88
2388.785	734.88
2392.595	729.88
2396.402	730.88
2400.206	717.88
2404.007	724.88
2407.804	717.88
2411.597	707.88
2415.388	712.88
2419.174	709.88
2422.958	701.88
2426.738	710.88
2430.515	687.88
2434.289	693.88
2438.059	694.88
2441.825	696.88
2445.589	686.88
2449.349	683.88
2453.106	683.88
2456.859	681.88
2460.61	668.88
2464.356	662.88
2468.1	666.88
2471.84	650.88
2475.577	666.88
2479.311	662.88
2483.041	656.88
2486.768	655.88
2490.492	656.88
2494.213	655.88
2497.93	650.88
2501.644	662.88
2505.355	655.88
2509.062	656.88
2512.766	658.88
2516.467	658.88
2520.165	644.88
2523.859	640.88
2527.551	642.88
2531.239	639.88
2534.923	633.88
2538.605	630.88
2542.283	630.88
2545.958	619.88
2549.63	621.88
2553.299	612.88
2556.964	607.88
2560.626	621.88
2564.285	605.88
2567.941	604.88
2571.594	602.88
2575.243	594.88
2578.89	593.88
2582.533	591.88
2586.173	587.88
2589.809	586.88
2593.443	585.88
2597.073	576.88
2600.701	571.88
2604.325	570.88
2607.946	577.88
2611.564	566.88
2615.178	575.88
2618.79	573.88
2622.398	577.88
2626.004	567.88
2629.606	563.88
2633.205	562.88
2636.801	565.88
2640.394	548.88
2643.983	541.88
2647.57	543.88
2651.153	523.88
2654.734	527.88
2658.311	517.88
2661.885	520.88
2665.456	523.88
2669.025	506.88
2672.589	503.88
2676.151	502.88
2679.71	499.88
2683.266	489.88
2686.819	488.88
2690.368	479.88
2693.915	469.88
2697.458	473.88
2700.999	463.88
2704.536	457.88
2708.071	459.88
2711.602	453.88
2715.13	457.88
2718.656	438.88
2722.178	448.88
2725.697	442.88
2729.214	429.88
2732.727	447.88
2736.237	446.88
2739.744	453.88
2743.249	436.88
2746.75	455.88
2750.248	443.88
2753.743	445.88
2757.236	450.88
2760.725	449.88
2764.211	444.88
2767.695	452.88
2771.175	449.88
2774.652	433.88
2778.127	438.88
2781.598	430.88
2785.067	425.88
2788.532	430.88
2791.995	426.88
2795.455	431.88
2798.911	426.88
2802.365	425.88
2805.816	416.88
2809.264	431.88
2812.709	429.88
2816.151	417.88
2819.59	420.88
2823.026	414.88
2826.46	416.88
2829.89	399.88
2833.318	413.88
2836.742	409.88
2840.164	410.88
2843.583	402.88
2846.999	412.88
2850.412	397.88
2853.822	399.88
2857.229	409.88
2860.634	411.88
2864.035	410.88
2867.434	404.88
2870.83	415.88
2874.223	406.88
2877.613	417.88
2881	410.88
2884.385	407.88
2887.766	406.88
2891.145	402.88
2894.521	399.88
2897.894	402.88
2901.264	394.88
2904.631	394.88
2907.996	386.88
2911.358	399.88
2914.717	387.88
2918.073	394.88
2921.426	397.88
2924.777	394.88
2928.124	394.88
2931.469	399.88
2934.811	399.88
2938.15	403.88
2941.487	401.88
2944.821	409.88
2948.152	407.88
2951.48	415.88
2954.805	414.88
2958.128	404.88
2961.447	407.88
2964.765	418.88
2968.079	412.88
2971.39	424.88
2974.699	429.88
2978.005	434.88
2981.308	427.88
2984.609	436.88
2987.907	443.88
2991.202	443.88
2994.494	463.88
2997.784	460.88
3001.07	477.88
3004.355	471.88
3007.636	481.88
3010.915	484.88
3014.191	494.88
3017.464	495.88
3020.734	515.88
3024.002	497.88
3027.267	506.88
3030.53	512.88
3033.789	518.88
3037.046	523.88
3040.301	528.88
3043.552	527.88
3046.801	549.88
3050.048	534.88
3053.291	556.88
3056.532	560.88
3059.771	566.88
3063.006	595.88
3066.239	601.88
3069.469	604.88
3072.697	623.88
3075.922	628.88
3079.144	643.88
3082.364	656.88
3085.581	670.88
3088.795	671.88
3092.007	679.88
3095.216	695.88
3098.423	707.88
3101.627	720.88
3104.828	721.88
3108.026	737.88
3111.222	758.88
3114.416	773.88
3117.607	778.88
3120.795	793.88
3123.98	810.88
3127.163	826.88
3130.344	831.88
3133.521	854.88
3136.696	878.88
3139.869	886.88
3143.039	892.88
3146.206	900.88
3149.371	920.88
3152.533	921.88
3155.693	917.88
3158.85	915.88
3162.005	923.88
3165.157	932.88
3168.306	929.88
3171.453	934.88
3174.597	934.88
3177.739	934.88
3180.878	937.88
3184.014	938.88
3187.149	936.88
3190.28	937.88
3193.409	949.88
3196.536	954.88
3199.659	948.88
3202.781	948.88
3205.9	953.88
3209.016	936.88
3212.13	937.88
3215.241	943.88
3218.35	930.88
3221.456	926.88
3224.56	903.88
3227.661	907.88
3230.76	901.88
3233.856	893.88
3236.95	895.88
3240.041	865.88
3243.13	870.88
3246.216	873.88
3249.3	850.88
3252.382	862.88
3255.46	852.88
3258.537	859.88
3261.611	848.88
3264.682	854.88
3267.751	846.88
3270.818	844.88
3273.882	837.88
3276.943	827.88
3280.002	832.88
3283.059	823.88
3286.113	813.88
3289.165	800.88
3292.214	790.88
3295.261	767.88
3298.306	760.88
3301.348	753.88
3304.387	731.88
3307.425	716.88
3310.459	713.88
3313.492	705.88
3316.521	689.88
3319.549	690.88
3322.574	675.88
3325.597	661.88
3328.617	668.88
3331.635	655.88
3334.65	660.88
3337.663	659.88
3340.674	659.88
3343.682	660.88
3346.688	659.88
3349.691	646.88
3352.692	645.88
3355.691	636.88
3358.687	635.88
3361.681	638.88
3364.673	620.88
3367.662	606.88
3370.649	592.88
3373.633	591.88
3376.615	580.88
3379.595	573.88
3382.572	570.88
3385.547	564.88
3388.52	556.88
3391.49	537.88
3394.458	535.88
3397.424	532.88
3400.387	527.88
3403.348	516.88
3406.307	517.88
3409.263	498.88
3412.217	507.88
3415.168	499.88
3418.118	498.88
3421.065	490.88
3424.009	488.88
3426.951	478.88
3429.891	470.88
3432.829	453.88
3435.764	459.88
3438.697	444.88
3441.628	426.88
3444.557	421.88
3447.483	409.88
3450.407	385.88
3453.328	398.88
3456.247	371.88
3459.164	364.88
3462.079	349.88
3464.991	344.88
3467.902	326.88
3470.809	324.88
3473.715	316.88
3476.618	303.88
3479.519	294.88
3482.418	296.88
3485.315	277.88
3488.209	273.88
3491.101	269.88
3493.99	262.88
3496.878	243.88
3499.763	243.88
3502.646	240.88
3505.527	229.88
3508.405	224.88
3511.281	209.88
3514.155	206.88
3517.027	200.88
3519.897	191.88
3522.764	181.88
3525.629	170.88
3528.492	163.88
3531.352	143.88
3534.211	144.88
3537.067	137.88
3539.921	128.88
3542.773	120.88
3545.622	116.88
3548.469	112.88
3551.315	103.88
3554.157	103.88
3556.998	93.88
3559.837	94.88
3562.673	86.88
3565.507	75.88
3568.339	71.88
3571.169	64.88
3573.996	70.88
3576.822	62.88
3579.645	46.88
3582.466	48.88
3585.285	50.88
3588.101	39.88
3590.916	38.88
3593.728	34.88
3596.538	29.88
3599.346	22.88
3602.152	19.88
3604.956	13.88
3607.757	6.88
3610.556	4.88
3613.354	6.88
3616.149	0.88
3618.942	3.88
3621.732	-0.12
3624.521	-5.12
3627.307	-6.12
3630.092	-2.12
3632.874	-8.12
3635.654	-11.12
3638.432	-15.12
3641.208	-14.12
3643.982	-23.12
3646.753	-23.12
3649.523	-22.12
3652.29	-24.12
3655.055	-28.12
3657.818	-31.12
3660.579	-29.12
3663.338	-32.12
3666.095	-29.12
3668.849	-38.12
3671.602	-38.12
3674.352	-38.12
3677.101	-41.12
3679.847	-43.12
3682.591	-45.12
3685.333	-46.12
3688.073	-46.12
3690.811	-47.12
3693.547	-45.12
3696.281	-47.12
3699.013	-56.12
3701.742	-54.12
3704.47	-55.12
3707.195	-57.12
3709.919	-58.12
3712.64	-59.12
3715.359	-54.12
3718.076	-60.12
3720.792	-62.12
3723.505	-61.12
3726.216	-60.12
3728.925	-61.12
3731.632	-59.12
3734.336	-63.12
3737.039	-62.12
3739.74	-64.12
3742.439	-68.12
3745.136	-62.12
3747.83	-64.12
3750.523	-63.12
3753.213	-65.12
3755.902	-63.12
3758.589	-68.12
3761.273	-66.12
3763.956	-64.12
3766.636	-63.12
3769.315	-66.12
3771.991	-69.12
3774.665	-70.12
3777.338	-70.12
3780.008	-72.12
3782.677	-71.12
3785.343	-74.12
3788.007	-73.12
3790.67	-75.12
3793.33	-77.12
3795.989	-73.12
3798.645	-79.12
3801.299	-79.12
3803.952	-74.12
3806.602	-76.12
3809.251	-73.12
3811.897	-74.12
3814.542	-73.12
3817.184	-80.12
3819.825	-74.12
3822.463	-74.12
3825.1	-73.12
3827.735	-73.12
3830.367	-74.12
3832.998	-74.12
3835.627	-76.12
3838.253	-75.12
3840.878	-77.12
3843.501	-77.12
3846.122	-73.12
3848.741	-75.12
3851.358	-76.12
3853.973	-79.12
3856.586	-74.12
3859.197	-76.12
3861.806	-82.12
3864.414	-84.12
3867.019	-80.12
3869.622	-81.12
3872.224	-83.12
3874.823	-77.12
3877.421	-77.12
3880.016	-80.12
3882.61	-72.12
3885.202	-72.12
3887.792	-75.12
3890.38	-75.12
3892.966	-81.12
3895.55	-77.12
3898.132	-79.12
3900.713	-79.12
3903.291	-83.12
3905.868	-82.12
3908.442	-83.12
3911.015	-81.12
3913.586	-82.12
3916.155	-79.12
3918.722	-81.12
3921.287	-81.12
3923.85	-84.12
3926.411	-80.12
3928.971	-82.12
3931.528	-84.12
3934.084	-85.12
3936.638	-84.12
3939.19	-86.12
3941.74	-89.12
3944.288	-90.12
3946.834	-92.12
3949.378	-88.12
3951.921	-86.12
3954.462	-86.12
3957	-86.12
3959.537	-85.12
3962.072	-83.12
3964.606	-82.12
3967.137	-85.12
3969.667	-83.12
3972.194	-80.12
3974.72	-80.12
3977.244	-78.12
3979.766	-80.12
3982.286	-80.12
3984.805	-79.12
3987.321	-81.12
3989.836	-80.12
3992.349	-83.12
3994.86	-82.12
3997.369	-85.12
3999.877	-89.12
4002.382	-84.12
4004.886	-83.12
4007.388	-87.12
4009.888	-88.12
4012.386	-89.12
4014.883	-85.12
4017.377	-85.12
4019.87	-83.12
4022.361	-86.12
4024.85	-85.12
4027.338	-86.12
4029.823	-83.12
4032.307	-83.12
4034.789	-81.12
4037.269	-84.12
4039.747	-81.12
4042.224	-82.12
4044.699	-78.12
4047.172	-81.12
4049.643	-81.12
4052.112	-80.12
4054.58	-81.12
4057.046	-81.12
4059.51	-83.12
4061.972	-84.12
4064.432	-80.12
4066.891	-80.12
4069.348	-83.12
4071.803	-83.12
4074.256	-86.12
4076.708	-85.12
4079.158	-84.12
4081.606	-87.12
4084.052	-85.12
4086.497	-86.12
4088.939	-86.12
4091.38	-86.12
4093.819	-88.12
4096.257	-85.12
4098.693	-87.12
4101.127	-88.12
4103.559	-88.12
4105.989	-54.12
4108.418	-52.12
4110.845	-53.12
4113.27	-46.12
4115.694	-44.12
4118.115	-37.12
4120.535	-87.12
4122.954	-84.12
4125.37	-88.12
4127.785	-80.12
4130.198	-86.12
4132.609	-82.12
4135.019	-87.12
4137.427	-84.12
4139.833	-87.12
4142.237	-83.12
