Data from 100000CFU2_A_RamanShift_1.txt Node
Date: Thu Feb 02 13:56:05 IST 2017
User: aro
Spectrometer: QEPB0276
Trigger mode: 0
Integration Time (sec): 5.000000E0
Scans to average: 1
Electric dark correction enabled: true
Nonlinearity correction enabled: false
Boxcar width: 0
XAxis mode: Raman Shifts
Number of Pixels in Spectrum: 1044
>>>>>Begin Spectral Data<<<<<
160.701	-4.62
166.742	2.38
172.777	25.38
178.805	85.38
184.826	226.38
190.841	442.38
196.849	697.38
202.85	846.38
208.845	908.38
214.833	900.38
220.815	868.38
226.789	855.38
232.758	854.38
238.719	837.38
244.674	828.38
250.623	790.38
256.565	797.38
262.5	756.38
268.429	747.38
274.351	728.38
280.267	733.38
286.176	710.38
292.079	705.38
297.975	709.38
303.865	693.38
309.748	677.38
315.625	683.38
321.495	686.38
327.359	682.38
333.217	691.38
339.068	694.38
344.912	690.38
350.751	694.38
356.583	705.38
362.408	704.38
368.227	703.38
374.04	693.38
379.847	687.38
385.647	686.38
391.44	680.38
397.228	689.38
403.009	694.38
408.784	709.38
414.553	702.38
420.315	701.38
426.071	712.38
431.821	714.38
437.565	720.38
443.302	718.38
449.033	710.38
454.758	702.38
460.477	686.38
466.189	695.38
471.896	679.38
477.596	676.38
483.29	658.38
488.978	664.38
494.66	652.38
500.335	632.38
506.005	618.38
511.668	609.38
517.325	578.38
522.977	556.38
528.622	533.38
534.261	517.38
539.894	522.38
545.521	509.38
551.141	511.38
556.756	497.38
562.365	489.38
567.968	490.38
573.565	479.38
579.155	483.38
584.74	477.38
590.319	471.38
595.892	481.38
601.459	481.38
607.02	471.38
612.575	471.38
618.124	466.38
623.667	441.38
629.204	449.38
634.735	442.38
640.261	439.38
645.781	443.38
651.294	440.38
656.802	437.38
662.304	428.38
667.8	419.38
673.29	424.38
678.775	421.38
684.254	419.38
689.726	416.38
695.193	406.38
700.655	409.38
706.11	408.38
711.56	405.38
717.004	399.38
722.442	405.38
727.874	405.38
733.301	393.38
738.722	390.38
744.137	386.38
749.547	397.38
754.951	393.38
760.349	391.38
765.741	397.38
771.128	390.38
776.509	395.38
781.885	401.38
787.254	404.38
792.618	412.38
797.977	402.38
803.33	390.38
808.677	398.38
814.019	399.38
819.355	396.38
824.686	392.38
830.011	404.38
835.33	394.38
840.644	407.38
845.952	402.38
851.255	403.38
856.552	410.38
861.844	413.38
867.13	423.38
872.41	416.38
877.686	415.38
882.955	419.38
888.219	412.38
893.478	405.38
898.731	387.38
903.979	381.38
909.221	370.38
914.458	372.38
919.69	364.38
924.916	362.38
930.136	358.38
935.351	359.38
940.561	357.38
945.766	360.38
950.965	353.38
956.158	361.38
961.347	351.38
966.529	348.38
971.707	334.38
976.879	325.38
982.046	333.38
987.208	327.38
992.364	323.38
997.515	333.38
1002.66	340.38
1007.801	343.38
1012.936	345.38
1018.066	347.38
1023.19	343.38
1028.309	356.38
1033.423	365.38
1038.532	362.38
1043.636	362.38
1048.734	357.38
1053.827	366.38
1058.915	374.38
1063.998	375.38
1069.075	389.38
1074.147	387.38
1079.214	383.38
1084.276	395.38
1089.333	409.38
1094.385	392.38
1099.431	396.38
1104.472	380.38
1109.509	364.38
1114.54	353.38
1119.565	358.38
1124.586	364.38
1129.602	370.38
1134.613	360.38
1139.618	343.38
1144.619	313.38
1149.614	309.38
1154.604	314.38
1159.589	312.38
1164.57	299.38
1169.545	300.38
1174.515	297.38
1179.48	296.38
1184.44	284.38
1189.395	278.38
1194.345	272.38
1199.29	269.38
1204.23	277.38
1209.165	287.38
1214.095	286.38
1219.021	289.38
1223.941	280.38
1228.856	287.38
1233.766	292.38
1238.672	293.38
1243.572	305.38
1248.467	309.38
1253.358	318.38
1258.244	314.38
1263.124	320.38
1268	314.38
1272.871	305.38
1277.737	298.38
1282.599	293.38
1287.455	297.38
1292.306	304.38
1297.153	324.38
1301.995	339.38
1306.832	351.38
1311.664	336.38
1316.491	317.38
1321.314	312.38
1326.132	295.38
1330.945	285.38
1335.753	276.38
1340.556	277.38
1345.354	266.38
1350.148	267.38
1354.937	258.38
1359.722	258.38
1364.501	254.38
1369.276	258.38
1374.046	260.38
1378.811	255.38
1383.572	259.38
1388.327	254.38
1393.079	241.38
1397.825	233.38
1402.567	233.38
1407.304	231.38
1412.036	236.38
1416.764	236.38
1421.487	248.38
1426.205	250.38
1430.919	254.38
1435.628	279.38
1440.333	309.38
1445.032	334.38
1449.727	350.38
1454.418	337.38
1459.104	321.38
1463.785	311.38
1468.462	302.38
1473.134	272.38
1477.802	246.38
1482.465	225.38
1487.123	199.38
1491.777	199.38
1496.426	188.38
1501.071	185.38
1505.711	186.38
1510.347	180.38
1514.978	190.38
1519.604	180.38
1524.226	184.38
1528.844	182.38
1533.457	181.38
1538.065	179.38
1542.669	182.38
1547.269	187.38
1551.864	182.38
1556.454	181.38
1561.041	182.38
1565.622	181.38
1570.199	183.38
1574.772	175.38
1579.34	183.38
1583.904	181.38
1588.464	186.38
1593.019	184.38
1597.569	182.38
1602.115	187.38
1606.657	191.38
1611.195	188.38
1615.728	193.38
1620.256	191.38
1624.78	197.38
1629.3	191.38
1633.816	193.38
1638.327	197.38
1642.834	202.38
1647.336	208.38
1651.834	216.38
1656.328	219.38
1660.817	231.38
1665.302	224.38
1669.783	212.38
1674.259	208.38
1678.732	200.38
1683.199	197.38
1687.663	182.38
1692.122	164.38
1696.577	158.38
1701.028	148.38
1705.474	153.38
1709.917	145.38
1714.355	149.38
1718.788	138.38
1723.218	134.38
1727.643	131.38
1732.064	128.38
1736.481	126.38
1740.893	124.38
1745.301	125.38
1749.705	125.38
1754.105	115.38
1758.501	111.38
1762.893	103.38
1767.28	102.38
1771.663	98.38
1776.042	97.38
1780.417	96.38
1784.787	94.38
1789.154	92.38
1793.516	100.38
1797.874	97.38
1802.228	95.38
1806.578	100.38
1810.924	98.38
1815.266	91.38
1819.603	88.38
1823.937	92.38
1828.266	88.38
1832.591	91.38
1836.913	87.38
1841.23	82.38
1845.543	84.38
1849.852	78.38
1854.156	86.38
1858.457	86.38
1862.754	87.38
1867.047	79.38
1871.335	80.38
1875.62	79.38
1879.9	76.38
1884.177	77.38
1888.449	80.38
1892.718	74.38
1896.982	83.38
1901.243	82.38
1905.499	83.38
1909.752	79.38
1914	80.38
1918.245	79.38
1922.485	70.38
1926.722	81.38
1930.954	82.38
1935.183	77.38
1939.408	81.38
1943.628	73.38
1947.845	78.38
1952.058	76.38
1956.267	76.38
1960.472	80.38
1964.673	74.38
1968.87	71.38
1973.063	75.38
1977.252	70.38
1981.438	71.38
1985.619	68.38
1989.797	65.38
1993.971	69.38
1998.14	65.38
2002.306	67.38
2006.469	68.38
2010.627	61.38
2014.781	73.38
2018.932	67.38
2023.078	68.38
2027.221	64.38
2031.36	63.38
2035.495	62.38
2039.627	63.38
2043.754	65.38
2047.878	63.38
2051.998	62.38
2056.114	61.38
2060.226	60.38
2064.334	63.38
2068.439	65.38
2072.54	67.38
2076.637	64.38
2080.73	65.38
2084.82	63.38
2088.906	69.38
2092.988	65.38
2097.066	68.38
2101.14	65.38
2105.211	62.38
2109.278	60.38
2113.342	62.38
2117.401	63.38
2121.457	68.38
2125.509	62.38
2129.558	60.38
2133.602	61.38
2137.643	64.38
2141.681	58.38
2145.714	56.38
2149.744	54.38
2153.77	61.38
2157.793	58.38
2161.812	61.38
2165.827	52.38
2169.838	52.38
2173.846	51.38
2177.851	50.38
2181.851	53.38
2185.848	52.38
2189.841	48.38
2193.831	50.38
2197.817	45.38
2201.799	51.38
2205.778	50.38
2209.753	46.38
2213.725	42.38
2217.693	45.38
2221.657	43.38
2225.618	45.38
2229.575	42.38
2233.529	43.38
2237.479	42.38
2241.425	37.38
2245.368	44.38
2249.307	39.38
2253.243	38.38
2257.175	37.38
2261.104	38.38
2265.029	36.38
2268.95	35.38
2272.868	33.38
2276.783	31.38
2280.694	32.38
2284.601	33.38
2288.505	30.38
2292.405	35.38
2296.302	31.38
2300.195	28.38
2304.085	27.38
2307.971	23.38
2311.854	25.38
2315.734	28.38
2319.609	27.38
2323.482	30.38
2327.351	29.38
2331.216	27.38
2335.078	29.38
2338.937	26.38
2342.792	26.38
2346.643	24.38
2350.492	20.38
2354.336	20.38
2358.178	17.38
2362.015	21.38
2365.85	17.38
2369.681	19.38
2373.508	22.38
2377.333	23.38
2381.153	23.38
2384.971	19.38
2388.785	21.38
2392.595	11.38
2396.402	14.38
2400.206	14.38
2404.007	21.38
2407.804	21.38
2411.597	22.38
2415.388	17.38
2419.174	17.38
2422.958	15.38
2426.738	15.38
2430.515	13.38
2434.289	19.38
2438.059	20.38
2441.825	16.38
2445.589	17.38
2449.349	16.38
2453.106	11.38
2456.859	11.38
2460.61	14.38
2464.356	19.38
2468.1	16.38
2471.84	13.38
2475.577	14.38
2479.311	13.38
2483.041	9.38
2486.768	12.38
2490.492	11.38
2494.213	17.38
2497.93	13.38
2501.644	12.38
2505.355	14.38
2509.062	9.38
2512.766	10.38
2516.467	11.38
2520.165	10.38
2523.859	13.38
2527.551	13.38
2531.239	15.38
2534.923	10.38
2538.605	7.38
2542.283	5.38
2545.958	12.38
2549.63	11.38
2553.299	17.38
2556.964	11.38
2560.626	16.38
2564.285	10.38
2567.941	6.38
2571.594	6.38
2575.243	13.38
2578.89	12.38
2582.533	14.38
2586.173	12.38
2589.809	11.38
2593.443	13.38
2597.073	10.38
2600.701	10.38
2604.325	7.38
2607.946	14.38
2611.564	10.38
2615.178	13.38
2618.79	10.38
2622.398	14.38
2626.004	8.38
2629.606	9.38
2633.205	10.38
2636.801	9.38
2640.394	12.38
2643.983	12.38
2647.57	8.38
2651.153	11.38
2654.734	9.38
2658.311	8.38
2661.885	9.38
2665.456	7.38
2669.025	5.38
2672.589	3.38
2676.151	7.38
2679.71	7.38
2683.266	10.38
2686.819	7.38
2690.368	10.38
2693.915	4.38
2697.458	6.38
2700.999	3.38
2704.536	11.38
2708.071	8.38
2711.602	11.38
2715.13	9.38
2718.656	13.38
2722.178	7.38
2725.697	6.38
2729.214	9.38
2732.727	14.38
2736.237	16.38
2739.744	19.38
2743.249	14.38
2746.75	9.38
2750.248	8.38
2753.743	8.38
2757.236	4.38
2760.725	12.38
2764.211	13.38
2767.695	10.38
2771.175	11.38
2774.652	8.38
2778.127	7.38
2781.598	9.38
2785.067	8.38
2788.532	11.38
2791.995	13.38
2795.455	14.38
2798.911	13.38
2802.365	11.38
2805.816	13.38
2809.264	14.38
2812.709	17.38
2816.151	17.38
2819.59	21.38
2823.026	18.38
2826.46	26.38
2829.89	26.38
2833.318	33.38
2836.742	37.38
2840.164	43.38
2843.583	50.38
2846.999	65.38
2850.412	80.38
2853.822	86.38
2857.229	97.38
2860.634	104.38
2864.035	99.38
2867.434	102.38
2870.83	107.38
2874.223	109.38
2877.613	112.38
2881	123.38
2884.385	134.38
2887.766	137.38
2891.145	138.38
2894.521	131.38
2897.894	125.38
2901.264	120.38
2904.631	117.38
2907.996	122.38
2911.358	122.38
2914.717	121.38
2918.073	119.38
2921.426	113.38
2924.777	118.38
2928.124	111.38
2931.469	110.38
2934.811	109.38
2938.15	113.38
2941.487	108.38
2944.821	102.38
2948.152	93.38
2951.48	92.38
2954.805	83.38
2958.128	77.38
2961.447	81.38
2964.765	79.38
2968.079	74.38
2971.39	68.38
2974.699	66.38
2978.005	56.38
2981.308	60.38
2984.609	59.38
2987.907	55.38
2991.202	52.38
2994.494	48.38
2997.784	53.38
3001.07	47.38
3004.355	48.38
3007.636	49.38
3010.915	48.38
3014.191	40.38
3017.464	39.38
3020.734	38.38
3024.002	41.38
3027.267	39.38
3030.53	42.38
3033.789	39.38
3037.046	38.38
3040.301	41.38
3043.552	39.38
3046.801	37.38
3050.048	44.38
3053.291	43.38
3056.532	47.38
3059.771	43.38
3063.006	46.38
3066.239	53.38
3069.469	54.38
3072.697	51.38
3075.922	60.38
3079.144	61.38
3082.364	57.38
3085.581	52.38
3088.795	57.38
3092.007	56.38
3095.216	64.38
3098.423	66.38
3101.627	67.38
3104.828	70.38
3108.026	69.38
3111.222	67.38
3114.416	68.38
3117.607	77.38
3120.795	75.38
3123.98	78.38
3127.163	85.38
3130.344	80.38
3133.521	84.38
3136.696	86.38
3139.869	90.38
3143.039	92.38
3146.206	97.38
3149.371	96.38
3152.533	99.38
3155.693	92.38
3158.85	95.38
3162.005	98.38
3165.157	97.38
3168.306	94.38
3171.453	100.38
3174.597	98.38
3177.739	102.38
3180.878	100.38
3184.014	102.38
3187.149	98.38
3190.28	95.38
3193.409	98.38
3196.536	97.38
3199.659	101.38
3202.781	99.38
3205.9	100.38
3209.016	106.38
3212.13	106.38
3215.241	102.38
3218.35	100.38
3221.456	95.38
3224.56	95.38
3227.661	97.38
3230.76	99.38
3233.856	99.38
3236.95	87.38
3240.041	93.38
3243.13	91.38
3246.216	93.38
3249.3	90.38
3252.382	88.38
3255.46	85.38
3258.537	90.38
3261.611	88.38
3264.682	83.38
3267.751	89.38
3270.818	83.38
3273.882	81.38
3276.943	84.38
3280.002	88.38
3283.059	86.38
3286.113	86.38
3289.165	86.38
3292.214	76.38
3295.261	76.38
3298.306	80.38
3301.348	80.38
3304.387	76.38
3307.425	80.38
3310.459	72.38
3313.492	75.38
3316.521	68.38
3319.549	72.38
3322.574	70.38
3325.597	69.38
3328.617	68.38
3331.635	63.38
3334.65	66.38
3337.663	64.38
3340.674	65.38
3343.682	63.38
3346.688	65.38
3349.691	67.38
3352.692	63.38
3355.691	63.38
3358.687	64.38
3361.681	61.38
3364.673	56.38
3367.662	60.38
3370.649	61.38
3373.633	58.38
3376.615	60.38
3379.595	54.38
3382.572	52.38
3385.547	55.38
3388.52	51.38
3391.49	54.38
3394.458	53.38
3397.424	52.38
3400.387	48.38
3403.348	53.38
3406.307	49.38
3409.263	52.38
3412.217	47.38
3415.168	51.38
3418.118	44.38
3421.065	42.38
3424.009	43.38
3426.951	46.38
3429.891	46.38
3432.829	51.38
3435.764	41.38
3438.697	41.38
3441.628	32.38
3444.557	37.38
3447.483	35.38
3450.407	35.38
3453.328	34.38
3456.247	32.38
3459.164	31.38
3462.079	27.38
3464.991	23.38
3467.902	27.38
3470.809	27.38
3473.715	23.38
3476.618	22.38
3479.519	17.38
3482.418	13.38
3485.315	20.38
3488.209	11.38
3491.101	17.38
3493.99	17.38
3496.878	20.38
3499.763	17.38
3502.646	14.38
3505.527	9.38
3508.405	11.38
3511.281	5.38
3514.155	10.38
3517.027	7.38
3519.897	8.38
3522.764	9.38
3525.629	4.38
3528.492	0.38
3531.352	-0.62
3534.211	-4.62
3537.067	-1.62
3539.921	-1.62
3542.773	-0.62
3545.622	-4.62
3548.469	0.38
3551.315	-4.62
3554.157	-8.62
3556.998	-2.62
3559.837	-2.62
3562.673	-2.62
3565.507	-6.62
3568.339	-4.62
3571.169	-8.62
3573.996	-8.62
3576.822	-9.62
3579.645	-11.62
3582.466	-11.62
3585.285	-8.62
3588.101	-9.62
3590.916	-15.62
3593.728	-14.62
3596.538	-18.62
3599.346	-15.62
3602.152	-16.62
3604.956	-13.62
3607.757	-13.62
3610.556	-11.62
3613.354	-15.62
3616.149	-18.62
3618.942	-13.62
3621.732	-20.62
3624.521	-19.62
3627.307	-16.62
3630.092	-16.62
3632.874	-17.62
3635.654	-16.62
3638.432	-18.62
3641.208	-16.62
3643.982	-18.62
3646.753	-20.62
3649.523	-18.62
3652.29	-18.62
3655.055	-18.62
3657.818	-25.62
3660.579	-20.62
3663.338	-20.62
3666.095	-19.62
3668.849	-21.62
3671.602	-19.62
3674.352	-22.62
3677.101	-18.62
3679.847	-23.62
3682.591	-22.62
3685.333	-20.62
3688.073	-23.62
3690.811	-24.62
3693.547	-28.62
3696.281	-23.62
3699.013	-22.62
3701.742	-25.62
3704.47	-21.62
3707.195	-21.62
3709.919	-21.62
3712.64	-27.62
3715.359	-23.62
3718.076	-19.62
3720.792	-22.62
3723.505	-19.62
3726.216	-19.62
3728.925	-28.62
3731.632	-26.62
3734.336	-25.62
3737.039	-24.62
3739.74	-26.62
3742.439	-22.62
3745.136	-24.62
3747.83	-23.62
3750.523	-23.62
3753.213	-29.62
3755.902	-28.62
3758.589	-26.62
3761.273	-24.62
3763.956	-21.62
3766.636	-22.62
3769.315	-22.62
3771.991	-28.62
3774.665	-30.62
3777.338	-26.62
3780.008	-23.62
3782.677	-23.62
3785.343	-21.62
3788.007	-23.62
3790.67	-24.62
3793.33	-28.62
3795.989	-28.62
3798.645	-30.62
3801.299	-20.62
3803.952	-22.62
3806.602	-25.62
3809.251	-25.62
3811.897	-24.62
3814.542	-28.62
3817.184	-25.62
3819.825	-26.62
3822.463	-19.62
3825.1	-26.62
3827.735	-21.62
3830.367	-23.62
3832.998	-22.62
3835.627	-27.62
3838.253	-24.62
3840.878	-29.62
3843.501	-20.62
3846.122	-25.62
3848.741	-22.62
3851.358	-25.62
3853.973	-26.62
3856.586	-22.62
3859.197	-28.62
3861.806	-28.62
3864.414	-27.62
3867.019	-24.62
3869.622	-23.62
3872.224	-26.62
3874.823	-23.62
3877.421	-24.62
3880.016	-24.62
3882.61	-19.62
3885.202	-14.62
3887.792	-14.62
3890.38	-19.62
3892.966	-25.62
3895.55	-22.62
3898.132	-26.62
3900.713	-22.62
3903.291	-25.62
3905.868	-23.62
3908.442	-27.62
3911.015	-22.62
3913.586	-25.62
3916.155	-24.62
3918.722	-27.62
3921.287	-22.62
3923.85	-27.62
3926.411	-25.62
3928.971	-25.62
3931.528	-25.62
3934.084	-26.62
3936.638	-25.62
3939.19	-28.62
3941.74	-25.62
3944.288	-27.62
3946.834	-27.62
3949.378	-27.62
3951.921	-24.62
3954.462	-23.62
3957	-25.62
3959.537	-24.62
3962.072	-25.62
3964.606	-27.62
3967.137	-24.62
3969.667	-26.62
3972.194	-27.62
3974.72	-27.62
3977.244	-20.62
3979.766	-25.62
3982.286	-21.62
3984.805	-23.62
3987.321	-24.62
3989.836	-29.62
3992.349	-26.62
3994.86	-25.62
3997.369	-25.62
3999.877	-26.62
4002.382	-27.62
4004.886	-26.62
4007.388	-27.62
4009.888	-28.62
4012.386	-27.62
4014.883	-23.62
4017.377	-23.62
4019.87	-22.62
4022.361	-21.62
4024.85	-26.62
4027.338	-26.62
4029.823	-26.62
4032.307	-25.62
4034.789	-25.62
4037.269	-24.62
4039.747	-24.62
4042.224	-23.62
4044.699	-28.62
4047.172	-28.62
4049.643	-29.62
4052.112	-27.62
4054.58	-25.62
4057.046	-22.62
4059.51	-28.62
4061.972	-22.62
4064.432	-22.62
4066.891	-26.62
4069.348	-21.62
4071.803	-26.62
4074.256	-24.62
4076.708	-23.62
4079.158	-24.62
4081.606	-24.62
4084.052	-24.62
4086.497	-23.62
4088.939	-24.62
4091.38	-26.62
4093.819	-26.62
4096.257	-25.62
4098.693	-28.62
4101.127	-27.62
4103.559	-31.62
4105.989	-13.62
4108.418	-12.62
4110.845	-9.62
4113.27	-7.62
4115.694	-10.62
4118.115	-8.62
4120.535	-21.62
4122.954	-26.62
4125.37	-24.62
4127.785	-23.62
4130.198	-21.62
4132.609	-25.62
4135.019	-27.62
4137.427	-31.62
4139.833	-23.62
4142.237	-25.62
