Data from 1000CFU1_B_RamanShift_1.txt Node
Date: Thu Feb 02 14:28:45 IST 2017
User: aro
Spectrometer: QEPB0276
Trigger mode: 0
Integration Time (sec): 5.000000E0
Scans to average: 1
Electric dark correction enabled: true
Nonlinearity correction enabled: false
Boxcar width: 0
XAxis mode: Raman Shifts
Number of Pixels in Spectrum: 1044
>>>>>Begin Spectral Data<<<<<
160.701	-4.25
166.742	1.75
172.777	22.75
178.805	76.75
184.826	195.75
190.841	383.75
196.849	596.75
202.85	725.75
208.845	774.75
214.833	757.75
220.815	751.75
226.789	738.75
232.758	734.75
238.719	722.75
244.674	712.75
250.623	691.75
256.565	666.75
262.5	658.75
268.429	645.75
274.351	633.75
280.267	632.75
286.176	625.75
292.079	616.75
297.975	603.75
303.865	597.75
309.748	598.75
315.625	600.75
321.495	583.75
327.359	601.75
333.217	589.75
339.068	601.75
344.912	611.75
350.751	623.75
356.583	613.75
362.408	622.75
368.227	618.75
374.04	605.75
379.847	611.75
385.647	600.75
391.44	603.75
397.228	601.75
403.009	600.75
408.784	613.75
414.553	619.75
420.315	621.75
426.071	629.75
431.821	624.75
437.565	635.75
443.302	626.75
449.033	626.75
454.758	609.75
460.477	607.75
466.189	604.75
471.896	589.75
477.596	589.75
483.29	582.75
488.978	580.75
494.66	570.75
500.335	557.75
506.005	525.75
511.668	521.75
517.325	500.75
522.977	472.75
528.622	455.75
534.261	453.75
539.894	439.75
545.521	434.75
551.141	423.75
556.756	419.75
562.365	411.75
567.968	411.75
573.565	413.75
579.155	407.75
584.74	405.75
590.319	404.75
595.892	403.75
601.459	404.75
607.02	389.75
612.575	392.75
618.124	388.75
623.667	381.75
629.204	377.75
634.735	372.75
640.261	369.75
645.781	377.75
651.294	372.75
656.802	360.75
662.304	359.75
667.8	353.75
673.29	349.75
678.775	357.75
684.254	354.75
689.726	348.75
695.193	342.75
700.655	344.75
706.11	343.75
711.56	346.75
717.004	343.75
722.442	345.75
727.874	346.75
733.301	331.75
738.722	337.75
744.137	339.75
749.547	333.75
754.951	328.75
760.349	326.75
765.741	331.75
771.128	331.75
776.509	332.75
781.885	339.75
787.254	342.75
792.618	333.75
797.977	341.75
803.33	338.75
808.677	334.75
814.019	330.75
819.355	342.75
824.686	323.75
830.011	338.75
835.33	335.75
840.644	338.75
845.952	335.75
851.255	347.75
856.552	340.75
861.844	345.75
867.13	360.75
872.41	358.75
877.686	347.75
882.955	352.75
888.219	345.75
893.478	328.75
898.731	335.75
903.979	323.75
909.221	311.75
914.458	314.75
919.69	307.75
924.916	311.75
930.136	303.75
935.351	309.75
940.561	295.75
945.766	298.75
950.965	295.75
956.158	304.75
961.347	300.75
966.529	287.75
971.707	276.75
976.879	274.75
982.046	266.75
987.208	273.75
992.364	276.75
997.515	280.75
1002.66	282.75
1007.801	280.75
1012.936	297.75
1018.066	298.75
1023.19	296.75
1028.309	296.75
1033.423	304.75
1038.532	305.75
1043.636	301.75
1048.734	303.75
1053.827	300.75
1058.915	307.75
1063.998	319.75
1069.075	316.75
1074.147	328.75
1079.214	326.75
1084.276	333.75
1089.333	342.75
1094.385	336.75
1099.431	322.75
1104.472	313.75
1109.509	309.75
1114.54	294.75
1119.565	291.75
1124.586	301.75
1129.602	304.75
1134.613	293.75
1139.618	286.75
1144.619	269.75
1149.614	257.75
1154.604	255.75
1159.589	252.75
1164.57	255.75
1169.545	250.75
1174.515	246.75
1179.48	239.75
1184.44	237.75
1189.395	239.75
1194.345	229.75
1199.29	230.75
1204.23	226.75
1209.165	234.75
1214.095	235.75
1219.021	238.75
1223.941	228.75
1228.856	239.75
1233.766	243.75
1238.672	249.75
1243.572	261.75
1248.467	260.75
1253.358	256.75
1258.244	260.75
1263.124	264.75
1268	265.75
1272.871	256.75
1277.737	251.75
1282.599	246.75
1287.455	246.75
1292.306	254.75
1297.153	265.75
1301.995	280.75
1306.832	281.75
1311.664	275.75
1316.491	276.75
1321.314	266.75
1326.132	241.75
1330.945	232.75
1335.753	227.75
1340.556	219.75
1345.354	221.75
1350.148	219.75
1354.937	222.75
1359.722	215.75
1364.501	204.75
1369.276	212.75
1374.046	216.75
1378.811	213.75
1383.572	209.75
1388.327	208.75
1393.079	199.75
1397.825	192.75
1402.567	194.75
1407.304	186.75
1412.036	185.75
1416.764	198.75
1421.487	202.75
1426.205	208.75
1430.919	217.75
1435.628	229.75
1440.333	257.75
1445.032	278.75
1449.727	279.75
1454.418	278.75
1459.104	273.75
1463.785	267.75
1468.462	256.75
1473.134	225.75
1477.802	210.75
1482.465	193.75
1487.123	174.75
1491.777	164.75
1496.426	161.75
1501.071	154.75
1505.711	149.75
1510.347	147.75
1514.978	161.75
1519.604	154.75
1524.226	151.75
1528.844	149.75
1533.457	144.75
1538.065	149.75
1542.669	156.75
1547.269	150.75
1551.864	154.75
1556.454	150.75
1561.041	150.75
1565.622	149.75
1570.199	141.75
1574.772	146.75
1579.34	150.75
1583.904	151.75
1588.464	153.75
1593.019	150.75
1597.569	158.75
1602.115	151.75
1606.657	162.75
1611.195	164.75
1615.728	158.75
1620.256	158.75
1624.78	166.75
1629.3	166.75
1633.816	170.75
1638.327	169.75
1642.834	166.75
1647.336	166.75
1651.834	177.75
1656.328	186.75
1660.817	189.75
1665.302	185.75
1669.783	170.75
1674.259	169.75
1678.732	169.75
1683.199	156.75
1687.663	147.75
1692.122	137.75
1696.577	139.75
1701.028	130.75
1705.474	127.75
1709.917	121.75
1714.355	116.75
1718.788	111.75
1723.218	109.75
1727.643	105.75
1732.064	105.75
1736.481	108.75
1740.893	104.75
1745.301	105.75
1749.705	106.75
1754.105	256.75
1758.501	361.75
1762.893	182.75
1767.28	168.75
1771.663	113.75
1776.042	81.75
1780.417	77.75
1784.787	77.75
1789.154	76.75
1793.516	79.75
1797.874	81.75
1802.228	82.75
1806.578	78.75
1810.924	84.75
1815.266	80.75
1819.603	69.75
1823.937	74.75
1828.266	74.75
1832.591	71.75
1836.913	66.75
1841.23	68.75
1845.543	67.75
1849.852	65.75
1854.156	68.75
1858.457	69.75
1862.754	68.75
1867.047	63.75
1871.335	66.75
1875.62	62.75
1879.9	66.75
1884.177	67.75
1888.449	61.75
1892.718	62.75
1896.982	67.75
1901.243	67.75
1905.499	63.75
1909.752	60.75
1914	59.75
1918.245	61.75
1922.485	61.75
1926.722	64.75
1930.954	62.75
1935.183	65.75
1939.408	64.75
1943.628	64.75
1947.845	61.75
1952.058	62.75
1956.267	58.75
1960.472	57.75
1964.673	59.75
1968.87	61.75
1973.063	60.75
1977.252	65.75
1981.438	52.75
1985.619	51.75
1989.797	49.75
1993.971	54.75
1998.14	55.75
2002.306	56.75
2006.469	57.75
2010.627	49.75
2014.781	58.75
2018.932	60.75
2023.078	55.75
2027.221	54.75
2031.36	49.75
2035.495	48.75
2039.627	52.75
2043.754	50.75
2047.878	53.75
2051.998	53.75
2056.114	52.75
2060.226	52.75
2064.334	49.75
2068.439	47.75
2072.54	49.75
2076.637	51.75
2080.73	51.75
2084.82	53.75
2088.906	61.75
2092.988	54.75
2097.066	52.75
2101.14	55.75
2105.211	52.75
2109.278	49.75
2113.342	51.75
2117.401	48.75
2121.457	51.75
2125.509	48.75
2129.558	53.75
2133.602	48.75
2137.643	53.75
2141.681	48.75
2145.714	45.75
2149.744	43.75
2153.77	50.75
2157.793	42.75
2161.812	49.75
2165.827	41.75
2169.838	39.75
2173.846	36.75
2177.851	41.75
2181.851	40.75
2185.848	37.75
2189.841	38.75
2193.831	40.75
2197.817	35.75
2201.799	34.75
2205.778	35.75
2209.753	33.75
2213.725	36.75
2217.693	37.75
2221.657	37.75
2225.618	30.75
2229.575	31.75
2233.529	32.75
2237.479	29.75
2241.425	32.75
2245.368	30.75
2249.307	31.75
2253.243	27.75
2257.175	30.75
2261.104	30.75
2265.029	26.75
2268.95	24.75
2272.868	27.75
2276.783	23.75
2280.694	26.75
2284.601	21.75
2288.505	22.75
2292.405	22.75
2296.302	28.75
2300.195	21.75
2304.085	22.75
2307.971	19.75
2311.854	14.75
2315.734	15.75
2319.609	16.75
2323.482	20.75
2327.351	25.75
2331.216	22.75
2335.078	23.75
2338.937	22.75
2342.792	17.75
2346.643	12.75
2350.492	17.75
2354.336	11.75
2358.178	13.75
2362.015	16.75
2365.85	17.75
2369.681	15.75
2373.508	15.75
2377.333	15.75
2381.153	19.75
2384.971	14.75
2388.785	16.75
2392.595	12.75
2396.402	10.75
2400.206	15.75
2404.007	14.75
2407.804	13.75
2411.597	14.75
2415.388	13.75
2419.174	14.75
2422.958	8.75
2426.738	6.75
2430.515	8.75
2434.289	15.75
2438.059	15.75
2441.825	8.75
2445.589	9.75
2449.349	11.75
2453.106	9.75
2456.859	6.75
2460.61	6.75
2464.356	12.75
2468.1	3.75
2471.84	9.75
2475.577	13.75
2479.311	3.75
2483.041	3.75
2486.768	8.75
2490.492	8.75
2494.213	8.75
2497.93	8.75
2501.644	7.75
2505.355	10.75
2509.062	3.75
2512.766	8.75
2516.467	7.75
2520.165	3.75
2523.859	5.75
2527.551	6.75
2531.239	8.75
2534.923	4.75
2538.605	5.75
2542.283	7.75
2545.958	10.75
2549.63	6.75
2553.299	5.75
2556.964	3.75
2560.626	8.75
2564.285	5.75
2567.941	8.75
2571.594	7.75
2575.243	9.75
2578.89	7.75
2582.533	5.75
2586.173	8.75
2589.809	5.75
2593.443	1.75
2597.073	3.75
2600.701	6.75
2604.325	9.75
2607.946	4.75
2611.564	4.75
2615.178	2.75
2618.79	5.75
2622.398	1.75
2626.004	6.75
2629.606	6.75
2633.205	7.75
2636.801	5.75
2640.394	11.75
2643.983	1.75
2647.57	1.75
2651.153	1.75
2654.734	5.75
2658.311	6.75
2661.885	9.75
2665.456	3.75
2669.025	3.75
2672.589	-1.25
2676.151	1.75
2679.71	3.75
2683.266	2.75
2686.819	4.75
2690.368	7.75
2693.915	3.75
2697.458	6.75
2700.999	-1.25
2704.536	7.75
2708.071	3.75
2711.602	0.75
2715.13	3.75
2718.656	4.75
2722.178	3.75
2725.697	2.75
2729.214	5.75
2732.727	10.75
2736.237	6.75
2739.744	9.75
2743.249	7.75
2746.75	2.75
2750.248	6.75
2753.743	5.75
2757.236	9.75
2760.725	7.75
2764.211	7.75
2767.695	7.75
2771.175	6.75
2774.652	4.75
2778.127	3.75
2781.598	3.75
2785.067	3.75
2788.532	5.75
2791.995	8.75
2795.455	7.75
2798.911	2.75
2802.365	4.75
2805.816	6.75
2809.264	10.75
2812.709	12.75
2816.151	12.75
2819.59	19.75
2823.026	16.75
2826.46	19.75
2829.89	20.75
2833.318	18.75
2836.742	25.75
2840.164	38.75
2843.583	46.75
2846.999	53.75
2850.412	65.75
2853.822	70.75
2857.229	77.75
2860.634	78.75
2864.035	74.75
2867.434	80.75
2870.83	85.75
2874.223	87.75
2877.613	92.75
2881	99.75
2884.385	109.75
2887.766	110.75
2891.145	109.75
2894.521	96.75
2897.894	100.75
2901.264	96.75
2904.631	96.75
2907.996	98.75
2911.358	101.75
2914.717	94.75
2918.073	91.75
2921.426	87.75
2924.777	92.75
2928.124	87.75
2931.469	94.75
2934.811	90.75
2938.15	86.75
2941.487	80.75
2944.821	84.75
2948.152	73.75
2951.48	70.75
2954.805	64.75
2958.128	63.75
2961.447	63.75
2964.765	54.75
2968.079	57.75
2971.39	49.75
2974.699	46.75
2978.005	46.75
2981.308	42.75
2984.609	42.75
2987.907	43.75
2991.202	42.75
2994.494	35.75
2997.784	35.75
3001.07	33.75
3004.355	39.75
3007.636	34.75
3010.915	37.75
3014.191	32.75
3017.464	31.75
3020.734	31.75
3024.002	29.75
3027.267	26.75
3030.53	29.75
3033.789	32.75
3037.046	27.75
3040.301	29.75
3043.552	32.75
3046.801	32.75
3050.048	31.75
3053.291	35.75
3056.532	40.75
3059.771	35.75
3063.006	34.75
3066.239	40.75
3069.469	41.75
3072.697	39.75
3075.922	45.75
3079.144	43.75
3082.364	42.75
3085.581	41.75
3088.795	47.75
3092.007	43.75
3095.216	53.75
3098.423	54.75
3101.627	56.75
3104.828	55.75
3108.026	54.75
3111.222	46.75
3114.416	54.75
3117.607	59.75
3120.795	59.75
3123.98	61.75
3127.163	70.75
3130.344	62.75
3133.521	71.75
3136.696	69.75
3139.869	63.75
3143.039	75.75
3146.206	80.75
3149.371	75.75
3152.533	72.75
3155.693	76.75
3158.85	73.75
3162.005	71.75
3165.157	81.75
3168.306	83.75
3171.453	80.75
3174.597	73.75
3177.739	81.75
3180.878	79.75
3184.014	85.75
3187.149	79.75
3190.28	79.75
3193.409	77.75
3196.536	79.75
3199.659	79.75
3202.781	71.75
3205.9	79.75
3209.016	83.75
3212.13	84.75
3215.241	78.75
3218.35	80.75
3221.456	79.75
3224.56	76.75
3227.661	75.75
3230.76	75.75
3233.856	73.75
3236.95	75.75
3240.041	66.75
3243.13	73.75
3246.216	68.75
3249.3	76.75
3252.382	69.75
3255.46	72.75
3258.537	72.75
3261.611	69.75
3264.682	68.75
3267.751	65.75
3270.818	70.75
3273.882	62.75
3276.943	70.75
3280.002	70.75
3283.059	69.75
3286.113	68.75
3289.165	67.75
3292.214	61.75
3295.261	58.75
3298.306	63.75
3301.348	67.75
3304.387	61.75
3307.425	60.75
3310.459	54.75
3313.492	56.75
3316.521	58.75
3319.549	60.75
3322.574	54.75
3325.597	53.75
3328.617	48.75
3331.635	47.75
3334.65	52.75
3337.663	51.75
3340.674	51.75
3343.682	55.75
3346.688	48.75
3349.691	52.75
3352.692	47.75
3355.691	47.75
3358.687	49.75
3361.681	47.75
3364.673	49.75
3367.662	51.75
3370.649	49.75
3373.633	50.75
3376.615	47.75
3379.595	44.75
3382.572	40.75
3385.547	42.75
3388.52	45.75
3391.49	42.75
3394.458	39.75
3397.424	44.75
3400.387	38.75
3403.348	35.75
3406.307	38.75
3409.263	35.75
3412.217	39.75
3415.168	37.75
3418.118	36.75
3421.065	38.75
3424.009	32.75
3426.951	35.75
3429.891	33.75
3432.829	36.75
3435.764	25.75
3438.697	31.75
3441.628	26.75
3444.557	26.75
3447.483	26.75
3450.407	30.75
3453.328	24.75
3456.247	21.75
3459.164	21.75
3462.079	19.75
3464.991	19.75
3467.902	16.75
3470.809	20.75
3473.715	21.75
3476.618	19.75
3479.519	17.75
3482.418	12.75
3485.315	12.75
3488.209	8.75
3491.101	9.75
3493.99	10.75
3496.878	15.75
3499.763	10.75
3502.646	8.75
3505.527	6.75
3508.405	12.75
3511.281	5.75
3514.155	5.75
3517.027	3.75
3519.897	4.75
3522.764	2.75
3525.629	4.75
3528.492	1.75
3531.352	3.75
3534.211	1.75
3537.067	-2.25
3539.921	-2.25
3542.773	-2.25
3545.622	-3.25
3548.469	-2.25
3551.315	-8.25
3554.157	-8.25
3556.998	-7.25
3559.837	-5.25
3562.673	-3.25
3565.507	-9.25
3568.339	-9.25
3571.169	-8.25
3573.996	-8.25
3576.822	-7.25
3579.645	-9.25
3582.466	-8.25
3585.285	-8.25
3588.101	-5.25
3590.916	-16.25
3593.728	-15.25
3596.538	-13.25
3599.346	-16.25
3602.152	-12.25
3604.956	-12.25
3607.757	-14.25
3610.556	-15.25
3613.354	-22.25
3616.149	-21.25
3618.942	-16.25
3621.732	-16.25
3624.521	-18.25
3627.307	-11.25
3630.092	-17.25
3632.874	-18.25
3635.654	-18.25
3638.432	-20.25
3641.208	-19.25
3643.982	-18.25
3646.753	-18.25
3649.523	-15.25
3652.29	-15.25
3655.055	-19.25
3657.818	-23.25
3660.579	-17.25
3663.338	-21.25
3666.095	-20.25
3668.849	-19.25
3671.602	-21.25
3674.352	-20.25
3677.101	-18.25
3679.847	-19.25
3682.591	-21.25
3685.333	-18.25
3688.073	-22.25
3690.811	-22.25
3693.547	-27.25
3696.281	-24.25
3699.013	-22.25
3701.742	-22.25
3704.47	-16.25
3707.195	-19.25
3709.919	-20.25
3712.64	-24.25
3715.359	-24.25
3718.076	-22.25
3720.792	-27.25
3723.505	-17.25
3726.216	-19.25
3728.925	-22.25
3731.632	-22.25
3734.336	-24.25
3737.039	-22.25
3739.74	-26.25
3742.439	-22.25
3745.136	-24.25
3747.83	-20.25
3750.523	-18.25
3753.213	-25.25
3755.902	-21.25
3758.589	-25.25
3761.273	-25.25
3763.956	-23.25
3766.636	-23.25
3769.315	-22.25
3771.991	-25.25
3774.665	-25.25
3777.338	-22.25
3780.008	-20.25
3782.677	-20.25
3785.343	-21.25
3788.007	-25.25
3790.67	-23.25
3793.33	-26.25
3795.989	-28.25
3798.645	-21.25
3801.299	-20.25
3803.952	-22.25
3806.602	-22.25
3809.251	-22.25
3811.897	-22.25
3814.542	-26.25
3817.184	-24.25
3819.825	-22.25
3822.463	-17.25
3825.1	-19.25
3827.735	-19.25
3830.367	-24.25
3832.998	-21.25
3835.627	-24.25
3838.253	-22.25
3840.878	-23.25
3843.501	-21.25
3846.122	-24.25
3848.741	-20.25
3851.358	-22.25
3853.973	-23.25
3856.586	-25.25
3859.197	-24.25
3861.806	-25.25
3864.414	-22.25
3867.019	-21.25
3869.622	-23.25
3872.224	-24.25
3874.823	-22.25
3877.421	-21.25
3880.016	-21.25
3882.61	-19.25
3885.202	-12.25
3887.792	-9.25
3890.38	-15.25
3892.966	-22.25
3895.55	-21.25
3898.132	-21.25
3900.713	-19.25
3903.291	-23.25
3905.868	-23.25
3908.442	-24.25
3911.015	-23.25
3913.586	-27.25
3916.155	-24.25
3918.722	-23.25
3921.287	-20.25
3923.85	-25.25
3926.411	-22.25
3928.971	-24.25
3931.528	-25.25
3934.084	-25.25
3936.638	-20.25
3939.19	-25.25
3941.74	-20.25
3944.288	-24.25
3946.834	-23.25
3949.378	-26.25
3951.921	-23.25
3954.462	-24.25
3957	-24.25
3959.537	-23.25
3962.072	-21.25
3964.606	-25.25
3967.137	-23.25
3969.667	-26.25
3972.194	-23.25
3974.72	-27.25
3977.244	-20.25
3979.766	-21.25
3982.286	-18.25
3984.805	-19.25
3987.321	-23.25
3989.836	-29.25
3992.349	-24.25
3994.86	-25.25
3997.369	-26.25
3999.877	-24.25
4002.382	-23.25
4004.886	-20.25
4007.388	-21.25
4009.888	-25.25
4012.386	-21.25
4014.883	-25.25
4017.377	-23.25
4019.87	-24.25
4022.361	-20.25
4024.85	-24.25
4027.338	-24.25
4029.823	-25.25
4032.307	-22.25
4034.789	-24.25
4037.269	-23.25
4039.747	-24.25
4042.224	-22.25
4044.699	-27.25
4047.172	-26.25
4049.643	-23.25
4052.112	-22.25
4054.58	-19.25
4057.046	-20.25
4059.51	-26.25
4061.972	-27.25
4064.432	-20.25
4066.891	-22.25
4069.348	-22.25
4071.803	-22.25
4074.256	-25.25
4076.708	-23.25
4079.158	-26.25
4081.606	-24.25
4084.052	-23.25
4086.497	-22.25
4088.939	-22.25
4091.38	-20.25
4093.819	-23.25
4096.257	-24.25
4098.693	-27.25
4101.127	-23.25
4103.559	-27.25
4105.989	-9.25
4108.418	-10.25
4110.845	-6.25
4113.27	-9.25
4115.694	-9.25
4118.115	-9.25
4120.535	-23.25
4122.954	-28.25
4125.37	-25.25
4127.785	-22.25
4130.198	-19.25
4132.609	-23.25
4135.019	-22.25
4137.427	-25.25
4139.833	-22.25
4142.237	-27.25
