Data from 1000CFU3_A_RamanShift_1.txt Node
Date: Thu Feb 02 13:50:20 IST 2017
User: aro
Spectrometer: QEPB0276
Trigger mode: 0
Integration Time (sec): 5.000000E0
Scans to average: 1
Electric dark correction enabled: true
Nonlinearity correction enabled: false
Boxcar width: 0
XAxis mode: Raman Shifts
Number of Pixels in Spectrum: 1044
>>>>>Begin Spectral Data<<<<<
160.701	-3.12
166.742	0.88
172.777	23.88
178.805	89.88
184.826	218.88
190.841	425.88
196.849	658.88
202.85	812.88
208.845	858.88
214.833	873.88
220.815	834.88
226.789	820.88
232.758	805.88
238.719	797.88
244.674	789.88
250.623	765.88
256.565	756.88
262.5	726.88
268.429	718.88
274.351	712.88
280.267	695.88
286.176	680.88
292.079	683.88
297.975	674.88
303.865	660.88
309.748	653.88
315.625	648.88
321.495	648.88
327.359	655.88
333.217	666.88
339.068	667.88
344.912	668.88
350.751	680.88
356.583	670.88
362.408	680.88
368.227	673.88
374.04	669.88
379.847	656.88
385.647	655.88
391.44	662.88
397.228	669.88
403.009	672.88
408.784	677.88
414.553	682.88
420.315	679.88
426.071	686.88
431.821	688.88
437.565	687.88
443.302	690.88
449.033	686.88
454.758	688.88
460.477	669.88
466.189	671.88
471.896	656.88
477.596	654.88
483.29	649.88
488.978	626.88
494.66	631.88
500.335	616.88
506.005	586.88
511.668	561.88
517.325	539.88
522.977	541.88
528.622	511.88
534.261	504.88
539.894	490.88
545.521	479.88
551.141	476.88
556.756	477.88
562.365	471.88
567.968	472.88
573.565	453.88
579.155	452.88
584.74	456.88
590.319	450.88
595.892	454.88
601.459	456.88
607.02	434.88
612.575	445.88
618.124	434.88
623.667	424.88
629.204	428.88
634.735	416.88
640.261	417.88
645.781	425.88
651.294	411.88
656.802	416.88
662.304	406.88
667.8	389.88
673.29	394.88
678.775	396.88
684.254	393.88
689.726	400.88
695.193	391.88
700.655	382.88
706.11	389.88
711.56	388.88
717.004	379.88
722.442	384.88
727.874	381.88
733.301	378.88
738.722	364.88
744.137	378.88
749.547	372.88
754.951	370.88
760.349	370.88
765.741	368.88
771.128	369.88
776.509	378.88
781.885	372.88
787.254	381.88
792.618	382.88
797.977	379.88
803.33	376.88
808.677	379.88
814.019	375.88
819.355	372.88
824.686	367.88
830.011	378.88
835.33	379.88
840.644	382.88
845.952	381.88
851.255	386.88
856.552	393.88
861.844	390.88
867.13	388.88
872.41	387.88
877.686	402.88
882.955	396.88
888.219	397.88
893.478	381.88
898.731	367.88
903.979	368.88
909.221	353.88
914.458	355.88
919.69	349.88
924.916	342.88
930.136	343.88
935.351	349.88
940.561	339.88
945.766	337.88
950.965	340.88
956.158	340.88
961.347	331.88
966.529	319.88
971.707	315.88
976.879	301.88
982.046	306.88
987.208	315.88
992.364	319.88
997.515	315.88
1002.66	314.88
1007.801	326.88
1012.936	331.88
1018.066	330.88
1023.19	329.88
1028.309	336.88
1033.423	344.88
1038.532	339.88
1043.636	336.88
1048.734	345.88
1053.827	341.88
1058.915	351.88
1063.998	358.88
1069.075	366.88
1074.147	371.88
1079.214	370.88
1084.276	385.88
1089.333	384.88
1094.385	369.88
1099.431	368.88
1104.472	357.88
1109.509	355.88
1114.54	350.88
1119.565	335.88
1124.586	349.88
1129.602	345.88
1134.613	332.88
1139.618	325.88
1144.619	307.88
1149.614	302.88
1154.604	290.88
1159.589	295.88
1164.57	294.88
1169.545	286.88
1174.515	275.88
1179.48	268.88
1184.44	266.88
1189.395	260.88
1194.345	266.88
1199.29	264.88
1204.23	265.88
1209.165	264.88
1214.095	269.88
1219.021	271.88
1223.941	265.88
1228.856	272.88
1233.766	274.88
1238.672	276.88
1243.572	299.88
1248.467	302.88
1253.358	297.88
1258.244	292.88
1263.124	290.88
1268	298.88
1272.871	292.88
1277.737	294.88
1282.599	288.88
1287.455	277.88
1292.306	287.88
1297.153	302.88
1301.995	321.88
1306.832	328.88
1311.664	318.88
1316.491	305.88
1321.314	294.88
1326.132	279.88
1330.945	279.88
1335.753	252.88
1340.556	256.88
1345.354	255.88
1350.148	255.88
1354.937	251.88
1359.722	237.88
1364.501	239.88
1369.276	240.88
1374.046	244.88
1378.811	233.88
1383.572	239.88
1388.327	235.88
1393.079	231.88
1397.825	223.88
1402.567	220.88
1407.304	221.88
1412.036	221.88
1416.764	214.88
1421.487	233.88
1426.205	234.88
1430.919	237.88
1435.628	263.88
1440.333	286.88
1445.032	321.88
1449.727	329.88
1454.418	317.88
1459.104	310.88
1463.785	301.88
1468.462	291.88
1473.134	260.88
1477.802	241.88
1482.465	213.88
1487.123	199.88
1491.777	183.88
1496.426	180.88
1501.071	177.88
1505.711	175.88
1510.347	182.88
1514.978	180.88
1519.604	173.88
1524.226	177.88
1528.844	170.88
1533.457	168.88
1538.065	168.88
1542.669	170.88
1547.269	175.88
1551.864	174.88
1556.454	171.88
1561.041	169.88
1565.622	166.88
1570.199	167.88
1574.772	164.88
1579.34	166.88
1583.904	171.88
1588.464	174.88
1593.019	172.88
1597.569	175.88
1602.115	177.88
1606.657	175.88
1611.195	181.88
1615.728	185.88
1620.256	181.88
1624.78	188.88
1629.3	184.88
1633.816	188.88
1638.327	186.88
1642.834	190.88
1647.336	201.88
1651.834	198.88
1656.328	208.88
1660.817	218.88
1665.302	203.88
1669.783	195.88
1674.259	203.88
1678.732	191.88
1683.199	176.88
1687.663	165.88
1692.122	160.88
1696.577	155.88
1701.028	150.88
1705.474	141.88
1709.917	144.88
1714.355	137.88
1718.788	127.88
1723.218	122.88
1727.643	126.88
1732.064	127.88
1736.481	123.88
1740.893	123.88
1745.301	123.88
1749.705	117.88
1754.105	110.88
1758.501	96.88
1762.893	98.88
1767.28	95.88
1771.663	103.88
1776.042	99.88
1780.417	96.88
1784.787	89.88
1789.154	88.88
1793.516	91.88
1797.874	88.88
1802.228	89.88
1806.578	95.88
1810.924	92.88
1815.266	89.88
1819.603	87.88
1823.937	82.88
1828.266	82.88
1832.591	78.88
1836.913	80.88
1841.23	77.88
1845.543	82.88
1849.852	75.88
1854.156	80.88
1858.457	79.88
1862.754	77.88
1867.047	76.88
1871.335	73.88
1875.62	75.88
1879.9	74.88
1884.177	74.88
1888.449	76.88
1892.718	76.88
1896.982	79.88
1901.243	71.88
1905.499	71.88
1909.752	72.88
1914	73.88
1918.245	74.88
1922.485	69.88
1926.722	78.88
1930.954	75.88
1935.183	71.88
1939.408	77.88
1943.628	69.88
1947.845	74.88
1952.058	80.88
1956.267	80.88
1960.472	71.88
1964.673	75.88
1968.87	72.88
1973.063	65.88
1977.252	63.88
1981.438	66.88
1985.619	59.88
1989.797	63.88
1993.971	67.88
1998.14	67.88
2002.306	65.88
2006.469	57.88
2010.627	59.88
2014.781	64.88
2018.932	66.88
2023.078	63.88
2027.221	64.88
2031.36	63.88
2035.495	60.88
2039.627	58.88
2043.754	59.88
2047.878	57.88
2051.998	57.88
2056.114	62.88
2060.226	62.88
2064.334	62.88
2068.439	59.88
2072.54	59.88
2076.637	60.88
2080.73	61.88
2084.82	64.88
2088.906	66.88
2092.988	66.88
2097.066	61.88
2101.14	62.88
2105.211	56.88
2109.278	56.88
2113.342	57.88
2117.401	55.88
2121.457	59.88
2125.509	55.88
2129.558	60.88
2133.602	52.88
2137.643	59.88
2141.681	52.88
2145.714	54.88
2149.744	53.88
2153.77	55.88
2157.793	49.88
2161.812	53.88
2165.827	50.88
2169.838	50.88
2173.846	49.88
2177.851	49.88
2181.851	48.88
2185.848	44.88
2189.841	43.88
2193.831	43.88
2197.817	41.88
2201.799	48.88
2205.778	43.88
2209.753	39.88
2213.725	39.88
2217.693	42.88
2221.657	39.88
2225.618	37.88
2229.575	40.88
2233.529	38.88
2237.479	42.88
2241.425	38.88
2245.368	38.88
2249.307	40.88
2253.243	36.88
2257.175	33.88
2261.104	32.88
2265.029	39.88
2268.95	37.88
2272.868	31.88
2276.783	27.88
2280.694	34.88
2284.601	26.88
2288.505	27.88
2292.405	23.88
2296.302	30.88
2300.195	29.88
2304.085	31.88
2307.971	24.88
2311.854	20.88
2315.734	23.88
2319.609	20.88
2323.482	26.88
2327.351	26.88
2331.216	29.88
2335.078	30.88
2338.937	31.88
2342.792	26.88
2346.643	16.88
2350.492	19.88
2354.336	16.88
2358.178	20.88
2362.015	18.88
2365.85	18.88
2369.681	21.88
2373.508	19.88
2377.333	21.88
2381.153	18.88
2384.971	13.88
2388.785	19.88
2392.595	17.88
2396.402	15.88
2400.206	20.88
2404.007	18.88
2407.804	15.88
2411.597	17.88
2415.388	8.88
2419.174	12.88
2422.958	15.88
2426.738	15.88
2430.515	12.88
2434.289	15.88
2438.059	17.88
2441.825	10.88
2445.589	11.88
2449.349	9.88
2453.106	8.88
2456.859	12.88
2460.61	9.88
2464.356	14.88
2468.1	10.88
2471.84	15.88
2475.577	10.88
2479.311	6.88
2483.041	10.88
2486.768	12.88
2490.492	12.88
2494.213	13.88
2497.93	9.88
2501.644	7.88
2505.355	7.88
2509.062	9.88
2512.766	10.88
2516.467	12.88
2520.165	10.88
2523.859	14.88
2527.551	12.88
2531.239	10.88
2534.923	5.88
2538.605	6.88
2542.283	3.88
2545.958	10.88
2549.63	11.88
2553.299	11.88
2556.964	10.88
2560.626	9.88
2564.285	8.88
2567.941	3.88
2571.594	8.88
2575.243	8.88
2578.89	15.88
2582.533	7.88
2586.173	9.88
2589.809	6.88
2593.443	5.88
2597.073	5.88
2600.701	8.88
2604.325	7.88
2607.946	12.88
2611.564	7.88
2615.178	9.88
2618.79	6.88
2622.398	6.88
2626.004	4.88
2629.606	11.88
2633.205	6.88
2636.801	10.88
2640.394	7.88
2643.983	7.88
2647.57	4.88
2651.153	3.88
2654.734	1.88
2658.311	6.88
2661.885	8.88
2665.456	5.88
2669.025	5.88
2672.589	1.88
2676.151	3.88
2679.71	3.88
2683.266	8.88
2686.819	1.88
2690.368	7.88
2693.915	7.88
2697.458	7.88
2700.999	4.88
2704.536	9.88
2708.071	5.88
2711.602	5.88
2715.13	5.88
2718.656	7.88
2722.178	9.88
2725.697	9.88
2729.214	9.88
2732.727	10.88
2736.237	9.88
2739.744	9.88
2743.249	7.88
2746.75	8.88
2750.248	10.88
2753.743	9.88
2757.236	6.88
2760.725	7.88
2764.211	11.88
2767.695	2.88
2771.175	8.88
2774.652	7.88
2778.127	7.88
2781.598	7.88
2785.067	4.88
2788.532	6.88
2791.995	10.88
2795.455	7.88
2798.911	5.88
2802.365	8.88
2805.816	14.88
2809.264	13.88
2812.709	16.88
2816.151	15.88
2819.59	14.88
2823.026	14.88
2826.46	23.88
2829.89	25.88
2833.318	27.88
2836.742	32.88
2840.164	42.88
2843.583	49.88
2846.999	62.88
2850.412	77.88
2853.822	84.88
2857.229	94.88
2860.634	102.88
2864.035	97.88
2867.434	101.88
2870.83	100.88
2874.223	102.88
2877.613	98.88
2881	114.88
2884.385	123.88
2887.766	128.88
2891.145	122.88
2894.521	124.88
2897.894	118.88
2901.264	110.88
2904.631	109.88
2907.996	113.88
2911.358	106.88
2914.717	113.88
2918.073	108.88
2921.426	109.88
2924.777	105.88
2928.124	104.88
2931.469	103.88
2934.811	105.88
2938.15	104.88
2941.487	105.88
2944.821	101.88
2948.152	90.88
2951.48	79.88
2954.805	77.88
2958.128	75.88
2961.447	69.88
2964.765	70.88
2968.079	65.88
2971.39	62.88
2974.699	62.88
2978.005	51.88
2981.308	54.88
2984.609	50.88
2987.907	47.88
2991.202	45.88
2994.494	44.88
2997.784	43.88
3001.07	44.88
3004.355	45.88
3007.636	39.88
3010.915	42.88
3014.191	42.88
3017.464	39.88
3020.734	36.88
3024.002	43.88
3027.267	35.88
3030.53	33.88
3033.789	37.88
3037.046	33.88
3040.301	31.88
3043.552	32.88
3046.801	40.88
3050.048	38.88
3053.291	44.88
3056.532	41.88
3059.771	39.88
3063.006	40.88
3066.239	45.88
3069.469	47.88
3072.697	48.88
3075.922	55.88
3079.144	53.88
3082.364	52.88
3085.581	52.88
3088.795	53.88
3092.007	51.88
3095.216	60.88
3098.423	57.88
3101.627	64.88
3104.828	66.88
3108.026	62.88
3111.222	61.88
3114.416	62.88
3117.607	67.88
3120.795	71.88
3123.98	75.88
3127.163	84.88
3130.344	73.88
3133.521	76.88
3136.696	77.88
3139.869	78.88
3143.039	85.88
3146.206	85.88
3149.371	90.88
3152.533	87.88
3155.693	87.88
3158.85	90.88
3162.005	86.88
3165.157	92.88
3168.306	93.88
3171.453	94.88
3174.597	88.88
3177.739	87.88
3180.878	91.88
3184.014	86.88
3187.149	89.88
3190.28	91.88
3193.409	96.88
3196.536	94.88
3199.659	96.88
3202.781	89.88
3205.9	92.88
3209.016	93.88
3212.13	98.88
3215.241	94.88
3218.35	91.88
3221.456	87.88
3224.56	86.88
3227.661	85.88
3230.76	86.88
3233.856	87.88
3236.95	80.88
3240.041	81.88
3243.13	79.88
3246.216	80.88
3249.3	85.88
3252.382	80.88
3255.46	84.88
3258.537	86.88
3261.611	83.88
3264.682	81.88
3267.751	75.88
3270.818	78.88
3273.882	77.88
3276.943	82.88
3280.002	85.88
3283.059	82.88
3286.113	83.88
3289.165	73.88
3292.214	68.88
3295.261	70.88
3298.306	73.88
3301.348	68.88
3304.387	69.88
3307.425	71.88
3310.459	66.88
3313.492	66.88
3316.521	62.88
3319.549	60.88
3322.574	60.88
3325.597	64.88
3328.617	69.88
3331.635	59.88
3334.65	61.88
3337.663	56.88
3340.674	62.88
3343.682	62.88
3346.688	63.88
3349.691	55.88
3352.692	55.88
3355.691	57.88
3358.687	59.88
3361.681	58.88
3364.673	58.88
3367.662	56.88
3370.649	59.88
3373.633	55.88
3376.615	51.88
3379.595	44.88
3382.572	48.88
3385.547	48.88
3388.52	50.88
3391.49	50.88
3394.458	47.88
3397.424	43.88
3400.387	43.88
3403.348	43.88
3406.307	45.88
3409.263	43.88
3412.217	43.88
3415.168	47.88
3418.118	42.88
3421.065	43.88
3424.009	41.88
3426.951	42.88
3429.891	38.88
3432.829	40.88
3435.764	38.88
3438.697	35.88
3441.628	30.88
3444.557	32.88
3447.483	30.88
3450.407	33.88
3453.328	32.88
3456.247	27.88
3459.164	27.88
3462.079	25.88
3464.991	26.88
3467.902	25.88
3470.809	27.88
3473.715	19.88
3476.618	20.88
3479.519	12.88
3482.418	15.88
3485.315	17.88
3488.209	14.88
3491.101	13.88
3493.99	18.88
3496.878	12.88
3499.763	11.88
3502.646	6.88
3505.527	4.88
3508.405	8.88
3511.281	7.88
3514.155	6.88
3517.027	6.88
3519.897	5.88
3522.764	2.88
3525.629	3.88
3528.492	0.88
3531.352	-2.12
3534.211	3.88
3537.067	3.88
3539.921	-0.12
3542.773	-6.12
3545.622	-2.12
3548.469	-5.12
3551.315	-8.12
3554.157	-8.12
3556.998	-3.12
3559.837	-5.12
3562.673	-6.12
3565.507	-9.12
3568.339	-8.12
3571.169	-12.12
3573.996	-12.12
3576.822	-13.12
3579.645	-11.12
3582.466	-2.12
3585.285	-9.12
3588.101	-9.12
3590.916	-17.12
3593.728	-15.12
3596.538	-17.12
3599.346	-18.12
3602.152	-11.12
3604.956	-13.12
3607.757	-14.12
3610.556	-15.12
3613.354	-14.12
3616.149	-20.12
3618.942	-16.12
3621.732	-18.12
3624.521	-17.12
3627.307	-15.12
3630.092	-18.12
3632.874	-19.12
3635.654	-18.12
3638.432	-22.12
3641.208	-19.12
3643.982	-20.12
3646.753	-18.12
3649.523	-19.12
3652.29	-16.12
3655.055	-17.12
3657.818	-22.12
3660.579	-21.12
3663.338	-23.12
3666.095	-18.12
3668.849	-16.12
3671.602	-19.12
3674.352	-23.12
3677.101	-19.12
3679.847	-19.12
3682.591	-21.12
3685.333	-19.12
3688.073	-23.12
3690.811	-24.12
3693.547	-29.12
3696.281	-21.12
3699.013	-20.12
3701.742	-23.12
3704.47	-19.12
3707.195	-21.12
3709.919	-22.12
3712.64	-29.12
3715.359	-28.12
3718.076	-21.12
3720.792	-26.12
3723.505	-18.12
3726.216	-21.12
3728.925	-24.12
3731.632	-25.12
3734.336	-28.12
3737.039	-26.12
3739.74	-28.12
3742.439	-21.12
3745.136	-23.12
3747.83	-19.12
3750.523	-20.12
3753.213	-26.12
3755.902	-27.12
3758.589	-29.12
3761.273	-27.12
3763.956	-27.12
3766.636	-24.12
3769.315	-23.12
3771.991	-23.12
3774.665	-26.12
3777.338	-25.12
3780.008	-25.12
3782.677	-23.12
3785.343	-24.12
3788.007	-24.12
3790.67	-23.12
3793.33	-25.12
3795.989	-27.12
3798.645	-26.12
3801.299	-27.12
3803.952	-25.12
3806.602	-26.12
3809.251	-23.12
3811.897	-22.12
3814.542	-24.12
3817.184	-24.12
3819.825	-25.12
3822.463	-20.12
3825.1	-25.12
3827.735	-24.12
3830.367	-24.12
3832.998	-24.12
3835.627	-25.12
3838.253	-20.12
3840.878	-26.12
3843.501	-25.12
3846.122	-28.12
3848.741	-24.12
3851.358	-23.12
3853.973	-24.12
3856.586	-21.12
3859.197	-27.12
3861.806	-24.12
3864.414	-25.12
3867.019	-25.12
3869.622	-30.12
3872.224	-27.12
3874.823	-25.12
3877.421	-20.12
3880.016	-20.12
3882.61	-19.12
3885.202	-15.12
3887.792	-15.12
3890.38	-23.12
3892.966	-24.12
3895.55	-23.12
3898.132	-22.12
3900.713	-22.12
3903.291	-22.12
3905.868	-24.12
3908.442	-29.12
3911.015	-28.12
3913.586	-29.12
3916.155	-25.12
3918.722	-26.12
3921.287	-21.12
3923.85	-23.12
3926.411	-28.12
3928.971	-24.12
3931.528	-29.12
3934.084	-30.12
3936.638	-24.12
3939.19	-24.12
3941.74	-21.12
3944.288	-27.12
3946.834	-25.12
3949.378	-28.12
3951.921	-24.12
3954.462	-21.12
3957	-23.12
3959.537	-24.12
3962.072	-23.12
3964.606	-25.12
3967.137	-27.12
3969.667	-28.12
3972.194	-28.12
3974.72	-28.12
3977.244	-21.12
3979.766	-23.12
3982.286	-21.12
3984.805	-23.12
3987.321	-27.12
3989.836	-31.12
3992.349	-28.12
3994.86	-22.12
3997.369	-24.12
3999.877	-24.12
4002.382	-25.12
4004.886	-23.12
4007.388	-26.12
4009.888	-25.12
4012.386	-26.12
4014.883	-24.12
4017.377	-25.12
4019.87	-22.12
4022.361	-21.12
4024.85	-28.12
4027.338	-25.12
4029.823	-27.12
4032.307	-28.12
4034.789	-25.12
4037.269	-25.12
4039.747	-23.12
4042.224	-25.12
4044.699	-32.12
4047.172	-29.12
4049.643	-27.12
4052.112	-27.12
4054.58	-23.12
4057.046	-22.12
4059.51	-27.12
4061.972	-25.12
4064.432	-23.12
4066.891	-25.12
4069.348	-24.12
4071.803	-26.12
4074.256	-25.12
4076.708	-24.12
4079.158	-23.12
4081.606	-24.12
4084.052	-21.12
4086.497	-24.12
4088.939	-25.12
4091.38	-26.12
4093.819	-27.12
4096.257	-25.12
4098.693	-29.12
4101.127	-28.12
4103.559	-26.12
4105.989	-9.12
4108.418	-12.12
4110.845	-8.12
4113.27	-7.12
4115.694	-10.12
4118.115	-11.12
4120.535	-24.12
4122.954	-25.12
4125.37	-24.12
4127.785	-21.12
4130.198	-23.12
4132.609	-26.12
4135.019	-30.12
4137.427	-30.12
4139.833	-24.12
4142.237	-27.12
