Data from 1000CFU2_B_RamanShift_1.txt Node
Date: Thu Feb 02 14:30:05 IST 2017
User: aro
Spectrometer: QEPB0276
Trigger mode: 0
Integration Time (sec): 5.000000E0
Scans to average: 1
Electric dark correction enabled: true
Nonlinearity correction enabled: false
Boxcar width: 0
XAxis mode: Raman Shifts
Number of Pixels in Spectrum: 1044
>>>>>Begin Spectral Data<<<<<
160.701	-8.12
166.742	-0.12
172.777	24.88
178.805	89.88
184.826	214.88
190.841	420.88
196.849	673.88
202.85	803.88
208.845	856.88
214.833	859.88
220.815	817.88
226.789	829.88
232.758	818.88
238.719	814.88
244.674	789.88
250.623	790.88
256.565	760.88
262.5	746.88
268.429	726.88
274.351	714.88
280.267	705.88
286.176	702.88
292.079	686.88
297.975	685.88
303.865	683.88
309.748	673.88
315.625	679.88
321.495	681.88
327.359	672.88
333.217	679.88
339.068	688.88
344.912	681.88
350.751	690.88
356.583	695.88
362.408	690.88
368.227	688.88
374.04	677.88
379.847	671.88
385.647	679.88
391.44	675.88
397.228	674.88
403.009	689.88
408.784	683.88
414.553	691.88
420.315	710.88
426.071	715.88
431.821	710.88
437.565	704.88
443.302	703.88
449.033	692.88
454.758	689.88
460.477	684.88
466.189	682.88
471.896	661.88
477.596	671.88
483.29	654.88
488.978	655.88
494.66	638.88
500.335	632.88
506.005	600.88
511.668	584.88
517.325	568.88
522.977	556.88
528.622	525.88
534.261	515.88
539.894	506.88
545.521	498.88
551.141	494.88
556.756	484.88
562.365	474.88
567.968	487.88
573.565	470.88
579.155	474.88
584.74	472.88
590.319	461.88
595.892	465.88
601.459	466.88
607.02	461.88
612.575	462.88
618.124	445.88
623.667	451.88
629.204	443.88
634.735	444.88
640.261	430.88
645.781	438.88
651.294	426.88
656.802	425.88
662.304	419.88
667.8	423.88
673.29	407.88
678.775	421.88
684.254	415.88
689.726	409.88
695.193	406.88
700.655	396.88
706.11	400.88
711.56	406.88
717.004	394.88
722.442	405.88
727.874	396.88
733.301	400.88
738.722	390.88
744.137	390.88
749.547	399.88
754.951	387.88
760.349	397.88
765.741	391.88
771.128	381.88
776.509	393.88
781.885	388.88
787.254	395.88
792.618	395.88
797.977	393.88
803.33	395.88
808.677	383.88
814.019	391.88
819.355	384.88
824.686	379.88
830.011	384.88
835.33	398.88
840.644	394.88
845.952	395.88
851.255	412.88
856.552	401.88
861.844	406.88
867.13	403.88
872.41	409.88
877.686	406.88
882.955	414.88
888.219	401.88
893.478	394.88
898.731	381.88
903.979	376.88
909.221	364.88
914.458	368.88
919.69	368.88
924.916	359.88
930.136	360.88
935.351	350.88
940.561	357.88
945.766	355.88
950.965	349.88
956.158	350.88
961.347	340.88
966.529	330.88
971.707	325.88
976.879	328.88
982.046	314.88
987.208	327.88
992.364	323.88
997.515	326.88
1002.66	339.88
1007.801	345.88
1012.936	344.88
1018.066	348.88
1023.19	348.88
1028.309	356.88
1033.423	362.88
1038.532	357.88
1043.636	355.88
1048.734	357.88
1053.827	351.88
1058.915	363.88
1063.998	367.88
1069.075	388.88
1074.147	391.88
1079.214	382.88
1084.276	390.88
1089.333	403.88
1094.385	392.88
1099.431	390.88
1104.472	374.88
1109.509	364.88
1114.54	352.88
1119.565	349.88
1124.586	361.88
1129.602	357.88
1134.613	351.88
1139.618	337.88
1144.619	319.88
1149.614	305.88
1154.604	299.88
1159.589	301.88
1164.57	311.88
1169.545	296.88
1174.515	282.88
1179.48	284.88
1184.44	276.88
1189.395	274.88
1194.345	274.88
1199.29	275.88
1204.23	275.88
1209.165	269.88
1214.095	287.88
1219.021	273.88
1223.941	282.88
1228.856	284.88
1233.766	280.88
1238.672	293.88
1243.572	303.88
1248.467	304.88
1253.358	303.88
1258.244	313.88
1263.124	308.88
1268	302.88
1272.871	308.88
1277.737	300.88
1282.599	288.88
1287.455	290.88
1292.306	297.88
1297.153	320.88
1301.995	325.88
1306.832	335.88
1311.664	326.88
1316.491	317.88
1321.314	304.88
1326.132	295.88
1330.945	282.88
1335.753	270.88
1340.556	267.88
1345.354	264.88
1350.148	256.88
1354.937	260.88
1359.722	249.88
1364.501	246.88
1369.276	243.88
1374.046	247.88
1378.811	250.88
1383.572	249.88
1388.327	247.88
1393.079	237.88
1397.825	232.88
1402.567	229.88
1407.304	231.88
1412.036	221.88
1416.764	234.88
1421.487	241.88
1426.205	241.88
1430.919	252.88
1435.628	267.88
1440.333	293.88
1445.032	320.88
1449.727	336.88
1454.418	326.88
1459.104	312.88
1463.785	314.88
1468.462	285.88
1473.134	266.88
1477.802	245.88
1482.465	220.88
1487.123	207.88
1491.777	189.88
1496.426	190.88
1501.071	186.88
1505.711	180.88
1510.347	183.88
1514.978	179.88
1519.604	174.88
1524.226	175.88
1528.844	177.88
1533.457	177.88
1538.065	181.88
1542.669	176.88
1547.269	176.88
1551.864	178.88
1556.454	171.88
1561.041	172.88
1565.622	174.88
1570.199	171.88
1574.772	176.88
1579.34	173.88
1583.904	174.88
1588.464	178.88
1593.019	178.88
1597.569	183.88
1602.115	183.88
1606.657	185.88
1611.195	187.88
1615.728	186.88
1620.256	182.88
1624.78	185.88
1629.3	184.88
1633.816	193.88
1638.327	189.88
1642.834	193.88
1647.336	204.88
1651.834	217.88
1656.328	219.88
1660.817	216.88
1665.302	212.88
1669.783	206.88
1674.259	199.88
1678.732	191.88
1683.199	188.88
1687.663	174.88
1692.122	162.88
1696.577	162.88
1701.028	159.88
1705.474	149.88
1709.917	139.88
1714.355	142.88
1718.788	132.88
1723.218	135.88
1727.643	130.88
1732.064	126.88
1736.481	127.88
1740.893	121.88
1745.301	118.88
1749.705	117.88
1754.105	112.88
1758.501	102.88
1762.893	103.88
1767.28	102.88
1771.663	96.88
1776.042	101.88
1780.417	94.88
1784.787	90.88
1789.154	92.88
1793.516	93.88
1797.874	100.88
1802.228	98.88
1806.578	100.88
1810.924	91.88
1815.266	93.88
1819.603	87.88
1823.937	85.88
1828.266	82.88
1832.591	83.88
1836.913	83.88
1841.23	84.88
1845.543	82.88
1849.852	82.88
1854.156	80.88
1858.457	81.88
1862.754	74.88
1867.047	81.88
1871.335	75.88
1875.62	81.88
1879.9	80.88
1884.177	80.88
1888.449	80.88
1892.718	75.88
1896.982	76.88
1901.243	76.88
1905.499	77.88
1909.752	79.88
1914	77.88
1918.245	76.88
1922.485	69.88
1926.722	78.88
1930.954	73.88
1935.183	74.88
1939.408	73.88
1943.628	75.88
1947.845	77.88
1952.058	77.88
1956.267	75.88
1960.472	72.88
1964.673	74.88
1968.87	71.88
1973.063	69.88
1977.252	69.88
1981.438	67.88
1985.619	67.88
1989.797	65.88
1993.971	70.88
1998.14	64.88
2002.306	64.88
2006.469	64.88
2010.627	62.88
2014.781	67.88
2018.932	69.88
2023.078	65.88
2027.221	68.88
2031.36	64.88
2035.495	57.88
2039.627	58.88
2043.754	62.88
2047.878	59.88
2051.998	62.88
2056.114	63.88
2060.226	59.88
2064.334	61.88
2068.439	56.88
2072.54	62.88
2076.637	64.88
2080.73	65.88
2084.82	66.88
2088.906	70.88
2092.988	65.88
2097.066	61.88
2101.14	69.88
2105.211	58.88
2109.278	55.88
2113.342	60.88
2117.401	56.88
2121.457	64.88
2125.509	61.88
2129.558	59.88
2133.602	59.88
2137.643	59.88
2141.681	54.88
2145.714	52.88
2149.744	53.88
2153.77	52.88
2157.793	54.88
2161.812	55.88
2165.827	44.88
2169.838	52.88
2173.846	50.88
2177.851	42.88
2181.851	49.88
2185.848	45.88
2189.841	47.88
2193.831	48.88
2197.817	42.88
2201.799	47.88
2205.778	46.88
2209.753	43.88
2213.725	36.88
2217.693	45.88
2221.657	41.88
2225.618	38.88
2229.575	41.88
2233.529	40.88
2237.479	40.88
2241.425	40.88
2245.368	35.88
2249.307	37.88
2253.243	32.88
2257.175	32.88
2261.104	37.88
2265.029	33.88
2268.95	34.88
2272.868	31.88
2276.783	30.88
2280.694	33.88
2284.601	28.88
2288.505	26.88
2292.405	27.88
2296.302	30.88
2300.195	31.88
2304.085	30.88
2307.971	26.88
2311.854	24.88
2315.734	25.88
2319.609	20.88
2323.482	25.88
2327.351	29.88
2331.216	30.88
2335.078	30.88
2338.937	25.88
2342.792	20.88
2346.643	20.88
2350.492	22.88
2354.336	17.88
2358.178	13.88
2362.015	17.88
2365.85	18.88
2369.681	20.88
2373.508	19.88
2377.333	19.88
2381.153	21.88
2384.971	19.88
2388.785	17.88
2392.595	17.88
2396.402	15.88
2400.206	17.88
2404.007	17.88
2407.804	16.88
2411.597	15.88
2415.388	12.88
2419.174	13.88
2422.958	10.88
2426.738	17.88
2430.515	14.88
2434.289	16.88
2438.059	14.88
2441.825	12.88
2445.589	12.88
2449.349	12.88
2453.106	6.88
2456.859	11.88
2460.61	11.88
2464.356	14.88
2468.1	13.88
2471.84	15.88
2475.577	12.88
2479.311	7.88
2483.041	7.88
2486.768	10.88
2490.492	9.88
2494.213	12.88
2497.93	13.88
2501.644	10.88
2505.355	9.88
2509.062	8.88
2512.766	9.88
2516.467	11.88
2520.165	4.88
2523.859	10.88
2527.551	8.88
2531.239	11.88
2534.923	5.88
2538.605	7.88
2542.283	5.88
2545.958	9.88
2549.63	6.88
2553.299	13.88
2556.964	7.88
2560.626	12.88
2564.285	9.88
2567.941	8.88
2571.594	13.88
2575.243	8.88
2578.89	10.88
2582.533	7.88
2586.173	5.88
2589.809	10.88
2593.443	10.88
2597.073	6.88
2600.701	10.88
2604.325	6.88
2607.946	10.88
2611.564	9.88
2615.178	10.88
2618.79	9.88
2622.398	7.88
2626.004	9.88
2629.606	11.88
2633.205	10.88
2636.801	4.88
2640.394	10.88
2643.983	8.88
2647.57	4.88
2651.153	3.88
2654.734	4.88
2658.311	9.88
2661.885	10.88
2665.456	6.88
2669.025	9.88
2672.589	1.88
2676.151	4.88
2679.71	6.88
2683.266	8.88
2686.819	4.88
2690.368	6.88
2693.915	6.88
2697.458	8.88
2700.999	4.88
2704.536	6.88
2708.071	5.88
2711.602	5.88
2715.13	1.88
2718.656	6.88
2722.178	7.88
2725.697	7.88
2729.214	10.88
2732.727	11.88
2736.237	11.88
2739.744	12.88
2743.249	10.88
2746.75	4.88
2750.248	5.88
2753.743	8.88
2757.236	8.88
2760.725	6.88
2764.211	7.88
2767.695	7.88
2771.175	12.88
2774.652	2.88
2778.127	6.88
2781.598	5.88
2785.067	3.88
2788.532	9.88
2791.995	9.88
2795.455	5.88
2798.911	7.88
2802.365	8.88
2805.816	7.88
2809.264	10.88
2812.709	16.88
2816.151	17.88
2819.59	18.88
2823.026	19.88
2826.46	23.88
2829.89	27.88
2833.318	21.88
2836.742	28.88
2840.164	37.88
2843.583	51.88
2846.999	58.88
2850.412	73.88
2853.822	85.88
2857.229	92.88
2860.634	99.88
2864.035	89.88
2867.434	92.88
2870.83	92.88
2874.223	102.88
2877.613	100.88
2881	109.88
2884.385	119.88
2887.766	124.88
2891.145	126.88
2894.521	124.88
2897.894	111.88
2901.264	108.88
2904.631	112.88
2907.996	110.88
2911.358	106.88
2914.717	111.88
2918.073	111.88
2921.426	104.88
2924.777	105.88
2928.124	101.88
2931.469	99.88
2934.811	92.88
2938.15	99.88
2941.487	97.88
2944.821	93.88
2948.152	87.88
2951.48	82.88
2954.805	76.88
2958.128	70.88
2961.447	74.88
2964.765	67.88
2968.079	61.88
2971.39	58.88
2974.699	61.88
2978.005	56.88
2981.308	50.88
2984.609	48.88
2987.907	48.88
2991.202	46.88
2994.494	42.88
2997.784	40.88
3001.07	39.88
3004.355	39.88
3007.636	38.88
3010.915	44.88
3014.191	36.88
3017.464	35.88
3020.734	30.88
3024.002	29.88
3027.267	29.88
3030.53	37.88
3033.789	40.88
3037.046	31.88
3040.301	32.88
3043.552	31.88
3046.801	27.88
3050.048	34.88
3053.291	39.88
3056.532	40.88
3059.771	38.88
3063.006	42.88
3066.239	40.88
3069.469	44.88
3072.697	43.88
3075.922	44.88
3079.144	44.88
3082.364	49.88
3085.581	46.88
3088.795	50.88
3092.007	54.88
3095.216	56.88
3098.423	58.88
3101.627	60.88
3104.828	57.88
3108.026	59.88
3111.222	63.88
3114.416	60.88
3117.607	64.88
3120.795	73.88
3123.98	67.88
3127.163	76.88
3130.344	72.88
3133.521	70.88
3136.696	75.88
3139.869	74.88
3143.039	81.88
3146.206	87.88
3149.371	83.88
3152.533	84.88
3155.693	77.88
3158.85	80.88
3162.005	81.88
3165.157	86.88
3168.306	95.88
3171.453	89.88
3174.597	85.88
3177.739	86.88
3180.878	81.88
3184.014	90.88
3187.149	78.88
3190.28	87.88
3193.409	89.88
3196.536	92.88
3199.659	87.88
3202.781	85.88
3205.9	87.88
3209.016	89.88
3212.13	88.88
3215.241	86.88
3218.35	81.88
3221.456	87.88
3224.56	81.88
3227.661	86.88
3230.76	84.88
3233.856	80.88
3236.95	75.88
3240.041	76.88
3243.13	77.88
3246.216	78.88
3249.3	77.88
3252.382	78.88
3255.46	77.88
3258.537	80.88
3261.611	73.88
3264.682	74.88
3267.751	74.88
3270.818	70.88
3273.882	70.88
3276.943	78.88
3280.002	75.88
3283.059	78.88
3286.113	74.88
3289.165	69.88
3292.214	65.88
3295.261	67.88
3298.306	65.88
3301.348	69.88
3304.387	61.88
3307.425	64.88
3310.459	64.88
3313.492	59.88
3316.521	57.88
3319.549	57.88
3322.574	57.88
3325.597	58.88
3328.617	62.88
3331.635	59.88
3334.65	58.88
3337.663	52.88
3340.674	54.88
3343.682	62.88
3346.688	52.88
3349.691	57.88
3352.692	55.88
3355.691	52.88
3358.687	53.88
3361.681	56.88
3364.673	53.88
3367.662	55.88
3370.649	55.88
3373.633	50.88
3376.615	48.88
3379.595	47.88
3382.572	49.88
3385.547	47.88
3388.52	45.88
3391.49	47.88
3394.458	44.88
3397.424	42.88
3400.387	38.88
3403.348	44.88
3406.307	40.88
3409.263	41.88
3412.217	45.88
3415.168	42.88
3418.118	39.88
3421.065	38.88
3424.009	30.88
3426.951	34.88
3429.891	42.88
3432.829	33.88
3435.764	33.88
3438.697	40.88
3441.628	29.88
3444.557	27.88
3447.483	26.88
3450.407	31.88
3453.328	25.88
3456.247	26.88
3459.164	26.88
3462.079	23.88
3464.991	23.88
3467.902	15.88
3470.809	19.88
3473.715	19.88
3476.618	19.88
3479.519	13.88
3482.418	12.88
3485.315	12.88
3488.209	7.88
3491.101	7.88
3493.99	11.88
3496.878	10.88
3499.763	10.88
3502.646	8.88
3505.527	8.88
3508.405	6.88
3511.281	5.88
3514.155	5.88
3517.027	2.88
3519.897	4.88
3522.764	-0.12
3525.629	-0.12
3528.492	-0.12
3531.352	-0.12
3534.211	-1.12
3537.067	-6.12
3539.921	-3.12
3542.773	-6.12
3545.622	-4.12
3548.469	-7.12
3551.315	-7.12
3554.157	-5.12
3556.998	-6.12
3559.837	-5.12
3562.673	-6.12
3565.507	-13.12
3568.339	-12.12
3571.169	-11.12
3573.996	-12.12
3576.822	-10.12
3579.645	-10.12
3582.466	-9.12
3585.285	-11.12
3588.101	-13.12
3590.916	-19.12
3593.728	-17.12
3596.538	-16.12
3599.346	-14.12
3602.152	-14.12
3604.956	-12.12
3607.757	-14.12
3610.556	-16.12
3613.354	-19.12
3616.149	-21.12
3618.942	-15.12
3621.732	-19.12
3624.521	-20.12
3627.307	-13.12
3630.092	-19.12
3632.874	-17.12
3635.654	-18.12
3638.432	-21.12
3641.208	-21.12
3643.982	-21.12
3646.753	-17.12
3649.523	-16.12
3652.29	-22.12
3655.055	-23.12
3657.818	-28.12
3660.579	-22.12
3663.338	-22.12
3666.095	-22.12
3668.849	-20.12
3671.602	-17.12
3674.352	-22.12
3677.101	-19.12
3679.847	-26.12
3682.591	-23.12
3685.333	-26.12
3688.073	-24.12
3690.811	-22.12
3693.547	-25.12
3696.281	-22.12
3699.013	-21.12
3701.742	-23.12
3704.47	-22.12
3707.195	-22.12
3709.919	-26.12
3712.64	-31.12
3715.359	-24.12
3718.076	-21.12
3720.792	-24.12
3723.505	-21.12
3726.216	-21.12
3728.925	-24.12
3731.632	-27.12
3734.336	-29.12
3737.039	-27.12
3739.74	-26.12
3742.439	-25.12
3745.136	-22.12
3747.83	-21.12
3750.523	-23.12
3753.213	-26.12
3755.902	-28.12
3758.589	-30.12
3761.273	-28.12
3763.956	-24.12
3766.636	-22.12
3769.315	-21.12
3771.991	-28.12
3774.665	-27.12
3777.338	-26.12
3780.008	-27.12
3782.677	-28.12
3785.343	-25.12
3788.007	-24.12
3790.67	-27.12
3793.33	-27.12
3795.989	-28.12
3798.645	-29.12
3801.299	-27.12
3803.952	-28.12
3806.602	-26.12
3809.251	-26.12
3811.897	-22.12
3814.542	-26.12
3817.184	-24.12
3819.825	-28.12
3822.463	-24.12
3825.1	-26.12
3827.735	-24.12
3830.367	-30.12
3832.998	-26.12
3835.627	-25.12
3838.253	-22.12
3840.878	-26.12
3843.501	-24.12
3846.122	-27.12
3848.741	-24.12
3851.358	-27.12
3853.973	-27.12
3856.586	-27.12
3859.197	-26.12
3861.806	-23.12
3864.414	-25.12
3867.019	-25.12
3869.622	-27.12
3872.224	-30.12
3874.823	-27.12
3877.421	-26.12
3880.016	-22.12
3882.61	-19.12
3885.202	-14.12
3887.792	-13.12
3890.38	-21.12
3892.966	-27.12
3895.55	-25.12
3898.132	-27.12
3900.713	-26.12
3903.291	-27.12
3905.868	-24.12
3908.442	-25.12
3911.015	-26.12
3913.586	-28.12
3916.155	-26.12
3918.722	-28.12
3921.287	-20.12
3923.85	-29.12
3926.411	-27.12
3928.971	-23.12
3931.528	-27.12
3934.084	-27.12
3936.638	-25.12
3939.19	-29.12
3941.74	-24.12
3944.288	-26.12
3946.834	-27.12
3949.378	-27.12
3951.921	-27.12
3954.462	-26.12
3957	-26.12
3959.537	-26.12
3962.072	-24.12
3964.606	-25.12
3967.137	-24.12
3969.667	-27.12
3972.194	-28.12
3974.72	-30.12
3977.244	-27.12
3979.766	-24.12
3982.286	-21.12
3984.805	-24.12
3987.321	-24.12
3989.836	-31.12
3992.349	-27.12
3994.86	-28.12
3997.369	-25.12
3999.877	-26.12
4002.382	-27.12
4004.886	-26.12
4007.388	-26.12
4009.888	-28.12
4012.386	-25.12
4014.883	-27.12
4017.377	-26.12
4019.87	-28.12
4022.361	-23.12
4024.85	-30.12
4027.338	-25.12
4029.823	-27.12
4032.307	-27.12
4034.789	-24.12
4037.269	-28.12
4039.747	-26.12
4042.224	-26.12
4044.699	-30.12
4047.172	-30.12
4049.643	-27.12
4052.112	-24.12
4054.58	-26.12
4057.046	-26.12
4059.51	-31.12
4061.972	-28.12
4064.432	-25.12
4066.891	-24.12
4069.348	-25.12
4071.803	-24.12
4074.256	-26.12
4076.708	-24.12
4079.158	-28.12
4081.606	-27.12
4084.052	-24.12
4086.497	-23.12
4088.939	-21.12
4091.38	-23.12
4093.819	-26.12
4096.257	-27.12
4098.693	-30.12
4101.127	-30.12
4103.559	-29.12
4105.989	-12.12
4108.418	-13.12
4110.845	-10.12
4113.27	-14.12
4115.694	-9.12
4118.115	-15.12
4120.535	-25.12
4122.954	-30.12
4125.37	-24.12
4127.785	-26.12
4130.198	-26.12
4132.609	-25.12
4135.019	-25.12
4137.427	-28.12
4139.833	-25.12
4142.237	-28.12
