Data from 10000CFU3_B_RamanShift_1.txt Node
Date: Thu Feb 02 14:35:15 IST 2017
User: aro
Spectrometer: QEPB0276
Trigger mode: 0
Integration Time (sec): 5.000000E0
Scans to average: 1
Electric dark correction enabled: true
Nonlinearity correction enabled: false
Boxcar width: 0
XAxis mode: Raman Shifts
Number of Pixels in Spectrum: 1044
>>>>>Begin Spectral Data<<<<<
160.701	-5.25
166.742	0.75
172.777	26.75
178.805	90.75
184.826	226.75
190.841	449.75
196.849	695.75
202.85	857.75
208.845	908.75
214.833	893.75
220.815	882.75
226.789	867.75
232.758	857.75
238.719	854.75
244.674	833.75
250.623	806.75
256.565	795.75
262.5	775.75
268.429	762.75
274.351	747.75
280.267	743.75
286.176	720.75
292.079	728.75
297.975	705.75
303.865	709.75
309.748	702.75
315.625	697.75
321.495	692.75
327.359	695.75
333.217	706.75
339.068	712.75
344.912	703.75
350.751	704.75
356.583	721.75
362.408	720.75
368.227	707.75
374.04	701.75
379.847	691.75
385.647	704.75
391.44	701.75
397.228	701.75
403.009	710.75
408.784	713.75
414.553	718.75
420.315	724.75
426.071	724.75
431.821	730.75
437.565	719.75
443.302	735.75
449.033	726.75
454.758	720.75
460.477	694.75
466.189	695.75
471.896	697.75
477.596	688.75
483.29	675.75
488.978	670.75
494.66	658.75
500.335	645.75
506.005	619.75
511.668	613.75
517.325	584.75
522.977	573.75
528.622	553.75
534.261	535.75
539.894	524.75
545.521	519.75
551.141	508.75
556.756	496.75
562.365	492.75
567.968	492.75
573.565	500.75
579.155	491.75
584.74	486.75
590.319	483.75
595.892	491.75
601.459	483.75
607.02	479.75
612.575	485.75
618.124	470.75
623.667	471.75
629.204	462.75
634.735	456.75
640.261	449.75
645.781	446.75
651.294	447.75
656.802	432.75
662.304	436.75
667.8	434.75
673.29	429.75
678.775	429.75
684.254	422.75
689.726	423.75
695.193	421.75
700.655	414.75
706.11	414.75
711.56	421.75
717.004	419.75
722.442	405.75
727.874	413.75
733.301	405.75
738.722	402.75
744.137	403.75
749.547	402.75
754.951	396.75
760.349	399.75
765.741	412.75
771.128	412.75
776.509	404.75
781.885	417.75
787.254	412.75
792.618	408.75
797.977	406.75
803.33	399.75
808.677	398.75
814.019	406.75
819.355	398.75
824.686	393.75
830.011	412.75
835.33	405.75
840.644	419.75
845.952	412.75
851.255	423.75
856.552	423.75
861.844	429.75
867.13	419.75
872.41	416.75
877.686	427.75
882.955	435.75
888.219	426.75
893.478	422.75
898.731	404.75
903.979	392.75
909.221	380.75
914.458	375.75
919.69	368.75
924.916	366.75
930.136	375.75
935.351	375.75
940.561	364.75
945.766	372.75
950.965	368.75
956.158	371.75
961.347	359.75
966.529	343.75
971.707	342.75
976.879	345.75
982.046	334.75
987.208	338.75
992.364	332.75
997.515	336.75
1002.66	345.75
1007.801	351.75
1012.936	356.75
1018.066	359.75
1023.19	359.75
1028.309	370.75
1033.423	375.75
1038.532	362.75
1043.636	372.75
1048.734	363.75
1053.827	377.75
1058.915	376.75
1063.998	379.75
1069.075	398.75
1074.147	404.75
1079.214	404.75
1084.276	392.75
1089.333	407.75
1094.385	406.75
1099.431	394.75
1104.472	387.75
1109.509	370.75
1114.54	374.75
1119.565	371.75
1124.586	369.75
1129.602	368.75
1134.613	365.75
1139.618	349.75
1144.619	322.75
1149.614	320.75
1154.604	312.75
1159.589	320.75
1164.57	309.75
1169.545	310.75
1174.515	303.75
1179.48	295.75
1184.44	296.75
1189.395	285.75
1194.345	278.75
1199.29	272.75
1204.23	277.75
1209.165	284.75
1214.095	287.75
1219.021	289.75
1223.941	283.75
1228.856	297.75
1233.766	291.75
1238.672	307.75
1243.572	319.75
1248.467	316.75
1253.358	322.75
1258.244	326.75
1263.124	324.75
1268	318.75
1272.871	308.75
1277.737	304.75
1282.599	302.75
1287.455	305.75
1292.306	319.75
1297.153	327.75
1301.995	350.75
1306.832	350.75
1311.664	332.75
1316.491	329.75
1321.314	318.75
1326.132	295.75
1330.945	293.75
1335.753	279.75
1340.556	274.75
1345.354	272.75
1350.148	267.75
1354.937	268.75
1359.722	268.75
1364.501	251.75
1369.276	251.75
1374.046	265.75
1378.811	261.75
1383.572	258.75
1388.327	254.75
1393.079	247.75
1397.825	249.75
1402.567	234.75
1407.304	234.75
1412.036	240.75
1416.764	242.75
1421.487	252.75
1426.205	256.75
1430.919	265.75
1435.628	289.75
1440.333	318.75
1445.032	342.75
1449.727	341.75
1454.418	337.75
1459.104	331.75
1463.785	318.75
1468.462	303.75
1473.134	281.75
1477.802	254.75
1482.465	236.75
1487.123	213.75
1491.777	195.75
1496.426	191.75
1501.071	188.75
1505.711	185.75
1510.347	187.75
1514.978	199.75
1519.604	192.75
1524.226	192.75
1528.844	191.75
1533.457	188.75
1538.065	186.75
1542.669	184.75
1547.269	185.75
1551.864	188.75
1556.454	187.75
1561.041	187.75
1565.622	182.75
1570.199	181.75
1574.772	182.75
1579.34	182.75
1583.904	185.75
1588.464	187.75
1593.019	189.75
1597.569	185.75
1602.115	188.75
1606.657	189.75
1611.195	195.75
1615.728	197.75
1620.256	194.75
1624.78	197.75
1629.3	195.75
1633.816	201.75
1638.327	200.75
1642.834	209.75
1647.336	214.75
1651.834	222.75
1656.328	227.75
1660.817	226.75
1665.302	221.75
1669.783	214.75
1674.259	210.75
1678.732	201.75
1683.199	193.75
1687.663	182.75
1692.122	174.75
1696.577	157.75
1701.028	166.75
1705.474	160.75
1709.917	146.75
1714.355	148.75
1718.788	146.75
1723.218	139.75
1727.643	137.75
1732.064	135.75
1736.481	133.75
1740.893	127.75
1745.301	130.75
1749.705	123.75
1754.105	122.75
1758.501	115.75
1762.893	107.75
1767.28	100.75
1771.663	99.75
1776.042	99.75
1780.417	96.75
1784.787	99.75
1789.154	95.75
1793.516	107.75
1797.874	103.75
1802.228	101.75
1806.578	101.75
1810.924	101.75
1815.266	92.75
1819.603	90.75
1823.937	89.75
1828.266	97.75
1832.591	88.75
1836.913	91.75
1841.23	92.75
1845.543	87.75
1849.852	84.75
1854.156	85.75
1858.457	84.75
1862.754	80.75
1867.047	79.75
1871.335	87.75
1875.62	78.75
1879.9	85.75
1884.177	89.75
1888.449	78.75
1892.718	83.75
1896.982	77.75
1901.243	79.75
1905.499	76.75
1909.752	81.75
1914	80.75
1918.245	77.75
1922.485	78.75
1926.722	79.75
1930.954	81.75
1935.183	78.75
1939.408	80.75
1943.628	81.75
1947.845	80.75
1952.058	83.75
1956.267	79.75
1960.472	80.75
1964.673	77.75
1968.87	70.75
1973.063	71.75
1977.252	66.75
1981.438	68.75
1985.619	70.75
1989.797	70.75
1993.971	72.75
1998.14	69.75
2002.306	72.75
2006.469	66.75
2010.627	64.75
2014.781	69.75
2018.932	71.75
2023.078	71.75
2027.221	70.75
2031.36	72.75
2035.495	64.75
2039.627	63.75
2043.754	63.75
2047.878	59.75
2051.998	59.75
2056.114	61.75
2060.226	65.75
2064.334	65.75
2068.439	66.75
2072.54	60.75
2076.637	65.75
2080.73	66.75
2084.82	66.75
2088.906	71.75
2092.988	62.75
2097.066	69.75
2101.14	64.75
2105.211	64.75
2109.278	60.75
2113.342	60.75
2117.401	62.75
2121.457	64.75
2125.509	58.75
2129.558	59.75
2133.602	61.75
2137.643	65.75
2141.681	63.75
2145.714	58.75
2149.744	60.75
2153.77	59.75
2157.793	57.75
2161.812	54.75
2165.827	49.75
2169.838	53.75
2173.846	53.75
2177.851	55.75
2181.851	54.75
2185.848	50.75
2189.841	47.75
2193.831	45.75
2197.817	45.75
2201.799	49.75
2205.778	47.75
2209.753	47.75
2213.725	50.75
2217.693	46.75
2221.657	39.75
2225.618	38.75
2229.575	43.75
2233.529	42.75
2237.479	45.75
2241.425	45.75
2245.368	41.75
2249.307	46.75
2253.243	37.75
2257.175	35.75
2261.104	36.75
2265.029	39.75
2268.95	40.75
2272.868	36.75
2276.783	33.75
2280.694	35.75
2284.601	28.75
2288.505	30.75
2292.405	29.75
2296.302	28.75
2300.195	31.75
2304.085	28.75
2307.971	30.75
2311.854	30.75
2315.734	25.75
2319.609	19.75
2323.482	26.75
2327.351	30.75
2331.216	29.75
2335.078	30.75
2338.937	26.75
2342.792	24.75
2346.643	24.75
2350.492	21.75
2354.336	21.75
2358.178	18.75
2362.015	15.75
2365.85	21.75
2369.681	19.75
2373.508	20.75
2377.333	25.75
2381.153	18.75
2384.971	20.75
2388.785	20.75
2392.595	19.75
2396.402	16.75
2400.206	20.75
2404.007	19.75
2407.804	21.75
2411.597	20.75
2415.388	17.75
2419.174	16.75
2422.958	11.75
2426.738	14.75
2430.515	15.75
2434.289	14.75
2438.059	18.75
2441.825	18.75
2445.589	15.75
2449.349	15.75
2453.106	10.75
2456.859	13.75
2460.61	8.75
2464.356	14.75
2468.1	15.75
2471.84	16.75
2475.577	14.75
2479.311	7.75
2483.041	11.75
2486.768	11.75
2490.492	13.75
2494.213	12.75
2497.93	11.75
2501.644	10.75
2505.355	13.75
2509.062	8.75
2512.766	7.75
2516.467	11.75
2520.165	7.75
2523.859	10.75
2527.551	11.75
2531.239	14.75
2534.923	6.75
2538.605	11.75
2542.283	6.75
2545.958	10.75
2549.63	9.75
2553.299	10.75
2556.964	8.75
2560.626	9.75
2564.285	6.75
2567.941	10.75
2571.594	8.75
2575.243	10.75
2578.89	10.75
2582.533	9.75
2586.173	12.75
2589.809	11.75
2593.443	11.75
2597.073	10.75
2600.701	11.75
2604.325	14.75
2607.946	9.75
2611.564	6.75
2615.178	9.75
2618.79	6.75
2622.398	8.75
2626.004	9.75
2629.606	11.75
2633.205	9.75
2636.801	4.75
2640.394	7.75
2643.983	5.75
2647.57	6.75
2651.153	6.75
2654.734	5.75
2658.311	11.75
2661.885	13.75
2665.456	5.75
2669.025	6.75
2672.589	-0.25
2676.151	4.75
2679.71	3.75
2683.266	7.75
2686.819	7.75
2690.368	8.75
2693.915	2.75
2697.458	10.75
2700.999	3.75
2704.536	6.75
2708.071	3.75
2711.602	6.75
2715.13	7.75
2718.656	9.75
2722.178	8.75
2725.697	9.75
2729.214	10.75
2732.727	8.75
2736.237	10.75
2739.744	12.75
2743.249	10.75
2746.75	8.75
2750.248	10.75
2753.743	7.75
2757.236	8.75
2760.725	9.75
2764.211	7.75
2767.695	7.75
2771.175	5.75
2774.652	8.75
2778.127	5.75
2781.598	10.75
2785.067	6.75
2788.532	8.75
2791.995	10.75
2795.455	9.75
2798.911	7.75
2802.365	8.75
2805.816	11.75
2809.264	13.75
2812.709	16.75
2816.151	22.75
2819.59	20.75
2823.026	20.75
2826.46	27.75
2829.89	28.75
2833.318	28.75
2836.742	39.75
2840.164	40.75
2843.583	53.75
2846.999	67.75
2850.412	76.75
2853.822	85.75
2857.229	94.75
2860.634	101.75
2864.035	99.75
2867.434	100.75
2870.83	104.75
2874.223	110.75
2877.613	109.75
2881	122.75
2884.385	129.75
2887.766	135.75
2891.145	128.75
2894.521	131.75
2897.894	124.75
2901.264	123.75
2904.631	123.75
2907.996	123.75
2911.358	117.75
2914.717	117.75
2918.073	111.75
2921.426	110.75
2924.777	114.75
2928.124	113.75
2931.469	108.75
2934.811	113.75
2938.15	106.75
2941.487	107.75
2944.821	103.75
2948.152	86.75
2951.48	87.75
2954.805	85.75
2958.128	76.75
2961.447	78.75
2964.765	72.75
2968.079	68.75
2971.39	65.75
2974.699	63.75
2978.005	55.75
2981.308	52.75
2984.609	58.75
2987.907	54.75
2991.202	55.75
2994.494	47.75
2997.784	46.75
3001.07	45.75
3004.355	46.75
3007.636	38.75
3010.915	45.75
3014.191	39.75
3017.464	47.75
3020.734	34.75
3024.002	39.75
3027.267	38.75
3030.53	40.75
3033.789	39.75
3037.046	36.75
3040.301	36.75
3043.552	34.75
3046.801	38.75
3050.048	40.75
3053.291	43.75
3056.532	43.75
3059.771	46.75
3063.006	44.75
3066.239	47.75
3069.469	45.75
3072.697	48.75
3075.922	55.75
3079.144	58.75
3082.364	64.75
3085.581	51.75
3088.795	62.75
3092.007	54.75
3095.216	59.75
3098.423	57.75
3101.627	61.75
3104.828	70.75
3108.026	74.75
3111.222	63.75
3114.416	71.75
3117.607	68.75
3120.795	79.75
3123.98	71.75
3127.163	85.75
3130.344	80.75
3133.521	83.75
3136.696	83.75
3139.869	86.75
3143.039	84.75
3146.206	97.75
3149.371	92.75
3152.533	90.75
3155.693	91.75
3158.85	90.75
3162.005	99.75
3165.157	94.75
3168.306	96.75
3171.453	100.75
3174.597	95.75
3177.739	97.75
3180.878	94.75
3184.014	93.75
3187.149	95.75
3190.28	95.75
3193.409	103.75
3196.536	99.75
3199.659	99.75
3202.781	94.75
3205.9	93.75
3209.016	98.75
3212.13	99.75
3215.241	100.75
3218.35	96.75
3221.456	93.75
3224.56	91.75
3227.661	90.75
3230.76	93.75
3233.856	87.75
3236.95	84.75
3240.041	87.75
3243.13	87.75
3246.216	88.75
3249.3	87.75
3252.382	88.75
3255.46	80.75
3258.537	83.75
3261.611	86.75
3264.682	82.75
3267.751	90.75
3270.818	80.75
3273.882	78.75
3276.943	82.75
3280.002	82.75
3283.059	83.75
3286.113	83.75
3289.165	77.75
3292.214	79.75
3295.261	73.75
3298.306	77.75
3301.348	76.75
3304.387	71.75
3307.425	77.75
3310.459	67.75
3313.492	69.75
3316.521	64.75
3319.549	65.75
3322.574	61.75
3325.597	65.75
3328.617	60.75
3331.635	62.75
3334.65	64.75
3337.663	60.75
3340.674	61.75
3343.682	69.75
3346.688	59.75
3349.691	61.75
3352.692	62.75
3355.691	68.75
3358.687	62.75
3361.681	61.75
3364.673	59.75
3367.662	57.75
3370.649	62.75
3373.633	55.75
3376.615	54.75
3379.595	48.75
3382.572	53.75
3385.547	56.75
3388.52	49.75
3391.49	50.75
3394.458	51.75
3397.424	46.75
3400.387	42.75
3403.348	45.75
3406.307	45.75
3409.263	49.75
3412.217	49.75
3415.168	47.75
3418.118	45.75
3421.065	40.75
3424.009	39.75
3426.951	40.75
3429.891	42.75
3432.829	41.75
3435.764	40.75
3438.697	41.75
3441.628	34.75
3444.557	34.75
3447.483	31.75
3450.407	32.75
3453.328	27.75
3456.247	31.75
3459.164	27.75
3462.079	26.75
3464.991	23.75
3467.902	21.75
3470.809	20.75
3473.715	22.75
3476.618	20.75
3479.519	14.75
3482.418	11.75
3485.315	15.75
3488.209	15.75
3491.101	17.75
3493.99	16.75
3496.878	15.75
3499.763	11.75
3502.646	10.75
3505.527	1.75
3508.405	7.75
3511.281	5.75
3514.155	5.75
3517.027	8.75
3519.897	11.75
3522.764	1.75
3525.629	-0.25
3528.492	0.75
3531.352	-2.25
3534.211	-2.25
3537.067	-2.25
3539.921	-2.25
3542.773	-0.25
3545.622	-0.25
3548.469	-5.25
3551.315	-4.25
3554.157	-11.25
3556.998	-10.25
3559.837	-2.25
3562.673	-3.25
3565.507	-8.25
3568.339	-10.25
3571.169	-11.25
3573.996	-11.25
3576.822	-14.25
3579.645	-15.25
3582.466	-10.25
3585.285	-13.25
3588.101	-9.25
3590.916	-16.25
3593.728	-14.25
3596.538	-19.25
3599.346	-19.25
3602.152	-18.25
3604.956	-16.25
3607.757	-18.25
3610.556	-16.25
3613.354	-20.25
3616.149	-18.25
3618.942	-16.25
3621.732	-21.25
3624.521	-20.25
3627.307	-18.25
3630.092	-22.25
3632.874	-20.25
3635.654	-21.25
3638.432	-23.25
3641.208	-19.25
3643.982	-17.25
3646.753	-20.25
3649.523	-20.25
3652.29	-23.25
3655.055	-22.25
3657.818	-25.25
3660.579	-21.25
3663.338	-22.25
3666.095	-16.25
3668.849	-19.25
3671.602	-20.25
3674.352	-24.25
3677.101	-25.25
3679.847	-26.25
3682.591	-25.25
3685.333	-24.25
3688.073	-21.25
3690.811	-23.25
3693.547	-29.25
3696.281	-24.25
3699.013	-28.25
3701.742	-29.25
3704.47	-24.25
3707.195	-23.25
3709.919	-22.25
3712.64	-27.25
3715.359	-25.25
3718.076	-24.25
3720.792	-30.25
3723.505	-23.25
3726.216	-23.25
3728.925	-27.25
3731.632	-26.25
3734.336	-24.25
3737.039	-25.25
3739.74	-27.25
3742.439	-27.25
3745.136	-28.25
3747.83	-27.25
3750.523	-25.25
3753.213	-25.25
3755.902	-25.25
3758.589	-26.25
3761.273	-26.25
3763.956	-23.25
3766.636	-25.25
3769.315	-26.25
3771.991	-30.25
3774.665	-29.25
3777.338	-23.25
3780.008	-23.25
3782.677	-25.25
3785.343	-25.25
3788.007	-24.25
3790.67	-27.25
3793.33	-33.25
3795.989	-30.25
3798.645	-27.25
3801.299	-24.25
3803.952	-28.25
3806.602	-29.25
3809.251	-28.25
3811.897	-24.25
3814.542	-30.25
3817.184	-29.25
3819.825	-27.25
3822.463	-21.25
3825.1	-25.25
3827.735	-25.25
3830.367	-26.25
3832.998	-27.25
3835.627	-30.25
3838.253	-26.25
3840.878	-32.25
3843.501	-23.25
3846.122	-28.25
3848.741	-24.25
3851.358	-26.25
3853.973	-30.25
3856.586	-30.25
3859.197	-31.25
3861.806	-28.25
3864.414	-26.25
3867.019	-25.25
3869.622	-24.25
3872.224	-28.25
3874.823	-28.25
3877.421	-26.25
3880.016	-26.25
3882.61	-23.25
3885.202	-15.25
3887.792	-19.25
3890.38	-22.25
3892.966	-27.25
3895.55	-21.25
3898.132	-28.25
3900.713	-25.25
3903.291	-27.25
3905.868	-28.25
3908.442	-28.25
3911.015	-27.25
3913.586	-31.25
3916.155	-27.25
3918.722	-29.25
3921.287	-23.25
3923.85	-29.25
3926.411	-29.25
3928.971	-25.25
3931.528	-31.25
3934.084	-29.25
3936.638	-26.25
3939.19	-30.25
3941.74	-26.25
3944.288	-30.25
3946.834	-31.25
3949.378	-32.25
3951.921	-28.25
3954.462	-25.25
3957	-26.25
3959.537	-25.25
3962.072	-26.25
3964.606	-29.25
3967.137	-24.25
3969.667	-28.25
3972.194	-29.25
3974.72	-27.25
3977.244	-20.25
3979.766	-26.25
3982.286	-21.25
3984.805	-26.25
3987.321	-27.25
3989.836	-33.25
3992.349	-30.25
3994.86	-26.25
3997.369	-25.25
3999.877	-23.25
4002.382	-22.25
4004.886	-26.25
4007.388	-28.25
4009.888	-32.25
4012.386	-28.25
4014.883	-27.25
4017.377	-28.25
4019.87	-26.25
4022.361	-20.25
4024.85	-32.25
4027.338	-28.25
4029.823	-31.25
4032.307	-30.25
4034.789	-29.25
4037.269	-28.25
4039.747	-26.25
4042.224	-27.25
4044.699	-28.25
4047.172	-31.25
4049.643	-30.25
4052.112	-25.25
4054.58	-25.25
4057.046	-26.25
4059.51	-27.25
4061.972	-26.25
4064.432	-24.25
4066.891	-24.25
4069.348	-27.25
4071.803	-26.25
4074.256	-28.25
4076.708	-28.25
4079.158	-27.25
4081.606	-25.25
4084.052	-25.25
4086.497	-24.25
4088.939	-26.25
4091.38	-27.25
4093.819	-30.25
4096.257	-26.25
4098.693	-29.25
4101.127	-30.25
4103.559	-34.25
4105.989	-14.25
4108.418	-14.25
4110.845	-9.25
4113.27	-12.25
4115.694	-11.25
4118.115	-13.25
4120.535	-26.25
4122.954	-32.25
4125.37	-27.25
4127.785	-24.25
4130.198	-24.25
4132.609	-26.25
4135.019	-26.25
4137.427	-31.25
4139.833	-25.25
4142.237	-30.25
