Data from 10000000CFU1_C_RamanShift_1.txt Node
Date: Thu Feb 02 15:19:10 IST 2017
User: aro
Spectrometer: QEPB0276
Trigger mode: 0
Integration Time (sec): 5.000000E0
Scans to average: 1
Electric dark correction enabled: true
Nonlinearity correction enabled: false
Boxcar width: 0
XAxis mode: Raman Shifts
Number of Pixels in Spectrum: 1044
>>>>>Begin Spectral Data<<<<<
160.701	-5.25
166.742	-1.25
172.777	22.75
178.805	82.75
184.826	199.75
190.841	383.75
196.849	604.75
202.85	743.75
208.845	787.75
214.833	774.75
220.815	756.75
226.789	743.75
232.758	743.75
238.719	737.75
244.674	716.75
250.623	712.75
256.565	688.75
262.5	677.75
268.429	661.75
274.351	650.75
280.267	649.75
286.176	630.75
292.079	626.75
297.975	626.75
303.865	617.75
309.748	625.75
315.625	617.75
321.495	613.75
327.359	600.75
333.217	617.75
339.068	610.75
344.912	625.75
350.751	634.75
356.583	640.75
362.408	629.75
368.227	619.75
374.04	613.75
379.847	613.75
385.647	613.75
391.44	625.75
397.228	629.75
403.009	634.75
408.784	625.75
414.553	640.75
420.315	641.75
426.071	648.75
431.821	643.75
437.565	645.75
443.302	650.75
449.033	644.75
454.758	640.75
460.477	635.75
466.189	629.75
471.896	610.75
477.596	612.75
483.29	595.75
488.978	589.75
494.66	598.75
500.335	579.75
506.005	549.75
511.668	533.75
517.325	516.75
522.977	484.75
528.622	473.75
534.261	461.75
539.894	445.75
545.521	447.75
551.141	440.75
556.756	445.75
562.365	432.75
567.968	435.75
573.565	423.75
579.155	419.75
584.74	429.75
590.319	419.75
595.892	423.75
601.459	427.75
607.02	414.75
612.575	411.75
618.124	414.75
623.667	396.75
629.204	396.75
634.735	383.75
640.261	380.75
645.781	391.75
651.294	389.75
656.802	384.75
662.304	377.75
667.8	376.75
673.29	367.75
678.775	365.75
684.254	370.75
689.726	367.75
695.193	356.75
700.655	355.75
706.11	363.75
711.56	365.75
717.004	351.75
722.442	356.75
727.874	356.75
733.301	346.75
738.722	349.75
744.137	344.75
749.547	348.75
754.951	351.75
760.349	352.75
765.741	351.75
771.128	341.75
776.509	341.75
781.885	355.75
787.254	352.75
792.618	357.75
797.977	356.75
803.33	349.75
808.677	361.75
814.019	352.75
819.355	349.75
824.686	345.75
830.011	342.75
835.33	351.75
840.644	358.75
845.952	360.75
851.255	357.75
856.552	356.75
861.844	358.75
867.13	363.75
872.41	359.75
877.686	361.75
882.955	354.75
888.219	363.75
893.478	346.75
898.731	337.75
903.979	337.75
909.221	330.75
914.458	325.75
919.69	316.75
924.916	321.75
930.136	309.75
935.351	310.75
940.561	314.75
945.766	317.75
950.965	317.75
956.158	318.75
961.347	304.75
966.529	292.75
971.707	288.75
976.879	285.75
982.046	289.75
987.208	281.75
992.364	291.75
997.515	290.75
1002.66	296.75
1007.801	299.75
1012.936	303.75
1018.066	310.75
1023.19	304.75
1028.309	317.75
1033.423	315.75
1038.532	316.75
1043.636	319.75
1048.734	326.75
1053.827	308.75
1058.915	326.75
1063.998	329.75
1069.075	332.75
1074.147	348.75
1079.214	336.75
1084.276	342.75
1089.333	339.75
1094.385	343.75
1099.431	347.75
1104.472	331.75
1109.509	315.75
1114.54	315.75
1119.565	312.75
1124.586	317.75
1129.602	324.75
1134.613	307.75
1139.618	299.75
1144.619	281.75
1149.614	273.75
1154.604	266.75
1159.589	262.75
1164.57	256.75
1169.545	263.75
1174.515	257.75
1179.48	257.75
1184.44	243.75
1189.395	243.75
1194.345	245.75
1199.29	238.75
1204.23	238.75
1209.165	234.75
1214.095	242.75
1219.021	239.75
1223.941	240.75
1228.856	256.75
1233.766	256.75
1238.672	261.75
1243.572	270.75
1248.467	265.75
1253.358	273.75
1258.244	275.75
1263.124	268.75
1268	272.75
1272.871	260.75
1277.737	265.75
1282.599	260.75
1287.455	255.75
1292.306	264.75
1297.153	274.75
1301.995	299.75
1306.832	296.75
1311.664	290.75
1316.491	271.75
1321.314	275.75
1326.132	255.75
1330.945	255.75
1335.753	238.75
1340.556	233.75
1345.354	236.75
1350.148	228.75
1354.937	230.75
1359.722	219.75
1364.501	215.75
1369.276	221.75
1374.046	226.75
1378.811	225.75
1383.572	219.75
1388.327	213.75
1393.079	208.75
1397.825	207.75
1402.567	201.75
1407.304	205.75
1412.036	204.75
1416.764	197.75
1421.487	210.75
1426.205	217.75
1430.919	226.75
1435.628	236.75
1440.333	265.75
1445.032	287.75
1449.727	295.75
1454.418	283.75
1459.104	276.75
1463.785	264.75
1468.462	259.75
1473.134	241.75
1477.802	218.75
1482.465	200.75
1487.123	183.75
1491.777	164.75
1496.426	171.75
1501.071	161.75
1505.711	155.75
1510.347	166.75
1514.978	173.75
1519.604	165.75
1524.226	166.75
1528.844	159.75
1533.457	161.75
1538.065	155.75
1542.669	154.75
1547.269	160.75
1551.864	158.75
1556.454	155.75
1561.041	156.75
1565.622	153.75
1570.199	157.75
1574.772	157.75
1579.34	156.75
1583.904	158.75
1588.464	161.75
1593.019	165.75
1597.569	159.75
1602.115	164.75
1606.657	163.75
1611.195	166.75
1615.728	169.75
1620.256	167.75
1624.78	165.75
1629.3	167.75
1633.816	170.75
1638.327	166.75
1642.834	184.75
1647.336	184.75
1651.834	187.75
1656.328	196.75
1660.817	194.75
1665.302	189.75
1669.783	181.75
1674.259	184.75
1678.732	180.75
1683.199	159.75
1687.663	154.75
1692.122	146.75
1696.577	142.75
1701.028	141.75
1705.474	131.75
1709.917	128.75
1714.355	123.75
1718.788	117.75
1723.218	112.75
1727.643	111.75
1732.064	115.75
1736.481	113.75
1740.893	111.75
1745.301	111.75
1749.705	105.75
1754.105	103.75
1758.501	97.75
1762.893	89.75
1767.28	90.75
1771.663	89.75
1776.042	90.75
1780.417	89.75
1784.787	84.75
1789.154	83.75
1793.516	86.75
1797.874	83.75
1802.228	84.75
1806.578	85.75
1810.924	86.75
1815.266	83.75
1819.603	82.75
1823.937	81.75
1828.266	79.75
1832.591	78.75
1836.913	71.75
1841.23	71.75
1845.543	70.75
1849.852	63.75
1854.156	71.75
1858.457	74.75
1862.754	73.75
1867.047	73.75
1871.335	70.75
1875.62	71.75
1879.9	70.75
1884.177	70.75
1888.449	69.75
1892.718	73.75
1896.982	68.75
1901.243	72.75
1905.499	73.75
1909.752	73.75
1914	72.75
1918.245	68.75
1922.485	61.75
1926.722	66.75
1930.954	64.75
1935.183	64.75
1939.408	69.75
1943.628	73.75
1947.845	67.75
1952.058	75.75
1956.267	68.75
1960.472	69.75
1964.673	62.75
1968.87	64.75
1973.063	64.75
1977.252	65.75
1981.438	64.75
1985.619	65.75
1989.797	62.75
1993.971	66.75
1998.14	62.75
2002.306	55.75
2006.469	55.75
2010.627	58.75
2014.781	58.75
2018.932	64.75
2023.078	62.75
2027.221	61.75
2031.36	58.75
2035.495	56.75
2039.627	52.75
2043.754	56.75
2047.878	59.75
2051.998	56.75
2056.114	54.75
2060.226	56.75
2064.334	59.75
2068.439	56.75
2072.54	58.75
2076.637	58.75
2080.73	58.75
2084.82	54.75
2088.906	60.75
2092.988	54.75
2097.066	56.75
2101.14	57.75
2105.211	56.75
2109.278	50.75
2113.342	51.75
2117.401	53.75
2121.457	55.75
2125.509	53.75
2129.558	48.75
2133.602	53.75
2137.643	54.75
2141.681	51.75
2145.714	46.75
2149.744	51.75
2153.77	45.75
2157.793	47.75
2161.812	45.75
2165.827	36.75
2169.838	43.75
2173.846	45.75
2177.851	45.75
2181.851	46.75
2185.848	40.75
2189.841	40.75
2193.831	38.75
2197.817	35.75
2201.799	35.75
2205.778	43.75
2209.753	33.75
2213.725	39.75
2217.693	41.75
2221.657	37.75
2225.618	33.75
2229.575	32.75
2233.529	29.75
2237.479	35.75
2241.425	39.75
2245.368	34.75
2249.307	33.75
2253.243	33.75
2257.175	32.75
2261.104	33.75
2265.029	31.75
2268.95	28.75
2272.868	26.75
2276.783	27.75
2280.694	32.75
2284.601	26.75
2288.505	26.75
2292.405	23.75
2296.302	25.75
2300.195	23.75
2304.085	21.75
2307.971	21.75
2311.854	21.75
2315.734	22.75
2319.609	21.75
2323.482	23.75
2327.351	26.75
2331.216	21.75
2335.078	23.75
2338.937	24.75
2342.792	20.75
2346.643	18.75
2350.492	17.75
2354.336	14.75
2358.178	19.75
2362.015	16.75
2365.85	13.75
2369.681	15.75
2373.508	13.75
2377.333	17.75
2381.153	15.75
2384.971	13.75
2388.785	17.75
2392.595	17.75
2396.402	14.75
2400.206	15.75
2404.007	12.75
2407.804	14.75
2411.597	13.75
2415.388	9.75
2419.174	12.75
2422.958	13.75
2426.738	12.75
2430.515	14.75
2434.289	11.75
2438.059	16.75
2441.825	11.75
2445.589	13.75
2449.349	9.75
2453.106	10.75
2456.859	8.75
2460.61	15.75
2464.356	13.75
2468.1	13.75
2471.84	14.75
2475.577	9.75
2479.311	5.75
2483.041	7.75
2486.768	9.75
2490.492	6.75
2494.213	12.75
2497.93	11.75
2501.644	7.75
2505.355	10.75
2509.062	6.75
2512.766	5.75
2516.467	10.75
2520.165	8.75
2523.859	11.75
2527.551	12.75
2531.239	11.75
2534.923	7.75
2538.605	7.75
2542.283	3.75
2545.958	8.75
2549.63	8.75
2553.299	8.75
2556.964	5.75
2560.626	11.75
2564.285	7.75
2567.941	4.75
2571.594	10.75
2575.243	7.75
2578.89	7.75
2582.533	8.75
2586.173	7.75
2589.809	4.75
2593.443	9.75
2597.073	3.75
2600.701	5.75
2604.325	8.75
2607.946	9.75
2611.564	5.75
2615.178	4.75
2618.79	7.75
2622.398	6.75
2626.004	6.75
2629.606	11.75
2633.205	6.75
2636.801	4.75
2640.394	7.75
2643.983	4.75
2647.57	2.75
2651.153	1.75
2654.734	2.75
2658.311	8.75
2661.885	10.75
2665.456	5.75
2669.025	7.75
2672.589	3.75
2676.151	1.75
2679.71	3.75
2683.266	4.75
2686.819	2.75
2690.368	1.75
2693.915	2.75
2697.458	6.75
2700.999	2.75
2704.536	5.75
2708.071	2.75
2711.602	1.75
2715.13	1.75
2718.656	5.75
2722.178	6.75
2725.697	6.75
2729.214	9.75
2732.727	12.75
2736.237	8.75
2739.744	8.75
2743.249	10.75
2746.75	4.75
2750.248	6.75
2753.743	6.75
2757.236	7.75
2760.725	5.75
2764.211	9.75
2767.695	1.75
2771.175	6.75
2774.652	1.75
2778.127	2.75
2781.598	4.75
2785.067	3.75
2788.532	5.75
2791.995	9.75
2795.455	6.75
2798.911	6.75
2802.365	7.75
2805.816	7.75
2809.264	9.75
2812.709	10.75
2816.151	12.75
2819.59	15.75
2823.026	16.75
2826.46	25.75
2829.89	19.75
2833.318	22.75
2836.742	23.75
2840.164	31.75
2843.583	41.75
2846.999	54.75
2850.412	61.75
2853.822	69.75
2857.229	76.75
2860.634	76.75
2864.035	80.75
2867.434	78.75
2870.83	81.75
2874.223	82.75
2877.613	87.75
2881	96.75
2884.385	106.75
2887.766	107.75
2891.145	103.75
2894.521	101.75
2897.894	97.75
2901.264	98.75
2904.631	87.75
2907.996	93.75
2911.358	93.75
2914.717	91.75
2918.073	89.75
2921.426	90.75
2924.777	92.75
2928.124	87.75
2931.469	88.75
2934.811	84.75
2938.15	84.75
2941.487	79.75
2944.821	79.75
2948.152	74.75
2951.48	66.75
2954.805	64.75
2958.128	67.75
2961.447	60.75
2964.765	58.75
2968.079	54.75
2971.39	50.75
2974.699	47.75
2978.005	46.75
2981.308	47.75
2984.609	44.75
2987.907	40.75
2991.202	39.75
2994.494	35.75
2997.784	30.75
3001.07	33.75
3004.355	31.75
3007.636	33.75
3010.915	34.75
3014.191	33.75
3017.464	28.75
3020.734	28.75
3024.002	27.75
3027.267	27.75
3030.53	30.75
3033.789	30.75
3037.046	27.75
3040.301	30.75
3043.552	29.75
3046.801	28.75
3050.048	31.75
3053.291	34.75
3056.532	32.75
3059.771	37.75
3063.006	38.75
3066.239	36.75
3069.469	38.75
3072.697	34.75
3075.922	43.75
3079.144	47.75
3082.364	43.75
3085.581	41.75
3088.795	48.75
3092.007	46.75
3095.216	47.75
3098.423	46.75
3101.627	50.75
3104.828	46.75
3108.026	50.75
3111.222	51.75
3114.416	53.75
3117.607	62.75
3120.795	59.75
3123.98	61.75
3127.163	65.75
3130.344	63.75
3133.521	63.75
3136.696	61.75
3139.869	67.75
3143.039	76.75
3146.206	76.75
3149.371	76.75
3152.533	71.75
3155.693	73.75
3158.85	73.75
3162.005	73.75
3165.157	71.75
3168.306	73.75
3171.453	80.75
3174.597	75.75
3177.739	77.75
3180.878	80.75
3184.014	77.75
3187.149	74.75
3190.28	74.75
3193.409	75.75
3196.536	75.75
3199.659	77.75
3202.781	76.75
3205.9	75.75
3209.016	80.75
3212.13	81.75
3215.241	80.75
3218.35	73.75
3221.456	76.75
3224.56	76.75
3227.661	75.75
3230.76	74.75
3233.856	72.75
3236.95	70.75
3240.041	70.75
3243.13	72.75
3246.216	72.75
3249.3	68.75
3252.382	67.75
3255.46	67.75
3258.537	71.75
3261.611	69.75
3264.682	67.75
3267.751	68.75
3270.818	67.75
3273.882	63.75
3276.943	62.75
3280.002	64.75
3283.059	59.75
3286.113	66.75
3289.165	63.75
3292.214	61.75
3295.261	60.75
3298.306	60.75
3301.348	57.75
3304.387	56.75
3307.425	55.75
3310.459	52.75
3313.492	49.75
3316.521	48.75
3319.549	51.75
3322.574	50.75
3325.597	48.75
3328.617	48.75
3331.635	51.75
3334.65	55.75
3337.663	44.75
3340.674	46.75
3343.682	49.75
3346.688	45.75
3349.691	53.75
3352.692	52.75
3355.691	49.75
3358.687	48.75
3361.681	48.75
3364.673	45.75
3367.662	42.75
3370.649	49.75
3373.633	43.75
3376.615	43.75
3379.595	39.75
3382.572	42.75
3385.547	46.75
3388.52	45.75
3391.49	42.75
3394.458	35.75
3397.424	38.75
3400.387	33.75
3403.348	39.75
3406.307	39.75
3409.263	37.75
3412.217	35.75
3415.168	36.75
3418.118	33.75
3421.065	31.75
3424.009	30.75
3426.951	29.75
3429.891	32.75
3432.829	33.75
3435.764	31.75
3438.697	33.75
3441.628	24.75
3444.557	25.75
3447.483	20.75
3450.407	25.75
3453.328	21.75
3456.247	20.75
3459.164	23.75
3462.079	19.75
3464.991	22.75
3467.902	19.75
3470.809	15.75
3473.715	16.75
3476.618	12.75
3479.519	14.75
3482.418	8.75
3485.315	11.75
3488.209	9.75
3491.101	7.75
3493.99	10.75
3496.878	15.75
3499.763	6.75
3502.646	7.75
3505.527	5.75
3508.405	2.75
3511.281	1.75
3514.155	6.75
3517.027	7.75
3519.897	9.75
3522.764	1.75
3525.629	-2.25
3528.492	-0.25
3531.352	-1.25
3534.211	-3.25
3537.067	-6.25
3539.921	-1.25
3542.773	-4.25
3545.622	-5.25
3548.469	-5.25
3551.315	-8.25
3554.157	-9.25
3556.998	-4.25
3559.837	-7.25
3562.673	-3.25
3565.507	-11.25
3568.339	-6.25
3571.169	-10.25
3573.996	-8.25
3576.822	-9.25
3579.645	-11.25
3582.466	-7.25
3585.285	-11.25
3588.101	-14.25
3590.916	-16.25
3593.728	-15.25
3596.538	-14.25
3599.346	-16.25
3602.152	-14.25
3604.956	-11.25
3607.757	-15.25
3610.556	-14.25
3613.354	-21.25
3616.149	-22.25
3618.942	-16.25
3621.732	-19.25
3624.521	-17.25
3627.307	-15.25
3630.092	-16.25
3632.874	-16.25
3635.654	-19.25
3638.432	-21.25
3641.208	-21.25
3643.982	-17.25
3646.753	-18.25
3649.523	-18.25
3652.29	-15.25
3655.055	-19.25
3657.818	-24.25
3660.579	-18.25
3663.338	-21.25
3666.095	-16.25
3668.849	-19.25
3671.602	-20.25
3674.352	-20.25
3677.101	-19.25
3679.847	-20.25
3682.591	-19.25
3685.333	-20.25
3688.073	-20.25
3690.811	-25.25
3693.547	-29.25
3696.281	-21.25
3699.013	-21.25
3701.742	-21.25
3704.47	-17.25
3707.195	-19.25
3709.919	-21.25
3712.64	-28.25
3715.359	-24.25
3718.076	-20.25
3720.792	-26.25
3723.505	-17.25
3726.216	-18.25
3728.925	-21.25
3731.632	-24.25
3734.336	-22.25
3737.039	-22.25
3739.74	-26.25
3742.439	-27.25
3745.136	-23.25
3747.83	-21.25
3750.523	-19.25
3753.213	-27.25
3755.902	-24.25
3758.589	-25.25
3761.273	-24.25
3763.956	-23.25
3766.636	-21.25
3769.315	-19.25
3771.991	-25.25
3774.665	-25.25
3777.338	-22.25
3780.008	-22.25
3782.677	-24.25
3785.343	-23.25
3788.007	-23.25
3790.67	-26.25
3793.33	-25.25
3795.989	-27.25
3798.645	-23.25
3801.299	-21.25
3803.952	-22.25
3806.602	-23.25
3809.251	-24.25
3811.897	-22.25
3814.542	-26.25
3817.184	-23.25
3819.825	-24.25
3822.463	-22.25
3825.1	-21.25
3827.735	-20.25
3830.367	-23.25
3832.998	-23.25
3835.627	-24.25
3838.253	-22.25
3840.878	-23.25
3843.501	-18.25
3846.122	-24.25
3848.741	-20.25
3851.358	-20.25
3853.973	-20.25
3856.586	-23.25
3859.197	-25.25
3861.806	-23.25
3864.414	-24.25
3867.019	-21.25
3869.622	-21.25
3872.224	-24.25
3874.823	-24.25
3877.421	-19.25
3880.016	-21.25
3882.61	-17.25
3885.202	-13.25
3887.792	-13.25
3890.38	-19.25
3892.966	-24.25
3895.55	-22.25
3898.132	-23.25
3900.713	-20.25
3903.291	-24.25
3905.868	-24.25
3908.442	-24.25
3911.015	-27.25
3913.586	-27.25
3916.155	-26.25
3918.722	-24.25
3921.287	-17.25
3923.85	-22.25
3926.411	-21.25
3928.971	-20.25
3931.528	-26.25
3934.084	-28.25
3936.638	-23.25
3939.19	-23.25
3941.74	-23.25
3944.288	-23.25
3946.834	-21.25
3949.378	-24.25
3951.921	-23.25
3954.462	-22.25
3957	-26.25
3959.537	-23.25
3962.072	-21.25
3964.606	-21.25
3967.137	-20.25
3969.667	-27.25
3972.194	-24.25
3974.72	-26.25
3977.244	-24.25
3979.766	-23.25
3982.286	-21.25
3984.805	-26.25
3987.321	-24.25
3989.836	-26.25
3992.349	-22.25
3994.86	-22.25
3997.369	-20.25
3999.877	-23.25
4002.382	-26.25
4004.886	-23.25
4007.388	-23.25
4009.888	-24.25
4012.386	-21.25
4014.883	-22.25
4017.377	-23.25
4019.87	-21.25
4022.361	-22.25
4024.85	-29.25
4027.338	-26.25
4029.823	-29.25
4032.307	-25.25
4034.789	-20.25
4037.269	-18.25
4039.747	-23.25
4042.224	-23.25
4044.699	-28.25
4047.172	-30.25
4049.643	-24.25
4052.112	-22.25
4054.58	-21.25
4057.046	-19.25
4059.51	-27.25
4061.972	-24.25
4064.432	-22.25
4066.891	-25.25
4069.348	-23.25
4071.803	-22.25
4074.256	-23.25
4076.708	-21.25
4079.158	-23.25
4081.606	-23.25
4084.052	-19.25
4086.497	-21.25
4088.939	-22.25
4091.38	-24.25
4093.819	-23.25
4096.257	-23.25
4098.693	-28.25
4101.127	-27.25
4103.559	-26.25
4105.989	-9.25
4108.418	-10.25
4110.845	-7.25
4113.27	-7.25
4115.694	-11.25
4118.115	-9.25
4120.535	-25.25
4122.954	-28.25
4125.37	-25.25
4127.785	-22.25
4130.198	-20.25
4132.609	-21.25
4135.019	-23.25
4137.427	-27.25
4139.833	-20.25
4142.237	-28.25
