Data from 1000CFU2_C_RamanShift_1.txt Node
Date: Thu Feb 02 15:06:05 IST 2017
User: aro
Spectrometer: QEPB0276
Trigger mode: 0
Integration Time (sec): 5.000000E0
Scans to average: 1
Electric dark correction enabled: true
Nonlinearity correction enabled: false
Boxcar width: 0
XAxis mode: Raman Shifts
Number of Pixels in Spectrum: 1044
>>>>>Begin Spectral Data<<<<<
160.701	-3.62
166.742	0.38
172.777	24.38
178.805	77.38
184.826	196.38
190.841	390.38
196.849	610.38
202.85	748.38
208.845	795.38
214.833	790.38
220.815	769.38
226.789	759.38
232.758	746.38
238.719	745.38
244.674	728.38
250.623	721.38
256.565	702.38
262.5	673.38
268.429	663.38
274.351	663.38
280.267	640.38
286.176	630.38
292.079	629.38
297.975	634.38
303.865	625.38
309.748	626.38
315.625	615.38
321.495	621.38
327.359	614.38
333.217	620.38
339.068	619.38
344.912	622.38
350.751	634.38
356.583	638.38
362.408	638.38
368.227	633.38
374.04	617.38
379.847	618.38
385.647	625.38
391.44	616.38
397.228	628.38
403.009	623.38
408.784	630.38
414.553	636.38
420.315	653.38
426.071	640.38
431.821	661.38
437.565	645.38
443.302	638.38
449.033	658.38
454.758	646.38
460.477	629.38
466.189	629.38
471.896	612.38
477.596	617.38
483.29	599.38
488.978	593.38
494.66	579.38
500.335	573.38
506.005	553.38
511.668	532.38
517.325	526.38
522.977	497.38
528.622	475.38
534.261	459.38
539.894	459.38
545.521	455.38
551.141	441.38
556.756	444.38
562.365	438.38
567.968	437.38
573.565	435.38
579.155	430.38
584.74	419.38
590.319	418.38
595.892	415.38
601.459	417.38
607.02	422.38
612.575	410.38
618.124	417.38
623.667	400.38
629.204	392.38
634.735	393.38
640.261	386.38
645.781	386.38
651.294	384.38
656.802	374.38
662.304	375.38
667.8	376.38
673.29	376.38
678.775	367.38
684.254	363.38
689.726	359.38
695.193	353.38
700.655	354.38
706.11	363.38
711.56	370.38
717.004	360.38
722.442	354.38
727.874	352.38
733.301	357.38
738.722	342.38
744.137	347.38
749.547	346.38
754.951	346.38
760.349	339.38
765.741	352.38
771.128	351.38
776.509	346.38
781.885	357.38
787.254	349.38
792.618	352.38
797.977	356.38
803.33	354.38
808.677	345.38
814.019	351.38
819.355	354.38
824.686	345.38
830.011	347.38
835.33	357.38
840.644	352.38
845.952	358.38
851.255	358.38
856.552	352.38
861.844	368.38
867.13	361.38
872.41	359.38
877.686	371.38
882.955	365.38
888.219	357.38
893.478	358.38
898.731	340.38
903.979	340.38
909.221	325.38
914.458	331.38
919.69	318.38
924.916	322.38
930.136	314.38
935.351	322.38
940.561	312.38
945.766	316.38
950.965	319.38
956.158	314.38
961.347	303.38
966.529	298.38
971.707	290.38
976.879	278.38
982.046	285.38
987.208	292.38
992.364	289.38
997.515	293.38
1002.66	297.38
1007.801	298.38
1012.936	308.38
1018.066	309.38
1023.19	312.38
1028.309	313.38
1033.423	316.38
1038.532	308.38
1043.636	314.38
1048.734	310.38
1053.827	318.38
1058.915	320.38
1063.998	329.38
1069.075	342.38
1074.147	343.38
1079.214	335.38
1084.276	345.38
1089.333	352.38
1094.385	338.38
1099.431	346.38
1104.472	330.38
1109.509	321.38
1114.54	312.38
1119.565	313.38
1124.586	317.38
1129.602	318.38
1134.613	313.38
1139.618	302.38
1144.619	279.38
1149.614	274.38
1154.604	266.38
1159.589	269.38
1164.57	259.38
1169.545	260.38
1174.515	261.38
1179.48	246.38
1184.44	246.38
1189.395	236.38
1194.345	245.38
1199.29	240.38
1204.23	240.38
1209.165	248.38
1214.095	252.38
1219.021	250.38
1223.941	242.38
1228.856	251.38
1233.766	257.38
1238.672	259.38
1243.572	274.38
1248.467	269.38
1253.358	268.38
1258.244	275.38
1263.124	277.38
1268	266.38
1272.871	263.38
1277.737	264.38
1282.599	258.38
1287.455	259.38
1292.306	262.38
1297.153	280.38
1301.995	287.38
1306.832	299.38
1311.664	293.38
1316.491	272.38
1321.314	272.38
1326.132	251.38
1330.945	254.38
1335.753	244.38
1340.556	233.38
1345.354	244.38
1350.148	230.38
1354.937	227.38
1359.722	225.38
1364.501	219.38
1369.276	220.38
1374.046	220.38
1378.811	216.38
1383.572	216.38
1388.327	220.38
1393.079	208.38
1397.825	210.38
1402.567	201.38
1407.304	202.38
1412.036	205.38
1416.764	200.38
1421.487	209.38
1426.205	219.38
1430.919	222.38
1435.628	239.38
1440.333	261.38
1445.032	285.38
1449.727	297.38
1454.418	281.38
1459.104	283.38
1463.785	269.38
1468.462	261.38
1473.134	234.38
1477.802	220.38
1482.465	197.38
1487.123	182.38
1491.777	170.38
1496.426	166.38
1501.071	162.38
1505.711	159.38
1510.347	161.38
1514.978	165.38
1519.604	160.38
1524.226	159.38
1528.844	160.38
1533.457	156.38
1538.065	158.38
1542.669	160.38
1547.269	156.38
1551.864	155.38
1556.454	161.38
1561.041	156.38
1565.622	158.38
1570.199	148.38
1574.772	155.38
1579.34	150.38
1583.904	158.38
1588.464	155.38
1593.019	154.38
1597.569	156.38
1602.115	156.38
1606.657	172.38
1611.195	157.38
1615.728	161.38
1620.256	165.38
1624.78	175.38
1629.3	163.38
1633.816	172.38
1638.327	165.38
1642.834	174.38
1647.336	183.38
1651.834	190.38
1656.328	194.38
1660.817	191.38
1665.302	193.38
1669.783	184.38
1674.259	172.38
1678.732	173.38
1683.199	163.38
1687.663	157.38
1692.122	143.38
1696.577	144.38
1701.028	138.38
1705.474	132.38
1709.917	130.38
1714.355	125.38
1718.788	116.38
1723.218	112.38
1727.643	111.38
1732.064	109.38
1736.481	112.38
1740.893	115.38
1745.301	109.38
1749.705	104.38
1754.105	102.38
1758.501	95.38
1762.893	85.38
1767.28	90.38
1771.663	89.38
1776.042	87.38
1780.417	85.38
1784.787	85.38
1789.154	80.38
1793.516	83.38
1797.874	87.38
1802.228	83.38
1806.578	89.38
1810.924	85.38
1815.266	78.38
1819.603	82.38
1823.937	80.38
1828.266	77.38
1832.591	76.38
1836.913	73.38
1841.23	71.38
1845.543	73.38
1849.852	67.38
1854.156	70.38
1858.457	76.38
1862.754	70.38
1867.047	66.38
1871.335	67.38
1875.62	69.38
1879.9	70.38
1884.177	67.38
1888.449	72.38
1892.718	70.38
1896.982	68.38
1901.243	67.38
1905.499	70.38
1909.752	68.38
1914	66.38
1918.245	63.38
1922.485	66.38
1926.722	66.38
1930.954	68.38
1935.183	68.38
1939.408	70.38
1943.628	71.38
1947.845	64.38
1952.058	64.38
1956.267	67.38
1960.472	72.38
1964.673	63.38
1968.87	67.38
1973.063	62.38
1977.252	61.38
1981.438	63.38
1985.619	57.38
1989.797	55.38
1993.971	57.38
1998.14	61.38
2002.306	63.38
2006.469	62.38
2010.627	61.38
2014.781	61.38
2018.932	57.38
2023.078	61.38
2027.221	52.38
2031.36	55.38
2035.495	53.38
2039.627	56.38
2043.754	55.38
2047.878	57.38
2051.998	55.38
2056.114	50.38
2060.226	48.38
2064.334	53.38
2068.439	48.38
2072.54	50.38
2076.637	57.38
2080.73	58.38
2084.82	60.38
2088.906	61.38
2092.988	59.38
2097.066	54.38
2101.14	51.38
2105.211	52.38
2109.278	51.38
2113.342	58.38
2117.401	52.38
2121.457	56.38
2125.509	49.38
2129.558	51.38
2133.602	47.38
2137.643	50.38
2141.681	44.38
2145.714	47.38
2149.744	51.38
2153.77	49.38
2157.793	45.38
2161.812	44.38
2165.827	37.38
2169.838	41.38
2173.846	40.38
2177.851	44.38
2181.851	41.38
2185.848	44.38
2189.841	41.38
2193.831	40.38
2197.817	40.38
2201.799	42.38
2205.778	42.38
2209.753	37.38
2213.725	35.38
2217.693	38.38
2221.657	37.38
2225.618	36.38
2229.575	35.38
2233.529	34.38
2237.479	34.38
2241.425	32.38
2245.368	37.38
2249.307	35.38
2253.243	27.38
2257.175	32.38
2261.104	32.38
2265.029	29.38
2268.95	33.38
2272.868	31.38
2276.783	24.38
2280.694	27.38
2284.601	25.38
2288.505	28.38
2292.405	21.38
2296.302	28.38
2300.195	25.38
2304.085	21.38
2307.971	26.38
2311.854	17.38
2315.734	20.38
2319.609	17.38
2323.482	24.38
2327.351	27.38
2331.216	24.38
2335.078	23.38
2338.937	20.38
2342.792	21.38
2346.643	14.38
2350.492	15.38
2354.336	14.38
2358.178	16.38
2362.015	14.38
2365.85	15.38
2369.681	13.38
2373.508	15.38
2377.333	16.38
2381.153	18.38
2384.971	15.38
2388.785	17.38
2392.595	17.38
2396.402	14.38
2400.206	19.38
2404.007	14.38
2407.804	18.38
2411.597	14.38
2415.388	13.38
2419.174	10.38
2422.958	13.38
2426.738	11.38
2430.515	14.38
2434.289	12.38
2438.059	16.38
2441.825	12.38
2445.589	11.38
2449.349	14.38
2453.106	9.38
2456.859	9.38
2460.61	12.38
2464.356	15.38
2468.1	10.38
2471.84	14.38
2475.577	7.38
2479.311	4.38
2483.041	6.38
2486.768	2.38
2490.492	9.38
2494.213	13.38
2497.93	12.38
2501.644	10.38
2505.355	3.38
2509.062	7.38
2512.766	9.38
2516.467	9.38
2520.165	6.38
2523.859	8.38
2527.551	8.38
2531.239	17.38
2534.923	5.38
2538.605	5.38
2542.283	5.38
2545.958	7.38
2549.63	9.38
2553.299	9.38
2556.964	7.38
2560.626	9.38
2564.285	4.38
2567.941	8.38
2571.594	9.38
2575.243	9.38
2578.89	9.38
2582.533	8.38
2586.173	8.38
2589.809	7.38
2593.443	9.38
2597.073	4.38
2600.701	1.38
2604.325	8.38
2607.946	6.38
2611.564	2.38
2615.178	3.38
2618.79	3.38
2622.398	5.38
2626.004	9.38
2629.606	9.38
2633.205	8.38
2636.801	5.38
2640.394	6.38
2643.983	8.38
2647.57	4.38
2651.153	3.38
2654.734	4.38
2658.311	7.38
2661.885	7.38
2665.456	6.38
2669.025	8.38
2672.589	-2.62
2676.151	5.38
2679.71	1.38
2683.266	3.38
2686.819	2.38
2690.368	5.38
2693.915	4.38
2697.458	6.38
2700.999	1.38
2704.536	7.38
2708.071	6.38
2711.602	4.38
2715.13	2.38
2718.656	5.38
2722.178	4.38
2725.697	4.38
2729.214	8.38
2732.727	15.38
2736.237	12.38
2739.744	15.38
2743.249	8.38
2746.75	6.38
2750.248	2.38
2753.743	3.38
2757.236	5.38
2760.725	5.38
2764.211	13.38
2767.695	6.38
2771.175	8.38
2774.652	6.38
2778.127	3.38
2781.598	5.38
2785.067	4.38
2788.532	2.38
2791.995	3.38
2795.455	7.38
2798.911	6.38
2802.365	8.38
2805.816	8.38
2809.264	13.38
2812.709	11.38
2816.151	16.38
2819.59	13.38
2823.026	17.38
2826.46	18.38
2829.89	24.38
2833.318	22.38
2836.742	31.38
2840.164	39.38
2843.583	44.38
2846.999	53.38
2850.412	66.38
2853.822	65.38
2857.229	74.38
2860.634	81.38
2864.035	78.38
2867.434	82.38
2870.83	86.38
2874.223	90.38
2877.613	90.38
2881	98.38
2884.385	97.38
2887.766	107.38
2891.145	110.38
2894.521	107.38
2897.894	103.38
2901.264	102.38
2904.631	96.38
2907.996	96.38
2911.358	94.38
2914.717	96.38
2918.073	97.38
2921.426	91.38
2924.777	93.38
2928.124	87.38
2931.469	94.38
2934.811	95.38
2938.15	92.38
2941.487	88.38
2944.821	85.38
2948.152	72.38
2951.48	69.38
2954.805	62.38
2958.128	64.38
2961.447	62.38
2964.765	57.38
2968.079	57.38
2971.39	53.38
2974.699	50.38
2978.005	42.38
2981.308	44.38
2984.609	46.38
2987.907	43.38
2991.202	43.38
2994.494	38.38
2997.784	39.38
3001.07	33.38
3004.355	38.38
3007.636	35.38
3010.915	34.38
3014.191	29.38
3017.464	31.38
3020.734	30.38
3024.002	28.38
3027.267	26.38
3030.53	29.38
3033.789	31.38
3037.046	28.38
3040.301	30.38
3043.552	31.38
3046.801	30.38
3050.048	31.38
3053.291	38.38
3056.532	38.38
3059.771	36.38
3063.006	34.38
3066.239	35.38
3069.469	40.38
3072.697	36.38
3075.922	44.38
3079.144	45.38
3082.364	47.38
3085.581	43.38
3088.795	48.38
3092.007	45.38
3095.216	50.38
3098.423	50.38
3101.627	51.38
3104.828	49.38
3108.026	57.38
3111.222	55.38
3114.416	59.38
3117.607	59.38
3120.795	60.38
3123.98	62.38
3127.163	65.38
3130.344	63.38
3133.521	66.38
3136.696	60.38
3139.869	69.38
3143.039	77.38
3146.206	81.38
3149.371	76.38
3152.533	75.38
3155.693	75.38
3158.85	68.38
3162.005	74.38
3165.157	79.38
3168.306	74.38
3171.453	88.38
3174.597	78.38
3177.739	81.38
3180.878	78.38
3184.014	77.38
3187.149	74.38
3190.28	76.38
3193.409	76.38
3196.536	80.38
3199.659	79.38
3202.781	82.38
3205.9	83.38
3209.016	87.38
3212.13	83.38
3215.241	85.38
3218.35	77.38
3221.456	76.38
3224.56	76.38
3227.661	75.38
3230.76	72.38
3233.856	77.38
3236.95	70.38
3240.041	75.38
3243.13	74.38
3246.216	70.38
3249.3	66.38
3252.382	71.38
3255.46	69.38
3258.537	75.38
3261.611	70.38
3264.682	72.38
3267.751	67.38
3270.818	66.38
3273.882	58.38
3276.943	67.38
3280.002	60.38
3283.059	70.38
3286.113	68.38
3289.165	70.38
3292.214	65.38
3295.261	61.38
3298.306	64.38
3301.348	62.38
3304.387	58.38
3307.425	59.38
3310.459	56.38
3313.492	55.38
3316.521	55.38
3319.549	56.38
3322.574	56.38
3325.597	50.38
3328.617	48.38
3331.635	48.38
3334.65	49.38
3337.663	47.38
3340.674	50.38
3343.682	49.38
3346.688	51.38
3349.691	54.38
3352.692	51.38
3355.691	49.38
3358.687	50.38
3361.681	50.38
3364.673	50.38
3367.662	48.38
3370.649	51.38
3373.633	50.38
3376.615	44.38
3379.595	39.38
3382.572	43.38
3385.547	43.38
3388.52	41.38
3391.49	41.38
3394.458	42.38
3397.424	38.38
3400.387	38.38
3403.348	39.38
3406.307	37.38
3409.263	35.38
3412.217	34.38
3415.168	35.38
3418.118	36.38
3421.065	35.38
3424.009	31.38
3426.951	35.38
3429.891	35.38
3432.829	32.38
3435.764	30.38
3438.697	33.38
3441.628	23.38
3444.557	23.38
3447.483	24.38
3450.407	28.38
3453.328	24.38
3456.247	28.38
3459.164	23.38
3462.079	23.38
3464.991	17.38
3467.902	17.38
3470.809	18.38
3473.715	17.38
3476.618	15.38
3479.519	16.38
3482.418	10.38
3485.315	11.38
3488.209	10.38
3491.101	9.38
3493.99	11.38
3496.878	8.38
3499.763	7.38
3502.646	8.38
3505.527	4.38
3508.405	8.38
3511.281	5.38
3514.155	7.38
3517.027	4.38
3519.897	5.38
3522.764	0.38
3525.629	2.38
3528.492	4.38
3531.352	-2.62
3534.211	-2.62
3537.067	-0.62
3539.921	-0.62
3542.773	-5.62
3545.622	-4.62
3548.469	-4.62
3551.315	-8.62
3554.157	-6.62
3556.998	-5.62
3559.837	-5.62
3562.673	-2.62
3565.507	-9.62
3568.339	-9.62
3571.169	-7.62
3573.996	-10.62
3576.822	-8.62
3579.645	-11.62
3582.466	-9.62
3585.285	-7.62
3588.101	-8.62
3590.916	-16.62
3593.728	-14.62
3596.538	-15.62
3599.346	-16.62
3602.152	-14.62
3604.956	-12.62
3607.757	-10.62
3610.556	-12.62
3613.354	-18.62
3616.149	-19.62
3618.942	-14.62
3621.732	-21.62
3624.521	-19.62
3627.307	-15.62
3630.092	-16.62
3632.874	-17.62
3635.654	-18.62
3638.432	-18.62
3641.208	-18.62
3643.982	-18.62
3646.753	-18.62
3649.523	-16.62
3652.29	-15.62
3655.055	-18.62
3657.818	-25.62
3660.579	-17.62
3663.338	-19.62
3666.095	-15.62
3668.849	-20.62
3671.602	-21.62
3674.352	-23.62
3677.101	-20.62
3679.847	-21.62
3682.591	-21.62
3685.333	-20.62
3688.073	-21.62
3690.811	-22.62
3693.547	-30.62
3696.281	-23.62
3699.013	-23.62
3701.742	-23.62
3704.47	-19.62
3707.195	-20.62
3709.919	-20.62
3712.64	-25.62
3715.359	-22.62
3718.076	-23.62
3720.792	-27.62
3723.505	-19.62
3726.216	-20.62
3728.925	-22.62
3731.632	-23.62
3734.336	-22.62
3737.039	-20.62
3739.74	-27.62
3742.439	-23.62
3745.136	-24.62
3747.83	-20.62
3750.523	-20.62
3753.213	-28.62
3755.902	-21.62
3758.589	-24.62
3761.273	-22.62
3763.956	-22.62
3766.636	-22.62
3769.315	-22.62
3771.991	-24.62
3774.665	-24.62
3777.338	-22.62
3780.008	-20.62
3782.677	-21.62
3785.343	-22.62
3788.007	-21.62
3790.67	-21.62
3793.33	-27.62
3795.989	-27.62
3798.645	-21.62
3801.299	-20.62
3803.952	-22.62
3806.602	-24.62
3809.251	-23.62
3811.897	-23.62
3814.542	-27.62
3817.184	-25.62
3819.825	-23.62
3822.463	-18.62
3825.1	-25.62
3827.735	-18.62
3830.367	-22.62
3832.998	-24.62
3835.627	-27.62
3838.253	-22.62
3840.878	-27.62
3843.501	-22.62
3846.122	-25.62
3848.741	-21.62
3851.358	-22.62
3853.973	-23.62
3856.586	-26.62
3859.197	-27.62
3861.806	-23.62
3864.414	-24.62
3867.019	-22.62
3869.622	-25.62
3872.224	-26.62
3874.823	-23.62
3877.421	-16.62
3880.016	-21.62
3882.61	-19.62
3885.202	-13.62
3887.792	-14.62
3890.38	-15.62
3892.966	-22.62
3895.55	-23.62
3898.132	-22.62
3900.713	-21.62
3903.291	-24.62
3905.868	-22.62
3908.442	-24.62
3911.015	-24.62
3913.586	-27.62
3916.155	-27.62
3918.722	-20.62
3921.287	-17.62
3923.85	-22.62
3926.411	-23.62
3928.971	-20.62
3931.528	-26.62
3934.084	-27.62
3936.638	-23.62
3939.19	-26.62
3941.74	-21.62
3944.288	-23.62
3946.834	-24.62
3949.378	-26.62
3951.921	-23.62
3954.462	-23.62
3957	-24.62
3959.537	-25.62
3962.072	-22.62
3964.606	-20.62
3967.137	-21.62
3969.667	-24.62
3972.194	-22.62
3974.72	-23.62
3977.244	-22.62
3979.766	-24.62
3982.286	-22.62
3984.805	-23.62
3987.321	-23.62
3989.836	-26.62
3992.349	-22.62
3994.86	-22.62
3997.369	-21.62
3999.877	-22.62
4002.382	-25.62
4004.886	-25.62
4007.388	-25.62
4009.888	-27.62
4012.386	-22.62
4014.883	-21.62
4017.377	-23.62
4019.87	-22.62
4022.361	-19.62
4024.85	-27.62
4027.338	-28.62
4029.823	-25.62
4032.307	-24.62
4034.789	-21.62
4037.269	-21.62
4039.747	-21.62
4042.224	-22.62
4044.699	-27.62
4047.172	-25.62
4049.643	-26.62
4052.112	-23.62
4054.58	-20.62
4057.046	-20.62
4059.51	-24.62
4061.972	-24.62
4064.432	-21.62
4066.891	-22.62
4069.348	-22.62
4071.803	-24.62
4074.256	-23.62
4076.708	-23.62
4079.158	-26.62
4081.606	-24.62
4084.052	-23.62
4086.497	-19.62
4088.939	-21.62
4091.38	-21.62
4093.819	-23.62
4096.257	-23.62
4098.693	-26.62
4101.127	-22.62
4103.559	-27.62
4105.989	-11.62
4108.418	-12.62
4110.845	-7.62
4113.27	-12.62
4115.694	-6.62
4118.115	-6.62
4120.535	-22.62
4122.954	-27.62
4125.37	-22.62
4127.785	-21.62
4130.198	-21.62
4132.609	-22.62
4135.019	-24.62
4137.427	-24.62
4139.833	-21.62
4142.237	-27.62
