Data from 1000000CFU1_A_RamanShift_1.txt Node
Date: Thu Feb 02 13:58:40 IST 2017
User: aro
Spectrometer: QEPB0276
Trigger mode: 0
Integration Time (sec): 5.000000E0
Scans to average: 1
Electric dark correction enabled: true
Nonlinearity correction enabled: false
Boxcar width: 0
XAxis mode: Raman Shifts
Number of Pixels in Spectrum: 1044
>>>>>Begin Spectral Data<<<<<
160.701	-5.12
166.742	3.88
172.777	21.88
178.805	91.88
184.826	219.88
190.841	427.88
196.849	661.88
202.85	820.88
208.845	861.88
214.833	853.88
220.815	823.88
226.789	826.88
232.758	815.88
238.719	821.88
244.674	793.88
250.623	756.88
256.565	748.88
262.5	736.88
268.429	712.88
274.351	705.88
280.267	695.88
286.176	684.88
292.079	674.88
297.975	670.88
303.865	657.88
309.748	647.88
315.625	649.88
321.495	646.88
327.359	652.88
333.217	647.88
339.068	656.88
344.912	668.88
350.751	673.88
356.583	669.88
362.408	673.88
368.227	658.88
374.04	659.88
379.847	655.88
385.647	647.88
391.44	662.88
397.228	655.88
403.009	652.88
408.784	665.88
414.553	669.88
420.315	679.88
426.071	680.88
431.821	688.88
437.565	685.88
443.302	673.88
449.033	673.88
454.758	674.88
460.477	661.88
466.189	659.88
471.896	656.88
477.596	643.88
483.29	639.88
488.978	624.88
494.66	626.88
500.335	608.88
506.005	582.88
511.668	573.88
517.325	539.88
522.977	533.88
528.622	511.88
534.261	496.88
539.894	481.88
545.521	476.88
551.141	470.88
556.756	475.88
562.365	467.88
567.968	451.88
573.565	460.88
579.155	446.88
584.74	449.88
590.319	451.88
595.892	448.88
601.459	446.88
607.02	439.88
612.575	431.88
618.124	425.88
623.667	430.88
629.204	419.88
634.735	413.88
640.261	419.88
645.781	420.88
651.294	421.88
656.802	401.88
662.304	398.88
667.8	396.88
673.29	397.88
678.775	392.88
684.254	391.88
689.726	389.88
695.193	393.88
700.655	386.88
706.11	381.88
711.56	378.88
717.004	381.88
722.442	373.88
727.874	373.88
733.301	381.88
738.722	375.88
744.137	369.88
749.547	371.88
754.951	367.88
760.349	374.88
765.741	371.88
771.128	368.88
776.509	374.88
781.885	381.88
787.254	379.88
792.618	383.88
797.977	378.88
803.33	373.88
808.677	370.88
814.019	372.88
819.355	370.88
824.686	374.88
830.011	372.88
835.33	371.88
840.644	380.88
845.952	379.88
851.255	397.88
856.552	391.88
861.844	392.88
867.13	393.88
872.41	392.88
877.686	392.88
882.955	396.88
888.219	385.88
893.478	379.88
898.731	368.88
903.979	370.88
909.221	353.88
914.458	356.88
919.69	353.88
924.916	345.88
930.136	335.88
935.351	340.88
940.561	340.88
945.766	341.88
950.965	340.88
956.158	339.88
961.347	330.88
966.529	313.88
971.707	315.88
976.879	307.88
982.046	305.88
987.208	311.88
992.364	312.88
997.515	306.88
1002.66	312.88
1007.801	330.88
1012.936	331.88
1018.066	332.88
1023.19	332.88
1028.309	348.88
1033.423	347.88
1038.532	348.88
1043.636	346.88
1048.734	341.88
1053.827	343.88
1058.915	356.88
1063.998	361.88
1069.075	370.88
1074.147	370.88
1079.214	377.88
1084.276	372.88
1089.333	375.88
1094.385	379.88
1099.431	377.88
1104.472	365.88
1109.509	351.88
1114.54	339.88
1119.565	342.88
1124.586	346.88
1129.602	347.88
1134.613	331.88
1139.618	329.88
1144.619	305.88
1149.614	298.88
1154.604	291.88
1159.589	292.88
1164.57	291.88
1169.545	290.88
1174.515	271.88
1179.48	278.88
1184.44	266.88
1189.395	265.88
1194.345	254.88
1199.29	257.88
1204.23	257.88
1209.165	261.88
1214.095	270.88
1219.021	258.88
1223.941	259.88
1228.856	267.88
1233.766	275.88
1238.672	283.88
1243.572	298.88
1248.467	302.88
1253.358	292.88
1258.244	295.88
1263.124	295.88
1268	302.88
1272.871	287.88
1277.737	290.88
1282.599	289.88
1287.455	279.88
1292.306	292.88
1297.153	301.88
1301.995	320.88
1306.832	330.88
1311.664	328.88
1316.491	307.88
1321.314	303.88
1326.132	284.88
1330.945	281.88
1335.753	262.88
1340.556	256.88
1345.354	253.88
1350.148	257.88
1354.937	254.88
1359.722	240.88
1364.501	241.88
1369.276	235.88
1374.046	242.88
1378.811	242.88
1383.572	240.88
1388.327	234.88
1393.079	229.88
1397.825	220.88
1402.567	228.88
1407.304	220.88
1412.036	223.88
1416.764	222.88
1421.487	238.88
1426.205	238.88
1430.919	241.88
1435.628	267.88
1440.333	295.88
1445.032	320.88
1449.727	331.88
1454.418	323.88
1459.104	309.88
1463.785	299.88
1468.462	287.88
1473.134	264.88
1477.802	233.88
1482.465	212.88
1487.123	193.88
1491.777	184.88
1496.426	185.88
1501.071	177.88
1505.711	173.88
1510.347	180.88
1514.978	174.88
1519.604	171.88
1524.226	170.88
1528.844	170.88
1533.457	172.88
1538.065	169.88
1542.669	172.88
1547.269	168.88
1551.864	166.88
1556.454	168.88
1561.041	169.88
1565.622	172.88
1570.199	168.88
1574.772	168.88
1579.34	166.88
1583.904	171.88
1588.464	172.88
1593.019	179.88
1597.569	178.88
1602.115	173.88
1606.657	180.88
1611.195	183.88
1615.728	185.88
1620.256	182.88
1624.78	187.88
1629.3	183.88
1633.816	179.88
1638.327	190.88
1642.834	197.88
1647.336	202.88
1651.834	206.88
1656.328	211.88
1660.817	214.88
1665.302	211.88
1669.783	202.88
1674.259	192.88
1678.732	185.88
1683.199	182.88
1687.663	168.88
1692.122	154.88
1696.577	152.88
1701.028	150.88
1705.474	141.88
1709.917	137.88
1714.355	136.88
1718.788	125.88
1723.218	126.88
1727.643	118.88
1732.064	124.88
1736.481	123.88
1740.893	119.88
1745.301	121.88
1749.705	115.88
1754.105	116.88
1758.501	98.88
1762.893	102.88
1767.28	94.88
1771.663	99.88
1776.042	90.88
1780.417	90.88
1784.787	88.88
1789.154	87.88
1793.516	93.88
1797.874	94.88
1802.228	89.88
1806.578	94.88
1810.924	92.88
1815.266	86.88
1819.603	85.88
1823.937	77.88
1828.266	78.88
1832.591	87.88
1836.913	81.88
1841.23	78.88
1845.543	82.88
1849.852	70.88
1854.156	75.88
1858.457	78.88
1862.754	73.88
1867.047	76.88
1871.335	76.88
1875.62	79.88
1879.9	77.88
1884.177	79.88
1888.449	78.88
1892.718	77.88
1896.982	73.88
1901.243	73.88
1905.499	74.88
1909.752	76.88
1914	77.88
1918.245	69.88
1922.485	71.88
1926.722	71.88
1930.954	69.88
1935.183	72.88
1939.408	74.88
1943.628	71.88
1947.845	72.88
1952.058	78.88
1956.267	71.88
1960.472	71.88
1964.673	69.88
1968.87	65.88
1973.063	70.88
1977.252	63.88
1981.438	65.88
1985.619	64.88
1989.797	60.88
1993.971	65.88
1998.14	62.88
2002.306	64.88
2006.469	61.88
2010.627	63.88
2014.781	63.88
2018.932	64.88
2023.078	65.88
2027.221	62.88
2031.36	57.88
2035.495	54.88
2039.627	61.88
2043.754	54.88
2047.878	56.88
2051.998	61.88
2056.114	55.88
2060.226	58.88
2064.334	57.88
2068.439	59.88
2072.54	54.88
2076.637	61.88
2080.73	64.88
2084.82	63.88
2088.906	63.88
2092.988	62.88
2097.066	58.88
2101.14	59.88
2105.211	56.88
2109.278	55.88
2113.342	60.88
2117.401	57.88
2121.457	65.88
2125.509	57.88
2129.558	57.88
2133.602	56.88
2137.643	58.88
2141.681	51.88
2145.714	53.88
2149.744	56.88
2153.77	55.88
2157.793	52.88
2161.812	51.88
2165.827	47.88
2169.838	49.88
2173.846	46.88
2177.851	46.88
2181.851	46.88
2185.848	46.88
2189.841	47.88
2193.831	43.88
2197.817	44.88
2201.799	41.88
2205.778	42.88
2209.753	37.88
2213.725	44.88
2217.693	45.88
2221.657	39.88
2225.618	42.88
2229.575	43.88
2233.529	39.88
2237.479	39.88
2241.425	37.88
2245.368	36.88
2249.307	38.88
2253.243	37.88
2257.175	37.88
2261.104	36.88
2265.029	39.88
2268.95	35.88
2272.868	29.88
2276.783	29.88
2280.694	32.88
2284.601	25.88
2288.505	27.88
2292.405	27.88
2296.302	31.88
2300.195	31.88
2304.085	27.88
2307.971	21.88
2311.854	25.88
2315.734	23.88
2319.609	23.88
2323.482	25.88
2327.351	27.88
2331.216	28.88
2335.078	30.88
2338.937	26.88
2342.792	20.88
2346.643	16.88
2350.492	19.88
2354.336	16.88
2358.178	20.88
2362.015	17.88
2365.85	20.88
2369.681	14.88
2373.508	17.88
2377.333	20.88
2381.153	21.88
2384.971	15.88
2388.785	17.88
2392.595	19.88
2396.402	17.88
2400.206	18.88
2404.007	13.88
2407.804	17.88
2411.597	16.88
2415.388	13.88
2419.174	21.88
2422.958	16.88
2426.738	13.88
2430.515	11.88
2434.289	8.88
2438.059	14.88
2441.825	12.88
2445.589	16.88
2449.349	10.88
2453.106	11.88
2456.859	11.88
2460.61	11.88
2464.356	10.88
2468.1	12.88
2471.84	13.88
2475.577	11.88
2479.311	8.88
2483.041	10.88
2486.768	10.88
2490.492	14.88
2494.213	10.88
2497.93	11.88
2501.644	8.88
2505.355	7.88
2509.062	6.88
2512.766	12.88
2516.467	10.88
2520.165	7.88
2523.859	8.88
2527.551	10.88
2531.239	9.88
2534.923	6.88
2538.605	10.88
2542.283	7.88
2545.958	10.88
2549.63	10.88
2553.299	12.88
2556.964	5.88
2560.626	7.88
2564.285	4.88
2567.941	8.88
2571.594	10.88
2575.243	10.88
2578.89	11.88
2582.533	9.88
2586.173	11.88
2589.809	6.88
2593.443	10.88
2597.073	7.88
2600.701	11.88
2604.325	12.88
2607.946	13.88
2611.564	7.88
2615.178	8.88
2618.79	10.88
2622.398	9.88
2626.004	8.88
2629.606	9.88
2633.205	11.88
2636.801	8.88
2640.394	10.88
2643.983	5.88
2647.57	3.88
2651.153	9.88
2654.734	6.88
2658.311	8.88
2661.885	8.88
2665.456	5.88
2669.025	4.88
2672.589	3.88
2676.151	3.88
2679.71	8.88
2683.266	4.88
2686.819	9.88
2690.368	7.88
2693.915	9.88
2697.458	5.88
2700.999	1.88
2704.536	7.88
2708.071	5.88
2711.602	5.88
2715.13	6.88
2718.656	7.88
2722.178	7.88
2725.697	5.88
2729.214	6.88
2732.727	10.88
2736.237	10.88
2739.744	14.88
2743.249	13.88
2746.75	9.88
2750.248	11.88
2753.743	8.88
2757.236	2.88
2760.725	10.88
2764.211	13.88
2767.695	8.88
2771.175	13.88
2774.652	9.88
2778.127	5.88
2781.598	6.88
2785.067	8.88
2788.532	6.88
2791.995	7.88
2795.455	10.88
2798.911	10.88
2802.365	10.88
2805.816	11.88
2809.264	15.88
2812.709	16.88
2816.151	16.88
2819.59	18.88
2823.026	20.88
2826.46	25.88
2829.89	27.88
2833.318	31.88
2836.742	34.88
2840.164	42.88
2843.583	49.88
2846.999	61.88
2850.412	84.88
2853.822	84.88
2857.229	94.88
2860.634	98.88
2864.035	101.88
2867.434	101.88
2870.83	104.88
2874.223	101.88
2877.613	112.88
2881	123.88
2884.385	128.88
2887.766	132.88
2891.145	133.88
2894.521	124.88
2897.894	122.88
2901.264	125.88
2904.631	121.88
2907.996	118.88
2911.358	117.88
2914.717	122.88
2918.073	115.88
2921.426	111.88
2924.777	112.88
2928.124	111.88
2931.469	114.88
2934.811	113.88
2938.15	106.88
2941.487	111.88
2944.821	99.88
2948.152	89.88
2951.48	81.88
2954.805	84.88
2958.128	75.88
2961.447	78.88
2964.765	71.88
2968.079	67.88
2971.39	63.88
2974.699	57.88
2978.005	56.88
2981.308	53.88
2984.609	55.88
2987.907	50.88
2991.202	48.88
2994.494	47.88
2997.784	47.88
3001.07	44.88
3004.355	42.88
3007.636	47.88
3010.915	42.88
3014.191	45.88
3017.464	41.88
3020.734	35.88
3024.002	36.88
3027.267	33.88
3030.53	38.88
3033.789	41.88
3037.046	36.88
3040.301	37.88
3043.552	40.88
3046.801	36.88
3050.048	39.88
3053.291	42.88
3056.532	43.88
3059.771	40.88
3063.006	45.88
3066.239	47.88
3069.469	46.88
3072.697	50.88
3075.922	53.88
3079.144	53.88
3082.364	56.88
3085.581	55.88
3088.795	58.88
3092.007	55.88
3095.216	66.88
3098.423	61.88
3101.627	61.88
3104.828	69.88
3108.026	66.88
3111.222	64.88
3114.416	70.88
3117.607	69.88
3120.795	69.88
3123.98	77.88
3127.163	73.88
3130.344	74.88
3133.521	75.88
3136.696	82.88
3139.869	86.88
3143.039	93.88
3146.206	87.88
3149.371	91.88
3152.533	88.88
3155.693	88.88
3158.85	83.88
3162.005	94.88
3165.157	92.88
3168.306	96.88
3171.453	99.88
3174.597	96.88
3177.739	92.88
3180.878	90.88
3184.014	90.88
3187.149	91.88
3190.28	94.88
3193.409	101.88
3196.536	97.88
3199.659	94.88
3202.781	93.88
3205.9	91.88
3209.016	99.88
3212.13	101.88
3215.241	94.88
3218.35	96.88
3221.456	91.88
3224.56	86.88
3227.661	91.88
3230.76	86.88
3233.856	92.88
3236.95	90.88
3240.041	86.88
3243.13	88.88
3246.216	87.88
3249.3	83.88
3252.382	86.88
3255.46	84.88
3258.537	84.88
3261.611	83.88
3264.682	81.88
3267.751	87.88
3270.818	82.88
3273.882	80.88
3276.943	81.88
3280.002	78.88
3283.059	79.88
3286.113	82.88
3289.165	73.88
3292.214	73.88
3295.261	77.88
3298.306	79.88
3301.348	73.88
3304.387	72.88
3307.425	70.88
3310.459	66.88
3313.492	69.88
3316.521	63.88
3319.549	64.88
3322.574	62.88
3325.597	64.88
3328.617	67.88
3331.635	62.88
3334.65	60.88
3337.663	58.88
3340.674	63.88
3343.682	62.88
3346.688	67.88
3349.691	66.88
3352.692	59.88
3355.691	62.88
3358.687	57.88
3361.681	58.88
3364.673	58.88
3367.662	60.88
3370.649	60.88
3373.633	60.88
3376.615	58.88
3379.595	47.88
3382.572	47.88
3385.547	53.88
3388.52	48.88
3391.49	51.88
3394.458	52.88
3397.424	48.88
3400.387	47.88
3403.348	52.88
3406.307	46.88
3409.263	49.88
3412.217	46.88
3415.168	42.88
3418.118	41.88
3421.065	38.88
3424.009	38.88
3426.951	42.88
3429.891	43.88
3432.829	39.88
3435.764	39.88
3438.697	38.88
3441.628	32.88
3444.557	30.88
3447.483	33.88
3450.407	33.88
3453.328	32.88
3456.247	33.88
3459.164	29.88
3462.079	25.88
3464.991	25.88
3467.902	21.88
3470.809	23.88
3473.715	21.88
3476.618	24.88
3479.519	20.88
3482.418	18.88
3485.315	16.88
3488.209	11.88
3491.101	8.88
3493.99	15.88
3496.878	15.88
3499.763	13.88
3502.646	14.88
3505.527	13.88
3508.405	8.88
3511.281	5.88
3514.155	7.88
3517.027	8.88
3519.897	7.88
3522.764	7.88
3525.629	6.88
3528.492	2.88
3531.352	2.88
3534.211	-0.12
3537.067	-3.12
3539.921	2.88
3542.773	-1.12
3545.622	-2.12
3548.469	-3.12
3551.315	-4.12
3554.157	-8.12
3556.998	-6.12
3559.837	-7.12
3562.673	-2.12
3565.507	-8.12
3568.339	-5.12
3571.169	-8.12
3573.996	-10.12
3576.822	-10.12
3579.645	-10.12
3582.466	-10.12
3585.285	-7.12
3588.101	-11.12
3590.916	-13.12
3593.728	-11.12
3596.538	-15.12
3599.346	-15.12
3602.152	-12.12
3604.956	-15.12
3607.757	-17.12
3610.556	-15.12
3613.354	-16.12
3616.149	-16.12
3618.942	-13.12
3621.732	-17.12
3624.521	-18.12
3627.307	-15.12
3630.092	-20.12
3632.874	-21.12
3635.654	-19.12
3638.432	-19.12
3641.208	-17.12
3643.982	-16.12
3646.753	-15.12
3649.523	-17.12
3652.29	-21.12
3655.055	-22.12
3657.818	-26.12
3660.579	-22.12
3663.338	-21.12
3666.095	-15.12
3668.849	-18.12
3671.602	-23.12
3674.352	-22.12
3677.101	-24.12
3679.847	-25.12
3682.591	-21.12
3685.333	-18.12
3688.073	-22.12
3690.811	-21.12
3693.547	-27.12
3696.281	-23.12
3699.013	-24.12
3701.742	-26.12
3704.47	-19.12
3707.195	-21.12
3709.919	-23.12
3712.64	-26.12
3715.359	-25.12
3718.076	-22.12
3720.792	-29.12
3723.505	-19.12
3726.216	-22.12
3728.925	-24.12
3731.632	-24.12
3734.336	-23.12
3737.039	-21.12
3739.74	-28.12
3742.439	-26.12
3745.136	-22.12
3747.83	-23.12
3750.523	-21.12
3753.213	-23.12
3755.902	-22.12
3758.589	-25.12
3761.273	-26.12
3763.956	-24.12
3766.636	-21.12
3769.315	-23.12
3771.991	-26.12
3774.665	-27.12
3777.338	-24.12
3780.008	-24.12
3782.677	-22.12
3785.343	-27.12
3788.007	-23.12
3790.67	-26.12
3793.33	-27.12
3795.989	-26.12
3798.645	-24.12
3801.299	-24.12
3803.952	-24.12
3806.602	-24.12
3809.251	-26.12
3811.897	-27.12
3814.542	-27.12
3817.184	-22.12
3819.825	-25.12
3822.463	-22.12
3825.1	-24.12
3827.735	-22.12
3830.367	-29.12
3832.998	-23.12
3835.627	-28.12
3838.253	-22.12
3840.878	-23.12
3843.501	-20.12
3846.122	-25.12
3848.741	-20.12
3851.358	-28.12
3853.973	-28.12
3856.586	-25.12
3859.197	-26.12
3861.806	-22.12
3864.414	-23.12
3867.019	-21.12
3869.622	-23.12
3872.224	-29.12
3874.823	-30.12
3877.421	-22.12
3880.016	-21.12
3882.61	-16.12
3885.202	-11.12
3887.792	-12.12
3890.38	-21.12
3892.966	-27.12
3895.55	-24.12
3898.132	-26.12
3900.713	-24.12
3903.291	-21.12
3905.868	-26.12
3908.442	-24.12
3911.015	-28.12
3913.586	-29.12
3916.155	-30.12
3918.722	-28.12
3921.287	-22.12
3923.85	-24.12
3926.411	-23.12
3928.971	-22.12
3931.528	-29.12
3934.084	-29.12
3936.638	-26.12
3939.19	-27.12
3941.74	-23.12
3944.288	-23.12
3946.834	-25.12
3949.378	-26.12
3951.921	-24.12
3954.462	-25.12
3957	-27.12
3959.537	-25.12
3962.072	-24.12
3964.606	-24.12
3967.137	-22.12
3969.667	-24.12
3972.194	-28.12
3974.72	-25.12
3977.244	-27.12
3979.766	-25.12
3982.286	-23.12
3984.805	-23.12
3987.321	-26.12
3989.836	-27.12
3992.349	-25.12
3994.86	-28.12
3997.369	-25.12
3999.877	-25.12
4002.382	-24.12
4004.886	-25.12
4007.388	-24.12
4009.888	-24.12
4012.386	-22.12
4014.883	-25.12
4017.377	-27.12
4019.87	-25.12
4022.361	-21.12
4024.85	-27.12
4027.338	-26.12
4029.823	-24.12
4032.307	-24.12
4034.789	-20.12
4037.269	-28.12
4039.747	-27.12
4042.224	-23.12
4044.699	-27.12
4047.172	-26.12
4049.643	-24.12
4052.112	-25.12
4054.58	-23.12
4057.046	-24.12
4059.51	-25.12
4061.972	-28.12
4064.432	-24.12
4066.891	-24.12
4069.348	-23.12
4071.803	-23.12
4074.256	-25.12
4076.708	-25.12
4079.158	-30.12
4081.606	-27.12
4084.052	-21.12
4086.497	-22.12
4088.939	-21.12
4091.38	-26.12
4093.819	-25.12
4096.257	-26.12
4098.693	-28.12
4101.127	-28.12
4103.559	-29.12
4105.989	-13.12
4108.418	-14.12
4110.845	-7.12
4113.27	-11.12
4115.694	-10.12
4118.115	-11.12
4120.535	-27.12
4122.954	-31.12
4125.37	-25.12
4127.785	-20.12
4130.198	-24.12
4132.609	-25.12
4135.019	-26.12
4137.427	-32.12
4139.833	-28.12
4142.237	-26.12
