Data from 100000CFU2_D_RamanShift_1.txt Node
Date: Thu Feb 02 12:17:23 IST 2017
User: aro
Spectrometer: QEPB0276
Trigger mode: 0
Integration Time (sec): 5.000000E0
Scans to average: 1
Electric dark correction enabled: true
Nonlinearity correction enabled: false
Boxcar width: 0
XAxis mode: Raman Shifts
Number of Pixels in Spectrum: 1044
>>>>>Begin Spectral Data<<<<<
160.701	-3.12
166.742	1.88
172.777	24.88
178.805	80.88
184.826	220.88
190.841	431.88
196.849	689.88
202.85	862.88
208.845	900.88
214.833	899.88
220.815	874.88
226.789	863.88
232.758	851.88
238.719	831.88
244.674	829.88
250.623	808.88
256.565	791.88
262.5	773.88
268.429	742.88
274.351	742.88
280.267	717.88
286.176	713.88
292.079	705.88
297.975	700.88
303.865	694.88
309.748	684.88
315.625	683.88
321.495	682.88
327.359	677.88
333.217	680.88
339.068	697.88
344.912	697.88
350.751	696.88
356.583	700.88
362.408	704.88
368.227	684.88
374.04	685.88
379.847	674.88
385.647	675.88
391.44	680.88
397.228	698.88
403.009	699.88
408.784	694.88
414.553	705.88
420.315	711.88
426.071	720.88
431.821	720.88
437.565	708.88
443.302	718.88
449.033	704.88
454.758	707.88
460.477	703.88
466.189	692.88
471.896	697.88
477.596	675.88
483.29	670.88
488.978	668.88
494.66	656.88
500.335	629.88
506.005	613.88
511.668	597.88
517.325	577.88
522.977	556.88
528.622	541.88
534.261	532.88
539.894	511.88
545.521	511.88
551.141	513.88
556.756	509.88
562.365	500.88
567.968	495.88
573.565	484.88
579.155	483.88
584.74	486.88
590.319	480.88
595.892	491.88
601.459	485.88
607.02	470.88
612.575	473.88
618.124	471.88
623.667	452.88
629.204	447.88
634.735	449.88
640.261	442.88
645.781	443.88
651.294	448.88
656.802	433.88
662.304	428.88
667.8	426.88
673.29	430.88
678.775	423.88
684.254	416.88
689.726	418.88
695.193	404.88
700.655	405.88
706.11	423.88
711.56	417.88
717.004	415.88
722.442	409.88
727.874	409.88
733.301	395.88
738.722	391.88
744.137	393.88
749.547	401.88
754.951	395.88
760.349	405.88
765.741	396.88
771.128	401.88
776.509	402.88
781.885	398.88
787.254	398.88
792.618	401.88
797.977	412.88
803.33	401.88
808.677	401.88
814.019	412.88
819.355	400.88
824.686	402.88
830.011	395.88
835.33	398.88
840.644	412.88
845.952	405.88
851.255	416.88
856.552	414.88
861.844	419.88
867.13	416.88
872.41	419.88
877.686	420.88
882.955	427.88
888.219	424.88
893.478	417.88
898.731	403.88
903.979	394.88
909.221	378.88
914.458	373.88
919.69	375.88
924.916	367.88
930.136	368.88
935.351	380.88
940.561	369.88
945.766	370.88
950.965	359.88
956.158	362.88
961.347	366.88
966.529	354.88
971.707	338.88
976.879	345.88
982.046	327.88
987.208	336.88
992.364	334.88
997.515	337.88
1002.66	355.88
1007.801	355.88
1012.936	360.88
1018.066	361.88
1023.19	359.88
1028.309	369.88
1033.423	376.88
1038.532	368.88
1043.636	366.88
1048.734	372.88
1053.827	370.88
1058.915	382.88
1063.998	389.88
1069.075	399.88
1074.147	399.88
1079.214	397.88
1084.276	415.88
1089.333	409.88
1094.385	409.88
1099.431	402.88
1104.472	387.88
1109.509	379.88
1114.54	365.88
1119.565	381.88
1124.586	372.88
1129.602	373.88
1134.613	369.88
1139.618	357.88
1144.619	331.88
1149.614	321.88
1154.604	313.88
1159.589	314.88
1164.57	320.88
1169.545	311.88
1174.515	301.88
1179.48	305.88
1184.44	294.88
1189.395	284.88
1194.345	277.88
1199.29	282.88
1204.23	286.88
1209.165	298.88
1214.095	298.88
1219.021	291.88
1223.941	293.88
1228.856	301.88
1233.766	307.88
1238.672	309.88
1243.572	322.88
1248.467	320.88
1253.358	322.88
1258.244	328.88
1263.124	317.88
1268	332.88
1272.871	323.88
1277.737	318.88
1282.599	309.88
1287.455	302.88
1292.306	315.88
1297.153	334.88
1301.995	352.88
1306.832	363.88
1311.664	359.88
1316.491	335.88
1321.314	331.88
1326.132	314.88
1330.945	296.88
1335.753	285.88
1340.556	282.88
1345.354	275.88
1350.148	273.88
1354.937	278.88
1359.722	264.88
1364.501	263.88
1369.276	254.88
1374.046	261.88
1378.811	265.88
1383.572	260.88
1388.327	260.88
1393.079	252.88
1397.825	246.88
1402.567	242.88
1407.304	241.88
1412.036	244.88
1416.764	240.88
1421.487	254.88
1426.205	259.88
1430.919	262.88
1435.628	292.88
1440.333	321.88
1445.032	345.88
1449.727	361.88
1454.418	345.88
1459.104	337.88
1463.785	332.88
1468.462	307.88
1473.134	292.88
1477.802	267.88
1482.465	233.88
1487.123	216.88
1491.777	204.88
1496.426	196.88
1501.071	197.88
1505.711	193.88
1510.347	193.88
1514.978	199.88
1519.604	194.88
1524.226	192.88
1528.844	189.88
1533.457	192.88
1538.065	184.88
1542.669	183.88
1547.269	186.88
1551.864	195.88
1556.454	188.88
1561.041	198.88
1565.622	185.88
1570.199	186.88
1574.772	180.88
1579.34	179.88
1583.904	187.88
1588.464	195.88
1593.019	190.88
1597.569	196.88
1602.115	196.88
1606.657	196.88
1611.195	198.88
1615.728	200.88
1620.256	201.88
1624.78	210.88
1629.3	202.88
1633.816	207.88
1638.327	207.88
1642.834	220.88
1647.336	218.88
1651.834	231.88
1656.328	241.88
1660.817	237.88
1665.302	237.88
1669.783	223.88
1674.259	215.88
1678.732	210.88
1683.199	199.88
1687.663	185.88
1692.122	172.88
1696.577	166.88
1701.028	163.88
1705.474	157.88
1709.917	152.88
1714.355	148.88
1718.788	140.88
1723.218	135.88
1727.643	139.88
1732.064	133.88
1736.481	136.88
1740.893	131.88
1745.301	125.88
1749.705	126.88
1754.105	123.88
1758.501	111.88
1762.893	115.88
1767.28	106.88
1771.663	109.88
1776.042	104.88
1780.417	99.88
1784.787	101.88
1789.154	104.88
1793.516	100.88
1797.874	107.88
1802.228	104.88
1806.578	105.88
1810.924	100.88
1815.266	103.88
1819.603	90.88
1823.937	93.88
1828.266	87.88
1832.591	88.88
1836.913	91.88
1841.23	86.88
1845.543	89.88
1849.852	87.88
1854.156	84.88
1858.457	87.88
1862.754	85.88
1867.047	87.88
1871.335	90.88
1875.62	84.88
1879.9	84.88
1884.177	88.88
1888.449	78.88
1892.718	81.88
1896.982	82.88
1901.243	84.88
1905.499	83.88
1909.752	81.88
1914	86.88
1918.245	83.88
1922.485	75.88
1926.722	78.88
1930.954	78.88
1935.183	84.88
1939.408	85.88
1943.628	77.88
1947.845	82.88
1952.058	80.88
1956.267	84.88
1960.472	78.88
1964.673	78.88
1968.87	77.88
1973.063	81.88
1977.252	74.88
1981.438	73.88
1985.619	69.88
1989.797	72.88
1993.971	71.88
1998.14	72.88
2002.306	73.88
2006.469	67.88
2010.627	72.88
2014.781	72.88
2018.932	74.88
2023.078	68.88
2027.221	71.88
2031.36	66.88
2035.495	65.88
2039.627	70.88
2043.754	70.88
2047.878	68.88
2051.998	67.88
2056.114	64.88
2060.226	63.88
2064.334	69.88
2068.439	69.88
2072.54	67.88
2076.637	69.88
2080.73	66.88
2084.82	67.88
2088.906	73.88
2092.988	66.88
2097.066	63.88
2101.14	68.88
2105.211	66.88
2109.278	66.88
2113.342	69.88
2117.401	64.88
2121.457	67.88
2125.509	60.88
2129.558	66.88
2133.602	64.88
2137.643	68.88
2141.681	61.88
2145.714	65.88
2149.744	59.88
2153.77	62.88
2157.793	61.88
2161.812	58.88
2165.827	59.88
2169.838	56.88
2173.846	63.88
2177.851	55.88
2181.851	56.88
2185.848	50.88
2189.841	53.88
2193.831	49.88
2197.817	51.88
2201.799	55.88
2205.778	52.88
2209.753	52.88
2213.725	52.88
2217.693	49.88
2221.657	43.88
2225.618	49.88
2229.575	45.88
2233.529	45.88
2237.479	45.88
2241.425	45.88
2245.368	46.88
2249.307	43.88
2253.243	42.88
2257.175	40.88
2261.104	42.88
2265.029	43.88
2268.95	43.88
2272.868	39.88
2276.783	36.88
2280.694	38.88
2284.601	34.88
2288.505	28.88
2292.405	37.88
2296.302	36.88
2300.195	37.88
2304.085	38.88
2307.971	32.88
2311.854	30.88
2315.734	33.88
2319.609	29.88
2323.482	35.88
2327.351	36.88
2331.216	40.88
2335.078	41.88
2338.937	36.88
2342.792	26.88
2346.643	25.88
2350.492	26.88
2354.336	27.88
2358.178	24.88
2362.015	27.88
2365.85	21.88
2369.681	23.88
2373.508	27.88
2377.333	27.88
2381.153	27.88
2384.971	28.88
2388.785	24.88
2392.595	23.88
2396.402	18.88
2400.206	22.88
2404.007	23.88
2407.804	26.88
2411.597	24.88
2415.388	18.88
2419.174	22.88
2422.958	20.88
2426.738	20.88
2430.515	16.88
2434.289	19.88
2438.059	25.88
2441.825	21.88
2445.589	20.88
2449.349	17.88
2453.106	19.88
2456.859	16.88
2460.61	14.88
2464.356	20.88
2468.1	20.88
2471.84	23.88
2475.577	23.88
2479.311	16.88
2483.041	14.88
2486.768	18.88
2490.492	15.88
2494.213	21.88
2497.93	20.88
2501.644	17.88
2505.355	16.88
2509.062	15.88
2512.766	16.88
2516.467	16.88
2520.165	15.88
2523.859	18.88
2527.551	19.88
2531.239	20.88
2534.923	12.88
2538.605	14.88
2542.283	9.88
2545.958	14.88
2549.63	18.88
2553.299	17.88
2556.964	15.88
2560.626	18.88
2564.285	15.88
2567.941	11.88
2571.594	12.88
2575.243	11.88
2578.89	19.88
2582.533	16.88
2586.173	12.88
2589.809	10.88
2593.443	16.88
2597.073	10.88
2600.701	13.88
2604.325	14.88
2607.946	14.88
2611.564	12.88
2615.178	14.88
2618.79	17.88
2622.398	13.88
2626.004	12.88
2629.606	13.88
2633.205	13.88
2636.801	15.88
2640.394	15.88
2643.983	13.88
2647.57	14.88
2651.153	14.88
2654.734	11.88
2658.311	11.88
2661.885	12.88
2665.456	13.88
2669.025	11.88
2672.589	10.88
2676.151	8.88
2679.71	10.88
2683.266	13.88
2686.819	8.88
2690.368	12.88
2693.915	10.88
2697.458	14.88
2700.999	7.88
2704.536	10.88
2708.071	10.88
2711.602	9.88
2715.13	15.88
2718.656	13.88
2722.178	12.88
2725.697	15.88
2729.214	16.88
2732.727	14.88
2736.237	18.88
2739.744	16.88
2743.249	15.88
2746.75	14.88
2750.248	14.88
2753.743	13.88
2757.236	13.88
2760.725	10.88
2764.211	16.88
2767.695	8.88
2771.175	15.88
2774.652	13.88
2778.127	11.88
2781.598	11.88
2785.067	11.88
2788.532	10.88
2791.995	13.88
2795.455	13.88
2798.911	16.88
2802.365	14.88
2805.816	17.88
2809.264	17.88
2812.709	20.88
2816.151	17.88
2819.59	27.88
2823.026	22.88
2826.46	28.88
2829.89	33.88
2833.318	40.88
2836.742	36.88
2840.164	49.88
2843.583	58.88
2846.999	72.88
2850.412	89.88
2853.822	96.88
2857.229	104.88
2860.634	107.88
2864.035	106.88
2867.434	109.88
2870.83	115.88
2874.223	119.88
2877.613	120.88
2881	125.88
2884.385	140.88
2887.766	141.88
2891.145	136.88
2894.521	134.88
2897.894	132.88
2901.264	129.88
2904.631	130.88
2907.996	135.88
2911.358	130.88
2914.717	127.88
2918.073	129.88
2921.426	120.88
2924.777	125.88
2928.124	123.88
2931.469	122.88
2934.811	120.88
2938.15	119.88
2941.487	121.88
2944.821	110.88
2948.152	100.88
2951.48	97.88
2954.805	96.88
2958.128	90.88
2961.447	87.88
2964.765	85.88
2968.079	77.88
2971.39	73.88
2974.699	67.88
2978.005	61.88
2981.308	68.88
2984.609	62.88
2987.907	64.88
2991.202	55.88
2994.494	48.88
2997.784	53.88
3001.07	57.88
3004.355	53.88
3007.636	52.88
3010.915	52.88
3014.191	47.88
3017.464	47.88
3020.734	43.88
3024.002	41.88
3027.267	41.88
3030.53	45.88
3033.789	49.88
3037.046	43.88
3040.301	45.88
3043.552	43.88
3046.801	45.88
3050.048	45.88
3053.291	49.88
3056.532	50.88
3059.771	55.88
3063.006	57.88
3066.239	57.88
3069.469	59.88
3072.697	57.88
3075.922	67.88
3079.144	65.88
3082.364	69.88
3085.581	64.88
3088.795	75.88
3092.007	70.88
3095.216	71.88
3098.423	74.88
3101.627	74.88
3104.828	80.88
3108.026	81.88
3111.222	76.88
3114.416	86.88
3117.607	87.88
3120.795	87.88
3123.98	83.88
3127.163	92.88
3130.344	92.88
3133.521	98.88
3136.696	96.88
3139.869	99.88
3143.039	107.88
3146.206	108.88
3149.371	104.88
3152.533	105.88
3155.693	105.88
3158.85	105.88
3162.005	107.88
3165.157	110.88
3168.306	110.88
3171.453	108.88
3174.597	104.88
3177.739	101.88
3180.878	100.88
3184.014	105.88
3187.149	102.88
3190.28	113.88
3193.409	112.88
3196.536	112.88
3199.659	115.88
3202.781	109.88
3205.9	104.88
3209.016	114.88
3212.13	114.88
3215.241	111.88
3218.35	112.88
3221.456	106.88
3224.56	104.88
3227.661	108.88
3230.76	104.88
3233.856	99.88
3236.95	101.88
3240.041	100.88
3243.13	105.88
3246.216	103.88
3249.3	99.88
3252.382	100.88
3255.46	97.88
3258.537	100.88
3261.611	92.88
3264.682	97.88
3267.751	92.88
3270.818	98.88
3273.882	88.88
3276.943	92.88
3280.002	91.88
3283.059	91.88
3286.113	93.88
3289.165	85.88
3292.214	86.88
3295.261	86.88
3298.306	87.88
3301.348	81.88
3304.387	78.88
3307.425	81.88
3310.459	76.88
3313.492	80.88
3316.521	75.88
3319.549	79.88
3322.574	71.88
3325.597	72.88
3328.617	74.88
3331.635	74.88
3334.65	74.88
3337.663	71.88
3340.674	74.88
3343.682	70.88
3346.688	68.88
3349.691	71.88
3352.692	69.88
3355.691	71.88
3358.687	68.88
3361.681	64.88
3364.673	71.88
3367.662	69.88
3370.649	71.88
3373.633	63.88
3376.615	61.88
3379.595	60.88
3382.572	60.88
3385.547	65.88
3388.52	60.88
3391.49	61.88
3394.458	56.88
3397.424	52.88
3400.387	54.88
3403.348	56.88
3406.307	51.88
3409.263	56.88
3412.217	58.88
3415.168	54.88
3418.118	51.88
3421.065	50.88
3424.009	48.88
3426.951	47.88
3429.891	49.88
3432.829	50.88
3435.764	53.88
3438.697	46.88
3441.628	41.88
3444.557	43.88
3447.483	37.88
3450.407	37.88
3453.328	39.88
3456.247	37.88
3459.164	32.88
3462.079	35.88
3464.991	28.88
3467.902	27.88
3470.809	30.88
3473.715	25.88
3476.618	25.88
3479.519	25.88
3482.418	26.88
3485.315	22.88
3488.209	16.88
3491.101	14.88
3493.99	16.88
3496.878	17.88
3499.763	15.88
3502.646	19.88
3505.527	11.88
3508.405	13.88
3511.281	11.88
3514.155	10.88
3517.027	9.88
3519.897	8.88
3522.764	7.88
3525.629	6.88
3528.492	5.88
3531.352	2.88
3534.211	6.88
3537.067	-1.12
3539.921	0.88
3542.773	-5.12
3545.622	-3.12
3548.469	-3.12
3551.315	-4.12
3554.157	-6.12
3556.998	-0.12
3559.837	-4.12
3562.673	-1.12
3565.507	-10.12
3568.339	-4.12
3571.169	-6.12
3573.996	-6.12
3576.822	-7.12
3579.645	-11.12
3582.466	-7.12
3585.285	-7.12
3588.101	-10.12
3590.916	-13.12
3593.728	-13.12
3596.538	-13.12
3599.346	-13.12
3602.152	-14.12
3604.956	-12.12
3607.757	-14.12
3610.556	-18.12
3613.354	-17.12
3616.149	-17.12
3618.942	-15.12
3621.732	-18.12
3624.521	-18.12
3627.307	-13.12
3630.092	-17.12
3632.874	-17.12
3635.654	-17.12
3638.432	-19.12
3641.208	-16.12
3643.982	-18.12
3646.753	-19.12
3649.523	-19.12
3652.29	-19.12
3655.055	-21.12
3657.818	-23.12
3660.579	-21.12
3663.338	-19.12
3666.095	-15.12
3668.849	-18.12
3671.602	-21.12
3674.352	-23.12
3677.101	-20.12
3679.847	-22.12
3682.591	-21.12
3685.333	-22.12
3688.073	-22.12
3690.811	-23.12
3693.547	-28.12
3696.281	-24.12
3699.013	-26.12
3701.742	-23.12
3704.47	-20.12
3707.195	-21.12
3709.919	-21.12
3712.64	-28.12
3715.359	-24.12
3718.076	-22.12
3720.792	-28.12
3723.505	-17.12
3726.216	-23.12
3728.925	-26.12
3731.632	-24.12
3734.336	-25.12
3737.039	-29.12
3739.74	-30.12
3742.439	-23.12
3745.136	-24.12
3747.83	-21.12
3750.523	-21.12
3753.213	-27.12
3755.902	-29.12
3758.589	-29.12
3761.273	-24.12
3763.956	-24.12
3766.636	-26.12
3769.315	-21.12
3771.991	-27.12
3774.665	-29.12
3777.338	-26.12
3780.008	-25.12
3782.677	-22.12
3785.343	-27.12
3788.007	-22.12
3790.67	-23.12
3793.33	-28.12
3795.989	-26.12
3798.645	-26.12
3801.299	-28.12
3803.952	-25.12
3806.602	-24.12
3809.251	-24.12
3811.897	-23.12
3814.542	-28.12
3817.184	-26.12
3819.825	-27.12
3822.463	-21.12
3825.1	-25.12
3827.735	-21.12
3830.367	-24.12
3832.998	-24.12
3835.627	-25.12
3838.253	-24.12
3840.878	-28.12
3843.501	-22.12
3846.122	-25.12
3848.741	-23.12
3851.358	-24.12
3853.973	-23.12
3856.586	-26.12
3859.197	-28.12
3861.806	-25.12
3864.414	-25.12
3867.019	-22.12
3869.622	-25.12
3872.224	-26.12
3874.823	-27.12
3877.421	-21.12
3880.016	-24.12
3882.61	-22.12
3885.202	-14.12
3887.792	-13.12
3890.38	-18.12
3892.966	-27.12
3895.55	-25.12
3898.132	-25.12
3900.713	-23.12
3903.291	-26.12
3905.868	-22.12
3908.442	-26.12
3911.015	-24.12
3913.586	-27.12
3916.155	-28.12
3918.722	-28.12
3921.287	-22.12
3923.85	-25.12
3926.411	-25.12
3928.971	-22.12
3931.528	-26.12
3934.084	-29.12
3936.638	-29.12
3939.19	-27.12
3941.74	-24.12
3944.288	-24.12
3946.834	-26.12
3949.378	-27.12
3951.921	-24.12
3954.462	-24.12
3957	-26.12
3959.537	-26.12
3962.072	-24.12
3964.606	-24.12
3967.137	-24.12
3969.667	-24.12
3972.194	-27.12
3974.72	-26.12
3977.244	-27.12
3979.766	-25.12
3982.286	-22.12
3984.805	-23.12
3987.321	-25.12
3989.836	-27.12
3992.349	-28.12
3994.86	-25.12
3997.369	-23.12
3999.877	-26.12
4002.382	-25.12
4004.886	-23.12
4007.388	-25.12
4009.888	-25.12
4012.386	-26.12
4014.883	-24.12
4017.377	-25.12
4019.87	-24.12
4022.361	-21.12
4024.85	-26.12
4027.338	-28.12
4029.823	-28.12
4032.307	-27.12
4034.789	-24.12
4037.269	-24.12
4039.747	-26.12
4042.224	-24.12
4044.699	-28.12
4047.172	-30.12
4049.643	-26.12
4052.112	-25.12
4054.58	-22.12
4057.046	-25.12
4059.51	-28.12
4061.972	-25.12
4064.432	-26.12
4066.891	-25.12
4069.348	-25.12
4071.803	-28.12
4074.256	-24.12
4076.708	-20.12
4079.158	-24.12
4081.606	-25.12
4084.052	-24.12
4086.497	-22.12
4088.939	-24.12
4091.38	-26.12
4093.819	-26.12
4096.257	-25.12
4098.693	-32.12
4101.127	-26.12
4103.559	-25.12
4105.989	-10.12
4108.418	-13.12
4110.845	-8.12
4113.27	-12.12
4115.694	-11.12
4118.115	-13.12
4120.535	-28.12
4122.954	-28.12
4125.37	-25.12
4127.785	-21.12
4130.198	-24.12
4132.609	-26.12
4135.019	-27.12
4137.427	-27.12
4139.833	-25.12
4142.237	-25.12
