Data from 10000CFU2_A_RamanShift_1.txt Node
Date: Thu Feb 02 13:52:40 IST 2017
User: aro
Spectrometer: QEPB0276
Trigger mode: 0
Integration Time (sec): 5.000000E0
Scans to average: 1
Electric dark correction enabled: true
Nonlinearity correction enabled: false
Boxcar width: 0
XAxis mode: Raman Shifts
Number of Pixels in Spectrum: 1044
>>>>>Begin Spectral Data<<<<<
160.701	-3.25
166.742	2.75
172.777	19.75
178.805	84.75
184.826	210.75
190.841	413.75
196.849	653.75
202.85	798.75
208.845	847.75
214.833	841.75
220.815	811.75
226.789	802.75
232.758	798.75
238.719	791.75
244.674	791.75
250.623	759.75
256.565	746.75
262.5	728.75
268.429	709.75
274.351	704.75
280.267	689.75
286.176	678.75
292.079	670.75
297.975	663.75
303.865	665.75
309.748	659.75
315.625	656.75
321.495	647.75
327.359	641.75
333.217	648.75
339.068	675.75
344.912	665.75
350.751	670.75
356.583	683.75
362.408	677.75
368.227	663.75
374.04	662.75
379.847	652.75
385.647	651.75
391.44	661.75
397.228	670.75
403.009	679.75
408.784	672.75
414.553	676.75
420.315	681.75
426.071	684.75
431.821	685.75
437.565	692.75
443.302	680.75
449.033	676.75
454.758	677.75
460.477	676.75
466.189	654.75
471.896	662.75
477.596	644.75
483.29	641.75
488.978	635.75
494.66	619.75
500.335	618.75
506.005	584.75
511.668	570.75
517.325	548.75
522.977	535.75
528.622	524.75
534.261	492.75
539.894	504.75
545.521	485.75
551.141	477.75
556.756	478.75
562.365	468.75
567.968	464.75
573.565	456.75
579.155	459.75
584.74	459.75
590.319	447.75
595.892	457.75
601.459	452.75
607.02	444.75
612.575	443.75
618.124	444.75
623.667	427.75
629.204	423.75
634.735	421.75
640.261	415.75
645.781	418.75
651.294	413.75
656.802	407.75
662.304	414.75
667.8	395.75
673.29	404.75
678.775	393.75
684.254	389.75
689.726	389.75
695.193	389.75
700.655	386.75
706.11	383.75
711.56	386.75
717.004	386.75
722.442	384.75
727.874	388.75
733.301	383.75
738.722	384.75
744.137	384.75
749.547	384.75
754.951	380.75
760.349	380.75
765.741	380.75
771.128	372.75
776.509	369.75
781.885	377.75
787.254	391.75
792.618	381.75
797.977	381.75
803.33	375.75
808.677	375.75
814.019	365.75
819.355	368.75
824.686	378.75
830.011	380.75
835.33	378.75
840.644	380.75
845.952	384.75
851.255	390.75
856.552	380.75
861.844	395.75
867.13	389.75
872.41	392.75
877.686	398.75
882.955	402.75
888.219	392.75
893.478	375.75
898.731	362.75
903.979	367.75
909.221	356.75
914.458	352.75
919.69	350.75
924.916	349.75
930.136	348.75
935.351	345.75
940.561	338.75
945.766	338.75
950.965	344.75
956.158	339.75
961.347	336.75
966.529	321.75
971.707	321.75
976.879	313.75
982.046	312.75
987.208	308.75
992.364	315.75
997.515	318.75
1002.66	321.75
1007.801	327.75
1012.936	337.75
1018.066	335.75
1023.19	332.75
1028.309	340.75
1033.423	339.75
1038.532	336.75
1043.636	352.75
1048.734	345.75
1053.827	340.75
1058.915	354.75
1063.998	361.75
1069.075	361.75
1074.147	369.75
1079.214	378.75
1084.276	379.75
1089.333	377.75
1094.385	393.75
1099.431	376.75
1104.472	364.75
1109.509	353.75
1114.54	340.75
1119.565	340.75
1124.586	349.75
1129.602	346.75
1134.613	331.75
1139.618	326.75
1144.619	312.75
1149.614	299.75
1154.604	289.75
1159.589	294.75
1164.57	285.75
1169.545	288.75
1174.515	283.75
1179.48	275.75
1184.44	270.75
1189.395	262.75
1194.345	254.75
1199.29	260.75
1204.23	254.75
1209.165	271.75
1214.095	267.75
1219.021	267.75
1223.941	265.75
1228.856	273.75
1233.766	278.75
1238.672	282.75
1243.572	304.75
1248.467	297.75
1253.358	294.75
1258.244	302.75
1263.124	300.75
1268	299.75
1272.871	299.75
1277.737	289.75
1282.599	287.75
1287.455	278.75
1292.306	293.75
1297.153	301.75
1301.995	320.75
1306.832	328.75
1311.664	316.75
1316.491	296.75
1321.314	302.75
1326.132	282.75
1330.945	273.75
1335.753	256.75
1340.556	258.75
1345.354	259.75
1350.148	260.75
1354.937	252.75
1359.722	242.75
1364.501	237.75
1369.276	235.75
1374.046	239.75
1378.811	235.75
1383.572	242.75
1388.327	243.75
1393.079	227.75
1397.825	223.75
1402.567	223.75
1407.304	211.75
1412.036	218.75
1416.764	226.75
1421.487	230.75
1426.205	238.75
1430.919	248.75
1435.628	275.75
1440.333	292.75
1445.032	324.75
1449.727	324.75
1454.418	325.75
1459.104	318.75
1463.785	298.75
1468.462	280.75
1473.134	261.75
1477.802	236.75
1482.465	218.75
1487.123	194.75
1491.777	186.75
1496.426	183.75
1501.071	174.75
1505.711	177.75
1510.347	180.75
1514.978	185.75
1519.604	173.75
1524.226	168.75
1528.844	176.75
1533.457	170.75
1538.065	169.75
1542.669	168.75
1547.269	177.75
1551.864	170.75
1556.454	174.75
1561.041	174.75
1565.622	169.75
1570.199	164.75
1574.772	170.75
1579.34	173.75
1583.904	171.75
1588.464	176.75
1593.019	180.75
1597.569	174.75
1602.115	174.75
1606.657	176.75
1611.195	169.75
1615.728	177.75
1620.256	180.75
1624.78	188.75
1629.3	185.75
1633.816	185.75
1638.327	188.75
1642.834	188.75
1647.336	194.75
1651.834	199.75
1656.328	206.75
1660.817	211.75
1665.302	215.75
1669.783	199.75
1674.259	194.75
1678.732	192.75
1683.199	180.75
1687.663	166.75
1692.122	156.75
1696.577	155.75
1701.028	149.75
1705.474	146.75
1709.917	142.75
1714.355	138.75
1718.788	129.75
1723.218	124.75
1727.643	126.75
1732.064	124.75
1736.481	125.75
1740.893	121.75
1745.301	115.75
1749.705	115.75
1754.105	113.75
1758.501	106.75
1762.893	101.75
1767.28	95.75
1771.663	100.75
1776.042	97.75
1780.417	97.75
1784.787	86.75
1789.154	87.75
1793.516	90.75
1797.874	92.75
1802.228	94.75
1806.578	96.75
1810.924	93.75
1815.266	93.75
1819.603	84.75
1823.937	89.75
1828.266	74.75
1832.591	83.75
1836.913	82.75
1841.23	79.75
1845.543	85.75
1849.852	77.75
1854.156	74.75
1858.457	77.75
1862.754	73.75
1867.047	77.75
1871.335	72.75
1875.62	80.75
1879.9	79.75
1884.177	78.75
1888.449	79.75
1892.718	72.75
1896.982	76.75
1901.243	74.75
1905.499	74.75
1909.752	79.75
1914	78.75
1918.245	77.75
1922.485	71.75
1926.722	75.75
1930.954	76.75
1935.183	70.75
1939.408	77.75
1943.628	73.75
1947.845	75.75
1952.058	78.75
1956.267	77.75
1960.472	72.75
1964.673	72.75
1968.87	69.75
1973.063	68.75
1977.252	66.75
1981.438	68.75
1985.619	65.75
1989.797	62.75
1993.971	73.75
1998.14	67.75
2002.306	61.75
2006.469	61.75
2010.627	56.75
2014.781	67.75
2018.932	62.75
2023.078	69.75
2027.221	63.75
2031.36	60.75
2035.495	58.75
2039.627	60.75
2043.754	59.75
2047.878	58.75
2051.998	63.75
2056.114	61.75
2060.226	64.75
2064.334	64.75
2068.439	57.75
2072.54	54.75
2076.637	63.75
2080.73	61.75
2084.82	64.75
2088.906	67.75
2092.988	65.75
2097.066	61.75
2101.14	58.75
2105.211	60.75
2109.278	54.75
2113.342	62.75
2117.401	62.75
2121.457	61.75
2125.509	57.75
2129.558	61.75
2133.602	58.75
2137.643	55.75
2141.681	54.75
2145.714	52.75
2149.744	57.75
2153.77	57.75
2157.793	52.75
2161.812	56.75
2165.827	49.75
2169.838	48.75
2173.846	46.75
2177.851	46.75
2181.851	47.75
2185.848	45.75
2189.841	46.75
2193.831	45.75
2197.817	42.75
2201.799	42.75
2205.778	45.75
2209.753	48.75
2213.725	46.75
2217.693	46.75
2221.657	38.75
2225.618	39.75
2229.575	39.75
2233.529	35.75
2237.479	41.75
2241.425	42.75
2245.368	42.75
2249.307	40.75
2253.243	37.75
2257.175	32.75
2261.104	34.75
2265.029	34.75
2268.95	34.75
2272.868	32.75
2276.783	33.75
2280.694	33.75
2284.601	27.75
2288.505	28.75
2292.405	28.75
2296.302	25.75
2300.195	27.75
2304.085	29.75
2307.971	26.75
2311.854	27.75
2315.734	24.75
2319.609	22.75
2323.482	28.75
2327.351	27.75
2331.216	28.75
2335.078	29.75
2338.937	26.75
2342.792	21.75
2346.643	22.75
2350.492	21.75
2354.336	16.75
2358.178	16.75
2362.015	20.75
2365.85	22.75
2369.681	18.75
2373.508	23.75
2377.333	19.75
2381.153	20.75
2384.971	18.75
2388.785	14.75
2392.595	16.75
2396.402	16.75
2400.206	15.75
2404.007	14.75
2407.804	20.75
2411.597	20.75
2415.388	15.75
2419.174	10.75
2422.958	16.75
2426.738	15.75
2430.515	10.75
2434.289	18.75
2438.059	22.75
2441.825	15.75
2445.589	11.75
2449.349	14.75
2453.106	10.75
2456.859	12.75
2460.61	8.75
2464.356	16.75
2468.1	15.75
2471.84	18.75
2475.577	10.75
2479.311	6.75
2483.041	8.75
2486.768	8.75
2490.492	12.75
2494.213	10.75
2497.93	15.75
2501.644	9.75
2505.355	10.75
2509.062	7.75
2512.766	10.75
2516.467	12.75
2520.165	11.75
2523.859	12.75
2527.551	13.75
2531.239	14.75
2534.923	4.75
2538.605	6.75
2542.283	5.75
2545.958	8.75
2549.63	14.75
2553.299	11.75
2556.964	11.75
2560.626	11.75
2564.285	6.75
2567.941	7.75
2571.594	6.75
2575.243	9.75
2578.89	11.75
2582.533	9.75
2586.173	10.75
2589.809	7.75
2593.443	9.75
2597.073	4.75
2600.701	7.75
2604.325	8.75
2607.946	9.75
2611.564	9.75
2615.178	9.75
2618.79	8.75
2622.398	9.75
2626.004	8.75
2629.606	14.75
2633.205	12.75
2636.801	4.75
2640.394	8.75
2643.983	4.75
2647.57	7.75
2651.153	10.75
2654.734	5.75
2658.311	9.75
2661.885	7.75
2665.456	8.75
2669.025	5.75
2672.589	5.75
2676.151	6.75
2679.71	10.75
2683.266	7.75
2686.819	4.75
2690.368	5.75
2693.915	5.75
2697.458	8.75
2700.999	8.75
2704.536	8.75
2708.071	6.75
2711.602	7.75
2715.13	4.75
2718.656	9.75
2722.178	5.75
2725.697	4.75
2729.214	11.75
2732.727	11.75
2736.237	10.75
2739.744	11.75
2743.249	12.75
2746.75	3.75
2750.248	8.75
2753.743	10.75
2757.236	9.75
2760.725	14.75
2764.211	14.75
2767.695	4.75
2771.175	10.75
2774.652	7.75
2778.127	5.75
2781.598	6.75
2785.067	11.75
2788.532	10.75
2791.995	11.75
2795.455	12.75
2798.911	8.75
2802.365	6.75
2805.816	9.75
2809.264	15.75
2812.709	15.75
2816.151	18.75
2819.59	19.75
2823.026	17.75
2826.46	20.75
2829.89	24.75
2833.318	25.75
2836.742	31.75
2840.164	38.75
2843.583	52.75
2846.999	63.75
2850.412	75.75
2853.822	83.75
2857.229	92.75
2860.634	96.75
2864.035	92.75
2867.434	99.75
2870.83	96.75
2874.223	105.75
2877.613	111.75
2881	112.75
2884.385	119.75
2887.766	118.75
2891.145	120.75
2894.521	122.75
2897.894	116.75
2901.264	116.75
2904.631	116.75
2907.996	115.75
2911.358	111.75
2914.717	109.75
2918.073	105.75
2921.426	104.75
2924.777	107.75
2928.124	104.75
2931.469	104.75
2934.811	100.75
2938.15	103.75
2941.487	102.75
2944.821	97.75
2948.152	85.75
2951.48	80.75
2954.805	76.75
2958.128	69.75
2961.447	71.75
2964.765	70.75
2968.079	64.75
2971.39	61.75
2974.699	60.75
2978.005	54.75
2981.308	55.75
2984.609	48.75
2987.907	48.75
2991.202	48.75
2994.494	43.75
2997.784	47.75
3001.07	41.75
3004.355	41.75
3007.636	37.75
3010.915	41.75
3014.191	37.75
3017.464	39.75
3020.734	34.75
3024.002	36.75
3027.267	31.75
3030.53	37.75
3033.789	36.75
3037.046	34.75
3040.301	34.75
3043.552	34.75
3046.801	35.75
3050.048	37.75
3053.291	41.75
3056.532	38.75
3059.771	40.75
3063.006	41.75
3066.239	45.75
3069.469	42.75
3072.697	46.75
3075.922	51.75
3079.144	48.75
3082.364	52.75
3085.581	46.75
3088.795	53.75
3092.007	49.75
3095.216	56.75
3098.423	56.75
3101.627	57.75
3104.828	61.75
3108.026	64.75
3111.222	58.75
3114.416	64.75
3117.607	65.75
3120.795	68.75
3123.98	67.75
3127.163	75.75
3130.344	71.75
3133.521	73.75
3136.696	66.75
3139.869	75.75
3143.039	84.75
3146.206	81.75
3149.371	88.75
3152.533	84.75
3155.693	82.75
3158.85	84.75
3162.005	82.75
3165.157	82.75
3168.306	87.75
3171.453	85.75
3174.597	83.75
3177.739	85.75
3180.878	86.75
3184.014	94.75
3187.149	82.75
3190.28	85.75
3193.409	90.75
3196.536	87.75
3199.659	92.75
3202.781	84.75
3205.9	87.75
3209.016	88.75
3212.13	92.75
3215.241	84.75
3218.35	84.75
3221.456	86.75
3224.56	83.75
3227.661	83.75
3230.76	83.75
3233.856	85.75
3236.95	83.75
3240.041	76.75
3243.13	78.75
3246.216	77.75
3249.3	78.75
3252.382	75.75
3255.46	81.75
3258.537	74.75
3261.611	73.75
3264.682	74.75
3267.751	75.75
3270.818	77.75
3273.882	70.75
3276.943	76.75
3280.002	72.75
3283.059	75.75
3286.113	78.75
3289.165	73.75
3292.214	68.75
3295.261	65.75
3298.306	66.75
3301.348	61.75
3304.387	61.75
3307.425	70.75
3310.459	65.75
3313.492	60.75
3316.521	57.75
3319.549	64.75
3322.574	58.75
3325.597	57.75
3328.617	61.75
3331.635	55.75
3334.65	59.75
3337.663	51.75
3340.674	55.75
3343.682	55.75
3346.688	52.75
3349.691	61.75
3352.692	56.75
3355.691	53.75
3358.687	53.75
3361.681	57.75
3364.673	54.75
3367.662	56.75
3370.649	54.75
3373.633	51.75
3376.615	47.75
3379.595	44.75
3382.572	49.75
3385.547	49.75
3388.52	48.75
3391.49	43.75
3394.458	43.75
3397.424	40.75
3400.387	39.75
3403.348	42.75
3406.307	41.75
3409.263	45.75
3412.217	47.75
3415.168	39.75
3418.118	41.75
3421.065	37.75
3424.009	35.75
3426.951	38.75
3429.891	39.75
3432.829	36.75
3435.764	37.75
3438.697	34.75
3441.628	26.75
3444.557	29.75
3447.483	31.75
3450.407	27.75
3453.328	30.75
3456.247	28.75
3459.164	27.75
3462.079	26.75
3464.991	20.75
3467.902	19.75
3470.809	20.75
3473.715	17.75
3476.618	18.75
3479.519	17.75
3482.418	16.75
3485.315	14.75
3488.209	12.75
3491.101	10.75
3493.99	12.75
3496.878	9.75
3499.763	12.75
3502.646	10.75
3505.527	8.75
3508.405	8.75
3511.281	8.75
3514.155	8.75
3517.027	7.75
3519.897	5.75
3522.764	5.75
3525.629	0.75
3528.492	3.75
3531.352	-1.25
3534.211	2.75
3537.067	-1.25
3539.921	-3.25
3542.773	-4.25
3545.622	-2.25
3548.469	-4.25
3551.315	-8.25
3554.157	-11.25
3556.998	-4.25
3559.837	-6.25
3562.673	-5.25
3565.507	-13.25
3568.339	-10.25
3571.169	-10.25
3573.996	-5.25
3576.822	-9.25
3579.645	-7.25
3582.466	-7.25
3585.285	-10.25
3588.101	-11.25
3590.916	-13.25
3593.728	-15.25
3596.538	-16.25
3599.346	-15.25
3602.152	-13.25
3604.956	-14.25
3607.757	-12.25
3610.556	-16.25
3613.354	-15.25
3616.149	-19.25
3618.942	-13.25
3621.732	-15.25
3624.521	-15.25
3627.307	-14.25
3630.092	-17.25
3632.874	-19.25
3635.654	-19.25
3638.432	-19.25
3641.208	-14.25
3643.982	-15.25
3646.753	-17.25
3649.523	-16.25
3652.29	-19.25
3655.055	-21.25
3657.818	-26.25
3660.579	-21.25
3663.338	-16.25
3666.095	-16.25
3668.849	-19.25
3671.602	-19.25
3674.352	-21.25
3677.101	-20.25
3679.847	-24.25
3682.591	-21.25
3685.333	-18.25
3688.073	-21.25
3690.811	-22.25
3693.547	-27.25
3696.281	-24.25
3699.013	-24.25
3701.742	-24.25
3704.47	-20.25
3707.195	-19.25
3709.919	-22.25
3712.64	-25.25
3715.359	-23.25
3718.076	-24.25
3720.792	-28.25
3723.505	-20.25
3726.216	-21.25
3728.925	-22.25
3731.632	-24.25
3734.336	-22.25
3737.039	-22.25
3739.74	-28.25
3742.439	-25.25
3745.136	-24.25
3747.83	-21.25
3750.523	-21.25
3753.213	-23.25
3755.902	-23.25
3758.589	-24.25
3761.273	-26.25
3763.956	-25.25
3766.636	-23.25
3769.315	-22.25
3771.991	-23.25
3774.665	-26.25
3777.338	-21.25
3780.008	-21.25
3782.677	-24.25
3785.343	-25.25
3788.007	-22.25
3790.67	-23.25
3793.33	-24.25
3795.989	-25.25
3798.645	-26.25
3801.299	-22.25
3803.952	-24.25
3806.602	-27.25
3809.251	-25.25
3811.897	-23.25
3814.542	-26.25
3817.184	-24.25
3819.825	-24.25
3822.463	-22.25
3825.1	-23.25
3827.735	-23.25
3830.367	-26.25
3832.998	-25.25
3835.627	-22.25
3838.253	-20.25
3840.878	-21.25
3843.501	-19.25
3846.122	-26.25
3848.741	-23.25
3851.358	-27.25
3853.973	-26.25
3856.586	-24.25
3859.197	-25.25
3861.806	-23.25
3864.414	-24.25
3867.019	-22.25
3869.622	-25.25
3872.224	-32.25
3874.823	-27.25
3877.421	-19.25
3880.016	-16.25
3882.61	-16.25
3885.202	-12.25
3887.792	-16.25
3890.38	-20.25
3892.966	-25.25
3895.55	-23.25
3898.132	-21.25
3900.713	-20.25
3903.291	-21.25
3905.868	-21.25
3908.442	-27.25
3911.015	-25.25
3913.586	-27.25
3916.155	-26.25
3918.722	-25.25
3921.287	-18.25
3923.85	-21.25
3926.411	-25.25
3928.971	-22.25
3931.528	-27.25
3934.084	-27.25
3936.638	-23.25
3939.19	-24.25
3941.74	-21.25
3944.288	-24.25
3946.834	-24.25
3949.378	-24.25
3951.921	-25.25
3954.462	-25.25
3957	-25.25
3959.537	-20.25
3962.072	-22.25
3964.606	-21.25
3967.137	-22.25
3969.667	-24.25
3972.194	-26.25
3974.72	-27.25
3977.244	-25.25
3979.766	-26.25
3982.286	-21.25
3984.805	-19.25
3987.321	-26.25
3989.836	-24.25
3992.349	-25.25
3994.86	-24.25
3997.369	-25.25
3999.877	-23.25
4002.382	-24.25
4004.886	-22.25
4007.388	-23.25
4009.888	-23.25
4012.386	-26.25
4014.883	-23.25
4017.377	-24.25
4019.87	-25.25
4022.361	-19.25
4024.85	-25.25
4027.338	-26.25
4029.823	-26.25
4032.307	-24.25
4034.789	-24.25
4037.269	-24.25
4039.747	-26.25
4042.224	-24.25
4044.699	-27.25
4047.172	-26.25
4049.643	-25.25
4052.112	-22.25
4054.58	-22.25
4057.046	-23.25
4059.51	-28.25
4061.972	-26.25
4064.432	-24.25
4066.891	-22.25
4069.348	-22.25
4071.803	-23.25
4074.256	-21.25
4076.708	-27.25
4079.158	-26.25
4081.606	-23.25
4084.052	-22.25
4086.497	-20.25
4088.939	-22.25
4091.38	-21.25
4093.819	-24.25
4096.257	-26.25
4098.693	-26.25
4101.127	-24.25
4103.559	-25.25
4105.989	-10.25
4108.418	-11.25
4110.845	-7.25
4113.27	-10.25
4115.694	-10.25
4118.115	-7.25
4120.535	-23.25
4122.954	-27.25
4125.37	-26.25
4127.785	-18.25
4130.198	-22.25
4132.609	-23.25
4135.019	-22.25
4137.427	-28.25
4139.833	-25.25
4142.237	-28.25
