Data from 1000000CFU2_A_RamanShift_1.txt Node
Date: Thu Feb 02 13:59:50 IST 2017
User: aro
Spectrometer: QEPB0276
Trigger mode: 0
Integration Time (sec): 5.000000E0
Scans to average: 1
Electric dark correction enabled: true
Nonlinearity correction enabled: false
Boxcar width: 0
XAxis mode: Raman Shifts
Number of Pixels in Spectrum: 1044
>>>>>Begin Spectral Data<<<<<
160.701	-1.38
166.742	2.62
172.777	21.62
178.805	87.62
184.826	211.62
190.841	417.62
196.849	659.62
202.85	803.62
208.845	837.62
214.833	840.62
220.815	809.62
226.789	798.62
232.758	791.62
238.719	791.62
244.674	772.62
250.623	760.62
256.565	744.62
262.5	723.62
268.429	705.62
274.351	691.62
280.267	681.62
286.176	671.62
292.079	671.62
297.975	655.62
303.865	649.62
309.748	662.62
315.625	644.62
321.495	643.62
327.359	635.62
333.217	660.62
339.068	649.62
344.912	660.62
350.751	655.62
356.583	671.62
362.408	670.62
368.227	664.62
374.04	656.62
379.847	648.62
385.647	647.62
391.44	644.62
397.228	657.62
403.009	657.62
408.784	657.62
414.553	663.62
420.315	681.62
426.071	673.62
431.821	677.62
437.565	681.62
443.302	670.62
449.033	659.62
454.758	676.62
460.477	661.62
466.189	654.62
471.896	645.62
477.596	644.62
483.29	628.62
488.978	639.62
494.66	622.62
500.335	600.62
506.005	577.62
511.668	561.62
517.325	544.62
522.977	526.62
528.622	513.62
534.261	488.62
539.894	489.62
545.521	479.62
551.141	465.62
556.756	467.62
562.365	447.62
567.968	462.62
573.565	449.62
579.155	443.62
584.74	450.62
590.319	451.62
595.892	449.62
601.459	447.62
607.02	437.62
612.575	432.62
618.124	437.62
623.667	426.62
629.204	426.62
634.735	410.62
640.261	416.62
645.781	415.62
651.294	413.62
656.802	408.62
662.304	402.62
667.8	398.62
673.29	391.62
678.775	394.62
684.254	384.62
689.726	382.62
695.193	379.62
700.655	380.62
706.11	381.62
711.56	376.62
717.004	375.62
722.442	379.62
727.874	380.62
733.301	370.62
738.722	376.62
744.137	367.62
749.547	366.62
754.951	369.62
760.349	374.62
765.741	375.62
771.128	371.62
776.509	374.62
781.885	377.62
787.254	382.62
792.618	380.62
797.977	375.62
803.33	369.62
808.677	370.62
814.019	367.62
819.355	364.62
824.686	375.62
830.011	367.62
835.33	378.62
840.644	381.62
845.952	380.62
851.255	390.62
856.552	382.62
861.844	383.62
867.13	385.62
872.41	382.62
877.686	389.62
882.955	394.62
888.219	384.62
893.478	381.62
898.731	361.62
903.979	356.62
909.221	346.62
914.458	340.62
919.69	350.62
924.916	345.62
930.136	329.62
935.351	335.62
940.561	325.62
945.766	338.62
950.965	337.62
956.158	337.62
961.347	328.62
966.529	316.62
971.707	313.62
976.879	304.62
982.046	299.62
987.208	307.62
992.364	310.62
997.515	316.62
1002.66	307.62
1007.801	321.62
1012.936	328.62
1018.066	328.62
1023.19	326.62
1028.309	342.62
1033.423	335.62
1038.532	335.62
1043.636	345.62
1048.734	348.62
1053.827	337.62
1058.915	347.62
1063.998	355.62
1069.075	359.62
1074.147	365.62
1079.214	365.62
1084.276	360.62
1089.333	378.62
1094.385	379.62
1099.431	362.62
1104.472	353.62
1109.509	340.62
1114.54	335.62
1119.565	342.62
1124.586	343.62
1129.602	339.62
1134.613	337.62
1139.618	320.62
1144.619	294.62
1149.614	287.62
1154.604	293.62
1159.589	288.62
1164.57	285.62
1169.545	285.62
1174.515	273.62
1179.48	284.62
1184.44	264.62
1189.395	262.62
1194.345	251.62
1199.29	257.62
1204.23	252.62
1209.165	263.62
1214.095	268.62
1219.021	260.62
1223.941	264.62
1228.856	269.62
1233.766	274.62
1238.672	271.62
1243.572	284.62
1248.467	293.62
1253.358	294.62
1258.244	294.62
1263.124	294.62
1268	297.62
1272.871	276.62
1277.737	283.62
1282.599	277.62
1287.455	272.62
1292.306	286.62
1297.153	302.62
1301.995	318.62
1306.832	321.62
1311.664	313.62
1316.491	310.62
1321.314	288.62
1326.132	275.62
1330.945	269.62
1335.753	262.62
1340.556	250.62
1345.354	254.62
1350.148	249.62
1354.937	244.62
1359.722	239.62
1364.501	239.62
1369.276	240.62
1374.046	240.62
1378.811	240.62
1383.572	242.62
1388.327	224.62
1393.079	218.62
1397.825	222.62
1402.567	213.62
1407.304	212.62
1412.036	217.62
1416.764	230.62
1421.487	225.62
1426.205	239.62
1430.919	239.62
1435.628	256.62
1440.333	287.62
1445.032	308.62
1449.727	327.62
1454.418	314.62
1459.104	303.62
1463.785	294.62
1468.462	273.62
1473.134	260.62
1477.802	234.62
1482.465	215.62
1487.123	191.62
1491.777	183.62
1496.426	185.62
1501.071	173.62
1505.711	168.62
1510.347	165.62
1514.978	173.62
1519.604	173.62
1524.226	173.62
1528.844	164.62
1533.457	170.62
1538.065	167.62
1542.669	168.62
1547.269	168.62
1551.864	167.62
1556.454	158.62
1561.041	170.62
1565.622	165.62
1570.199	165.62
1574.772	164.62
1579.34	171.62
1583.904	162.62
1588.464	169.62
1593.019	174.62
1597.569	168.62
1602.115	170.62
1606.657	179.62
1611.195	178.62
1615.728	180.62
1620.256	185.62
1624.78	185.62
1629.3	182.62
1633.816	180.62
1638.327	184.62
1642.834	190.62
1647.336	200.62
1651.834	199.62
1656.328	205.62
1660.817	205.62
1665.302	209.62
1669.783	200.62
1674.259	187.62
1678.732	193.62
1683.199	178.62
1687.663	171.62
1692.122	150.62
1696.577	151.62
1701.028	142.62
1705.474	140.62
1709.917	138.62
1714.355	131.62
1718.788	133.62
1723.218	123.62
1727.643	124.62
1732.064	120.62
1736.481	118.62
1740.893	116.62
1745.301	113.62
1749.705	113.62
1754.105	111.62
1758.501	99.62
1762.893	98.62
1767.28	90.62
1771.663	95.62
1776.042	92.62
1780.417	87.62
1784.787	89.62
1789.154	85.62
1793.516	91.62
1797.874	92.62
1802.228	93.62
1806.578	91.62
1810.924	88.62
1815.266	86.62
1819.603	81.62
1823.937	82.62
1828.266	79.62
1832.591	78.62
1836.913	79.62
1841.23	74.62
1845.543	75.62
1849.852	67.62
1854.156	73.62
1858.457	79.62
1862.754	74.62
1867.047	74.62
1871.335	78.62
1875.62	76.62
1879.9	72.62
1884.177	73.62
1888.449	78.62
1892.718	78.62
1896.982	77.62
1901.243	79.62
1905.499	70.62
1909.752	71.62
1914	72.62
1918.245	69.62
1922.485	67.62
1926.722	68.62
1930.954	70.62
1935.183	75.62
1939.408	76.62
1943.628	80.62
1947.845	71.62
1952.058	69.62
1956.267	71.62
1960.472	71.62
1964.673	74.62
1968.87	70.62
1973.063	67.62
1977.252	66.62
1981.438	61.62
1985.619	56.62
1989.797	57.62
1993.971	64.62
1998.14	62.62
2002.306	66.62
2006.469	61.62
2010.627	62.62
2014.781	65.62
2018.932	62.62
2023.078	59.62
2027.221	62.62
2031.36	65.62
2035.495	57.62
2039.627	60.62
2043.754	55.62
2047.878	56.62
2051.998	51.62
2056.114	55.62
2060.226	55.62
2064.334	56.62
2068.439	56.62
2072.54	56.62
2076.637	61.62
2080.73	53.62
2084.82	66.62
2088.906	65.62
2092.988	60.62
2097.066	59.62
2101.14	58.62
2105.211	58.62
2109.278	54.62
2113.342	53.62
2117.401	57.62
2121.457	61.62
2125.509	55.62
2129.558	62.62
2133.602	55.62
2137.643	58.62
2141.681	51.62
2145.714	52.62
2149.744	52.62
2153.77	52.62
2157.793	50.62
2161.812	50.62
2165.827	50.62
2169.838	44.62
2173.846	45.62
2177.851	43.62
2181.851	46.62
2185.848	48.62
2189.841	46.62
2193.831	45.62
2197.817	39.62
2201.799	42.62
2205.778	43.62
2209.753	39.62
2213.725	42.62
2217.693	45.62
2221.657	42.62
2225.618	37.62
2229.575	39.62
2233.529	37.62
2237.479	36.62
2241.425	38.62
2245.368	36.62
2249.307	38.62
2253.243	34.62
2257.175	32.62
2261.104	33.62
2265.029	36.62
2268.95	34.62
2272.868	31.62
2276.783	31.62
2280.694	26.62
2284.601	28.62
2288.505	28.62
2292.405	29.62
2296.302	27.62
2300.195	28.62
2304.085	23.62
2307.971	27.62
2311.854	22.62
2315.734	24.62
2319.609	26.62
2323.482	28.62
2327.351	28.62
2331.216	23.62
2335.078	24.62
2338.937	22.62
2342.792	19.62
2346.643	20.62
2350.492	21.62
2354.336	17.62
2358.178	17.62
2362.015	20.62
2365.85	16.62
2369.681	16.62
2373.508	14.62
2377.333	22.62
2381.153	23.62
2384.971	18.62
2388.785	16.62
2392.595	17.62
2396.402	13.62
2400.206	17.62
2404.007	14.62
2407.804	15.62
2411.597	19.62
2415.388	17.62
2419.174	14.62
2422.958	13.62
2426.738	10.62
2430.515	11.62
2434.289	9.62
2438.059	21.62
2441.825	12.62
2445.589	17.62
2449.349	11.62
2453.106	11.62
2456.859	10.62
2460.61	9.62
2464.356	13.62
2468.1	13.62
2471.84	15.62
2475.577	13.62
2479.311	6.62
2483.041	9.62
2486.768	8.62
2490.492	7.62
2494.213	8.62
2497.93	11.62
2501.644	10.62
2505.355	8.62
2509.062	8.62
2512.766	8.62
2516.467	7.62
2520.165	6.62
2523.859	6.62
2527.551	9.62
2531.239	11.62
2534.923	3.62
2538.605	5.62
2542.283	4.62
2545.958	8.62
2549.63	8.62
2553.299	8.62
2556.964	8.62
2560.626	10.62
2564.285	7.62
2567.941	8.62
2571.594	9.62
2575.243	7.62
2578.89	6.62
2582.533	9.62
2586.173	11.62
2589.809	7.62
2593.443	10.62
2597.073	3.62
2600.701	4.62
2604.325	6.62
2607.946	7.62
2611.564	6.62
2615.178	8.62
2618.79	8.62
2622.398	9.62
2626.004	8.62
2629.606	9.62
2633.205	8.62
2636.801	7.62
2640.394	7.62
2643.983	7.62
2647.57	7.62
2651.153	8.62
2654.734	7.62
2658.311	5.62
2661.885	7.62
2665.456	4.62
2669.025	-0.38
2672.589	0.62
2676.151	4.62
2679.71	8.62
2683.266	8.62
2686.819	7.62
2690.368	5.62
2693.915	2.62
2697.458	2.62
2700.999	0.62
2704.536	9.62
2708.071	9.62
2711.602	9.62
2715.13	5.62
2718.656	9.62
2722.178	7.62
2725.697	2.62
2729.214	8.62
2732.727	8.62
2736.237	9.62
2739.744	12.62
2743.249	12.62
2746.75	6.62
2750.248	9.62
2753.743	5.62
2757.236	4.62
2760.725	6.62
2764.211	9.62
2767.695	9.62
2771.175	10.62
2774.652	6.62
2778.127	5.62
2781.598	6.62
2785.067	5.62
2788.532	4.62
2791.995	9.62
2795.455	9.62
2798.911	9.62
2802.365	8.62
2805.816	8.62
2809.264	16.62
2812.709	16.62
2816.151	14.62
2819.59	15.62
2823.026	18.62
2826.46	24.62
2829.89	25.62
2833.318	28.62
2836.742	29.62
2840.164	39.62
2843.583	49.62
2846.999	61.62
2850.412	69.62
2853.822	78.62
2857.229	89.62
2860.634	95.62
2864.035	87.62
2867.434	88.62
2870.83	95.62
2874.223	93.62
2877.613	107.62
2881	109.62
2884.385	111.62
2887.766	120.62
2891.145	117.62
2894.521	118.62
2897.894	111.62
2901.264	108.62
2904.631	111.62
2907.996	110.62
2911.358	107.62
2914.717	106.62
2918.073	102.62
2921.426	104.62
2924.777	103.62
2928.124	100.62
2931.469	99.62
2934.811	99.62
2938.15	98.62
2941.487	93.62
2944.821	91.62
2948.152	80.62
2951.48	81.62
2954.805	74.62
2958.128	71.62
2961.447	73.62
2964.765	64.62
2968.079	63.62
2971.39	58.62
2974.699	58.62
2978.005	53.62
2981.308	48.62
2984.609	45.62
2987.907	42.62
2991.202	46.62
2994.494	39.62
2997.784	39.62
3001.07	42.62
3004.355	46.62
3007.636	38.62
3010.915	40.62
3014.191	39.62
3017.464	36.62
3020.734	33.62
3024.002	34.62
3027.267	35.62
3030.53	34.62
3033.789	37.62
3037.046	30.62
3040.301	33.62
3043.552	29.62
3046.801	34.62
3050.048	37.62
3053.291	44.62
3056.532	43.62
3059.771	40.62
3063.006	41.62
3066.239	45.62
3069.469	45.62
3072.697	45.62
3075.922	53.62
3079.144	48.62
3082.364	52.62
3085.581	49.62
3088.795	53.62
3092.007	47.62
3095.216	55.62
3098.423	55.62
3101.627	58.62
3104.828	64.62
3108.026	58.62
3111.222	61.62
3114.416	61.62
3117.607	66.62
3120.795	73.62
3123.98	69.62
3127.163	72.62
3130.344	72.62
3133.521	75.62
3136.696	74.62
3139.869	80.62
3143.039	84.62
3146.206	83.62
3149.371	79.62
3152.533	82.62
3155.693	80.62
3158.85	84.62
3162.005	80.62
3165.157	93.62
3168.306	82.62
3171.453	88.62
3174.597	85.62
3177.739	87.62
3180.878	86.62
3184.014	89.62
3187.149	86.62
3190.28	87.62
3193.409	94.62
3196.536	92.62
3199.659	89.62
3202.781	85.62
3205.9	86.62
3209.016	92.62
3212.13	94.62
3215.241	93.62
3218.35	90.62
3221.456	84.62
3224.56	83.62
3227.661	84.62
3230.76	85.62
3233.856	84.62
3236.95	79.62
3240.041	80.62
3243.13	80.62
3246.216	79.62
3249.3	81.62
3252.382	77.62
3255.46	78.62
3258.537	80.62
3261.611	79.62
3264.682	76.62
3267.751	74.62
3270.818	72.62
3273.882	71.62
3276.943	74.62
3280.002	71.62
3283.059	77.62
3286.113	78.62
3289.165	72.62
3292.214	71.62
3295.261	65.62
3298.306	69.62
3301.348	69.62
3304.387	64.62
3307.425	65.62
3310.459	62.62
3313.492	61.62
3316.521	60.62
3319.549	64.62
3322.574	65.62
3325.597	60.62
3328.617	59.62
3331.635	53.62
3334.65	61.62
3337.663	55.62
3340.674	58.62
3343.682	56.62
3346.688	54.62
3349.691	56.62
3352.692	53.62
3355.691	55.62
3358.687	58.62
3361.681	58.62
3364.673	54.62
3367.662	55.62
3370.649	57.62
3373.633	52.62
3376.615	46.62
3379.595	42.62
3382.572	44.62
3385.547	51.62
3388.52	49.62
3391.49	46.62
3394.458	46.62
3397.424	44.62
3400.387	40.62
3403.348	41.62
3406.307	45.62
3409.263	40.62
3412.217	42.62
3415.168	41.62
3418.118	43.62
3421.065	38.62
3424.009	36.62
3426.951	37.62
3429.891	37.62
3432.829	39.62
3435.764	34.62
3438.697	33.62
3441.628	28.62
3444.557	30.62
3447.483	30.62
3450.407	30.62
3453.328	27.62
3456.247	29.62
3459.164	27.62
3462.079	22.62
3464.991	18.62
3467.902	16.62
3470.809	17.62
3473.715	18.62
3476.618	22.62
3479.519	16.62
3482.418	11.62
3485.315	11.62
3488.209	9.62
3491.101	6.62
3493.99	13.62
3496.878	14.62
3499.763	10.62
3502.646	9.62
3505.527	4.62
3508.405	7.62
3511.281	5.62
3514.155	6.62
3517.027	6.62
3519.897	7.62
3522.764	6.62
3525.629	-0.38
3528.492	1.62
3531.352	-1.38
3534.211	-3.38
3537.067	-1.38
3539.921	-3.38
3542.773	-4.38
3545.622	-3.38
3548.469	-7.38
3551.315	-7.38
3554.157	-8.38
3556.998	-7.38
3559.837	-5.38
3562.673	-4.38
3565.507	-10.38
3568.339	-7.38
3571.169	-10.38
3573.996	-11.38
3576.822	-9.38
3579.645	-12.38
3582.466	-10.38
3585.285	-10.38
3588.101	-11.38
3590.916	-17.38
3593.728	-16.38
3596.538	-18.38
3599.346	-16.38
3602.152	-15.38
3604.956	-17.38
3607.757	-16.38
3610.556	-17.38
3613.354	-17.38
3616.149	-17.38
3618.942	-15.38
3621.732	-20.38
3624.521	-21.38
3627.307	-16.38
3630.092	-19.38
3632.874	-16.38
3635.654	-17.38
3638.432	-22.38
3641.208	-19.38
3643.982	-19.38
3646.753	-17.38
3649.523	-19.38
3652.29	-21.38
3655.055	-22.38
3657.818	-24.38
3660.579	-20.38
3663.338	-20.38
3666.095	-19.38
3668.849	-19.38
3671.602	-22.38
3674.352	-23.38
3677.101	-20.38
3679.847	-22.38
3682.591	-20.38
3685.333	-19.38
3688.073	-23.38
3690.811	-26.38
3693.547	-29.38
3696.281	-25.38
3699.013	-25.38
3701.742	-24.38
3704.47	-20.38
3707.195	-23.38
3709.919	-24.38
3712.64	-27.38
3715.359	-26.38
3718.076	-22.38
3720.792	-26.38
3723.505	-18.38
3726.216	-19.38
3728.925	-23.38
3731.632	-28.38
3734.336	-25.38
3737.039	-25.38
3739.74	-28.38
3742.439	-23.38
3745.136	-23.38
3747.83	-20.38
3750.523	-22.38
3753.213	-27.38
3755.902	-26.38
3758.589	-27.38
3761.273	-26.38
3763.956	-23.38
3766.636	-23.38
3769.315	-22.38
3771.991	-26.38
3774.665	-27.38
3777.338	-26.38
3780.008	-26.38
3782.677	-24.38
3785.343	-23.38
3788.007	-23.38
3790.67	-21.38
3793.33	-27.38
3795.989	-26.38
3798.645	-27.38
3801.299	-26.38
3803.952	-24.38
3806.602	-23.38
3809.251	-22.38
3811.897	-25.38
3814.542	-26.38
3817.184	-23.38
3819.825	-27.38
3822.463	-24.38
3825.1	-21.38
3827.735	-23.38
3830.367	-23.38
3832.998	-24.38
3835.627	-26.38
3838.253	-23.38
3840.878	-26.38
3843.501	-24.38
3846.122	-28.38
3848.741	-22.38
3851.358	-26.38
3853.973	-24.38
3856.586	-22.38
3859.197	-29.38
3861.806	-26.38
3864.414	-24.38
3867.019	-21.38
3869.622	-25.38
3872.224	-25.38
3874.823	-26.38
3877.421	-21.38
3880.016	-21.38
3882.61	-19.38
3885.202	-15.38
3887.792	-14.38
3890.38	-18.38
3892.966	-25.38
3895.55	-25.38
3898.132	-24.38
3900.713	-22.38
3903.291	-24.38
3905.868	-24.38
3908.442	-25.38
3911.015	-23.38
3913.586	-25.38
3916.155	-26.38
3918.722	-24.38
3921.287	-22.38
3923.85	-26.38
3926.411	-27.38
3928.971	-20.38
3931.528	-26.38
3934.084	-30.38
3936.638	-24.38
3939.19	-25.38
3941.74	-23.38
3944.288	-25.38
3946.834	-29.38
3949.378	-26.38
3951.921	-22.38
3954.462	-23.38
3957	-20.38
3959.537	-21.38
3962.072	-24.38
3964.606	-25.38
3967.137	-24.38
3969.667	-26.38
3972.194	-26.38
3974.72	-25.38
3977.244	-24.38
3979.766	-20.38
3982.286	-21.38
3984.805	-25.38
3987.321	-29.38
3989.836	-31.38
3992.349	-24.38
3994.86	-25.38
3997.369	-24.38
3999.877	-23.38
4002.382	-24.38
4004.886	-24.38
4007.388	-25.38
4009.888	-28.38
4012.386	-26.38
4014.883	-26.38
4017.377	-23.38
4019.87	-21.38
4022.361	-20.38
4024.85	-28.38
4027.338	-26.38
4029.823	-25.38
4032.307	-25.38
4034.789	-24.38
4037.269	-23.38
4039.747	-24.38
4042.224	-22.38
4044.699	-26.38
4047.172	-28.38
4049.643	-25.38
4052.112	-23.38
4054.58	-24.38
4057.046	-26.38
4059.51	-28.38
4061.972	-25.38
4064.432	-24.38
4066.891	-26.38
4069.348	-25.38
4071.803	-24.38
4074.256	-26.38
4076.708	-26.38
4079.158	-27.38
4081.606	-26.38
4084.052	-24.38
4086.497	-22.38
4088.939	-20.38
4091.38	-24.38
4093.819	-24.38
4096.257	-25.38
4098.693	-26.38
4101.127	-26.38
4103.559	-28.38
4105.989	-13.38
4108.418	-13.38
4110.845	-5.38
4113.27	-7.38
4115.694	-9.38
4118.115	-10.38
4120.535	-24.38
4122.954	-29.38
4125.37	-24.38
4127.785	-20.38
4130.198	-22.38
4132.609	-25.38
4135.019	-25.38
4137.427	-31.38
4139.833	-26.38
4142.237	-27.38
