Data from 100000CFU1_A_RamanShift_1.txt Node
Date: Thu Feb 02 13:54:55 IST 2017
User: aro
Spectrometer: QEPB0276
Trigger mode: 0
Integration Time (sec): 5.000000E0
Scans to average: 1
Electric dark correction enabled: true
Nonlinearity correction enabled: false
Boxcar width: 0
XAxis mode: Raman Shifts
Number of Pixels in Spectrum: 1044
>>>>>Begin Spectral Data<<<<<
160.701	-4.62
166.742	2.38
172.777	26.38
178.805	80.38
184.826	204.38
190.841	411.38
196.849	638.38
202.85	786.38
208.845	833.38
214.833	828.38
220.815	816.38
226.789	796.38
232.758	789.38
238.719	778.38
244.674	770.38
250.623	747.38
256.565	734.38
262.5	713.38
268.429	702.38
274.351	693.38
280.267	679.38
286.176	674.38
292.079	675.38
297.975	665.38
303.865	651.38
309.748	652.38
315.625	637.38
321.495	655.38
327.359	644.38
333.217	645.38
339.068	637.38
344.912	646.38
350.751	672.38
356.583	665.38
362.408	677.38
368.227	657.38
374.04	647.38
379.847	655.38
385.647	660.38
391.44	660.38
397.228	659.38
403.009	668.38
408.784	662.38
414.553	658.38
420.315	669.38
426.071	678.38
431.821	679.38
437.565	683.38
443.302	681.38
449.033	678.38
454.758	669.38
460.477	658.38
466.189	657.38
471.896	651.38
477.596	643.38
483.29	639.38
488.978	625.38
494.66	613.38
500.335	609.38
506.005	585.38
511.668	560.38
517.325	532.38
522.977	527.38
528.622	510.38
534.261	498.38
539.894	482.38
545.521	477.38
551.141	468.38
556.756	462.38
562.365	468.38
567.968	465.38
573.565	453.38
579.155	453.38
584.74	452.38
590.319	448.38
595.892	449.38
601.459	446.38
607.02	443.38
612.575	435.38
618.124	440.38
623.667	425.38
629.204	421.38
634.735	403.38
640.261	399.38
645.781	410.38
651.294	415.38
656.802	410.38
662.304	400.38
667.8	400.38
673.29	397.38
678.775	394.38
684.254	382.38
689.726	394.38
695.193	380.38
700.655	379.38
706.11	387.38
711.56	378.38
717.004	383.38
722.442	374.38
727.874	378.38
733.301	373.38
738.722	371.38
744.137	378.38
749.547	374.38
754.951	375.38
760.349	367.38
765.741	373.38
771.128	365.38
776.509	371.38
781.885	369.38
787.254	381.38
792.618	370.38
797.977	377.38
803.33	372.38
808.677	371.38
814.019	370.38
819.355	369.38
824.686	373.38
830.011	374.38
835.33	379.38
840.644	387.38
845.952	381.38
851.255	381.38
856.552	378.38
861.844	391.38
867.13	387.38
872.41	389.38
877.686	395.38
882.955	393.38
888.219	386.38
893.478	382.38
898.731	365.38
903.979	355.38
909.221	348.38
914.458	342.38
919.69	344.38
924.916	342.38
930.136	342.38
935.351	343.38
940.561	339.38
945.766	341.38
950.965	345.38
956.158	337.38
961.347	327.38
966.529	318.38
971.707	314.38
976.879	312.38
982.046	310.38
987.208	310.38
992.364	309.38
997.515	312.38
1002.66	313.38
1007.801	322.38
1012.936	326.38
1018.066	327.38
1023.19	334.38
1028.309	340.38
1033.423	345.38
1038.532	341.38
1043.636	331.38
1048.734	333.38
1053.827	338.38
1058.915	344.38
1063.998	356.38
1069.075	353.38
1074.147	374.38
1079.214	365.38
1084.276	362.38
1089.333	375.38
1094.385	369.38
1099.431	371.38
1104.472	354.38
1109.509	344.38
1114.54	334.38
1119.565	338.38
1124.586	337.38
1129.602	344.38
1134.613	335.38
1139.618	321.38
1144.619	301.38
1149.614	292.38
1154.604	286.38
1159.589	295.38
1164.57	286.38
1169.545	286.38
1174.515	273.38
1179.48	270.38
1184.44	264.38
1189.395	265.38
1194.345	261.38
1199.29	261.38
1204.23	254.38
1209.165	258.38
1214.095	261.38
1219.021	266.38
1223.941	265.38
1228.856	267.38
1233.766	271.38
1238.672	279.38
1243.572	285.38
1248.467	295.38
1253.358	289.38
1258.244	291.38
1263.124	293.38
1268	302.38
1272.871	284.38
1277.737	289.38
1282.599	276.38
1287.455	268.38
1292.306	283.38
1297.153	299.38
1301.995	313.38
1306.832	328.38
1311.664	314.38
1316.491	303.38
1321.314	297.38
1326.132	283.38
1330.945	269.38
1335.753	260.38
1340.556	251.38
1345.354	251.38
1350.148	250.38
1354.937	249.38
1359.722	235.38
1364.501	234.38
1369.276	234.38
1374.046	242.38
1378.811	232.38
1383.572	234.38
1388.327	234.38
1393.079	226.38
1397.825	220.38
1402.567	217.38
1407.304	223.38
1412.036	217.38
1416.764	223.38
1421.487	228.38
1426.205	231.38
1430.919	240.38
1435.628	265.38
1440.333	290.38
1445.032	312.38
1449.727	323.38
1454.418	316.38
1459.104	298.38
1463.785	287.38
1468.462	283.38
1473.134	254.38
1477.802	233.38
1482.465	218.38
1487.123	195.38
1491.777	178.38
1496.426	180.38
1501.071	169.38
1505.711	176.38
1510.347	174.38
1514.978	180.38
1519.604	173.38
1524.226	171.38
1528.844	172.38
1533.457	164.38
1538.065	170.38
1542.669	166.38
1547.269	170.38
1551.864	169.38
1556.454	170.38
1561.041	170.38
1565.622	161.38
1570.199	164.38
1574.772	163.38
1579.34	169.38
1583.904	171.38
1588.464	176.38
1593.019	168.38
1597.569	174.38
1602.115	180.38
1606.657	175.38
1611.195	173.38
1615.728	181.38
1620.256	177.38
1624.78	182.38
1629.3	183.38
1633.816	181.38
1638.327	184.38
1642.834	184.38
1647.336	190.38
1651.834	198.38
1656.328	203.38
1660.817	208.38
1665.302	211.38
1669.783	197.38
1674.259	188.38
1678.732	186.38
1683.199	179.38
1687.663	168.38
1692.122	156.38
1696.577	148.38
1701.028	153.38
1705.474	136.38
1709.917	141.38
1714.355	141.38
1718.788	127.38
1723.218	125.38
1727.643	124.38
1732.064	118.38
1736.481	126.38
1740.893	119.38
1745.301	120.38
1749.705	111.38
1754.105	110.38
1758.501	98.38
1762.893	99.38
1767.28	95.38
1771.663	90.38
1776.042	96.38
1780.417	92.38
1784.787	91.38
1789.154	88.38
1793.516	92.38
1797.874	92.38
1802.228	91.38
1806.578	94.38
1810.924	91.38
1815.266	90.38
1819.603	87.38
1823.937	83.38
1828.266	80.38
1832.591	79.38
1836.913	81.38
1841.23	83.38
1845.543	79.38
1849.852	74.38
1854.156	76.38
1858.457	78.38
1862.754	72.38
1867.047	76.38
1871.335	73.38
1875.62	79.38
1879.9	73.38
1884.177	75.38
1888.449	75.38
1892.718	78.38
1896.982	77.38
1901.243	72.38
1905.499	76.38
1909.752	72.38
1914	70.38
1918.245	72.38
1922.485	75.38
1926.722	76.38
1930.954	72.38
1935.183	71.38
1939.408	71.38
1943.628	71.38
1947.845	75.38
1952.058	75.38
1956.267	76.38
1960.472	73.38
1964.673	74.38
1968.87	65.38
1973.063	66.38
1977.252	62.38
1981.438	67.38
1985.619	63.38
1989.797	62.38
1993.971	67.38
1998.14	63.38
2002.306	64.38
2006.469	60.38
2010.627	61.38
2014.781	65.38
2018.932	68.38
2023.078	66.38
2027.221	61.38
2031.36	57.38
2035.495	53.38
2039.627	60.38
2043.754	61.38
2047.878	59.38
2051.998	58.38
2056.114	60.38
2060.226	56.38
2064.334	61.38
2068.439	57.38
2072.54	53.38
2076.637	62.38
2080.73	59.38
2084.82	64.38
2088.906	65.38
2092.988	61.38
2097.066	59.38
2101.14	62.38
2105.211	59.38
2109.278	52.38
2113.342	59.38
2117.401	62.38
2121.457	63.38
2125.509	55.38
2129.558	58.38
2133.602	51.38
2137.643	57.38
2141.681	53.38
2145.714	49.38
2149.744	57.38
2153.77	56.38
2157.793	48.38
2161.812	54.38
2165.827	46.38
2169.838	45.38
2173.846	45.38
2177.851	46.38
2181.851	44.38
2185.848	46.38
2189.841	47.38
2193.831	44.38
2197.817	40.38
2201.799	38.38
2205.778	38.38
2209.753	37.38
2213.725	45.38
2217.693	46.38
2221.657	41.38
2225.618	37.38
2229.575	40.38
2233.529	35.38
2237.479	34.38
2241.425	45.38
2245.368	43.38
2249.307	36.38
2253.243	35.38
2257.175	29.38
2261.104	28.38
2265.029	31.38
2268.95	32.38
2272.868	33.38
2276.783	34.38
2280.694	31.38
2284.601	28.38
2288.505	29.38
2292.405	25.38
2296.302	26.38
2300.195	29.38
2304.085	26.38
2307.971	27.38
2311.854	27.38
2315.734	22.38
2319.609	20.38
2323.482	22.38
2327.351	27.38
2331.216	25.38
2335.078	29.38
2338.937	23.38
2342.792	21.38
2346.643	22.38
2350.492	23.38
2354.336	18.38
2358.178	15.38
2362.015	17.38
2365.85	21.38
2369.681	18.38
2373.508	21.38
2377.333	17.38
2381.153	19.38
2384.971	17.38
2388.785	17.38
2392.595	18.38
2396.402	13.38
2400.206	16.38
2404.007	19.38
2407.804	14.38
2411.597	20.38
2415.388	11.38
2419.174	12.38
2422.958	10.38
2426.738	12.38
2430.515	13.38
2434.289	15.38
2438.059	17.38
2441.825	12.38
2445.589	15.38
2449.349	15.38
2453.106	7.38
2456.859	11.38
2460.61	11.38
2464.356	13.38
2468.1	14.38
2471.84	14.38
2475.577	8.38
2479.311	5.38
2483.041	8.38
2486.768	11.38
2490.492	13.38
2494.213	12.38
2497.93	12.38
2501.644	11.38
2505.355	9.38
2509.062	4.38
2512.766	7.38
2516.467	15.38
2520.165	9.38
2523.859	12.38
2527.551	14.38
2531.239	13.38
2534.923	1.38
2538.605	6.38
2542.283	2.38
2545.958	7.38
2549.63	12.38
2553.299	9.38
2556.964	10.38
2560.626	10.38
2564.285	3.38
2567.941	6.38
2571.594	5.38
2575.243	9.38
2578.89	14.38
2582.533	10.38
2586.173	8.38
2589.809	7.38
2593.443	12.38
2597.073	2.38
2600.701	5.38
2604.325	9.38
2607.946	8.38
2611.564	13.38
2615.178	12.38
2618.79	9.38
2622.398	11.38
2626.004	5.38
2629.606	4.38
2633.205	6.38
2636.801	6.38
2640.394	9.38
2643.983	7.38
2647.57	7.38
2651.153	9.38
2654.734	5.38
2658.311	7.38
2661.885	8.38
2665.456	3.38
2669.025	4.38
2672.589	2.38
2676.151	9.38
2679.71	3.38
2683.266	4.38
2686.819	4.38
2690.368	3.38
2693.915	4.38
2697.458	7.38
2700.999	5.38
2704.536	6.38
2708.071	6.38
2711.602	6.38
2715.13	4.38
2718.656	5.38
2722.178	3.38
2725.697	2.38
2729.214	11.38
2732.727	13.38
2736.237	12.38
2739.744	13.38
2743.249	10.38
2746.75	6.38
2750.248	9.38
2753.743	4.38
2757.236	7.38
2760.725	9.38
2764.211	11.38
2767.695	8.38
2771.175	11.38
2774.652	7.38
2778.127	5.38
2781.598	6.38
2785.067	4.38
2788.532	8.38
2791.995	10.38
2795.455	9.38
2798.911	9.38
2802.365	8.38
2805.816	12.38
2809.264	11.38
2812.709	13.38
2816.151	11.38
2819.59	15.38
2823.026	19.38
2826.46	25.38
2829.89	28.38
2833.318	25.38
2836.742	29.38
2840.164	33.38
2843.583	43.38
2846.999	58.38
2850.412	73.38
2853.822	85.38
2857.229	89.38
2860.634	88.38
2864.035	84.38
2867.434	93.38
2870.83	89.38
2874.223	94.38
2877.613	103.38
2881	113.38
2884.385	115.38
2887.766	117.38
2891.145	117.38
2894.521	113.38
2897.894	109.38
2901.264	107.38
2904.631	106.38
2907.996	109.38
2911.358	102.38
2914.717	109.38
2918.073	104.38
2921.426	98.38
2924.777	100.38
2928.124	99.38
2931.469	98.38
2934.811	101.38
2938.15	100.38
2941.487	97.38
2944.821	88.38
2948.152	85.38
2951.48	79.38
2954.805	72.38
2958.128	71.38
2961.447	69.38
2964.765	66.38
2968.079	64.38
2971.39	53.38
2974.699	53.38
2978.005	49.38
2981.308	49.38
2984.609	50.38
2987.907	48.38
2991.202	48.38
2994.494	42.38
2997.784	42.38
3001.07	44.38
3004.355	45.38
3007.636	39.38
3010.915	40.38
3014.191	33.38
3017.464	32.38
3020.734	32.38
3024.002	35.38
3027.267	32.38
3030.53	34.38
3033.789	31.38
3037.046	29.38
3040.301	29.38
3043.552	29.38
3046.801	29.38
3050.048	36.38
3053.291	41.38
3056.532	40.38
3059.771	37.38
3063.006	37.38
3066.239	41.38
3069.469	46.38
3072.697	43.38
3075.922	49.38
3079.144	47.38
3082.364	50.38
3085.581	48.38
3088.795	49.38
3092.007	47.38
3095.216	56.38
3098.423	53.38
3101.627	57.38
3104.828	59.38
3108.026	57.38
3111.222	58.38
3114.416	61.38
3117.607	64.38
3120.795	64.38
3123.98	62.38
3127.163	71.38
3130.344	74.38
3133.521	75.38
3136.696	71.38
3139.869	73.38
3143.039	79.38
3146.206	81.38
3149.371	84.38
3152.533	80.38
3155.693	83.38
3158.85	83.38
3162.005	88.38
3165.157	86.38
3168.306	86.38
3171.453	88.38
3174.597	78.38
3177.739	84.38
3180.878	85.38
3184.014	85.38
3187.149	80.38
3190.28	85.38
3193.409	85.38
3196.536	87.38
3199.659	87.38
3202.781	83.38
3205.9	83.38
3209.016	90.38
3212.13	91.38
3215.241	86.38
3218.35	83.38
3221.456	82.38
3224.56	80.38
3227.661	80.38
3230.76	81.38
3233.856	84.38
3236.95	80.38
3240.041	75.38
3243.13	77.38
3246.216	76.38
3249.3	78.38
3252.382	72.38
3255.46	75.38
3258.537	79.38
3261.611	76.38
3264.682	70.38
3267.751	74.38
3270.818	75.38
3273.882	71.38
3276.943	75.38
3280.002	70.38
3283.059	75.38
3286.113	74.38
3289.165	70.38
3292.214	69.38
3295.261	65.38
3298.306	68.38
3301.348	65.38
3304.387	62.38
3307.425	66.38
3310.459	61.38
3313.492	60.38
3316.521	57.38
3319.549	57.38
3322.574	51.38
3325.597	56.38
3328.617	57.38
3331.635	53.38
3334.65	56.38
3337.663	54.38
3340.674	51.38
3343.682	54.38
3346.688	54.38
3349.691	56.38
3352.692	54.38
3355.691	54.38
3358.687	52.38
3361.681	56.38
3364.673	57.38
3367.662	51.38
3370.649	52.38
3373.633	53.38
3376.615	48.38
3379.595	46.38
3382.572	47.38
3385.547	44.38
3388.52	49.38
3391.49	47.38
3394.458	45.38
3397.424	43.38
3400.387	38.38
3403.348	41.38
3406.307	37.38
3409.263	38.38
3412.217	43.38
3415.168	41.38
3418.118	41.38
3421.065	34.38
3424.009	33.38
3426.951	36.38
3429.891	39.38
3432.829	38.38
3435.764	35.38
3438.697	40.38
3441.628	30.38
3444.557	32.38
3447.483	28.38
3450.407	33.38
3453.328	30.38
3456.247	29.38
3459.164	27.38
3462.079	21.38
3464.991	21.38
3467.902	19.38
3470.809	19.38
3473.715	20.38
3476.618	15.38
3479.519	19.38
3482.418	12.38
3485.315	12.38
3488.209	12.38
3491.101	9.38
3493.99	11.38
3496.878	12.38
3499.763	10.38
3502.646	12.38
3505.527	7.38
3508.405	9.38
3511.281	6.38
3514.155	3.38
3517.027	6.38
3519.897	6.38
3522.764	4.38
3525.629	5.38
3528.492	-0.62
3531.352	-0.62
3534.211	-3.62
3537.067	-1.62
3539.921	-2.62
3542.773	-3.62
3545.622	-3.62
3548.469	-5.62
3551.315	-10.62
3554.157	-8.62
3556.998	-4.62
3559.837	-6.62
3562.673	-2.62
3565.507	-8.62
3568.339	-6.62
3571.169	-9.62
3573.996	-10.62
3576.822	-10.62
3579.645	-12.62
3582.466	-8.62
3585.285	-10.62
3588.101	-7.62
3590.916	-14.62
3593.728	-15.62
3596.538	-13.62
3599.346	-13.62
3602.152	-13.62
3604.956	-16.62
3607.757	-15.62
3610.556	-14.62
3613.354	-17.62
3616.149	-17.62
3618.942	-14.62
3621.732	-16.62
3624.521	-16.62
3627.307	-17.62
3630.092	-19.62
3632.874	-18.62
3635.654	-16.62
3638.432	-17.62
3641.208	-21.62
3643.982	-17.62
3646.753	-16.62
3649.523	-19.62
3652.29	-19.62
3655.055	-21.62
3657.818	-22.62
3660.579	-18.62
3663.338	-21.62
3666.095	-14.62
3668.849	-20.62
3671.602	-21.62
3674.352	-25.62
3677.101	-20.62
3679.847	-21.62
3682.591	-21.62
3685.333	-19.62
3688.073	-20.62
3690.811	-24.62
3693.547	-26.62
3696.281	-22.62
3699.013	-24.62
3701.742	-25.62
3704.47	-20.62
3707.195	-20.62
3709.919	-23.62
3712.64	-29.62
3715.359	-26.62
3718.076	-22.62
3720.792	-25.62
3723.505	-18.62
3726.216	-19.62
3728.925	-24.62
3731.632	-25.62
3734.336	-23.62
3737.039	-22.62
3739.74	-26.62
3742.439	-22.62
3745.136	-22.62
3747.83	-20.62
3750.523	-21.62
3753.213	-26.62
3755.902	-23.62
3758.589	-25.62
3761.273	-28.62
3763.956	-22.62
3766.636	-18.62
3769.315	-21.62
3771.991	-26.62
3774.665	-27.62
3777.338	-25.62
3780.008	-23.62
3782.677	-22.62
3785.343	-23.62
3788.007	-22.62
3790.67	-24.62
3793.33	-27.62
3795.989	-25.62
3798.645	-23.62
3801.299	-25.62
3803.952	-25.62
3806.602	-24.62
3809.251	-24.62
3811.897	-22.62
3814.542	-25.62
3817.184	-24.62
3819.825	-27.62
3822.463	-24.62
3825.1	-27.62
3827.735	-20.62
3830.367	-23.62
3832.998	-25.62
3835.627	-26.62
3838.253	-20.62
3840.878	-28.62
3843.501	-22.62
3846.122	-27.62
3848.741	-22.62
3851.358	-25.62
3853.973	-22.62
3856.586	-25.62
3859.197	-26.62
3861.806	-26.62
3864.414	-27.62
3867.019	-25.62
3869.622	-24.62
3872.224	-27.62
3874.823	-26.62
3877.421	-22.62
3880.016	-21.62
3882.61	-17.62
3885.202	-12.62
3887.792	-13.62
3890.38	-18.62
3892.966	-24.62
3895.55	-22.62
3898.132	-26.62
3900.713	-23.62
3903.291	-27.62
3905.868	-24.62
3908.442	-30.62
3911.015	-25.62
3913.586	-27.62
3916.155	-26.62
3918.722	-26.62
3921.287	-20.62
3923.85	-25.62
3926.411	-25.62
3928.971	-23.62
3931.528	-27.62
3934.084	-26.62
3936.638	-21.62
3939.19	-24.62
3941.74	-24.62
3944.288	-25.62
3946.834	-26.62
3949.378	-25.62
3951.921	-24.62
3954.462	-23.62
3957	-22.62
3959.537	-23.62
3962.072	-22.62
3964.606	-24.62
3967.137	-22.62
3969.667	-28.62
3972.194	-27.62
3974.72	-27.62
3977.244	-20.62
3979.766	-24.62
3982.286	-17.62
3984.805	-23.62
3987.321	-24.62
3989.836	-28.62
3992.349	-25.62
3994.86	-22.62
3997.369	-24.62
3999.877	-21.62
4002.382	-23.62
4004.886	-22.62
4007.388	-24.62
4009.888	-27.62
4012.386	-22.62
4014.883	-26.62
4017.377	-22.62
4019.87	-24.62
4022.361	-18.62
4024.85	-24.62
4027.338	-24.62
4029.823	-26.62
4032.307	-25.62
4034.789	-22.62
4037.269	-27.62
4039.747	-25.62
4042.224	-24.62
4044.699	-30.62
4047.172	-27.62
4049.643	-24.62
4052.112	-23.62
4054.58	-22.62
4057.046	-23.62
4059.51	-27.62
4061.972	-29.62
4064.432	-23.62
4066.891	-25.62
4069.348	-22.62
4071.803	-21.62
4074.256	-22.62
4076.708	-23.62
4079.158	-25.62
4081.606	-26.62
4084.052	-25.62
4086.497	-22.62
4088.939	-21.62
4091.38	-21.62
4093.819	-22.62
4096.257	-24.62
4098.693	-27.62
4101.127	-26.62
4103.559	-25.62
4105.989	-7.62
4108.418	-10.62
4110.845	-9.62
4113.27	-10.62
4115.694	-7.62
4118.115	-9.62
4120.535	-24.62
4122.954	-28.62
4125.37	-28.62
4127.785	-24.62
4130.198	-22.62
4132.609	-24.62
4135.019	-26.62
4137.427	-29.62
4139.833	-21.62
4142.237	-26.62
