Data from 1000000CFU3_D_RamanShift_1.txt Node
Date: Thu Feb 02 12:24:18 IST 2017
User: aro
Spectrometer: QEPB0276
Trigger mode: 0
Integration Time (sec): 5.000000E0
Scans to average: 1
Electric dark correction enabled: true
Nonlinearity correction enabled: false
Boxcar width: 0
XAxis mode: Raman Shifts
Number of Pixels in Spectrum: 1044
>>>>>Begin Spectral Data<<<<<
160.701	-3.62
166.742	1.38
172.777	24.38
178.805	91.38
184.826	229.38
190.841	454.38
196.849	704.38
202.85	857.38
208.845	901.38
214.833	898.38
220.815	877.38
226.789	869.38
232.758	864.38
238.719	853.38
244.674	835.38
250.623	818.38
256.565	799.38
262.5	783.38
268.429	755.38
274.351	745.38
280.267	732.38
286.176	711.38
292.079	717.38
297.975	688.38
303.865	693.38
309.748	700.38
315.625	701.38
321.495	696.38
327.359	684.38
333.217	694.38
339.068	695.38
344.912	703.38
350.751	707.38
356.583	708.38
362.408	711.38
368.227	714.38
374.04	703.38
379.847	695.38
385.647	695.38
391.44	700.38
397.228	699.38
403.009	712.38
408.784	712.38
414.553	712.38
420.315	723.38
426.071	723.38
431.821	736.38
437.565	730.38
443.302	719.38
449.033	715.38
454.758	715.38
460.477	701.38
466.189	702.38
471.896	685.38
477.596	679.38
483.29	659.38
488.978	660.38
494.66	666.38
500.335	644.38
506.005	622.38
511.668	606.38
517.325	583.38
522.977	565.38
528.622	545.38
534.261	534.38
539.894	528.38
545.521	522.38
551.141	499.38
556.756	516.38
562.365	499.38
567.968	494.38
573.565	491.38
579.155	489.38
584.74	480.38
590.319	483.38
595.892	490.38
601.459	493.38
607.02	479.38
612.575	475.38
618.124	467.38
623.667	456.38
629.204	456.38
634.735	453.38
640.261	448.38
645.781	445.38
651.294	446.38
656.802	441.38
662.304	433.38
667.8	437.38
673.29	434.38
678.775	427.38
684.254	423.38
689.726	416.38
695.193	413.38
700.655	417.38
706.11	415.38
711.56	415.38
717.004	412.38
722.442	418.38
727.874	415.38
733.301	417.38
738.722	409.38
744.137	399.38
749.547	403.38
754.951	409.38
760.349	404.38
765.741	407.38
771.128	402.38
776.509	414.38
781.885	407.38
787.254	413.38
792.618	408.38
797.977	409.38
803.33	418.38
808.677	411.38
814.019	410.38
819.355	402.38
824.686	396.38
830.011	409.38
835.33	420.38
840.644	417.38
845.952	418.38
851.255	419.38
856.552	421.38
861.844	421.38
867.13	423.38
872.41	427.38
877.686	429.38
882.955	423.38
888.219	425.38
893.478	416.38
898.731	407.38
903.979	401.38
909.221	380.38
914.458	375.38
919.69	381.38
924.916	368.38
930.136	374.38
935.351	373.38
940.561	362.38
945.766	370.38
950.965	372.38
956.158	371.38
961.347	366.38
966.529	356.38
971.707	345.38
976.879	337.38
982.046	330.38
987.208	340.38
992.364	342.38
997.515	344.38
1002.66	350.38
1007.801	360.38
1012.936	368.38
1018.066	365.38
1023.19	363.38
1028.309	378.38
1033.423	379.38
1038.532	367.38
1043.636	374.38
1048.734	370.38
1053.827	371.38
1058.915	380.38
1063.998	389.38
1069.075	403.38
1074.147	406.38
1079.214	404.38
1084.276	404.38
1089.333	422.38
1094.385	411.38
1099.431	410.38
1104.472	400.38
1109.509	375.38
1114.54	369.38
1119.565	380.38
1124.586	380.38
1129.602	382.38
1134.613	369.38
1139.618	357.38
1144.619	333.38
1149.614	316.38
1154.604	310.38
1159.589	327.38
1164.57	320.38
1169.545	311.38
1174.515	300.38
1179.48	303.38
1184.44	291.38
1189.395	285.38
1194.345	277.38
1199.29	278.38
1204.23	290.38
1209.165	285.38
1214.095	291.38
1219.021	286.38
1223.941	292.38
1228.856	299.38
1233.766	306.38
1238.672	307.38
1243.572	318.38
1248.467	325.38
1253.358	322.38
1258.244	324.38
1263.124	320.38
1268	323.38
1272.871	320.38
1277.737	318.38
1282.599	311.38
1287.455	300.38
1292.306	322.38
1297.153	329.38
1301.995	346.38
1306.832	368.38
1311.664	350.38
1316.491	341.38
1321.314	328.38
1326.132	311.38
1330.945	297.38
1335.753	283.38
1340.556	277.38
1345.354	278.38
1350.148	276.38
1354.937	268.38
1359.722	262.38
1364.501	261.38
1369.276	266.38
1374.046	264.38
1378.811	268.38
1383.572	261.38
1388.327	261.38
1393.079	258.38
1397.825	246.38
1402.567	241.38
1407.304	231.38
1412.036	243.38
1416.764	245.38
1421.487	249.38
1426.205	258.38
1430.919	272.38
1435.628	292.38
1440.333	325.38
1445.032	352.38
1449.727	357.38
1454.418	348.38
1459.104	340.38
1463.785	317.38
1468.462	318.38
1473.134	280.38
1477.802	257.38
1482.465	233.38
1487.123	211.38
1491.777	204.38
1496.426	199.38
1501.071	188.38
1505.711	196.38
1510.347	194.38
1514.978	195.38
1519.604	189.38
1524.226	194.38
1528.844	190.38
1533.457	193.38
1538.065	194.38
1542.669	185.38
1547.269	186.38
1551.864	192.38
1556.454	187.38
1561.041	183.38
1565.622	183.38
1570.199	180.38
1574.772	181.38
1579.34	191.38
1583.904	182.38
1588.464	183.38
1593.019	187.38
1597.569	187.38
1602.115	191.38
1606.657	197.38
1611.195	200.38
1615.728	194.38
1620.256	195.38
1624.78	197.38
1629.3	198.38
1633.816	206.38
1638.327	204.38
1642.834	215.38
1647.336	228.38
1651.834	221.38
1656.328	227.38
1660.817	228.38
1665.302	224.38
1669.783	222.38
1674.259	206.38
1678.732	204.38
1683.199	188.38
1687.663	181.38
1692.122	173.38
1696.577	168.38
1701.028	163.38
1705.474	161.38
1709.917	156.38
1714.355	145.38
1718.788	143.38
1723.218	144.38
1727.643	135.38
1732.064	134.38
1736.481	136.38
1740.893	138.38
1745.301	130.38
1749.705	126.38
1754.105	118.38
1758.501	118.38
1762.893	111.38
1767.28	108.38
1771.663	109.38
1776.042	102.38
1780.417	100.38
1784.787	97.38
1789.154	91.38
1793.516	96.38
1797.874	103.38
1802.228	100.38
1806.578	106.38
1810.924	102.38
1815.266	95.38
1819.603	88.38
1823.937	94.38
1828.266	91.38
1832.591	85.38
1836.913	92.38
1841.23	84.38
1845.543	85.38
1849.852	81.38
1854.156	85.38
1858.457	88.38
1862.754	85.38
1867.047	88.38
1871.335	84.38
1875.62	85.38
1879.9	86.38
1884.177	77.38
1888.449	82.38
1892.718	81.38
1896.982	85.38
1901.243	83.38
1905.499	87.38
1909.752	79.38
1914	85.38
1918.245	81.38
1922.485	76.38
1926.722	79.38
1930.954	84.38
1935.183	80.38
1939.408	82.38
1943.628	81.38
1947.845	79.38
1952.058	79.38
1956.267	81.38
1960.472	80.38
1964.673	76.38
1968.87	74.38
1973.063	79.38
1977.252	66.38
1981.438	76.38
1985.619	72.38
1989.797	71.38
1993.971	73.38
1998.14	74.38
2002.306	73.38
2006.469	72.38
2010.627	69.38
2014.781	73.38
2018.932	73.38
2023.078	73.38
2027.221	70.38
2031.36	65.38
2035.495	66.38
2039.627	65.38
2043.754	68.38
2047.878	67.38
2051.998	66.38
2056.114	62.38
2060.226	64.38
2064.334	65.38
2068.439	69.38
2072.54	61.38
2076.637	72.38
2080.73	68.38
2084.82	71.38
2088.906	76.38
2092.988	64.38
2097.066	63.38
2101.14	67.38
2105.211	65.38
2109.278	62.38
2113.342	68.38
2117.401	65.38
2121.457	66.38
2125.509	64.38
2129.558	66.38
2133.602	62.38
2137.643	63.38
2141.681	62.38
2145.714	65.38
2149.744	61.38
2153.77	69.38
2157.793	58.38
2161.812	56.38
2165.827	53.38
2169.838	54.38
2173.846	56.38
2177.851	56.38
2181.851	51.38
2185.848	47.38
2189.841	47.38
2193.831	45.38
2197.817	45.38
2201.799	51.38
2205.778	49.38
2209.753	51.38
2213.725	48.38
2217.693	53.38
2221.657	46.38
2225.618	47.38
2229.575	40.38
2233.529	43.38
2237.479	48.38
2241.425	44.38
2245.368	47.38
2249.307	44.38
2253.243	37.38
2257.175	36.38
2261.104	37.38
2265.029	44.38
2268.95	42.38
2272.868	40.38
2276.783	37.38
2280.694	36.38
2284.601	28.38
2288.505	33.38
2292.405	34.38
2296.302	42.38
2300.195	34.38
2304.085	33.38
2307.971	30.38
2311.854	26.38
2315.734	21.38
2319.609	28.38
2323.482	30.38
2327.351	35.38
2331.216	34.38
2335.078	37.38
2338.937	31.38
2342.792	24.38
2346.643	25.38
2350.492	27.38
2354.336	19.38
2358.178	24.38
2362.015	22.38
2365.85	25.38
2369.681	22.38
2373.508	22.38
2377.333	22.38
2381.153	26.38
2384.971	20.38
2388.785	22.38
2392.595	21.38
2396.402	21.38
2400.206	18.38
2404.007	19.38
2407.804	21.38
2411.597	16.38
2415.388	18.38
2419.174	20.38
2422.958	18.38
2426.738	18.38
2430.515	12.38
2434.289	18.38
2438.059	20.38
2441.825	13.38
2445.589	15.38
2449.349	15.38
2453.106	15.38
2456.859	16.38
2460.61	15.38
2464.356	16.38
2468.1	14.38
2471.84	17.38
2475.577	17.38
2479.311	5.38
2483.041	14.38
2486.768	14.38
2490.492	12.38
2494.213	18.38
2497.93	15.38
2501.644	13.38
2505.355	13.38
2509.062	14.38
2512.766	12.38
2516.467	17.38
2520.165	12.38
2523.859	13.38
2527.551	15.38
2531.239	16.38
2534.923	12.38
2538.605	10.38
2542.283	9.38
2545.958	17.38
2549.63	13.38
2553.299	14.38
2556.964	9.38
2560.626	11.38
2564.285	10.38
2567.941	9.38
2571.594	14.38
2575.243	11.38
2578.89	16.38
2582.533	14.38
2586.173	13.38
2589.809	7.38
2593.443	11.38
2597.073	7.38
2600.701	13.38
2604.325	15.38
2607.946	13.38
2611.564	9.38
2615.178	11.38
2618.79	10.38
2622.398	11.38
2626.004	13.38
2629.606	12.38
2633.205	9.38
2636.801	9.38
2640.394	12.38
2643.983	10.38
2647.57	7.38
2651.153	7.38
2654.734	4.38
2658.311	17.38
2661.885	11.38
2665.456	11.38
2669.025	7.38
2672.589	0.38
2676.151	6.38
2679.71	8.38
2683.266	12.38
2686.819	10.38
2690.368	7.38
2693.915	5.38
2697.458	12.38
2700.999	5.38
2704.536	11.38
2708.071	11.38
2711.602	11.38
2715.13	13.38
2718.656	10.38
2722.178	7.38
2725.697	9.38
2729.214	13.38
2732.727	10.38
2736.237	13.38
2739.744	15.38
2743.249	13.38
2746.75	11.38
2750.248	10.38
2753.743	12.38
2757.236	9.38
2760.725	12.38
2764.211	17.38
2767.695	13.38
2771.175	15.38
2774.652	10.38
2778.127	9.38
2781.598	10.38
2785.067	9.38
2788.532	14.38
2791.995	14.38
2795.455	13.38
2798.911	12.38
2802.365	10.38
2805.816	13.38
2809.264	13.38
2812.709	17.38
2816.151	17.38
2819.59	21.38
2823.026	27.38
2826.46	26.38
2829.89	31.38
2833.318	35.38
2836.742	36.38
2840.164	53.38
2843.583	55.38
2846.999	72.38
2850.412	86.38
2853.822	93.38
2857.229	104.38
2860.634	107.38
2864.035	110.38
2867.434	105.38
2870.83	109.38
2874.223	119.38
2877.613	120.38
2881	129.38
2884.385	135.38
2887.766	145.38
2891.145	142.38
2894.521	136.38
2897.894	135.38
2901.264	129.38
2904.631	132.38
2907.996	125.38
2911.358	120.38
2914.717	126.38
2918.073	125.38
2921.426	123.38
2924.777	126.38
2928.124	118.38
2931.469	122.38
2934.811	117.38
2938.15	118.38
2941.487	113.38
2944.821	110.38
2948.152	100.38
2951.48	96.38
2954.805	91.38
2958.128	87.38
2961.447	84.38
2964.765	82.38
2968.079	73.38
2971.39	68.38
2974.699	68.38
2978.005	63.38
2981.308	65.38
2984.609	64.38
2987.907	60.38
2991.202	55.38
2994.494	52.38
2997.784	52.38
3001.07	51.38
3004.355	52.38
3007.636	51.38
3010.915	49.38
3014.191	46.38
3017.464	41.38
3020.734	45.38
3024.002	41.38
3027.267	41.38
3030.53	45.38
3033.789	45.38
3037.046	42.38
3040.301	44.38
3043.552	42.38
3046.801	42.38
3050.048	43.38
3053.291	47.38
3056.532	47.38
3059.771	50.38
3063.006	49.38
3066.239	50.38
3069.469	57.38
3072.697	53.38
3075.922	59.38
3079.144	63.38
3082.364	61.38
3085.581	50.38
3088.795	61.38
3092.007	59.38
3095.216	65.38
3098.423	64.38
3101.627	71.38
3104.828	77.38
3108.026	71.38
3111.222	66.38
3114.416	75.38
3117.607	76.38
3120.795	81.38
3123.98	80.38
3127.163	92.38
3130.344	90.38
3133.521	90.38
3136.696	82.38
3139.869	87.38
3143.039	97.38
3146.206	102.38
3149.371	99.38
3152.533	100.38
3155.693	98.38
3158.85	95.38
3162.005	96.38
3165.157	101.38
3168.306	103.38
3171.453	103.38
3174.597	101.38
3177.739	102.38
3180.878	101.38
3184.014	101.38
3187.149	105.38
3190.28	105.38
3193.409	103.38
3196.536	107.38
3199.659	107.38
3202.781	104.38
3205.9	99.38
3209.016	104.38
3212.13	109.38
3215.241	101.38
3218.35	106.38
3221.456	102.38
3224.56	100.38
3227.661	103.38
3230.76	93.38
3233.856	95.38
3236.95	89.38
3240.041	96.38
3243.13	91.38
3246.216	94.38
3249.3	88.38
3252.382	90.38
3255.46	86.38
3258.537	93.38
3261.611	91.38
3264.682	88.38
3267.751	86.38
3270.818	93.38
3273.882	92.38
3276.943	89.38
3280.002	81.38
3283.059	90.38
3286.113	88.38
3289.165	92.38
3292.214	85.38
3295.261	81.38
3298.306	79.38
3301.348	80.38
3304.387	73.38
3307.425	75.38
3310.459	72.38
3313.492	73.38
3316.521	72.38
3319.549	73.38
3322.574	68.38
3325.597	67.38
3328.617	74.38
3331.635	63.38
3334.65	72.38
3337.663	67.38
3340.674	71.38
3343.682	71.38
3346.688	60.38
3349.691	69.38
3352.692	62.38
3355.691	64.38
3358.687	67.38
3361.681	63.38
3364.673	67.38
3367.662	66.38
3370.649	63.38
3373.633	65.38
3376.615	57.38
3379.595	56.38
3382.572	63.38
3385.547	56.38
3388.52	56.38
3391.49	53.38
3394.458	50.38
3397.424	49.38
3400.387	43.38
3403.348	51.38
3406.307	48.38
3409.263	54.38
3412.217	50.38
3415.168	51.38
3418.118	44.38
3421.065	50.38
3424.009	42.38
3426.951	49.38
3429.891	47.38
3432.829	44.38
3435.764	42.38
3438.697	39.38
3441.628	30.38
3444.557	31.38
3447.483	31.38
3450.407	39.38
3453.328	36.38
3456.247	34.38
3459.164	27.38
3462.079	23.38
3464.991	29.38
3467.902	24.38
3470.809	25.38
3473.715	26.38
3476.618	20.38
3479.519	21.38
3482.418	18.38
3485.315	15.38
3488.209	13.38
3491.101	13.38
3493.99	19.38
3496.878	16.38
3499.763	14.38
3502.646	15.38
3505.527	7.38
3508.405	13.38
3511.281	6.38
3514.155	7.38
3517.027	11.38
3519.897	11.38
3522.764	6.38
3525.629	6.38
3528.492	2.38
3531.352	0.38
3534.211	2.38
3537.067	-1.62
3539.921	1.38
3542.773	-2.62
3545.622	0.38
3548.469	0.38
3551.315	-4.62
3554.157	-8.62
3556.998	-6.62
3559.837	-5.62
3562.673	-3.62
3565.507	-6.62
3568.339	-3.62
3571.169	-7.62
3573.996	-9.62
3576.822	-8.62
3579.645	-15.62
3582.466	-10.62
3585.285	-9.62
3588.101	-8.62
3590.916	-14.62
3593.728	-14.62
3596.538	-17.62
3599.346	-14.62
3602.152	-19.62
3604.956	-16.62
3607.757	-16.62
3610.556	-14.62
3613.354	-17.62
3616.149	-14.62
3618.942	-14.62
3621.732	-17.62
3624.521	-15.62
3627.307	-16.62
3630.092	-17.62
3632.874	-17.62
3635.654	-17.62
3638.432	-19.62
3641.208	-19.62
3643.982	-18.62
3646.753	-18.62
3649.523	-19.62
3652.29	-18.62
3655.055	-21.62
3657.818	-22.62
3660.579	-19.62
3663.338	-20.62
3666.095	-18.62
3668.849	-21.62
3671.602	-21.62
3674.352	-23.62
3677.101	-21.62
3679.847	-22.62
3682.591	-20.62
3685.333	-23.62
3688.073	-21.62
3690.811	-26.62
3693.547	-26.62
3696.281	-21.62
3699.013	-22.62
3701.742	-21.62
3704.47	-20.62
3707.195	-23.62
3709.919	-25.62
3712.64	-27.62
3715.359	-25.62
3718.076	-20.62
3720.792	-28.62
3723.505	-19.62
3726.216	-22.62
3728.925	-26.62
3731.632	-27.62
3734.336	-28.62
3737.039	-25.62
3739.74	-28.62
3742.439	-21.62
3745.136	-23.62
3747.83	-20.62
3750.523	-22.62
3753.213	-26.62
3755.902	-26.62
3758.589	-25.62
3761.273	-28.62
3763.956	-22.62
3766.636	-22.62
3769.315	-19.62
3771.991	-24.62
3774.665	-27.62
3777.338	-24.62
3780.008	-25.62
3782.677	-23.62
3785.343	-26.62
3788.007	-20.62
3790.67	-26.62
3793.33	-24.62
3795.989	-28.62
3798.645	-26.62
3801.299	-26.62
3803.952	-27.62
3806.602	-23.62
3809.251	-24.62
3811.897	-25.62
3814.542	-27.62
3817.184	-24.62
3819.825	-29.62
3822.463	-25.62
3825.1	-25.62
3827.735	-21.62
3830.367	-28.62
3832.998	-24.62
3835.627	-26.62
3838.253	-22.62
3840.878	-28.62
3843.501	-22.62
3846.122	-28.62
3848.741	-21.62
3851.358	-26.62
3853.973	-22.62
3856.586	-26.62
3859.197	-29.62
3861.806	-24.62
3864.414	-27.62
3867.019	-24.62
3869.622	-23.62
3872.224	-29.62
3874.823	-27.62
3877.421	-24.62
3880.016	-23.62
3882.61	-21.62
3885.202	-18.62
3887.792	-17.62
3890.38	-21.62
3892.966	-23.62
3895.55	-21.62
3898.132	-24.62
3900.713	-23.62
3903.291	-26.62
3905.868	-23.62
3908.442	-27.62
3911.015	-24.62
3913.586	-31.62
3916.155	-24.62
3918.722	-25.62
3921.287	-20.62
3923.85	-26.62
3926.411	-27.62
3928.971	-24.62
3931.528	-27.62
3934.084	-31.62
3936.638	-21.62
3939.19	-27.62
3941.74	-26.62
3944.288	-28.62
3946.834	-27.62
3949.378	-28.62
3951.921	-24.62
3954.462	-24.62
3957	-27.62
3959.537	-24.62
3962.072	-26.62
3964.606	-28.62
3967.137	-25.62
3969.667	-26.62
3972.194	-27.62
3974.72	-25.62
3977.244	-22.62
3979.766	-24.62
3982.286	-19.62
3984.805	-28.62
3987.321	-28.62
3989.836	-28.62
3992.349	-25.62
3994.86	-23.62
3997.369	-27.62
3999.877	-28.62
4002.382	-25.62
4004.886	-26.62
4007.388	-25.62
4009.888	-24.62
4012.386	-24.62
4014.883	-24.62
4017.377	-26.62
4019.87	-26.62
4022.361	-24.62
4024.85	-30.62
4027.338	-27.62
4029.823	-26.62
4032.307	-25.62
4034.789	-24.62
4037.269	-23.62
4039.747	-27.62
4042.224	-27.62
4044.699	-30.62
4047.172	-27.62
4049.643	-24.62
4052.112	-24.62
4054.58	-24.62
4057.046	-25.62
4059.51	-31.62
4061.972	-30.62
4064.432	-26.62
4066.891	-23.62
4069.348	-25.62
4071.803	-24.62
4074.256	-24.62
4076.708	-26.62
4079.158	-28.62
4081.606	-28.62
4084.052	-23.62
4086.497	-23.62
4088.939	-19.62
4091.38	-25.62
4093.819	-28.62
4096.257	-25.62
4098.693	-29.62
4101.127	-27.62
4103.559	-30.62
4105.989	-12.62
4108.418	-13.62
4110.845	-7.62
4113.27	-10.62
4115.694	-9.62
4118.115	-9.62
4120.535	-28.62
4122.954	-28.62
4125.37	-26.62
4127.785	-22.62
4130.198	-22.62
4132.609	-27.62
4135.019	-27.62
4137.427	-29.62
4139.833	-25.62
4142.237	-30.62
