Data from 1000000CFU2_C_RamanShift_1.txt Node
Date: Thu Feb 02 15:16:45 IST 2017
User: aro
Spectrometer: QEPB0276
Trigger mode: 0
Integration Time (sec): 5.000000E0
Scans to average: 1
Electric dark correction enabled: true
Nonlinearity correction enabled: false
Boxcar width: 0
XAxis mode: Raman Shifts
Number of Pixels in Spectrum: 1044
>>>>>Begin Spectral Data<<<<<
160.701	-0.62
166.742	0.38
172.777	13.38
178.805	59.38
184.826	148.38
190.841	298.38
196.849	453.38
202.85	558.38
208.845	581.38
214.833	583.38
220.815	567.38
226.789	567.38
232.758	562.38
238.719	561.38
244.674	564.38
250.623	550.38
256.565	535.38
262.5	526.38
268.429	529.38
274.351	514.38
280.267	508.38
286.176	501.38
292.079	506.38
297.975	496.38
303.865	491.38
309.748	492.38
315.625	490.38
321.495	494.38
327.359	491.38
333.217	500.38
339.068	491.38
344.912	507.38
350.751	508.38
356.583	503.38
362.408	523.38
368.227	510.38
374.04	507.38
379.847	493.38
385.647	503.38
391.44	504.38
397.228	510.38
403.009	511.38
408.784	518.38
414.553	524.38
420.315	524.38
426.071	528.38
431.821	536.38
437.565	520.38
443.302	530.38
449.033	521.38
454.758	514.38
460.477	513.38
466.189	505.38
471.896	496.38
477.596	498.38
483.29	489.38
488.978	482.38
494.66	477.38
500.335	461.38
506.005	439.38
511.668	426.38
517.325	411.38
522.977	388.38
528.622	365.38
534.261	358.38
539.894	346.38
545.521	347.38
551.141	348.38
556.756	335.38
562.365	337.38
567.968	332.38
573.565	331.38
579.155	320.38
584.74	329.38
590.319	319.38
595.892	319.38
601.459	327.38
607.02	315.38
612.575	305.38
618.124	315.38
623.667	299.38
629.204	311.38
634.735	299.38
640.261	293.38
645.781	298.38
651.294	296.38
656.802	294.38
662.304	279.38
667.8	274.38
673.29	279.38
678.775	277.38
684.254	276.38
689.726	273.38
695.193	277.38
700.655	276.38
706.11	273.38
711.56	277.38
717.004	266.38
722.442	273.38
727.874	273.38
733.301	264.38
738.722	265.38
744.137	263.38
749.547	261.38
754.951	258.38
760.349	259.38
765.741	263.38
771.128	263.38
776.509	264.38
781.885	269.38
787.254	274.38
792.618	277.38
797.977	277.38
803.33	275.38
808.677	265.38
814.019	265.38
819.355	268.38
824.686	263.38
830.011	276.38
835.33	269.38
840.644	279.38
845.952	272.38
851.255	267.38
856.552	268.38
861.844	272.38
867.13	264.38
872.41	273.38
877.686	272.38
882.955	269.38
888.219	270.38
893.478	264.38
898.731	250.38
903.979	244.38
909.221	243.38
914.458	245.38
919.69	239.38
924.916	243.38
930.136	240.38
935.351	237.38
940.561	239.38
945.766	230.38
950.965	230.38
956.158	237.38
961.347	223.38
966.529	225.38
971.707	215.38
976.879	216.38
982.046	218.38
987.208	212.38
992.364	219.38
997.515	210.38
1002.66	221.38
1007.801	219.38
1012.936	225.38
1018.066	233.38
1023.19	229.38
1028.309	235.38
1033.423	234.38
1038.532	237.38
1043.636	235.38
1048.734	236.38
1053.827	235.38
1058.915	248.38
1063.998	242.38
1069.075	253.38
1074.147	253.38
1079.214	253.38
1084.276	253.38
1089.333	259.38
1094.385	251.38
1099.431	245.38
1104.472	243.38
1109.509	234.38
1114.54	227.38
1119.565	231.38
1124.586	237.38
1129.602	238.38
1134.613	228.38
1139.618	222.38
1144.619	206.38
1149.614	202.38
1154.604	206.38
1159.589	200.38
1164.57	197.38
1169.545	201.38
1174.515	193.38
1179.48	196.38
1184.44	191.38
1189.395	179.38
1194.345	179.38
1199.29	184.38
1204.23	182.38
1209.165	184.38
1214.095	193.38
1219.021	189.38
1223.941	182.38
1228.856	193.38
1233.766	185.38
1238.672	191.38
1243.572	197.38
1248.467	203.38
1253.358	200.38
1258.244	205.38
1263.124	196.38
1268	199.38
1272.871	194.38
1277.737	191.38
1282.599	192.38
1287.455	189.38
1292.306	195.38
1297.153	206.38
1301.995	210.38
1306.832	217.38
1311.664	208.38
1316.491	203.38
1321.314	196.38
1326.132	188.38
1330.945	187.38
1335.753	182.38
1340.556	176.38
1345.354	175.38
1350.148	172.38
1354.937	173.38
1359.722	167.38
1364.501	161.38
1369.276	167.38
1374.046	166.38
1378.811	162.38
1383.572	167.38
1388.327	167.38
1393.079	157.38
1397.825	151.38
1402.567	148.38
1407.304	155.38
1412.036	152.38
1416.764	154.38
1421.487	157.38
1426.205	159.38
1430.919	164.38
1435.628	177.38
1440.333	193.38
1445.032	207.38
1449.727	217.38
1454.418	205.38
1459.104	204.38
1463.785	191.38
1468.462	191.38
1473.134	172.38
1477.802	160.38
1482.465	147.38
1487.123	131.38
1491.777	125.38
1496.426	125.38
1501.071	123.38
1505.711	121.38
1510.347	118.38
1514.978	123.38
1519.604	123.38
1524.226	130.38
1528.844	116.38
1533.457	117.38
1538.065	118.38
1542.669	119.38
1547.269	123.38
1551.864	123.38
1556.454	121.38
1561.041	122.38
1565.622	116.38
1570.199	119.38
1574.772	119.38
1579.34	118.38
1583.904	118.38
1588.464	118.38
1593.019	121.38
1597.569	123.38
1602.115	118.38
1606.657	125.38
1611.195	121.38
1615.728	117.38
1620.256	118.38
1624.78	124.38
1629.3	125.38
1633.816	122.38
1638.327	130.38
1642.834	128.38
1647.336	136.38
1651.834	135.38
1656.328	137.38
1660.817	138.38
1665.302	140.38
1669.783	136.38
1674.259	132.38
1678.732	131.38
1683.199	131.38
1687.663	115.38
1692.122	106.38
1696.577	101.38
1701.028	98.38
1705.474	93.38
1709.917	99.38
1714.355	99.38
1718.788	87.38
1723.218	90.38
1727.643	90.38
1732.064	81.38
1736.481	86.38
1740.893	83.38
1745.301	85.38
1749.705	81.38
1754.105	76.38
1758.501	75.38
1762.893	70.38
1767.28	71.38
1771.663	71.38
1776.042	70.38
1780.417	66.38
1784.787	61.38
1789.154	62.38
1793.516	72.38
1797.874	72.38
1802.228	70.38
1806.578	69.38
1810.924	69.38
1815.266	62.38
1819.603	60.38
1823.937	62.38
1828.266	57.38
1832.591	56.38
1836.913	64.38
1841.23	62.38
1845.543	58.38
1849.852	58.38
1854.156	57.38
1858.457	57.38
1862.754	55.38
1867.047	57.38
1871.335	59.38
1875.62	63.38
1879.9	52.38
1884.177	53.38
1888.449	55.38
1892.718	50.38
1896.982	55.38
1901.243	53.38
1905.499	54.38
1909.752	57.38
1914	57.38
1918.245	52.38
1922.485	52.38
1926.722	54.38
1930.954	52.38
1935.183	46.38
1939.408	56.38
1943.628	53.38
1947.845	55.38
1952.058	57.38
1956.267	54.38
1960.472	50.38
1964.673	50.38
1968.87	50.38
1973.063	53.38
1977.252	42.38
1981.438	48.38
1985.619	48.38
1989.797	50.38
1993.971	50.38
1998.14	47.38
2002.306	45.38
2006.469	44.38
2010.627	38.38
2014.781	43.38
2018.932	44.38
2023.078	47.38
2027.221	47.38
2031.36	40.38
2035.495	40.38
2039.627	46.38
2043.754	38.38
2047.878	42.38
2051.998	37.38
2056.114	42.38
2060.226	43.38
2064.334	40.38
2068.439	40.38
2072.54	44.38
2076.637	43.38
2080.73	47.38
2084.82	45.38
2088.906	48.38
2092.988	41.38
2097.066	38.38
2101.14	44.38
2105.211	42.38
2109.278	40.38
2113.342	45.38
2117.401	40.38
2121.457	43.38
2125.509	36.38
2129.558	40.38
2133.602	39.38
2137.643	41.38
2141.681	41.38
2145.714	38.38
2149.744	39.38
2153.77	41.38
2157.793	38.38
2161.812	39.38
2165.827	35.38
2169.838	33.38
2173.846	34.38
2177.851	28.38
2181.851	32.38
2185.848	28.38
2189.841	31.38
2193.831	32.38
2197.817	30.38
2201.799	32.38
2205.778	34.38
2209.753	28.38
2213.725	31.38
2217.693	34.38
2221.657	26.38
2225.618	24.38
2229.575	24.38
2233.529	30.38
2237.479	26.38
2241.425	28.38
2245.368	24.38
2249.307	29.38
2253.243	20.38
2257.175	23.38
2261.104	24.38
2265.029	27.38
2268.95	28.38
2272.868	26.38
2276.783	19.38
2280.694	22.38
2284.601	18.38
2288.505	15.38
2292.405	16.38
2296.302	18.38
2300.195	22.38
2304.085	17.38
2307.971	19.38
2311.854	18.38
2315.734	18.38
2319.609	15.38
2323.482	17.38
2327.351	26.38
2331.216	20.38
2335.078	21.38
2338.937	21.38
2342.792	13.38
2346.643	14.38
2350.492	14.38
2354.336	9.38
2358.178	10.38
2362.015	14.38
2365.85	11.38
2369.681	14.38
2373.508	14.38
2377.333	17.38
2381.153	18.38
2384.971	12.38
2388.785	12.38
2392.595	6.38
2396.402	7.38
2400.206	11.38
2404.007	11.38
2407.804	16.38
2411.597	14.38
2415.388	9.38
2419.174	12.38
2422.958	11.38
2426.738	5.38
2430.515	6.38
2434.289	12.38
2438.059	11.38
2441.825	9.38
2445.589	8.38
2449.349	8.38
2453.106	8.38
2456.859	6.38
2460.61	5.38
2464.356	9.38
2468.1	5.38
2471.84	9.38
2475.577	10.38
2479.311	6.38
2483.041	7.38
2486.768	8.38
2490.492	7.38
2494.213	11.38
2497.93	9.38
2501.644	1.38
2505.355	5.38
2509.062	4.38
2512.766	5.38
2516.467	10.38
2520.165	6.38
2523.859	7.38
2527.551	9.38
2531.239	5.38
2534.923	6.38
2538.605	3.38
2542.283	2.38
2545.958	7.38
2549.63	9.38
2553.299	10.38
2556.964	7.38
2560.626	8.38
2564.285	-0.62
2567.941	2.38
2571.594	1.38
2575.243	4.38
2578.89	10.38
2582.533	7.38
2586.173	7.38
2589.809	5.38
2593.443	8.38
2597.073	1.38
2600.701	7.38
2604.325	5.38
2607.946	3.38
2611.564	4.38
2615.178	4.38
2618.79	9.38
2622.398	9.38
2626.004	10.38
2629.606	8.38
2633.205	10.38
2636.801	4.38
2640.394	5.38
2643.983	1.38
2647.57	3.38
2651.153	-1.62
2654.734	4.38
2658.311	6.38
2661.885	8.38
2665.456	4.38
2669.025	0.38
2672.589	-1.62
2676.151	0.38
2679.71	2.38
2683.266	4.38
2686.819	6.38
2690.368	5.38
2693.915	5.38
2697.458	2.38
2700.999	-2.62
2704.536	5.38
2708.071	6.38
2711.602	0.38
2715.13	0.38
2718.656	4.38
2722.178	2.38
2725.697	5.38
2729.214	6.38
2732.727	7.38
2736.237	6.38
2739.744	7.38
2743.249	6.38
2746.75	1.38
2750.248	5.38
2753.743	8.38
2757.236	4.38
2760.725	4.38
2764.211	5.38
2767.695	1.38
2771.175	4.38
2774.652	3.38
2778.127	1.38
2781.598	3.38
2785.067	1.38
2788.532	5.38
2791.995	9.38
2795.455	7.38
2798.911	4.38
2802.365	6.38
2805.816	4.38
2809.264	5.38
2812.709	7.38
2816.151	10.38
2819.59	12.38
2823.026	10.38
2826.46	14.38
2829.89	14.38
2833.318	13.38
2836.742	15.38
2840.164	25.38
2843.583	24.38
2846.999	30.38
2850.412	40.38
2853.822	45.38
2857.229	53.38
2860.634	50.38
2864.035	47.38
2867.434	52.38
2870.83	53.38
2874.223	53.38
2877.613	57.38
2881	62.38
2884.385	70.38
2887.766	69.38
2891.145	71.38
2894.521	69.38
2897.894	66.38
2901.264	66.38
2904.631	60.38
2907.996	61.38
2911.358	60.38
2914.717	63.38
2918.073	65.38
2921.426	60.38
2924.777	58.38
2928.124	61.38
2931.469	127.38
2934.811	78.38
2938.15	60.38
2941.487	57.38
2944.821	50.38
2948.152	47.38
2951.48	48.38
2954.805	41.38
2958.128	44.38
2961.447	40.38
2964.765	36.38
2968.079	34.38
2971.39	36.38
2974.699	35.38
2978.005	35.38
2981.308	30.38
2984.609	30.38
2987.907	27.38
2991.202	28.38
2994.494	23.38
2997.784	22.38
3001.07	24.38
3004.355	31.38
3007.636	24.38
3010.915	24.38
3014.191	21.38
3017.464	17.38
3020.734	13.38
3024.002	15.38
3027.267	15.38
3030.53	19.38
3033.789	20.38
3037.046	18.38
3040.301	22.38
3043.552	18.38
3046.801	17.38
3050.048	20.38
3053.291	19.38
3056.532	24.38
3059.771	19.38
3063.006	23.38
3066.239	24.38
3069.469	28.38
3072.697	26.38
3075.922	31.38
3079.144	25.38
3082.364	29.38
3085.581	26.38
3088.795	33.38
3092.007	28.38
3095.216	35.38
3098.423	32.38
3101.627	35.38
3104.828	30.38
3108.026	36.38
3111.222	28.38
3114.416	41.38
3117.607	41.38
3120.795	39.38
3123.98	39.38
3127.163	44.38
3130.344	43.38
3133.521	37.38
3136.696	38.38
3139.869	44.38
3143.039	47.38
3146.206	52.38
3149.371	49.38
3152.533	48.38
3155.693	52.38
3158.85	46.38
3162.005	45.38
3165.157	53.38
3168.306	49.38
3171.453	55.38
3174.597	46.38
3177.739	52.38
3180.878	50.38
3184.014	52.38
3187.149	46.38
3190.28	50.38
3193.409	55.38
3196.536	50.38
3199.659	49.38
3202.781	51.38
3205.9	47.38
3209.016	54.38
3212.13	54.38
3215.241	50.38
3218.35	52.38
3221.456	46.38
3224.56	48.38
3227.661	51.38
3230.76	51.38
3233.856	51.38
3236.95	45.38
3240.041	45.38
3243.13	44.38
3246.216	47.38
3249.3	46.38
3252.382	43.38
3255.46	42.38
3258.537	46.38
3261.611	50.38
3264.682	45.38
3267.751	45.38
3270.818	46.38
3273.882	39.38
3276.943	41.38
3280.002	38.38
3283.059	44.38
3286.113	44.38
3289.165	41.38
3292.214	39.38
3295.261	39.38
3298.306	42.38
3301.348	39.38
3304.387	40.38
3307.425	35.38
3310.459	35.38
3313.492	36.38
3316.521	35.38
3319.549	38.38
3322.574	32.38
3325.597	36.38
3328.617	31.38
3331.635	32.38
3334.65	30.38
3337.663	31.38
3340.674	32.38
3343.682	33.38
3346.688	34.38
3349.691	33.38
3352.692	33.38
3355.691	34.38
3358.687	29.38
3361.681	30.38
3364.673	32.38
3367.662	33.38
3370.649	36.38
3373.633	31.38
3376.615	29.38
3379.595	23.38
3382.572	26.38
3385.547	26.38
3388.52	27.38
3391.49	27.38
3394.458	27.38
3397.424	22.38
3400.387	22.38
3403.348	23.38
3406.307	24.38
3409.263	25.38
3412.217	26.38
3415.168	22.38
3418.118	20.38
3421.065	21.38
3424.009	19.38
3426.951	23.38
3429.891	23.38
3432.829	23.38
3435.764	23.38
3438.697	19.38
3441.628	12.38
3444.557	17.38
3447.483	15.38
3450.407	19.38
3453.328	15.38
3456.247	16.38
3459.164	16.38
3462.079	9.38
3464.991	11.38
3467.902	10.38
3470.809	8.38
3473.715	10.38
3476.618	10.38
3479.519	10.38
3482.418	6.38
3485.315	7.38
3488.209	2.38
3491.101	5.38
3493.99	4.38
3496.878	6.38
3499.763	1.38
3502.646	5.38
3505.527	2.38
3508.405	5.38
3511.281	4.38
3514.155	6.38
3517.027	-0.62
3519.897	2.38
3522.764	0.38
3525.629	0.38
3528.492	-3.62
3531.352	-2.62
3534.211	0.38
3537.067	-4.62
3539.921	-0.62
3542.773	-4.62
3545.622	-5.62
3548.469	-6.62
3551.315	-9.62
3554.157	-8.62
3556.998	-5.62
3559.837	-5.62
3562.673	-2.62
3565.507	-7.62
3568.339	-3.62
3571.169	-8.62
3573.996	-10.62
3576.822	-8.62
3579.645	-10.62
3582.466	-7.62
3585.285	-9.62
3588.101	-6.62
3590.916	-12.62
3593.728	-13.62
3596.538	-13.62
3599.346	-12.62
3602.152	-9.62
3604.956	-8.62
3607.757	-10.62
3610.556	-12.62
3613.354	-13.62
3616.149	-14.62
3618.942	-9.62
3621.732	-11.62
3624.521	-10.62
3627.307	-11.62
3630.092	-15.62
3632.874	-15.62
3635.654	-17.62
3638.432	-15.62
3641.208	-12.62
3643.982	-10.62
3646.753	-9.62
3649.523	-9.62
3652.29	-12.62
3655.055	-14.62
3657.818	-20.62
3660.579	-13.62
3663.338	-15.62
3666.095	-11.62
3668.849	-10.62
3671.602	-13.62
3674.352	-14.62
3677.101	-12.62
3679.847	-14.62
3682.591	-16.62
3685.333	-16.62
3688.073	-16.62
3690.811	-18.62
3693.547	-20.62
3696.281	-12.62
3699.013	-15.62
3701.742	-18.62
3704.47	-16.62
3707.195	-16.62
3709.919	-16.62
3712.64	-20.62
3715.359	-18.62
3718.076	-15.62
3720.792	-19.62
3723.505	-12.62
3726.216	-12.62
3728.925	-19.62
3731.632	-16.62
3734.336	-19.62
3737.039	-19.62
3739.74	-20.62
3742.439	-13.62
3745.136	-14.62
3747.83	-14.62
3750.523	-11.62
3753.213	-20.62
3755.902	-14.62
3758.589	-18.62
3761.273	-19.62
3763.956	-18.62
3766.636	-17.62
3769.315	-14.62
3771.991	-16.62
3774.665	-18.62
3777.338	-14.62
3780.008	-15.62
3782.677	-16.62
3785.343	-17.62
3788.007	-16.62
3790.67	-17.62
3793.33	-19.62
3795.989	-20.62
3798.645	-16.62
3801.299	-14.62
3803.952	-17.62
3806.602	-15.62
3809.251	-19.62
3811.897	-16.62
3814.542	-20.62
3817.184	-16.62
3819.825	-18.62
3822.463	-15.62
3825.1	-15.62
3827.735	-13.62
3830.367	-16.62
3832.998	-16.62
3835.627	-19.62
3838.253	-14.62
3840.878	-20.62
3843.501	-13.62
3846.122	-18.62
3848.741	-13.62
3851.358	-16.62
3853.973	-14.62
3856.586	-13.62
3859.197	-20.62
3861.806	-17.62
3864.414	-17.62
3867.019	-16.62
3869.622	-15.62
3872.224	-17.62
3874.823	-17.62
3877.421	-13.62
3880.016	-12.62
3882.61	-8.62
3885.202	-5.62
3887.792	-4.62
3890.38	-11.62
3892.966	-19.62
3895.55	-14.62
3898.132	-15.62
3900.713	-14.62
3903.291	-16.62
3905.868	-12.62
3908.442	-18.62
3911.015	-19.62
3913.586	-22.62
3916.155	-19.62
3918.722	-20.62
3921.287	-11.62
3923.85	-14.62
3926.411	-15.62
3928.971	-13.62
3931.528	-20.62
3934.084	-20.62
3936.638	-14.62
3939.19	-23.62
3941.74	-17.62
3944.288	-17.62
3946.834	-14.62
3949.378	-17.62
3951.921	-14.62
3954.462	-16.62
3957	-17.62
3959.537	-16.62
3962.072	-17.62
3964.606	-19.62
3967.137	-16.62
3969.667	-16.62
3972.194	-17.62
3974.72	-18.62
3977.244	-15.62
3979.766	-16.62
3982.286	-13.62
3984.805	-18.62
3987.321	-17.62
3989.836	-20.62
3992.349	-15.62
3994.86	-15.62
3997.369	-16.62
3999.877	-16.62
4002.382	-15.62
4004.886	-19.62
4007.388	-16.62
4009.888	-16.62
4012.386	-14.62
4014.883	-18.62
4017.377	-14.62
4019.87	-14.62
4022.361	-12.62
4024.85	-20.62
4027.338	-21.62
4029.823	-20.62
4032.307	-20.62
4034.789	-15.62
4037.269	-16.62
4039.747	-14.62
4042.224	-15.62
4044.699	-24.62
4047.172	-19.62
4049.643	-17.62
4052.112	-14.62
4054.58	-16.62
4057.046	-16.62
4059.51	-18.62
4061.972	-17.62
4064.432	-14.62
4066.891	-11.62
4069.348	-14.62
4071.803	-17.62
4074.256	-17.62
4076.708	-16.62
4079.158	-16.62
4081.606	-19.62
4084.052	-14.62
4086.497	-12.62
4088.939	-13.62
4091.38	-14.62
4093.819	-18.62
4096.257	-14.62
4098.693	-19.62
4101.127	-19.62
4103.559	-21.62
4105.989	-4.62
4108.418	-7.62
4110.845	-2.62
4113.27	-3.62
4115.694	-1.62
4118.115	-7.62
4120.535	-18.62
4122.954	-21.62
4125.37	-18.62
4127.785	-15.62
4130.198	-11.62
4132.609	-16.62
4135.019	-15.62
4137.427	-20.62
4139.833	-15.62
4142.237	-20.62
