Data from 10000000CFU2_A_RamanShift_1.txt Node
Date: Thu Feb 02 14:03:15 IST 2017
User: aro
Spectrometer: QEPB0276
Trigger mode: 0
Integration Time (sec): 5.000000E0
Scans to average: 1
Electric dark correction enabled: true
Nonlinearity correction enabled: false
Boxcar width: 0
XAxis mode: Raman Shifts
Number of Pixels in Spectrum: 1044
>>>>>Begin Spectral Data<<<<<
160.701	-2.75
166.742	2.25
172.777	22.25
178.805	70.25
184.826	184.25
190.841	351.25
196.849	558.25
202.85	688.25
208.845	729.25
214.833	716.25
220.815	704.25
226.789	693.25
232.758	680.25
238.719	675.25
244.674	673.25
250.623	668.25
256.565	652.25
262.5	628.25
268.429	633.25
274.351	611.25
280.267	598.25
286.176	596.25
292.079	585.25
297.975	581.25
303.865	590.25
309.748	579.25
315.625	572.25
321.495	583.25
327.359	564.25
333.217	579.25
339.068	580.25
344.912	585.25
350.751	598.25
356.583	599.25
362.408	595.25
368.227	594.25
374.04	597.25
379.847	587.25
385.647	586.25
391.44	588.25
397.228	590.25
403.009	601.25
408.784	603.25
414.553	603.25
420.315	608.25
426.071	603.25
431.821	613.25
437.565	598.25
443.302	603.25
449.033	609.25
454.758	600.25
460.477	594.25
466.189	585.25
471.896	582.25
477.596	585.25
483.29	568.25
488.978	564.25
494.66	557.25
500.335	534.25
506.005	528.25
511.668	497.25
517.325	477.25
522.977	468.25
528.622	442.25
534.261	428.25
539.894	432.25
545.521	420.25
551.141	404.25
556.756	405.25
562.365	394.25
567.968	394.25
573.565	391.25
579.155	394.25
584.74	398.25
590.319	380.25
595.892	387.25
601.459	391.25
607.02	388.25
612.575	380.25
618.124	379.25
623.667	371.25
629.204	373.25
634.735	360.25
640.261	362.25
645.781	360.25
651.294	359.25
656.802	355.25
662.304	337.25
667.8	337.25
673.29	340.25
678.775	341.25
684.254	341.25
689.726	334.25
695.193	331.25
700.655	328.25
706.11	327.25
711.56	338.25
717.004	325.25
722.442	334.25
727.874	329.25
733.301	321.25
738.722	319.25
744.137	325.25
749.547	322.25
754.951	319.25
760.349	329.25
765.741	326.25
771.128	322.25
776.509	327.25
781.885	323.25
787.254	325.25
792.618	329.25
797.977	337.25
803.33	324.25
808.677	319.25
814.019	326.25
819.355	324.25
824.686	325.25
830.011	324.25
835.33	332.25
840.644	335.25
845.952	327.25
851.255	340.25
856.552	335.25
861.844	330.25
867.13	334.25
872.41	331.25
877.686	330.25
882.955	330.25
888.219	328.25
893.478	326.25
898.731	314.25
903.979	317.25
909.221	303.25
914.458	300.25
919.69	295.25
924.916	291.25
930.136	282.25
935.351	297.25
940.561	292.25
945.766	290.25
950.965	298.25
956.158	290.25
961.347	284.25
966.529	268.25
971.707	272.25
976.879	260.25
982.046	265.25
987.208	261.25
992.364	260.25
997.515	268.25
1002.66	266.25
1007.801	272.25
1012.936	273.25
1018.066	285.25
1023.19	285.25
1028.309	290.25
1033.423	297.25
1038.532	286.25
1043.636	288.25
1048.734	291.25
1053.827	284.25
1058.915	295.25
1063.998	295.25
1069.075	312.25
1074.147	314.25
1079.214	314.25
1084.276	315.25
1089.333	312.25
1094.385	315.25
1099.431	308.25
1104.472	301.25
1109.509	294.25
1114.54	287.25
1119.565	289.25
1124.586	287.25
1129.602	282.25
1134.613	289.25
1139.618	267.25
1144.619	252.25
1149.614	251.25
1154.604	246.25
1159.589	250.25
1164.57	248.25
1169.545	240.25
1174.515	237.25
1179.48	236.25
1184.44	230.25
1189.395	227.25
1194.345	221.25
1199.29	228.25
1204.23	223.25
1209.165	226.25
1214.095	228.25
1219.021	222.25
1223.941	223.25
1228.856	229.25
1233.766	237.25
1238.672	239.25
1243.572	249.25
1248.467	246.25
1253.358	242.25
1258.244	259.25
1263.124	244.25
1268	253.25
1272.871	243.25
1277.737	249.25
1282.599	236.25
1287.455	243.25
1292.306	239.25
1297.153	247.25
1301.995	264.25
1306.832	277.25
1311.664	265.25
1316.491	258.25
1321.314	251.25
1326.132	227.25
1330.945	228.25
1335.753	212.25
1340.556	217.25
1345.354	226.25
1350.148	212.25
1354.937	213.25
1359.722	200.25
1364.501	202.25
1369.276	198.25
1374.046	198.25
1378.811	208.25
1383.572	201.25
1388.327	194.25
1393.079	195.25
1397.825	183.25
1402.567	187.25
1407.304	184.25
1412.036	191.25
1416.764	187.25
1421.487	195.25
1426.205	195.25
1430.919	202.25
1435.628	222.25
1440.333	241.25
1445.032	260.25
1449.727	275.25
1454.418	264.25
1459.104	258.25
1463.785	246.25
1468.462	239.25
1473.134	212.25
1477.802	197.25
1482.465	188.25
1487.123	168.25
1491.777	154.25
1496.426	152.25
1501.071	148.25
1505.711	146.25
1510.347	152.25
1514.978	147.25
1519.604	142.25
1524.226	152.25
1528.844	144.25
1533.457	148.25
1538.065	145.25
1542.669	142.25
1547.269	150.25
1551.864	148.25
1556.454	141.25
1561.041	144.25
1565.622	139.25
1570.199	145.25
1574.772	143.25
1579.34	143.25
1583.904	145.25
1588.464	147.25
1593.019	141.25
1597.569	147.25
1602.115	144.25
1606.657	152.25
1611.195	152.25
1615.728	149.25
1620.256	149.25
1624.78	154.25
1629.3	151.25
1633.816	154.25
1638.327	161.25
1642.834	166.25
1647.336	165.25
1651.834	176.25
1656.328	178.25
1660.817	171.25
1665.302	176.25
1669.783	168.25
1674.259	159.25
1678.732	162.25
1683.199	151.25
1687.663	138.25
1692.122	132.25
1696.577	132.25
1701.028	123.25
1705.474	122.25
1709.917	116.25
1714.355	120.25
1718.788	115.25
1723.218	108.25
1727.643	107.25
1732.064	102.25
1736.481	100.25
1740.893	100.25
1745.301	102.25
1749.705	100.25
1754.105	95.25
1758.501	85.25
1762.893	84.25
1767.28	84.25
1771.663	81.25
1776.042	74.25
1780.417	82.25
1784.787	76.25
1789.154	75.25
1793.516	87.25
1797.874	81.25
1802.228	76.25
1806.578	77.25
1810.924	79.25
1815.266	75.25
1819.603	73.25
1823.937	74.25
1828.266	73.25
1832.591	69.25
1836.913	66.25
1841.23	61.25
1845.543	66.25
1849.852	65.25
1854.156	69.25
1858.457	71.25
1862.754	65.25
1867.047	65.25
1871.335	66.25
1875.62	63.25
1879.9	64.25
1884.177	67.25
1888.449	67.25
1892.718	66.25
1896.982	64.25
1901.243	63.25
1905.499	64.25
1909.752	65.25
1914	66.25
1918.245	56.25
1922.485	62.25
1926.722	65.25
1930.954	62.25
1935.183	63.25
1939.408	62.25
1943.628	66.25
1947.845	61.25
1952.058	66.25
1956.267	67.25
1960.472	65.25
1964.673	58.25
1968.87	58.25
1973.063	61.25
1977.252	52.25
1981.438	55.25
1985.619	52.25
1989.797	53.25
1993.971	58.25
1998.14	54.25
2002.306	56.25
2006.469	51.25
2010.627	49.25
2014.781	53.25
2018.932	61.25
2023.078	52.25
2027.221	54.25
2031.36	47.25
2035.495	48.25
2039.627	49.25
2043.754	49.25
2047.878	50.25
2051.998	49.25
2056.114	51.25
2060.226	52.25
2064.334	54.25
2068.439	53.25
2072.54	47.25
2076.637	54.25
2080.73	52.25
2084.82	51.25
2088.906	56.25
2092.988	52.25
2097.066	51.25
2101.14	54.25
2105.211	53.25
2109.278	45.25
2113.342	46.25
2117.401	50.25
2121.457	47.25
2125.509	48.25
2129.558	49.25
2133.602	45.25
2137.643	51.25
2141.681	48.25
2145.714	46.25
2149.744	44.25
2153.77	43.25
2157.793	44.25
2161.812	47.25
2165.827	39.25
2169.838	39.25
2173.846	35.25
2177.851	40.25
2181.851	39.25
2185.848	43.25
2189.841	37.25
2193.831	38.25
2197.817	38.25
2201.799	37.25
2205.778	35.25
2209.753	35.25
2213.725	36.25
2217.693	36.25
2221.657	33.25
2225.618	32.25
2229.575	31.25
2233.529	31.25
2237.479	31.25
2241.425	32.25
2245.368	30.25
2249.307	27.25
2253.243	28.25
2257.175	29.25
2261.104	32.25
2265.029	28.25
2268.95	28.25
2272.868	26.25
2276.783	28.25
2280.694	26.25
2284.601	22.25
2288.505	21.25
2292.405	19.25
2296.302	27.25
2300.195	24.25
2304.085	25.25
2307.971	19.25
2311.854	19.25
2315.734	15.25
2319.609	16.25
2323.482	22.25
2327.351	25.25
2331.216	23.25
2335.078	25.25
2338.937	22.25
2342.792	16.25
2346.643	13.25
2350.492	14.25
2354.336	12.25
2358.178	16.25
2362.015	16.25
2365.85	14.25
2369.681	15.25
2373.508	14.25
2377.333	17.25
2381.153	13.25
2384.971	13.25
2388.785	14.25
2392.595	12.25
2396.402	14.25
2400.206	14.25
2404.007	12.25
2407.804	11.25
2411.597	12.25
2415.388	8.25
2419.174	16.25
2422.958	12.25
2426.738	11.25
2430.515	10.25
2434.289	11.25
2438.059	13.25
2441.825	4.25
2445.589	11.25
2449.349	8.25
2453.106	9.25
2456.859	9.25
2460.61	8.25
2464.356	9.25
2468.1	9.25
2471.84	11.25
2475.577	5.25
2479.311	5.25
2483.041	6.25
2486.768	8.25
2490.492	7.25
2494.213	5.25
2497.93	3.25
2501.644	5.25
2505.355	5.25
2509.062	8.25
2512.766	9.25
2516.467	12.25
2520.165	4.25
2523.859	11.25
2527.551	10.25
2531.239	10.25
2534.923	2.25
2538.605	6.25
2542.283	-0.75
2545.958	6.25
2549.63	11.25
2553.299	11.25
2556.964	7.25
2560.626	10.25
2564.285	2.25
2567.941	4.25
2571.594	4.25
2575.243	9.25
2578.89	12.25
2582.533	8.25
2586.173	9.25
2589.809	6.25
2593.443	6.25
2597.073	2.25
2600.701	3.25
2604.325	7.25
2607.946	5.25
2611.564	5.25
2615.178	6.25
2618.79	9.25
2622.398	6.25
2626.004	4.25
2629.606	4.25
2633.205	7.25
2636.801	4.25
2640.394	8.25
2643.983	2.25
2647.57	5.25
2651.153	5.25
2654.734	2.25
2658.311	5.25
2661.885	8.25
2665.456	3.25
2669.025	3.25
2672.589	0.25
2676.151	5.25
2679.71	4.25
2683.266	6.25
2686.819	3.25
2690.368	5.25
2693.915	2.25
2697.458	5.25
2700.999	1.25
2704.536	9.25
2708.071	1.25
2711.602	2.25
2715.13	2.25
2718.656	3.25
2722.178	2.25
2725.697	6.25
2729.214	7.25
2732.727	9.25
2736.237	11.25
2739.744	9.25
2743.249	4.25
2746.75	0.25
2750.248	2.25
2753.743	6.25
2757.236	3.25
2760.725	6.25
2764.211	9.25
2767.695	1.25
2771.175	6.25
2774.652	4.25
2778.127	-0.75
2781.598	2.25
2785.067	2.25
2788.532	3.25
2791.995	8.25
2795.455	6.25
2798.911	7.25
2802.365	4.25
2805.816	7.25
2809.264	10.25
2812.709	11.25
2816.151	11.25
2819.59	15.25
2823.026	12.25
2826.46	13.25
2829.89	20.25
2833.318	18.25
2836.742	21.25
2840.164	29.25
2843.583	40.25
2846.999	43.25
2850.412	55.25
2853.822	58.25
2857.229	69.25
2860.634	70.25
2864.035	70.25
2867.434	74.25
2870.83	74.25
2874.223	76.25
2877.613	80.25
2881	81.25
2884.385	89.25
2887.766	93.25
2891.145	90.25
2894.521	92.25
2897.894	89.25
2901.264	87.25
2904.631	87.25
2907.996	82.25
2911.358	81.25
2914.717	80.25
2918.073	85.25
2921.426	77.25
2924.777	78.25
2928.124	78.25
2931.469	75.25
2934.811	72.25
2938.15	76.25
2941.487	82.25
2944.821	65.25
2948.152	64.25
2951.48	63.25
2954.805	60.25
2958.128	58.25
2961.447	52.25
2964.765	50.25
2968.079	45.25
2971.39	43.25
2974.699	44.25
2978.005	46.25
2981.308	43.25
2984.609	40.25
2987.907	34.25
2991.202	37.25
2994.494	27.25
2997.784	28.25
3001.07	37.25
3004.355	34.25
3007.636	34.25
3010.915	33.25
3014.191	28.25
3017.464	23.25
3020.734	25.25
3024.002	28.25
3027.267	22.25
3030.53	30.25
3033.789	29.25
3037.046	21.25
3040.301	28.25
3043.552	25.25
3046.801	21.25
3050.048	27.25
3053.291	23.25
3056.532	30.25
3059.771	30.25
3063.006	30.25
3066.239	33.25
3069.469	35.25
3072.697	30.25
3075.922	37.25
3079.144	38.25
3082.364	44.25
3085.581	37.25
3088.795	44.25
3092.007	35.25
3095.216	43.25
3098.423	38.25
3101.627	47.25
3104.828	45.25
3108.026	48.25
3111.222	46.25
3114.416	51.25
3117.607	47.25
3120.795	54.25
3123.98	52.25
3127.163	56.25
3130.344	59.25
3133.521	56.25
3136.696	55.25
3139.869	61.25
3143.039	61.25
3146.206	67.25
3149.371	68.25
3152.533	67.25
3155.693	63.25
3158.85	62.25
3162.005	65.25
3165.157	66.25
3168.306	66.25
3171.453	73.25
3174.597	59.25
3177.739	65.25
3180.878	66.25
3184.014	72.25
3187.149	67.25
3190.28	69.25
3193.409	69.25
3196.536	69.25
3199.659	69.25
3202.781	68.25
3205.9	64.25
3209.016	71.25
3212.13	74.25
3215.241	63.25
3218.35	69.25
3221.456	65.25
3224.56	61.25
3227.661	62.25
3230.76	66.25
3233.856	64.25
3236.95	62.25
3240.041	66.25
3243.13	62.25
3246.216	56.25
3249.3	57.25
3252.382	58.25
3255.46	61.25
3258.537	65.25
3261.611	63.25
3264.682	57.25
3267.751	57.25
3270.818	55.25
3273.882	51.25
3276.943	58.25
3280.002	53.25
3283.059	59.25
3286.113	56.25
3289.165	55.25
3292.214	51.25
3295.261	48.25
3298.306	55.25
3301.348	50.25
3304.387	44.25
3307.425	50.25
3310.459	47.25
3313.492	50.25
3316.521	46.25
3319.549	47.25
3322.574	44.25
3325.597	47.25
3328.617	47.25
3331.635	43.25
3334.65	49.25
3337.663	42.25
3340.674	43.25
3343.682	43.25
3346.688	44.25
3349.691	47.25
3352.692	48.25
3355.691	43.25
3358.687	44.25
3361.681	47.25
3364.673	38.25
3367.662	44.25
3370.649	39.25
3373.633	42.25
3376.615	38.25
3379.595	38.25
3382.572	37.25
3385.547	37.25
3388.52	36.25
3391.49	36.25
3394.458	33.25
3397.424	32.25
3400.387	30.25
3403.348	34.25
3406.307	32.25
3409.263	31.25
3412.217	35.25
3415.168	30.25
3418.118	31.25
3421.065	29.25
3424.009	26.25
3426.951	30.25
3429.891	30.25
3432.829	26.25
3435.764	27.25
3438.697	29.25
3441.628	23.25
3444.557	20.25
3447.483	22.25
3450.407	23.25
3453.328	26.25
3456.247	21.25
3459.164	18.25
3462.079	14.25
3464.991	15.25
3467.902	16.25
3470.809	14.25
3473.715	15.25
3476.618	18.25
3479.519	10.25
3482.418	8.25
3485.315	6.25
3488.209	6.25
3491.101	7.25
3493.99	12.25
3496.878	10.25
3499.763	8.25
3502.646	7.25
3505.527	2.25
3508.405	1.25
3511.281	1.25
3514.155	2.25
3517.027	4.25
3519.897	3.25
3522.764	1.25
3525.629	3.25
3528.492	-3.75
3531.352	-2.75
3534.211	-3.75
3537.067	-4.75
3539.921	-0.75
3542.773	-0.75
3545.622	-5.75
3548.469	-3.75
3551.315	-8.75
3554.157	-6.75
3556.998	-7.75
3559.837	-6.75
3562.673	-5.75
3565.507	-10.75
3568.339	-7.75
3571.169	-9.75
3573.996	-7.75
3576.822	-10.75
3579.645	-15.75
3582.466	-8.75
3585.285	-7.75
3588.101	-7.75
3590.916	-14.75
3593.728	-13.75
3596.538	-14.75
3599.346	-13.75
3602.152	-13.75
3604.956	-13.75
3607.757	-14.75
3610.556	-13.75
3613.354	-17.75
3616.149	-18.75
3618.942	-13.75
3621.732	-14.75
3624.521	-19.75
3627.307	-14.75
3630.092	-17.75
3632.874	-18.75
3635.654	-13.75
3638.432	-16.75
3641.208	-16.75
3643.982	-15.75
3646.753	-15.75
3649.523	-17.75
3652.29	-14.75
3655.055	-19.75
3657.818	-22.75
3660.579	-16.75
3663.338	-18.75
3666.095	-11.75
3668.849	-16.75
3671.602	-16.75
3674.352	-20.75
3677.101	-18.75
3679.847	-22.75
3682.591	-19.75
3685.333	-18.75
3688.073	-17.75
3690.811	-18.75
3693.547	-23.75
3696.281	-20.75
3699.013	-20.75
3701.742	-23.75
3704.47	-19.75
3707.195	-18.75
3709.919	-18.75
3712.64	-24.75
3715.359	-18.75
3718.076	-18.75
3720.792	-23.75
3723.505	-18.75
3726.216	-19.75
3728.925	-23.75
3731.632	-21.75
3734.336	-20.75
3737.039	-20.75
3739.74	-22.75
3742.439	-21.75
3745.136	-22.75
3747.83	-18.75
3750.523	-18.75
3753.213	-23.75
3755.902	-22.75
3758.589	-22.75
3761.273	-22.75
3763.956	-20.75
3766.636	-21.75
3769.315	-20.75
3771.991	-23.75
3774.665	-24.75
3777.338	-20.75
3780.008	-20.75
3782.677	-21.75
3785.343	-23.75
3788.007	-21.75
3790.67	-21.75
3793.33	-23.75
3795.989	-22.75
3798.645	-21.75
3801.299	-17.75
3803.952	-22.75
3806.602	-21.75
3809.251	-22.75
3811.897	-20.75
3814.542	-25.75
3817.184	-19.75
3819.825	-19.75
3822.463	-19.75
3825.1	-20.75
3827.735	-20.75
3830.367	-23.75
3832.998	-21.75
3835.627	-24.75
3838.253	-20.75
3840.878	-22.75
3843.501	-17.75
3846.122	-20.75
3848.741	-17.75
3851.358	-20.75
3853.973	-22.75
3856.586	-23.75
3859.197	-22.75
3861.806	-21.75
3864.414	-20.75
3867.019	-20.75
3869.622	-18.75
3872.224	-23.75
3874.823	-24.75
3877.421	-21.75
3880.016	-17.75
3882.61	-15.75
3885.202	-11.75
3887.792	-10.75
3890.38	-12.75
3892.966	-22.75
3895.55	-19.75
3898.132	-24.75
3900.713	-19.75
3903.291	-22.75
3905.868	-20.75
3908.442	-22.75
3911.015	-22.75
3913.586	-22.75
3916.155	-24.75
3918.722	-23.75
3921.287	-17.75
3923.85	-21.75
3926.411	-18.75
3928.971	-16.75
3931.528	-19.75
3934.084	-24.75
3936.638	-22.75
3939.19	-23.75
3941.74	-22.75
3944.288	-22.75
3946.834	-21.75
3949.378	-20.75
3951.921	-21.75
3954.462	-21.75
3957	-20.75
3959.537	-23.75
3962.072	-21.75
3964.606	-22.75
3967.137	-21.75
3969.667	-23.75
3972.194	-21.75
3974.72	-21.75
3977.244	-18.75
3979.766	-20.75
3982.286	-20.75
3984.805	-22.75
3987.321	-24.75
3989.836	-25.75
3992.349	-20.75
3994.86	-21.75
3997.369	-22.75
3999.877	-21.75
4002.382	-19.75
4004.886	-22.75
4007.388	-25.75
4009.888	-20.75
4012.386	-20.75
4014.883	-20.75
4017.377	-16.75
4019.87	-22.75
4022.361	-20.75
4024.85	-25.75
4027.338	-23.75
4029.823	-23.75
4032.307	-22.75
4034.789	-18.75
4037.269	-17.75
4039.747	-20.75
4042.224	-23.75
4044.699	-26.75
4047.172	-26.75
4049.643	-24.75
4052.112	-17.75
4054.58	-19.75
4057.046	-18.75
4059.51	-22.75
4061.972	-22.75
4064.432	-22.75
4066.891	-23.75
4069.348	-21.75
4071.803	-20.75
4074.256	-20.75
4076.708	-17.75
4079.158	-22.75
4081.606	-23.75
4084.052	-22.75
4086.497	-21.75
4088.939	-19.75
4091.38	-19.75
4093.819	-18.75
4096.257	-22.75
4098.693	-24.75
4101.127	-22.75
4103.559	-23.75
4105.989	-10.75
4108.418	-9.75
4110.845	-3.75
4113.27	-10.75
4115.694	-6.75
4118.115	-3.75
4120.535	-19.75
4122.954	-24.75
4125.37	-22.75
4127.785	-20.75
4130.198	-21.75
4132.609	-21.75
4135.019	-23.75
4137.427	-23.75
4139.833	-22.75
4142.237	-21.75
