Data from 100000CFU2_D_RamanShift_2.txt Node
Date: Thu Feb 02 12:17:43 IST 2017
User: aro
Spectrometer: QEPB0276
Trigger mode: 0
Integration Time (sec): 5.000000E0
Scans to average: 1
Electric dark correction enabled: true
Nonlinearity correction enabled: false
Boxcar width: 0
XAxis mode: Raman Shifts
Number of Pixels in Spectrum: 1044
>>>>>Begin Spectral Data<<<<<
160.701	-5.38
166.742	0.62
172.777	23.62
178.805	79.62
184.826	193.62
190.841	390.62
196.849	598.62
202.85	758.62
208.845	789.62
214.833	791.62
220.815	765.62
226.789	743.62
232.758	748.62
238.719	736.62
244.674	724.62
250.623	702.62
256.565	690.62
262.5	660.62
268.429	659.62
274.351	654.62
280.267	630.62
286.176	626.62
292.079	622.62
297.975	606.62
303.865	596.62
309.748	613.62
315.625	594.62
321.495	601.62
327.359	599.62
333.217	594.62
339.068	596.62
344.912	605.62
350.751	610.62
356.583	621.62
362.408	627.62
368.227	612.62
374.04	606.62
379.847	601.62
385.647	607.62
391.44	608.62
397.228	608.62
403.009	610.62
408.784	612.62
414.553	625.62
420.315	634.62
426.071	630.62
431.821	643.62
437.565	630.62
443.302	632.62
449.033	623.62
454.758	630.62
460.477	607.62
466.189	597.62
471.896	586.62
477.596	582.62
483.29	591.62
488.978	582.62
494.66	575.62
500.335	563.62
506.005	538.62
511.668	521.62
517.325	499.62
522.977	479.62
528.622	472.62
534.261	457.62
539.894	451.62
545.521	433.62
551.141	428.62
556.756	424.62
562.365	421.62
567.968	418.62
573.565	412.62
579.155	409.62
584.74	414.62
590.319	408.62
595.892	406.62
601.459	403.62
607.02	409.62
612.575	398.62
618.124	397.62
623.667	393.62
629.204	387.62
634.735	373.62
640.261	378.62
645.781	378.62
651.294	373.62
656.802	370.62
662.304	366.62
667.8	365.62
673.29	362.62
678.775	361.62
684.254	357.62
689.726	345.62
695.193	343.62
700.655	348.62
706.11	350.62
711.56	361.62
717.004	342.62
722.442	348.62
727.874	339.62
733.301	335.62
738.722	333.62
744.137	343.62
749.547	332.62
754.951	334.62
760.349	342.62
765.741	339.62
771.128	342.62
776.509	337.62
781.885	347.62
787.254	346.62
792.618	340.62
797.977	348.62
803.33	344.62
808.677	339.62
814.019	344.62
819.355	340.62
824.686	342.62
830.011	343.62
835.33	351.62
840.644	351.62
845.952	346.62
851.255	360.62
856.552	359.62
861.844	364.62
867.13	355.62
872.41	357.62
877.686	366.62
882.955	361.62
888.219	352.62
893.478	351.62
898.731	339.62
903.979	335.62
909.221	319.62
914.458	323.62
919.69	320.62
924.916	310.62
930.136	312.62
935.351	310.62
940.561	312.62
945.766	310.62
950.965	306.62
956.158	317.62
961.347	296.62
966.529	293.62
971.707	284.62
976.879	286.62
982.046	285.62
987.208	284.62
992.364	281.62
997.515	288.62
1002.66	291.62
1007.801	293.62
1012.936	304.62
1018.066	304.62
1023.19	300.62
1028.309	315.62
1033.423	319.62
1038.532	309.62
1043.636	318.62
1048.734	308.62
1053.827	315.62
1058.915	331.62
1063.998	324.62
1069.075	335.62
1074.147	345.62
1079.214	349.62
1084.276	341.62
1089.333	355.62
1094.385	349.62
1099.431	341.62
1104.472	333.62
1109.509	321.62
1114.54	308.62
1119.565	312.62
1124.586	317.62
1129.602	321.62
1134.613	310.62
1139.618	298.62
1144.619	279.62
1149.614	273.62
1154.604	273.62
1159.589	261.62
1164.57	264.62
1169.545	262.62
1174.515	264.62
1179.48	254.62
1184.44	250.62
1189.395	243.62
1194.345	236.62
1199.29	236.62
1204.23	242.62
1209.165	247.62
1214.095	245.62
1219.021	245.62
1223.941	246.62
1228.856	256.62
1233.766	255.62
1238.672	260.62
1243.572	273.62
1248.467	277.62
1253.358	275.62
1258.244	275.62
1263.124	276.62
1268	276.62
1272.871	266.62
1277.737	260.62
1282.599	262.62
1287.455	256.62
1292.306	268.62
1297.153	280.62
1301.995	302.62
1306.832	309.62
1311.664	291.62
1316.491	283.62
1321.314	283.62
1326.132	263.62
1330.945	251.62
1335.753	245.62
1340.556	242.62
1345.354	234.62
1350.148	241.62
1354.937	224.62
1359.722	217.62
1364.501	212.62
1369.276	219.62
1374.046	217.62
1378.811	221.62
1383.572	220.62
1388.327	223.62
1393.079	204.62
1397.825	204.62
1402.567	201.62
1407.304	205.62
1412.036	205.62
1416.764	210.62
1421.487	219.62
1426.205	221.62
1430.919	224.62
1435.628	248.62
1440.333	276.62
1445.032	299.62
1449.727	308.62
1454.418	303.62
1459.104	292.62
1463.785	277.62
1468.462	263.62
1473.134	243.62
1477.802	224.62
1482.465	198.62
1487.123	182.62
1491.777	175.62
1496.426	163.62
1501.071	153.62
1505.711	158.62
1510.347	160.62
1514.978	165.62
1519.604	154.62
1524.226	166.62
1528.844	154.62
1533.457	155.62
1538.065	158.62
1542.669	158.62
1547.269	154.62
1551.864	158.62
1556.454	160.62
1561.041	164.62
1565.622	159.62
1570.199	157.62
1574.772	156.62
1579.34	159.62
1583.904	159.62
1588.464	157.62
1593.019	163.62
1597.569	169.62
1602.115	168.62
1606.657	168.62
1611.195	168.62
1615.728	166.62
1620.256	165.62
1624.78	174.62
1629.3	176.62
1633.816	180.62
1638.327	177.62
1642.834	182.62
1647.336	187.62
1651.834	189.62
1656.328	192.62
1660.817	195.62
1665.302	196.62
1669.783	195.62
1674.259	180.62
1678.732	177.62
1683.199	165.62
1687.663	153.62
1692.122	141.62
1696.577	134.62
1701.028	145.62
1705.474	129.62
1709.917	132.62
1714.355	124.62
1718.788	113.62
1723.218	110.62
1727.643	111.62
1732.064	110.62
1736.481	115.62
1740.893	111.62
1745.301	110.62
1749.705	107.62
1754.105	98.62
1758.501	87.62
1762.893	90.62
1767.28	89.62
1771.663	91.62
1776.042	85.62
1780.417	83.62
1784.787	80.62
1789.154	79.62
1793.516	80.62
1797.874	88.62
1802.228	82.62
1806.578	88.62
1810.924	82.62
1815.266	81.62
1819.603	76.62
1823.937	74.62
1828.266	69.62
1832.591	71.62
1836.913	73.62
1841.23	74.62
1845.543	76.62
1849.852	67.62
1854.156	73.62
1858.457	72.62
1862.754	70.62
1867.047	70.62
1871.335	70.62
1875.62	71.62
1879.9	66.62
1884.177	71.62
1888.449	70.62
1892.718	65.62
1896.982	64.62
1901.243	67.62
1905.499	66.62
1909.752	71.62
1914	66.62
1918.245	62.62
1922.485	57.62
1926.722	60.62
1930.954	69.62
1935.183	69.62
1939.408	72.62
1943.628	67.62
1947.845	65.62
1952.058	69.62
1956.267	67.62
1960.472	63.62
1964.673	67.62
1968.87	63.62
1973.063	63.62
1977.252	57.62
1981.438	61.62
1985.619	56.62
1989.797	57.62
1993.971	57.62
1998.14	60.62
2002.306	67.62
2006.469	60.62
2010.627	56.62
2014.781	58.62
2018.932	63.62
2023.078	58.62
2027.221	65.62
2031.36	53.62
2035.495	54.62
2039.627	54.62
2043.754	52.62
2047.878	54.62
2051.998	53.62
2056.114	52.62
2060.226	53.62
2064.334	56.62
2068.439	55.62
2072.54	50.62
2076.637	56.62
2080.73	54.62
2084.82	57.62
2088.906	58.62
2092.988	57.62
2097.066	54.62
2101.14	58.62
2105.211	53.62
2109.278	49.62
2113.342	55.62
2117.401	50.62
2121.457	54.62
2125.509	53.62
2129.558	51.62
2133.602	48.62
2137.643	57.62
2141.681	52.62
2145.714	49.62
2149.744	49.62
2153.77	51.62
2157.793	50.62
2161.812	52.62
2165.827	46.62
2169.838	44.62
2173.846	44.62
2177.851	41.62
2181.851	44.62
2185.848	46.62
2189.841	44.62
2193.831	44.62
2197.817	37.62
2201.799	41.62
2205.778	42.62
2209.753	34.62
2213.725	38.62
2217.693	44.62
2221.657	40.62
2225.618	37.62
2229.575	35.62
2233.529	34.62
2237.479	39.62
2241.425	37.62
2245.368	41.62
2249.307	37.62
2253.243	34.62
2257.175	35.62
2261.104	32.62
2265.029	34.62
2268.95	30.62
2272.868	32.62
2276.783	29.62
2280.694	32.62
2284.601	29.62
2288.505	29.62
2292.405	28.62
2296.302	30.62
2300.195	30.62
2304.085	29.62
2307.971	26.62
2311.854	27.62
2315.734	25.62
2319.609	21.62
2323.482	24.62
2327.351	33.62
2331.216	31.62
2335.078	31.62
2338.937	29.62
2342.792	24.62
2346.643	23.62
2350.492	21.62
2354.336	17.62
2358.178	21.62
2362.015	21.62
2365.85	21.62
2369.681	22.62
2373.508	23.62
2377.333	22.62
2381.153	20.62
2384.971	21.62
2388.785	19.62
2392.595	21.62
2396.402	18.62
2400.206	22.62
2404.007	20.62
2407.804	23.62
2411.597	21.62
2415.388	16.62
2419.174	21.62
2422.958	14.62
2426.738	12.62
2430.515	18.62
2434.289	16.62
2438.059	19.62
2441.825	13.62
2445.589	12.62
2449.349	11.62
2453.106	14.62
2456.859	14.62
2460.61	12.62
2464.356	18.62
2468.1	13.62
2471.84	17.62
2475.577	14.62
2479.311	6.62
2483.041	15.62
2486.768	12.62
2490.492	14.62
2494.213	13.62
2497.93	15.62
2501.644	7.62
2505.355	12.62
2509.062	8.62
2512.766	14.62
2516.467	14.62
2520.165	9.62
2523.859	13.62
2527.551	15.62
2531.239	11.62
2534.923	6.62
2538.605	7.62
2542.283	10.62
2545.958	13.62
2549.63	14.62
2553.299	16.62
2556.964	10.62
2560.626	14.62
2564.285	8.62
2567.941	7.62
2571.594	10.62
2575.243	11.62
2578.89	17.62
2582.533	8.62
2586.173	11.62
2589.809	12.62
2593.443	9.62
2597.073	5.62
2600.701	12.62
2604.325	8.62
2607.946	11.62
2611.564	7.62
2615.178	13.62
2618.79	9.62
2622.398	15.62
2626.004	8.62
2629.606	9.62
2633.205	10.62
2636.801	11.62
2640.394	11.62
2643.983	12.62
2647.57	10.62
2651.153	10.62
2654.734	3.62
2658.311	8.62
2661.885	10.62
2665.456	10.62
2669.025	11.62
2672.589	8.62
2676.151	9.62
2679.71	8.62
2683.266	8.62
2686.819	11.62
2690.368	8.62
2693.915	9.62
2697.458	8.62
2700.999	7.62
2704.536	8.62
2708.071	7.62
2711.602	6.62
2715.13	8.62
2718.656	9.62
2722.178	10.62
2725.697	7.62
2729.214	15.62
2732.727	12.62
2736.237	15.62
2739.744	14.62
2743.249	9.62
2746.75	7.62
2750.248	10.62
2753.743	8.62
2757.236	10.62
2760.725	13.62
2764.211	10.62
2767.695	7.62
2771.175	12.62
2774.652	9.62
2778.127	13.62
2781.598	9.62
2785.067	9.62
2788.532	7.62
2791.995	11.62
2795.455	10.62
2798.911	9.62
2802.365	12.62
2805.816	12.62
2809.264	17.62
2812.709	15.62
2816.151	15.62
2819.59	16.62
2823.026	15.62
2826.46	20.62
2829.89	28.62
2833.318	30.62
2836.742	34.62
2840.164	47.62
2843.583	54.62
2846.999	57.62
2850.412	76.62
2853.822	76.62
2857.229	89.62
2860.634	97.62
2864.035	92.62
2867.434	94.62
2870.83	98.62
2874.223	98.62
2877.613	101.62
2881	106.62
2884.385	121.62
2887.766	119.62
2891.145	117.62
2894.521	124.62
2897.894	110.62
2901.264	116.62
2904.631	107.62
2907.996	108.62
2911.358	103.62
2914.717	106.62
2918.073	108.62
2921.426	106.62
2924.777	106.62
2928.124	105.62
2931.469	98.62
2934.811	106.62
2938.15	103.62
2941.487	101.62
2944.821	93.62
2948.152	94.62
2951.48	82.62
2954.805	78.62
2958.128	71.62
2961.447	72.62
2964.765	65.62
2968.079	59.62
2971.39	60.62
2974.699	60.62
2978.005	57.62
2981.308	51.62
2984.609	50.62
2987.907	46.62
2991.202	45.62
2994.494	44.62
2997.784	43.62
3001.07	44.62
3004.355	47.62
3007.636	42.62
3010.915	41.62
3014.191	42.62
3017.464	32.62
3020.734	35.62
3024.002	36.62
3027.267	37.62
3030.53	38.62
3033.789	40.62
3037.046	32.62
3040.301	39.62
3043.552	32.62
3046.801	35.62
3050.048	41.62
3053.291	42.62
3056.532	42.62
3059.771	44.62
3063.006	46.62
3066.239	46.62
3069.469	51.62
3072.697	47.62
3075.922	54.62
3079.144	56.62
3082.364	56.62
3085.581	56.62
3088.795	54.62
3092.007	54.62
3095.216	60.62
3098.423	64.62
3101.627	64.62
3104.828	70.62
3108.026	64.62
3111.222	67.62
3114.416	68.62
3117.607	69.62
3120.795	70.62
3123.98	68.62
3127.163	79.62
3130.344	76.62
3133.521	73.62
3136.696	76.62
3139.869	76.62
3143.039	82.62
3146.206	86.62
3149.371	87.62
3152.533	87.62
3155.693	89.62
3158.85	83.62
3162.005	87.62
3165.157	89.62
3168.306	89.62
3171.453	89.62
3174.597	90.62
3177.739	85.62
3180.878	90.62
3184.014	90.62
3187.149	90.62
3190.28	91.62
3193.409	95.62
3196.536	89.62
3199.659	89.62
3202.781	94.62
3205.9	90.62
3209.016	94.62
3212.13	100.62
3215.241	95.62
3218.35	89.62
3221.456	88.62
3224.56	89.62
3227.661	84.62
3230.76	92.62
3233.856	84.62
3236.95	80.62
3240.041	79.62
3243.13	82.62
3246.216	82.62
3249.3	83.62
3252.382	82.62
3255.46	81.62
3258.537	81.62
3261.611	78.62
3264.682	74.62
3267.751	74.62
3270.818	75.62
3273.882	74.62
3276.943	75.62
3280.002	77.62
3283.059	74.62
3286.113	79.62
3289.165	72.62
3292.214	66.62
3295.261	75.62
3298.306	72.62
3301.348	70.62
3304.387	65.62
3307.425	67.62
3310.459	61.62
3313.492	62.62
3316.521	59.62
3319.549	62.62
3322.574	61.62
3325.597	63.62
3328.617	65.62
3331.635	58.62
3334.65	61.62
3337.663	55.62
3340.674	61.62
3343.682	62.62
3346.688	60.62
3349.691	64.62
3352.692	58.62
3355.691	59.62
3358.687	56.62
3361.681	52.62
3364.673	58.62
3367.662	55.62
3370.649	61.62
3373.633	58.62
3376.615	50.62
3379.595	54.62
3382.572	50.62
3385.547	51.62
3388.52	49.62
3391.49	49.62
3394.458	53.62
3397.424	44.62
3400.387	44.62
3403.348	44.62
3406.307	42.62
3409.263	41.62
3412.217	49.62
3415.168	44.62
3418.118	44.62
3421.065	44.62
3424.009	36.62
3426.951	34.62
3429.891	38.62
3432.829	44.62
3435.764	37.62
3438.697	37.62
3441.628	36.62
3444.557	34.62
3447.483	30.62
3450.407	32.62
3453.328	30.62
3456.247	29.62
3459.164	26.62
3462.079	26.62
3464.991	25.62
3467.902	26.62
3470.809	25.62
3473.715	19.62
3476.618	24.62
3479.519	16.62
3482.418	14.62
3485.315	20.62
3488.209	16.62
3491.101	12.62
3493.99	14.62
3496.878	13.62
3499.763	11.62
3502.646	9.62
3505.527	9.62
3508.405	8.62
3511.281	7.62
3514.155	7.62
3517.027	9.62
3519.897	7.62
3522.764	3.62
3525.629	3.62
3528.492	6.62
3531.352	6.62
3534.211	2.62
3537.067	-3.38
3539.921	-1.38
3542.773	-0.38
3545.622	1.62
3548.469	-5.38
3551.315	-4.38
3554.157	-7.38
3556.998	-3.38
3559.837	-2.38
3562.673	-5.38
3565.507	-8.38
3568.339	-5.38
3571.169	-5.38
3573.996	-7.38
3576.822	-10.38
3579.645	-9.38
3582.466	-10.38
3585.285	-9.38
3588.101	-7.38
3590.916	-11.38
3593.728	-12.38
3596.538	-11.38
3599.346	-14.38
3602.152	-13.38
3604.956	-14.38
3607.757	-10.38
3610.556	-11.38
3613.354	-14.38
3616.149	-16.38
3618.942	-12.38
3621.732	-16.38
3624.521	-18.38
3627.307	-20.38
3630.092	-14.38
3632.874	-15.38
3635.654	-14.38
3638.432	-16.38
3641.208	-17.38
3643.982	-18.38
3646.753	-17.38
3649.523	-17.38
3652.29	-16.38
3655.055	-18.38
3657.818	-19.38
3660.579	-17.38
3663.338	-19.38
3666.095	-15.38
3668.849	-19.38
3671.602	-17.38
3674.352	-21.38
3677.101	-16.38
3679.847	-17.38
3682.591	-20.38
3685.333	-20.38
3688.073	-22.38
3690.811	-19.38
3693.547	-27.38
3696.281	-20.38
3699.013	-22.38
3701.742	-21.38
3704.47	-21.38
3707.195	-21.38
3709.919	-21.38
3712.64	-25.38
3715.359	-21.38
3718.076	-19.38
3720.792	-24.38
3723.505	-18.38
3726.216	-20.38
3728.925	-26.38
3731.632	-26.38
3734.336	-21.38
3737.039	-23.38
3739.74	-21.38
3742.439	-20.38
3745.136	-22.38
3747.83	-20.38
3750.523	-26.38
3753.213	-25.38
3755.902	-24.38
3758.589	-25.38
3761.273	-22.38
3763.956	-19.38
3766.636	-20.38
3769.315	-21.38
3771.991	-27.38
3774.665	-27.38
3777.338	-20.38
3780.008	-20.38
3782.677	-17.38
3785.343	-19.38
3788.007	-19.38
3790.67	-22.38
3793.33	-25.38
3795.989	-27.38
3798.645	-23.38
3801.299	-21.38
3803.952	-22.38
3806.602	-20.38
3809.251	-22.38
3811.897	-22.38
3814.542	-26.38
3817.184	-22.38
3819.825	-22.38
3822.463	-17.38
3825.1	-20.38
3827.735	-19.38
3830.367	-20.38
3832.998	-24.38
3835.627	-24.38
3838.253	-23.38
3840.878	-22.38
3843.501	-20.38
3846.122	-22.38
3848.741	-19.38
3851.358	-24.38
3853.973	-24.38
3856.586	-21.38
3859.197	-25.38
3861.806	-20.38
3864.414	-24.38
3867.019	-21.38
3869.622	-21.38
3872.224	-24.38
3874.823	-25.38
3877.421	-20.38
3880.016	-21.38
3882.61	-15.38
3885.202	-9.38
3887.792	-12.38
3890.38	-17.38
3892.966	-22.38
3895.55	-22.38
3898.132	-24.38
3900.713	-20.38
3903.291	-22.38
3905.868	-21.38
3908.442	-22.38
3911.015	-23.38
3913.586	-23.38
3916.155	-25.38
3918.722	-25.38
3921.287	-19.38
3923.85	-19.38
3926.411	-22.38
3928.971	-19.38
3931.528	-22.38
3934.084	-24.38
3936.638	-24.38
3939.19	-28.38
3941.74	-24.38
3944.288	-23.38
3946.834	-25.38
3949.378	-24.38
3951.921	-22.38
3954.462	-21.38
3957	-25.38
3959.537	-24.38
3962.072	-20.38
3964.606	-26.38
3967.137	-20.38
3969.667	-23.38
3972.194	-23.38
3974.72	-26.38
3977.244	-21.38
3979.766	-25.38
3982.286	-19.38
3984.805	-22.38
3987.321	-24.38
3989.836	-27.38
3992.349	-20.38
3994.86	-18.38
3997.369	-22.38
3999.877	-22.38
4002.382	-25.38
4004.886	-24.38
4007.388	-24.38
4009.888	-21.38
4012.386	-22.38
4014.883	-24.38
4017.377	-19.38
4019.87	-24.38
4022.361	-21.38
4024.85	-27.38
4027.338	-29.38
4029.823	-22.38
4032.307	-23.38
4034.789	-19.38
4037.269	-21.38
4039.747	-21.38
4042.224	-24.38
4044.699	-26.38
4047.172	-26.38
4049.643	-25.38
4052.112	-21.38
4054.58	-18.38
4057.046	-21.38
4059.51	-27.38
4061.972	-27.38
4064.432	-23.38
4066.891	-23.38
4069.348	-18.38
4071.803	-22.38
4074.256	-19.38
4076.708	-21.38
4079.158	-24.38
4081.606	-24.38
4084.052	-20.38
4086.497	-21.38
4088.939	-19.38
4091.38	-20.38
4093.819	-26.38
4096.257	-20.38
4098.693	-26.38
4101.127	-26.38
4103.559	-28.38
4105.989	-14.38
4108.418	-12.38
4110.845	-4.38
4113.27	-10.38
4115.694	-8.38
4118.115	-12.38
4120.535	-22.38
4122.954	-27.38
4125.37	-24.38
4127.785	-18.38
4130.198	-17.38
4132.609	-22.38
4135.019	-23.38
4137.427	-25.38
4139.833	-23.38
4142.237	-26.38
