Data from 1000000CFU3_B_RamanShift_1.txt Node
Date: Thu Feb 02 14:41:20 IST 2017
User: aro
Spectrometer: QEPB0276
Trigger mode: 0
Integration Time (sec): 5.000000E0
Scans to average: 1
Electric dark correction enabled: true
Nonlinearity correction enabled: false
Boxcar width: 0
XAxis mode: Raman Shifts
Number of Pixels in Spectrum: 1044
>>>>>Begin Spectral Data<<<<<
160.701	-2.12
166.742	1.88
172.777	18.88
178.805	89.88
184.826	217.88
190.841	426.88
196.849	668.88
202.85	836.88
208.845	880.88
214.833	872.88
220.815	848.88
226.789	843.88
232.758	818.88
238.719	828.88
244.674	818.88
250.623	790.88
256.565	770.88
262.5	749.88
268.429	726.88
274.351	712.88
280.267	707.88
286.176	702.88
292.079	700.88
297.975	679.88
303.865	692.88
309.748	684.88
315.625	669.88
321.495	674.88
327.359	668.88
333.217	675.88
339.068	683.88
344.912	677.88
350.751	701.88
356.583	696.88
362.408	700.88
368.227	701.88
374.04	684.88
379.847	676.88
385.647	680.88
391.44	678.88
397.228	691.88
403.009	687.88
408.784	690.88
414.553	692.88
420.315	700.88
426.071	707.88
431.821	703.88
437.565	700.88
443.302	699.88
449.033	700.88
454.758	701.88
460.477	685.88
466.189	684.88
471.896	685.88
477.596	671.88
483.29	649.88
488.978	642.88
494.66	642.88
500.335	624.88
506.005	604.88
511.668	589.88
517.325	570.88
522.977	561.88
528.622	537.88
534.261	519.88
539.894	502.88
545.521	513.88
551.141	497.88
556.756	489.88
562.365	484.88
567.968	477.88
573.565	476.88
579.155	478.88
584.74	473.88
590.319	472.88
595.892	470.88
601.459	476.88
607.02	468.88
612.575	464.88
618.124	464.88
623.667	453.88
629.204	445.88
634.735	435.88
640.261	439.88
645.781	434.88
651.294	431.88
656.802	440.88
662.304	423.88
667.8	413.88
673.29	418.88
678.775	418.88
684.254	409.88
689.726	405.88
695.193	408.88
700.655	401.88
706.11	413.88
711.56	412.88
717.004	407.88
722.442	409.88
727.874	394.88
733.301	390.88
738.722	394.88
744.137	394.88
749.547	390.88
754.951	385.88
760.349	398.88
765.741	398.88
771.128	396.88
776.509	395.88
781.885	397.88
787.254	389.88
792.618	402.88
797.977	396.88
803.33	400.88
808.677	386.88
814.019	395.88
819.355	387.88
824.686	388.88
830.011	393.88
835.33	399.88
840.644	397.88
845.952	407.88
851.255	412.88
856.552	403.88
861.844	422.88
867.13	412.88
872.41	405.88
877.686	414.88
882.955	409.88
888.219	403.88
893.478	399.88
898.731	395.88
903.979	376.88
909.221	377.88
914.458	375.88
919.69	370.88
924.916	363.88
930.136	348.88
935.351	359.88
940.561	362.88
945.766	357.88
950.965	354.88
956.158	357.88
961.347	344.88
966.529	339.88
971.707	330.88
976.879	330.88
982.046	331.88
987.208	327.88
992.364	330.88
997.515	334.88
1002.66	342.88
1007.801	340.88
1012.936	350.88
1018.066	353.88
1023.19	355.88
1028.309	359.88
1033.423	364.88
1038.532	363.88
1043.636	373.88
1048.734	367.88
1053.827	360.88
1058.915	370.88
1063.998	381.88
1069.075	394.88
1074.147	390.88
1079.214	393.88
1084.276	393.88
1089.333	402.88
1094.385	388.88
1099.431	391.88
1104.472	382.88
1109.509	368.88
1114.54	352.88
1119.565	368.88
1124.586	362.88
1129.602	370.88
1134.613	356.88
1139.618	343.88
1144.619	328.88
1149.614	309.88
1154.604	311.88
1159.589	308.88
1164.57	306.88
1169.545	308.88
1174.515	292.88
1179.48	286.88
1184.44	276.88
1189.395	278.88
1194.345	276.88
1199.29	276.88
1204.23	280.88
1209.165	275.88
1214.095	278.88
1219.021	282.88
1223.941	278.88
1228.856	287.88
1233.766	293.88
1238.672	301.88
1243.572	304.88
1248.467	311.88
1253.358	308.88
1258.244	312.88
1263.124	312.88
1268	308.88
1272.871	307.88
1277.737	299.88
1282.599	292.88
1287.455	290.88
1292.306	299.88
1297.153	326.88
1301.995	345.88
1306.832	343.88
1311.664	329.88
1316.491	309.88
1321.314	307.88
1326.132	291.88
1330.945	288.88
1335.753	269.88
1340.556	265.88
1345.354	271.88
1350.148	266.88
1354.937	257.88
1359.722	252.88
1364.501	256.88
1369.276	255.88
1374.046	255.88
1378.811	260.88
1383.572	250.88
1388.327	245.88
1393.079	244.88
1397.825	232.88
1402.567	235.88
1407.304	231.88
1412.036	233.88
1416.764	241.88
1421.487	238.88
1426.205	253.88
1430.919	258.88
1435.628	280.88
1440.333	304.88
1445.032	328.88
1449.727	334.88
1454.418	335.88
1459.104	323.88
1463.785	312.88
1468.462	296.88
1473.134	272.88
1477.802	247.88
1482.465	223.88
1487.123	201.88
1491.777	191.88
1496.426	187.88
1501.071	187.88
1505.711	182.88
1510.347	188.88
1514.978	188.88
1519.604	183.88
1524.226	188.88
1528.844	176.88
1533.457	176.88
1538.065	184.88
1542.669	182.88
1547.269	182.88
1551.864	182.88
1556.454	179.88
1561.041	183.88
1565.622	172.88
1570.199	177.88
1574.772	174.88
1579.34	182.88
1583.904	180.88
1588.464	179.88
1593.019	177.88
1597.569	181.88
1602.115	184.88
1606.657	192.88
1611.195	187.88
1615.728	187.88
1620.256	193.88
1624.78	191.88
1629.3	187.88
1633.816	194.88
1638.327	195.88
1642.834	200.88
1647.336	213.88
1651.834	213.88
1656.328	212.88
1660.817	224.88
1665.302	221.88
1669.783	207.88
1674.259	200.88
1678.732	189.88
1683.199	183.88
1687.663	173.88
1692.122	170.88
1696.577	158.88
1701.028	159.88
1705.474	153.88
1709.917	148.88
1714.355	150.88
1718.788	142.88
1723.218	132.88
1727.643	134.88
1732.064	130.88
1736.481	135.88
1740.893	125.88
1745.301	129.88
1749.705	120.88
1754.105	114.88
1758.501	103.88
1762.893	113.88
1767.28	100.88
1771.663	104.88
1776.042	100.88
1780.417	96.88
1784.787	97.88
1789.154	95.88
1793.516	98.88
1797.874	97.88
1802.228	96.88
1806.578	103.88
1810.924	100.88
1815.266	92.88
1819.603	91.88
1823.937	91.88
1828.266	87.88
1832.591	85.88
1836.913	93.88
1841.23	86.88
1845.543	86.88
1849.852	82.88
1854.156	83.88
1858.457	87.88
1862.754	80.88
1867.047	81.88
1871.335	77.88
1875.62	81.88
1879.9	82.88
1884.177	81.88
1888.449	82.88
1892.718	82.88
1896.982	78.88
1901.243	84.88
1905.499	80.88
1909.752	77.88
1914	82.88
1918.245	74.88
1922.485	81.88
1926.722	79.88
1930.954	79.88
1935.183	78.88
1939.408	77.88
1943.628	81.88
1947.845	78.88
1952.058	81.88
1956.267	83.88
1960.472	74.88
1964.673	72.88
1968.87	75.88
1973.063	74.88
1977.252	68.88
1981.438	66.88
1985.619	68.88
1989.797	65.88
1993.971	71.88
1998.14	67.88
2002.306	68.88
2006.469	64.88
2010.627	64.88
2014.781	69.88
2018.932	71.88
2023.078	66.88
2027.221	63.88
2031.36	65.88
2035.495	65.88
2039.627	60.88
2043.754	65.88
2047.878	57.88
2051.998	59.88
2056.114	58.88
2060.226	60.88
2064.334	65.88
2068.439	62.88
2072.54	64.88
2076.637	68.88
2080.73	60.88
2084.82	62.88
2088.906	66.88
2092.988	56.88
2097.066	62.88
2101.14	65.88
2105.211	61.88
2109.278	62.88
2113.342	66.88
2117.401	62.88
2121.457	69.88
2125.509	60.88
2129.558	59.88
2133.602	57.88
2137.643	66.88
2141.681	58.88
2145.714	58.88
2149.744	60.88
2153.77	57.88
2157.793	54.88
2161.812	54.88
2165.827	47.88
2169.838	45.88
2173.846	47.88
2177.851	50.88
2181.851	51.88
2185.848	52.88
2189.841	48.88
2193.831	51.88
2197.817	44.88
2201.799	43.88
2205.778	43.88
2209.753	49.88
2213.725	45.88
2217.693	45.88
2221.657	45.88
2225.618	39.88
2229.575	39.88
2233.529	41.88
2237.479	41.88
2241.425	39.88
2245.368	43.88
2249.307	37.88
2253.243	32.88
2257.175	36.88
2261.104	35.88
2265.029	38.88
2268.95	40.88
2272.868	34.88
2276.783	30.88
2280.694	31.88
2284.601	24.88
2288.505	26.88
2292.405	28.88
2296.302	30.88
2300.195	33.88
2304.085	26.88
2307.971	31.88
2311.854	26.88
2315.734	24.88
2319.609	19.88
2323.482	28.88
2327.351	29.88
2331.216	28.88
2335.078	33.88
2338.937	27.88
2342.792	21.88
2346.643	21.88
2350.492	20.88
2354.336	17.88
2358.178	20.88
2362.015	23.88
2365.85	20.88
2369.681	21.88
2373.508	20.88
2377.333	21.88
2381.153	20.88
2384.971	19.88
2388.785	19.88
2392.595	21.88
2396.402	13.88
2400.206	17.88
2404.007	19.88
2407.804	19.88
2411.597	15.88
2415.388	14.88
2419.174	13.88
2422.958	13.88
2426.738	19.88
2430.515	15.88
2434.289	15.88
2438.059	23.88
2441.825	16.88
2445.589	17.88
2449.349	13.88
2453.106	12.88
2456.859	13.88
2460.61	11.88
2464.356	15.88
2468.1	15.88
2471.84	15.88
2475.577	12.88
2479.311	12.88
2483.041	10.88
2486.768	12.88
2490.492	11.88
2494.213	10.88
2497.93	11.88
2501.644	9.88
2505.355	10.88
2509.062	8.88
2512.766	8.88
2516.467	8.88
2520.165	8.88
2523.859	7.88
2527.551	7.88
2531.239	13.88
2534.923	8.88
2538.605	6.88
2542.283	6.88
2545.958	9.88
2549.63	10.88
2553.299	13.88
2556.964	10.88
2560.626	11.88
2564.285	6.88
2567.941	11.88
2571.594	9.88
2575.243	9.88
2578.89	11.88
2582.533	10.88
2586.173	9.88
2589.809	7.88
2593.443	10.88
2597.073	10.88
2600.701	10.88
2604.325	9.88
2607.946	8.88
2611.564	3.88
2615.178	10.88
2618.79	9.88
2622.398	9.88
2626.004	11.88
2629.606	13.88
2633.205	16.88
2636.801	7.88
2640.394	6.88
2643.983	5.88
2647.57	4.88
2651.153	4.88
2654.734	3.88
2658.311	8.88
2661.885	10.88
2665.456	6.88
2669.025	5.88
2672.589	0.88
2676.151	6.88
2679.71	7.88
2683.266	4.88
2686.819	4.88
2690.368	7.88
2693.915	7.88
2697.458	10.88
2700.999	2.88
2704.536	7.88
2708.071	6.88
2711.602	4.88
2715.13	8.88
2718.656	10.88
2722.178	7.88
2725.697	7.88
2729.214	9.88
2732.727	12.88
2736.237	12.88
2739.744	12.88
2743.249	7.88
2746.75	5.88
2750.248	8.88
2753.743	9.88
2757.236	8.88
2760.725	12.88
2764.211	12.88
2767.695	8.88
2771.175	11.88
2774.652	5.88
2778.127	7.88
2781.598	5.88
2785.067	10.88
2788.532	8.88
2791.995	13.88
2795.455	11.88
2798.911	10.88
2802.365	6.88
2805.816	10.88
2809.264	15.88
2812.709	15.88
2816.151	15.88
2819.59	17.88
2823.026	20.88
2826.46	23.88
2829.89	26.88
2833.318	28.88
2836.742	34.88
2840.164	45.88
2843.583	49.88
2846.999	61.88
2850.412	73.88
2853.822	86.88
2857.229	90.88
2860.634	101.88
2864.035	98.88
2867.434	102.88
2870.83	102.88
2874.223	103.88
2877.613	108.88
2881	115.88
2884.385	125.88
2887.766	128.88
2891.145	127.88
2894.521	118.88
2897.894	117.88
2901.264	119.88
2904.631	118.88
2907.996	121.88
2911.358	115.88
2914.717	112.88
2918.073	111.88
2921.426	109.88
2924.777	111.88
2928.124	110.88
2931.469	110.88
2934.811	108.88
2938.15	108.88
2941.487	101.88
2944.821	95.88
2948.152	85.88
2951.48	82.88
2954.805	76.88
2958.128	73.88
2961.447	74.88
2964.765	66.88
2968.079	66.88
2971.39	63.88
2974.699	60.88
2978.005	54.88
2981.308	55.88
2984.609	54.88
2987.907	51.88
2991.202	51.88
2994.494	44.88
2997.784	44.88
3001.07	43.88
3004.355	44.88
3007.636	43.88
3010.915	43.88
3014.191	34.88
3017.464	39.88
3020.734	37.88
3024.002	36.88
3027.267	33.88
3030.53	35.88
3033.789	35.88
3037.046	32.88
3040.301	32.88
3043.552	34.88
3046.801	35.88
3050.048	34.88
3053.291	42.88
3056.532	42.88
3059.771	45.88
3063.006	43.88
3066.239	48.88
3069.469	44.88
3072.697	45.88
3075.922	50.88
3079.144	52.88
3082.364	47.88
3085.581	47.88
3088.795	54.88
3092.007	54.88
3095.216	58.88
3098.423	56.88
3101.627	60.88
3104.828	63.88
3108.026	65.88
3111.222	62.88
3114.416	65.88
3117.607	69.88
3120.795	67.88
3123.98	67.88
3127.163	75.88
3130.344	78.88
3133.521	77.88
3136.696	77.88
3139.869	80.88
3143.039	87.88
3146.206	84.88
3149.371	87.88
3152.533	87.88
3155.693	87.88
3158.85	82.88
3162.005	85.88
3165.157	88.88
3168.306	91.88
3171.453	93.88
3174.597	80.88
3177.739	89.88
3180.878	88.88
3184.014	89.88
3187.149	89.88
3190.28	93.88
3193.409	90.88
3196.536	90.88
3199.659	88.88
3202.781	84.88
3205.9	91.88
3209.016	95.88
3212.13	93.88
3215.241	94.88
3218.35	91.88
3221.456	89.88
3224.56	90.88
3227.661	87.88
3230.76	86.88
3233.856	86.88
3236.95	83.88
3240.041	84.88
3243.13	83.88
3246.216	82.88
3249.3	85.88
3252.382	84.88
3255.46	77.88
3258.537	81.88
3261.611	83.88
3264.682	81.88
3267.751	76.88
3270.818	80.88
3273.882	78.88
3276.943	77.88
3280.002	74.88
3283.059	79.88
3286.113	75.88
3289.165	75.88
3292.214	70.88
3295.261	64.88
3298.306	67.88
3301.348	66.88
3304.387	65.88
3307.425	66.88
3310.459	61.88
3313.492	68.88
3316.521	63.88
3319.549	67.88
3322.574	66.88
3325.597	60.88
3328.617	61.88
3331.635	55.88
3334.65	58.88
3337.663	63.88
3340.674	58.88
3343.682	67.88
3346.688	58.88
3349.691	60.88
3352.692	55.88
3355.691	55.88
3358.687	55.88
3361.681	53.88
3364.673	59.88
3367.662	52.88
3370.649	58.88
3373.633	59.88
3376.615	52.88
3379.595	47.88
3382.572	50.88
3385.547	48.88
3388.52	50.88
3391.49	48.88
3394.458	46.88
3397.424	42.88
3400.387	46.88
3403.348	47.88
3406.307	39.88
3409.263	45.88
3412.217	43.88
3415.168	36.88
3418.118	43.88
3421.065	37.88
3424.009	35.88
3426.951	36.88
3429.891	42.88
3432.829	38.88
3435.764	34.88
3438.697	36.88
3441.628	27.88
3444.557	32.88
3447.483	33.88
3450.407	31.88
3453.328	30.88
3456.247	28.88
3459.164	24.88
3462.079	24.88
3464.991	22.88
3467.902	22.88
3470.809	21.88
3473.715	24.88
3476.618	20.88
3479.519	16.88
3482.418	13.88
3485.315	10.88
3488.209	10.88
3491.101	12.88
3493.99	12.88
3496.878	15.88
3499.763	11.88
3502.646	11.88
3505.527	9.88
3508.405	7.88
3511.281	7.88
3514.155	8.88
3517.027	9.88
3519.897	4.88
3522.764	1.88
3525.629	2.88
3528.492	6.88
3531.352	0.88
3534.211	-1.12
3537.067	-1.12
3539.921	-5.12
3542.773	-7.12
3545.622	-4.12
3548.469	-5.12
3551.315	-7.12
3554.157	-11.12
3556.998	-5.12
3559.837	-6.12
3562.673	-6.12
3565.507	-13.12
3568.339	-10.12
3571.169	-12.12
3573.996	-13.12
3576.822	-12.12
3579.645	-12.12
3582.466	-6.12
3585.285	-9.12
3588.101	-8.12
3590.916	-15.12
3593.728	-17.12
3596.538	-20.12
3599.346	-17.12
3602.152	-12.12
3604.956	-12.12
3607.757	-9.12
3610.556	-12.12
3613.354	22.88
3616.149	-14.12
3618.942	-17.12
3621.732	-20.12
3624.521	-19.12
3627.307	-17.12
3630.092	-18.12
3632.874	-18.12
3635.654	-17.12
3638.432	-21.12
3641.208	-19.12
3643.982	-19.12
3646.753	-20.12
3649.523	-20.12
3652.29	-17.12
3655.055	-22.12
3657.818	-26.12
3660.579	-22.12
3663.338	-21.12
3666.095	-19.12
3668.849	-20.12
3671.602	-22.12
3674.352	-23.12
3677.101	-24.12
3679.847	-23.12
3682.591	-22.12
3685.333	-21.12
3688.073	-19.12
3690.811	-25.12
3693.547	-27.12
3696.281	-26.12
3699.013	-23.12
3701.742	-25.12
3704.47	-23.12
3707.195	-23.12
3709.919	-22.12
3712.64	-29.12
3715.359	-25.12
3718.076	-24.12
3720.792	-28.12
3723.505	-19.12
3726.216	-21.12
3728.925	-25.12
3731.632	-28.12
3734.336	-25.12
3737.039	-26.12
3739.74	-30.12
3742.439	-25.12
3745.136	-23.12
3747.83	-24.12
3750.523	-21.12
3753.213	-28.12
3755.902	-24.12
3758.589	-28.12
3761.273	-24.12
3763.956	-29.12
3766.636	-25.12
3769.315	-23.12
3771.991	-27.12
3774.665	-31.12
3777.338	-24.12
3780.008	-24.12
3782.677	-26.12
3785.343	-26.12
3788.007	-24.12
3790.67	-28.12
3793.33	-27.12
3795.989	-30.12
3798.645	-26.12
3801.299	-23.12
3803.952	-25.12
3806.602	-25.12
3809.251	-26.12
3811.897	-26.12
3814.542	-29.12
3817.184	-30.12
3819.825	-27.12
3822.463	-22.12
3825.1	-25.12
3827.735	-23.12
3830.367	-25.12
3832.998	-25.12
3835.627	-28.12
3838.253	-23.12
3840.878	-29.12
3843.501	-25.12
3846.122	-28.12
3848.741	-23.12
3851.358	-26.12
3853.973	-27.12
3856.586	-25.12
3859.197	-28.12
3861.806	-26.12
3864.414	-28.12
3867.019	-27.12
3869.622	-26.12
3872.224	-27.12
3874.823	-26.12
3877.421	-20.12
3880.016	-22.12
3882.61	-16.12
3885.202	-15.12
3887.792	-15.12
3890.38	-23.12
3892.966	-27.12
3895.55	-24.12
3898.132	-26.12
3900.713	-22.12
3903.291	-26.12
3905.868	-24.12
3908.442	-31.12
3911.015	-26.12
3913.586	-30.12
3916.155	-28.12
3918.722	-23.12
3921.287	-23.12
3923.85	-24.12
3926.411	-27.12
3928.971	-22.12
3931.528	-30.12
3934.084	-30.12
3936.638	-28.12
3939.19	-26.12
3941.74	-22.12
3944.288	-26.12
3946.834	-27.12
3949.378	-29.12
3951.921	-26.12
3954.462	-27.12
3957	-30.12
3959.537	-25.12
3962.072	-25.12
3964.606	-25.12
3967.137	-23.12
3969.667	-28.12
3972.194	-28.12
3974.72	-25.12
3977.244	-27.12
3979.766	-27.12
3982.286	-25.12
3984.805	-26.12
3987.321	-25.12
3989.836	-28.12
3992.349	-24.12
3994.86	-23.12
3997.369	-24.12
3999.877	-27.12
4002.382	-27.12
4004.886	-26.12
4007.388	-26.12
4009.888	-26.12
4012.386	-24.12
4014.883	-24.12
4017.377	-25.12
4019.87	-25.12
4022.361	-24.12
4024.85	-32.12
4027.338	-29.12
4029.823	-27.12
4032.307	-27.12
4034.789	-24.12
4037.269	-25.12
4039.747	-27.12
4042.224	-27.12
4044.699	-30.12
4047.172	-30.12
4049.643	-27.12
4052.112	-27.12
4054.58	-21.12
4057.046	-22.12
4059.51	-31.12
4061.972	-28.12
4064.432	-27.12
4066.891	-27.12
4069.348	-26.12
4071.803	-27.12
4074.256	-25.12
4076.708	-24.12
4079.158	-26.12
4081.606	-25.12
4084.052	-24.12
4086.497	-23.12
4088.939	-23.12
4091.38	-24.12
4093.819	-26.12
4096.257	-25.12
4098.693	-29.12
4101.127	-27.12
4103.559	-29.12
4105.989	-12.12
4108.418	-12.12
4110.845	-11.12
4113.27	-12.12
4115.694	-9.12
4118.115	-9.12
4120.535	-24.12
4122.954	-26.12
4125.37	-23.12
4127.785	-23.12
4130.198	-23.12
4132.609	-28.12
4135.019	-28.12
4137.427	-30.12
4139.833	-25.12
4142.237	-25.12
