Data from 100CFU3_D_RamanShift_1.txt Node
Date: Thu Feb 02 12:04:38 IST 2017
User: aro
Spectrometer: QEPB0276
Trigger mode: 0
Integration Time (sec): 5.000000E0
Scans to average: 1
Electric dark correction enabled: true
Nonlinearity correction enabled: false
Boxcar width: 0
XAxis mode: Raman Shifts
Number of Pixels in Spectrum: 1044
>>>>>Begin Spectral Data<<<<<
160.701	-1.88
166.742	2.12
172.777	25.12
178.805	85.12
184.826	215.12
190.841	422.12
196.849	655.12
202.85	814.12
208.845	863.12
214.833	847.12
220.815	828.12
226.789	820.12
232.758	794.12
238.719	791.12
244.674	792.12
250.623	776.12
256.565	747.12
262.5	723.12
268.429	714.12
274.351	688.12
280.267	683.12
286.176	683.12
292.079	670.12
297.975	669.12
303.865	665.12
309.748	641.12
315.625	655.12
321.495	647.12
327.359	647.12
333.217	649.12
339.068	650.12
344.912	665.12
350.751	667.12
356.583	672.12
362.408	670.12
368.227	663.12
374.04	661.12
379.847	660.12
385.647	658.12
391.44	663.12
397.228	663.12
403.009	657.12
408.784	671.12
414.553	667.12
420.315	669.12
426.071	683.12
431.821	680.12
437.565	683.12
443.302	689.12
449.033	679.12
454.758	675.12
460.477	653.12
466.189	656.12
471.896	647.12
477.596	643.12
483.29	635.12
488.978	626.12
494.66	624.12
500.335	618.12
506.005	583.12
511.668	569.12
517.325	544.12
522.977	520.12
528.622	510.12
534.261	493.12
539.894	499.12
545.521	489.12
551.141	470.12
556.756	463.12
562.365	463.12
567.968	467.12
573.565	452.12
579.155	448.12
584.74	449.12
590.319	450.12
595.892	441.12
601.459	441.12
607.02	448.12
612.575	453.12
618.124	439.12
623.667	422.12
629.204	418.12
634.735	412.12
640.261	417.12
645.781	419.12
651.294	415.12
656.802	410.12
662.304	402.12
667.8	398.12
673.29	399.12
678.775	393.12
684.254	395.12
689.726	392.12
695.193	389.12
700.655	391.12
706.11	381.12
711.56	385.12
717.004	379.12
722.442	384.12
727.874	379.12
733.301	366.12
738.722	374.12
744.137	367.12
749.547	372.12
754.951	371.12
760.349	375.12
765.741	369.12
771.128	377.12
776.509	376.12
781.885	380.12
787.254	379.12
792.618	384.12
797.977	380.12
803.33	375.12
808.677	370.12
814.019	369.12
819.355	366.12
824.686	373.12
830.011	378.12
835.33	375.12
840.644	382.12
845.952	379.12
851.255	390.12
856.552	383.12
861.844	395.12
867.13	386.12
872.41	385.12
877.686	397.12
882.955	399.12
888.219	390.12
893.478	386.12
898.731	366.12
903.979	369.12
909.221	352.12
914.458	342.12
919.69	343.12
924.916	352.12
930.136	336.12
935.351	342.12
940.561	333.12
945.766	336.12
950.965	338.12
956.158	345.12
961.347	333.12
966.529	325.12
971.707	317.12
976.879	311.12
982.046	306.12
987.208	309.12
992.364	315.12
997.515	317.12
1002.66	329.12
1007.801	320.12
1012.936	325.12
1018.066	332.12
1023.19	328.12
1028.309	340.12
1033.423	344.12
1038.532	341.12
1043.636	346.12
1048.734	332.12
1053.827	339.12
1058.915	350.12
1063.998	354.12
1069.075	369.12
1074.147	366.12
1079.214	371.12
1084.276	371.12
1089.333	386.12
1094.385	377.12
1099.431	374.12
1104.472	362.12
1109.509	357.12
1114.54	341.12
1119.565	340.12
1124.586	347.12
1129.602	346.12
1134.613	339.12
1139.618	322.12
1144.619	307.12
1149.614	298.12
1154.604	291.12
1159.589	285.12
1164.57	282.12
1169.545	285.12
1174.515	271.12
1179.48	272.12
1184.44	272.12
1189.395	265.12
1194.345	259.12
1199.29	257.12
1204.23	253.12
1209.165	269.12
1214.095	267.12
1219.021	267.12
1223.941	262.12
1228.856	280.12
1233.766	281.12
1238.672	278.12
1243.572	289.12
1248.467	290.12
1253.358	293.12
1258.244	301.12
1263.124	295.12
1268	300.12
1272.871	294.12
1277.737	296.12
1282.599	276.12
1287.455	280.12
1292.306	288.12
1297.153	307.12
1301.995	328.12
1306.832	327.12
1311.664	318.12
1316.491	303.12
1321.314	296.12
1326.132	287.12
1330.945	277.12
1335.753	261.12
1340.556	255.12
1345.354	257.12
1350.148	249.12
1354.937	254.12
1359.722	237.12
1364.501	240.12
1369.276	240.12
1374.046	238.12
1378.811	251.12
1383.572	246.12
1388.327	236.12
1393.079	224.12
1397.825	223.12
1402.567	224.12
1407.304	217.12
1412.036	221.12
1416.764	221.12
1421.487	231.12
1426.205	239.12
1430.919	242.12
1435.628	256.12
1440.333	286.12
1445.032	315.12
1449.727	329.12
1454.418	319.12
1459.104	311.12
1463.785	298.12
1468.462	283.12
1473.134	252.12
1477.802	235.12
1482.465	218.12
1487.123	201.12
1491.777	183.12
1496.426	180.12
1501.071	172.12
1505.711	177.12
1510.347	179.12
1514.978	171.12
1519.604	181.12
1524.226	177.12
1528.844	174.12
1533.457	170.12
1538.065	169.12
1542.669	168.12
1547.269	174.12
1551.864	180.12
1556.454	169.12
1561.041	175.12
1565.622	173.12
1570.199	168.12
1574.772	165.12
1579.34	174.12
1583.904	170.12
1588.464	177.12
1593.019	178.12
1597.569	183.12
1602.115	173.12
1606.657	177.12
1611.195	177.12
1615.728	177.12
1620.256	181.12
1624.78	187.12
1629.3	184.12
1633.816	182.12
1638.327	186.12
1642.834	192.12
1647.336	196.12
1651.834	214.12
1656.328	210.12
1660.817	212.12
1665.302	207.12
1669.783	205.12
1674.259	201.12
1678.732	189.12
1683.199	180.12
1687.663	167.12
1692.122	157.12
1696.577	161.12
1701.028	148.12
1705.474	144.12
1709.917	132.12
1714.355	133.12
1718.788	133.12
1723.218	127.12
1727.643	125.12
1732.064	115.12
1736.481	119.12
1740.893	118.12
1745.301	117.12
1749.705	113.12
1754.105	110.12
1758.501	103.12
1762.893	99.12
1767.28	97.12
1771.663	98.12
1776.042	93.12
1780.417	90.12
1784.787	89.12
1789.154	88.12
1793.516	93.12
1797.874	91.12
1802.228	95.12
1806.578	86.12
1810.924	91.12
1815.266	87.12
1819.603	88.12
1823.937	86.12
1828.266	88.12
1832.591	82.12
1836.913	82.12
1841.23	79.12
1845.543	78.12
1849.852	76.12
1854.156	73.12
1858.457	80.12
1862.754	79.12
1867.047	74.12
1871.335	75.12
1875.62	72.12
1879.9	74.12
1884.177	76.12
1888.449	74.12
1892.718	71.12
1896.982	76.12
1901.243	69.12
1905.499	74.12
1909.752	70.12
1914	75.12
1918.245	74.12
1922.485	69.12
1926.722	75.12
1930.954	73.12
1935.183	70.12
1939.408	73.12
1943.628	75.12
1947.845	78.12
1952.058	72.12
1956.267	71.12
1960.472	76.12
1964.673	71.12
1968.87	68.12
1973.063	69.12
1977.252	66.12
1981.438	65.12
1985.619	69.12
1989.797	60.12
1993.971	66.12
1998.14	59.12
2002.306	60.12
2006.469	62.12
2010.627	60.12
2014.781	63.12
2018.932	66.12
2023.078	66.12
2027.221	58.12
2031.36	58.12
2035.495	58.12
2039.627	60.12
2043.754	60.12
2047.878	61.12
2051.998	57.12
2056.114	59.12
2060.226	58.12
2064.334	61.12
2068.439	57.12
2072.54	58.12
2076.637	65.12
2080.73	63.12
2084.82	63.12
2088.906	64.12
2092.988	59.12
2097.066	58.12
2101.14	65.12
2105.211	57.12
2109.278	51.12
2113.342	55.12
2117.401	57.12
2121.457	57.12
2125.509	53.12
2129.558	59.12
2133.602	55.12
2137.643	61.12
2141.681	56.12
2145.714	54.12
2149.744	50.12
2153.77	57.12
2157.793	52.12
2161.812	54.12
2165.827	44.12
2169.838	48.12
2173.846	44.12
2177.851	44.12
2181.851	46.12
2185.848	46.12
2189.841	47.12
2193.831	44.12
2197.817	41.12
2201.799	41.12
2205.778	44.12
2209.753	39.12
2213.725	42.12
2217.693	43.12
2221.657	36.12
2225.618	37.12
2229.575	40.12
2233.529	33.12
2237.479	39.12
2241.425	35.12
2245.368	37.12
2249.307	39.12
2253.243	34.12
2257.175	34.12
2261.104	35.12
2265.029	38.12
2268.95	33.12
2272.868	33.12
2276.783	31.12
2280.694	31.12
2284.601	27.12
2288.505	29.12
2292.405	26.12
2296.302	25.12
2300.195	24.12
2304.085	27.12
2307.971	25.12
2311.854	24.12
2315.734	24.12
2319.609	19.12
2323.482	23.12
2327.351	28.12
2331.216	27.12
2335.078	31.12
2338.937	26.12
2342.792	21.12
2346.643	20.12
2350.492	19.12
2354.336	18.12
2358.178	16.12
2362.015	20.12
2365.85	20.12
2369.681	19.12
2373.508	18.12
2377.333	17.12
2381.153	18.12
2384.971	17.12
2388.785	19.12
2392.595	18.12
2396.402	13.12
2400.206	17.12
2404.007	14.12
2407.804	14.12
2411.597	16.12
2415.388	16.12
2419.174	19.12
2422.958	13.12
2426.738	13.12
2430.515	14.12
2434.289	16.12
2438.059	16.12
2441.825	14.12
2445.589	11.12
2449.349	13.12
2453.106	14.12
2456.859	8.12
2460.61	12.12
2464.356	12.12
2468.1	11.12
2471.84	10.12
2475.577	9.12
2479.311	11.12
2483.041	11.12
2486.768	9.12
2490.492	6.12
2494.213	7.12
2497.93	8.12
2501.644	12.12
2505.355	10.12
2509.062	10.12
2512.766	8.12
2516.467	11.12
2520.165	5.12
2523.859	11.12
2527.551	9.12
2531.239	11.12
2534.923	6.12
2538.605	12.12
2542.283	5.12
2545.958	10.12
2549.63	7.12
2553.299	9.12
2556.964	5.12
2560.626	12.12
2564.285	2.12
2567.941	8.12
2571.594	7.12
2575.243	6.12
2578.89	10.12
2582.533	7.12
2586.173	8.12
2589.809	8.12
2593.443	12.12
2597.073	7.12
2600.701	8.12
2604.325	5.12
2607.946	4.12
2611.564	7.12
2615.178	13.12
2618.79	6.12
2622.398	10.12
2626.004	11.12
2629.606	7.12
2633.205	8.12
2636.801	4.12
2640.394	6.12
2643.983	9.12
2647.57	6.12
2651.153	4.12
2654.734	6.12
2658.311	6.12
2661.885	7.12
2665.456	2.12
2669.025	5.12
2672.589	5.12
2676.151	6.12
2679.71	3.12
2683.266	7.12
2686.819	4.12
2690.368	5.12
2693.915	3.12
2697.458	8.12
2700.999	3.12
2704.536	9.12
2708.071	5.12
2711.602	4.12
2715.13	7.12
2718.656	6.12
2722.178	2.12
2725.697	3.12
2729.214	10.12
2732.727	11.12
2736.237	12.12
2739.744	13.12
2743.249	7.12
2746.75	3.12
2750.248	4.12
2753.743	9.12
2757.236	10.12
2760.725	6.12
2764.211	14.12
2767.695	8.12
2771.175	8.12
2774.652	7.12
2778.127	4.12
2781.598	6.12
2785.067	8.12
2788.532	8.12
2791.995	10.12
2795.455	9.12
2798.911	8.12
2802.365	6.12
2805.816	7.12
2809.264	10.12
2812.709	14.12
2816.151	16.12
2819.59	19.12
2823.026	19.12
2826.46	24.12
2829.89	22.12
2833.318	26.12
2836.742	35.12
2840.164	41.12
2843.583	48.12
2846.999	66.12
2850.412	82.12
2853.822	89.12
2857.229	94.12
2860.634	95.12
2864.035	96.12
2867.434	99.12
2870.83	102.12
2874.223	99.12
2877.613	108.12
2881	109.12
2884.385	124.12
2887.766	128.12
2891.145	124.12
2894.521	121.12
2897.894	118.12
2901.264	115.12
2904.631	113.12
2907.996	113.12
2911.358	112.12
2914.717	114.12
2918.073	115.12
2921.426	108.12
2924.777	111.12
2928.124	106.12
2931.469	102.12
2934.811	104.12
2938.15	107.12
2941.487	105.12
2944.821	101.12
2948.152	88.12
2951.48	83.12
2954.805	78.12
2958.128	74.12
2961.447	70.12
2964.765	71.12
2968.079	64.12
2971.39	63.12
2974.699	57.12
2978.005	54.12
2981.308	54.12
2984.609	50.12
2987.907	53.12
2991.202	47.12
2994.494	45.12
2997.784	52.12
3001.07	44.12
3004.355	46.12
3007.636	42.12
3010.915	43.12
3014.191	39.12
3017.464	38.12
3020.734	35.12
3024.002	38.12
3027.267	33.12
3030.53	37.12
3033.789	36.12
3037.046	34.12
3040.301	36.12
3043.552	35.12
3046.801	37.12
3050.048	39.12
3053.291	39.12
3056.532	41.12
3059.771	37.12
3063.006	48.12
3066.239	46.12
3069.469	48.12
3072.697	47.12
3075.922	55.12
3079.144	51.12
3082.364	51.12
3085.581	49.12
3088.795	54.12
3092.007	58.12
3095.216	65.12
3098.423	59.12
3101.627	64.12
3104.828	65.12
3108.026	65.12
3111.222	64.12
3114.416	70.12
3117.607	68.12
3120.795	73.12
3123.98	71.12
3127.163	83.12
3130.344	68.12
3133.521	78.12
3136.696	82.12
3139.869	80.12
3143.039	91.12
3146.206	90.12
3149.371	86.12
3152.533	90.12
3155.693	87.12
3158.85	87.12
3162.005	93.12
3165.157	95.12
3168.306	93.12
3171.453	94.12
3174.597	89.12
3177.739	90.12
3180.878	91.12
3184.014	93.12
3187.149	87.12
3190.28	94.12
3193.409	93.12
3196.536	96.12
3199.659	91.12
3202.781	91.12
3205.9	88.12
3209.016	93.12
3212.13	97.12
3215.241	90.12
3218.35	92.12
3221.456	93.12
3224.56	90.12
3227.661	90.12
3230.76	89.12
3233.856	84.12
3236.95	90.12
3240.041	83.12
3243.13	88.12
3246.216	80.12
3249.3	84.12
3252.382	82.12
3255.46	81.12
3258.537	90.12
3261.611	83.12
3264.682	79.12
3267.751	78.12
3270.818	86.12
3273.882	71.12
3276.943	75.12
3280.002	77.12
3283.059	76.12
3286.113	81.12
3289.165	78.12
3292.214	67.12
3295.261	70.12
3298.306	73.12
3301.348	74.12
3304.387	72.12
3307.425	73.12
3310.459	70.12
3313.492	68.12
3316.521	59.12
3319.549	63.12
3322.574	59.12
3325.597	63.12
3328.617	62.12
3331.635	61.12
3334.65	59.12
3337.663	59.12
3340.674	60.12
3343.682	61.12
3346.688	59.12
3349.691	63.12
3352.692	59.12
3355.691	61.12
3358.687	54.12
3361.681	55.12
3364.673	56.12
3367.662	58.12
3370.649	58.12
3373.633	61.12
3376.615	54.12
3379.595	50.12
3382.572	51.12
3385.547	49.12
3388.52	46.12
3391.49	49.12
3394.458	47.12
3397.424	50.12
3400.387	45.12
3403.348	45.12
3406.307	43.12
3409.263	41.12
3412.217	45.12
3415.168	44.12
3418.118	48.12
3421.065	41.12
3424.009	38.12
3426.951	39.12
3429.891	39.12
3432.829	40.12
3435.764	39.12
3438.697	37.12
3441.628	31.12
3444.557	37.12
3447.483	30.12
3450.407	29.12
3453.328	25.12
3456.247	28.12
3459.164	27.12
3462.079	23.12
3464.991	21.12
3467.902	22.12
3470.809	23.12
3473.715	20.12
3476.618	22.12
3479.519	17.12
3482.418	17.12
3485.315	16.12
3488.209	12.12
3491.101	9.12
3493.99	13.12
3496.878	12.12
3499.763	12.12
3502.646	10.12
3505.527	10.12
3508.405	5.12
3511.281	8.12
3514.155	7.12
3517.027	6.12
3519.897	6.12
3522.764	6.12
3525.629	6.12
3528.492	0.12
3531.352	3.12
3534.211	-2.88
3537.067	-3.88
3539.921	-2.88
3542.773	-3.88
3545.622	-1.88
3548.469	-3.88
3551.315	-6.88
3554.157	-10.88
3556.998	-9.88
3559.837	-7.88
3562.673	-4.88
3565.507	-9.88
3568.339	-5.88
3571.169	-10.88
3573.996	-8.88
3576.822	-12.88
3579.645	-15.88
3582.466	-8.88
3585.285	-8.88
3588.101	-9.88
3590.916	-15.88
3593.728	-14.88
3596.538	-17.88
3599.346	-18.88
3602.152	-17.88
3604.956	-12.88
3607.757	-14.88
3610.556	-13.88
3613.354	-19.88
3616.149	-18.88
3618.942	-16.88
3621.732	-21.88
3624.521	-17.88
3627.307	-16.88
3630.092	-18.88
3632.874	-18.88
3635.654	-17.88
3638.432	-20.88
3641.208	-18.88
3643.982	-21.88
3646.753	-16.88
3649.523	-15.88
3652.29	-16.88
3655.055	-19.88
3657.818	-29.88
3660.579	-21.88
3663.338	-25.88
3666.095	-17.88
3668.849	-18.88
3671.602	-17.88
3674.352	-22.88
3677.101	-21.88
3679.847	-25.88
3682.591	-21.88
3685.333	-21.88
3688.073	-21.88
3690.811	-21.88
3693.547	-26.88
3696.281	-25.88
3699.013	-26.88
3701.742	-25.88
3704.47	-23.88
3707.195	-23.88
3709.919	-22.88
3712.64	-28.88
3715.359	-22.88
3718.076	-23.88
3720.792	-26.88
3723.505	-23.88
3726.216	-22.88
3728.925	-25.88
3731.632	-27.88
3734.336	-25.88
3737.039	-22.88
3739.74	-28.88
3742.439	-23.88
3745.136	-25.88
3747.83	-22.88
3750.523	-22.88
3753.213	-28.88
3755.902	-26.88
3758.589	-29.88
3761.273	-26.88
3763.956	-25.88
3766.636	-24.88
3769.315	-22.88
3771.991	-25.88
3774.665	-31.88
3777.338	-22.88
3780.008	-24.88
3782.677	-25.88
3785.343	-26.88
3788.007	-25.88
3790.67	-22.88
3793.33	-26.88
3795.989	-27.88
3798.645	-28.88
3801.299	-26.88
3803.952	-30.88
3806.602	-23.88
3809.251	-26.88
3811.897	-23.88
3814.542	-27.88
3817.184	-28.88
3819.825	-24.88
3822.463	-23.88
3825.1	-25.88
3827.735	-23.88
3830.367	-23.88
3832.998	-25.88
3835.627	-25.88
3838.253	-25.88
3840.878	-28.88
3843.501	-26.88
3846.122	-25.88
3848.741	-21.88
3851.358	-27.88
3853.973	-25.88
3856.586	-27.88
3859.197	-30.88
3861.806	-26.88
3864.414	-30.88
3867.019	-21.88
3869.622	-24.88
3872.224	-26.88
3874.823	-27.88
3877.421	-24.88
3880.016	-27.88
3882.61	-21.88
3885.202	-14.88
3887.792	-15.88
3890.38	-21.88
3892.966	-26.88
3895.55	-25.88
3898.132	-27.88
3900.713	-24.88
3903.291	-23.88
3905.868	-24.88
3908.442	-23.88
3911.015	-23.88
3913.586	-29.88
3916.155	-30.88
3918.722	-30.88
3921.287	-25.88
3923.85	-27.88
3926.411	-24.88
3928.971	-23.88
3931.528	-27.88
3934.084	-27.88
3936.638	-26.88
3939.19	-30.88
3941.74	-27.88
3944.288	-25.88
3946.834	-24.88
3949.378	-26.88
3951.921	-24.88
3954.462	-25.88
3957	-25.88
3959.537	-26.88
3962.072	-25.88
3964.606	-26.88
3967.137	-25.88
3969.667	-25.88
3972.194	-25.88
3974.72	-27.88
3977.244	-26.88
3979.766	-26.88
3982.286	-20.88
3984.805	-24.88
3987.321	-26.88
3989.836	-30.88
3992.349	-24.88
3994.86	-26.88
3997.369	-26.88
3999.877	-26.88
4002.382	-26.88
4004.886	-27.88
4007.388	-25.88
4009.888	-24.88
4012.386	-25.88
4014.883	-26.88
4017.377	-24.88
4019.87	-28.88
4022.361	-24.88
4024.85	-26.88
4027.338	-28.88
4029.823	-27.88
4032.307	-22.88
4034.789	-24.88
4037.269	-24.88
4039.747	-26.88
4042.224	-26.88
4044.699	-28.88
4047.172	-27.88
4049.643	-26.88
4052.112	-23.88
4054.58	-24.88
4057.046	-24.88
4059.51	-28.88
4061.972	-28.88
4064.432	-21.88
4066.891	-21.88
4069.348	-24.88
4071.803	-26.88
4074.256	-26.88
4076.708	-24.88
4079.158	-27.88
4081.606	-29.88
4084.052	-22.88
4086.497	-22.88
4088.939	-22.88
4091.38	-26.88
4093.819	-27.88
4096.257	-27.88
4098.693	-27.88
4101.127	-27.88
4103.559	-28.88
4105.989	-10.88
4108.418	-13.88
4110.845	-9.88
4113.27	-11.88
4115.694	-7.88
4118.115	-10.88
4120.535	-25.88
4122.954	-28.88
4125.37	-25.88
4127.785	-23.88
4130.198	-22.88
4132.609	-25.88
4135.019	-28.88
4137.427	-31.88
4139.833	-24.88
4142.237	-24.88
