Data from 100CFU3_A_RamanShift_1.txt Node
Date: Thu Feb 02 13:46:50 IST 2017
User: aro
Spectrometer: QEPB0276
Trigger mode: 0
Integration Time (sec): 5.000000E0
Scans to average: 1
Electric dark correction enabled: true
Nonlinearity correction enabled: false
Boxcar width: 0
XAxis mode: Raman Shifts
Number of Pixels in Spectrum: 1044
>>>>>Begin Spectral Data<<<<<
160.701	-7.12
166.742	1.88
172.777	25.88
178.805	83.88
184.826	220.88
190.841	440.88
196.849	678.88
202.85	836.88
208.845	879.88
214.833	860.88
220.815	856.88
226.789	857.88
232.758	832.88
238.719	838.88
244.674	812.88
250.623	786.88
256.565	782.88
262.5	761.88
268.429	746.88
274.351	739.88
280.267	706.88
286.176	709.88
292.079	705.88
297.975	690.88
303.865	682.88
309.748	682.88
315.625	683.88
321.495	683.88
327.359	671.88
333.217	670.88
339.068	676.88
344.912	677.88
350.751	697.88
356.583	695.88
362.408	694.88
368.227	693.88
374.04	680.88
379.847	675.88
385.647	689.88
391.44	687.88
397.228	685.88
403.009	692.88
408.784	704.88
414.553	707.88
420.315	707.88
426.071	715.88
431.821	703.88
437.565	716.88
443.302	713.88
449.033	695.88
454.758	697.88
460.477	704.88
466.189	689.88
471.896	668.88
477.596	679.88
483.29	660.88
488.978	658.88
494.66	653.88
500.335	635.88
506.005	608.88
511.668	593.88
517.325	571.88
522.977	553.88
528.622	529.88
534.261	523.88
539.894	508.88
545.521	505.88
551.141	500.88
556.756	494.88
562.365	486.88
567.968	476.88
573.565	475.88
579.155	468.88
584.74	469.88
590.319	478.88
595.892	476.88
601.459	473.88
607.02	472.88
612.575	462.88
618.124	453.88
623.667	445.88
629.204	448.88
634.735	434.88
640.261	433.88
645.781	442.88
651.294	435.88
656.802	419.88
662.304	424.88
667.8	421.88
673.29	421.88
678.775	414.88
684.254	410.88
689.726	404.88
695.193	409.88
700.655	405.88
706.11	400.88
711.56	399.88
717.004	393.88
722.442	398.88
727.874	403.88
733.301	389.88
738.722	394.88
744.137	386.88
749.547	390.88
754.951	388.88
760.349	394.88
765.741	399.88
771.128	392.88
776.509	394.88
781.885	399.88
787.254	400.88
792.618	408.88
797.977	397.88
803.33	396.88
808.677	388.88
814.019	393.88
819.355	389.88
824.686	391.88
830.011	394.88
835.33	396.88
840.644	397.88
845.952	389.88
851.255	400.88
856.552	406.88
861.844	410.88
867.13	410.88
872.41	417.88
877.686	413.88
882.955	408.88
888.219	411.88
893.478	404.88
898.731	382.88
903.979	382.88
909.221	364.88
914.458	360.88
919.69	367.88
924.916	363.88
930.136	354.88
935.351	358.88
940.561	353.88
945.766	358.88
950.965	362.88
956.158	353.88
961.347	341.88
966.529	331.88
971.707	332.88
976.879	330.88
982.046	322.88
987.208	328.88
992.364	332.88
997.515	330.88
1002.66	335.88
1007.801	337.88
1012.936	346.88
1018.066	352.88
1023.19	353.88
1028.309	361.88
1033.423	360.88
1038.532	358.88
1043.636	363.88
1048.734	350.88
1053.827	353.88
1058.915	373.88
1063.998	378.88
1069.075	374.88
1074.147	393.88
1079.214	394.88
1084.276	399.88
1089.333	410.88
1094.385	389.88
1099.431	380.88
1104.472	374.88
1109.509	363.88
1114.54	359.88
1119.565	356.88
1124.586	357.88
1129.602	368.88
1134.613	351.88
1139.618	331.88
1144.619	329.88
1149.614	310.88
1154.604	309.88
1159.589	307.88
1164.57	305.88
1169.545	296.88
1174.515	294.88
1179.48	287.88
1184.44	291.88
1189.395	276.88
1194.345	270.88
1199.29	273.88
1204.23	279.88
1209.165	272.88
1214.095	280.88
1219.021	283.88
1223.941	275.88
1228.856	287.88
1233.766	291.88
1238.672	304.88
1243.572	309.88
1248.467	307.88
1253.358	300.88
1258.244	315.88
1263.124	305.88
1268	315.88
1272.871	302.88
1277.737	305.88
1282.599	289.88
1287.455	287.88
1292.306	301.88
1297.153	319.88
1301.995	326.88
1306.832	332.88
1311.664	330.88
1316.491	315.88
1321.314	314.88
1326.132	294.88
1330.945	286.88
1335.753	272.88
1340.556	263.88
1345.354	265.88
1350.148	268.88
1354.937	255.88
1359.722	251.88
1364.501	251.88
1369.276	251.88
1374.046	253.88
1378.811	255.88
1383.572	244.88
1388.327	248.88
1393.079	244.88
1397.825	237.88
1402.567	235.88
1407.304	226.88
1412.036	236.88
1416.764	233.88
1421.487	238.88
1426.205	247.88
1430.919	263.88
1435.628	281.88
1440.333	306.88
1445.032	334.88
1449.727	345.88
1454.418	334.88
1459.104	317.88
1463.785	308.88
1468.462	294.88
1473.134	271.88
1477.802	252.88
1482.465	219.88
1487.123	214.88
1491.777	189.88
1496.426	186.88
1501.071	184.88
1505.711	181.88
1510.347	177.88
1514.978	188.88
1519.604	182.88
1524.226	187.88
1528.844	183.88
1533.457	184.88
1538.065	179.88
1542.669	176.88
1547.269	185.88
1551.864	181.88
1556.454	179.88
1561.041	178.88
1565.622	171.88
1570.199	172.88
1574.772	181.88
1579.34	173.88
1583.904	173.88
1588.464	181.88
1593.019	185.88
1597.569	178.88
1602.115	184.88
1606.657	188.88
1611.195	190.88
1615.728	181.88
1620.256	196.88
1624.78	188.88
1629.3	187.88
1633.816	197.88
1638.327	196.88
1642.834	204.88
1647.336	207.88
1651.834	220.88
1656.328	224.88
1660.817	218.88
1665.302	216.88
1669.783	214.88
1674.259	202.88
1678.732	187.88
1683.199	189.88
1687.663	177.88
1692.122	160.88
1696.577	159.88
1701.028	154.88
1705.474	152.88
1709.917	136.88
1714.355	145.88
1718.788	138.88
1723.218	133.88
1727.643	133.88
1732.064	126.88
1736.481	132.88
1740.893	125.88
1745.301	129.88
1749.705	122.88
1754.105	119.88
1758.501	107.88
1762.893	103.88
1767.28	101.88
1771.663	99.88
1776.042	96.88
1780.417	92.88
1784.787	94.88
1789.154	92.88
1793.516	96.88
1797.874	101.88
1802.228	104.88
1806.578	100.88
1810.924	93.88
1815.266	102.88
1819.603	89.88
1823.937	91.88
1828.266	89.88
1832.591	94.88
1836.913	86.88
1841.23	81.88
1845.543	81.88
1849.852	75.88
1854.156	80.88
1858.457	78.88
1862.754	77.88
1867.047	82.88
1871.335	81.88
1875.62	80.88
1879.9	75.88
1884.177	79.88
1888.449	77.88
1892.718	75.88
1896.982	80.88
1901.243	80.88
1905.499	81.88
1909.752	77.88
1914	79.88
1918.245	71.88
1922.485	71.88
1926.722	80.88
1930.954	74.88
1935.183	72.88
1939.408	81.88
1943.628	79.88
1947.845	75.88
1952.058	79.88
1956.267	78.88
1960.472	79.88
1964.673	75.88
1968.87	70.88
1973.063	70.88
1977.252	69.88
1981.438	74.88
1985.619	70.88
1989.797	66.88
1993.971	70.88
1998.14	65.88
2002.306	66.88
2006.469	63.88
2010.627	61.88
2014.781	69.88
2018.932	73.88
2023.078	67.88
2027.221	62.88
2031.36	64.88
2035.495	58.88
2039.627	66.88
2043.754	63.88
2047.878	63.88
2051.998	63.88
2056.114	64.88
2060.226	62.88
2064.334	59.88
2068.439	64.88
2072.54	59.88
2076.637	63.88
2080.73	61.88
2084.82	68.88
2088.906	72.88
2092.988	68.88
2097.066	61.88
2101.14	62.88
2105.211	58.88
2109.278	60.88
2113.342	63.88
2117.401	64.88
2121.457	64.88
2125.509	58.88
2129.558	64.88
2133.602	55.88
2137.643	61.88
2141.681	55.88
2145.714	57.88
2149.744	59.88
2153.77	54.88
2157.793	54.88
2161.812	57.88
2165.827	50.88
2169.838	51.88
2173.846	45.88
2177.851	47.88
2181.851	49.88
2185.848	47.88
2189.841	45.88
2193.831	50.88
2197.817	42.88
2201.799	46.88
2205.778	45.88
2209.753	42.88
2213.725	44.88
2217.693	46.88
2221.657	40.88
2225.618	40.88
2229.575	40.88
2233.529	43.88
2237.479	38.88
2241.425	37.88
2245.368	41.88
2249.307	40.88
2253.243	38.88
2257.175	38.88
2261.104	37.88
2265.029	38.88
2268.95	36.88
2272.868	32.88
2276.783	33.88
2280.694	30.88
2284.601	29.88
2288.505	29.88
2292.405	31.88
2296.302	33.88
2300.195	31.88
2304.085	27.88
2307.971	26.88
2311.854	27.88
2315.734	23.88
2319.609	26.88
2323.482	28.88
2327.351	29.88
2331.216	33.88
2335.078	32.88
2338.937	26.88
2342.792	22.88
2346.643	20.88
2350.492	20.88
2354.336	20.88
2358.178	18.88
2362.015	20.88
2365.85	18.88
2369.681	18.88
2373.508	15.88
2377.333	20.88
2381.153	20.88
2384.971	21.88
2388.785	17.88
2392.595	19.88
2396.402	16.88
2400.206	21.88
2404.007	15.88
2407.804	20.88
2411.597	16.88
2415.388	14.88
2419.174	19.88
2422.958	17.88
2426.738	11.88
2430.515	13.88
2434.289	12.88
2438.059	13.88
2441.825	12.88
2445.589	17.88
2449.349	15.88
2453.106	12.88
2456.859	12.88
2460.61	15.88
2464.356	16.88
2468.1	11.88
2471.84	15.88
2475.577	16.88
2479.311	6.88
2483.041	12.88
2486.768	10.88
2490.492	11.88
2494.213	12.88
2497.93	9.88
2501.644	8.88
2505.355	8.88
2509.062	8.88
2512.766	9.88
2516.467	14.88
2520.165	10.88
2523.859	6.88
2527.551	7.88
2531.239	9.88
2534.923	6.88
2538.605	10.88
2542.283	8.88
2545.958	10.88
2549.63	11.88
2553.299	11.88
2556.964	10.88
2560.626	8.88
2564.285	7.88
2567.941	8.88
2571.594	15.88
2575.243	11.88
2578.89	11.88
2582.533	7.88
2586.173	7.88
2589.809	5.88
2593.443	11.88
2597.073	10.88
2600.701	10.88
2604.325	10.88
2607.946	10.88
2611.564	7.88
2615.178	10.88
2618.79	7.88
2622.398	8.88
2626.004	6.88
2629.606	10.88
2633.205	9.88
2636.801	7.88
2640.394	11.88
2643.983	6.88
2647.57	6.88
2651.153	4.88
2654.734	6.88
2658.311	10.88
2661.885	7.88
2665.456	6.88
2669.025	5.88
2672.589	4.88
2676.151	5.88
2679.71	7.88
2683.266	6.88
2686.819	11.88
2690.368	3.88
2693.915	7.88
2697.458	8.88
2700.999	0.88
2704.536	5.88
2708.071	5.88
2711.602	9.88
2715.13	6.88
2718.656	6.88
2722.178	9.88
2725.697	7.88
2729.214	7.88
2732.727	9.88
2736.237	8.88
2739.744	16.88
2743.249	11.88
2746.75	10.88
2750.248	11.88
2753.743	9.88
2757.236	7.88
2760.725	8.88
2764.211	10.88
2767.695	4.88
2771.175	12.88
2774.652	8.88
2778.127	7.88
2781.598	7.88
2785.067	11.88
2788.532	8.88
2791.995	8.88
2795.455	9.88
2798.911	9.88
2802.365	9.88
2805.816	11.88
2809.264	12.88
2812.709	15.88
2816.151	14.88
2819.59	19.88
2823.026	18.88
2826.46	23.88
2829.89	28.88
2833.318	27.88
2836.742	35.88
2840.164	43.88
2843.583	51.88
2846.999	64.88
2850.412	76.88
2853.822	92.88
2857.229	95.88
2860.634	101.88
2864.035	95.88
2867.434	105.88
2870.83	101.88
2874.223	106.88
2877.613	108.88
2881	116.88
2884.385	129.88
2887.766	133.88
2891.145	128.88
2894.521	126.88
2897.894	122.88
2901.264	121.88
2904.631	114.88
2907.996	115.88
2911.358	120.88
2914.717	118.88
2918.073	120.88
2921.426	107.88
2924.777	110.88
2928.124	103.88
2931.469	105.88
2934.811	104.88
2938.15	110.88
2941.487	105.88
2944.821	101.88
2948.152	90.88
2951.48	86.88
2954.805	82.88
2958.128	76.88
2961.447	73.88
2964.765	68.88
2968.079	71.88
2971.39	68.88
2974.699	60.88
2978.005	56.88
2981.308	54.88
2984.609	50.88
2987.907	52.88
2991.202	53.88
2994.494	48.88
2997.784	48.88
3001.07	45.88
3004.355	47.88
3007.636	40.88
3010.915	43.88
3014.191	38.88
3017.464	36.88
3020.734	35.88
3024.002	37.88
3027.267	33.88
3030.53	39.88
3033.789	35.88
3037.046	34.88
3040.301	38.88
3043.552	35.88
3046.801	38.88
3050.048	38.88
3053.291	38.88
3056.532	43.88
3059.771	45.88
3063.006	45.88
3066.239	49.88
3069.469	48.88
3072.697	44.88
3075.922	54.88
3079.144	56.88
3082.364	53.88
3085.581	52.88
3088.795	57.88
3092.007	51.88
3095.216	63.88
3098.423	60.88
3101.627	58.88
3104.828	67.88
3108.026	66.88
3111.222	67.88
3114.416	70.88
3117.607	69.88
3120.795	71.88
3123.98	70.88
3127.163	76.88
3130.344	80.88
3133.521	79.88
3136.696	79.88
3139.869	85.88
3143.039	88.88
3146.206	91.88
3149.371	89.88
3152.533	86.88
3155.693	84.88
3158.85	90.88
3162.005	92.88
3165.157	97.88
3168.306	94.88
3171.453	94.88
3174.597	91.88
3177.739	88.88
3180.878	91.88
3184.014	87.88
3187.149	90.88
3190.28	97.88
3193.409	98.88
3196.536	97.88
3199.659	92.88
3202.781	91.88
3205.9	91.88
3209.016	94.88
3212.13	96.88
3215.241	93.88
3218.35	91.88
3221.456	94.88
3224.56	93.88
3227.661	87.88
3230.76	91.88
3233.856	88.88
3236.95	82.88
3240.041	81.88
3243.13	92.88
3246.216	87.88
3249.3	88.88
3252.382	82.88
3255.46	82.88
3258.537	78.88
3261.611	81.88
3264.682	81.88
3267.751	82.88
3270.818	81.88
3273.882	80.88
3276.943	85.88
3280.002	77.88
3283.059	80.88
3286.113	80.88
3289.165	77.88
3292.214	76.88
3295.261	72.88
3298.306	76.88
3301.348	70.88
3304.387	69.88
3307.425	72.88
3310.459	68.88
3313.492	66.88
3316.521	64.88
3319.549	67.88
3322.574	67.88
3325.597	64.88
3328.617	64.88
3331.635	59.88
3334.65	59.88
3337.663	60.88
3340.674	54.88
3343.682	62.88
3346.688	63.88
3349.691	62.88
3352.692	61.88
3355.691	55.88
3358.687	60.88
3361.681	52.88
3364.673	51.88
3367.662	59.88
3370.649	56.88
3373.633	54.88
3376.615	57.88
3379.595	48.88
3382.572	50.88
3385.547	51.88
3388.52	49.88
3391.49	47.88
3394.458	48.88
3397.424	48.88
3400.387	45.88
3403.348	48.88
3406.307	42.88
3409.263	43.88
3412.217	46.88
3415.168	43.88
3418.118	42.88
3421.065	36.88
3424.009	41.88
3426.951	42.88
3429.891	43.88
3432.829	39.88
3435.764	38.88
3438.697	37.88
3441.628	28.88
3444.557	27.88
3447.483	31.88
3450.407	38.88
3453.328	33.88
3456.247	29.88
3459.164	26.88
3462.079	24.88
3464.991	23.88
3467.902	17.88
3470.809	19.88
3473.715	21.88
3476.618	20.88
3479.519	19.88
3482.418	16.88
3485.315	15.88
3488.209	10.88
3491.101	9.88
3493.99	11.88
3496.878	10.88
3499.763	14.88
3502.646	12.88
3505.527	6.88
3508.405	9.88
3511.281	6.88
3514.155	5.88
3517.027	4.88
3519.897	6.88
3522.764	5.88
3525.629	2.88
3528.492	0.88
3531.352	1.88
3534.211	2.88
3537.067	-4.12
3539.921	-0.12
3542.773	-0.12
3545.622	-4.12
3548.469	-2.12
3551.315	-6.12
3554.157	-8.12
3556.998	-4.12
3559.837	-5.12
3562.673	-4.12
3565.507	-13.12
3568.339	-9.12
3571.169	-11.12
3573.996	-9.12
3576.822	-8.12
3579.645	-10.12
3582.466	-9.12
3585.285	-10.12
3588.101	-10.12
3590.916	-19.12
3593.728	-14.12
3596.538	-16.12
3599.346	-14.12
3602.152	-13.12
3604.956	-13.12
3607.757	-14.12
3610.556	-16.12
3613.354	-20.12
3616.149	-22.12
3618.942	-17.12
3621.732	-21.12
3624.521	-19.12
3627.307	-16.12
3630.092	-18.12
3632.874	-18.12
3635.654	-23.12
3638.432	-23.12
3641.208	-17.12
3643.982	-20.12
3646.753	-18.12
3649.523	-19.12
3652.29	-20.12
3655.055	-23.12
3657.818	-24.12
3660.579	-25.12
3663.338	-24.12
3666.095	-16.12
3668.849	-20.12
3671.602	-21.12
3674.352	-21.12
3677.101	-22.12
3679.847	-26.12
3682.591	-25.12
3685.333	-21.12
3688.073	-23.12
3690.811	-24.12
3693.547	-28.12
3696.281	-23.12
3699.013	-25.12
3701.742	-24.12
3704.47	-23.12
3707.195	-25.12
3709.919	-26.12
3712.64	-28.12
3715.359	-22.12
3718.076	-20.12
3720.792	-29.12
3723.505	-19.12
3726.216	-22.12
3728.925	-25.12
3731.632	-25.12
3734.336	-24.12
3737.039	-22.12
3739.74	-23.12
3742.439	-21.12
3745.136	-25.12
3747.83	-25.12
3750.523	-24.12
3753.213	-30.12
3755.902	-25.12
3758.589	-25.12
3761.273	-27.12
3763.956	-23.12
3766.636	-22.12
3769.315	-25.12
3771.991	-28.12
3774.665	-31.12
3777.338	-24.12
3780.008	-26.12
3782.677	-22.12
3785.343	-25.12
3788.007	-23.12
3790.67	-27.12
3793.33	-28.12
3795.989	-31.12
3798.645	-25.12
3801.299	-24.12
3803.952	-26.12
3806.602	-24.12
3809.251	-27.12
3811.897	-25.12
3814.542	-29.12
3817.184	-26.12
3819.825	-29.12
3822.463	-25.12
3825.1	-25.12
3827.735	-21.12
3830.367	-25.12
3832.998	-24.12
3835.627	-28.12
3838.253	-26.12
3840.878	-26.12
3843.501	-23.12
3846.122	-24.12
3848.741	-21.12
3851.358	-26.12
3853.973	-28.12
3856.586	-29.12
3859.197	-29.12
3861.806	-26.12
3864.414	-25.12
3867.019	-22.12
3869.622	-26.12
3872.224	-26.12
3874.823	-25.12
3877.421	-22.12
3880.016	-25.12
3882.61	-20.12
3885.202	-14.12
3887.792	-13.12
3890.38	-19.12
3892.966	-26.12
3895.55	-24.12
3898.132	-27.12
3900.713	-25.12
3903.291	-26.12
3905.868	-22.12
3908.442	-25.12
3911.015	-24.12
3913.586	-25.12
3916.155	-28.12
3918.722	-29.12
3921.287	-22.12
3923.85	-26.12
3926.411	-27.12
3928.971	-21.12
3931.528	-27.12
3934.084	-26.12
3936.638	-26.12
3939.19	-30.12
3941.74	-22.12
3944.288	-30.12
3946.834	-26.12
3949.378	-27.12
3951.921	-20.12
3954.462	-23.12
3957	-24.12
3959.537	-26.12
3962.072	-25.12
3964.606	-26.12
3967.137	-25.12
3969.667	-28.12
3972.194	-27.12
3974.72	-25.12
3977.244	-25.12
3979.766	-27.12
3982.286	-24.12
3984.805	-25.12
3987.321	-26.12
3989.836	-30.12
3992.349	-25.12
3994.86	-24.12
3997.369	-25.12
3999.877	-25.12
4002.382	-30.12
4004.886	-26.12
4007.388	-27.12
4009.888	-26.12
4012.386	-23.12
4014.883	-25.12
4017.377	-24.12
4019.87	-26.12
4022.361	-27.12
4024.85	-30.12
4027.338	-30.12
4029.823	-26.12
4032.307	-28.12
4034.789	-25.12
4037.269	-27.12
4039.747	-22.12
4042.224	-27.12
4044.699	-30.12
4047.172	-31.12
4049.643	-28.12
4052.112	-25.12
4054.58	-22.12
4057.046	-25.12
4059.51	-28.12
4061.972	-29.12
4064.432	-25.12
4066.891	-27.12
4069.348	-23.12
4071.803	-24.12
4074.256	-24.12
4076.708	-23.12
4079.158	-27.12
4081.606	-25.12
4084.052	-26.12
4086.497	-26.12
4088.939	-22.12
4091.38	-25.12
4093.819	-25.12
4096.257	-26.12
4098.693	-32.12
4101.127	-30.12
4103.559	-29.12
4105.989	-12.12
4108.418	-11.12
4110.845	-9.12
4113.27	-10.12
4115.694	-10.12
4118.115	-11.12
4120.535	-28.12
4122.954	-30.12
4125.37	-29.12
4127.785	-25.12
4130.198	-25.12
4132.609	-25.12
4135.019	-26.12
4137.427	-26.12
4139.833	-24.12
4142.237	-28.12
