Data from 10CFU3_D_RamanShift_1.txt Node
Date: Thu Feb 02 12:00:28 IST 2017
User: aro
Spectrometer: QEPB0276
Trigger mode: 0
Integration Time (sec): 5.000000E0
Scans to average: 1
Electric dark correction enabled: true
Nonlinearity correction enabled: false
Boxcar width: 0
XAxis mode: Raman Shifts
Number of Pixels in Spectrum: 1044
>>>>>Begin Spectral Data<<<<<
160.701	-3.38
166.742	4.62
172.777	25.62
178.805	77.62
184.826	212.62
190.841	410.62
196.849	644.62
202.85	814.62
208.845	845.62
214.833	827.62
220.815	821.62
226.789	805.62
232.758	802.62
238.719	780.62
244.674	774.62
250.623	755.62
256.565	736.62
262.5	718.62
268.429	700.62
274.351	688.62
280.267	679.62
286.176	660.62
292.079	667.62
297.975	656.62
303.865	655.62
309.748	654.62
315.625	645.62
321.495	649.62
327.359	639.62
333.217	644.62
339.068	653.62
344.912	655.62
350.751	655.62
356.583	665.62
362.408	673.62
368.227	665.62
374.04	653.62
379.847	655.62
385.647	648.62
391.44	643.62
397.228	656.62
403.009	663.62
408.784	658.62
414.553	655.62
420.315	670.62
426.071	659.62
431.821	673.62
437.565	683.62
443.302	683.62
449.033	671.62
454.758	674.62
460.477	648.62
466.189	654.62
471.896	647.62
477.596	641.62
483.29	637.62
488.978	622.62
494.66	613.62
500.335	601.62
506.005	574.62
511.668	557.62
517.325	546.62
522.977	529.62
528.622	508.62
534.261	487.62
539.894	477.62
545.521	482.62
551.141	465.62
556.756	461.62
562.365	454.62
567.968	454.62
573.565	440.62
579.155	442.62
584.74	444.62
590.319	444.62
595.892	447.62
601.459	445.62
607.02	430.62
612.575	445.62
618.124	436.62
623.667	419.62
629.204	417.62
634.735	407.62
640.261	401.62
645.781	416.62
651.294	411.62
656.802	398.62
662.304	400.62
667.8	391.62
673.29	390.62
678.775	397.62
684.254	385.62
689.726	382.62
695.193	373.62
700.655	374.62
706.11	377.62
711.56	379.62
717.004	383.62
722.442	376.62
727.874	371.62
733.301	364.62
738.722	360.62
744.137	365.62
749.547	370.62
754.951	361.62
760.349	377.62
765.741	364.62
771.128	366.62
776.509	366.62
781.885	368.62
787.254	373.62
792.618	375.62
797.977	366.62
803.33	364.62
808.677	373.62
814.019	368.62
819.355	365.62
824.686	368.62
830.011	371.62
835.33	377.62
840.644	374.62
845.952	367.62
851.255	382.62
856.552	385.62
861.844	383.62
867.13	389.62
872.41	389.62
877.686	391.62
882.955	388.62
888.219	376.62
893.478	366.62
898.731	361.62
903.979	354.62
909.221	345.62
914.458	340.62
919.69	337.62
924.916	342.62
930.136	336.62
935.351	335.62
940.561	333.62
945.766	330.62
950.965	332.62
956.158	335.62
961.347	319.62
966.529	313.62
971.707	302.62
976.879	299.62
982.046	297.62
987.208	309.62
992.364	302.62
997.515	314.62
1002.66	309.62
1007.801	319.62
1012.936	325.62
1018.066	323.62
1023.19	321.62
1028.309	330.62
1033.423	337.62
1038.532	335.62
1043.636	336.62
1048.734	338.62
1053.827	336.62
1058.915	350.62
1063.998	348.62
1069.075	357.62
1074.147	370.62
1079.214	364.62
1084.276	361.62
1089.333	373.62
1094.385	368.62
1099.431	372.62
1104.472	356.62
1109.509	337.62
1114.54	342.62
1119.565	333.62
1124.586	338.62
1129.602	338.62
1134.613	330.62
1139.618	330.62
1144.619	296.62
1149.614	288.62
1154.604	283.62
1159.589	287.62
1164.57	278.62
1169.545	284.62
1174.515	272.62
1179.48	271.62
1184.44	264.62
1189.395	255.62
1194.345	251.62
1199.29	250.62
1204.23	256.62
1209.165	258.62
1214.095	260.62
1219.021	262.62
1223.941	254.62
1228.856	273.62
1233.766	263.62
1238.672	276.62
1243.572	288.62
1248.467	290.62
1253.358	289.62
1258.244	297.62
1263.124	288.62
1268	294.62
1272.871	285.62
1277.737	282.62
1282.599	274.62
1287.455	278.62
1292.306	284.62
1297.153	298.62
1301.995	321.62
1306.832	320.62
1311.664	312.62
1316.491	299.62
1321.314	294.62
1326.132	276.62
1330.945	264.62
1335.753	258.62
1340.556	249.62
1345.354	250.62
1350.148	251.62
1354.937	243.62
1359.722	240.62
1364.501	237.62
1369.276	230.62
1374.046	230.62
1378.811	233.62
1383.572	236.62
1388.327	228.62
1393.079	227.62
1397.825	221.62
1402.567	215.62
1407.304	205.62
1412.036	216.62
1416.764	215.62
1421.487	224.62
1426.205	234.62
1430.919	240.62
1435.628	256.62
1440.333	282.62
1445.032	309.62
1449.727	325.62
1454.418	319.62
1459.104	309.62
1463.785	291.62
1468.462	279.62
1473.134	255.62
1477.802	232.62
1482.465	207.62
1487.123	194.62
1491.777	176.62
1496.426	175.62
1501.071	170.62
1505.711	168.62
1510.347	170.62
1514.978	176.62
1519.604	169.62
1524.226	173.62
1528.844	169.62
1533.457	165.62
1538.065	167.62
1542.669	167.62
1547.269	169.62
1551.864	173.62
1556.454	171.62
1561.041	172.62
1565.622	165.62
1570.199	163.62
1574.772	164.62
1579.34	168.62
1583.904	172.62
1588.464	175.62
1593.019	169.62
1597.569	174.62
1602.115	173.62
1606.657	174.62
1611.195	176.62
1615.728	176.62
1620.256	180.62
1624.78	176.62
1629.3	179.62
1633.816	182.62
1638.327	184.62
1642.834	180.62
1647.336	194.62
1651.834	200.62
1656.328	209.62
1660.817	209.62
1665.302	207.62
1669.783	196.62
1674.259	191.62
1678.732	185.62
1683.199	176.62
1687.663	164.62
1692.122	157.62
1696.577	152.62
1701.028	141.62
1705.474	144.62
1709.917	137.62
1714.355	138.62
1718.788	132.62
1723.218	122.62
1727.643	119.62
1732.064	114.62
1736.481	120.62
1740.893	112.62
1745.301	116.62
1749.705	111.62
1754.105	114.62
1758.501	103.62
1762.893	103.62
1767.28	89.62
1771.663	94.62
1776.042	86.62
1780.417	90.62
1784.787	86.62
1789.154	86.62
1793.516	94.62
1797.874	88.62
1802.228	89.62
1806.578	90.62
1810.924	87.62
1815.266	84.62
1819.603	85.62
1823.937	83.62
1828.266	77.62
1832.591	79.62
1836.913	79.62
1841.23	75.62
1845.543	73.62
1849.852	73.62
1854.156	75.62
1858.457	76.62
1862.754	74.62
1867.047	68.62
1871.335	69.62
1875.62	73.62
1879.9	73.62
1884.177	75.62
1888.449	75.62
1892.718	74.62
1896.982	68.62
1901.243	68.62
1905.499	72.62
1909.752	71.62
1914	73.62
1918.245	69.62
1922.485	69.62
1926.722	70.62
1930.954	68.62
1935.183	76.62
1939.408	72.62
1943.628	74.62
1947.845	72.62
1952.058	73.62
1956.267	72.62
1960.472	69.62
1964.673	68.62
1968.87	62.62
1973.063	58.62
1977.252	63.62
1981.438	64.62
1985.619	63.62
1989.797	63.62
1993.971	65.62
1998.14	60.62
2002.306	61.62
2006.469	63.62
2010.627	58.62
2014.781	60.62
2018.932	65.62
2023.078	66.62
2027.221	58.62
2031.36	59.62
2035.495	58.62
2039.627	57.62
2043.754	57.62
2047.878	61.62
2051.998	56.62
2056.114	61.62
2060.226	54.62
2064.334	60.62
2068.439	57.62
2072.54	54.62
2076.637	61.62
2080.73	61.62
2084.82	61.62
2088.906	64.62
2092.988	62.62
2097.066	57.62
2101.14	60.62
2105.211	58.62
2109.278	51.62
2113.342	54.62
2117.401	54.62
2121.457	60.62
2125.509	52.62
2129.558	52.62
2133.602	54.62
2137.643	59.62
2141.681	54.62
2145.714	51.62
2149.744	49.62
2153.77	52.62
2157.793	47.62
2161.812	46.62
2165.827	45.62
2169.838	47.62
2173.846	47.62
2177.851	47.62
2181.851	47.62
2185.848	40.62
2189.841	40.62
2193.831	38.62
2197.817	42.62
2201.799	45.62
2205.778	41.62
2209.753	36.62
2213.725	40.62
2217.693	42.62
2221.657	42.62
2225.618	39.62
2229.575	36.62
2233.529	39.62
2237.479	37.62
2241.425	38.62
2245.368	36.62
2249.307	39.62
2253.243	34.62
2257.175	34.62
2261.104	37.62
2265.029	32.62
2268.95	35.62
2272.868	26.62
2276.783	29.62
2280.694	33.62
2284.601	29.62
2288.505	28.62
2292.405	31.62
2296.302	27.62
2300.195	28.62
2304.085	24.62
2307.971	23.62
2311.854	23.62
2315.734	21.62
2319.609	26.62
2323.482	26.62
2327.351	29.62
2331.216	26.62
2335.078	26.62
2338.937	21.62
2342.792	18.62
2346.643	19.62
2350.492	21.62
2354.336	18.62
2358.178	19.62
2362.015	14.62
2365.85	11.62
2369.681	16.62
2373.508	19.62
2377.333	21.62
2381.153	20.62
2384.971	20.62
2388.785	16.62
2392.595	13.62
2396.402	15.62
2400.206	17.62
2404.007	13.62
2407.804	14.62
2411.597	18.62
2415.388	12.62
2419.174	11.62
2422.958	10.62
2426.738	12.62
2430.515	14.62
2434.289	14.62
2438.059	17.62
2441.825	11.62
2445.589	10.62
2449.349	11.62
2453.106	7.62
2456.859	9.62
2460.61	11.62
2464.356	16.62
2468.1	12.62
2471.84	12.62
2475.577	14.62
2479.311	7.62
2483.041	8.62
2486.768	8.62
2490.492	14.62
2494.213	11.62
2497.93	13.62
2501.644	10.62
2505.355	8.62
2509.062	6.62
2512.766	4.62
2516.467	11.62
2520.165	7.62
2523.859	7.62
2527.551	8.62
2531.239	9.62
2534.923	3.62
2538.605	3.62
2542.283	7.62
2545.958	8.62
2549.63	12.62
2553.299	9.62
2556.964	5.62
2560.626	8.62
2564.285	2.62
2567.941	10.62
2571.594	7.62
2575.243	11.62
2578.89	11.62
2582.533	6.62
2586.173	9.62
2589.809	5.62
2593.443	6.62
2597.073	4.62
2600.701	7.62
2604.325	9.62
2607.946	7.62
2611.564	9.62
2615.178	5.62
2618.79	6.62
2622.398	10.62
2626.004	10.62
2629.606	13.62
2633.205	8.62
2636.801	6.62
2640.394	7.62
2643.983	6.62
2647.57	2.62
2651.153	6.62
2654.734	6.62
2658.311	8.62
2661.885	9.62
2665.456	5.62
2669.025	1.62
2672.589	-0.38
2676.151	3.62
2679.71	6.62
2683.266	3.62
2686.819	7.62
2690.368	7.62
2693.915	7.62
2697.458	5.62
2700.999	-0.38
2704.536	3.62
2708.071	9.62
2711.602	10.62
2715.13	5.62
2718.656	8.62
2722.178	2.62
2725.697	6.62
2729.214	9.62
2732.727	7.62
2736.237	12.62
2739.744	12.62
2743.249	8.62
2746.75	7.62
2750.248	6.62
2753.743	5.62
2757.236	5.62
2760.725	11.62
2764.211	14.62
2767.695	4.62
2771.175	6.62
2774.652	4.62
2778.127	3.62
2781.598	6.62
2785.067	7.62
2788.532	8.62
2791.995	11.62
2795.455	8.62
2798.911	3.62
2802.365	4.62
2805.816	6.62
2809.264	16.62
2812.709	18.62
2816.151	16.62
2819.59	18.62
2823.026	17.62
2826.46	23.62
2829.89	23.62
2833.318	26.62
2836.742	34.62
2840.164	41.62
2843.583	52.62
2846.999	53.62
2850.412	77.62
2853.822	80.62
2857.229	95.62
2860.634	95.62
2864.035	93.62
2867.434	94.62
2870.83	98.62
2874.223	101.62
2877.613	102.62
2881	109.62
2884.385	123.62
2887.766	122.62
2891.145	126.62
2894.521	119.62
2897.894	112.62
2901.264	112.62
2904.631	109.62
2907.996	112.62
2911.358	113.62
2914.717	109.62
2918.073	106.62
2921.426	107.62
2924.777	105.62
2928.124	106.62
2931.469	104.62
2934.811	104.62
2938.15	104.62
2941.487	100.62
2944.821	94.62
2948.152	83.62
2951.48	83.62
2954.805	81.62
2958.128	78.62
2961.447	69.62
2964.765	66.62
2968.079	63.62
2971.39	56.62
2974.699	55.62
2978.005	58.62
2981.308	57.62
2984.609	54.62
2987.907	51.62
2991.202	44.62
2994.494	44.62
2997.784	43.62
3001.07	40.62
3004.355	44.62
3007.636	43.62
3010.915	42.62
3014.191	37.62
3017.464	35.62
3020.734	35.62
3024.002	35.62
3027.267	32.62
3030.53	35.62
3033.789	37.62
3037.046	34.62
3040.301	33.62
3043.552	31.62
3046.801	35.62
3050.048	37.62
3053.291	39.62
3056.532	40.62
3059.771	44.62
3063.006	44.62
3066.239	44.62
3069.469	49.62
3072.697	46.62
3075.922	50.62
3079.144	52.62
3082.364	54.62
3085.581	50.62
3088.795	54.62
3092.007	51.62
3095.216	58.62
3098.423	63.62
3101.627	62.62
3104.828	64.62
3108.026	61.62
3111.222	59.62
3114.416	66.62
3117.607	67.62
3120.795	71.62
3123.98	68.62
3127.163	77.62
3130.344	72.62
3133.521	82.62
3136.696	76.62
3139.869	81.62
3143.039	91.62
3146.206	87.62
3149.371	93.62
3152.533	88.62
3155.693	91.62
3158.85	80.62
3162.005	90.62
3165.157	87.62
3168.306	88.62
3171.453	95.62
3174.597	88.62
3177.739	87.62
3180.878	92.62
3184.014	91.62
3187.149	94.62
3190.28	90.62
3193.409	94.62
3196.536	88.62
3199.659	93.62
3202.781	89.62
3205.9	87.62
3209.016	94.62
3212.13	95.62
3215.241	97.62
3218.35	90.62
3221.456	95.62
3224.56	86.62
3227.661	84.62
3230.76	90.62
3233.856	90.62
3236.95	76.62
3240.041	87.62
3243.13	84.62
3246.216	87.62
3249.3	82.62
3252.382	83.62
3255.46	80.62
3258.537	86.62
3261.611	84.62
3264.682	82.62
3267.751	81.62
3270.818	75.62
3273.882	72.62
3276.943	84.62
3280.002	80.62
3283.059	83.62
3286.113	83.62
3289.165	73.62
3292.214	68.62
3295.261	66.62
3298.306	73.62
3301.348	77.62
3304.387	66.62
3307.425	68.62
3310.459	65.62
3313.492	65.62
3316.521	58.62
3319.549	62.62
3322.574	65.62
3325.597	65.62
3328.617	62.62
3331.635	60.62
3334.65	61.62
3337.663	55.62
3340.674	58.62
3343.682	67.62
3346.688	52.62
3349.691	64.62
3352.692	61.62
3355.691	58.62
3358.687	55.62
3361.681	53.62
3364.673	57.62
3367.662	58.62
3370.649	62.62
3373.633	59.62
3376.615	49.62
3379.595	47.62
3382.572	47.62
3385.547	48.62
3388.52	51.62
3391.49	52.62
3394.458	49.62
3397.424	45.62
3400.387	46.62
3403.348	42.62
3406.307	39.62
3409.263	45.62
3412.217	45.62
3415.168	40.62
3418.118	42.62
3421.065	41.62
3424.009	35.62
3426.951	38.62
3429.891	38.62
3432.829	43.62
3435.764	37.62
3438.697	37.62
3441.628	32.62
3444.557	32.62
3447.483	30.62
3450.407	30.62
3453.328	28.62
3456.247	30.62
3459.164	28.62
3462.079	25.62
3464.991	25.62
3467.902	16.62
3470.809	22.62
3473.715	23.62
3476.618	20.62
3479.519	18.62
3482.418	17.62
3485.315	16.62
3488.209	8.62
3491.101	13.62
3493.99	10.62
3496.878	12.62
3499.763	13.62
3502.646	9.62
3505.527	7.62
3508.405	8.62
3511.281	3.62
3514.155	6.62
3517.027	3.62
3519.897	8.62
3522.764	4.62
3525.629	4.62
3528.492	4.62
3531.352	0.62
3534.211	-1.38
3537.067	-2.38
3539.921	-2.38
3542.773	-4.38
3545.622	-2.38
3548.469	-5.38
3551.315	-6.38
3554.157	-10.38
3556.998	-4.38
3559.837	-7.38
3562.673	-6.38
3565.507	-11.38
3568.339	-10.38
3571.169	-10.38
3573.996	-9.38
3576.822	-11.38
3579.645	-13.38
3582.466	-11.38
3585.285	-10.38
3588.101	-10.38
3590.916	-16.38
3593.728	-16.38
3596.538	-13.38
3599.346	-15.38
3602.152	-16.38
3604.956	-15.38
3607.757	-15.38
3610.556	-16.38
3613.354	-20.38
3616.149	-16.38
3618.942	-16.38
3621.732	-16.38
3624.521	-19.38
3627.307	-15.38
3630.092	-18.38
3632.874	-16.38
3635.654	-20.38
3638.432	-17.38
3641.208	-19.38
3643.982	-19.38
3646.753	-19.38
3649.523	-18.38
3652.29	-21.38
3655.055	-19.38
3657.818	-24.38
3660.579	-22.38
3663.338	-21.38
3666.095	-15.38
3668.849	-18.38
3671.602	-21.38
3674.352	-23.38
3677.101	-20.38
3679.847	-22.38
3682.591	-19.38
3685.333	-19.38
3688.073	-22.38
3690.811	-24.38
3693.547	-24.38
3696.281	-22.38
3699.013	-23.38
3701.742	-24.38
3704.47	-23.38
3707.195	-23.38
3709.919	-23.38
3712.64	-29.38
3715.359	-24.38
3718.076	-19.38
3720.792	-25.38
3723.505	-22.38
3726.216	-24.38
3728.925	-25.38
3731.632	-26.38
3734.336	-25.38
3737.039	-25.38
3739.74	-26.38
3742.439	-23.38
3745.136	-23.38
3747.83	-23.38
3750.523	-23.38
3753.213	-25.38
3755.902	-25.38
3758.589	-25.38
3761.273	-26.38
3763.956	-26.38
3766.636	-26.38
3769.315	-23.38
3771.991	-29.38
3774.665	-28.38
3777.338	-24.38
3780.008	-23.38
3782.677	-27.38
3785.343	-26.38
3788.007	-25.38
3790.67	-27.38
3793.33	-28.38
3795.989	-28.38
3798.645	-26.38
3801.299	-24.38
3803.952	-26.38
3806.602	-25.38
3809.251	-25.38
3811.897	-25.38
3814.542	-27.38
3817.184	-25.38
3819.825	-23.38
3822.463	-22.38
3825.1	-27.38
3827.735	-21.38
3830.367	-29.38
3832.998	-26.38
3835.627	-25.38
3838.253	-21.38
3840.878	-25.38
3843.501	-23.38
3846.122	-31.38
3848.741	-23.38
3851.358	-27.38
3853.973	-26.38
3856.586	-24.38
3859.197	-26.38
3861.806	-24.38
3864.414	-26.38
3867.019	-24.38
3869.622	-26.38
3872.224	-29.38
3874.823	-25.38
3877.421	-25.38
3880.016	-20.38
3882.61	-18.38
3885.202	-11.38
3887.792	-15.38
3890.38	-22.38
3892.966	-25.38
3895.55	-23.38
3898.132	-24.38
3900.713	-19.38
3903.291	-24.38
3905.868	-26.38
3908.442	-26.38
3911.015	-27.38
3913.586	-30.38
3916.155	-27.38
3918.722	-27.38
3921.287	-25.38
3923.85	-26.38
3926.411	-28.38
3928.971	-23.38
3931.528	-27.38
3934.084	-27.38
3936.638	-24.38
3939.19	-26.38
3941.74	-24.38
3944.288	-25.38
3946.834	-25.38
3949.378	-26.38
3951.921	-27.38
3954.462	-24.38
3957	-26.38
3959.537	-26.38
3962.072	-24.38
3964.606	-28.38
3967.137	-24.38
3969.667	-26.38
3972.194	-27.38
3974.72	-28.38
3977.244	-23.38
3979.766	-25.38
3982.286	-26.38
3984.805	-26.38
3987.321	-26.38
3989.836	-29.38
3992.349	-27.38
3994.86	-21.38
3997.369	-24.38
3999.877	-26.38
4002.382	-27.38
4004.886	-23.38
4007.388	-23.38
4009.888	-24.38
4012.386	-24.38
4014.883	-23.38
4017.377	-27.38
4019.87	-26.38
4022.361	-25.38
4024.85	-29.38
4027.338	-28.38
4029.823	-26.38
4032.307	-26.38
4034.789	-21.38
4037.269	-22.38
4039.747	-27.38
4042.224	-26.38
4044.699	-28.38
4047.172	-28.38
4049.643	-24.38
4052.112	-24.38
4054.58	-22.38
4057.046	-23.38
4059.51	-28.38
4061.972	-26.38
4064.432	-22.38
4066.891	-25.38
4069.348	-24.38
4071.803	-23.38
4074.256	-26.38
4076.708	-25.38
4079.158	-27.38
4081.606	-28.38
4084.052	-24.38
4086.497	-22.38
4088.939	-24.38
4091.38	-24.38
4093.819	-26.38
4096.257	-26.38
4098.693	-29.38
4101.127	-27.38
4103.559	-30.38
4105.989	-9.38
4108.418	-12.38
4110.845	-6.38
4113.27	-12.38
4115.694	-9.38
4118.115	-11.38
4120.535	-24.38
4122.954	-29.38
4125.37	-25.38
4127.785	-21.38
4130.198	-24.38
4132.609	-27.38
4135.019	-27.38
4137.427	-29.38
4139.833	-23.38
4142.237	-24.38
