Data from 10CFU1_D_RamanShift_1.txt Node
Date: Thu Feb 02 11:50:53 IST 2017
User: aro
Spectrometer: QEPB0276
Trigger mode: 0
Integration Time (sec): 5.000000E0
Scans to average: 1
Electric dark correction enabled: true
Nonlinearity correction enabled: false
Boxcar width: 0
XAxis mode: Raman Shifts
Number of Pixels in Spectrum: 1044
>>>>>Begin Spectral Data<<<<<
160.701	-2.62
166.742	6.38
172.777	22.38
178.805	76.38
184.826	200.38
190.841	396.38
196.849	623.38
202.85	780.38
208.845	829.38
214.833	807.38
220.815	787.38
226.789	781.38
232.758	776.38
238.719	763.38
244.674	758.38
250.623	741.38
256.565	728.38
262.5	700.38
268.429	681.38
274.351	689.38
280.267	671.38
286.176	653.38
292.079	650.38
297.975	645.38
303.865	648.38
309.748	631.38
315.625	624.38
321.495	639.38
327.359	626.38
333.217	641.38
339.068	623.38
344.912	641.38
350.751	645.38
356.583	656.38
362.408	648.38
368.227	657.38
374.04	631.38
379.847	646.38
385.647	639.38
391.44	634.38
397.228	641.38
403.009	643.38
408.784	650.38
414.553	660.38
420.315	666.38
426.071	668.38
431.821	670.38
437.565	666.38
443.302	661.38
449.033	669.38
454.758	650.38
460.477	651.38
466.189	646.38
471.896	644.38
477.596	624.38
483.29	618.38
488.978	615.38
494.66	617.38
500.335	589.38
506.005	577.38
511.668	560.38
517.325	529.38
522.977	511.38
528.622	500.38
534.261	485.38
539.894	479.38
545.521	474.38
551.141	468.38
556.756	462.38
562.365	444.38
567.968	446.38
573.565	443.38
579.155	435.38
584.74	439.38
590.319	435.38
595.892	434.38
601.459	438.38
607.02	432.38
612.575	433.38
618.124	431.38
623.667	411.38
629.204	414.38
634.735	405.38
640.261	406.38
645.781	408.38
651.294	411.38
656.802	403.38
662.304	389.38
667.8	387.38
673.29	387.38
678.775	388.38
684.254	378.38
689.726	374.38
695.193	371.38
700.655	380.38
706.11	367.38
711.56	377.38
717.004	366.38
722.442	368.38
727.874	377.38
733.301	370.38
738.722	369.38
744.137	365.38
749.547	364.38
754.951	370.38
760.349	371.38
765.741	363.38
771.128	359.38
776.509	360.38
781.885	369.38
787.254	370.38
792.618	364.38
797.977	360.38
803.33	372.38
808.677	366.38
814.019	362.38
819.355	363.38
824.686	360.38
830.011	364.38
835.33	371.38
840.644	371.38
845.952	371.38
851.255	380.38
856.552	378.38
861.844	379.38
867.13	388.38
872.41	380.38
877.686	382.38
882.955	384.38
888.219	381.38
893.478	373.38
898.731	353.38
903.979	360.38
909.221	337.38
914.458	341.38
919.69	343.38
924.916	336.38
930.136	335.38
935.351	333.38
940.561	323.38
945.766	322.38
950.965	338.38
956.158	339.38
961.347	322.38
966.529	311.38
971.707	305.38
976.879	303.38
982.046	297.38
987.208	295.38
992.364	304.38
997.515	306.38
1002.66	315.38
1007.801	317.38
1012.936	322.38
1018.066	328.38
1023.19	333.38
1028.309	337.38
1033.423	346.38
1038.532	333.38
1043.636	342.38
1048.734	330.38
1053.827	330.38
1058.915	340.38
1063.998	345.38
1069.075	361.38
1074.147	370.38
1079.214	365.38
1084.276	369.38
1089.333	367.38
1094.385	362.38
1099.431	364.38
1104.472	353.38
1109.509	346.38
1114.54	332.38
1119.565	326.38
1124.586	329.38
1129.602	330.38
1134.613	325.38
1139.618	307.38
1144.619	298.38
1149.614	290.38
1154.604	283.38
1159.589	282.38
1164.57	277.38
1169.545	282.38
1174.515	270.38
1179.48	264.38
1184.44	257.38
1189.395	254.38
1194.345	250.38
1199.29	254.38
1204.23	251.38
1209.165	260.38
1214.095	259.38
1219.021	256.38
1223.941	261.38
1228.856	260.38
1233.766	271.38
1238.672	274.38
1243.572	279.38
1248.467	288.38
1253.358	291.38
1258.244	294.38
1263.124	286.38
1268	293.38
1272.871	276.38
1277.737	276.38
1282.599	278.38
1287.455	275.38
1292.306	285.38
1297.153	292.38
1301.995	315.38
1306.832	316.38
1311.664	305.38
1316.491	296.38
1321.314	283.38
1326.132	268.38
1330.945	266.38
1335.753	262.38
1340.556	243.38
1345.354	246.38
1350.148	246.38
1354.937	237.38
1359.722	234.38
1364.501	232.38
1369.276	228.38
1374.046	238.38
1378.811	229.38
1383.572	232.38
1388.327	228.38
1393.079	223.38
1397.825	213.38
1402.567	223.38
1407.304	217.38
1412.036	216.38
1416.764	215.38
1421.487	222.38
1426.205	227.38
1430.919	239.38
1435.628	257.38
1440.333	288.38
1445.032	309.38
1449.727	315.38
1454.418	312.38
1459.104	300.38
1463.785	286.38
1468.462	274.38
1473.134	259.38
1477.802	229.38
1482.465	209.38
1487.123	196.38
1491.777	174.38
1496.426	176.38
1501.071	173.38
1505.711	165.38
1510.347	171.38
1514.978	164.38
1519.604	170.38
1524.226	160.38
1528.844	170.38
1533.457	168.38
1538.065	166.38
1542.669	165.38
1547.269	168.38
1551.864	162.38
1556.454	162.38
1561.041	161.38
1565.622	162.38
1570.199	162.38
1574.772	164.38
1579.34	168.38
1583.904	157.38
1588.464	168.38
1593.019	169.38
1597.569	177.38
1602.115	173.38
1606.657	173.38
1611.195	178.38
1615.728	176.38
1620.256	179.38
1624.78	175.38
1629.3	181.38
1633.816	177.38
1638.327	187.38
1642.834	184.38
1647.336	189.38
1651.834	192.38
1656.328	193.38
1660.817	203.38
1665.302	205.38
1669.783	195.38
1674.259	187.38
1678.732	177.38
1683.199	177.38
1687.663	164.38
1692.122	151.38
1696.577	146.38
1701.028	142.38
1705.474	137.38
1709.917	139.38
1714.355	137.38
1718.788	128.38
1723.218	117.38
1727.643	119.38
1732.064	119.38
1736.481	121.38
1740.893	114.38
1745.301	120.38
1749.705	117.38
1754.105	107.38
1758.501	98.38
1762.893	97.38
1767.28	93.38
1771.663	92.38
1776.042	95.38
1780.417	90.38
1784.787	89.38
1789.154	87.38
1793.516	93.38
1797.874	92.38
1802.228	93.38
1806.578	92.38
1810.924	90.38
1815.266	85.38
1819.603	80.38
1823.937	78.38
1828.266	80.38
1832.591	79.38
1836.913	76.38
1841.23	81.38
1845.543	74.38
1849.852	70.38
1854.156	72.38
1858.457	79.38
1862.754	76.38
1867.047	75.38
1871.335	75.38
1875.62	79.38
1879.9	70.38
1884.177	71.38
1888.449	72.38
1892.718	75.38
1896.982	71.38
1901.243	69.38
1905.499	73.38
1909.752	69.38
1914	69.38
1918.245	65.38
1922.485	70.38
1926.722	75.38
1930.954	68.38
1935.183	78.38
1939.408	72.38
1943.628	80.38
1947.845	71.38
1952.058	72.38
1956.267	71.38
1960.472	76.38
1964.673	75.38
1968.87	67.38
1973.063	70.38
1977.252	59.38
1981.438	62.38
1985.619	60.38
1989.797	60.38
1993.971	64.38
1998.14	64.38
2002.306	64.38
2006.469	62.38
2010.627	55.38
2014.781	59.38
2018.932	62.38
2023.078	66.38
2027.221	70.38
2031.36	61.38
2035.495	54.38
2039.627	60.38
2043.754	58.38
2047.878	56.38
2051.998	58.38
2056.114	55.38
2060.226	61.38
2064.334	62.38
2068.439	57.38
2072.54	56.38
2076.637	60.38
2080.73	62.38
2084.82	63.38
2088.906	62.38
2092.988	57.38
2097.066	58.38
2101.14	61.38
2105.211	57.38
2109.278	54.38
2113.342	55.38
2117.401	56.38
2121.457	61.38
2125.509	54.38
2129.558	57.38
2133.602	55.38
2137.643	57.38
2141.681	48.38
2145.714	53.38
2149.744	54.38
2153.77	51.38
2157.793	48.38
2161.812	52.38
2165.827	45.38
2169.838	45.38
2173.846	46.38
2177.851	43.38
2181.851	47.38
2185.848	48.38
2189.841	43.38
2193.831	45.38
2197.817	43.38
2201.799	41.38
2205.778	38.38
2209.753	41.38
2213.725	45.38
2217.693	47.38
2221.657	42.38
2225.618	37.38
2229.575	36.38
2233.529	37.38
2237.479	41.38
2241.425	40.38
2245.368	40.38
2249.307	36.38
2253.243	29.38
2257.175	33.38
2261.104	30.38
2265.029	37.38
2268.95	35.38
2272.868	34.38
2276.783	33.38
2280.694	33.38
2284.601	25.38
2288.505	26.38
2292.405	25.38
2296.302	26.38
2300.195	31.38
2304.085	31.38
2307.971	28.38
2311.854	27.38
2315.734	20.38
2319.609	22.38
2323.482	21.38
2327.351	28.38
2331.216	28.38
2335.078	29.38
2338.937	28.38
2342.792	23.38
2346.643	18.38
2350.492	20.38
2354.336	16.38
2358.178	14.38
2362.015	17.38
2365.85	18.38
2369.681	17.38
2373.508	17.38
2377.333	20.38
2381.153	20.38
2384.971	19.38
2388.785	17.38
2392.595	16.38
2396.402	17.38
2400.206	18.38
2404.007	16.38
2407.804	20.38
2411.597	17.38
2415.388	14.38
2419.174	13.38
2422.958	14.38
2426.738	16.38
2430.515	13.38
2434.289	15.38
2438.059	17.38
2441.825	13.38
2445.589	12.38
2449.349	13.38
2453.106	11.38
2456.859	13.38
2460.61	13.38
2464.356	17.38
2468.1	11.38
2471.84	13.38
2475.577	13.38
2479.311	9.38
2483.041	12.38
2486.768	15.38
2490.492	14.38
2494.213	11.38
2497.93	10.38
2501.644	8.38
2505.355	11.38
2509.062	13.38
2512.766	9.38
2516.467	12.38
2520.165	8.38
2523.859	8.38
2527.551	11.38
2531.239	8.38
2534.923	7.38
2538.605	11.38
2542.283	7.38
2545.958	10.38
2549.63	12.38
2553.299	10.38
2556.964	7.38
2560.626	8.38
2564.285	7.38
2567.941	7.38
2571.594	12.38
2575.243	11.38
2578.89	14.38
2582.533	10.38
2586.173	5.38
2589.809	9.38
2593.443	10.38
2597.073	7.38
2600.701	10.38
2604.325	10.38
2607.946	11.38
2611.564	4.38
2615.178	8.38
2618.79	10.38
2622.398	9.38
2626.004	12.38
2629.606	12.38
2633.205	7.38
2636.801	6.38
2640.394	8.38
2643.983	6.38
2647.57	8.38
2651.153	8.38
2654.734	6.38
2658.311	8.38
2661.885	6.38
2665.456	5.38
2669.025	6.38
2672.589	1.38
2676.151	3.38
2679.71	10.38
2683.266	9.38
2686.819	10.38
2690.368	7.38
2693.915	0.38
2697.458	8.38
2700.999	3.38
2704.536	4.38
2708.071	7.38
2711.602	8.38
2715.13	7.38
2718.656	3.38
2722.178	5.38
2725.697	7.38
2729.214	7.38
2732.727	10.38
2736.237	15.38
2739.744	14.38
2743.249	10.38
2746.75	4.38
2750.248	9.38
2753.743	7.38
2757.236	9.38
2760.725	10.38
2764.211	13.38
2767.695	7.38
2771.175	9.38
2774.652	4.38
2778.127	4.38
2781.598	8.38
2785.067	10.38
2788.532	5.38
2791.995	10.38
2795.455	6.38
2798.911	6.38
2802.365	8.38
2805.816	10.38
2809.264	19.38
2812.709	15.38
2816.151	19.38
2819.59	20.38
2823.026	18.38
2826.46	22.38
2829.89	24.38
2833.318	28.38
2836.742	33.38
2840.164	43.38
2843.583	45.38
2846.999	57.38
2850.412	69.38
2853.822	78.38
2857.229	89.38
2860.634	90.38
2864.035	92.38
2867.434	90.38
2870.83	92.38
2874.223	93.38
2877.613	101.38
2881	105.38
2884.385	117.38
2887.766	121.38
2891.145	121.38
2894.521	115.38
2897.894	109.38
2901.264	108.38
2904.631	111.38
2907.996	107.38
2911.358	103.38
2914.717	105.38
2918.073	110.38
2921.426	103.38
2924.777	102.38
2928.124	99.38
2931.469	102.38
2934.811	101.38
2938.15	97.38
2941.487	101.38
2944.821	95.38
2948.152	80.38
2951.48	77.38
2954.805	76.38
2958.128	75.38
2961.447	71.38
2964.765	66.38
2968.079	63.38
2971.39	56.38
2974.699	57.38
2978.005	52.38
2981.308	52.38
2984.609	51.38
2987.907	44.38
2991.202	49.38
2994.494	39.38
2997.784	39.38
3001.07	41.38
3004.355	40.38
3007.636	40.38
3010.915	41.38
3014.191	37.38
3017.464	34.38
3020.734	30.38
3024.002	31.38
3027.267	33.38
3030.53	36.38
3033.789	38.38
3037.046	33.38
3040.301	32.38
3043.552	33.38
3046.801	28.38
3050.048	37.38
3053.291	43.38
3056.532	40.38
3059.771	40.38
3063.006	40.38
3066.239	46.38
3069.469	45.38
3072.697	42.38
3075.922	51.38
3079.144	50.38
3082.364	55.38
3085.581	45.38
3088.795	57.38
3092.007	49.38
3095.216	55.38
3098.423	60.38
3101.627	59.38
3104.828	62.38
3108.026	61.38
3111.222	57.38
3114.416	56.38
3117.607	63.38
3120.795	66.38
3123.98	69.38
3127.163	72.38
3130.344	65.38
3133.521	73.38
3136.696	64.38
3139.869	74.38
3143.039	81.38
3146.206	80.38
3149.371	88.38
3152.533	82.38
3155.693	82.38
3158.85	84.38
3162.005	83.38
3165.157	81.38
3168.306	84.38
3171.453	88.38
3174.597	84.38
3177.739	81.38
3180.878	84.38
3184.014	82.38
3187.149	82.38
3190.28	87.38
3193.409	88.38
3196.536	86.38
3199.659	90.38
3202.781	85.38
3205.9	83.38
3209.016	84.38
3212.13	91.38
3215.241	90.38
3218.35	86.38
3221.456	86.38
3224.56	84.38
3227.661	82.38
3230.76	83.38
3233.856	69.38
3236.95	78.38
3240.041	79.38
3243.13	82.38
3246.216	76.38
3249.3	80.38
3252.382	75.38
3255.46	75.38
3258.537	81.38
3261.611	76.38
3264.682	74.38
3267.751	79.38
3270.818	73.38
3273.882	69.38
3276.943	75.38
3280.002	73.38
3283.059	74.38
3286.113	74.38
3289.165	71.38
3292.214	66.38
3295.261	65.38
3298.306	65.38
3301.348	63.38
3304.387	65.38
3307.425	65.38
3310.459	62.38
3313.492	57.38
3316.521	56.38
3319.549	56.38
3322.574	54.38
3325.597	57.38
3328.617	57.38
3331.635	58.38
3334.65	58.38
3337.663	55.38
3340.674	52.38
3343.682	56.38
3346.688	52.38
3349.691	56.38
3352.692	58.38
3355.691	52.38
3358.687	57.38
3361.681	52.38
3364.673	53.38
3367.662	50.38
3370.649	52.38
3373.633	53.38
3376.615	47.38
3379.595	51.38
3382.572	46.38
3385.547	44.38
3388.52	47.38
3391.49	47.38
3394.458	47.38
3397.424	45.38
3400.387	45.38
3403.348	40.38
3406.307	38.38
3409.263	37.38
3412.217	37.38
3415.168	38.38
3418.118	38.38
3421.065	39.38
3424.009	33.38
3426.951	41.38
3429.891	37.38
3432.829	35.38
3435.764	32.38
3438.697	34.38
3441.628	30.38
3444.557	31.38
3447.483	27.38
3450.407	33.38
3453.328	26.38
3456.247	23.38
3459.164	26.38
3462.079	26.38
3464.991	24.38
3467.902	21.38
3470.809	25.38
3473.715	20.38
3476.618	18.38
3479.519	15.38
3482.418	12.38
3485.315	14.38
3488.209	16.38
3491.101	10.38
3493.99	9.38
3496.878	9.38
3499.763	11.38
3502.646	8.38
3505.527	9.38
3508.405	8.38
3511.281	2.38
3514.155	6.38
3517.027	6.38
3519.897	9.38
3522.764	5.38
3525.629	2.38
3528.492	1.38
3531.352	0.38
3534.211	1.38
3537.067	-0.62
3539.921	1.38
3542.773	-1.62
3545.622	-4.62
3548.469	-5.62
3551.315	-8.62
3554.157	-11.62
3556.998	-5.62
3559.837	-5.62
3562.673	-4.62
3565.507	-8.62
3568.339	-8.62
3571.169	-10.62
3573.996	-7.62
3576.822	-7.62
3579.645	-12.62
3582.466	-5.62
3585.285	-8.62
3588.101	-10.62
3590.916	-14.62
3593.728	-15.62
3596.538	-16.62
3599.346	-13.62
3602.152	-13.62
3604.956	-10.62
3607.757	-11.62
3610.556	-15.62
3613.354	-18.62
3616.149	-23.62
3618.942	-15.62
3621.732	-16.62
3624.521	-14.62
3627.307	-15.62
3630.092	-17.62
3632.874	-18.62
3635.654	-22.62
3638.432	-22.62
3641.208	-16.62
3643.982	-15.62
3646.753	-14.62
3649.523	-15.62
3652.29	-18.62
3655.055	-21.62
3657.818	-27.62
3660.579	-20.62
3663.338	-19.62
3666.095	-13.62
3668.849	-16.62
3671.602	-20.62
3674.352	-22.62
3677.101	-23.62
3679.847	-21.62
3682.591	-21.62
3685.333	-17.62
3688.073	-20.62
3690.811	-20.62
3693.547	-29.62
3696.281	-24.62
3699.013	-21.62
3701.742	-24.62
3704.47	-21.62
3707.195	-21.62
3709.919	-20.62
3712.64	-27.62
3715.359	-24.62
3718.076	-21.62
3720.792	-26.62
3723.505	-18.62
3726.216	-17.62
3728.925	-21.62
3731.632	-24.62
3734.336	-23.62
3737.039	-22.62
3739.74	-27.62
3742.439	-22.62
3745.136	-19.62
3747.83	-18.62
3750.523	-18.62
3753.213	-25.62
3755.902	-25.62
3758.589	-27.62
3761.273	-23.62
3763.956	-21.62
3766.636	-21.62
3769.315	-20.62
3771.991	-21.62
3774.665	-25.62
3777.338	-23.62
3780.008	-24.62
3782.677	-23.62
3785.343	-22.62
3788.007	-20.62
3790.67	-23.62
3793.33	-26.62
3795.989	-26.62
3798.645	-23.62
3801.299	-24.62
3803.952	-24.62
3806.602	-22.62
3809.251	-22.62
3811.897	-21.62
3814.542	-24.62
3817.184	-24.62
3819.825	-23.62
3822.463	-24.62
3825.1	-23.62
3827.735	-20.62
3830.367	-21.62
3832.998	-25.62
3835.627	-26.62
3838.253	-21.62
3840.878	-24.62
3843.501	-23.62
3846.122	-23.62
3848.741	-19.62
3851.358	-23.62
3853.973	-24.62
3856.586	-24.62
3859.197	-28.62
3861.806	-21.62
3864.414	-24.62
3867.019	-19.62
3869.622	-21.62
3872.224	-24.62
3874.823	-23.62
3877.421	-19.62
3880.016	-20.62
3882.61	-16.62
3885.202	-8.62
3887.792	-12.62
3890.38	-16.62
3892.966	-21.62
3895.55	-20.62
3898.132	-23.62
3900.713	-23.62
3903.291	-26.62
3905.868	-23.62
3908.442	-25.62
3911.015	-22.62
3913.586	-26.62
3916.155	-28.62
3918.722	-27.62
3921.287	-20.62
3923.85	-24.62
3926.411	-25.62
3928.971	-20.62
3931.528	-25.62
3934.084	-24.62
3936.638	-23.62
3939.19	-27.62
3941.74	-22.62
3944.288	-23.62
3946.834	-23.62
3949.378	-21.62
3951.921	-24.62
3954.462	-20.62
3957	-24.62
3959.537	-23.62
3962.072	-23.62
3964.606	-20.62
3967.137	-22.62
3969.667	-22.62
3972.194	-24.62
3974.72	-25.62
3977.244	-24.62
3979.766	-23.62
3982.286	-19.62
3984.805	-22.62
3987.321	-23.62
3989.836	-27.62
3992.349	-25.62
3994.86	-26.62
3997.369	-24.62
3999.877	-25.62
4002.382	-22.62
4004.886	-23.62
4007.388	-20.62
4009.888	-23.62
4012.386	-22.62
4014.883	-26.62
4017.377	-24.62
4019.87	-25.62
4022.361	-18.62
4024.85	-24.62
4027.338	-26.62
4029.823	-26.62
4032.307	-25.62
4034.789	-23.62
4037.269	-24.62
4039.747	-25.62
4042.224	-25.62
4044.699	-26.62
4047.172	-26.62
4049.643	-27.62
4052.112	-21.62
4054.58	-23.62
4057.046	-21.62
4059.51	-25.62
4061.972	-23.62
4064.432	-20.62
4066.891	-23.62
4069.348	-25.62
4071.803	-23.62
4074.256	-24.62
4076.708	-22.62
4079.158	-23.62
4081.606	-23.62
4084.052	-20.62
4086.497	-23.62
4088.939	-23.62
4091.38	-23.62
4093.819	-22.62
4096.257	-23.62
4098.693	-29.62
4101.127	-24.62
4103.559	-26.62
4105.989	-7.62
4108.418	-8.62
4110.845	-8.62
4113.27	-14.62
4115.694	-7.62
4118.115	-8.62
4120.535	-23.62
4122.954	-27.62
4125.37	-24.62
4127.785	-19.62
4130.198	-24.62
4132.609	-23.62
4135.019	-26.62
4137.427	-26.62
4139.833	-23.62
4142.237	-25.62
