Data from 10CFU2_A_RamanShift_1.txt Node
Date: Thu Feb 02 13:42:30 IST 2017
User: aro
Spectrometer: QEPB0276
Trigger mode: 0
Integration Time (sec): 5.000000E0
Scans to average: 1
Electric dark correction enabled: true
Nonlinearity correction enabled: false
Boxcar width: 0
XAxis mode: Raman Shifts
Number of Pixels in Spectrum: 1044
>>>>>Begin Spectral Data<<<<<
160.701	-5.5
166.742	-0.5
172.777	24.5
178.805	91.5
184.826	225.5
190.841	439.5
196.849	698.5
202.85	867.5
208.845	918.5
214.833	897.5
220.815	866.5
226.789	885.5
232.758	869.5
238.719	854.5
244.674	839.5
250.623	834.5
256.565	806.5
262.5	796.5
268.429	776.5
274.351	779.5
280.267	758.5
286.176	747.5
292.079	739.5
297.975	740.5
303.865	741.5
309.748	727.5
315.625	714.5
321.495	722.5
327.359	715.5
333.217	729.5
339.068	720.5
344.912	728.5
350.751	743.5
356.583	751.5
362.408	736.5
368.227	733.5
374.04	730.5
379.847	720.5
385.647	719.5
391.44	727.5
397.228	727.5
403.009	742.5
408.784	721.5
414.553	725.5
420.315	744.5
426.071	749.5
431.821	751.5
437.565	754.5
443.302	745.5
449.033	747.5
454.758	733.5
460.477	734.5
466.189	716.5
471.896	712.5
477.596	728.5
483.29	715.5
488.978	705.5
494.66	689.5
500.335	670.5
506.005	640.5
511.668	633.5
517.325	605.5
522.977	583.5
528.622	573.5
534.261	562.5
539.894	550.5
545.521	542.5
551.141	540.5
556.756	530.5
562.365	530.5
567.968	530.5
573.565	517.5
579.155	513.5
584.74	505.5
590.319	504.5
595.892	506.5
601.459	513.5
607.02	502.5
612.575	495.5
618.124	494.5
623.667	481.5
629.204	478.5
634.735	474.5
640.261	467.5
645.781	477.5
651.294	466.5
656.802	469.5
662.304	452.5
667.8	449.5
673.29	459.5
678.775	456.5
684.254	451.5
689.726	441.5
695.193	437.5
700.655	444.5
706.11	445.5
711.56	443.5
717.004	440.5
722.442	429.5
727.874	442.5
733.301	427.5
738.722	428.5
744.137	430.5
749.547	426.5
754.951	427.5
760.349	425.5
765.741	426.5
771.128	427.5
776.509	433.5
781.885	437.5
787.254	431.5
792.618	434.5
797.977	435.5
803.33	427.5
808.677	427.5
814.019	427.5
819.355	417.5
824.686	419.5
830.011	424.5
835.33	432.5
840.644	441.5
845.952	427.5
851.255	429.5
856.552	435.5
861.844	438.5
867.13	426.5
872.41	440.5
877.686	435.5
882.955	439.5
888.219	440.5
893.478	427.5
898.731	420.5
903.979	410.5
909.221	403.5
914.458	402.5
919.69	407.5
924.916	393.5
930.136	391.5
935.351	380.5
940.561	390.5
945.766	390.5
950.965	388.5
956.158	378.5
961.347	385.5
966.529	368.5
971.707	359.5
976.879	362.5
982.046	355.5
987.208	347.5
992.364	362.5
997.515	356.5
1002.66	360.5
1007.801	368.5
1012.936	369.5
1018.066	383.5
1023.19	380.5
1028.309	385.5
1033.423	384.5
1038.532	381.5
1043.636	386.5
1048.734	385.5
1053.827	381.5
1058.915	400.5
1063.998	401.5
1069.075	409.5
1074.147	410.5
1079.214	417.5
1084.276	415.5
1089.333	427.5
1094.385	418.5
1099.431	417.5
1104.472	401.5
1109.509	393.5
1114.54	384.5
1119.565	379.5
1124.586	389.5
1129.602	398.5
1134.613	379.5
1139.618	373.5
1144.619	345.5
1149.614	336.5
1154.604	334.5
1159.589	333.5
1164.57	329.5
1169.545	329.5
1174.515	320.5
1179.48	311.5
1184.44	305.5
1189.395	298.5
1194.345	306.5
1199.29	291.5
1204.23	290.5
1209.165	303.5
1214.095	305.5
1219.021	301.5
1223.941	302.5
1228.856	315.5
1233.766	321.5
1238.672	316.5
1243.572	333.5
1248.467	328.5
1253.358	328.5
1258.244	328.5
1263.124	323.5
1268	335.5
1272.871	329.5
1277.737	326.5
1282.599	320.5
1287.455	310.5
1292.306	330.5
1297.153	328.5
1301.995	358.5
1306.832	366.5
1311.664	356.5
1316.491	330.5
1321.314	330.5
1326.132	318.5
1330.945	299.5
1335.753	290.5
1340.556	285.5
1345.354	287.5
1350.148	282.5
1354.937	274.5
1359.722	269.5
1364.501	268.5
1369.276	274.5
1374.046	275.5
1378.811	280.5
1383.572	266.5
1388.327	271.5
1393.079	258.5
1397.825	254.5
1402.567	252.5
1407.304	245.5
1412.036	251.5
1416.764	245.5
1421.487	254.5
1426.205	262.5
1430.919	269.5
1435.628	295.5
1440.333	315.5
1445.032	341.5
1449.727	348.5
1454.418	346.5
1459.104	333.5
1463.785	324.5
1468.462	309.5
1473.134	285.5
1477.802	261.5
1482.465	235.5
1487.123	220.5
1491.777	208.5
1496.426	201.5
1501.071	202.5
1505.711	206.5
1510.347	203.5
1514.978	201.5
1519.604	204.5
1524.226	195.5
1528.844	201.5
1533.457	197.5
1538.065	190.5
1542.669	192.5
1547.269	195.5
1551.864	193.5
1556.454	186.5
1561.041	196.5
1565.622	184.5
1570.199	188.5
1574.772	185.5
1579.34	196.5
1583.904	193.5
1588.464	195.5
1593.019	201.5
1597.569	198.5
1602.115	199.5
1606.657	191.5
1611.195	201.5
1615.728	195.5
1620.256	201.5
1624.78	199.5
1629.3	205.5
1633.816	211.5
1638.327	213.5
1642.834	217.5
1647.336	223.5
1651.834	226.5
1656.328	229.5
1660.817	235.5
1665.302	233.5
1669.783	226.5
1674.259	217.5
1678.732	211.5
1683.199	198.5
1687.663	190.5
1692.122	176.5
1696.577	174.5
1701.028	167.5
1705.474	166.5
1709.917	160.5
1714.355	157.5
1718.788	148.5
1723.218	143.5
1727.643	138.5
1732.064	135.5
1736.481	140.5
1740.893	137.5
1745.301	134.5
1749.705	126.5
1754.105	124.5
1758.501	120.5
1762.893	116.5
1767.28	106.5
1771.663	110.5
1776.042	107.5
1780.417	105.5
1784.787	109.5
1789.154	100.5
1793.516	103.5
1797.874	109.5
1802.228	109.5
1806.578	106.5
1810.924	107.5
1815.266	108.5
1819.603	101.5
1823.937	100.5
1828.266	100.5
1832.591	97.5
1836.913	91.5
1841.23	87.5
1845.543	92.5
1849.852	94.5
1854.156	95.5
1858.457	99.5
1862.754	95.5
1867.047	91.5
1871.335	86.5
1875.62	91.5
1879.9	86.5
1884.177	88.5
1888.449	90.5
1892.718	87.5
1896.982	95.5
1901.243	93.5
1905.499	91.5
1909.752	89.5
1914	89.5
1918.245	81.5
1922.485	82.5
1926.722	88.5
1930.954	88.5
1935.183	86.5
1939.408	90.5
1943.628	84.5
1947.845	86.5
1952.058	84.5
1956.267	90.5
1960.472	92.5
1964.673	85.5
1968.87	87.5
1973.063	82.5
1977.252	77.5
1981.438	72.5
1985.619	76.5
1989.797	73.5
1993.971	77.5
1998.14	76.5
2002.306	79.5
2006.469	75.5
2010.627	72.5
2014.781	78.5
2018.932	77.5
2023.078	73.5
2027.221	74.5
2031.36	65.5
2035.495	70.5
2039.627	71.5
2043.754	69.5
2047.878	67.5
2051.998	69.5
2056.114	68.5
2060.226	65.5
2064.334	67.5
2068.439	66.5
2072.54	64.5
2076.637	72.5
2080.73	71.5
2084.82	75.5
2088.906	80.5
2092.988	70.5
2097.066	67.5
2101.14	73.5
2105.211	67.5
2109.278	63.5
2113.342	68.5
2117.401	68.5
2121.457	68.5
2125.509	65.5
2129.558	68.5
2133.602	62.5
2137.643	67.5
2141.681	62.5
2145.714	62.5
2149.744	65.5
2153.77	62.5
2157.793	58.5
2161.812	62.5
2165.827	54.5
2169.838	57.5
2173.846	55.5
2177.851	52.5
2181.851	53.5
2185.848	53.5
2189.841	49.5
2193.831	53.5
2197.817	48.5
2201.799	48.5
2205.778	49.5
2209.753	44.5
2213.725	47.5
2217.693	49.5
2221.657	48.5
2225.618	47.5
2229.575	44.5
2233.529	45.5
2237.479	47.5
2241.425	43.5
2245.368	46.5
2249.307	39.5
2253.243	42.5
2257.175	39.5
2261.104	42.5
2265.029	40.5
2268.95	44.5
2272.868	37.5
2276.783	35.5
2280.694	39.5
2284.601	29.5
2288.505	36.5
2292.405	32.5
2296.302	39.5
2300.195	36.5
2304.085	34.5
2307.971	34.5
2311.854	29.5
2315.734	27.5
2319.609	29.5
2323.482	32.5
2327.351	32.5
2331.216	35.5
2335.078	29.5
2338.937	30.5
2342.792	23.5
2346.643	21.5
2350.492	23.5
2354.336	25.5
2358.178	22.5
2362.015	23.5
2365.85	24.5
2369.681	22.5
2373.508	24.5
2377.333	23.5
2381.153	22.5
2384.971	20.5
2388.785	19.5
2392.595	24.5
2396.402	18.5
2400.206	18.5
2404.007	20.5
2407.804	23.5
2411.597	23.5
2415.388	18.5
2419.174	15.5
2422.958	14.5
2426.738	17.5
2430.515	20.5
2434.289	18.5
2438.059	23.5
2441.825	18.5
2445.589	12.5
2449.349	16.5
2453.106	17.5
2456.859	13.5
2460.61	15.5
2464.356	18.5
2468.1	18.5
2471.84	19.5
2475.577	14.5
2479.311	11.5
2483.041	14.5
2486.768	13.5
2490.492	14.5
2494.213	15.5
2497.93	14.5
2501.644	13.5
2505.355	12.5
2509.062	14.5
2512.766	14.5
2516.467	14.5
2520.165	7.5
2523.859	11.5
2527.551	15.5
2531.239	14.5
2534.923	10.5
2538.605	7.5
2542.283	8.5
2545.958	13.5
2549.63	13.5
2553.299	11.5
2556.964	13.5
2560.626	14.5
2564.285	10.5
2567.941	9.5
2571.594	12.5
2575.243	10.5
2578.89	10.5
2582.533	8.5
2586.173	12.5
2589.809	8.5
2593.443	12.5
2597.073	11.5
2600.701	11.5
2604.325	13.5
2607.946	15.5
2611.564	9.5
2615.178	12.5
2618.79	10.5
2622.398	11.5
2626.004	13.5
2629.606	13.5
2633.205	12.5
2636.801	10.5
2640.394	13.5
2643.983	11.5
2647.57	7.5
2651.153	9.5
2654.734	5.5
2658.311	13.5
2661.885	12.5
2665.456	6.5
2669.025	4.5
2672.589	6.5
2676.151	6.5
2679.71	6.5
2683.266	11.5
2686.819	11.5
2690.368	10.5
2693.915	11.5
2697.458	6.5
2700.999	8.5
2704.536	6.5
2708.071	5.5
2711.602	3.5
2715.13	5.5
2718.656	4.5
2722.178	7.5
2725.697	8.5
2729.214	11.5
2732.727	13.5
2736.237	13.5
2739.744	15.5
2743.249	13.5
2746.75	8.5
2750.248	8.5
2753.743	8.5
2757.236	13.5
2760.725	11.5
2764.211	11.5
2767.695	10.5
2771.175	13.5
2774.652	6.5
2778.127	11.5
2781.598	9.5
2785.067	11.5
2788.532	7.5
2791.995	8.5
2795.455	9.5
2798.911	6.5
2802.365	9.5
2805.816	10.5
2809.264	16.5
2812.709	17.5
2816.151	19.5
2819.59	24.5
2823.026	21.5
2826.46	30.5
2829.89	30.5
2833.318	24.5
2836.742	30.5
2840.164	45.5
2843.583	55.5
2846.999	69.5
2850.412	79.5
2853.822	83.5
2857.229	97.5
2860.634	95.5
2864.035	93.5
2867.434	96.5
2870.83	97.5
2874.223	101.5
2877.613	113.5
2881	114.5
2884.385	126.5
2887.766	126.5
2891.145	118.5
2894.521	121.5
2897.894	119.5
2901.264	115.5
2904.631	114.5
2907.996	115.5
2911.358	116.5
2914.717	115.5
2918.073	111.5
2921.426	105.5
2924.777	104.5
2928.124	104.5
2931.469	105.5
2934.811	113.5
2938.15	100.5
2941.487	105.5
2944.821	99.5
2948.152	85.5
2951.48	82.5
2954.805	76.5
2958.128	76.5
2961.447	78.5
2964.765	72.5
2968.079	65.5
2971.39	63.5
2974.699	57.5
2978.005	57.5
2981.308	52.5
2984.609	46.5
2987.907	53.5
2991.202	53.5
2994.494	47.5
2997.784	44.5
3001.07	41.5
3004.355	46.5
3007.636	40.5
3010.915	37.5
3014.191	39.5
3017.464	35.5
3020.734	37.5
3024.002	35.5
3027.267	32.5
3030.53	35.5
3033.789	39.5
3037.046	30.5
3040.301	35.5
3043.552	34.5
3046.801	37.5
3050.048	43.5
3053.291	39.5
3056.532	43.5
3059.771	45.5
3063.006	41.5
3066.239	46.5
3069.469	44.5
3072.697	46.5
3075.922	54.5
3079.144	56.5
3082.364	50.5
3085.581	49.5
3088.795	50.5
3092.007	52.5
3095.216	58.5
3098.423	60.5
3101.627	64.5
3104.828	63.5
3108.026	65.5
3111.222	63.5
3114.416	65.5
3117.607	69.5
3120.795	72.5
3123.98	74.5
3127.163	74.5
3130.344	78.5
3133.521	76.5
3136.696	73.5
3139.869	81.5
3143.039	78.5
3146.206	88.5
3149.371	83.5
3152.533	92.5
3155.693	84.5
3158.85	84.5
3162.005	88.5
3165.157	86.5
3168.306	94.5
3171.453	90.5
3174.597	91.5
3177.739	89.5
3180.878	88.5
3184.014	86.5
3187.149	95.5
3190.28	88.5
3193.409	91.5
3196.536	89.5
3199.659	90.5
3202.781	90.5
3205.9	89.5
3209.016	94.5
3212.13	96.5
3215.241	93.5
3218.35	91.5
3221.456	89.5
3224.56	87.5
3227.661	85.5
3230.76	87.5
3233.856	90.5
3236.95	87.5
3240.041	84.5
3243.13	84.5
3246.216	81.5
3249.3	81.5
3252.382	83.5
3255.46	81.5
3258.537	81.5
3261.611	80.5
3264.682	78.5
3267.751	81.5
3270.818	78.5
3273.882	73.5
3276.943	75.5
3280.002	74.5
3283.059	76.5
3286.113	82.5
3289.165	78.5
3292.214	76.5
3295.261	73.5
3298.306	75.5
3301.348	69.5
3304.387	64.5
3307.425	65.5
3310.459	65.5
3313.492	65.5
3316.521	63.5
3319.549	65.5
3322.574	59.5
3325.597	59.5
3328.617	63.5
3331.635	55.5
3334.65	59.5
3337.663	55.5
3340.674	60.5
3343.682	62.5
3346.688	58.5
3349.691	61.5
3352.692	55.5
3355.691	52.5
3358.687	54.5
3361.681	55.5
3364.673	61.5
3367.662	59.5
3370.649	60.5
3373.633	55.5
3376.615	50.5
3379.595	47.5
3382.572	45.5
3385.547	49.5
3388.52	50.5
3391.49	49.5
3394.458	47.5
3397.424	43.5
3400.387	43.5
3403.348	42.5
3406.307	41.5
3409.263	42.5
3412.217	44.5
3415.168	40.5
3418.118	46.5
3421.065	39.5
3424.009	37.5
3426.951	37.5
3429.891	38.5
3432.829	37.5
3435.764	32.5
3438.697	36.5
3441.628	30.5
3444.557	34.5
3447.483	33.5
3450.407	31.5
3453.328	27.5
3456.247	29.5
3459.164	28.5
3462.079	22.5
3464.991	24.5
3467.902	22.5
3470.809	25.5
3473.715	18.5
3476.618	19.5
3479.519	21.5
3482.418	14.5
3485.315	16.5
3488.209	12.5
3491.101	15.5
3493.99	16.5
3496.878	14.5
3499.763	13.5
3502.646	4.5
3505.527	9.5
3508.405	6.5
3511.281	5.5
3514.155	4.5
3517.027	6.5
3519.897	5.5
3522.764	6.5
3525.629	3.5
3528.492	-0.5
3531.352	-2.5
3534.211	0.5
3537.067	-3.5
3539.921	2.5
3542.773	-2.5
3545.622	-2.5
3548.469	-6.5
3551.315	-6.5
3554.157	-9.5
3556.998	-7.5
3559.837	-7.5
3562.673	-6.5
3565.507	-13.5
3568.339	-5.5
3571.169	-7.5
3573.996	-10.5
3576.822	-9.5
3579.645	-14.5
3582.466	-12.5
3585.285	-12.5
3588.101	-11.5
3590.916	-16.5
3593.728	-16.5
3596.538	-16.5
3599.346	-15.5
3602.152	-14.5
3604.956	-13.5
3607.757	-16.5
3610.556	-17.5
3613.354	-19.5
3616.149	-22.5
3618.942	-17.5
3621.732	-20.5
3624.521	-15.5
3627.307	-13.5
3630.092	-18.5
3632.874	-19.5
3635.654	-21.5
3638.432	-23.5
3641.208	-20.5
3643.982	-23.5
3646.753	-20.5
3649.523	-18.5
3652.29	-16.5
3655.055	-20.5
3657.818	-22.5
3660.579	-24.5
3663.338	-21.5
3666.095	-20.5
3668.849	-19.5
3671.602	-17.5
3674.352	-23.5
3677.101	-21.5
3679.847	-24.5
3682.591	-24.5
3685.333	-22.5
3688.073	-25.5
3690.811	-24.5
3693.547	-27.5
3696.281	-21.5
3699.013	-27.5
3701.742	-23.5
3704.47	-26.5
3707.195	-25.5
3709.919	-26.5
3712.64	-29.5
3715.359	-25.5
3718.076	-21.5
3720.792	-27.5
3723.505	-21.5
3726.216	-22.5
3728.925	-26.5
3731.632	-29.5
3734.336	-25.5
3737.039	-23.5
3739.74	-28.5
3742.439	-24.5
3745.136	-21.5
3747.83	-20.5
3750.523	-23.5
3753.213	-28.5
3755.902	-27.5
3758.589	-28.5
3761.273	-26.5
3763.956	-22.5
3766.636	-24.5
3769.315	-21.5
3771.991	-24.5
3774.665	-29.5
3777.338	-25.5
3780.008	-25.5
3782.677	-27.5
3785.343	-28.5
3788.007	-25.5
3790.67	-24.5
3793.33	-26.5
3795.989	-29.5
3798.645	-27.5
3801.299	-25.5
3803.952	-28.5
3806.602	-27.5
3809.251	-27.5
3811.897	-26.5
3814.542	-28.5
3817.184	-24.5
3819.825	-26.5
3822.463	-23.5
3825.1	-25.5
3827.735	-25.5
3830.367	-26.5
3832.998	-27.5
3835.627	-26.5
3838.253	-24.5
3840.878	-23.5
3843.501	-22.5
3846.122	-27.5
3848.741	-25.5
3851.358	-27.5
3853.973	-28.5
3856.586	-29.5
3859.197	-28.5
3861.806	-24.5
3864.414	-24.5
3867.019	-23.5
3869.622	-25.5
3872.224	-31.5
3874.823	-27.5
3877.421	-24.5
3880.016	-22.5
3882.61	-19.5
3885.202	-9.5
3887.792	-10.5
3890.38	-20.5
3892.966	-25.5
3895.55	-24.5
3898.132	-28.5
3900.713	-26.5
3903.291	-26.5
3905.868	-29.5
3908.442	-25.5
3911.015	-25.5
3913.586	-26.5
3916.155	-27.5
3918.722	-28.5
3921.287	-24.5
3923.85	-27.5
3926.411	-30.5
3928.971	-24.5
3931.528	-28.5
3934.084	-27.5
3936.638	-25.5
3939.19	-27.5
3941.74	-25.5
3944.288	-25.5
3946.834	-27.5
3949.378	-28.5
3951.921	-28.5
3954.462	-24.5
3957	-26.5
3959.537	-23.5
3962.072	-28.5
3964.606	-25.5
3967.137	-26.5
3969.667	-30.5
3972.194	-29.5
3974.72	-26.5
3977.244	-24.5
3979.766	-24.5
3982.286	-23.5
3984.805	-26.5
3987.321	-30.5
3989.836	-30.5
3992.349	-28.5
3994.86	-27.5
3997.369	-26.5
3999.877	-24.5
4002.382	-26.5
4004.886	-26.5
4007.388	-25.5
4009.888	-26.5
4012.386	-29.5
4014.883	-29.5
4017.377	-24.5
4019.87	-25.5
4022.361	-22.5
4024.85	-26.5
4027.338	-26.5
4029.823	-27.5
4032.307	-29.5
4034.789	-25.5
4037.269	-26.5
4039.747	-22.5
4042.224	-25.5
4044.699	-28.5
4047.172	-29.5
4049.643	-27.5
4052.112	-25.5
4054.58	-24.5
4057.046	-26.5
4059.51	-30.5
4061.972	-27.5
4064.432	-25.5
4066.891	-25.5
4069.348	-24.5
4071.803	-25.5
4074.256	-26.5
4076.708	-23.5
4079.158	-27.5
4081.606	-27.5
4084.052	-24.5
4086.497	-24.5
4088.939	-22.5
4091.38	-25.5
4093.819	-26.5
4096.257	-26.5
4098.693	-31.5
4101.127	-29.5
4103.559	-30.5
4105.989	-13.5
4108.418	-12.5
4110.845	-6.5
4113.27	-12.5
4115.694	-10.5
4118.115	-10.5
4120.535	-28.5
4122.954	-29.5
4125.37	-28.5
4127.785	-23.5
4130.198	-21.5
4132.609	-26.5
4135.019	-27.5
4137.427	-26.5
4139.833	-25.5
4142.237	-30.5
