Data from 10CFU1_B_RamanShift_1.txt Node
Date: Thu Feb 02 14:19:00 IST 2017
User: aro
Spectrometer: QEPB0276
Trigger mode: 0
Integration Time (sec): 5.000000E0
Scans to average: 1
Electric dark correction enabled: true
Nonlinearity correction enabled: false
Boxcar width: 0
XAxis mode: Raman Shifts
Number of Pixels in Spectrum: 1044
>>>>>Begin Spectral Data<<<<<
160.701	-0.62
166.742	4.38
172.777	20.38
178.805	78.38
184.826	210.38
190.841	393.38
196.849	628.38
202.85	779.38
208.845	815.38
214.833	811.38
220.815	789.38
226.789	779.38
232.758	769.38
238.719	769.38
244.674	759.38
250.623	734.38
256.565	732.38
262.5	714.38
268.429	689.38
274.351	687.38
280.267	669.38
286.176	663.38
292.079	662.38
297.975	655.38
303.865	641.38
309.748	653.38
315.625	642.38
321.495	643.38
327.359	635.38
333.217	644.38
339.068	649.38
344.912	652.38
350.751	669.38
356.583	661.38
362.408	666.38
368.227	658.38
374.04	638.38
379.847	651.38
385.647	639.38
391.44	650.38
397.228	648.38
403.009	658.38
408.784	660.38
414.553	673.38
420.315	677.38
426.071	665.38
431.821	675.38
437.565	670.38
443.302	670.38
449.033	663.38
454.758	659.38
460.477	659.38
466.189	641.38
471.896	644.38
477.596	642.38
483.29	628.38
488.978	630.38
494.66	620.38
500.335	599.38
506.005	577.38
511.668	568.38
517.325	543.38
522.977	527.38
528.622	515.38
534.261	485.38
539.894	466.38
545.521	475.38
551.141	463.38
556.756	465.38
562.365	459.38
567.968	455.38
573.565	446.38
579.155	441.38
584.74	441.38
590.319	437.38
595.892	439.38
601.459	443.38
607.02	443.38
612.575	428.38
618.124	428.38
623.667	418.38
629.204	419.38
634.735	405.38
640.261	410.38
645.781	412.38
651.294	405.38
656.802	401.38
662.304	398.38
667.8	392.38
673.29	397.38
678.775	389.38
684.254	379.38
689.726	381.38
695.193	374.38
700.655	386.38
706.11	374.38
711.56	372.38
717.004	381.38
722.442	377.38
727.874	376.38
733.301	369.38
738.722	363.38
744.137	365.38
749.547	366.38
754.951	370.38
760.349	368.38
765.741	363.38
771.128	366.38
776.509	370.38
781.885	368.38
787.254	376.38
792.618	374.38
797.977	369.38
803.33	378.38
808.677	367.38
814.019	369.38
819.355	363.38
824.686	360.38
830.011	365.38
835.33	374.38
840.644	381.38
845.952	384.38
851.255	377.38
856.552	374.38
861.844	379.38
867.13	381.38
872.41	384.38
877.686	380.38
882.955	389.38
888.219	381.38
893.478	371.38
898.731	363.38
903.979	360.38
909.221	338.38
914.458	342.38
919.69	340.38
924.916	337.38
930.136	335.38
935.351	335.38
940.561	342.38
945.766	334.38
950.965	333.38
956.158	332.38
961.347	331.38
966.529	314.38
971.707	305.38
976.879	303.38
982.046	307.38
987.208	297.38
992.364	305.38
997.515	299.38
1002.66	317.38
1007.801	316.38
1012.936	333.38
1018.066	328.38
1023.19	324.38
1028.309	329.38
1033.423	338.38
1038.532	326.38
1043.636	329.38
1048.734	337.38
1053.827	334.38
1058.915	350.38
1063.998	345.38
1069.075	353.38
1074.147	352.38
1079.214	358.38
1084.276	368.38
1089.333	361.38
1094.385	366.38
1099.431	363.38
1104.472	358.38
1109.509	336.38
1114.54	339.38
1119.565	327.38
1124.586	333.38
1129.602	341.38
1134.613	327.38
1139.618	317.38
1144.619	299.38
1149.614	288.38
1154.604	287.38
1159.589	286.38
1164.57	279.38
1169.545	279.38
1174.515	267.38
1179.48	275.38
1184.44	265.38
1189.395	259.38
1194.345	248.38
1199.29	249.38
1204.23	258.38
1209.165	256.38
1214.095	262.38
1219.021	256.38
1223.941	261.38
1228.856	265.38
1233.766	272.38
1238.672	268.38
1243.572	279.38
1248.467	282.38
1253.358	287.38
1258.244	287.38
1263.124	286.38
1268	291.38
1272.871	283.38
1277.737	284.38
1282.599	270.38
1287.455	265.38
1292.306	279.38
1297.153	292.38
1301.995	308.38
1306.832	316.38
1311.664	307.38
1316.491	295.38
1321.314	288.38
1326.132	268.38
1330.945	265.38
1335.753	248.38
1340.556	253.38
1345.354	248.38
1350.148	248.38
1354.937	241.38
1359.722	236.38
1364.501	230.38
1369.276	234.38
1374.046	239.38
1378.811	235.38
1383.572	232.38
1388.327	233.38
1393.079	223.38
1397.825	212.38
1402.567	212.38
1407.304	205.38
1412.036	215.38
1416.764	216.38
1421.487	224.38
1426.205	232.38
1430.919	237.38
1435.628	254.38
1440.333	287.38
1445.032	307.38
1449.727	314.38
1454.418	302.38
1459.104	304.38
1463.785	287.38
1468.462	263.38
1473.134	255.38
1477.802	233.38
1482.465	214.38
1487.123	193.38
1491.777	183.38
1496.426	172.38
1501.071	170.38
1505.711	169.38
1510.347	175.38
1514.978	176.38
1519.604	177.38
1524.226	169.38
1528.844	165.38
1533.457	164.38
1538.065	165.38
1542.669	167.38
1547.269	173.38
1551.864	171.38
1556.454	172.38
1561.041	166.38
1565.622	160.38
1570.199	157.38
1574.772	161.38
1579.34	167.38
1583.904	164.38
1588.464	170.38
1593.019	167.38
1597.569	169.38
1602.115	168.38
1606.657	169.38
1611.195	172.38
1615.728	173.38
1620.256	176.38
1624.78	174.38
1629.3	184.38
1633.816	176.38
1638.327	183.38
1642.834	187.38
1647.336	191.38
1651.834	202.38
1656.328	209.38
1660.817	204.38
1665.302	204.38
1669.783	196.38
1674.259	185.38
1678.732	177.38
1683.199	176.38
1687.663	166.38
1692.122	154.38
1696.577	148.38
1701.028	147.38
1705.474	140.38
1709.917	140.38
1714.355	138.38
1718.788	124.38
1723.218	126.38
1727.643	119.38
1732.064	113.38
1736.481	121.38
1740.893	112.38
1745.301	116.38
1749.705	112.38
1754.105	112.38
1758.501	104.38
1762.893	96.38
1767.28	91.38
1771.663	97.38
1776.042	95.38
1780.417	91.38
1784.787	90.38
1789.154	94.38
1793.516	95.38
1797.874	93.38
1802.228	93.38
1806.578	98.38
1810.924	90.38
1815.266	81.38
1819.603	81.38
1823.937	86.38
1828.266	80.38
1832.591	80.38
1836.913	83.38
1841.23	75.38
1845.543	77.38
1849.852	74.38
1854.156	79.38
1858.457	81.38
1862.754	75.38
1867.047	76.38
1871.335	76.38
1875.62	77.38
1879.9	70.38
1884.177	73.38
1888.449	72.38
1892.718	76.38
1896.982	74.38
1901.243	73.38
1905.499	77.38
1909.752	78.38
1914	78.38
1918.245	68.38
1922.485	64.38
1926.722	73.38
1930.954	76.38
1935.183	78.38
1939.408	76.38
1943.628	70.38
1947.845	74.38
1952.058	72.38
1956.267	72.38
1960.472	70.38
1964.673	70.38
1968.87	71.38
1973.063	70.38
1977.252	65.38
1981.438	62.38
1985.619	62.38
1989.797	62.38
1993.971	63.38
1998.14	63.38
2002.306	63.38
2006.469	60.38
2010.627	59.38
2014.781	65.38
2018.932	64.38
2023.078	64.38
2027.221	65.38
2031.36	59.38
2035.495	55.38
2039.627	62.38
2043.754	60.38
2047.878	59.38
2051.998	58.38
2056.114	54.38
2060.226	60.38
2064.334	60.38
2068.439	58.38
2072.54	53.38
2076.637	59.38
2080.73	61.38
2084.82	65.38
2088.906	65.38
2092.988	63.38
2097.066	61.38
2101.14	60.38
2105.211	57.38
2109.278	54.38
2113.342	54.38
2117.401	55.38
2121.457	60.38
2125.509	55.38
2129.558	58.38
2133.602	55.38
2137.643	57.38
2141.681	53.38
2145.714	48.38
2149.744	53.38
2153.77	52.38
2157.793	51.38
2161.812	56.38
2165.827	46.38
2169.838	44.38
2173.846	47.38
2177.851	40.38
2181.851	46.38
2185.848	46.38
2189.841	45.38
2193.831	46.38
2197.817	45.38
2201.799	44.38
2205.778	43.38
2209.753	41.38
2213.725	44.38
2217.693	42.38
2221.657	39.38
2225.618	35.38
2229.575	40.38
2233.529	38.38
2237.479	39.38
2241.425	40.38
2245.368	40.38
2249.307	38.38
2253.243	33.38
2257.175	37.38
2261.104	31.38
2265.029	37.38
2268.95	36.38
2272.868	31.38
2276.783	29.38
2280.694	28.38
2284.601	27.38
2288.505	24.38
2292.405	26.38
2296.302	28.38
2300.195	29.38
2304.085	23.38
2307.971	25.38
2311.854	24.38
2315.734	19.38
2319.609	19.38
2323.482	25.38
2327.351	23.38
2331.216	29.38
2335.078	26.38
2338.937	26.38
2342.792	19.38
2346.643	16.38
2350.492	16.38
2354.336	19.38
2358.178	18.38
2362.015	22.38
2365.85	18.38
2369.681	19.38
2373.508	20.38
2377.333	19.38
2381.153	16.38
2384.971	17.38
2388.785	13.38
2392.595	21.38
2396.402	16.38
2400.206	17.38
2404.007	19.38
2407.804	18.38
2411.597	18.38
2415.388	11.38
2419.174	14.38
2422.958	12.38
2426.738	10.38
2430.515	15.38
2434.289	13.38
2438.059	18.38
2441.825	12.38
2445.589	12.38
2449.349	9.38
2453.106	11.38
2456.859	9.38
2460.61	9.38
2464.356	17.38
2468.1	16.38
2471.84	12.38
2475.577	12.38
2479.311	5.38
2483.041	6.38
2486.768	10.38
2490.492	14.38
2494.213	15.38
2497.93	12.38
2501.644	6.38
2505.355	9.38
2509.062	6.38
2512.766	6.38
2516.467	7.38
2520.165	9.38
2523.859	13.38
2527.551	10.38
2531.239	10.38
2534.923	8.38
2538.605	5.38
2542.283	4.38
2545.958	7.38
2549.63	8.38
2553.299	9.38
2556.964	12.38
2560.626	13.38
2564.285	9.38
2567.941	9.38
2571.594	5.38
2575.243	9.38
2578.89	13.38
2582.533	11.38
2586.173	11.38
2589.809	8.38
2593.443	8.38
2597.073	7.38
2600.701	11.38
2604.325	5.38
2607.946	6.38
2611.564	7.38
2615.178	10.38
2618.79	10.38
2622.398	9.38
2626.004	9.38
2629.606	11.38
2633.205	11.38
2636.801	3.38
2640.394	13.38
2643.983	7.38
2647.57	7.38
2651.153	6.38
2654.734	4.38
2658.311	6.38
2661.885	10.38
2665.456	5.38
2669.025	4.38
2672.589	1.38
2676.151	5.38
2679.71	9.38
2683.266	6.38
2686.819	5.38
2690.368	4.38
2693.915	4.38
2697.458	5.38
2700.999	-2.62
2704.536	8.38
2708.071	8.38
2711.602	5.38
2715.13	6.38
2718.656	7.38
2722.178	10.38
2725.697	5.38
2729.214	6.38
2732.727	8.38
2736.237	13.38
2739.744	10.38
2743.249	10.38
2746.75	9.38
2750.248	10.38
2753.743	6.38
2757.236	7.38
2760.725	6.38
2764.211	10.38
2767.695	7.38
2771.175	12.38
2774.652	6.38
2778.127	4.38
2781.598	6.38
2785.067	5.38
2788.532	3.38
2791.995	9.38
2795.455	8.38
2798.911	10.38
2802.365	8.38
2805.816	10.38
2809.264	15.38
2812.709	11.38
2816.151	16.38
2819.59	16.38
2823.026	17.38
2826.46	23.38
2829.89	27.38
2833.318	26.38
2836.742	25.38
2840.164	40.38
2843.583	45.38
2846.999	54.38
2850.412	67.38
2853.822	76.38
2857.229	84.38
2860.634	84.38
2864.035	86.38
2867.434	87.38
2870.83	88.38
2874.223	92.38
2877.613	94.38
2881	101.38
2884.385	113.38
2887.766	116.38
2891.145	113.38
2894.521	112.38
2897.894	107.38
2901.264	103.38
2904.631	102.38
2907.996	106.38
2911.358	105.38
2914.717	101.38
2918.073	98.38
2921.426	94.38
2924.777	95.38
2928.124	94.38
2931.469	96.38
2934.811	97.38
2938.15	98.38
2941.487	97.38
2944.821	86.38
2948.152	79.38
2951.48	76.38
2954.805	73.38
2958.128	66.38
2961.447	66.38
2964.765	61.38
2968.079	60.38
2971.39	58.38
2974.699	53.38
2978.005	53.38
2981.308	48.38
2984.609	45.38
2987.907	43.38
2991.202	43.38
2994.494	42.38
2997.784	38.38
3001.07	39.38
3004.355	38.38
3007.636	39.38
3010.915	38.38
3014.191	32.38
3017.464	31.38
3020.734	33.38
3024.002	32.38
3027.267	28.38
3030.53	33.38
3033.789	33.38
3037.046	29.38
3040.301	30.38
3043.552	30.38
3046.801	34.38
3050.048	34.38
3053.291	37.38
3056.532	39.38
3059.771	36.38
3063.006	40.38
3066.239	45.38
3069.469	40.38
3072.697	39.38
3075.922	49.38
3079.144	50.38
3082.364	46.38
3085.581	43.38
3088.795	48.38
3092.007	42.38
3095.216	52.38
3098.423	53.38
3101.627	60.38
3104.828	60.38
3108.026	59.38
3111.222	55.38
3114.416	57.38
3117.607	59.38
3120.795	59.38
3123.98	59.38
3127.163	73.38
3130.344	68.38
3133.521	69.38
3136.696	72.38
3139.869	68.38
3143.039	78.38
3146.206	75.38
3149.371	77.38
3152.533	75.38
3155.693	78.38
3158.85	76.38
3162.005	82.38
3165.157	82.38
3168.306	80.38
3171.453	82.38
3174.597	77.38
3177.739	76.38
3180.878	80.38
3184.014	83.38
3187.149	80.38
3190.28	83.38
3193.409	81.38
3196.536	83.38
3199.659	84.38
3202.781	83.38
3205.9	79.38
3209.016	83.38
3212.13	88.38
3215.241	81.38
3218.35	83.38
3221.456	82.38
3224.56	80.38
3227.661	77.38
3230.76	76.38
3233.856	78.38
3236.95	70.38
3240.041	74.38
3243.13	73.38
3246.216	77.38
3249.3	79.38
3252.382	78.38
3255.46	72.38
3258.537	71.38
3261.611	71.38
3264.682	70.38
3267.751	73.38
3270.818	70.38
3273.882	73.38
3276.943	69.38
3280.002	65.38
3283.059	71.38
3286.113	68.38
3289.165	64.38
3292.214	63.38
3295.261	65.38
3298.306	64.38
3301.348	61.38
3304.387	63.38
3307.425	59.38
3310.459	57.38
3313.492	55.38
3316.521	50.38
3319.549	58.38
3322.574	59.38
3325.597	56.38
3328.617	57.38
3331.635	53.38
3334.65	57.38
3337.663	51.38
3340.674	51.38
3343.682	55.38
3346.688	52.38
3349.691	55.38
3352.692	52.38
3355.691	53.38
3358.687	49.38
3361.681	46.38
3364.673	58.38
3367.662	52.38
3370.649	51.38
3373.633	48.38
3376.615	45.38
3379.595	40.38
3382.572	46.38
3385.547	43.38
3388.52	45.38
3391.49	47.38
3394.458	43.38
3397.424	38.38
3400.387	36.38
3403.348	40.38
3406.307	42.38
3409.263	40.38
3412.217	44.38
3415.168	37.38
3418.118	37.38
3421.065	37.38
3424.009	30.38
3426.951	34.38
3429.891	39.38
3432.829	34.38
3435.764	37.38
3438.697	35.38
3441.628	25.38
3444.557	28.38
3447.483	23.38
3450.407	28.38
3453.328	24.38
3456.247	28.38
3459.164	27.38
3462.079	21.38
3464.991	21.38
3467.902	19.38
3470.809	20.38
3473.715	17.38
3476.618	21.38
3479.519	13.38
3482.418	11.38
3485.315	14.38
3488.209	10.38
3491.101	9.38
3493.99	11.38
3496.878	10.38
3499.763	13.38
3502.646	11.38
3505.527	7.38
3508.405	10.38
3511.281	5.38
3514.155	6.38
3517.027	5.38
3519.897	3.38
3522.764	2.38
3525.629	0.38
3528.492	-1.62
3531.352	-0.62
3534.211	0.38
3537.067	-2.62
3539.921	-1.62
3542.773	-3.62
3545.622	-4.62
3548.469	-7.62
3551.315	-7.62
3554.157	-6.62
3556.998	-4.62
3559.837	-5.62
3562.673	-4.62
3565.507	-8.62
3568.339	-6.62
3571.169	-10.62
3573.996	-8.62
3576.822	-9.62
3579.645	-9.62
3582.466	-5.62
3585.285	-8.62
3588.101	-9.62
3590.916	-16.62
3593.728	-15.62
3596.538	-16.62
3599.346	-16.62
3602.152	-13.62
3604.956	-12.62
3607.757	-10.62
3610.556	-12.62
3613.354	-16.62
3616.149	-20.62
3618.942	-14.62
3621.732	-19.62
3624.521	-19.62
3627.307	-16.62
3630.092	-14.62
3632.874	-17.62
3635.654	-16.62
3638.432	-19.62
3641.208	-20.62
3643.982	-17.62
3646.753	-18.62
3649.523	-16.62
3652.29	-15.62
3655.055	-18.62
3657.818	-25.62
3660.579	-16.62
3663.338	-18.62
3666.095	-13.62
3668.849	-18.62
3671.602	-20.62
3674.352	-18.62
3677.101	-20.62
3679.847	-21.62
3682.591	-20.62
3685.333	-19.62
3688.073	-19.62
3690.811	-23.62
3693.547	-27.62
3696.281	-24.62
3699.013	-23.62
3701.742	-23.62
3704.47	-18.62
3707.195	-18.62
3709.919	-21.62
3712.64	-26.62
3715.359	-24.62
3718.076	-20.62
3720.792	-28.62
3723.505	-18.62
3726.216	-20.62
3728.925	-22.62
3731.632	-21.62
3734.336	-22.62
3737.039	-23.62
3739.74	-26.62
3742.439	-21.62
3745.136	-24.62
3747.83	-19.62
3750.523	-19.62
3753.213	-25.62
3755.902	-20.62
3758.589	-25.62
3761.273	-25.62
3763.956	-24.62
3766.636	-24.62
3769.315	-20.62
3771.991	-24.62
3774.665	-24.62
3777.338	-20.62
3780.008	-22.62
3782.677	-22.62
3785.343	-21.62
3788.007	-21.62
3790.67	-22.62
3793.33	-23.62
3795.989	-24.62
3798.645	-22.62
3801.299	-22.62
3803.952	-23.62
3806.602	-23.62
3809.251	-25.62
3811.897	-25.62
3814.542	-26.62
3817.184	-23.62
3819.825	-23.62
3822.463	-19.62
3825.1	-22.62
3827.735	-21.62
3830.367	-23.62
3832.998	-25.62
3835.627	-26.62
3838.253	-21.62
3840.878	-21.62
3843.501	-19.62
3846.122	-18.62
3848.741	-21.62
3851.358	-23.62
3853.973	-26.62
3856.586	-26.62
3859.197	-24.62
3861.806	-21.62
3864.414	-23.62
3867.019	-20.62
3869.622	-21.62
3872.224	-24.62
3874.823	-27.62
3877.421	-21.62
3880.016	-20.62
3882.61	-16.62
3885.202	-10.62
3887.792	-10.62
3890.38	-18.62
3892.966	-22.62
3895.55	-22.62
3898.132	-22.62
3900.713	-21.62
3903.291	-25.62
3905.868	-21.62
3908.442	-22.62
3911.015	-24.62
3913.586	-23.62
3916.155	-28.62
3918.722	-24.62
3921.287	-22.62
3923.85	-24.62
3926.411	-23.62
3928.971	-19.62
3931.528	-23.62
3934.084	-25.62
3936.638	-22.62
3939.19	-28.62
3941.74	-23.62
3944.288	-23.62
3946.834	-25.62
3949.378	-25.62
3951.921	-22.62
3954.462	-23.62
3957	-23.62
3959.537	-22.62
3962.072	-25.62
3964.606	-25.62
3967.137	-25.62
3969.667	-23.62
3972.194	-23.62
3974.72	-22.62
3977.244	-20.62
3979.766	-23.62
3982.286	-18.62
3984.805	-24.62
3987.321	-28.62
3989.836	-26.62
3992.349	-25.62
3994.86	-22.62
3997.369	-21.62
3999.877	-23.62
4002.382	-23.62
4004.886	-24.62
4007.388	-24.62
4009.888	-22.62
4012.386	-22.62
4014.883	-20.62
4017.377	-21.62
4019.87	-22.62
4022.361	-18.62
4024.85	-29.62
4027.338	-27.62
4029.823	-25.62
4032.307	-22.62
4034.789	-21.62
4037.269	-23.62
4039.747	-23.62
4042.224	-22.62
4044.699	-25.62
4047.172	-28.62
4049.643	-26.62
4052.112	-24.62
4054.58	-18.62
4057.046	-21.62
4059.51	-25.62
4061.972	-22.62
4064.432	-23.62
4066.891	-24.62
4069.348	-22.62
4071.803	-22.62
4074.256	-22.62
4076.708	-20.62
4079.158	-23.62
4081.606	-22.62
4084.052	-20.62
4086.497	-23.62
4088.939	-23.62
4091.38	-23.62
4093.819	-25.62
4096.257	-23.62
4098.693	-27.62
4101.127	-23.62
4103.559	-23.62
4105.989	-8.62
4108.418	-9.62
4110.845	-8.62
4113.27	-10.62
4115.694	-9.62
4118.115	-8.62
4120.535	-23.62
4122.954	-26.62
4125.37	-22.62
4127.785	-21.62
4130.198	-21.62
4132.609	-26.62
4135.019	-26.62
4137.427	-27.62
4139.833	-23.62
4142.237	-24.62
