Data from 1CFU3_A_RamanShift_1.txt Node
Date: Thu Feb 02 13:39:55 IST 2017
User: aro
Spectrometer: QEPB0276
Trigger mode: 0
Integration Time (sec): 5.000000E0
Scans to average: 1
Electric dark correction enabled: true
Nonlinearity correction enabled: false
Boxcar width: 0
XAxis mode: Raman Shifts
Number of Pixels in Spectrum: 1044
>>>>>Begin Spectral Data<<<<<
160.701	-0.25
166.742	2.75
172.777	24.75
178.805	78.75
184.826	214.75
190.841	425.75
196.849	659.75
202.85	816.75
208.845	856.75
214.833	857.75
220.815	827.75
226.789	825.75
232.758	809.75
238.719	801.75
244.674	808.75
250.623	772.75
256.565	757.75
262.5	745.75
268.429	733.75
274.351	706.75
280.267	709.75
286.176	707.75
292.079	683.75
297.975	679.75
303.865	681.75
309.748	680.75
315.625	668.75
321.495	668.75
327.359	670.75
333.217	673.75
339.068	677.75
344.912	668.75
350.751	679.75
356.583	693.75
362.408	697.75
368.227	682.75
374.04	678.75
379.847	671.75
385.647	665.75
391.44	680.75
397.228	689.75
403.009	685.75
408.784	681.75
414.553	696.75
420.315	701.75
426.071	711.75
431.821	709.75
437.565	700.75
443.302	701.75
449.033	693.75
454.758	702.75
460.477	670.75
466.189	678.75
471.896	676.75
477.596	659.75
483.29	657.75
488.978	645.75
494.66	638.75
500.335	624.75
506.005	596.75
511.668	593.75
517.325	553.75
522.977	550.75
528.622	534.75
534.261	501.75
539.894	502.75
545.521	494.75
551.141	479.75
556.756	486.75
562.365	468.75
567.968	471.75
573.565	475.75
579.155	461.75
584.74	466.75
590.319	463.75
595.892	464.75
601.459	460.75
607.02	452.75
612.575	456.75
618.124	450.75
623.667	448.75
629.204	435.75
634.735	428.75
640.261	423.75
645.781	429.75
651.294	424.75
656.802	419.75
662.304	412.75
667.8	405.75
673.29	411.75
678.775	413.75
684.254	422.75
689.726	411.75
695.193	388.75
700.655	398.75
706.11	404.75
711.56	411.75
717.004	399.75
722.442	390.75
727.874	394.75
733.301	391.75
738.722	384.75
744.137	386.75
749.547	379.75
754.951	385.75
760.349	382.75
765.741	388.75
771.128	386.75
776.509	387.75
781.885	396.75
787.254	390.75
792.618	386.75
797.977	383.75
803.33	388.75
808.677	382.75
814.019	384.75
819.355	383.75
824.686	376.75
830.011	384.75
835.33	388.75
840.644	395.75
845.952	386.75
851.255	399.75
856.552	394.75
861.844	398.75
867.13	403.75
872.41	406.75
877.686	407.75
882.955	407.75
888.219	399.75
893.478	395.75
898.731	372.75
903.979	375.75
909.221	365.75
914.458	363.75
919.69	361.75
924.916	357.75
930.136	354.75
935.351	352.75
940.561	343.75
945.766	348.75
950.965	344.75
956.158	352.75
961.347	338.75
966.529	329.75
971.707	325.75
976.879	321.75
982.046	325.75
987.208	319.75
992.364	316.75
997.515	320.75
1002.66	332.75
1007.801	336.75
1012.936	347.75
1018.066	341.75
1023.19	346.75
1028.309	350.75
1033.423	344.75
1038.532	354.75
1043.636	354.75
1048.734	352.75
1053.827	351.75
1058.915	361.75
1063.998	358.75
1069.075	378.75
1074.147	371.75
1079.214	376.75
1084.276	374.75
1089.333	386.75
1094.385	383.75
1099.431	381.75
1104.472	366.75
1109.509	363.75
1114.54	348.75
1119.565	349.75
1124.586	352.75
1129.602	353.75
1134.613	339.75
1139.618	334.75
1144.619	310.75
1149.614	304.75
1154.604	299.75
1159.589	300.75
1164.57	297.75
1169.545	295.75
1174.515	293.75
1179.48	283.75
1184.44	280.75
1189.395	276.75
1194.345	274.75
1199.29	269.75
1204.23	269.75
1209.165	270.75
1214.095	277.75
1219.021	272.75
1223.941	271.75
1228.856	282.75
1233.766	286.75
1238.672	291.75
1243.572	306.75
1248.467	302.75
1253.358	298.75
1258.244	304.75
1263.124	300.75
1268	306.75
1272.871	298.75
1277.737	301.75
1282.599	286.75
1287.455	283.75
1292.306	304.75
1297.153	310.75
1301.995	319.75
1306.832	326.75
1311.664	318.75
1316.491	304.75
1321.314	308.75
1326.132	287.75
1330.945	278.75
1335.753	268.75
1340.556	260.75
1345.354	258.75
1350.148	256.75
1354.937	255.75
1359.722	249.75
1364.501	236.75
1369.276	244.75
1374.046	247.75
1378.811	245.75
1383.572	242.75
1388.327	236.75
1393.079	233.75
1397.825	225.75
1402.567	231.75
1407.304	222.75
1412.036	227.75
1416.764	231.75
1421.487	232.75
1426.205	243.75
1430.919	248.75
1435.628	271.75
1440.333	298.75
1445.032	316.75
1449.727	328.75
1454.418	325.75
1459.104	315.75
1463.785	304.75
1468.462	278.75
1473.134	259.75
1477.802	241.75
1482.465	225.75
1487.123	198.75
1491.777	190.75
1496.426	192.75
1501.071	179.75
1505.711	175.75
1510.347	178.75
1514.978	179.75
1519.604	175.75
1524.226	181.75
1528.844	178.75
1533.457	174.75
1538.065	179.75
1542.669	171.75
1547.269	178.75
1551.864	172.75
1556.454	171.75
1561.041	174.75
1565.622	169.75
1570.199	177.75
1574.772	174.75
1579.34	181.75
1583.904	175.75
1588.464	177.75
1593.019	176.75
1597.569	172.75
1602.115	176.75
1606.657	186.75
1611.195	182.75
1615.728	186.75
1620.256	186.75
1624.78	187.75
1629.3	187.75
1633.816	188.75
1638.327	188.75
1642.834	192.75
1647.336	209.75
1651.834	203.75
1656.328	215.75
1660.817	216.75
1665.302	211.75
1669.783	200.75
1674.259	199.75
1678.732	192.75
1683.199	186.75
1687.663	173.75
1692.122	163.75
1696.577	154.75
1701.028	157.75
1705.474	148.75
1709.917	143.75
1714.355	138.75
1718.788	129.75
1723.218	128.75
1727.643	128.75
1732.064	125.75
1736.481	124.75
1740.893	121.75
1745.301	119.75
1749.705	115.75
1754.105	113.75
1758.501	105.75
1762.893	96.75
1767.28	98.75
1771.663	99.75
1776.042	96.75
1780.417	97.75
1784.787	91.75
1789.154	98.75
1793.516	95.75
1797.874	96.75
1802.228	99.75
1806.578	91.75
1810.924	94.75
1815.266	89.75
1819.603	87.75
1823.937	88.75
1828.266	85.75
1832.591	84.75
1836.913	83.75
1841.23	77.75
1845.543	82.75
1849.852	74.75
1854.156	82.75
1858.457	82.75
1862.754	76.75
1867.047	78.75
1871.335	81.75
1875.62	80.75
1879.9	78.75
1884.177	80.75
1888.449	82.75
1892.718	73.75
1896.982	76.75
1901.243	78.75
1905.499	75.75
1909.752	77.75
1914	79.75
1918.245	76.75
1922.485	73.75
1926.722	79.75
1930.954	78.75
1935.183	71.75
1939.408	77.75
1943.628	78.75
1947.845	75.75
1952.058	78.75
1956.267	77.75
1960.472	77.75
1964.673	74.75
1968.87	67.75
1973.063	69.75
1977.252	69.75
1981.438	68.75
1985.619	68.75
1989.797	63.75
1993.971	73.75
1998.14	64.75
2002.306	68.75
2006.469	68.75
2010.627	64.75
2014.781	67.75
2018.932	68.75
2023.078	68.75
2027.221	68.75
2031.36	62.75
2035.495	61.75
2039.627	63.75
2043.754	55.75
2047.878	58.75
2051.998	57.75
2056.114	61.75
2060.226	61.75
2064.334	67.75
2068.439	62.75
2072.54	64.75
2076.637	65.75
2080.73	67.75
2084.82	62.75
2088.906	68.75
2092.988	64.75
2097.066	61.75
2101.14	66.75
2105.211	61.75
2109.278	58.75
2113.342	57.75
2117.401	62.75
2121.457	61.75
2125.509	55.75
2129.558	56.75
2133.602	57.75
2137.643	59.75
2141.681	56.75
2145.714	58.75
2149.744	60.75
2153.77	53.75
2157.793	54.75
2161.812	49.75
2165.827	47.75
2169.838	52.75
2173.846	51.75
2177.851	49.75
2181.851	50.75
2185.848	48.75
2189.841	47.75
2193.831	49.75
2197.817	45.75
2201.799	47.75
2205.778	43.75
2209.753	44.75
2213.725	47.75
2217.693	45.75
2221.657	37.75
2225.618	43.75
2229.575	39.75
2233.529	39.75
2237.479	37.75
2241.425	33.75
2245.368	39.75
2249.307	38.75
2253.243	38.75
2257.175	40.75
2261.104	38.75
2265.029	34.75
2268.95	35.75
2272.868	37.75
2276.783	29.75
2280.694	32.75
2284.601	28.75
2288.505	27.75
2292.405	29.75
2296.302	31.75
2300.195	32.75
2304.085	28.75
2307.971	27.75
2311.854	25.75
2315.734	24.75
2319.609	23.75
2323.482	28.75
2327.351	32.75
2331.216	32.75
2335.078	31.75
2338.937	29.75
2342.792	25.75
2346.643	19.75
2350.492	22.75
2354.336	17.75
2358.178	18.75
2362.015	23.75
2365.85	21.75
2369.681	21.75
2373.508	23.75
2377.333	19.75
2381.153	23.75
2384.971	16.75
2388.785	18.75
2392.595	14.75
2396.402	16.75
2400.206	23.75
2404.007	20.75
2407.804	21.75
2411.597	23.75
2415.388	17.75
2419.174	14.75
2422.958	14.75
2426.738	16.75
2430.515	12.75
2434.289	15.75
2438.059	16.75
2441.825	15.75
2445.589	13.75
2449.349	18.75
2453.106	11.75
2456.859	11.75
2460.61	13.75
2464.356	14.75
2468.1	15.75
2471.84	18.75
2475.577	10.75
2479.311	12.75
2483.041	9.75
2486.768	13.75
2490.492	9.75
2494.213	15.75
2497.93	11.75
2501.644	15.75
2505.355	13.75
2509.062	11.75
2512.766	11.75
2516.467	15.75
2520.165	11.75
2523.859	10.75
2527.551	7.75
2531.239	12.75
2534.923	9.75
2538.605	8.75
2542.283	4.75
2545.958	9.75
2549.63	11.75
2553.299	13.75
2556.964	7.75
2560.626	12.75
2564.285	8.75
2567.941	7.75
2571.594	10.75
2575.243	9.75
2578.89	14.75
2582.533	10.75
2586.173	9.75
2589.809	6.75
2593.443	10.75
2597.073	6.75
2600.701	6.75
2604.325	12.75
2607.946	14.75
2611.564	7.75
2615.178	12.75
2618.79	9.75
2622.398	10.75
2626.004	12.75
2629.606	11.75
2633.205	6.75
2636.801	8.75
2640.394	12.75
2643.983	9.75
2647.57	6.75
2651.153	10.75
2654.734	4.75
2658.311	5.75
2661.885	10.75
2665.456	2.75
2669.025	7.75
2672.589	4.75
2676.151	5.75
2679.71	8.75
2683.266	7.75
2686.819	5.75
2690.368	5.75
2693.915	6.75
2697.458	10.75
2700.999	5.75
2704.536	10.75
2708.071	6.75
2711.602	10.75
2715.13	7.75
2718.656	9.75
2722.178	5.75
2725.697	4.75
2729.214	9.75
2732.727	10.75
2736.237	12.75
2739.744	16.75
2743.249	9.75
2746.75	8.75
2750.248	9.75
2753.743	11.75
2757.236	9.75
2760.725	12.75
2764.211	14.75
2767.695	8.75
2771.175	13.75
2774.652	6.75
2778.127	5.75
2781.598	5.75
2785.067	6.75
2788.532	6.75
2791.995	14.75
2795.455	10.75
2798.911	7.75
2802.365	8.75
2805.816	10.75
2809.264	14.75
2812.709	12.75
2816.151	14.75
2819.59	17.75
2823.026	20.75
2826.46	24.75
2829.89	27.75
2833.318	24.75
2836.742	33.75
2840.164	40.75
2843.583	52.75
2846.999	54.75
2850.412	67.75
2853.822	82.75
2857.229	92.75
2860.634	89.75
2864.035	99.75
2867.434	98.75
2870.83	97.75
2874.223	102.75
2877.613	104.75
2881	111.75
2884.385	116.75
2887.766	125.75
2891.145	122.75
2894.521	116.75
2897.894	111.75
2901.264	110.75
2904.631	108.75
2907.996	106.75
2911.358	109.75
2914.717	111.75
2918.073	104.75
2921.426	106.75
2924.777	102.75
2928.124	99.75
2931.469	104.75
2934.811	103.75
2938.15	98.75
2941.487	98.75
2944.821	94.75
2948.152	85.75
2951.48	86.75
2954.805	75.75
2958.128	70.75
2961.447	67.75
2964.765	64.75
2968.079	61.75
2971.39	63.75
2974.699	60.75
2978.005	55.75
2981.308	53.75
2984.609	52.75
2987.907	49.75
2991.202	46.75
2994.494	39.75
2997.784	42.75
3001.07	46.75
3004.355	46.75
3007.636	40.75
3010.915	44.75
3014.191	39.75
3017.464	33.75
3020.734	33.75
3024.002	33.75
3027.267	30.75
3030.53	41.75
3033.789	34.75
3037.046	37.75
3040.301	34.75
3043.552	36.75
3046.801	35.75
3050.048	36.75
3053.291	40.75
3056.532	40.75
3059.771	41.75
3063.006	43.75
3066.239	42.75
3069.469	42.75
3072.697	44.75
3075.922	50.75
3079.144	51.75
3082.364	51.75
3085.581	46.75
3088.795	60.75
3092.007	54.75
3095.216	55.75
3098.423	59.75
3101.627	61.75
3104.828	63.75
3108.026	60.75
3111.222	56.75
3114.416	67.75
3117.607	65.75
3120.795	70.75
3123.98	72.75
3127.163	78.75
3130.344	75.75
3133.521	75.75
3136.696	74.75
3139.869	75.75
3143.039	84.75
3146.206	87.75
3149.371	91.75
3152.533	87.75
3155.693	82.75
3158.85	86.75
3162.005	83.75
3165.157	92.75
3168.306	89.75
3171.453	87.75
3174.597	88.75
3177.739	91.75
3180.878	87.75
3184.014	89.75
3187.149	85.75
3190.28	92.75
3193.409	87.75
3196.536	94.75
3199.659	91.75
3202.781	85.75
3205.9	85.75
3209.016	92.75
3212.13	93.75
3215.241	89.75
3218.35	89.75
3221.456	82.75
3224.56	82.75
3227.661	84.75
3230.76	83.75
3233.856	89.75
3236.95	78.75
3240.041	81.75
3243.13	84.75
3246.216	82.75
3249.3	85.75
3252.382	80.75
3255.46	84.75
3258.537	79.75
3261.611	77.75
3264.682	83.75
3267.751	73.75
3270.818	76.75
3273.882	76.75
3276.943	75.75
3280.002	70.75
3283.059	74.75
3286.113	74.75
3289.165	69.75
3292.214	73.75
3295.261	65.75
3298.306	70.75
3301.348	73.75
3304.387	63.75
3307.425	69.75
3310.459	63.75
3313.492	64.75
3316.521	58.75
3319.549	63.75
3322.574	60.75
3325.597	63.75
3328.617	58.75
3331.635	55.75
3334.65	63.75
3337.663	51.75
3340.674	52.75
3343.682	59.75
3346.688	60.75
3349.691	59.75
3352.692	60.75
3355.691	64.75
3358.687	59.75
3361.681	59.75
3364.673	56.75
3367.662	51.75
3370.649	54.75
3373.633	49.75
3376.615	52.75
3379.595	49.75
3382.572	50.75
3385.547	53.75
3388.52	49.75
3391.49	49.75
3394.458	44.75
3397.424	43.75
3400.387	40.75
3403.348	46.75
3406.307	41.75
3409.263	43.75
3412.217	46.75
3415.168	45.75
3418.118	40.75
3421.065	42.75
3424.009	33.75
3426.951	38.75
3429.891	40.75
3432.829	42.75
3435.764	36.75
3438.697	36.75
3441.628	27.75
3444.557	35.75
3447.483	32.75
3450.407	29.75
3453.328	27.75
3456.247	26.75
3459.164	27.75
3462.079	24.75
3464.991	23.75
3467.902	21.75
3470.809	22.75
3473.715	21.75
3476.618	20.75
3479.519	15.75
3482.418	14.75
3485.315	18.75
3488.209	14.75
3491.101	12.75
3493.99	17.75
3496.878	12.75
3499.763	14.75
3502.646	11.75
3505.527	7.75
3508.405	10.75
3511.281	3.75
3514.155	10.75
3517.027	10.75
3519.897	10.75
3522.764	2.75
3525.629	5.75
3528.492	0.75
3531.352	0.75
3534.211	-0.25
3537.067	-0.25
3539.921	1.75
3542.773	1.75
3545.622	-2.25
3548.469	-2.25
3551.315	-4.25
3554.157	-6.25
3556.998	-3.25
3559.837	-5.25
3562.673	-4.25
3565.507	-6.25
3568.339	-7.25
3571.169	-6.25
3573.996	-8.25
3576.822	-7.25
3579.645	-10.25
3582.466	-6.25
3585.285	-12.25
3588.101	-9.25
3590.916	-19.25
3593.728	-14.25
3596.538	-16.25
3599.346	-13.25
3602.152	-12.25
3604.956	-10.25
3607.757	-11.25
3610.556	-15.25
3613.354	-17.25
3616.149	-20.25
3618.942	-13.25
3621.732	-18.25
3624.521	-17.25
3627.307	-16.25
3630.092	-18.25
3632.874	-18.25
3635.654	-18.25
3638.432	-19.25
3641.208	-18.25
3643.982	-19.25
3646.753	-15.25
3649.523	-17.25
3652.29	-17.25
3655.055	-22.25
3657.818	-23.25
3660.579	-17.25
3663.338	-21.25
3666.095	-14.25
3668.849	-21.25
3671.602	-18.25
3674.352	-19.25
3677.101	-18.25
3679.847	-19.25
3682.591	-18.25
3685.333	-17.25
3688.073	-19.25
3690.811	-24.25
3693.547	-27.25
3696.281	-24.25
3699.013	-24.25
3701.742	-22.25
3704.47	-18.25
3707.195	-18.25
3709.919	-20.25
3712.64	-27.25
3715.359	-23.25
3718.076	-22.25
3720.792	-28.25
3723.505	-20.25
3726.216	-20.25
3728.925	-22.25
3731.632	-21.25
3734.336	-21.25
3737.039	-21.25
3739.74	-26.25
3742.439	-23.25
3745.136	-26.25
3747.83	-19.25
3750.523	-23.25
3753.213	-22.25
3755.902	-23.25
3758.589	-22.25
3761.273	-25.25
3763.956	-22.25
3766.636	-25.25
3769.315	-21.25
3771.991	-27.25
3774.665	-25.25
3777.338	-23.25
3780.008	-20.25
3782.677	-21.25
3785.343	-26.25
3788.007	-25.25
3790.67	-27.25
3793.33	-28.25
3795.989	-28.25
3798.645	-25.25
3801.299	-22.25
3803.952	-22.25
3806.602	-24.25
3809.251	-23.25
3811.897	-22.25
3814.542	-27.25
3817.184	-26.25
3819.825	-27.25
3822.463	-20.25
3825.1	-22.25
3827.735	-19.25
3830.367	-22.25
3832.998	-22.25
3835.627	-25.25
3838.253	-20.25
3840.878	-25.25
3843.501	-22.25
3846.122	-26.25
3848.741	-21.25
3851.358	-23.25
3853.973	-24.25
3856.586	-23.25
3859.197	-23.25
3861.806	-25.25
3864.414	-25.25
3867.019	-24.25
3869.622	-25.25
3872.224	-26.25
3874.823	-23.25
3877.421	-20.25
3880.016	-20.25
3882.61	-16.25
3885.202	-13.25
3887.792	-17.25
3890.38	-19.25
3892.966	-26.25
3895.55	-22.25
3898.132	-23.25
3900.713	-18.25
3903.291	-21.25
3905.868	-22.25
3908.442	-24.25
3911.015	-25.25
3913.586	-28.25
3916.155	-23.25
3918.722	-25.25
3921.287	-19.25
3923.85	-23.25
3926.411	-25.25
3928.971	-24.25
3931.528	-26.25
3934.084	-28.25
3936.638	-25.25
3939.19	-26.25
3941.74	-22.25
3944.288	-23.25
3946.834	-22.25
3949.378	-27.25
3951.921	-23.25
3954.462	-23.25
3957	-27.25
3959.537	-24.25
3962.072	-25.25
3964.606	-22.25
3967.137	-21.25
3969.667	-25.25
3972.194	-22.25
3974.72	-26.25
3977.244	-23.25
3979.766	-26.25
3982.286	-23.25
3984.805	-24.25
3987.321	-25.25
3989.836	-25.25
3992.349	-24.25
3994.86	-23.25
3997.369	-25.25
3999.877	-27.25
4002.382	-24.25
4004.886	-25.25
4007.388	-22.25
4009.888	-24.25
4012.386	-20.25
4014.883	-23.25
4017.377	-21.25
4019.87	-23.25
4022.361	-23.25
4024.85	-28.25
4027.338	-26.25
4029.823	-25.25
4032.307	-24.25
4034.789	-21.25
4037.269	-22.25
4039.747	-23.25
4042.224	-22.25
4044.699	-30.25
4047.172	-27.25
4049.643	-26.25
4052.112	-20.25
4054.58	-20.25
4057.046	-20.25
4059.51	-26.25
4061.972	-26.25
4064.432	-24.25
4066.891	-23.25
4069.348	-23.25
4071.803	-23.25
4074.256	-25.25
4076.708	-21.25
4079.158	-22.25
4081.606	-23.25
4084.052	-25.25
4086.497	-22.25
4088.939	-22.25
4091.38	-25.25
4093.819	-25.25
4096.257	-22.25
4098.693	-26.25
4101.127	-25.25
4103.559	-30.25
4105.989	-12.25
4108.418	-13.25
4110.845	-8.25
4113.27	-8.25
4115.694	-6.25
4118.115	-10.25
4120.535	-24.25
4122.954	-25.25
4125.37	-20.25
4127.785	-19.25
4130.198	-20.25
4132.609	-25.25
4135.019	-25.25
4137.427	-29.25
4139.833	-23.25
4142.237	-28.25
