Data from 0CFU_1_RamanShift_1.txt Node
Date: Tue Jan 24 17:03:16 IST 2017
User: aro
Spectrometer: QEPB0276
Trigger mode: 0
Integration Time (sec): 5.000000E0
Scans to average: 1
Electric dark correction enabled: true
Nonlinearity correction enabled: false
Boxcar width: 0
XAxis mode: Raman Shifts
Number of Pixels in Spectrum: 1044
>>>>>Begin Spectral Data<<<<<
160.701	-31.12
166.742	0.88
172.777	85.88
178.805	328.88
184.826	915.88
190.841	1884.88
196.849	2948.88
202.85	3615.88
208.845	3766.88
214.833	3648.88
220.815	3498.88
226.789	3404.88
232.758	3303.88
238.719	3201.88
244.674	3075.88
250.623	2974.88
256.565	2823.88
262.5	2684.88
268.429	2547.88
274.351	2444.88
280.267	2350.88
286.176	2282.88
292.079	2194.88
297.975	2138.88
303.865	2058.88
309.748	1990.88
315.625	1946.88
321.495	1900.88
327.359	1872.88
333.217	1842.88
339.068	1838.88
344.912	1823.88
350.751	1834.88
356.583	1831.88
362.408	1798.88
368.227	1815.88
374.04	1830.88
379.847	1823.88
385.647	1855.88
391.44	1846.88
397.228	1863.88
403.009	1874.88
408.784	1871.88
414.553	1876.88
420.315	1896.88
426.071	1903.88
431.821	1926.88
437.565	1907.88
443.302	1914.88
449.033	1905.88
454.758	1890.88
460.477	1885.88
466.189	1863.88
471.896	1859.88
477.596	1838.88
483.29	1830.88
488.978	1811.88
494.66	1814.88
500.335	1812.88
506.005	1757.88
511.668	1717.88
517.325	1704.88
522.977	1667.88
528.622	1634.88
534.261	1614.88
539.894	1594.88
545.521	1591.88
551.141	1581.88
556.756	1580.88
562.365	1561.88
567.968	1547.88
573.565	1544.88
579.155	1515.88
584.74	1505.88
590.319	1510.88
595.892	1485.88
601.459	1494.88
607.02	1479.88
612.575	1476.88
618.124	1449.88
623.667	1440.88
629.204	1422.88
634.735	1418.88
640.261	1398.88
645.781	1386.88
651.294	1373.88
656.802	1364.88
662.304	1361.88
667.8	1356.88
673.29	1356.88
678.775	1349.88
684.254	1355.88
689.726	1350.88
695.193	1340.88
700.655	1330.88
706.11	1320.88
711.56	1311.88
717.004	1296.88
722.442	1304.88
727.874	1281.88
733.301	1289.88
738.722	1267.88
744.137	1276.88
749.547	1252.88
754.951	1253.88
760.349	1261.88
765.741	1271.88
771.128	1277.88
776.509	1265.88
781.885	1266.88
787.254	1268.88
792.618	1260.88
797.977	1271.88
803.33	1249.88
808.677	1227.88
814.019	1221.88
819.355	1211.88
824.686	1200.88
830.011	1188.88
835.33	1175.88
840.644	1172.88
845.952	1183.88
851.255	1179.88
856.552	1153.88
861.844	1176.88
867.13	1180.88
872.41	1193.88
877.686	1216.88
882.955	1249.88
888.219	1229.88
893.478	1181.88
898.731	1116.88
903.979	1065.88
909.221	1053.88
914.458	1042.88
919.69	1026.88
924.916	1024.88
930.136	1034.88
935.351	1016.88
940.561	1018.88
945.766	1013.88
950.965	1002.88
956.158	992.88
961.347	989.88
966.529	965.88
971.707	950.88
976.879	942.88
982.046	940.88
987.208	941.88
992.364	926.88
997.515	964.88
1002.66	942.88
1007.801	948.88
1012.936	964.88
1018.066	960.88
1023.19	983.88
1028.309	976.88
1033.423	975.88
1038.532	982.88
1043.636	991.88
1048.734	1003.88
1053.827	994.88
1058.915	987.88
1063.998	973.88
1069.075	955.88
1074.147	947.88
1079.214	966.88
1084.276	980.88
1089.333	992.88
1094.385	1002.88
1099.431	987.88
1104.472	970.88
1109.509	965.88
1114.54	958.88
1119.565	953.88
1124.586	941.88
1129.602	920.88
1134.613	908.88
1139.618	915.88
1144.619	913.88
1149.614	916.88
1154.604	912.88
1159.589	929.88
1164.57	920.88
1169.545	908.88
1174.515	922.88
1179.48	915.88
1184.44	909.88
1189.395	907.88
1194.345	898.88
1199.29	895.88
1204.23	907.88
1209.165	891.88
1214.095	929.88
1219.021	915.88
1223.941	934.88
1228.856	934.88
1233.766	946.88
1238.672	937.88
1243.572	932.88
1248.467	940.88
1253.358	917.88
1258.244	912.88
1263.124	895.88
1268	878.88
1272.871	879.88
1277.737	892.88
1282.599	899.88
1287.455	882.88
1292.306	897.88
1297.153	886.88
1301.995	886.88
1306.832	887.88
1311.664	896.88
1316.491	905.88
1321.314	891.88
1326.132	888.88
1330.945	887.88
1335.753	873.88
1340.556	861.88
1345.354	846.88
1350.148	840.88
1354.937	824.88
1359.722	820.88
1364.501	819.88
1369.276	799.88
1374.046	800.88
1378.811	799.88
1383.572	786.88
1388.327	791.88
1393.079	800.88
1397.825	799.88
1402.567	796.88
1407.304	797.88
1412.036	783.88
1416.764	785.88
1421.487	784.88
1426.205	789.88
1430.919	805.88
1435.628	817.88
1440.333	842.88
1445.032	831.88
1449.727	864.88
1454.418	861.88
1459.104	882.88
1463.785	877.88
1468.462	841.88
1473.134	840.88
1477.802	806.88
1482.465	796.88
1487.123	802.88
1491.777	796.88
1496.426	789.88
1501.071	792.88
1505.711	791.88
1510.347	802.88
1514.978	804.88
1519.604	816.88
1524.226	818.88
1528.844	820.88
1533.457	814.88
1538.065	806.88
1542.669	811.88
1547.269	806.88
1551.864	823.88
1556.454	826.88
1561.041	830.88
1565.622	847.88
1570.199	847.88
1574.772	864.88
1579.34	885.88
1583.904	898.88
1588.464	913.88
1593.019	931.88
1597.569	936.88
1602.115	951.88
1606.657	963.88
1611.195	964.88
1615.728	970.88
1620.256	990.88
1624.78	997.88
1629.3	1019.88
1633.816	1034.88
1638.327	1045.88
1642.834	1045.88
1647.336	1065.88
1651.834	1067.88
1656.328	1051.88
1660.817	1052.88
1665.302	1036.88
1669.783	1007.88
1674.259	997.88
1678.732	963.88
1683.199	919.88
1687.663	886.88
1692.122	861.88
1696.577	820.88
1701.028	788.88
1705.474	737.88
1709.917	716.88
1714.355	697.88
1718.788	685.88
1723.218	691.88
1727.643	665.88
1732.064	659.88
1736.481	643.88
1740.893	621.88
1745.301	599.88
1749.705	584.88
1754.105	571.88
1758.501	577.88
1762.893	553.88
1767.28	554.88
1771.663	529.88
1776.042	521.88
1780.417	537.88
1784.787	530.88
1789.154	526.88
1793.516	527.88
1797.874	529.88
1802.228	510.88
1806.578	507.88
1810.924	502.88
1815.266	488.88
1819.603	479.88
1823.937	480.88
1828.266	475.88
1832.591	472.88
1836.913	488.88
1841.23	473.88
1845.543	471.88
1849.852	482.88
1854.156	478.88
1858.457	484.88
1862.754	496.88
1867.047	497.88
1871.335	480.88
1875.62	493.88
1879.9	485.88
1884.177	480.88
1888.449	485.88
1892.718	480.88
1896.982	477.88
1901.243	485.88
1905.499	482.88
1909.752	474.88
1914	477.88
1918.245	475.88
1922.485	470.88
1926.722	465.88
1930.954	472.88
1935.183	470.88
1939.408	475.88
1943.628	463.88
1947.845	477.88
1952.058	469.88
1956.267	471.88
1960.472	467.88
1964.673	461.88
1968.87	458.88
1973.063	464.88
1977.252	458.88
1981.438	459.88
1985.619	455.88
1989.797	441.88
1993.971	461.88
1998.14	448.88
2002.306	458.88
2006.469	458.88
2010.627	461.88
2014.781	461.88
2018.932	467.88
2023.078	480.88
2027.221	472.88
2031.36	469.88
2035.495	455.88
2039.627	456.88
2043.754	457.88
2047.878	440.88
2051.998	441.88
2056.114	453.88
2060.226	459.88
2064.334	454.88
2068.439	480.88
2072.54	459.88
2076.637	462.88
2080.73	465.88
2084.82	459.88
2088.906	472.88
2092.988	464.88
2097.066	469.88
2101.14	454.88
2105.211	455.88
2109.278	446.88
2113.342	452.88
2117.401	448.88
2121.457	444.88
2125.509	438.88
2129.558	442.88
2133.602	452.88
2137.643	444.88
2141.681	443.88
2145.714	426.88
2149.744	442.88
2153.77	433.88
2157.793	430.88
2161.812	436.88
2165.827	431.88
2169.838	419.88
2173.846	419.88
2177.851	402.88
2181.851	403.88
2185.848	398.88
2189.841	407.88
2193.831	385.88
2197.817	387.88
2201.799	377.88
2205.778	386.88
2209.753	395.88
2213.725	398.88
2217.693	385.88
2221.657	388.88
2225.618	381.88
2229.575	379.88
2233.529	394.88
2237.479	375.88
2241.425	370.88
2245.368	358.88
2249.307	352.88
2253.243	352.88
2257.175	349.88
2261.104	346.88
2265.029	346.88
2268.95	341.88
2272.868	338.88
2276.783	334.88
2280.694	331.88
2284.601	322.88
2288.505	310.88
2292.405	310.88
2296.302	304.88
2300.195	303.88
2304.085	302.88
2307.971	297.88
2311.854	295.88
2315.734	288.88
2319.609	278.88
2323.482	292.88
2327.351	277.88
2331.216	285.88
2335.078	283.88
2338.937	275.88
2342.792	272.88
2346.643	270.88
2350.492	270.88
2354.336	268.88
2358.178	270.88
2362.015	270.88
2365.85	277.88
2369.681	274.88
2373.508	272.88
2377.333	272.88
2381.153	276.88
2384.971	277.88
2388.785	270.88
2392.595	261.88
2396.402	276.88
2400.206	267.88
2404.007	262.88
2407.804	262.88
2411.597	271.88
2415.388	257.88
2419.174	264.88
2422.958	260.88
2426.738	258.88
2430.515	261.88
2434.289	255.88
2438.059	262.88
2441.825	255.88
2445.589	253.88
2449.349	253.88
2453.106	258.88
2456.859	238.88
2460.61	241.88
2464.356	243.88
2468.1	227.88
2471.84	239.88
2475.577	236.88
2479.311	237.88
2483.041	238.88
2486.768	237.88
2490.492	234.88
2494.213	241.88
2497.93	228.88
2501.644	228.88
2505.355	229.88
2509.062	235.88
2512.766	231.88
2516.467	228.88
2520.165	225.88
2523.859	228.88
2527.551	231.88
2531.239	233.88
2534.923	218.88
2538.605	224.88
2542.283	224.88
2545.958	212.88
2549.63	208.88
2553.299	211.88
2556.964	208.88
2560.626	205.88
2564.285	210.88
2567.941	208.88
2571.594	207.88
2575.243	203.88
2578.89	203.88
2582.533	199.88
2586.173	196.88
2589.809	198.88
2593.443	199.88
2597.073	186.88
2600.701	192.88
2604.325	187.88
2607.946	193.88
2611.564	199.88
2615.178	182.88
2618.79	186.88
2622.398	186.88
2626.004	174.88
2629.606	176.88
2633.205	179.88
2636.801	177.88
2640.394	177.88
2643.983	183.88
2647.57	172.88
2651.153	170.88
2654.734	167.88
2658.311	166.88
2661.885	163.88
2665.456	166.88
2669.025	169.88
2672.589	162.88
2676.151	167.88
2679.71	165.88
2683.266	165.88
2686.819	160.88
2690.368	156.88
2693.915	152.88
2697.458	157.88
2700.999	149.88
2704.536	149.88
2708.071	152.88
2711.602	151.88
2715.13	149.88
2718.656	152.88
2722.178	154.88
2725.697	151.88
2729.214	149.88
2732.727	154.88
2736.237	152.88
2739.744	153.88
2743.249	152.88
2746.75	153.88
2750.248	145.88
2753.743	148.88
2757.236	144.88
2760.725	137.88
2764.211	139.88
2767.695	142.88
2771.175	136.88
2774.652	144.88
2778.127	135.88
2781.598	140.88
2785.067	137.88
2788.532	147.88
2791.995	131.88
2795.455	144.88
2798.911	141.88
2802.365	143.88
2805.816	145.88
2809.264	150.88
2812.709	147.88
2816.151	148.88
2819.59	141.88
2823.026	150.88
2826.46	153.88
2829.89	155.88
2833.318	150.88
2836.742	161.88
2840.164	153.88
2843.583	165.88
2846.999	161.88
2850.412	168.88
2853.822	168.88
2857.229	168.88
2860.634	178.88
2864.035	177.88
2867.434	194.88
2870.83	194.88
2874.223	196.88
2877.613	196.88
2881	203.88
2884.385	215.88
2887.766	210.88
2891.145	217.88
2894.521	217.88
2897.894	212.88
2901.264	218.88
2904.631	213.88
2907.996	223.88
2911.358	219.88
2914.717	224.88
2918.073	224.88
2921.426	235.88
2924.777	239.88
2928.124	245.88
2931.469	259.88
2934.811	267.88
2938.15	279.88
2941.487	279.88
2944.821	279.88
2948.152	277.88
2951.48	277.88
2954.805	268.88
2958.128	266.88
2961.447	280.88
2964.765	277.88
2968.079	272.88
2971.39	288.88
2974.699	276.88
2978.005	290.88
2981.308	302.88
2984.609	308.88
2987.907	322.88
2991.202	325.88
2994.494	320.88
2997.784	331.88
3001.07	344.88
3004.355	345.88
3007.636	344.88
3010.915	357.88
3014.191	366.88
3017.464	370.88
3020.734	375.88
3024.002	379.88
3027.267	384.88
3030.53	400.88
3033.789	404.88
3037.046	416.88
3040.301	428.88
3043.552	430.88
3046.801	451.88
3050.048	457.88
3053.291	468.88
3056.532	478.88
3059.771	492.88
3063.006	511.88
3066.239	526.88
3069.469	547.88
3072.697	564.88
3075.922	573.88
3079.144	595.88
3082.364	611.88
3085.581	624.88
3088.795	628.88
3092.007	644.88
3095.216	655.88
3098.423	674.88
3101.627	703.88
3104.828	703.88
3108.026	727.88
3111.222	735.88
3114.416	747.88
3117.607	764.88
3120.795	789.88
3123.98	805.88
3127.163	811.88
3130.344	843.88
3133.521	874.88
3136.696	868.88
3139.869	905.88
3143.039	911.88
3146.206	928.88
3149.371	933.88
3152.533	955.88
3155.693	949.88
3158.85	964.88
3162.005	971.88
3165.157	964.88
3168.306	989.88
3171.453	971.88
3174.597	971.88
3177.739	990.88
3180.878	989.88
3184.014	993.88
3187.149	995.88
3190.28	992.88
3193.409	994.88
3196.536	999.88
3199.659	1012.88
3202.781	1010.88
3205.9	1028.88
3209.016	1002.88
3212.13	1009.88
3215.241	1003.88
3218.35	986.88
3221.456	986.88
3224.56	972.88
3227.661	951.88
3230.76	952.88
3233.856	949.88
3236.95	920.88
3240.041	922.88
3243.13	917.88
3246.216	908.88
3249.3	902.88
3252.382	895.88
3255.46	880.88
3258.537	889.88
3261.611	885.88
3264.682	886.88
3267.751	873.88
3270.818	868.88
3273.882	862.88
3276.943	859.88
3280.002	846.88
3283.059	835.88
3286.113	843.88
3289.165	829.88
3292.214	821.88
3295.261	799.88
3298.306	801.88
3301.348	777.88
3304.387	774.88
3307.425	746.88
3310.459	750.88
3313.492	744.88
3316.521	736.88
3319.549	732.88
3322.574	721.88
3325.597	721.88
3328.617	711.88
3331.635	696.88
3334.65	704.88
3337.663	696.88
3340.674	702.88
3343.682	694.88
3346.688	687.88
3349.691	677.88
3352.692	681.88
3355.691	675.88
3358.687	676.88
3361.681	670.88
3364.673	660.88
3367.662	640.88
3370.649	644.88
3373.633	636.88
3376.615	622.88
3379.595	606.88
3382.572	601.88
3385.547	604.88
3388.52	579.88
3391.49	570.88
3394.458	572.88
3397.424	564.88
3400.387	559.88
3403.348	546.88
3406.307	544.88
3409.263	534.88
3412.217	527.88
3415.168	527.88
3418.118	526.88
3421.065	504.88
3424.009	505.88
3426.951	503.88
3429.891	484.88
3432.829	476.88
3435.764	468.88
3438.697	458.88
3441.628	443.88
3444.557	434.88
3447.483	418.88
3450.407	416.88
3453.328	401.88
3456.247	389.88
3459.164	373.88
3462.079	363.88
3464.991	350.88
3467.902	341.88
3470.809	334.88
3473.715	318.88
3476.618	309.88
3479.519	297.88
3482.418	280.88
3485.315	277.88
3488.209	275.88
3491.101	278.88
3493.99	262.88
3496.878	250.88
3499.763	239.88
3502.646	230.88
3505.527	216.88
3508.405	213.88
3511.281	197.88
3514.155	191.88
3517.027	186.88
3519.897	169.88
3522.764	163.88
3525.629	159.88
3528.492	150.88
3531.352	134.88
3534.211	130.88
3537.067	118.88
3539.921	108.88
3542.773	102.88
3545.622	99.88
3548.469	94.88
3551.315	88.88
3554.157	75.88
3556.998	72.88
3559.837	70.88
3562.673	63.88
3565.507	58.88
3568.339	49.88
3571.169	49.88
3573.996	39.88
3576.822	32.88
3579.645	31.88
3582.466	27.88
3585.285	28.88
3588.101	23.88
3590.916	18.88
3593.728	15.88
3596.538	11.88
3599.346	5.88
3602.152	3.88
3604.956	-3.12
3607.757	-9.12
3610.556	-8.12
3613.354	-11.12
3616.149	-10.12
3618.942	-11.12
3621.732	-17.12
3624.521	-20.12
3627.307	-23.12
3630.092	-23.12
3632.874	-26.12
3635.654	-27.12
3638.432	-35.12
3641.208	-36.12
3643.982	-34.12
3646.753	-34.12
3649.523	-43.12
3652.29	-41.12
3655.055	-41.12
3657.818	-44.12
3660.579	-46.12
3663.338	-50.12
3666.095	-54.12
3668.849	-52.12
3671.602	-54.12
3674.352	-62.12
3677.101	-61.12
3679.847	-63.12
3682.591	-64.12
3685.333	-62.12
3688.073	-66.12
3690.811	-65.12
3693.547	-61.12
3696.281	-67.12
3699.013	-64.12
3701.742	-71.12
3704.47	-71.12
3707.195	-73.12
3709.919	-73.12
3712.64	-75.12
3715.359	-76.12
3718.076	-73.12
3720.792	-74.12
3723.505	-74.12
3726.216	-75.12
3728.925	-74.12
3731.632	-76.12
3734.336	-77.12
3737.039	-78.12
3739.74	-81.12
3742.439	-82.12
3745.136	-81.12
3747.83	-81.12
3750.523	-80.12
3753.213	-85.12
3755.902	-79.12
3758.589	-80.12
3761.273	-83.12
3763.956	-81.12
3766.636	-84.12
3769.315	-85.12
3771.991	-87.12
3774.665	-87.12
3777.338	-85.12
3780.008	-87.12
3782.677	-84.12
3785.343	-88.12
3788.007	-90.12
3790.67	-84.12
3793.33	-87.12
3795.989	-88.12
3798.645	-86.12
3801.299	-90.12
3803.952	-87.12
3806.602	-87.12
3809.251	-89.12
3811.897	-83.12
3814.542	-87.12
3817.184	-87.12
3819.825	-90.12
3822.463	-91.12
3825.1	-90.12
3827.735	-92.12
3830.367	-95.12
3832.998	-91.12
3835.627	-88.12
3838.253	-90.12
3840.878	-88.12
3843.501	-87.12
3846.122	-87.12
3848.741	-93.12
3851.358	-95.12
3853.973	-91.12
3856.586	-90.12
3859.197	-91.12
3861.806	-92.12
3864.414	-95.12
3867.019	-91.12
3869.622	-91.12
3872.224	-91.12
3874.823	-89.12
3877.421	-84.12
3880.016	-77.12
3882.61	-81.12
3885.202	-77.12
3887.792	-81.12
3890.38	-86.12
3892.966	-89.12
3895.55	-91.12
3898.132	-94.12
3900.713	-97.12
3903.291	-92.12
3905.868	-95.12
3908.442	-93.12
3911.015	-93.12
3913.586	-94.12
3916.155	-93.12
3918.722	-93.12
3921.287	-92.12
3923.85	-94.12
3926.411	-97.12
3928.971	-94.12
3931.528	-97.12
3934.084	-97.12
3936.638	-96.12
3939.19	-96.12
3941.74	-97.12
3944.288	-93.12
3946.834	-97.12
3949.378	-93.12
3951.921	-96.12
3954.462	-96.12
3957	-93.12
3959.537	-94.12
3962.072	-94.12
3964.606	-96.12
3967.137	-97.12
3969.667	-97.12
3972.194	-95.12
3974.72	-95.12
3977.244	-96.12
3979.766	-98.12
3982.286	-91.12
3984.805	-93.12
3987.321	-88.12
3989.836	-93.12
3992.349	-92.12
3994.86	-94.12
3997.369	-93.12
3999.877	-97.12
4002.382	-93.12
4004.886	-93.12
4007.388	-92.12
4009.888	-95.12
4012.386	-94.12
4014.883	-91.12
4017.377	-90.12
4019.87	-89.12
4022.361	-90.12
4024.85	-94.12
4027.338	-94.12
4029.823	-93.12
4032.307	-99.12
4034.789	-96.12
4037.269	-94.12
4039.747	-96.12
4042.224	-95.12
4044.699	-92.12
4047.172	-95.12
4049.643	-90.12
4052.112	-91.12
4054.58	-93.12
4057.046	-92.12
4059.51	-95.12
4061.972	-96.12
4064.432	-94.12
4066.891	-96.12
4069.348	-96.12
4071.803	-93.12
4074.256	-98.12
4076.708	-92.12
4079.158	-91.12
4081.606	-91.12
4084.052	-94.12
4086.497	-93.12
4088.939	-94.12
4091.38	-95.12
4093.819	-97.12
4096.257	-94.12
4098.693	-92.12
4101.127	-99.12
4103.559	-102.12
4105.989	-63.12
4108.418	-58.12
4110.845	-55.12
4113.27	-49.12
4115.694	-44.12
4118.115	-40.12
4120.535	-96.12
4122.954	-97.12
4125.37	-97.12
4127.785	-96.12
4130.198	-97.12
4132.609	-95.12
4135.019	-97.12
4137.427	-92.12
4139.833	-98.12
4142.237	-97.12
