Data from 10000000CFU1_A_RamanShift_1.txt Node
Date: Tue Jan 24 17:40:11 IST 2017
User: aro
Spectrometer: QEPB0276
Trigger mode: 0
Integration Time (sec): 5.000000E0
Scans to average: 1
Electric dark correction enabled: true
Nonlinearity correction enabled: false
Boxcar width: 0
XAxis mode: Raman Shifts
Number of Pixels in Spectrum: 1044
>>>>>Begin Spectral Data<<<<<
160.701	-30.38
166.742	3.62
172.777	99.62
178.805	387.62
184.826	1066.62
190.841	2240.62
196.849	3505.62
202.85	4346.62
208.845	4561.62
214.833	4415.62
220.815	4257.62
226.789	4169.62
232.758	4078.62
238.719	3930.62
244.674	3814.62
250.623	3688.62
256.565	3513.62
262.5	3380.62
268.429	3236.62
274.351	3128.62
280.267	3046.62
286.176	2933.62
292.079	2864.62
297.975	2765.62
303.865	2705.62
309.748	2655.62
315.625	2603.62
321.495	2543.62
327.359	2497.62
333.217	2479.62
339.068	2463.62
344.912	2425.62
350.751	2440.62
356.583	2425.62
362.408	2435.62
368.227	2442.62
374.04	2457.62
379.847	2461.62
385.647	2469.62
391.44	2455.62
397.228	2496.62
403.009	2511.62
408.784	2520.62
414.553	2528.62
420.315	2530.62
426.071	2532.62
431.821	2527.62
437.565	2524.62
443.302	2520.62
449.033	2514.62
454.758	2520.62
460.477	2502.62
466.189	2484.62
471.896	2494.62
477.596	2473.62
483.29	2462.62
488.978	2457.62
494.66	2435.62
500.335	2419.62
506.005	2394.62
511.668	2332.62
517.325	2288.62
522.977	2280.62
528.622	2241.62
534.261	2213.62
539.894	2212.62
545.521	2200.62
551.141	2189.62
556.756	2191.62
562.365	2150.62
567.968	2155.62
573.565	2143.62
579.155	2136.62
584.74	2112.62
590.319	2102.62
595.892	2092.62
601.459	2088.62
607.02	2079.62
612.575	2055.62
618.124	2030.62
623.667	2037.62
629.204	2001.62
634.735	1986.62
640.261	2003.62
645.781	1965.62
651.294	1958.62
656.802	1961.62
662.304	1942.62
667.8	1950.62
673.29	1929.62
678.775	1957.62
684.254	1936.62
689.726	1920.62
695.193	1906.62
700.655	1906.62
706.11	1891.62
711.56	1878.62
717.004	1858.62
722.442	1856.62
727.874	1842.62
733.301	1830.62
738.722	1854.62
744.137	1831.62
749.547	1831.62
754.951	1839.62
760.349	1834.62
765.741	1827.62
771.128	1817.62
776.509	1834.62
781.885	1840.62
787.254	1828.62
792.618	1814.62
797.977	1808.62
803.33	1786.62
808.677	1797.62
814.019	1770.62
819.355	1746.62
824.686	1720.62
830.011	1718.62
835.33	1713.62
840.644	1709.62
845.952	1710.62
851.255	1715.62
856.552	1710.62
861.844	1688.62
867.13	1697.62
872.41	1681.62
877.686	1664.62
882.955	1653.62
888.219	1620.62
893.478	1618.62
898.731	1597.62
903.979	1565.62
909.221	1558.62
914.458	1548.62
919.69	1551.62
924.916	1557.62
930.136	1552.62
935.351	1545.62
940.561	1534.62
945.766	1551.62
950.965	1539.62
956.158	1510.62
961.347	1513.62
966.529	1491.62
971.707	1463.62
976.879	1451.62
982.046	1455.62
987.208	1444.62
992.364	1449.62
997.515	1456.62
1002.66	1449.62
1007.801	1473.62
1012.936	1484.62
1018.066	1501.62
1023.19	1500.62
1028.309	1489.62
1033.423	1504.62
1038.532	1494.62
1043.636	1488.62
1048.734	1486.62
1053.827	1447.62
1058.915	1438.62
1063.998	1443.62
1069.075	1432.62
1074.147	1429.62
1079.214	1430.62
1084.276	1458.62
1089.333	1475.62
1094.385	1464.62
1099.431	1479.62
1104.472	1477.62
1109.509	1477.62
1114.54	1457.62
1119.565	1437.62
1124.586	1421.62
1129.602	1416.62
1134.613	1408.62
1139.618	1406.62
1144.619	1401.62
1149.614	1398.62
1154.604	1413.62
1159.589	1431.62
1164.57	1439.62
1169.545	1439.62
1174.515	1436.62
1179.48	1436.62
1184.44	1410.62
1189.395	1408.62
1194.345	1389.62
1199.29	1381.62
1204.23	1394.62
1209.165	1406.62
1214.095	1431.62
1219.021	1440.62
1223.941	1452.62
1228.856	1455.62
1233.766	1473.62
1238.672	1459.62
1243.572	1450.62
1248.467	1458.62
1253.358	1431.62
1258.244	1427.62
1263.124	1384.62
1268	1369.62
1272.871	1363.62
1277.737	1350.62
1282.599	1359.62
1287.455	1346.62
1292.306	1366.62
1297.153	1371.62
1301.995	1378.62
1306.832	1382.62
1311.664	1387.62
1316.491	1400.62
1321.314	1395.62
1326.132	1389.62
1330.945	1377.62
1335.753	1343.62
1340.556	1334.62
1345.354	1312.62
1350.148	1305.62
1354.937	1301.62
1359.722	1285.62
1364.501	1267.62
1369.276	1267.62
1374.046	1239.62
1378.811	1242.62
1383.572	1245.62
1388.327	1239.62
1393.079	1247.62
1397.825	1239.62
1402.567	1226.62
1407.304	1200.62
1412.036	1212.62
1416.764	1195.62
1421.487	1209.62
1426.205	1231.62
1430.919	1220.62
1435.628	1254.62
1440.333	1247.62
1445.032	1274.62
1449.727	1262.62
1454.418	1278.62
1459.104	1286.62
1463.785	1272.62
1468.462	1268.62
1473.134	1240.62
1477.802	1253.62
1482.465	1228.62
1487.123	1236.62
1491.777	1234.62
1496.426	1231.62
1501.071	1230.62
1505.711	1255.62
1510.347	1259.62
1514.978	1263.62
1519.604	1268.62
1524.226	1290.62
1528.844	1267.62
1533.457	1270.62
1538.065	1288.62
1542.669	1280.62
1547.269	1253.62
1551.864	1261.62
1556.454	1272.62
1561.041	1274.62
1565.622	1284.62
1570.199	1282.62
1574.772	1316.62
1579.34	1347.62
1583.904	1364.62
1588.464	1383.62
1593.019	1387.62
1597.569	1408.62
1602.115	1419.62
1606.657	1413.62
1611.195	1419.62
1615.728	1430.62
1620.256	1441.62
1624.78	1468.62
1629.3	1462.62
1633.816	1504.62
1638.327	1499.62
1642.834	1525.62
1647.336	1543.62
1651.834	1547.62
1656.328	1540.62
1660.817	1533.62
1665.302	1516.62
1669.783	1482.62
1674.259	1437.62
1678.732	1409.62
1683.199	1387.62
1687.663	1341.62
1692.122	1308.62
1696.577	1268.62
1701.028	1200.62
1705.474	1158.62
1709.917	1127.62
1714.355	1125.62
1718.788	1104.62
1723.218	1098.62
1727.643	1080.62
1732.064	1063.62
1736.481	1043.62
1740.893	1003.62
1745.301	1001.62
1749.705	964.62
1754.105	944.62
1758.501	932.62
1762.893	918.62
1767.28	912.62
1771.663	915.62
1776.042	895.62
1780.417	904.62
1784.787	901.62
1789.154	898.62
1793.516	903.62
1797.874	905.62
1802.228	911.62
1806.578	887.62
1810.924	866.62
1815.266	856.62
1819.603	856.62
1823.937	831.62
1828.266	840.62
1832.591	824.62
1836.913	826.62
1841.23	818.62
1845.543	833.62
1849.852	820.62
1854.156	825.62
1858.457	823.62
1862.754	831.62
1867.047	848.62
1871.335	848.62
1875.62	848.62
1879.9	833.62
1884.177	837.62
1888.449	840.62
1892.718	829.62
1896.982	833.62
1901.243	835.62
1905.499	825.62
1909.752	819.62
1914	808.62
1918.245	820.62
1922.485	816.62
1926.722	826.62
1930.954	821.62
1935.183	817.62
1939.408	821.62
1943.628	834.62
1947.845	825.62
1952.058	814.62
1956.267	822.62
1960.472	805.62
1964.673	804.62
1968.87	799.62
1973.063	789.62
1977.252	782.62
1981.438	788.62
1985.619	782.62
1989.797	759.62
1993.971	768.62
1998.14	771.62
2002.306	770.62
2006.469	782.62
2010.627	780.62
2014.781	782.62
2018.932	795.62
2023.078	788.62
2027.221	782.62
2031.36	777.62
2035.495	774.62
2039.627	771.62
2043.754	758.62
2047.878	757.62
2051.998	751.62
2056.114	751.62
2060.226	751.62
2064.334	748.62
2068.439	761.62
2072.54	747.62
2076.637	768.62
2080.73	757.62
2084.82	751.62
2088.906	767.62
2092.988	762.62
2097.066	748.62
2101.14	760.62
2105.211	758.62
2109.278	743.62
2113.342	750.62
2117.401	746.62
2121.457	729.62
2125.509	741.62
2129.558	741.62
2133.602	729.62
2137.643	720.62
2141.681	737.62
2145.714	721.62
2149.744	716.62
2153.77	705.62
2157.793	694.62
2161.812	696.62
2165.827	695.62
2169.838	684.62
2173.846	670.62
2177.851	660.62
2181.851	658.62
2185.848	640.62
2189.841	640.62
2193.831	648.62
2197.817	631.62
2201.799	641.62
2205.778	629.62
2209.753	637.62
2213.725	636.62
2217.693	635.62
2221.657	632.62
2225.618	632.62
2229.575	631.62
2233.529	630.62
2237.479	623.62
2241.425	614.62
2245.368	598.62
2249.307	577.62
2253.243	578.62
2257.175	577.62
2261.104	581.62
2265.029	565.62
2268.95	559.62
2272.868	563.62
2276.783	543.62
2280.694	545.62
2284.601	528.62
2288.505	517.62
2292.405	504.62
2296.302	506.62
2300.195	499.62
2304.085	505.62
2307.971	492.62
2311.854	486.62
2315.734	483.62
2319.609	473.62
2323.482	464.62
2327.351	461.62
2331.216	448.62
2335.078	457.62
2338.937	452.62
2342.792	455.62
2346.643	440.62
2350.492	440.62
2354.336	450.62
2358.178	448.62
2362.015	441.62
2365.85	451.62
2369.681	451.62
2373.508	450.62
2377.333	451.62
2381.153	450.62
2384.971	444.62
2388.785	442.62
2392.595	432.62
2396.402	443.62
2400.206	437.62
2404.007	448.62
2407.804	437.62
2411.597	435.62
2415.388	437.62
2419.174	428.62
2422.958	420.62
2426.738	420.62
2430.515	425.62
2434.289	432.62
2438.059	425.62
2441.825	417.62
2445.589	417.62
2449.349	416.62
2453.106	408.62
2456.859	407.62
2460.61	401.62
2464.356	403.62
2468.1	400.62
2471.84	392.62
2475.577	392.62
2479.311	395.62
2483.041	388.62
2486.768	392.62
2490.492	397.62
2494.213	396.62
2497.93	390.62
2501.644	388.62
2505.355	394.62
2509.062	391.62
2512.766	374.62
2516.467	375.62
2520.165	381.62
2523.859	377.62
2527.551	382.62
2531.239	379.62
2534.923	370.62
2538.605	365.62
2542.283	360.62
2545.958	359.62
2549.63	360.62
2553.299	347.62
2556.964	357.62
2560.626	365.62
2564.285	350.62
2567.941	349.62
2571.594	361.62
2575.243	342.62
2578.89	335.62
2582.533	336.62
2586.173	333.62
2589.809	341.62
2593.443	331.62
2597.073	332.62
2600.701	328.62
2604.325	320.62
2607.946	319.62
2611.564	329.62
2615.178	324.62
2618.79	314.62
2622.398	318.62
2626.004	321.62
2629.606	316.62
2633.205	312.62
2636.801	299.62
2640.394	299.62
2643.983	313.62
2647.57	301.62
2651.153	290.62
2654.734	298.62
2658.311	299.62
2661.885	297.62
2665.456	289.62
2669.025	284.62
2672.589	283.62
2676.151	286.62
2679.71	278.62
2683.266	280.62
2686.819	279.62
2690.368	271.62
2693.915	268.62
2697.458	265.62
2700.999	262.62
2704.536	259.62
2708.071	253.62
2711.602	263.62
2715.13	255.62
2718.656	251.62
2722.178	246.62
2725.697	250.62
2729.214	254.62
2732.727	268.62
2736.237	256.62
2739.744	254.62
2743.249	252.62
2746.75	261.62
2750.248	253.62
2753.743	257.62
2757.236	247.62
2760.725	247.62
2764.211	248.62
2767.695	248.62
2771.175	242.62
2774.652	240.62
2778.127	243.62
2781.598	242.62
2785.067	232.62
2788.532	234.62
2791.995	239.62
2795.455	243.62
2798.911	237.62
2802.365	240.62
2805.816	236.62
2809.264	239.62
2812.709	240.62
2816.151	238.62
2819.59	242.62
2823.026	245.62
2826.46	245.62
2829.89	236.62
2833.318	240.62
2836.742	244.62
2840.164	243.62
2843.583	246.62
2846.999	234.62
2850.412	250.62
2853.822	250.62
2857.229	244.62
2860.634	248.62
2864.035	262.62
2867.434	264.62
2870.83	259.62
2874.223	265.62
2877.613	269.62
2881	266.62
2884.385	263.62
2887.766	270.62
2891.145	259.62
2894.521	268.62
2897.894	268.62
2901.264	264.62
2904.631	263.62
2907.996	275.62
2911.358	263.62
2914.717	275.62
2918.073	277.62
2921.426	281.62
2924.777	279.62
2928.124	296.62
2931.469	294.62
2934.811	298.62
2938.15	299.62
2941.487	307.62
2944.821	311.62
2948.152	304.62
2951.48	317.62
2954.805	321.62
2958.128	323.62
2961.447	328.62
2964.765	334.62
2968.079	321.62
2971.39	334.62
2974.699	344.62
2978.005	350.62
2981.308	362.62
2984.609	373.62
2987.907	386.62
2991.202	400.62
2994.494	401.62
2997.784	398.62
3001.07	408.62
3004.355	430.62
3007.636	435.62
3010.915	442.62
3014.191	449.62
3017.464	461.62
3020.734	455.62
3024.002	476.62
3027.267	464.62
3030.53	492.62
3033.789	491.62
3037.046	509.62
3040.301	518.62
3043.552	527.62
3046.801	538.62
3050.048	547.62
3053.291	564.62
3056.532	582.62
3059.771	594.62
3063.006	615.62
3066.239	633.62
3069.469	646.62
3072.697	682.62
3075.922	672.62
3079.144	702.62
3082.364	719.62
3085.581	742.62
3088.795	743.62
3092.007	759.62
3095.216	778.62
3098.423	789.62
3101.627	811.62
3104.828	835.62
3108.026	853.62
3111.222	881.62
3114.416	895.62
3117.607	911.62
3120.795	918.62
3123.98	930.62
3127.163	964.62
3130.344	987.62
3133.521	1013.62
3136.696	1033.62
3139.869	1058.62
3143.039	1086.62
3146.206	1098.62
3149.371	1105.62
3152.533	1104.62
3155.693	1112.62
3158.85	1114.62
3162.005	1127.62
3165.157	1124.62
3168.306	1138.62
3171.453	1147.62
3174.597	1144.62
3177.739	1140.62
3180.878	1157.62
3184.014	1158.62
3187.149	1136.62
3190.28	1158.62
3193.409	1166.62
3196.536	1166.62
3199.659	1174.62
3202.781	1167.62
3205.9	1185.62
3209.016	1165.62
3212.13	1157.62
3215.241	1154.62
3218.35	1156.62
3221.456	1141.62
3224.56	1139.62
3227.661	1116.62
3230.76	1128.62
3233.856	1091.62
3236.95	1095.62
3240.041	1084.62
3243.13	1056.62
3246.216	1068.62
3249.3	1059.62
3252.382	1056.62
3255.46	1045.62
3258.537	1049.62
3261.611	1036.62
3264.682	1045.62
3267.751	1040.62
3270.818	1032.62
3273.882	1022.62
3276.943	1019.62
3280.002	1012.62
3283.059	1003.62
3286.113	991.62
3289.165	980.62
3292.214	966.62
3295.261	941.62
3298.306	930.62
3301.348	907.62
3304.387	904.62
3307.425	892.62
3310.459	878.62
3313.492	873.62
3316.521	870.62
3319.549	847.62
3322.574	845.62
3325.597	832.62
3328.617	829.62
3331.635	816.62
3334.65	825.62
3337.663	820.62
3340.674	814.62
3343.682	809.62
3346.688	805.62
3349.691	812.62
3352.692	799.62
3355.691	798.62
3358.687	788.62
3361.681	770.62
3364.673	753.62
3367.662	748.62
3370.649	752.62
3373.633	734.62
3376.615	727.62
3379.595	713.62
3382.572	712.62
3385.547	708.62
3388.52	684.62
3391.49	681.62
3394.458	661.62
3397.424	661.62
3400.387	647.62
3403.348	633.62
3406.307	629.62
3409.263	621.62
3412.217	628.62
3415.168	617.62
3418.118	619.62
3421.065	604.62
3424.009	604.62
3426.951	586.62
3429.891	579.62
3432.829	566.62
3435.764	563.62
3438.697	552.62
3441.628	534.62
3444.557	517.62
3447.483	491.62
3450.407	488.62
3453.328	468.62
3456.247	461.62
3459.164	453.62
3462.079	439.62
3464.991	424.62
3467.902	404.62
3470.809	380.62
3473.715	381.62
3476.618	376.62
3479.519	359.62
3482.418	351.62
3485.315	345.62
3488.209	331.62
3491.101	325.62
3493.99	309.62
3496.878	301.62
3499.763	295.62
3502.646	283.62
3505.527	276.62
3508.405	262.62
3511.281	247.62
3514.155	231.62
3517.027	221.62
3519.897	212.62
3522.764	202.62
3525.629	198.62
3528.492	181.62
3531.352	170.62
3534.211	165.62
3537.067	154.62
3539.921	144.62
3542.773	134.62
3545.622	133.62
3548.469	114.62
3551.315	113.62
3554.157	97.62
3556.998	87.62
3559.837	91.62
3562.673	82.62
3565.507	82.62
3568.339	64.62
3571.169	60.62
3573.996	56.62
3576.822	47.62
3579.645	39.62
3582.466	43.62
3585.285	41.62
3588.101	33.62
3590.916	31.62
3593.728	26.62
3596.538	19.62
3599.346	18.62
3602.152	14.62
3604.956	-0.38
3607.757	-1.38
3610.556	-9.38
3613.354	-8.38
3616.149	-16.38
3618.942	-14.38
3621.732	-22.38
3624.521	-20.38
3627.307	-20.38
3630.092	-28.38
3632.874	-26.38
3635.654	-28.38
3638.432	-30.38
3641.208	-33.38
3643.982	-39.38
3646.753	-39.38
3649.523	-44.38
3652.29	-43.38
3655.055	-49.38
3657.818	-49.38
3660.579	-49.38
3663.338	-56.38
3666.095	-61.38
3668.849	-62.38
3671.602	-64.38
3674.352	-72.38
3677.101	-66.38
3679.847	-70.38
3682.591	-71.38
3685.333	-69.38
3688.073	-76.38
3690.811	-76.38
3693.547	-68.38
3696.281	-72.38
3699.013	-78.38
3701.742	-80.38
3704.47	-78.38
3707.195	-84.38
3709.919	-85.38
3712.64	-86.38
3715.359	-86.38
3718.076	-90.38
3720.792	-84.38
3723.505	-89.38
3726.216	-86.38
3728.925	-91.38
3731.632	-90.38
3734.336	-95.38
3737.039	-94.38
3739.74	-94.38
3742.439	-97.38
3745.136	-91.38
3747.83	-97.38
3750.523	-89.38
3753.213	-93.38
3755.902	-92.38
3758.589	-90.38
3761.273	-95.38
3763.956	-99.38
3766.636	-99.38
3769.315	-98.38
3771.991	-101.38
3774.665	-100.38
3777.338	-104.38
3780.008	-100.38
3782.677	-99.38
3785.343	-99.38
3788.007	-103.38
3790.67	-96.38
3793.33	-102.38
3795.989	-99.38
3798.645	-102.38
3801.299	-99.38
3803.952	-101.38
3806.602	-102.38
3809.251	-103.38
3811.897	-101.38
3814.542	-98.38
3817.184	-102.38
3819.825	-103.38
3822.463	-105.38
3825.1	-105.38
3827.735	-107.38
3830.367	-109.38
3832.998	-110.38
3835.627	-106.38
3838.253	-104.38
3840.878	-104.38
3843.501	-101.38
3846.122	-105.38
3848.741	-106.38
3851.358	-106.38
3853.973	-107.38
3856.586	-104.38
3859.197	-105.38
3861.806	-108.38
3864.414	-108.38
3867.019	-107.38
3869.622	-102.38
3872.224	-106.38
3874.823	-104.38
3877.421	-100.38
3880.016	-101.38
3882.61	-100.38
3885.202	-99.38
3887.792	-100.38
3890.38	-103.38
3892.966	-107.38
3895.55	-106.38
3898.132	-108.38
3900.713	-109.38
3903.291	-106.38
3905.868	-109.38
3908.442	-108.38
3911.015	-111.38
3913.586	-110.38
3916.155	-112.38
3918.722	-111.38
3921.287	-115.38
3923.85	-111.38
3926.411	-116.38
3928.971	-110.38
3931.528	-111.38
3934.084	-111.38
3936.638	-110.38
3939.19	-110.38
3941.74	-110.38
3944.288	-110.38
3946.834	-112.38
3949.378	-111.38
3951.921	-111.38
3954.462	-114.38
3957	-111.38
3959.537	-110.38
3962.072	-109.38
3964.606	-108.38
3967.137	-113.38
3969.667	-113.38
3972.194	-114.38
3974.72	-112.38
3977.244	-113.38
3979.766	-117.38
3982.286	-109.38
3984.805	-110.38
3987.321	-103.38
3989.836	-110.38
3992.349	-108.38
3994.86	-110.38
3997.369	-106.38
3999.877	-109.38
4002.382	-110.38
4004.886	-111.38
4007.388	-109.38
4009.888	-112.38
4012.386	-112.38
4014.883	-108.38
4017.377	-109.38
4019.87	-109.38
4022.361	-107.38
4024.85	-110.38
4027.338	-110.38
4029.823	-113.38
4032.307	-109.38
4034.789	-110.38
4037.269	-105.38
4039.747	-110.38
4042.224	-112.38
4044.699	-109.38
4047.172	-109.38
4049.643	-107.38
4052.112	-108.38
4054.58	-108.38
4057.046	-110.38
4059.51	-114.38
4061.972	-114.38
4064.432	-114.38
4066.891	-111.38
4069.348	-109.38
4071.803	-111.38
4074.256	-109.38
4076.708	-109.38
4079.158	-108.38
4081.606	-106.38
4084.052	-110.38
4086.497	-108.38
4088.939	-113.38
4091.38	-111.38
4093.819	-109.38
4096.257	-112.38
4098.693	-112.38
4101.127	-117.38
4103.559	-119.38
4105.989	-77.38
4108.418	-72.38
4110.845	-61.38
4113.27	-60.38
4115.694	-51.38
4118.115	-44.38
4120.535	-113.38
4122.954	-113.38
4125.37	-111.38
4127.785	-111.38
4130.198	-111.38
4132.609	-111.38
4135.019	-116.38
4137.427	-110.38
4139.833	-117.38
4142.237	-116.38
