Data from 100000CFU1_A_RamanShift_1.txt Node
Date: Tue Jan 24 17:29:56 IST 2017
User: aro
Spectrometer: QEPB0276
Trigger mode: 0
Integration Time (sec): 5.000000E0
Scans to average: 1
Electric dark correction enabled: true
Nonlinearity correction enabled: false
Boxcar width: 0
XAxis mode: Raman Shifts
Number of Pixels in Spectrum: 1044
>>>>>Begin Spectral Data<<<<<
160.701	-33.5
166.742	-0.5
172.777	104.5
178.805	414.5
184.826	1145.5
190.841	2374.5
196.849	3735.5
202.85	4583.5
208.845	4789.5
214.833	4646.5
220.815	4465.5
226.789	4312.5
232.758	4204.5
238.719	4092.5
244.674	3930.5
250.623	3775.5
256.565	3606.5
262.5	3457.5
268.429	3289.5
274.351	3165.5
280.267	3037.5
286.176	2951.5
292.079	2844.5
297.975	2761.5
303.865	2684.5
309.748	2605.5
315.625	2551.5
321.495	2486.5
327.359	2456.5
333.217	2442.5
339.068	2419.5
344.912	2393.5
350.751	2386.5
356.583	2379.5
362.408	2362.5
368.227	2383.5
374.04	2400.5
379.847	2402.5
385.647	2385.5
391.44	2425.5
397.228	2436.5
403.009	2460.5
408.784	2457.5
414.553	2443.5
420.315	2472.5
426.071	2463.5
431.821	2507.5
437.565	2486.5
443.302	2437.5
449.033	2452.5
454.758	2443.5
460.477	2445.5
466.189	2420.5
471.896	2420.5
477.596	2413.5
483.29	2393.5
488.978	2377.5
494.66	2352.5
500.335	2345.5
506.005	2298.5
511.668	2250.5
517.325	2211.5
522.977	2173.5
528.622	2162.5
534.261	2125.5
539.894	2109.5
545.521	2112.5
551.141	2088.5
556.756	2081.5
562.365	2060.5
567.968	2053.5
573.565	2029.5
579.155	2014.5
584.74	2011.5
590.319	1993.5
595.892	1982.5
601.459	1964.5
607.02	1971.5
612.575	1947.5
618.124	1931.5
623.667	1900.5
629.204	1882.5
634.735	1880.5
640.261	1855.5
645.781	1866.5
651.294	1844.5
656.802	1834.5
662.304	1827.5
667.8	1831.5
673.29	1796.5
678.775	1785.5
684.254	1787.5
689.726	1785.5
695.193	1776.5
700.655	1766.5
706.11	1760.5
711.56	1746.5
717.004	1736.5
722.442	1719.5
727.874	1701.5
733.301	1698.5
738.722	1695.5
744.137	1677.5
749.547	1691.5
754.951	1682.5
760.349	1690.5
765.741	1682.5
771.128	1671.5
776.509	1677.5
781.885	1676.5
787.254	1671.5
792.618	1667.5
797.977	1665.5
803.33	1643.5
808.677	1635.5
814.019	1614.5
819.355	1589.5
824.686	1585.5
830.011	1574.5
835.33	1560.5
840.644	1555.5
845.952	1549.5
851.255	1535.5
856.552	1523.5
861.844	1530.5
867.13	1535.5
872.41	1516.5
877.686	1487.5
882.955	1487.5
888.219	1447.5
893.478	1425.5
898.731	1408.5
903.979	1393.5
909.221	1397.5
914.458	1374.5
919.69	1375.5
924.916	1363.5
930.136	1380.5
935.351	1357.5
940.561	1339.5
945.766	1357.5
950.965	1344.5
956.158	1355.5
961.347	1321.5
966.529	1312.5
971.707	1292.5
976.879	1282.5
982.046	1266.5
987.208	1255.5
992.364	1261.5
997.515	1259.5
1002.66	1280.5
1007.801	1283.5
1012.936	1291.5
1018.066	1291.5
1023.19	1312.5
1028.309	1298.5
1033.423	1293.5
1038.532	1303.5
1043.636	1296.5
1048.734	1287.5
1053.827	1264.5
1058.915	1261.5
1063.998	1225.5
1069.075	1237.5
1074.147	1235.5
1079.214	1237.5
1084.276	1237.5
1089.333	1255.5
1094.385	1279.5
1099.431	1276.5
1104.472	1287.5
1109.509	1268.5
1114.54	1267.5
1119.565	1258.5
1124.586	1237.5
1129.602	1227.5
1134.613	1214.5
1139.618	1223.5
1144.619	1207.5
1149.614	1207.5
1154.604	1221.5
1159.589	1236.5
1164.57	1245.5
1169.545	1218.5
1174.515	1232.5
1179.48	1231.5
1184.44	1215.5
1189.395	1210.5
1194.345	1200.5
1199.29	1218.5
1204.23	1212.5
1209.165	1207.5
1214.095	1230.5
1219.021	1235.5
1223.941	1246.5
1228.856	1260.5
1233.766	1263.5
1238.672	1270.5
1243.572	1251.5
1248.467	1261.5
1253.358	1241.5
1258.244	1226.5
1263.124	1194.5
1268	1190.5
1272.871	1180.5
1277.737	1170.5
1282.599	1176.5
1287.455	1162.5
1292.306	1161.5
1297.153	1180.5
1301.995	1183.5
1306.832	1196.5
1311.664	1202.5
1316.491	1196.5
1321.314	1203.5
1326.132	1190.5
1330.945	1167.5
1335.753	1165.5
1340.556	1150.5
1345.354	1135.5
1350.148	1125.5
1354.937	1136.5
1359.722	1111.5
1364.501	1099.5
1369.276	1090.5
1374.046	1078.5
1378.811	1079.5
1383.572	1070.5
1388.327	1075.5
1393.079	1061.5
1397.825	1073.5
1402.567	1047.5
1407.304	1050.5
1412.036	1045.5
1416.764	1041.5
1421.487	1045.5
1426.205	1055.5
1430.919	1057.5
1435.628	1073.5
1440.333	1089.5
1445.032	1096.5
1449.727	1101.5
1454.418	1095.5
1459.104	1101.5
1463.785	1090.5
1468.462	1095.5
1473.134	1072.5
1477.802	1063.5
1482.465	1061.5
1487.123	1054.5
1491.777	1057.5
1496.426	1079.5
1501.071	1078.5
1505.711	1086.5
1510.347	1097.5
1514.978	1104.5
1519.604	1121.5
1524.226	1110.5
1528.844	1103.5
1533.457	1117.5
1538.065	1124.5
1542.669	1111.5
1547.269	1107.5
1551.864	1098.5
1556.454	1112.5
1561.041	1123.5
1565.622	1127.5
1570.199	1145.5
1574.772	1161.5
1579.34	1193.5
1583.904	1209.5
1588.464	1239.5
1593.019	1254.5
1597.569	1262.5
1602.115	1279.5
1606.657	1281.5
1611.195	1300.5
1615.728	1297.5
1620.256	1318.5
1624.78	1336.5
1629.3	1363.5
1633.816	1391.5
1638.327	1398.5
1642.834	1404.5
1647.336	1432.5
1651.834	1418.5
1656.328	1421.5
1660.817	1402.5
1665.302	1376.5
1669.783	1377.5
1674.259	1334.5
1678.732	1305.5
1683.199	1262.5
1687.663	1229.5
1692.122	1182.5
1696.577	1134.5
1701.028	1079.5
1705.474	1038.5
1709.917	990.5
1714.355	981.5
1718.788	957.5
1723.218	953.5
1727.643	923.5
1732.064	920.5
1736.481	894.5
1740.893	860.5
1745.301	847.5
1749.705	832.5
1754.105	815.5
1758.501	803.5
1762.893	784.5
1767.28	760.5
1771.663	745.5
1776.042	754.5
1780.417	749.5
1784.787	755.5
1789.154	754.5
1793.516	744.5
1797.874	748.5
1802.228	747.5
1806.578	725.5
1810.924	719.5
1815.266	712.5
1819.603	697.5
1823.937	686.5
1828.266	689.5
1832.591	679.5
1836.913	671.5
1841.23	672.5
1845.543	678.5
1849.852	673.5
1854.156	679.5
1858.457	675.5
1862.754	696.5
1867.047	686.5
1871.335	683.5
1875.62	696.5
1879.9	695.5
1884.177	686.5
1888.449	688.5
1892.718	693.5
1896.982	682.5
1901.243	677.5
1905.499	691.5
1909.752	669.5
1914	687.5
1918.245	682.5
1922.485	678.5
1926.722	675.5
1930.954	679.5
1935.183	683.5
1939.408	687.5
1943.628	679.5
1947.845	687.5
1952.058	679.5
1956.267	688.5
1960.472	682.5
1964.673	667.5
1968.87	651.5
1973.063	649.5
1977.252	655.5
1981.438	647.5
1985.619	644.5
1989.797	642.5
1993.971	649.5
1998.14	638.5
2002.306	639.5
2006.469	670.5
2010.627	648.5
2014.781	662.5
2018.932	660.5
2023.078	664.5
2027.221	650.5
2031.36	655.5
2035.495	649.5
2039.627	638.5
2043.754	632.5
2047.878	632.5
2051.998	637.5
2056.114	625.5
2060.226	634.5
2064.334	644.5
2068.439	647.5
2072.54	643.5
2076.637	651.5
2080.73	650.5
2084.82	662.5
2088.906	653.5
2092.988	661.5
2097.066	648.5
2101.14	651.5
2105.211	643.5
2109.278	632.5
2113.342	643.5
2117.401	629.5
2121.457	636.5
2125.509	631.5
2129.558	617.5
2133.602	622.5
2137.643	623.5
2141.681	615.5
2145.714	612.5
2149.744	604.5
2153.77	613.5
2157.793	612.5
2161.812	602.5
2165.827	604.5
2169.838	580.5
2173.846	579.5
2177.851	565.5
2181.851	567.5
2185.848	555.5
2189.841	549.5
2193.831	533.5
2197.817	541.5
2201.799	550.5
2205.778	537.5
2209.753	532.5
2213.725	536.5
2217.693	533.5
2221.657	542.5
2225.618	531.5
2229.575	534.5
2233.529	533.5
2237.479	523.5
2241.425	513.5
2245.368	512.5
2249.307	491.5
2253.243	490.5
2257.175	482.5
2261.104	478.5
2265.029	470.5
2268.95	467.5
2272.868	457.5
2276.783	459.5
2280.694	432.5
2284.601	435.5
2288.505	441.5
2292.405	427.5
2296.302	432.5
2300.195	420.5
2304.085	425.5
2307.971	411.5
2311.854	408.5
2315.734	405.5
2319.609	396.5
2323.482	379.5
2327.351	379.5
2331.216	378.5
2335.078	374.5
2338.937	368.5
2342.792	366.5
2346.643	364.5
2350.492	357.5
2354.336	365.5
2358.178	371.5
2362.015	363.5
2365.85	366.5
2369.681	373.5
2373.508	371.5
2377.333	359.5
2381.153	361.5
2384.971	369.5
2388.785	362.5
2392.595	355.5
2396.402	356.5
2400.206	351.5
2404.007	358.5
2407.804	356.5
2411.597	346.5
2415.388	344.5
2419.174	343.5
2422.958	353.5
2426.738	349.5
2430.515	342.5
2434.289	353.5
2438.059	337.5
2441.825	342.5
2445.589	347.5
2449.349	332.5
2453.106	335.5
2456.859	327.5
2460.61	334.5
2464.356	325.5
2468.1	320.5
2471.84	311.5
2475.577	319.5
2479.311	315.5
2483.041	317.5
2486.768	326.5
2490.492	321.5
2494.213	320.5
2497.93	316.5
2501.644	317.5
2505.355	314.5
2509.062	322.5
2512.766	308.5
2516.467	312.5
2520.165	315.5
2523.859	306.5
2527.551	310.5
2531.239	303.5
2534.923	306.5
2538.605	296.5
2542.283	293.5
2545.958	293.5
2549.63	291.5
2553.299	293.5
2556.964	289.5
2560.626	285.5
2564.285	287.5
2567.941	284.5
2571.594	289.5
2575.243	285.5
2578.89	279.5
2582.533	275.5
2586.173	260.5
2589.809	266.5
2593.443	270.5
2597.073	261.5
2600.701	256.5
2604.325	261.5
2607.946	260.5
2611.564	277.5
2615.178	258.5
2618.79	260.5
2622.398	250.5
2626.004	255.5
2629.606	253.5
2633.205	255.5
2636.801	254.5
2640.394	249.5
2643.983	243.5
2647.57	238.5
2651.153	240.5
2654.734	229.5
2658.311	233.5
2661.885	226.5
2665.456	234.5
2669.025	221.5
2672.589	221.5
2676.151	223.5
2679.71	217.5
2683.266	213.5
2686.819	218.5
2690.368	208.5
2693.915	214.5
2697.458	209.5
2700.999	211.5
2704.536	209.5
2708.071	202.5
2711.602	207.5
2715.13	202.5
2718.656	201.5
2722.178	198.5
2725.697	196.5
2729.214	201.5
2732.727	202.5
2736.237	198.5
2739.744	202.5
2743.249	204.5
2746.75	203.5
2750.248	205.5
2753.743	203.5
2757.236	196.5
2760.725	196.5
2764.211	201.5
2767.695	190.5
2771.175	187.5
2774.652	193.5
2778.127	194.5
2781.598	193.5
2785.067	188.5
2788.532	187.5
2791.995	188.5
2795.455	197.5
2798.911	192.5
2802.365	196.5
2805.816	198.5
2809.264	202.5
2812.709	199.5
2816.151	204.5
2819.59	198.5
2823.026	205.5
2826.46	202.5
2829.89	205.5
2833.318	203.5
2836.742	206.5
2840.164	201.5
2843.583	202.5
2846.999	198.5
2850.412	205.5
2853.822	210.5
2857.229	209.5
2860.634	217.5
2864.035	216.5
2867.434	225.5
2870.83	230.5
2874.223	227.5
2877.613	231.5
2881	228.5
2884.385	232.5
2887.766	231.5
2891.145	238.5
2894.521	237.5
2897.894	243.5
2901.264	240.5
2904.631	231.5
2907.996	240.5
2911.358	244.5
2914.717	248.5
2918.073	249.5
2921.426	249.5
2924.777	263.5
2928.124	259.5
2931.469	259.5
2934.811	279.5
2938.15	279.5
2941.487	291.5
2944.821	282.5
2948.152	292.5
2951.48	290.5
2954.805	303.5
2958.128	303.5
2961.447	315.5
2964.765	305.5
2968.079	316.5
2971.39	331.5
2974.699	336.5
2978.005	348.5
2981.308	344.5
2984.609	367.5
2987.907	371.5
2991.202	382.5
2994.494	394.5
2997.784	404.5
3001.07	424.5
3004.355	434.5
3007.636	427.5
3010.915	452.5
3014.191	465.5
3017.464	459.5
3020.734	471.5
3024.002	478.5
3027.267	482.5
3030.53	495.5
3033.789	505.5
3037.046	529.5
3040.301	526.5
3043.552	541.5
3046.801	555.5
3050.048	569.5
3053.291	595.5
3056.532	606.5
3059.771	611.5
3063.006	656.5
3066.239	673.5
3069.469	690.5
3072.697	707.5
3075.922	706.5
3079.144	743.5
3082.364	764.5
3085.581	783.5
3088.795	795.5
3092.007	815.5
3095.216	834.5
3098.423	846.5
3101.627	856.5
3104.828	884.5
3108.026	911.5
3111.222	931.5
3114.416	956.5
3117.607	976.5
3120.795	984.5
3123.98	1016.5
3127.163	1022.5
3130.344	1052.5
3133.521	1104.5
3136.696	1112.5
3139.869	1134.5
3143.039	1166.5
3146.206	1168.5
3149.371	1190.5
3152.533	1187.5
3155.693	1200.5
3158.85	1215.5
3162.005	1215.5
3165.157	1203.5
3168.306	1218.5
3171.453	1215.5
3174.597	1220.5
3177.739	1245.5
3180.878	1244.5
3184.014	1252.5
3187.149	1261.5
3190.28	1254.5
3193.409	1253.5
3196.536	1272.5
3199.659	1268.5
3202.781	1268.5
3205.9	1276.5
3209.016	1285.5
3212.13	1260.5
3215.241	1263.5
3218.35	1262.5
3221.456	1239.5
3224.56	1228.5
3227.661	1213.5
3230.76	1214.5
3233.856	1191.5
3236.95	1178.5
3240.041	1173.5
3243.13	1158.5
3246.216	1162.5
3249.3	1140.5
3252.382	1135.5
3255.46	1138.5
3258.537	1125.5
3261.611	1123.5
3264.682	1127.5
3267.751	1126.5
3270.818	1113.5
3273.882	1098.5
3276.943	1100.5
3280.002	1096.5
3283.059	1078.5
3286.113	1066.5
3289.165	1038.5
3292.214	1028.5
3295.261	1024.5
3298.306	1005.5
3301.348	995.5
3304.387	985.5
3307.425	969.5
3310.459	956.5
3313.492	937.5
3316.521	932.5
3319.549	906.5
3322.574	917.5
3325.597	900.5
3328.617	906.5
3331.635	901.5
3334.65	886.5
3337.663	873.5
3340.674	873.5
3343.682	881.5
3346.688	861.5
3349.691	875.5
3352.692	865.5
3355.691	848.5
3358.687	856.5
3361.681	840.5
3364.673	835.5
3367.662	824.5
3370.649	810.5
3373.633	789.5
3376.615	790.5
3379.595	770.5
3382.572	753.5
3385.547	752.5
3388.52	745.5
3391.49	734.5
3394.458	722.5
3397.424	715.5
3400.387	706.5
3403.348	700.5
3406.307	676.5
3409.263	678.5
3412.217	675.5
3415.168	672.5
3418.118	654.5
3421.065	643.5
3424.009	648.5
3426.951	641.5
3429.891	628.5
3432.829	614.5
3435.764	594.5
3438.697	590.5
3441.628	571.5
3444.557	540.5
3447.483	538.5
3450.407	534.5
3453.328	504.5
3456.247	499.5
3459.164	485.5
3462.079	465.5
3464.991	452.5
3467.902	439.5
3470.809	425.5
3473.715	415.5
3476.618	392.5
3479.519	381.5
3482.418	373.5
3485.315	358.5
3488.209	361.5
3491.101	344.5
3493.99	328.5
3496.878	320.5
3499.763	315.5
3502.646	298.5
3505.527	287.5
3508.405	276.5
3511.281	261.5
3514.155	254.5
3517.027	245.5
3519.897	225.5
3522.764	216.5
3525.629	195.5
3528.492	192.5
3531.352	176.5
3534.211	165.5
3537.067	156.5
3539.921	145.5
3542.773	138.5
3545.622	135.5
3548.469	120.5
3551.315	110.5
3554.157	103.5
3556.998	100.5
3559.837	89.5
3562.673	87.5
3565.507	81.5
3568.339	74.5
3571.169	71.5
3573.996	60.5
3576.822	50.5
3579.645	46.5
3582.466	46.5
3585.285	37.5
3588.101	31.5
3590.916	31.5
3593.728	18.5
3596.538	18.5
3599.346	14.5
3602.152	8.5
3604.956	4.5
3607.757	-0.5
3610.556	-9.5
3613.354	-14.5
3616.149	-12.5
3618.942	-20.5
3621.732	-18.5
3624.521	-23.5
3627.307	-22.5
3630.092	-30.5
3632.874	-25.5
3635.654	-33.5
3638.432	-38.5
3641.208	-39.5
3643.982	-37.5
3646.753	-41.5
3649.523	-47.5
3652.29	-49.5
3655.055	-51.5
3657.818	-49.5
3660.579	-54.5
3663.338	-61.5
3666.095	-58.5
3668.849	-62.5
3671.602	-65.5
3674.352	-70.5
3677.101	-74.5
3679.847	-70.5
3682.591	-72.5
3685.333	-76.5
3688.073	-78.5
3690.811	-77.5
3693.547	-77.5
3696.281	-80.5
3699.013	-81.5
3701.742	-83.5
3704.47	-87.5
3707.195	-92.5
3709.919	-95.5
3712.64	-92.5
3715.359	-90.5
3718.076	-96.5
3720.792	-92.5
3723.505	-92.5
3726.216	-93.5
3728.925	-90.5
3731.632	-95.5
3734.336	-96.5
3737.039	-97.5
3739.74	-96.5
3742.439	-95.5
3745.136	-100.5
3747.83	-99.5
3750.523	-96.5
3753.213	-101.5
3755.902	-100.5
3758.589	-101.5
3761.273	-105.5
3763.956	-103.5
3766.636	-103.5
3769.315	-109.5
3771.991	-106.5
3774.665	-103.5
3777.338	-104.5
3780.008	-104.5
3782.677	-103.5
3785.343	-102.5
3788.007	-107.5
3790.67	-103.5
3793.33	-106.5
3795.989	-104.5
3798.645	-104.5
3801.299	-106.5
3803.952	-108.5
3806.602	-107.5
3809.251	-111.5
3811.897	-109.5
3814.542	-110.5
3817.184	-110.5
3819.825	-112.5
3822.463	-112.5
3825.1	-113.5
3827.735	-114.5
3830.367	-116.5
3832.998	-113.5
3835.627	-109.5
3838.253	-111.5
3840.878	-110.5
3843.501	-109.5
3846.122	-110.5
3848.741	-113.5
3851.358	-115.5
3853.973	-115.5
3856.586	-114.5
3859.197	-116.5
3861.806	-115.5
3864.414	-113.5
3867.019	-113.5
3869.622	-110.5
3872.224	-108.5
3874.823	-109.5
3877.421	-104.5
3880.016	-107.5
3882.61	-104.5
3885.202	-101.5
3887.792	-104.5
3890.38	-107.5
3892.966	-112.5
3895.55	-116.5
3898.132	-117.5
3900.713	-117.5
3903.291	-113.5
3905.868	-116.5
3908.442	-118.5
3911.015	-117.5
3913.586	-114.5
3916.155	-113.5
3918.722	-117.5
3921.287	-115.5
3923.85	-115.5
3926.411	-119.5
3928.971	-115.5
3931.528	-112.5
3934.084	-116.5
3936.638	-117.5
3939.19	-117.5
3941.74	-119.5
3944.288	-118.5
3946.834	-120.5
3949.378	-122.5
3951.921	-119.5
3954.462	-120.5
3957	-116.5
3959.537	-116.5
3962.072	-113.5
3964.606	-112.5
3967.137	-117.5
3969.667	-116.5
3972.194	-117.5
3974.72	-116.5
3977.244	-119.5
3979.766	-120.5
3982.286	-115.5
3984.805	-115.5
3987.321	-110.5
3989.836	-112.5
3992.349	-113.5
3994.86	-116.5
3997.369	-115.5
3999.877	-120.5
4002.382	-114.5
4004.886	-113.5
4007.388	-112.5
4009.888	-114.5
4012.386	-118.5
4014.883	-109.5
4017.377	-113.5
4019.87	-113.5
4022.361	-113.5
4024.85	-113.5
4027.338	-114.5
4029.823	-114.5
4032.307	-120.5
4034.789	-119.5
4037.269	-115.5
4039.747	-119.5
4042.224	-117.5
4044.699	-118.5
4047.172	-115.5
4049.643	-116.5
4052.112	-114.5
4054.58	-112.5
4057.046	-113.5
4059.51	-114.5
4061.972	-117.5
4064.432	-119.5
4066.891	-117.5
4069.348	-115.5
4071.803	-117.5
4074.256	-116.5
4076.708	-117.5
4079.158	-116.5
4081.606	-115.5
4084.052	-114.5
4086.497	-118.5
4088.939	-120.5
4091.38	-117.5
4093.819	-118.5
4096.257	-119.5
4098.693	-120.5
4101.127	-122.5
4103.559	-123.5
4105.989	-80.5
4108.418	-73.5
4110.845	-70.5
4113.27	-69.5
4115.694	-58.5
4118.115	-45.5
4120.535	-121.5
4122.954	-115.5
4125.37	-116.5
4127.785	-117.5
4130.198	-113.5
4132.609	-116.5
4135.019	-122.5
4137.427	-115.5
4139.833	-123.5
4142.237	-123.5
