Data from 10000CFU2_A_RamanShift_1.txt Node
Date: Tue Jan 24 17:27:31 IST 2017
User: aro
Spectrometer: QEPB0276
Trigger mode: 0
Integration Time (sec): 5.000000E0
Scans to average: 1
Electric dark correction enabled: true
Nonlinearity correction enabled: false
Boxcar width: 0
XAxis mode: Raman Shifts
Number of Pixels in Spectrum: 1044
>>>>>Begin Spectral Data<<<<<
160.701	-32.5
166.742	0.5
172.777	96.5
178.805	387.5
184.826	1060.5
190.841	2191.5
196.849	3432.5
202.85	4275.5
208.845	4419.5
214.833	4281.5
220.815	4127.5
226.789	4045.5
232.758	3914.5
238.719	3810.5
244.674	3682.5
250.623	3532.5
256.565	3364.5
262.5	3210.5
268.429	3105.5
274.351	2972.5
280.267	2874.5
286.176	2763.5
292.079	2676.5
297.975	2571.5
303.865	2508.5
309.748	2461.5
315.625	2392.5
321.495	2355.5
327.359	2313.5
333.217	2278.5
339.068	2269.5
344.912	2268.5
350.751	2258.5
356.583	2245.5
362.408	2235.5
368.227	2251.5
374.04	2237.5
379.847	2236.5
385.647	2272.5
391.44	2272.5
397.228	2287.5
403.009	2308.5
408.784	2322.5
414.553	2323.5
420.315	2342.5
426.071	2334.5
431.821	2337.5
437.565	2314.5
443.302	2324.5
449.033	2316.5
454.758	2304.5
460.477	2293.5
466.189	2284.5
471.896	2286.5
477.596	2280.5
483.29	2257.5
488.978	2235.5
494.66	2256.5
500.335	2228.5
506.005	2194.5
511.668	2150.5
517.325	2104.5
522.977	2068.5
528.622	2044.5
534.261	2009.5
539.894	2019.5
545.521	2007.5
551.141	1988.5
556.756	1984.5
562.365	1973.5
567.968	1949.5
573.565	1934.5
579.155	1948.5
584.74	1906.5
590.319	1903.5
595.892	1907.5
601.459	1889.5
607.02	1889.5
612.575	1863.5
618.124	1845.5
623.667	1829.5
629.204	1803.5
634.735	1801.5
640.261	1784.5
645.781	1793.5
651.294	1758.5
656.802	1767.5
662.304	1739.5
667.8	1760.5
673.29	1761.5
678.775	1745.5
684.254	1736.5
689.726	1720.5
695.193	1740.5
700.655	1700.5
706.11	1703.5
711.56	1688.5
717.004	1684.5
722.442	1689.5
727.874	1659.5
733.301	1667.5
738.722	1663.5
744.137	1645.5
749.547	1650.5
754.951	1665.5
760.349	1636.5
765.741	1635.5
771.128	1630.5
776.509	1639.5
781.885	1625.5
787.254	1625.5
792.618	1623.5
797.977	1644.5
803.33	1621.5
808.677	1581.5
814.019	1580.5
819.355	1575.5
824.686	1556.5
830.011	1523.5
835.33	1542.5
840.644	1545.5
845.952	1517.5
851.255	1542.5
856.552	1526.5
861.844	1512.5
867.13	1520.5
872.41	1505.5
877.686	1489.5
882.955	1467.5
888.219	1444.5
893.478	1423.5
898.731	1408.5
903.979	1401.5
909.221	1389.5
914.458	1367.5
919.69	1362.5
924.916	1375.5
930.136	1367.5
935.351	1366.5
940.561	1354.5
945.766	1367.5
950.965	1346.5
956.158	1337.5
961.347	1337.5
966.529	1305.5
971.707	1292.5
976.879	1284.5
982.046	1268.5
987.208	1260.5
992.364	1280.5
997.515	1258.5
1002.66	1288.5
1007.801	1289.5
1012.936	1304.5
1018.066	1324.5
1023.19	1329.5
1028.309	1316.5
1033.423	1310.5
1038.532	1315.5
1043.636	1313.5
1048.734	1302.5
1053.827	1282.5
1058.915	1280.5
1063.998	1270.5
1069.075	1252.5
1074.147	1264.5
1079.214	1271.5
1084.276	1276.5
1089.333	1281.5
1094.385	1301.5
1099.431	1311.5
1104.472	1313.5
1109.509	1301.5
1114.54	1289.5
1119.565	1284.5
1124.586	1264.5
1129.602	1248.5
1134.613	1237.5
1139.618	1244.5
1144.619	1237.5
1149.614	1259.5
1154.604	1258.5
1159.589	1249.5
1164.57	1254.5
1169.545	1263.5
1174.515	1261.5
1179.48	1260.5
1184.44	1245.5
1189.395	1236.5
1194.345	1236.5
1199.29	1237.5
1204.23	1225.5
1209.165	1239.5
1214.095	1272.5
1219.021	1269.5
1223.941	1271.5
1228.856	1282.5
1233.766	1285.5
1238.672	1292.5
1243.572	1290.5
1248.467	1297.5
1253.358	1251.5
1258.244	1235.5
1263.124	1234.5
1268	1224.5
1272.871	1199.5
1277.737	1204.5
1282.599	1194.5
1287.455	1204.5
1292.306	1196.5
1297.153	1210.5
1301.995	1209.5
1306.832	1229.5
1311.664	1231.5
1316.491	1244.5
1321.314	1232.5
1326.132	1230.5
1330.945	1210.5
1335.753	1202.5
1340.556	1186.5
1345.354	1176.5
1350.148	1167.5
1354.937	1162.5
1359.722	1162.5
1364.501	1139.5
1369.276	1131.5
1374.046	1119.5
1378.811	1127.5
1383.572	1112.5
1388.327	1120.5
1393.079	1107.5
1397.825	1096.5
1402.567	1088.5
1407.304	1093.5
1412.036	1095.5
1416.764	1082.5
1421.487	1104.5
1426.205	1101.5
1430.919	1104.5
1435.628	1114.5
1440.333	1117.5
1445.032	1123.5
1449.727	1159.5
1454.418	1139.5
1459.104	1140.5
1463.785	1141.5
1468.462	1130.5
1473.134	1114.5
1477.802	1124.5
1482.465	1114.5
1487.123	1110.5
1491.777	1104.5
1496.426	1098.5
1501.071	1101.5
1505.711	1128.5
1510.347	1131.5
1514.978	1149.5
1519.604	1139.5
1524.226	1154.5
1528.844	1158.5
1533.457	1159.5
1538.065	1149.5
1542.669	1144.5
1547.269	1130.5
1551.864	1138.5
1556.454	1143.5
1561.041	1156.5
1565.622	1172.5
1570.199	1192.5
1574.772	1208.5
1579.34	1215.5
1583.904	1254.5
1588.464	1263.5
1593.019	1285.5
1597.569	1298.5
1602.115	1304.5
1606.657	1299.5
1611.195	1308.5
1615.728	1312.5
1620.256	1336.5
1624.78	1350.5
1629.3	1373.5
1633.816	1382.5
1638.327	1408.5
1642.834	1433.5
1647.336	1431.5
1651.834	1437.5
1656.328	1447.5
1660.817	1435.5
1665.302	1405.5
1669.783	1382.5
1674.259	1351.5
1678.732	1322.5
1683.199	1280.5
1687.663	1239.5
1692.122	1195.5
1696.577	1172.5
1701.028	1110.5
1705.474	1083.5
1709.917	1026.5
1714.355	1023.5
1718.788	1013.5
1723.218	992.5
1727.643	980.5
1732.064	966.5
1736.481	935.5
1740.893	912.5
1745.301	900.5
1749.705	875.5
1754.105	852.5
1758.501	851.5
1762.893	834.5
1767.28	820.5
1771.663	799.5
1776.042	814.5
1780.417	813.5
1784.787	814.5
1789.154	820.5
1793.516	822.5
1797.874	800.5
1802.228	806.5
1806.578	793.5
1810.924	780.5
1815.266	767.5
1819.603	765.5
1823.937	744.5
1828.266	742.5
1832.591	735.5
1836.913	734.5
1841.23	734.5
1845.543	734.5
1849.852	735.5
1854.156	735.5
1858.457	743.5
1862.754	748.5
1867.047	757.5
1871.335	757.5
1875.62	772.5
1879.9	758.5
1884.177	761.5
1888.449	759.5
1892.718	736.5
1896.982	747.5
1901.243	750.5
1905.499	747.5
1909.752	740.5
1914	726.5
1918.245	753.5
1922.485	736.5
1926.722	755.5
1930.954	747.5
1935.183	745.5
1939.408	760.5
1943.628	741.5
1947.845	751.5
1952.058	748.5
1956.267	748.5
1960.472	733.5
1964.673	724.5
1968.87	725.5
1973.063	725.5
1977.252	704.5
1981.438	708.5
1985.619	704.5
1989.797	708.5
1993.971	701.5
1998.14	703.5
2002.306	710.5
2006.469	702.5
2010.627	717.5
2014.781	729.5
2018.932	731.5
2023.078	715.5
2027.221	714.5
2031.36	702.5
2035.495	698.5
2039.627	701.5
2043.754	697.5
2047.878	694.5
2051.998	695.5
2056.114	687.5
2060.226	696.5
2064.334	700.5
2068.439	701.5
2072.54	704.5
2076.637	709.5
2080.73	719.5
2084.82	722.5
2088.906	719.5
2092.988	717.5
2097.066	704.5
2101.14	696.5
2105.211	696.5
2109.278	695.5
2113.342	691.5
2117.401	677.5
2121.457	683.5
2125.509	677.5
2129.558	672.5
2133.602	677.5
2137.643	672.5
2141.681	663.5
2145.714	655.5
2149.744	663.5
2153.77	664.5
2157.793	663.5
2161.812	656.5
2165.827	638.5
2169.838	642.5
2173.846	619.5
2177.851	623.5
2181.851	603.5
2185.848	605.5
2189.841	598.5
2193.831	584.5
2197.817	598.5
2201.799	580.5
2205.778	583.5
2209.753	587.5
2213.725	580.5
2217.693	588.5
2221.657	592.5
2225.618	588.5
2229.575	584.5
2233.529	577.5
2237.479	566.5
2241.425	568.5
2245.368	556.5
2249.307	547.5
2253.243	543.5
2257.175	535.5
2261.104	534.5
2265.029	518.5
2268.95	522.5
2272.868	506.5
2276.783	510.5
2280.694	493.5
2284.601	494.5
2288.505	483.5
2292.405	491.5
2296.302	470.5
2300.195	472.5
2304.085	458.5
2307.971	465.5
2311.854	465.5
2315.734	444.5
2319.609	445.5
2323.482	428.5
2327.351	430.5
2331.216	432.5
2335.078	416.5
2338.937	414.5
2342.792	414.5
2346.643	411.5
2350.492	416.5
2354.336	413.5
2358.178	420.5
2362.015	418.5
2365.85	414.5
2369.681	420.5
2373.508	409.5
2377.333	412.5
2381.153	417.5
2384.971	417.5
2388.785	423.5
2392.595	401.5
2396.402	408.5
2400.206	414.5
2404.007	407.5
2407.804	413.5
2411.597	399.5
2415.388	404.5
2419.174	403.5
2422.958	396.5
2426.738	395.5
2430.515	398.5
2434.289	389.5
2438.059	397.5
2441.825	389.5
2445.589	386.5
2449.349	388.5
2453.106	381.5
2456.859	372.5
2460.61	380.5
2464.356	377.5
2468.1	363.5
2471.84	372.5
2475.577	366.5
2479.311	363.5
2483.041	365.5
2486.768	365.5
2490.492	374.5
2494.213	364.5
2497.93	362.5
2501.644	360.5
2505.355	355.5
2509.062	366.5
2512.766	355.5
2516.467	350.5
2520.165	360.5
2523.859	352.5
2527.551	349.5
2531.239	353.5
2534.923	342.5
2538.605	339.5
2542.283	345.5
2545.958	344.5
2549.63	342.5
2553.299	334.5
2556.964	327.5
2560.626	339.5
2564.285	328.5
2567.941	332.5
2571.594	323.5
2575.243	330.5
2578.89	320.5
2582.533	319.5
2586.173	314.5
2589.809	311.5
2593.443	313.5
2597.073	308.5
2600.701	308.5
2604.325	312.5
2607.946	300.5
2611.564	310.5
2615.178	294.5
2618.79	302.5
2622.398	291.5
2626.004	298.5
2629.606	296.5
2633.205	298.5
2636.801	297.5
2640.394	292.5
2643.983	272.5
2647.57	287.5
2651.153	269.5
2654.734	276.5
2658.311	267.5
2661.885	278.5
2665.456	269.5
2669.025	264.5
2672.589	257.5
2676.151	262.5
2679.71	265.5
2683.266	263.5
2686.819	253.5
2690.368	253.5
2693.915	255.5
2697.458	250.5
2700.999	250.5
2704.536	243.5
2708.071	240.5
2711.602	245.5
2715.13	238.5
2718.656	231.5
2722.178	236.5
2725.697	239.5
2729.214	240.5
2732.727	235.5
2736.237	242.5
2739.744	247.5
2743.249	248.5
2746.75	243.5
2750.248	238.5
2753.743	243.5
2757.236	232.5
2760.725	231.5
2764.211	232.5
2767.695	230.5
2771.175	225.5
2774.652	223.5
2778.127	218.5
2781.598	224.5
2785.067	224.5
2788.532	234.5
2791.995	222.5
2795.455	220.5
2798.911	230.5
2802.365	229.5
2805.816	232.5
2809.264	237.5
2812.709	230.5
2816.151	229.5
2819.59	238.5
2823.026	228.5
2826.46	230.5
2829.89	228.5
2833.318	225.5
2836.742	228.5
2840.164	236.5
2843.583	228.5
2846.999	230.5
2850.412	232.5
2853.822	243.5
2857.229	245.5
2860.634	240.5
2864.035	245.5
2867.434	258.5
2870.83	250.5
2874.223	257.5
2877.613	247.5
2881	252.5
2884.385	248.5
2887.766	254.5
2891.145	253.5
2894.521	247.5
2897.894	263.5
2901.264	258.5
2904.631	264.5
2907.996	262.5
2911.358	264.5
2914.717	267.5
2918.073	262.5
2921.426	271.5
2924.777	282.5
2928.124	277.5
2931.469	281.5
2934.811	287.5
2938.15	292.5
2941.487	291.5
2944.821	297.5
2948.152	294.5
2951.48	315.5
2954.805	306.5
2958.128	308.5
2961.447	317.5
2964.765	330.5
2968.079	324.5
2971.39	336.5
2974.699	339.5
2978.005	346.5
2981.308	353.5
2984.609	372.5
2987.907	366.5
2991.202	385.5
2994.494	394.5
2997.784	413.5
3001.07	410.5
3004.355	421.5
3007.636	437.5
3010.915	436.5
3014.191	450.5
3017.464	455.5
3020.734	460.5
3024.002	466.5
3027.267	473.5
3030.53	484.5
3033.789	502.5
3037.046	507.5
3040.301	506.5
3043.552	523.5
3046.801	531.5
3050.048	550.5
3053.291	565.5
3056.532	585.5
3059.771	599.5
3063.006	620.5
3066.239	634.5
3069.469	660.5
3072.697	682.5
3075.922	683.5
3079.144	712.5
3082.364	727.5
3085.581	727.5
3088.795	757.5
3092.007	766.5
3095.216	785.5
3098.423	803.5
3101.627	829.5
3104.828	842.5
3108.026	866.5
3111.222	864.5
3114.416	893.5
3117.607	914.5
3120.795	924.5
3123.98	947.5
3127.163	971.5
3130.344	994.5
3133.521	1022.5
3136.696	1028.5
3139.869	1053.5
3143.039	1080.5
3146.206	1085.5
3149.371	1108.5
3152.533	1112.5
3155.693	1126.5
3158.85	1134.5
3162.005	1127.5
3165.157	1143.5
3168.306	1143.5
3171.453	1145.5
3174.597	1149.5
3177.739	1146.5
3180.878	1154.5
3184.014	1148.5
3187.149	1165.5
3190.28	1158.5
3193.409	1176.5
3196.536	1173.5
3199.659	1172.5
3202.781	1178.5
3205.9	1187.5
3209.016	1180.5
3212.13	1172.5
3215.241	1161.5
3218.35	1154.5
3221.456	1169.5
3224.56	1148.5
3227.661	1128.5
3230.76	1119.5
3233.856	1099.5
3236.95	1112.5
3240.041	1097.5
3243.13	1094.5
3246.216	1072.5
3249.3	1079.5
3252.382	1056.5
3255.46	1058.5
3258.537	1062.5
3261.611	1035.5
3264.682	1042.5
3267.751	1046.5
3270.818	1049.5
3273.882	1028.5
3276.943	1020.5
3280.002	1005.5
3283.059	996.5
3286.113	983.5
3289.165	976.5
3292.214	953.5
3295.261	954.5
3298.306	940.5
3301.348	925.5
3304.387	918.5
3307.425	896.5
3310.459	883.5
3313.492	886.5
3316.521	865.5
3319.549	850.5
3322.574	857.5
3325.597	848.5
3328.617	827.5
3331.635	821.5
3334.65	805.5
3337.663	808.5
3340.674	799.5
3343.682	804.5
3346.688	806.5
3349.691	809.5
3352.692	781.5
3355.691	803.5
3358.687	789.5
3361.681	772.5
3364.673	768.5
3367.662	756.5
3370.649	744.5
3373.633	729.5
3376.615	723.5
3379.595	724.5
3382.572	712.5
3385.547	697.5
3388.52	679.5
3391.49	676.5
3394.458	679.5
3397.424	663.5
3400.387	648.5
3403.348	638.5
3406.307	638.5
3409.263	632.5
3412.217	615.5
3415.168	610.5
3418.118	607.5
3421.065	610.5
3424.009	588.5
3426.951	597.5
3429.891	576.5
3432.829	568.5
3435.764	552.5
3438.697	541.5
3441.628	526.5
3444.557	516.5
3447.483	495.5
3450.407	490.5
3453.328	473.5
3456.247	468.5
3459.164	449.5
3462.079	437.5
3464.991	430.5
3467.902	405.5
3470.809	402.5
3473.715	382.5
3476.618	372.5
3479.519	361.5
3482.418	341.5
3485.315	338.5
3488.209	325.5
3491.101	322.5
3493.99	315.5
3496.878	304.5
3499.763	290.5
3502.646	282.5
3505.527	275.5
3508.405	261.5
3511.281	254.5
3514.155	235.5
3517.027	229.5
3519.897	207.5
3522.764	210.5
3525.629	196.5
3528.492	184.5
3531.352	170.5
3534.211	168.5
3537.067	148.5
3539.921	139.5
3542.773	132.5
3545.622	123.5
3548.469	118.5
3551.315	109.5
3554.157	108.5
3556.998	100.5
3559.837	94.5
3562.673	79.5
3565.507	75.5
3568.339	73.5
3571.169	68.5
3573.996	61.5
3576.822	51.5
3579.645	48.5
3582.466	36.5
3585.285	33.5
3588.101	41.5
3590.916	31.5
3593.728	25.5
3596.538	20.5
3599.346	17.5
3602.152	9.5
3604.956	6.5
3607.757	1.5
3610.556	-0.5
3613.354	-5.5
3616.149	-7.5
3618.942	-10.5
3621.732	-13.5
3624.521	-20.5
3627.307	-20.5
3630.092	-25.5
3632.874	-22.5
3635.654	-28.5
3638.432	-35.5
3641.208	-30.5
3643.982	-35.5
3646.753	-40.5
3649.523	-40.5
3652.29	-46.5
3655.055	-42.5
3657.818	-43.5
3660.579	-44.5
3663.338	-54.5
3666.095	-55.5
3668.849	-57.5
3671.602	-62.5
3674.352	-64.5
3677.101	-64.5
3679.847	-70.5
3682.591	-71.5
3685.333	-68.5
3688.073	-71.5
3690.811	-72.5
3693.547	-68.5
3696.281	-71.5
3699.013	-73.5
3701.742	-78.5
3704.47	-79.5
3707.195	-81.5
3709.919	-78.5
3712.64	-80.5
3715.359	-82.5
3718.076	-87.5
3720.792	-83.5
3723.505	-84.5
3726.216	-84.5
3728.925	-84.5
3731.632	-86.5
3734.336	-90.5
3737.039	-89.5
3739.74	-91.5
3742.439	-90.5
3745.136	-89.5
3747.83	-89.5
3750.523	-85.5
3753.213	-90.5
3755.902	-92.5
3758.589	-92.5
3761.273	-95.5
3763.956	-93.5
3766.636	-95.5
3769.315	-100.5
3771.991	-99.5
3774.665	-96.5
3777.338	-95.5
3780.008	-94.5
3782.677	-93.5
3785.343	-94.5
3788.007	-97.5
3790.67	-93.5
3793.33	-98.5
3795.989	-100.5
3798.645	-100.5
3801.299	-98.5
3803.952	-105.5
3806.602	-102.5
3809.251	-102.5
3811.897	-102.5
3814.542	-99.5
3817.184	-99.5
3819.825	-97.5
3822.463	-102.5
3825.1	-104.5
3827.735	-102.5
3830.367	-104.5
3832.998	-106.5
3835.627	-100.5
3838.253	-104.5
3840.878	-104.5
3843.501	-102.5
3846.122	-105.5
3848.741	-109.5
3851.358	-106.5
3853.973	-105.5
3856.586	-104.5
3859.197	-105.5
3861.806	-104.5
3864.414	-103.5
3867.019	-104.5
3869.622	-101.5
3872.224	-99.5
3874.823	-101.5
3877.421	-95.5
3880.016	-95.5
3882.61	-98.5
3885.202	-97.5
3887.792	-97.5
3890.38	-99.5
3892.966	-106.5
3895.55	-105.5
3898.132	-106.5
3900.713	-104.5
3903.291	-102.5
3905.868	-106.5
3908.442	-103.5
3911.015	-106.5
3913.586	-106.5
3916.155	-107.5
3918.722	-108.5
3921.287	-109.5
3923.85	-110.5
3926.411	-108.5
3928.971	-107.5
3931.528	-108.5
3934.084	-107.5
3936.638	-109.5
3939.19	-108.5
3941.74	-110.5
3944.288	-106.5
3946.834	-109.5
3949.378	-109.5
3951.921	-110.5
3954.462	-112.5
3957	-108.5
3959.537	-108.5
3962.072	-107.5
3964.606	-105.5
3967.137	-110.5
3969.667	-112.5
3972.194	-109.5
3974.72	-108.5
3977.244	-112.5
3979.766	-111.5
3982.286	-104.5
3984.805	-105.5
3987.321	-102.5
3989.836	-105.5
3992.349	-103.5
3994.86	-107.5
3997.369	-104.5
3999.877	-106.5
4002.382	-106.5
4004.886	-106.5
4007.388	-105.5
4009.888	-110.5
4012.386	-108.5
4014.883	-103.5
4017.377	-103.5
4019.87	-104.5
4022.361	-104.5
4024.85	-104.5
4027.338	-104.5
4029.823	-107.5
4032.307	-110.5
4034.789	-106.5
4037.269	-108.5
4039.747	-109.5
4042.224	-109.5
4044.699	-107.5
4047.172	-105.5
4049.643	-105.5
4052.112	-103.5
4054.58	-103.5
4057.046	-102.5
4059.51	-109.5
4061.972	-106.5
4064.432	-106.5
4066.891	-109.5
4069.348	-107.5
4071.803	-108.5
4074.256	-108.5
4076.708	-109.5
4079.158	-109.5
4081.606	-105.5
4084.052	-108.5
4086.497	-109.5
4088.939	-109.5
4091.38	-107.5
4093.819	-110.5
4096.257	-107.5
4098.693	-107.5
4101.127	-111.5
4103.559	-114.5
4105.989	-77.5
4108.418	-76.5
4110.845	-67.5
4113.27	-63.5
4115.694	-55.5
4118.115	-52.5
4120.535	-110.5
4122.954	-108.5
4125.37	-106.5
4127.785	-108.5
4130.198	-108.5
4132.609	-109.5
4135.019	-112.5
4137.427	-108.5
4139.833	-113.5
4142.237	-117.5
