Data from 100CFU1_A_RamanShift_1.txt Node
Date: Tue Jan 24 17:19:01 IST 2017
User: aro
Spectrometer: QEPB0276
Trigger mode: 0
Integration Time (sec): 5.000000E0
Scans to average: 1
Electric dark correction enabled: true
Nonlinearity correction enabled: false
Boxcar width: 0
XAxis mode: Raman Shifts
Number of Pixels in Spectrum: 1044
>>>>>Begin Spectral Data<<<<<
160.701	-37.25
166.742	1.75
172.777	101.75
178.805	414.75
184.826	1163.75
190.841	2397.75
196.849	3773.75
202.85	4655.75
208.845	4847.75
214.833	4676.75
220.815	4533.75
226.789	4433.75
232.758	4329.75
238.719	4228.75
244.674	4087.75
250.623	3938.75
256.565	3770.75
262.5	3628.75
268.429	3478.75
274.351	3343.75
280.267	3264.75
286.176	3137.75
292.079	3078.75
297.975	2960.75
303.865	2876.75
309.748	2833.75
315.625	2746.75
321.495	2699.75
327.359	2672.75
333.217	2649.75
339.068	2650.75
344.912	2619.75
350.751	2616.75
356.583	2605.75
362.408	2612.75
368.227	2604.75
374.04	2625.75
379.847	2610.75
385.647	2645.75
391.44	2659.75
397.228	2651.75
403.009	2660.75
408.784	2685.75
414.553	2715.75
420.315	2699.75
426.071	2713.75
431.821	2696.75
437.565	2703.75
443.302	2681.75
449.033	2674.75
454.758	2669.75
460.477	2690.75
466.189	2666.75
471.896	2659.75
477.596	2630.75
483.29	2646.75
488.978	2629.75
494.66	2617.75
500.335	2589.75
506.005	2544.75
511.668	2520.75
517.325	2460.75
522.977	2458.75
528.622	2405.75
534.261	2397.75
539.894	2382.75
545.521	2351.75
551.141	2351.75
556.756	2349.75
562.365	2324.75
567.968	2316.75
573.565	2285.75
579.155	2294.75
584.74	2264.75
590.319	2268.75
595.892	2252.75
601.459	2227.75
607.02	2226.75
612.575	2218.75
618.124	2182.75
623.667	2173.75
629.204	2148.75
634.735	2130.75
640.261	2117.75
645.781	2117.75
651.294	2106.75
656.802	2107.75
662.304	2070.75
667.8	2096.75
673.29	2083.75
678.775	2065.75
684.254	2054.75
689.726	2043.75
695.193	2068.75
700.655	2059.75
706.11	2020.75
711.56	2009.75
717.004	1996.75
722.442	2002.75
727.874	1999.75
733.301	1989.75
738.722	1975.75
744.137	1972.75
749.547	1950.75
754.951	1971.75
760.349	1951.75
765.741	1936.75
771.128	1967.75
776.509	1950.75
781.885	1951.75
787.254	1946.75
792.618	1954.75
797.977	1944.75
803.33	1924.75
808.677	1911.75
814.019	1885.75
819.355	1892.75
824.686	1841.75
830.011	1858.75
835.33	1836.75
840.644	1832.75
845.952	1830.75
851.255	1838.75
856.552	1814.75
861.844	1827.75
867.13	1814.75
872.41	1799.75
877.686	1792.75
882.955	1786.75
888.219	1757.75
893.478	1734.75
898.731	1708.75
903.979	1688.75
909.221	1694.75
914.458	1669.75
919.69	1655.75
924.916	1667.75
930.136	1661.75
935.351	1653.75
940.561	1671.75
945.766	1651.75
950.965	1652.75
956.158	1631.75
961.347	1622.75
966.529	1596.75
971.707	1579.75
976.879	1562.75
982.046	1559.75
987.208	1545.75
992.364	1537.75
997.515	1546.75
1002.66	1565.75
1007.801	1557.75
1012.936	1589.75
1018.066	1600.75
1023.19	1602.75
1028.309	1624.75
1033.423	1611.75
1038.532	1594.75
1043.636	1594.75
1048.734	1570.75
1053.827	1554.75
1058.915	1542.75
1063.998	1536.75
1069.075	1546.75
1074.147	1539.75
1079.214	1546.75
1084.276	1548.75
1089.333	1540.75
1094.385	1582.75
1099.431	1580.75
1104.472	1582.75
1109.509	1579.75
1114.54	1561.75
1119.565	1547.75
1124.586	1526.75
1129.602	1520.75
1134.613	1501.75
1139.618	1493.75
1144.619	1500.75
1149.614	1507.75
1154.604	1507.75
1159.589	1521.75
1164.57	1521.75
1169.545	1536.75
1174.515	1545.75
1179.48	1514.75
1184.44	1515.75
1189.395	1511.75
1194.345	1504.75
1199.29	1483.75
1204.23	1499.75
1209.165	1506.75
1214.095	1518.75
1219.021	1524.75
1223.941	1520.75
1228.856	1539.75
1233.766	1551.75
1238.672	1559.75
1243.572	1550.75
1248.467	1525.75
1253.358	1515.75
1258.244	1499.75
1263.124	1479.75
1268	1468.75
1272.871	1465.75
1277.737	1438.75
1282.599	1437.75
1287.455	1439.75
1292.306	1454.75
1297.153	1450.75
1301.995	1481.75
1306.832	1480.75
1311.664	1481.75
1316.491	1483.75
1321.314	1474.75
1326.132	1475.75
1330.945	1445.75
1335.753	1442.75
1340.556	1430.75
1345.354	1404.75
1350.148	1392.75
1354.937	1394.75
1359.722	1378.75
1364.501	1366.75
1369.276	1366.75
1374.046	1347.75
1378.811	1349.75
1383.572	1318.75
1388.327	1322.75
1393.079	1307.75
1397.825	1327.75
1402.567	1304.75
1407.304	1297.75
1412.036	1285.75
1416.764	1288.75
1421.487	1297.75
1426.205	1296.75
1430.919	1321.75
1435.628	1320.75
1440.333	1336.75
1445.032	1334.75
1449.727	1359.75
1454.418	1362.75
1459.104	1357.75
1463.785	1346.75
1468.462	1339.75
1473.134	1346.75
1477.802	1324.75
1482.465	1321.75
1487.123	1305.75
1491.777	1313.75
1496.426	1314.75
1501.071	1334.75
1505.711	1326.75
1510.347	1330.75
1514.978	1349.75
1519.604	1366.75
1524.226	1360.75
1528.844	1362.75
1533.457	1365.75
1538.065	1351.75
1542.669	1363.75
1547.269	1330.75
1551.864	1340.75
1556.454	1360.75
1561.041	1351.75
1565.622	1371.75
1570.199	1389.75
1574.772	1415.75
1579.34	1437.75
1583.904	1443.75
1588.464	1468.75
1593.019	1487.75
1597.569	1495.75
1602.115	1499.75
1606.657	1513.75
1611.195	1514.75
1615.728	1519.75
1620.256	1530.75
1624.78	1545.75
1629.3	1576.75
1633.816	1592.75
1638.327	1623.75
1642.834	1637.75
1647.336	1642.75
1651.834	1655.75
1656.328	1631.75
1660.817	1619.75
1665.302	1608.75
1669.783	1586.75
1674.259	1560.75
1678.732	1532.75
1683.199	1473.75
1687.663	1445.75
1692.122	1404.75
1696.577	1338.75
1701.028	1295.75
1705.474	1242.75
1709.917	1215.75
1714.355	1180.75
1718.788	1162.75
1723.218	1148.75
1727.643	1136.75
1732.064	1119.75
1736.481	1099.75
1740.893	1078.75
1745.301	1055.75
1749.705	1024.75
1754.105	1015.75
1758.501	1001.75
1762.893	981.75
1767.28	965.75
1771.663	957.75
1776.042	949.75
1780.417	944.75
1784.787	956.75
1789.154	951.75
1793.516	955.75
1797.874	948.75
1802.228	954.75
1806.578	936.75
1810.924	919.75
1815.266	912.75
1819.603	899.75
1823.937	891.75
1828.266	880.75
1832.591	881.75
1836.913	873.75
1841.23	862.75
1845.543	873.75
1849.852	875.75
1854.156	872.75
1858.457	872.75
1862.754	889.75
1867.047	881.75
1871.335	892.75
1875.62	882.75
1879.9	893.75
1884.177	898.75
1888.449	886.75
1892.718	884.75
1896.982	877.75
1901.243	873.75
1905.499	866.75
1909.752	866.75
1914	867.75
1918.245	862.75
1922.485	869.75
1926.722	863.75
1930.954	869.75
1935.183	870.75
1939.408	876.75
1943.628	886.75
1947.845	877.75
1952.058	876.75
1956.267	862.75
1960.472	854.75
1964.673	846.75
1968.87	846.75
1973.063	838.75
1977.252	832.75
1981.438	811.75
1985.619	833.75
1989.797	813.75
1993.971	815.75
1998.14	837.75
2002.306	808.75
2006.469	843.75
2010.627	831.75
2014.781	834.75
2018.932	844.75
2023.078	823.75
2027.221	833.75
2031.36	825.75
2035.495	803.75
2039.627	807.75
2043.754	796.75
2047.878	808.75
2051.998	790.75
2056.114	783.75
2060.226	794.75
2064.334	803.75
2068.439	805.75
2072.54	806.75
2076.637	809.75
2080.73	824.75
2084.82	823.75
2088.906	819.75
2092.988	811.75
2097.066	811.75
2101.14	799.75
2105.211	799.75
2109.278	801.75
2113.342	794.75
2117.401	782.75
2121.457	768.75
2125.509	775.75
2129.558	772.75
2133.602	780.75
2137.643	768.75
2141.681	770.75
2145.714	769.75
2149.744	756.75
2153.77	758.75
2157.793	753.75
2161.812	735.75
2165.827	743.75
2169.838	721.75
2173.846	717.75
2177.851	702.75
2181.851	690.75
2185.848	696.75
2189.841	670.75
2193.831	684.75
2197.817	673.75
2201.799	676.75
2205.778	668.75
2209.753	661.75
2213.725	679.75
2217.693	663.75
2221.657	655.75
2225.618	672.75
2229.575	662.75
2233.529	663.75
2237.479	649.75
2241.425	642.75
2245.368	626.75
2249.307	622.75
2253.243	623.75
2257.175	611.75
2261.104	600.75
2265.029	596.75
2268.95	594.75
2272.868	588.75
2276.783	570.75
2280.694	557.75
2284.601	555.75
2288.505	558.75
2292.405	547.75
2296.302	541.75
2300.195	538.75
2304.085	524.75
2307.971	516.75
2311.854	524.75
2315.734	512.75
2319.609	509.75
2323.482	494.75
2327.351	485.75
2331.216	489.75
2335.078	479.75
2338.937	474.75
2342.792	462.75
2346.643	470.75
2350.492	474.75
2354.336	474.75
2358.178	481.75
2362.015	470.75
2365.85	464.75
2369.681	479.75
2373.508	468.75
2377.333	473.75
2381.153	465.75
2384.971	470.75
2388.785	474.75
2392.595	462.75
2396.402	466.75
2400.206	460.75
2404.007	457.75
2407.804	450.75
2411.597	446.75
2415.388	456.75
2419.174	451.75
2422.958	450.75
2426.738	450.75
2430.515	449.75
2434.289	448.75
2438.059	432.75
2441.825	434.75
2445.589	442.75
2449.349	429.75
2453.106	439.75
2456.859	425.75
2460.61	421.75
2464.356	427.75
2468.1	413.75
2471.84	415.75
2475.577	411.75
2479.311	410.75
2483.041	403.75
2486.768	418.75
2490.492	416.75
2494.213	407.75
2497.93	420.75
2501.644	411.75
2505.355	405.75
2509.062	409.75
2512.766	403.75
2516.467	398.75
2520.165	399.75
2523.859	400.75
2527.551	402.75
2531.239	399.75
2534.923	382.75
2538.605	382.75
2542.283	385.75
2545.958	380.75
2549.63	375.75
2553.299	364.75
2556.964	377.75
2560.626	373.75
2564.285	371.75
2567.941	362.75
2571.594	366.75
2575.243	363.75
2578.89	357.75
2582.533	349.75
2586.173	346.75
2589.809	349.75
2593.443	345.75
2597.073	348.75
2600.701	341.75
2604.325	343.75
2607.946	343.75
2611.564	342.75
2615.178	339.75
2618.79	334.75
2622.398	329.75
2626.004	329.75
2629.606	327.75
2633.205	325.75
2636.801	330.75
2640.394	322.75
2643.983	322.75
2647.57	315.75
2651.153	318.75
2654.734	315.75
2658.311	297.75
2661.885	303.75
2665.456	296.75
2669.025	296.75
2672.589	292.75
2676.151	295.75
2679.71	296.75
2683.266	288.75
2686.819	288.75
2690.368	280.75
2693.915	279.75
2697.458	280.75
2700.999	277.75
2704.536	267.75
2708.071	278.75
2711.602	270.75
2715.13	263.75
2718.656	264.75
2722.178	259.75
2725.697	266.75
2729.214	253.75
2732.727	271.75
2736.237	262.75
2739.744	267.75
2743.249	261.75
2746.75	264.75
2750.248	274.75
2753.743	273.75
2757.236	259.75
2760.725	259.75
2764.211	261.75
2767.695	254.75
2771.175	254.75
2774.652	250.75
2778.127	256.75
2781.598	254.75
2785.067	249.75
2788.532	250.75
2791.995	245.75
2795.455	251.75
2798.911	248.75
2802.365	256.75
2805.816	260.75
2809.264	255.75
2812.709	257.75
2816.151	253.75
2819.59	258.75
2823.026	253.75
2826.46	251.75
2829.89	255.75
2833.318	251.75
2836.742	246.75
2840.164	254.75
2843.583	256.75
2846.999	252.75
2850.412	259.75
2853.822	261.75
2857.229	271.75
2860.634	267.75
2864.035	264.75
2867.434	276.75
2870.83	278.75
2874.223	273.75
2877.613	281.75
2881	277.75
2884.385	281.75
2887.766	277.75
2891.145	275.75
2894.521	277.75
2897.894	277.75
2901.264	281.75
2904.631	284.75
2907.996	279.75
2911.358	281.75
2914.717	290.75
2918.073	290.75
2921.426	289.75
2924.777	300.75
2928.124	303.75
2931.469	301.75
2934.811	312.75
2938.15	319.75
2941.487	323.75
2944.821	323.75
2948.152	334.75
2951.48	341.75
2954.805	328.75
2958.128	337.75
2961.447	340.75
2964.765	350.75
2968.079	351.75
2971.39	355.75
2974.699	370.75
2978.005	379.75
2981.308	384.75
2984.609	396.75
2987.907	399.75
2991.202	398.75
2994.494	427.75
2997.784	432.75
3001.07	452.75
3004.355	454.75
3007.636	473.75
3010.915	468.75
3014.191	487.75
3017.464	479.75
3020.734	497.75
3024.002	500.75
3027.267	511.75
3030.53	518.75
3033.789	531.75
3037.046	540.75
3040.301	545.75
3043.552	560.75
3046.801	570.75
3050.048	584.75
3053.291	604.75
3056.532	614.75
3059.771	647.75
3063.006	665.75
3066.239	666.75
3069.469	702.75
3072.697	716.75
3075.922	737.75
3079.144	753.75
3082.364	780.75
3085.581	787.75
3088.795	782.75
3092.007	817.75
3095.216	837.75
3098.423	841.75
3101.627	859.75
3104.828	887.75
3108.026	904.75
3111.222	928.75
3114.416	944.75
3117.607	979.75
3120.795	986.75
3123.98	1010.75
3127.163	1037.75
3130.344	1051.75
3133.521	1079.75
3136.696	1111.75
3139.869	1135.75
3143.039	1139.75
3146.206	1153.75
3149.371	1165.75
3152.533	1185.75
3155.693	1178.75
3158.85	1197.75
3162.005	1214.75
3165.157	1205.75
3168.306	1213.75
3171.453	1209.75
3174.597	1221.75
3177.739	1232.75
3180.878	1225.75
3184.014	1224.75
3187.149	1232.75
3190.28	1240.75
3193.409	1238.75
3196.536	1247.75
3199.659	1252.75
3202.781	1248.75
3205.9	1265.75
3209.016	1248.75
3212.13	1250.75
3215.241	1235.75
3218.35	1235.75
3221.456	1220.75
3224.56	1219.75
3227.661	1195.75
3230.76	1188.75
3233.856	1186.75
3236.95	1175.75
3240.041	1155.75
3243.13	1150.75
3246.216	1131.75
3249.3	1140.75
3252.382	1139.75
3255.46	1127.75
3258.537	1122.75
3261.611	1111.75
3264.682	1112.75
3267.751	1113.75
3270.818	1103.75
3273.882	1091.75
3276.943	1085.75
3280.002	1074.75
3283.059	1049.75
3286.113	1056.75
3289.165	1025.75
3292.214	1028.75
3295.261	1009.75
3298.306	990.75
3301.348	978.75
3304.387	963.75
3307.425	953.75
3310.459	932.75
3313.492	919.75
3316.521	920.75
3319.549	918.75
3322.574	900.75
3325.597	892.75
3328.617	871.75
3331.635	874.75
3334.65	874.75
3337.663	865.75
3340.674	866.75
3343.682	863.75
3346.688	865.75
3349.691	845.75
3352.692	850.75
3355.691	841.75
3358.687	840.75
3361.681	816.75
3364.673	815.75
3367.662	801.75
3370.649	788.75
3373.633	786.75
3376.615	767.75
3379.595	755.75
3382.572	751.75
3385.547	736.75
3388.52	743.75
3391.49	724.75
3394.458	702.75
3397.424	713.75
3400.387	678.75
3403.348	690.75
3406.307	680.75
3409.263	672.75
3412.217	663.75
3415.168	658.75
3418.118	648.75
3421.065	645.75
3424.009	644.75
3426.951	622.75
3429.891	619.75
3432.829	591.75
3435.764	596.75
3438.697	572.75
3441.628	566.75
3444.557	549.75
3447.483	532.75
3450.407	527.75
3453.328	507.75
3456.247	485.75
3459.164	480.75
3462.079	467.75
3464.991	443.75
3467.902	430.75
3470.809	414.75
3473.715	406.75
3476.618	400.75
3479.519	383.75
3482.418	367.75
3485.315	361.75
3488.209	349.75
3491.101	340.75
3493.99	330.75
3496.878	315.75
3499.763	310.75
3502.646	293.75
3505.527	289.75
3508.405	269.75
3511.281	258.75
3514.155	248.75
3517.027	248.75
3519.897	222.75
3522.764	219.75
3525.629	206.75
3528.492	196.75
3531.352	175.75
3534.211	168.75
3537.067	165.75
3539.921	144.75
3542.773	140.75
3545.622	129.75
3548.469	120.75
3551.315	121.75
3554.157	106.75
3556.998	99.75
3559.837	95.75
3562.673	85.75
3565.507	77.75
3568.339	76.75
3571.169	67.75
3573.996	61.75
3576.822	51.75
3579.645	48.75
3582.466	52.75
3585.285	41.75
3588.101	33.75
3590.916	28.75
3593.728	21.75
3596.538	19.75
3599.346	9.75
3602.152	10.75
3604.956	4.75
3607.757	-3.25
3610.556	-8.25
3613.354	-14.25
3616.149	-14.25
3618.942	-15.25
3621.732	-11.25
3624.521	-21.25
3627.307	-22.25
3630.092	-27.25
3632.874	-27.25
3635.654	-31.25
3638.432	-36.25
3641.208	-39.25
3643.982	-41.25
3646.753	-42.25
3649.523	-50.25
3652.29	-49.25
3655.055	-51.25
3657.818	-51.25
3660.579	-51.25
3663.338	-60.25
3666.095	-59.25
3668.849	-64.25
3671.602	-67.25
3674.352	-69.25
3677.101	-72.25
3679.847	-70.25
3682.591	-76.25
3685.333	-76.25
3688.073	-80.25
3690.811	-83.25
3693.547	-76.25
3696.281	-80.25
3699.013	-85.25
3701.742	-86.25
3704.47	-84.25
3707.195	-86.25
3709.919	-90.25
3712.64	-90.25
3715.359	-89.25
3718.076	-90.25
3720.792	-92.25
3723.505	-91.25
3726.216	-93.25
3728.925	-91.25
3731.632	-97.25
3734.336	-100.25
3737.039	-104.25
3739.74	-103.25
3742.439	-98.25
3745.136	-97.25
3747.83	-99.25
3750.523	-97.25
3753.213	-99.25
3755.902	-99.25
3758.589	-101.25
3761.273	-99.25
3763.956	-103.25
3766.636	-99.25
3769.315	-105.25
3771.991	-107.25
3774.665	-105.25
3777.338	-107.25
3780.008	-107.25
3782.677	-106.25
3785.343	-104.25
3788.007	-108.25
3790.67	-107.25
3793.33	-108.25
3795.989	-104.25
3798.645	-107.25
3801.299	-107.25
3803.952	-107.25
3806.602	-108.25
3809.251	-108.25
3811.897	-110.25
3814.542	-109.25
3817.184	-109.25
3819.825	-110.25
3822.463	-113.25
3825.1	-114.25
3827.735	-112.25
3830.367	-113.25
3832.998	-112.25
3835.627	-109.25
3838.253	-109.25
3840.878	-111.25
3843.501	-106.25
3846.122	-107.25
3848.741	-112.25
3851.358	-115.25
3853.973	-112.25
3856.586	-111.25
3859.197	-113.25
3861.806	-118.25
3864.414	-115.25
3867.019	-116.25
3869.622	-115.25
3872.224	-110.25
3874.823	-113.25
3877.421	-108.25
3880.016	-102.25
3882.61	-106.25
3885.202	-102.25
3887.792	-102.25
3890.38	-110.25
3892.966	-114.25
3895.55	-113.25
3898.132	-112.25
3900.713	-116.25
3903.291	-114.25
3905.868	-116.25
3908.442	-118.25
3911.015	-115.25
3913.586	-118.25
3916.155	-118.25
3918.722	-116.25
3921.287	-116.25
3923.85	-115.25
3926.411	-118.25
3928.971	-115.25
3931.528	-115.25
3934.084	-115.25
3936.638	-118.25
3939.19	-118.25
3941.74	-121.25
3944.288	-119.25
3946.834	-122.25
3949.378	-118.25
3951.921	-121.25
3954.462	-122.25
3957	-118.25
3959.537	-116.25
3962.072	-117.25
3964.606	-113.25
3967.137	-115.25
3969.667	-116.25
3972.194	-117.25
3974.72	-118.25
3977.244	-120.25
3979.766	-119.25
3982.286	-115.25
3984.805	-119.25
3987.321	-113.25
3989.836	-116.25
3992.349	-115.25
3994.86	-117.25
3997.369	-114.25
3999.877	-115.25
4002.382	-111.25
4004.886	-115.25
4007.388	-113.25
4009.888	-115.25
4012.386	-117.25
4014.883	-116.25
4017.377	-112.25
4019.87	-114.25
4022.361	-114.25
4024.85	-120.25
4027.338	-118.25
4029.823	-121.25
4032.307	-121.25
4034.789	-118.25
4037.269	-114.25
4039.747	-119.25
4042.224	-116.25
4044.699	-116.25
4047.172	-114.25
4049.643	-113.25
4052.112	-113.25
4054.58	-115.25
4057.046	-115.25
4059.51	-116.25
4061.972	-121.25
4064.432	-119.25
4066.891	-116.25
4069.348	-116.25
4071.803	-117.25
4074.256	-115.25
4076.708	-116.25
4079.158	-117.25
4081.606	-114.25
4084.052	-115.25
4086.497	-115.25
4088.939	-119.25
4091.38	-115.25
4093.819	-120.25
4096.257	-119.25
4098.693	-120.25
4101.127	-123.25
4103.559	-124.25
4105.989	-82.25
4108.418	-75.25
4110.845	-66.25
4113.27	-64.25
4115.694	-56.25
4118.115	-47.25
4120.535	-120.25
4122.954	-119.25
4125.37	-119.25
4127.785	-120.25
4130.198	-118.25
4132.609	-118.25
4135.019	-119.25
4137.427	-116.25
4139.833	-122.25
4142.237	-123.25
