Data from 10CFU3_A_RamanShift_1.txt Node
Date: Tue Jan 24 17:17:21 IST 2017
User: aro
Spectrometer: QEPB0276
Trigger mode: 0
Integration Time (sec): 5.000000E0
Scans to average: 1
Electric dark correction enabled: true
Nonlinearity correction enabled: false
Boxcar width: 0
XAxis mode: Raman Shifts
Number of Pixels in Spectrum: 1044
>>>>>Begin Spectral Data<<<<<
160.701	-29.12
166.742	1.88
172.777	100.88
178.805	385.88
184.826	1100.88
190.841	2249.88
196.849	3523.88
202.85	4346.88
208.845	4530.88
214.833	4406.88
220.815	4243.88
226.789	4115.88
232.758	4001.88
238.719	3892.88
244.674	3732.88
250.623	3580.88
256.565	3432.88
262.5	3261.88
268.429	3095.88
274.351	3001.88
280.267	2886.88
286.176	2781.88
292.079	2696.88
297.975	2608.88
303.865	2512.88
309.748	2457.88
315.625	2390.88
321.495	2345.88
327.359	2299.88
333.217	2311.88
339.068	2259.88
344.912	2247.88
350.751	2250.88
356.583	2223.88
362.408	2259.88
368.227	2259.88
374.04	2249.88
379.847	2262.88
385.647	2256.88
391.44	2258.88
397.228	2273.88
403.009	2296.88
408.784	2317.88
414.553	2315.88
420.315	2323.88
426.071	2340.88
431.821	2318.88
437.565	2345.88
443.302	2317.88
449.033	2313.88
454.758	2293.88
460.477	2288.88
466.189	2297.88
471.896	2289.88
477.596	2271.88
483.29	2244.88
488.978	2235.88
494.66	2227.88
500.335	2197.88
506.005	2167.88
511.668	2141.88
517.325	2101.88
522.977	2071.88
528.622	2054.88
534.261	2018.88
539.894	1994.88
545.521	1990.88
551.141	1965.88
556.756	1985.88
562.365	1937.88
567.968	1941.88
573.565	1911.88
579.155	1906.88
584.74	1907.88
590.319	1877.88
595.892	1881.88
601.459	1853.88
607.02	1839.88
612.575	1823.88
618.124	1812.88
623.667	1793.88
629.204	1778.88
634.735	1774.88
640.261	1744.88
645.781	1739.88
651.294	1740.88
656.802	1726.88
662.304	1720.88
667.8	1712.88
673.29	1707.88
678.775	1689.88
684.254	1709.88
689.726	1690.88
695.193	1686.88
700.655	1667.88
706.11	1672.88
711.56	1654.88
717.004	1646.88
722.442	1638.88
727.874	1617.88
733.301	1626.88
738.722	1602.88
744.137	1601.88
749.547	1590.88
754.951	1603.88
760.349	1587.88
765.741	1583.88
771.128	1582.88
776.509	1609.88
781.885	1590.88
787.254	1584.88
792.618	1578.88
797.977	1572.88
803.33	1561.88
808.677	1544.88
814.019	1530.88
819.355	1542.88
824.686	1515.88
830.011	1491.88
835.33	1478.88
840.644	1480.88
845.952	1472.88
851.255	1468.88
856.552	1456.88
861.844	1460.88
867.13	1439.88
872.41	1439.88
877.686	1432.88
882.955	1392.88
888.219	1387.88
893.478	1377.88
898.731	1348.88
903.979	1329.88
909.221	1315.88
914.458	1311.88
919.69	1308.88
924.916	1312.88
930.136	1299.88
935.351	1305.88
940.561	1292.88
945.766	1295.88
950.965	1265.88
956.158	1274.88
961.347	1267.88
966.529	1247.88
971.707	1221.88
976.879	1217.88
982.046	1211.88
987.208	1205.88
992.364	1204.88
997.515	1193.88
1002.66	1209.88
1007.801	1213.88
1012.936	1229.88
1018.066	1235.88
1023.19	1233.88
1028.309	1249.88
1033.423	1247.88
1038.532	1251.88
1043.636	1241.88
1048.734	1223.88
1053.827	1221.88
1058.915	1196.88
1063.998	1191.88
1069.075	1185.88
1074.147	1189.88
1079.214	1198.88
1084.276	1198.88
1089.333	1197.88
1094.385	1228.88
1099.431	1227.88
1104.472	1227.88
1109.509	1221.88
1114.54	1204.88
1119.565	1191.88
1124.586	1183.88
1129.602	1174.88
1134.613	1152.88
1139.618	1150.88
1144.619	1164.88
1149.614	1154.88
1154.604	1178.88
1159.589	1166.88
1164.57	1171.88
1169.545	1180.88
1174.515	1174.88
1179.48	1172.88
1184.44	1168.88
1189.395	1174.88
1194.345	1163.88
1199.29	1139.88
1204.23	1158.88
1209.165	1168.88
1214.095	1180.88
1219.021	1177.88
1223.941	1190.88
1228.856	1196.88
1233.766	1204.88
1238.672	1199.88
1243.572	1205.88
1248.467	1190.88
1253.358	1170.88
1258.244	1142.88
1263.124	1142.88
1268	1136.88
1272.871	1122.88
1277.737	1108.88
1282.599	1108.88
1287.455	1103.88
1292.306	1114.88
1297.153	1107.88
1301.995	1125.88
1306.832	1151.88
1311.664	1142.88
1316.491	1131.88
1321.314	1144.88
1326.132	1123.88
1330.945	1124.88
1335.753	1095.88
1340.556	1103.88
1345.354	1067.88
1350.148	1084.88
1354.937	1047.88
1359.722	1064.88
1364.501	1048.88
1369.276	1031.88
1374.046	1035.88
1378.811	1021.88
1383.572	1037.88
1388.327	1031.88
1393.079	1038.88
1397.825	1018.88
1402.567	1002.88
1407.304	1008.88
1412.036	999.88
1416.764	999.88
1421.487	1001.88
1426.205	998.88
1430.919	1006.88
1435.628	1016.88
1440.333	1037.88
1445.032	1045.88
1449.727	1057.88
1454.418	1050.88
1459.104	1054.88
1463.785	1052.88
1468.462	1036.88
1473.134	1038.88
1477.802	1031.88
1482.465	1018.88
1487.123	1014.88
1491.777	999.88
1496.426	1007.88
1501.071	1029.88
1505.711	1029.88
1510.347	1042.88
1514.978	1052.88
1519.604	1053.88
1524.226	1067.88
1528.844	1071.88
1533.457	1064.88
1538.065	1072.88
1542.669	1048.88
1547.269	1048.88
1551.864	1065.88
1556.454	1067.88
1561.041	1079.88
1565.622	1092.88
1570.199	1094.88
1574.772	1113.88
1579.34	1155.88
1583.904	1160.88
1588.464	1183.88
1593.019	1196.88
1597.569	1198.88
1602.115	1216.88
1606.657	1226.88
1611.195	1237.88
1615.728	1237.88
1620.256	1260.88
1624.78	1281.88
1629.3	1285.88
1633.816	1302.88
1638.327	1344.88
1642.834	1351.88
1647.336	1368.88
1651.834	1364.88
1656.328	1357.88
1660.817	1350.88
1665.302	1328.88
1669.783	1312.88
1674.259	1272.88
1678.732	1243.88
1683.199	1198.88
1687.663	1146.88
1692.122	1122.88
1696.577	1079.88
1701.028	1035.88
1705.474	997.88
1709.917	966.88
1714.355	938.88
1718.788	914.88
1723.218	919.88
1727.643	894.88
1732.064	867.88
1736.481	860.88
1740.893	831.88
1745.301	805.88
1749.705	795.88
1754.105	773.88
1758.501	755.88
1762.893	746.88
1767.28	745.88
1771.663	732.88
1776.042	721.88
1780.417	726.88
1784.787	715.88
1789.154	714.88
1793.516	720.88
1797.874	725.88
1802.228	717.88
1806.578	709.88
1810.924	697.88
1815.266	677.88
1819.603	679.88
1823.937	673.88
1828.266	668.88
1832.591	651.88
1836.913	655.88
1841.23	649.88
1845.543	643.88
1849.852	653.88
1854.156	644.88
1858.457	657.88
1862.754	655.88
1867.047	666.88
1871.335	667.88
1875.62	678.88
1879.9	664.88
1884.177	664.88
1888.449	663.88
1892.718	662.88
1896.982	646.88
1901.243	654.88
1905.499	661.88
1909.752	640.88
1914	638.88
1918.245	660.88
1922.485	648.88
1926.722	660.88
1930.954	661.88
1935.183	656.88
1939.408	663.88
1943.628	655.88
1947.845	674.88
1952.058	654.88
1956.267	659.88
1960.472	652.88
1964.673	649.88
1968.87	631.88
1973.063	637.88
1977.252	631.88
1981.438	624.88
1985.619	625.88
1989.797	618.88
1993.971	627.88
1998.14	620.88
2002.306	631.88
2006.469	629.88
2010.627	635.88
2014.781	644.88
2018.932	644.88
2023.078	645.88
2027.221	632.88
2031.36	635.88
2035.495	616.88
2039.627	620.88
2043.754	619.88
2047.878	623.88
2051.998	616.88
2056.114	612.88
2060.226	622.88
2064.334	626.88
2068.439	627.88
2072.54	632.88
2076.637	624.88
2080.73	630.88
2084.82	634.88
2088.906	636.88
2092.988	624.88
2097.066	631.88
2101.14	635.88
2105.211	622.88
2109.278	617.88
2113.342	613.88
2117.401	612.88
2121.457	613.88
2125.509	610.88
2129.558	615.88
2133.602	606.88
2137.643	609.88
2141.681	592.88
2145.714	598.88
2149.744	586.88
2153.77	589.88
2157.793	580.88
2161.812	580.88
2165.827	581.88
2169.838	572.88
2173.846	553.88
2177.851	557.88
2181.851	539.88
2185.848	535.88
2189.841	529.88
2193.831	521.88
2197.817	529.88
2201.799	518.88
2205.778	513.88
2209.753	511.88
2213.725	522.88
2217.693	521.88
2221.657	518.88
2225.618	509.88
2229.575	510.88
2233.529	507.88
2237.479	489.88
2241.425	506.88
2245.368	485.88
2249.307	486.88
2253.243	469.88
2257.175	478.88
2261.104	462.88
2265.029	468.88
2268.95	457.88
2272.868	451.88
2276.783	437.88
2280.694	426.88
2284.601	426.88
2288.505	424.88
2292.405	420.88
2296.302	412.88
2300.195	406.88
2304.085	399.88
2307.971	407.88
2311.854	396.88
2315.734	394.88
2319.609	379.88
2323.482	362.88
2327.351	369.88
2331.216	362.88
2335.078	353.88
2338.937	357.88
2342.792	355.88
2346.643	353.88
2350.492	353.88
2354.336	357.88
2358.178	363.88
2362.015	355.88
2365.85	363.88
2369.681	366.88
2373.508	349.88
2377.333	360.88
2381.153	356.88
2384.971	355.88
2388.785	364.88
2392.595	349.88
2396.402	337.88
2400.206	339.88
2404.007	348.88
2407.804	345.88
2411.597	343.88
2415.388	338.88
2419.174	339.88
2422.958	339.88
2426.738	337.88
2430.515	334.88
2434.289	337.88
2438.059	338.88
2441.825	332.88
2445.589	326.88
2449.349	332.88
2453.106	321.88
2456.859	322.88
2460.61	312.88
2464.356	307.88
2468.1	298.88
2471.84	305.88
2475.577	302.88
2479.311	292.88
2483.041	303.88
2486.768	309.88
2490.492	310.88
2494.213	315.88
2497.93	306.88
2501.644	315.88
2505.355	308.88
2509.062	313.88
2512.766	292.88
2516.467	304.88
2520.165	298.88
2523.859	298.88
2527.551	284.88
2531.239	294.88
2534.923	287.88
2538.605	282.88
2542.283	285.88
2545.958	278.88
2549.63	273.88
2553.299	275.88
2556.964	279.88
2560.626	273.88
2564.285	287.88
2567.941	279.88
2571.594	279.88
2575.243	273.88
2578.89	273.88
2582.533	257.88
2586.173	265.88
2589.809	260.88
2593.443	256.88
2597.073	247.88
2600.701	256.88
2604.325	240.88
2607.946	259.88
2611.564	253.88
2615.178	255.88
2618.79	251.88
2622.398	254.88
2626.004	237.88
2629.606	234.88
2633.205	240.88
2636.801	236.88
2640.394	239.88
2643.983	241.88
2647.57	228.88
2651.153	229.88
2654.734	229.88
2658.311	225.88
2661.885	226.88
2665.456	215.88
2669.025	225.88
2672.589	215.88
2676.151	224.88
2679.71	216.88
2683.266	220.88
2686.819	207.88
2690.368	206.88
2693.915	204.88
2697.458	201.88
2700.999	197.88
2704.536	197.88
2708.071	189.88
2711.602	197.88
2715.13	197.88
2718.656	190.88
2722.178	195.88
2725.697	202.88
2729.214	192.88
2732.727	208.88
2736.237	199.88
2739.744	192.88
2743.249	198.88
2746.75	196.88
2750.248	199.88
2753.743	201.88
2757.236	193.88
2760.725	187.88
2764.211	188.88
2767.695	193.88
2771.175	182.88
2774.652	184.88
2778.127	184.88
2781.598	187.88
2785.067	181.88
2788.532	189.88
2791.995	183.88
2795.455	187.88
2798.911	192.88
2802.365	188.88
2805.816	193.88
2809.264	194.88
2812.709	187.88
2816.151	191.88
2819.59	190.88
2823.026	192.88
2826.46	197.88
2829.89	201.88
2833.318	188.88
2836.742	200.88
2840.164	202.88
2843.583	202.88
2846.999	204.88
2850.412	203.88
2853.822	207.88
2857.229	215.88
2860.634	210.88
2864.035	212.88
2867.434	215.88
2870.83	222.88
2874.223	226.88
2877.613	228.88
2881	217.88
2884.385	225.88
2887.766	217.88
2891.145	226.88
2894.521	236.88
2897.894	233.88
2901.264	238.88
2904.631	230.88
2907.996	235.88
2911.358	238.88
2914.717	247.88
2918.073	243.88
2921.426	242.88
2924.777	255.88
2928.124	253.88
2931.469	253.88
2934.811	266.88
2938.15	271.88
2941.487	269.88
2944.821	274.88
2948.152	275.88
2951.48	294.88
2954.805	288.88
2958.128	299.88
2961.447	297.88
2964.765	304.88
2968.079	304.88
2971.39	319.88
2974.699	328.88
2978.005	322.88
2981.308	339.88
2984.609	352.88
2987.907	353.88
2991.202	372.88
2994.494	390.88
2997.784	388.88
3001.07	395.88
3004.355	418.88
3007.636	414.88
3010.915	436.88
3014.191	441.88
3017.464	456.88
3020.734	458.88
3024.002	464.88
3027.267	462.88
3030.53	485.88
3033.789	486.88
3037.046	501.88
3040.301	498.88
3043.552	514.88
3046.801	536.88
3050.048	545.88
3053.291	572.88
3056.532	586.88
3059.771	602.88
3063.006	615.88
3066.239	642.88
3069.469	666.88
3072.697	686.88
3075.922	695.88
3079.144	718.88
3082.364	724.88
3085.581	749.88
3088.795	769.88
3092.007	778.88
3095.216	802.88
3098.423	817.88
3101.627	839.88
3104.828	850.88
3108.026	867.88
3111.222	895.88
3114.416	906.88
3117.607	932.88
3120.795	947.88
3123.98	973.88
3127.163	986.88
3130.344	1013.88
3133.521	1036.88
3136.696	1080.88
3139.869	1086.88
3143.039	1106.88
3146.206	1124.88
3149.371	1144.88
3152.533	1154.88
3155.693	1155.88
3158.85	1155.88
3162.005	1172.88
3165.157	1177.88
3168.306	1185.88
3171.453	1185.88
3174.597	1198.88
3177.739	1187.88
3180.878	1179.88
3184.014	1201.88
3187.149	1209.88
3190.28	1209.88
3193.409	1215.88
3196.536	1224.88
3199.659	1213.88
3202.781	1217.88
3205.9	1234.88
3209.016	1231.88
3212.13	1220.88
3215.241	1206.88
3218.35	1208.88
3221.456	1189.88
3224.56	1195.88
3227.661	1174.88
3230.76	1171.88
3233.856	1146.88
3236.95	1140.88
3240.041	1130.88
3243.13	1131.88
3246.216	1123.88
3249.3	1093.88
3252.382	1100.88
3255.46	1094.88
3258.537	1104.88
3261.611	1076.88
3264.682	1072.88
3267.751	1073.88
3270.818	1080.88
3273.882	1058.88
3276.943	1065.88
3280.002	1060.88
3283.059	1042.88
3286.113	1038.88
3289.165	1009.88
3292.214	1005.88
3295.261	983.88
3298.306	978.88
3301.348	956.88
3304.387	942.88
3307.425	942.88
3310.459	918.88
3313.492	910.88
3316.521	903.88
3319.549	884.88
3322.574	890.88
3325.597	867.88
3328.617	882.88
3331.635	849.88
3334.65	852.88
3337.663	850.88
3340.674	842.88
3343.682	851.88
3346.688	838.88
3349.691	835.88
3352.692	829.88
3355.691	829.88
3358.687	824.88
3361.681	804.88
3364.673	800.88
3367.662	788.88
3370.649	762.88
3373.633	770.88
3376.615	751.88
3379.595	754.88
3382.572	730.88
3385.547	723.88
3388.52	715.88
3391.49	710.88
3394.458	698.88
3397.424	694.88
3400.387	674.88
3403.348	671.88
3406.307	668.88
3409.263	662.88
3412.217	664.88
3415.168	654.88
3418.118	655.88
3421.065	631.88
3424.009	616.88
3426.951	616.88
3429.891	605.88
3432.829	599.88
3435.764	576.88
3438.697	561.88
3441.628	557.88
3444.557	544.88
3447.483	521.88
3450.407	499.88
3453.328	494.88
3456.247	484.88
3459.164	472.88
3462.079	460.88
3464.991	436.88
3467.902	429.88
3470.809	408.88
3473.715	390.88
3476.618	383.88
3479.519	366.88
3482.418	358.88
3485.315	356.88
3488.209	345.88
3491.101	339.88
3493.99	322.88
3496.878	312.88
3499.763	310.88
3502.646	298.88
3505.527	280.88
3508.405	271.88
3511.281	255.88
3514.155	252.88
3517.027	235.88
3519.897	219.88
3522.764	223.88
3525.629	197.88
3528.492	199.88
3531.352	171.88
3534.211	171.88
3537.067	155.88
3539.921	146.88
3542.773	135.88
3545.622	130.88
3548.469	128.88
3551.315	111.88
3554.157	107.88
3556.998	101.88
3559.837	94.88
3562.673	90.88
3565.507	81.88
3568.339	74.88
3571.169	69.88
3573.996	59.88
3576.822	56.88
3579.645	50.88
3582.466	45.88
3585.285	37.88
3588.101	45.88
3590.916	30.88
3593.728	27.88
3596.538	23.88
3599.346	18.88
3602.152	15.88
3604.956	5.88
3607.757	-2.12
3610.556	-8.12
3613.354	-8.12
3616.149	-10.12
3618.942	-11.12
3621.732	-14.12
3624.521	-18.12
3627.307	-23.12
3630.092	-27.12
3632.874	-26.12
3635.654	-25.12
3638.432	-32.12
3641.208	-34.12
3643.982	-35.12
3646.753	-32.12
3649.523	-40.12
3652.29	-48.12
3655.055	-47.12
3657.818	-50.12
3660.579	-47.12
3663.338	-55.12
3666.095	-57.12
3668.849	-58.12
3671.602	-61.12
3674.352	-70.12
3677.101	-68.12
3679.847	-73.12
3682.591	-72.12
3685.333	-70.12
3688.073	-75.12
3690.811	-76.12
3693.547	-70.12
3696.281	-75.12
3699.013	-81.12
3701.742	-82.12
3704.47	-85.12
3707.195	-82.12
3709.919	-88.12
3712.64	-89.12
3715.359	-87.12
3718.076	-87.12
3720.792	-91.12
3723.505	-89.12
3726.216	-91.12
3728.925	-93.12
3731.632	-90.12
3734.336	-93.12
3737.039	-98.12
3739.74	-95.12
3742.439	-95.12
3745.136	-95.12
3747.83	-94.12
3750.523	-90.12
3753.213	-95.12
3755.902	-97.12
3758.589	-96.12
3761.273	-101.12
3763.956	-99.12
3766.636	-99.12
3769.315	-104.12
3771.991	-103.12
3774.665	-99.12
3777.338	-101.12
3780.008	-100.12
3782.677	-101.12
3785.343	-96.12
3788.007	-105.12
3790.67	-99.12
3793.33	-103.12
3795.989	-103.12
3798.645	-102.12
3801.299	-101.12
3803.952	-106.12
3806.602	-109.12
3809.251	-109.12
3811.897	-107.12
3814.542	-105.12
3817.184	-105.12
3819.825	-106.12
3822.463	-106.12
3825.1	-108.12
3827.735	-104.12
3830.367	-107.12
3832.998	-109.12
3835.627	-109.12
3838.253	-105.12
3840.878	-104.12
3843.501	-105.12
3846.122	-108.12
3848.741	-108.12
3851.358	-111.12
3853.973	-111.12
3856.586	-110.12
3859.197	-113.12
3861.806	-111.12
3864.414	-110.12
3867.019	-107.12
3869.622	-106.12
3872.224	-106.12
3874.823	-102.12
3877.421	-102.12
3880.016	-98.12
3882.61	-100.12
3885.202	-102.12
3887.792	-99.12
3890.38	-105.12
3892.966	-110.12
3895.55	-110.12
3898.132	-112.12
3900.713	-112.12
3903.291	-109.12
3905.868	-113.12
3908.442	-111.12
3911.015	-113.12
3913.586	-113.12
3916.155	-109.12
3918.722	-112.12
3921.287	-110.12
3923.85	-112.12
3926.411	-113.12
3928.971	-110.12
3931.528	-113.12
3934.084	-115.12
3936.638	-116.12
3939.19	-115.12
3941.74	-117.12
3944.288	-115.12
3946.834	-117.12
3949.378	-113.12
3951.921	-120.12
3954.462	-116.12
3957	-113.12
3959.537	-110.12
3962.072	-109.12
3964.606	-109.12
3967.137	-111.12
3969.667	-114.12
3972.194	-114.12
3974.72	-114.12
3977.244	-116.12
3979.766	-119.12
3982.286	-114.12
3984.805	-114.12
3987.321	-110.12
3989.836	-109.12
3992.349	-109.12
3994.86	-111.12
3997.369	-108.12
3999.877	-111.12
4002.382	-107.12
4004.886	-108.12
4007.388	-109.12
4009.888	-113.12
4012.386	-111.12
4014.883	-110.12
4017.377	-108.12
4019.87	-112.12
4022.361	-112.12
4024.85	-114.12
4027.338	-113.12
4029.823	-109.12
4032.307	-114.12
4034.789	-115.12
4037.269	-107.12
4039.747	-114.12
4042.224	-112.12
4044.699	-109.12
4047.172	-112.12
4049.643	-110.12
4052.112	-107.12
4054.58	-110.12
4057.046	-113.12
4059.51	-112.12
4061.972	-117.12
4064.432	-114.12
4066.891	-115.12
4069.348	-112.12
4071.803	-112.12
4074.256	-114.12
4076.708	-108.12
4079.158	-113.12
4081.606	-108.12
4084.052	-110.12
4086.497	-109.12
4088.939	-114.12
4091.38	-113.12
4093.819	-118.12
4096.257	-117.12
4098.693	-113.12
4101.127	-120.12
4103.559	-121.12
4105.989	-78.12
4108.418	-73.12
4110.845	-65.12
4113.27	-62.12
4115.694	-53.12
4118.115	-49.12
4120.535	-115.12
4122.954	-116.12
4125.37	-114.12
4127.785	-114.12
4130.198	-112.12
4132.609	-114.12
4135.019	-116.12
4137.427	-111.12
4139.833	-116.12
4142.237	-116.12
