Data from 10CFU1_B_RamanShift_1.txt Node
Date: Tue Jan 24 17:53:51 IST 2017
User: aro
Spectrometer: QEPB0276
Trigger mode: 0
Integration Time (sec): 5.000000E0
Scans to average: 1
Electric dark correction enabled: true
Nonlinearity correction enabled: false
Boxcar width: 0
XAxis mode: Raman Shifts
Number of Pixels in Spectrum: 1044
>>>>>Begin Spectral Data<<<<<
160.701	-28.12
166.742	-0.12
172.777	91.88
178.805	378.88
184.826	1062.88
190.841	2196.88
196.849	3442.88
202.85	4240.88
208.845	4439.88
214.833	4311.88
220.815	4115.88
226.789	4033.88
232.758	3909.88
238.719	3798.88
244.674	3667.88
250.623	3515.88
256.565	3328.88
262.5	3193.88
268.429	3074.88
274.351	2946.88
280.267	2826.88
286.176	2730.88
292.079	2643.88
297.975	2561.88
303.865	2490.88
309.748	2410.88
315.625	2346.88
321.495	2324.88
327.359	2310.88
333.217	2261.88
339.068	2243.88
344.912	2219.88
350.751	2225.88
356.583	2215.88
362.408	2205.88
368.227	2203.88
374.04	2204.88
379.847	2227.88
385.647	2235.88
391.44	2232.88
397.228	2253.88
403.009	2287.88
408.784	2280.88
414.553	2296.88
420.315	2294.88
426.071	2294.88
431.821	2306.88
437.565	2289.88
443.302	2297.88
449.033	2297.88
454.758	2275.88
460.477	2262.88
466.189	2243.88
471.896	2240.88
477.596	2224.88
483.29	2229.88
488.978	2189.88
494.66	2200.88
500.335	2166.88
506.005	2119.88
511.668	2110.88
517.325	2069.88
522.977	2031.88
528.622	2007.88
534.261	1988.88
539.894	1975.88
545.521	1967.88
551.141	1949.88
556.756	1931.88
562.365	1945.88
567.968	1900.88
573.565	1912.88
579.155	1881.88
584.74	1895.88
590.319	1862.88
595.892	1869.88
601.459	1855.88
607.02	1821.88
612.575	1807.88
618.124	1802.88
623.667	1785.88
629.204	1781.88
634.735	1758.88
640.261	1745.88
645.781	1728.88
651.294	1719.88
656.802	1716.88
662.304	1695.88
667.8	1682.88
673.29	1705.88
678.775	1694.88
684.254	1690.88
689.726	1676.88
695.193	1673.88
700.655	1682.88
706.11	1639.88
711.56	1647.88
717.004	1631.88
722.442	1630.88
727.874	1609.88
733.301	1607.88
738.722	1598.88
744.137	1593.88
749.547	1577.88
754.951	1588.88
760.349	1589.88
765.741	1592.88
771.128	1580.88
776.509	1583.88
781.885	1564.88
787.254	1580.88
792.618	1578.88
797.977	1568.88
803.33	1557.88
808.677	1546.88
814.019	1545.88
819.355	1513.88
824.686	1510.88
830.011	1472.88
835.33	1478.88
840.644	1480.88
845.952	1488.88
851.255	1485.88
856.552	1471.88
861.844	1471.88
867.13	1452.88
872.41	1439.88
877.686	1433.88
882.955	1424.88
888.219	1391.88
893.478	1373.88
898.731	1354.88
903.979	1334.88
909.221	1321.88
914.458	1317.88
919.69	1321.88
924.916	1309.88
930.136	1318.88
935.351	1313.88
940.561	1313.88
945.766	1307.88
950.965	1295.88
956.158	1281.88
961.347	1273.88
966.529	1257.88
971.707	1243.88
976.879	1235.88
982.046	1215.88
987.208	1210.88
992.364	1202.88
997.515	1217.88
1002.66	1222.88
1007.801	1236.88
1012.936	1232.88
1018.066	1241.88
1023.19	1254.88
1028.309	1257.88
1033.423	1256.88
1038.532	1254.88
1043.636	1254.88
1048.734	1224.88
1053.827	1224.88
1058.915	1195.88
1063.998	1201.88
1069.075	1215.88
1074.147	1195.88
1079.214	1191.88
1084.276	1211.88
1089.333	1220.88
1094.385	1244.88
1099.431	1245.88
1104.472	1232.88
1109.509	1232.88
1114.54	1225.88
1119.565	1211.88
1124.586	1202.88
1129.602	1181.88
1134.613	1179.88
1139.618	1174.88
1144.619	1179.88
1149.614	1186.88
1154.604	1169.88
1159.589	1193.88
1164.57	1194.88
1169.545	1197.88
1174.515	1206.88
1179.48	1190.88
1184.44	1192.88
1189.395	1176.88
1194.345	1176.88
1199.29	1170.88
1204.23	1172.88
1209.165	1165.88
1214.095	1193.88
1219.021	1204.88
1223.941	1206.88
1228.856	1221.88
1233.766	1219.88
1238.672	1233.88
1243.572	1213.88
1248.467	1237.88
1253.358	1204.88
1258.244	1176.88
1263.124	1174.88
1268	1156.88
1272.871	1146.88
1277.737	1124.88
1282.599	1127.88
1287.455	1135.88
1292.306	1145.88
1297.153	1139.88
1301.995	1156.88
1306.832	1161.88
1311.664	1165.88
1316.491	1170.88
1321.314	1173.88
1326.132	1153.88
1330.945	1151.88
1335.753	1132.88
1340.556	1114.88
1345.354	1124.88
1350.148	1117.88
1354.937	1097.88
1359.722	1089.88
1364.501	1079.88
1369.276	1065.88
1374.046	1052.88
1378.811	1060.88
1383.572	1049.88
1388.327	1042.88
1393.079	1053.88
1397.825	1055.88
1402.567	1021.88
1407.304	1032.88
1412.036	1013.88
1416.764	1017.88
1421.487	1011.88
1426.205	1038.88
1430.919	1046.88
1435.628	1049.88
1440.333	1069.88
1445.032	1088.88
1449.727	1090.88
1454.418	1081.88
1459.104	1083.88
1463.785	1071.88
1468.462	1057.88
1473.134	1059.88
1477.802	1060.88
1482.465	1048.88
1487.123	1039.88
1491.777	1041.88
1496.426	1051.88
1501.071	1050.88
1505.711	1061.88
1510.347	1076.88
1514.978	1084.88
1519.604	1085.88
1524.226	1102.88
1528.844	1098.88
1533.457	1087.88
1538.065	1089.88
1542.669	1101.88
1547.269	1086.88
1551.864	1088.88
1556.454	1093.88
1561.041	1113.88
1565.622	1110.88
1570.199	1124.88
1574.772	1135.88
1579.34	1152.88
1583.904	1179.88
1588.464	1197.88
1593.019	1210.88
1597.569	1219.88
1602.115	1248.88
1606.657	1246.88
1611.195	1262.88
1615.728	1263.88
1620.256	1282.88
1624.78	1300.88
1629.3	1325.88
1633.816	1334.88
1638.327	1347.88
1642.834	1372.88
1647.336	1382.88
1651.834	1389.88
1656.328	1372.88
1660.817	1369.88
1665.302	1355.88
1669.783	1320.88
1674.259	1296.88
1678.732	1267.88
1683.199	1227.88
1687.663	1187.88
1692.122	1150.88
1696.577	1117.88
1701.028	1062.88
1705.474	1013.88
1709.917	996.88
1714.355	958.88
1718.788	943.88
1723.218	938.88
1727.643	929.88
1732.064	904.88
1736.481	879.88
1740.893	848.88
1745.301	826.88
1749.705	823.88
1754.105	794.88
1758.501	779.88
1762.893	779.88
1767.28	761.88
1771.663	758.88
1776.042	766.88
1780.417	758.88
1784.787	748.88
1789.154	750.88
1793.516	775.88
1797.874	750.88
1802.228	750.88
1806.578	741.88
1810.924	713.88
1815.266	714.88
1819.603	702.88
1823.937	697.88
1828.266	694.88
1832.591	691.88
1836.913	691.88
1841.23	680.88
1845.543	685.88
1849.852	677.88
1854.156	687.88
1858.457	681.88
1862.754	689.88
1867.047	690.88
1871.335	697.88
1875.62	708.88
1879.9	694.88
1884.177	695.88
1888.449	690.88
1892.718	704.88
1896.982	680.88
1901.243	695.88
1905.499	681.88
1909.752	688.88
1914	690.88
1918.245	684.88
1922.485	682.88
1926.722	690.88
1930.954	701.88
1935.183	688.88
1939.408	701.88
1943.628	687.88
1947.845	691.88
1952.058	682.88
1956.267	684.88
1960.472	677.88
1964.673	672.88
1968.87	667.88
1973.063	665.88
1977.252	667.88
1981.438	654.88
1985.619	659.88
1989.797	645.88
1993.971	654.88
1998.14	662.88
2002.306	663.88
2006.469	662.88
2010.627	662.88
2014.781	671.88
2018.932	659.88
2023.078	665.88
2027.221	654.88
2031.36	654.88
2035.495	635.88
2039.627	643.88
2043.754	645.88
2047.878	644.88
2051.998	640.88
2056.114	640.88
2060.226	644.88
2064.334	651.88
2068.439	660.88
2072.54	664.88
2076.637	656.88
2080.73	665.88
2084.82	658.88
2088.906	667.88
2092.988	671.88
2097.066	656.88
2101.14	659.88
2105.211	647.88
2109.278	647.88
2113.342	635.88
2117.401	625.88
2121.457	627.88
2125.509	629.88
2129.558	634.88
2133.602	636.88
2137.643	636.88
2141.681	625.88
2145.714	616.88
2149.744	617.88
2153.77	627.88
2157.793	607.88
2161.812	602.88
2165.827	593.88
2169.838	591.88
2173.846	581.88
2177.851	577.88
2181.851	569.88
2185.848	563.88
2189.841	554.88
2193.831	559.88
2197.817	547.88
2201.799	548.88
2205.778	550.88
2209.753	542.88
2213.725	548.88
2217.693	543.88
2221.657	544.88
2225.618	541.88
2229.575	537.88
2233.529	537.88
2237.479	532.88
2241.425	523.88
2245.368	505.88
2249.307	505.88
2253.243	496.88
2257.175	496.88
2261.104	490.88
2265.029	482.88
2268.95	483.88
2272.868	468.88
2276.783	471.88
2280.694	460.88
2284.601	451.88
2288.505	453.88
2292.405	446.88
2296.302	439.88
2300.195	430.88
2304.085	425.88
2307.971	426.88
2311.854	423.88
2315.734	412.88
2319.609	399.88
2323.482	393.88
2327.351	387.88
2331.216	386.88
2335.078	388.88
2338.937	371.88
2342.792	374.88
2346.643	378.88
2350.492	381.88
2354.336	379.88
2358.178	389.88
2362.015	383.88
2365.85	386.88
2369.681	378.88
2373.508	379.88
2377.333	375.88
2381.153	383.88
2384.971	380.88
2388.785	375.88
2392.595	364.88
2396.402	368.88
2400.206	372.88
2404.007	364.88
2407.804	361.88
2411.597	366.88
2415.388	363.88
2419.174	356.88
2422.958	349.88
2426.738	354.88
2430.515	364.88
2434.289	357.88
2438.059	354.88
2441.825	363.88
2445.589	356.88
2449.349	351.88
2453.106	349.88
2456.859	348.88
2460.61	339.88
2464.356	326.88
2468.1	330.88
2471.84	330.88
2475.577	327.88
2479.311	332.88
2483.041	327.88
2486.768	337.88
2490.492	326.88
2494.213	323.88
2497.93	330.88
2501.644	337.88
2505.355	329.88
2509.062	326.88
2512.766	329.88
2516.467	319.88
2520.165	319.88
2523.859	324.88
2527.551	313.88
2531.239	318.88
2534.923	311.88
2538.605	306.88
2542.283	306.88
2545.958	308.88
2549.63	308.88
2553.299	305.88
2556.964	291.88
2560.626	300.88
2564.285	295.88
2567.941	302.88
2571.594	304.88
2575.243	294.88
2578.89	289.88
2582.533	285.88
2586.173	289.88
2589.809	288.88
2593.443	281.88
2597.073	278.88
2600.701	275.88
2604.325	274.88
2607.946	278.88
2611.564	284.88
2615.178	275.88
2618.79	278.88
2622.398	269.88
2626.004	260.88
2629.606	258.88
2633.205	255.88
2636.801	265.88
2640.394	257.88
2643.983	260.88
2647.57	263.88
2651.153	256.88
2654.734	252.88
2658.311	250.88
2661.885	250.88
2665.456	242.88
2669.025	240.88
2672.589	237.88
2676.151	233.88
2679.71	235.88
2683.266	232.88
2686.819	231.88
2690.368	220.88
2693.915	225.88
2697.458	224.88
2700.999	229.88
2704.536	223.88
2708.071	216.88
2711.602	220.88
2715.13	218.88
2718.656	219.88
2722.178	214.88
2725.697	210.88
2729.214	216.88
2732.727	217.88
2736.237	216.88
2739.744	219.88
2743.249	220.88
2746.75	207.88
2750.248	216.88
2753.743	223.88
2757.236	212.88
2760.725	211.88
2764.211	205.88
2767.695	213.88
2771.175	206.88
2774.652	205.88
2778.127	204.88
2781.598	212.88
2785.067	202.88
2788.532	204.88
2791.995	206.88
2795.455	207.88
2798.911	205.88
2802.365	208.88
2805.816	211.88
2809.264	206.88
2812.709	214.88
2816.151	213.88
2819.59	208.88
2823.026	217.88
2826.46	212.88
2829.89	218.88
2833.318	212.88
2836.742	211.88
2840.164	216.88
2843.583	219.88
2846.999	207.88
2850.412	224.88
2853.822	229.88
2857.229	220.88
2860.634	232.88
2864.035	231.88
2867.434	236.88
2870.83	232.88
2874.223	237.88
2877.613	235.88
2881	232.88
2884.385	240.88
2887.766	235.88
2891.145	241.88
2894.521	237.88
2897.894	247.88
2901.264	244.88
2904.631	235.88
2907.996	243.88
2911.358	246.88
2914.717	254.88
2918.073	248.88
2921.426	263.88
2924.777	264.88
2928.124	263.88
2931.469	264.88
2934.811	279.88
2938.15	282.88
2941.487	295.88
2944.821	293.88
2948.152	294.88
2951.48	292.88
2954.805	299.88
2958.128	300.88
2961.447	307.88
2964.765	311.88
2968.079	315.88
2971.39	336.88
2974.699	333.88
2978.005	343.88
2981.308	354.88
2984.609	365.88
2987.907	367.88
2991.202	379.88
2994.494	388.88
2997.784	389.88
3001.07	403.88
3004.355	418.88
3007.636	433.88
3010.915	431.88
3014.191	448.88
3017.464	442.88
3020.734	451.88
3024.002	459.88
3027.267	471.88
3030.53	475.88
3033.789	483.88
3037.046	504.88
3040.301	506.88
3043.552	514.88
3046.801	532.88
3050.048	540.88
3053.291	576.88
3056.532	584.88
3059.771	591.88
3063.006	620.88
3066.239	631.88
3069.469	652.88
3072.697	669.88
3075.922	697.88
3079.144	711.88
3082.364	728.88
3085.581	734.88
3088.795	752.88
3092.007	766.88
3095.216	790.88
3098.423	797.88
3101.627	818.88
3104.828	847.88
3108.026	855.88
3111.222	877.88
3114.416	899.88
3117.607	916.88
3120.795	942.88
3123.98	967.88
3127.163	978.88
3130.344	1012.88
3133.521	1030.88
3136.696	1039.88
3139.869	1071.88
3143.039	1089.88
3146.206	1106.88
3149.371	1114.88
3152.533	1127.88
3155.693	1138.88
3158.85	1148.88
3162.005	1154.88
3165.157	1162.88
3168.306	1170.88
3171.453	1146.88
3174.597	1175.88
3177.739	1177.88
3180.878	1183.88
3184.014	1176.88
3187.149	1177.88
3190.28	1195.88
3193.409	1183.88
3196.536	1190.88
3199.659	1207.88
3202.781	1205.88
3205.9	1192.88
3209.016	1200.88
3212.13	1197.88
3215.241	1201.88
3218.35	1183.88
3221.456	1164.88
3224.56	1178.88
3227.661	1151.88
3230.76	1151.88
3233.856	1143.88
3236.95	1120.88
3240.041	1130.88
3243.13	1107.88
3246.216	1110.88
3249.3	1084.88
3252.382	1075.88
3255.46	1064.88
3258.537	1065.88
3261.611	1069.88
3264.682	1052.88
3267.751	1070.88
3270.818	1049.88
3273.882	1059.88
3276.943	1039.88
3280.002	1041.88
3283.059	1037.88
3286.113	1013.88
3289.165	989.88
3292.214	978.88
3295.261	975.88
3298.306	948.88
3301.348	938.88
3304.387	933.88
3307.425	921.88
3310.459	900.88
3313.492	885.88
3316.521	873.88
3319.549	864.88
3322.574	865.88
3325.597	843.88
3328.617	846.88
3331.635	834.88
3334.65	841.88
3337.663	825.88
3340.674	829.88
3343.682	818.88
3346.688	824.88
3349.691	818.88
3352.692	809.88
3355.691	807.88
3358.687	790.88
3361.681	802.88
3364.673	788.88
3367.662	771.88
3370.649	752.88
3373.633	749.88
3376.615	739.88
3379.595	737.88
3382.572	729.88
3385.547	718.88
3388.52	709.88
3391.49	684.88
3394.458	677.88
3397.424	672.88
3400.387	650.88
3403.348	665.88
3406.307	649.88
3409.263	649.88
3412.217	625.88
3415.168	633.88
3418.118	631.88
3421.065	615.88
3424.009	610.88
3426.951	603.88
3429.891	591.88
3432.829	579.88
3435.764	566.88
3438.697	548.88
3441.628	550.88
3444.557	522.88
3447.483	511.88
3450.407	498.88
3453.328	485.88
3456.247	470.88
3459.164	460.88
3462.079	445.88
3464.991	429.88
3467.902	417.88
3470.809	398.88
3473.715	373.88
3476.618	376.88
3479.519	364.88
3482.418	348.88
3485.315	342.88
3488.209	341.88
3491.101	333.88
3493.99	323.88
3496.878	309.88
3499.763	295.88
3502.646	277.88
3505.527	273.88
3508.405	260.88
3511.281	251.88
3514.155	237.88
3517.027	235.88
3519.897	214.88
3522.764	218.88
3525.629	191.88
3528.492	187.88
3531.352	181.88
3534.211	163.88
3537.067	146.88
3539.921	143.88
3542.773	135.88
3545.622	123.88
3548.469	124.88
3551.315	114.88
3554.157	106.88
3556.998	101.88
3559.837	99.88
3562.673	85.88
3565.507	81.88
3568.339	72.88
3571.169	71.88
3573.996	61.88
3576.822	47.88
3579.645	50.88
3582.466	43.88
3585.285	40.88
3588.101	38.88
3590.916	40.88
3593.728	29.88
3596.538	22.88
3599.346	19.88
3602.152	12.88
3604.956	10.88
3607.757	1.88
3610.556	-10.12
3613.354	-3.12
3616.149	-10.12
3618.942	-12.12
3621.732	-14.12
3624.521	-17.12
3627.307	-17.12
3630.092	-24.12
3632.874	-22.12
3635.654	-21.12
3638.432	-28.12
3641.208	-30.12
3643.982	-29.12
3646.753	-37.12
3649.523	-42.12
3652.29	-39.12
3655.055	-46.12
3657.818	-43.12
3660.579	-48.12
3663.338	-57.12
3666.095	-60.12
3668.849	-54.12
3671.602	-60.12
3674.352	-67.12
3677.101	-63.12
3679.847	-61.12
3682.591	-68.12
3685.333	-65.12
3688.073	-65.12
3690.811	-72.12
3693.547	-62.12
3696.281	-70.12
3699.013	-73.12
3701.742	-77.12
3704.47	-79.12
3707.195	-78.12
3709.919	-79.12
3712.64	-84.12
3715.359	-83.12
3718.076	-88.12
3720.792	-83.12
3723.505	-85.12
3726.216	-85.12
3728.925	-83.12
3731.632	-86.12
3734.336	-87.12
3737.039	-88.12
3739.74	-92.12
3742.439	-84.12
3745.136	-89.12
3747.83	-90.12
3750.523	-83.12
3753.213	-89.12
3755.902	-92.12
3758.589	-88.12
3761.273	-90.12
3763.956	-93.12
3766.636	-94.12
3769.315	-96.12
3771.991	-101.12
3774.665	-96.12
3777.338	-95.12
3780.008	-95.12
3782.677	-94.12
3785.343	-93.12
3788.007	-96.12
3790.67	-95.12
3793.33	-98.12
3795.989	-94.12
3798.645	-94.12
3801.299	-99.12
3803.952	-96.12
3806.602	-97.12
3809.251	-101.12
3811.897	-98.12
3814.542	-98.12
3817.184	-97.12
3819.825	-96.12
3822.463	-103.12
3825.1	-103.12
3827.735	-100.12
3830.367	-103.12
3832.998	-106.12
3835.627	-102.12
3838.253	-102.12
3840.878	-101.12
3843.501	-101.12
3846.122	-100.12
3848.741	-105.12
3851.358	-102.12
3853.973	-102.12
3856.586	-98.12
3859.197	-102.12
3861.806	-102.12
3864.414	-103.12
3867.019	-102.12
3869.622	-101.12
3872.224	-102.12
3874.823	-101.12
3877.421	-99.12
3880.016	-94.12
3882.61	-95.12
3885.202	-92.12
3887.792	-95.12
3890.38	-101.12
3892.966	-101.12
3895.55	-99.12
3898.132	-103.12
3900.713	-104.12
3903.291	-103.12
3905.868	-104.12
3908.442	-105.12
3911.015	-106.12
3913.586	-106.12
3916.155	-106.12
3918.722	-108.12
3921.287	-109.12
3923.85	-110.12
3926.411	-110.12
3928.971	-106.12
3931.528	-107.12
3934.084	-105.12
3936.638	-106.12
3939.19	-106.12
3941.74	-105.12
3944.288	-106.12
3946.834	-105.12
3949.378	-105.12
3951.921	-107.12
3954.462	-107.12
3957	-104.12
3959.537	-107.12
3962.072	-105.12
3964.606	-103.12
3967.137	-105.12
3969.667	-109.12
3972.194	-109.12
3974.72	-109.12
3977.244	-110.12
3979.766	-112.12
3982.286	-107.12
3984.805	-107.12
3987.321	-100.12
3989.836	-101.12
3992.349	-102.12
3994.86	-105.12
3997.369	-102.12
3999.877	-104.12
4002.382	-102.12
4004.886	-103.12
4007.388	-103.12
4009.888	-107.12
4012.386	-108.12
4014.883	-102.12
4017.377	-106.12
4019.87	-104.12
4022.361	-102.12
4024.85	-105.12
4027.338	-106.12
4029.823	-107.12
4032.307	-109.12
4034.789	-108.12
4037.269	-103.12
4039.747	-105.12
4042.224	-108.12
4044.699	-102.12
4047.172	-101.12
4049.643	-103.12
4052.112	-103.12
4054.58	-105.12
4057.046	-104.12
4059.51	-106.12
4061.972	-107.12
4064.432	-108.12
4066.891	-107.12
4069.348	-107.12
4071.803	-105.12
4074.256	-105.12
4076.708	-104.12
4079.158	-104.12
4081.606	-103.12
4084.052	-105.12
4086.497	-106.12
4088.939	-108.12
4091.38	-104.12
4093.819	-109.12
4096.257	-107.12
4098.693	-105.12
4101.127	-109.12
4103.559	-111.12
4105.989	-71.12
4108.418	-66.12
4110.845	-61.12
4113.27	-58.12
4115.694	-51.12
4118.115	-43.12
4120.535	-105.12
4122.954	-106.12
4125.37	-102.12
4127.785	-105.12
4130.198	-107.12
4132.609	-106.12
4135.019	-109.12
4137.427	-108.12
4139.833	-113.12
4142.237	-112.12
