Data from 10CFU3_B_RamanShift_1.txt Node
Date: Tue Jan 24 17:55:51 IST 2017
User: aro
Spectrometer: QEPB0276
Trigger mode: 0
Integration Time (sec): 5.000000E0
Scans to average: 1
Electric dark correction enabled: true
Nonlinearity correction enabled: false
Boxcar width: 0
XAxis mode: Raman Shifts
Number of Pixels in Spectrum: 1044
>>>>>Begin Spectral Data<<<<<
160.701	-32.12
166.742	-1.12
172.777	92.88
178.805	383.88
184.826	1073.88
190.841	2205.88
196.849	3512.88
202.85	4332.88
208.845	4547.88
214.833	4387.88
220.815	4218.88
226.789	4091.88
232.758	4024.88
238.719	3911.88
244.674	3773.88
250.623	3638.88
256.565	3449.88
262.5	3304.88
268.429	3173.88
274.351	3060.88
280.267	2950.88
286.176	2861.88
292.079	2774.88
297.975	2676.88
303.865	2620.88
309.748	2544.88
315.625	2482.88
321.495	2429.88
327.359	2395.88
333.217	2384.88
339.068	2358.88
344.912	2355.88
350.751	2340.88
356.583	2322.88
362.408	2333.88
368.227	2319.88
374.04	2332.88
379.847	2335.88
385.647	2351.88
391.44	2355.88
397.228	2383.88
403.009	2379.88
408.784	2400.88
414.553	2398.88
420.315	2402.88
426.071	2414.88
431.821	2406.88
437.565	2437.88
443.302	2411.88
449.033	2397.88
454.758	2393.88
460.477	2399.88
466.189	2370.88
471.896	2385.88
477.596	2344.88
483.29	2351.88
488.978	2353.88
494.66	2315.88
500.335	2294.88
506.005	2246.88
511.668	2233.88
517.325	2209.88
522.977	2164.88
528.622	2136.88
534.261	2107.88
539.894	2099.88
545.521	2079.88
551.141	2080.88
556.756	2072.88
562.365	2050.88
567.968	2039.88
573.565	2028.88
579.155	1992.88
584.74	2005.88
590.319	1986.88
595.892	1989.88
601.459	1974.88
607.02	1956.88
612.575	1930.88
618.124	1909.88
623.667	1916.88
629.204	1910.88
634.735	1876.88
640.261	1861.88
645.781	1877.88
651.294	1850.88
656.802	1850.88
662.304	1836.88
667.8	1829.88
673.29	1829.88
678.775	1834.88
684.254	1832.88
689.726	1821.88
695.193	1809.88
700.655	1806.88
706.11	1790.88
711.56	1778.88
717.004	1755.88
722.442	1756.88
727.874	1745.88
733.301	1746.88
738.722	1738.88
744.137	1746.88
749.547	1740.88
754.951	1741.88
760.349	1734.88
765.741	1724.88
771.128	1715.88
776.509	1717.88
781.885	1734.88
787.254	1717.88
792.618	1723.88
797.977	1712.88
803.33	1691.88
808.677	1674.88
814.019	1670.88
819.355	1656.88
824.686	1638.88
830.011	1621.88
835.33	1613.88
840.644	1607.88
845.952	1601.88
851.255	1621.88
856.552	1623.88
861.844	1605.88
867.13	1594.88
872.41	1586.88
877.686	1574.88
882.955	1555.88
888.219	1535.88
893.478	1517.88
898.731	1499.88
903.979	1479.88
909.221	1472.88
914.458	1467.88
919.69	1464.88
924.916	1485.88
930.136	1459.88
935.351	1462.88
940.561	1456.88
945.766	1459.88
950.965	1455.88
956.158	1437.88
961.347	1430.88
966.529	1410.88
971.707	1414.88
976.879	1353.88
982.046	1368.88
987.208	1350.88
992.364	1365.88
997.515	1369.88
1002.66	1378.88
1007.801	1391.88
1012.936	1377.88
1018.066	1409.88
1023.19	1412.88
1028.309	1412.88
1033.423	1437.88
1038.532	1409.88
1043.636	1409.88
1048.734	1377.88
1053.827	1366.88
1058.915	1361.88
1063.998	1363.88
1069.075	1355.88
1074.147	1355.88
1079.214	1360.88
1084.276	1373.88
1089.333	1392.88
1094.385	1405.88
1099.431	1383.88
1104.472	1410.88
1109.509	1404.88
1114.54	1373.88
1119.565	1389.88
1124.586	1346.88
1129.602	1336.88
1134.613	1334.88
1139.618	1325.88
1144.619	1327.88
1149.614	1331.88
1154.604	1339.88
1159.589	1357.88
1164.57	1370.88
1169.545	1370.88
1174.515	1363.88
1179.48	1371.88
1184.44	1356.88
1189.395	1353.88
1194.345	1336.88
1199.29	1334.88
1204.23	1338.88
1209.165	1351.88
1214.095	1364.88
1219.021	1358.88
1223.941	1375.88
1228.856	1383.88
1233.766	1398.88
1238.672	1401.88
1243.572	1381.88
1248.467	1393.88
1253.358	1360.88
1258.244	1352.88
1263.124	1329.88
1268	1314.88
1272.871	1301.88
1277.737	1292.88
1282.599	1298.88
1287.455	1311.88
1292.306	1310.88
1297.153	1332.88
1301.995	1328.88
1306.832	1325.88
1311.664	1324.88
1316.491	1334.88
1321.314	1336.88
1326.132	1324.88
1330.945	1326.88
1335.753	1295.88
1340.556	1304.88
1345.354	1287.88
1350.148	1275.88
1354.937	1256.88
1359.722	1261.88
1364.501	1229.88
1369.276	1234.88
1374.046	1215.88
1378.811	1221.88
1383.572	1198.88
1388.327	1205.88
1393.079	1206.88
1397.825	1208.88
1402.567	1187.88
1407.304	1184.88
1412.036	1172.88
1416.764	1166.88
1421.487	1179.88
1426.205	1182.88
1430.919	1202.88
1435.628	1209.88
1440.333	1216.88
1445.032	1230.88
1449.727	1236.88
1454.418	1231.88
1459.104	1236.88
1463.785	1229.88
1468.462	1230.88
1473.134	1233.88
1477.802	1218.88
1482.465	1202.88
1487.123	1205.88
1491.777	1213.88
1496.426	1209.88
1501.071	1210.88
1505.711	1228.88
1510.347	1232.88
1514.978	1232.88
1519.604	1269.88
1524.226	1256.88
1528.844	1256.88
1533.457	1259.88
1538.065	1252.88
1542.669	1252.88
1547.269	1229.88
1551.864	1246.88
1556.454	1243.88
1561.041	1243.88
1565.622	1269.88
1570.199	1292.88
1574.772	1291.88
1579.34	1329.88
1583.904	1345.88
1588.464	1359.88
1593.019	1379.88
1597.569	1396.88
1602.115	1384.88
1606.657	1400.88
1611.195	1411.88
1615.728	1416.88
1620.256	1426.88
1624.78	1442.88
1629.3	1465.88
1633.816	1475.88
1638.327	1489.88
1642.834	1542.88
1647.336	1524.88
1651.834	1547.88
1656.328	1530.88
1660.817	1535.88
1665.302	1522.88
1669.783	1495.88
1674.259	1462.88
1678.732	1422.88
1683.199	1385.88
1687.663	1338.88
1692.122	1310.88
1696.577	1261.88
1701.028	1213.88
1705.474	1163.88
1709.917	1133.88
1714.355	1096.88
1718.788	1083.88
1723.218	1084.88
1727.643	1065.88
1732.064	1052.88
1736.481	1035.88
1740.893	1007.88
1745.301	979.88
1749.705	959.88
1754.105	936.88
1758.501	929.88
1762.893	918.88
1767.28	904.88
1771.663	906.88
1776.042	901.88
1780.417	905.88
1784.787	891.88
1789.154	913.88
1793.516	900.88
1797.874	898.88
1802.228	889.88
1806.578	875.88
1810.924	850.88
1815.266	842.88
1819.603	843.88
1823.937	836.88
1828.266	821.88
1832.591	811.88
1836.913	823.88
1841.23	814.88
1845.543	813.88
1849.852	820.88
1854.156	813.88
1858.457	823.88
1862.754	843.88
1867.047	835.88
1871.335	830.88
1875.62	825.88
1879.9	847.88
1884.177	851.88
1888.449	840.88
1892.718	829.88
1896.982	837.88
1901.243	842.88
1905.499	822.88
1909.752	826.88
1914	828.88
1918.245	824.88
1922.485	825.88
1926.722	830.88
1930.954	831.88
1935.183	821.88
1939.408	839.88
1943.628	834.88
1947.845	839.88
1952.058	821.88
1956.267	837.88
1960.472	828.88
1964.673	802.88
1968.87	797.88
1973.063	780.88
1977.252	783.88
1981.438	780.88
1985.619	779.88
1989.797	768.88
1993.971	778.88
1998.14	782.88
2002.306	791.88
2006.469	794.88
2010.627	803.88
2014.781	797.88
2018.932	797.88
2023.078	810.88
2027.221	787.88
2031.36	789.88
2035.495	765.88
2039.627	763.88
2043.754	767.88
2047.878	761.88
2051.998	769.88
2056.114	763.88
2060.226	777.88
2064.334	765.88
2068.439	786.88
2072.54	789.88
2076.637	782.88
2080.73	794.88
2084.82	792.88
2088.906	780.88
2092.988	782.88
2097.066	794.88
2101.14	777.88
2105.211	759.88
2109.278	767.88
2113.342	770.88
2117.401	750.88
2121.457	745.88
2125.509	746.88
2129.558	741.88
2133.602	745.88
2137.643	742.88
2141.681	727.88
2145.714	731.88
2149.744	735.88
2153.77	725.88
2157.793	736.88
2161.812	717.88
2165.827	720.88
2169.838	715.88
2173.846	705.88
2177.851	679.88
2181.851	679.88
2185.848	668.88
2189.841	658.88
2193.831	643.88
2197.817	650.88
2201.799	645.88
2205.778	647.88
2209.753	643.88
2213.725	661.88
2217.693	649.88
2221.657	647.88
2225.618	647.88
2229.575	647.88
2233.529	644.88
2237.479	626.88
2241.425	629.88
2245.368	627.88
2249.307	611.88
2253.243	596.88
2257.175	597.88
2261.104	595.88
2265.029	584.88
2268.95	585.88
2272.868	575.88
2276.783	559.88
2280.694	560.88
2284.601	542.88
2288.505	538.88
2292.405	534.88
2296.302	536.88
2300.195	526.88
2304.085	532.88
2307.971	524.88
2311.854	513.88
2315.734	499.88
2319.609	487.88
2323.482	488.88
2327.351	479.88
2331.216	473.88
2335.078	473.88
2338.937	467.88
2342.792	469.88
2346.643	467.88
2350.492	462.88
2354.336	470.88
2358.178	466.88
2362.015	461.88
2365.85	466.88
2369.681	470.88
2373.508	466.88
2377.333	462.88
2381.153	470.88
2384.971	465.88
2388.785	478.88
2392.595	466.88
2396.402	458.88
2400.206	451.88
2404.007	467.88
2407.804	454.88
2411.597	450.88
2415.388	453.88
2419.174	445.88
2422.958	446.88
2426.738	452.88
2430.515	443.88
2434.289	449.88
2438.059	443.88
2441.825	450.88
2445.589	443.88
2449.349	436.88
2453.106	435.88
2456.859	430.88
2460.61	425.88
2464.356	412.88
2468.1	410.88
2471.84	424.88
2475.577	404.88
2479.311	419.88
2483.041	427.88
2486.768	414.88
2490.492	415.88
2494.213	424.88
2497.93	416.88
2501.644	415.88
2505.355	417.88
2509.062	416.88
2512.766	405.88
2516.467	401.88
2520.165	407.88
2523.859	403.88
2527.551	404.88
2531.239	393.88
2534.923	395.88
2538.605	391.88
2542.283	392.88
2545.958	393.88
2549.63	384.88
2553.299	385.88
2556.964	377.88
2560.626	384.88
2564.285	386.88
2567.941	371.88
2571.594	370.88
2575.243	369.88
2578.89	365.88
2582.533	364.88
2586.173	365.88
2589.809	353.88
2593.443	366.88
2597.073	352.88
2600.701	353.88
2604.325	345.88
2607.946	355.88
2611.564	350.88
2615.178	341.88
2618.79	343.88
2622.398	345.88
2626.004	339.88
2629.606	337.88
2633.205	343.88
2636.801	334.88
2640.394	327.88
2643.983	332.88
2647.57	326.88
2651.153	325.88
2654.734	323.88
2658.311	306.88
2661.885	318.88
2665.456	312.88
2669.025	316.88
2672.589	300.88
2676.151	301.88
2679.71	305.88
2683.266	295.88
2686.819	301.88
2690.368	289.88
2693.915	280.88
2697.458	290.88
2700.999	283.88
2704.536	281.88
2708.071	275.88
2711.602	271.88
2715.13	279.88
2718.656	271.88
2722.178	281.88
2725.697	275.88
2729.214	284.88
2732.727	277.88
2736.237	272.88
2739.744	280.88
2743.249	275.88
2746.75	282.88
2750.248	277.88
2753.743	268.88
2757.236	267.88
2760.725	276.88
2764.211	266.88
2767.695	266.88
2771.175	261.88
2774.652	258.88
2778.127	261.88
2781.598	259.88
2785.067	254.88
2788.532	261.88
2791.995	260.88
2795.455	255.88
2798.911	261.88
2802.365	256.88
2805.816	258.88
2809.264	257.88
2812.709	263.88
2816.151	256.88
2819.59	265.88
2823.026	259.88
2826.46	268.88
2829.89	268.88
2833.318	268.88
2836.742	270.88
2840.164	269.88
2843.583	262.88
2846.999	266.88
2850.412	266.88
2853.822	265.88
2857.229	274.88
2860.634	278.88
2864.035	280.88
2867.434	281.88
2870.83	282.88
2874.223	287.88
2877.613	285.88
2881	285.88
2884.385	287.88
2887.766	281.88
2891.145	286.88
2894.521	284.88
2897.894	282.88
2901.264	288.88
2904.631	292.88
2907.996	296.88
2911.358	296.88
2914.717	298.88
2918.073	295.88
2921.426	290.88
2924.777	307.88
2928.124	302.88
2931.469	306.88
2934.811	320.88
2938.15	320.88
2941.487	316.88
2944.821	333.88
2948.152	335.88
2951.48	333.88
2954.805	337.88
2958.128	343.88
2961.447	346.88
2964.765	356.88
2968.079	356.88
2971.39	361.88
2974.699	375.88
2978.005	389.88
2981.308	379.88
2984.609	400.88
2987.907	405.88
2991.202	418.88
2994.494	430.88
2997.784	423.88
3001.07	434.88
3004.355	449.88
3007.636	450.88
3010.915	457.88
3014.191	473.88
3017.464	473.88
3020.734	486.88
3024.002	489.88
3027.267	505.88
3030.53	510.88
3033.789	523.88
3037.046	530.88
3040.301	545.88
3043.552	547.88
3046.801	564.88
3050.048	572.88
3053.291	593.88
3056.532	613.88
3059.771	624.88
3063.006	645.88
3066.239	661.88
3069.469	679.88
3072.697	694.88
3075.922	710.88
3079.144	724.88
3082.364	738.88
3085.581	759.88
3088.795	778.88
3092.007	796.88
3095.216	802.88
3098.423	827.88
3101.627	842.88
3104.828	869.88
3108.026	877.88
3111.222	916.88
3114.416	906.88
3117.607	952.88
3120.795	963.88
3123.98	988.88
3127.163	995.88
3130.344	1022.88
3133.521	1040.88
3136.696	1066.88
3139.869	1089.88
3143.039	1095.88
3146.206	1124.88
3149.371	1134.88
3152.533	1148.88
3155.693	1153.88
3158.85	1148.88
3162.005	1160.88
3165.157	1168.88
3168.306	1168.88
3171.453	1157.88
3174.597	1166.88
3177.739	1180.88
3180.878	1186.88
3184.014	1188.88
3187.149	1199.88
3190.28	1195.88
3193.409	1197.88
3196.536	1193.88
3199.659	1194.88
3202.781	1215.88
3205.9	1192.88
3209.016	1203.88
3212.13	1210.88
3215.241	1195.88
3218.35	1191.88
3221.456	1186.88
3224.56	1165.88
3227.661	1166.88
3230.76	1150.88
3233.856	1145.88
3236.95	1119.88
3240.041	1113.88
3243.13	1101.88
3246.216	1102.88
3249.3	1083.88
3252.382	1069.88
3255.46	1074.88
3258.537	1076.88
3261.611	1072.88
3264.682	1054.88
3267.751	1062.88
3270.818	1062.88
3273.882	1059.88
3276.943	1053.88
3280.002	1040.88
3283.059	1025.88
3286.113	1021.88
3289.165	1016.88
3292.214	997.88
3295.261	979.88
3298.306	964.88
3301.348	943.88
3304.387	936.88
3307.425	918.88
3310.459	908.88
3313.492	886.88
3316.521	881.88
3319.549	871.88
3322.574	851.88
3325.597	859.88
3328.617	856.88
3331.635	853.88
3334.65	837.88
3337.663	831.88
3340.674	842.88
3343.682	822.88
3346.688	828.88
3349.691	825.88
3352.692	816.88
3355.691	815.88
3358.687	793.88
3361.681	800.88
3364.673	791.88
3367.662	777.88
3370.649	762.88
3373.633	747.88
3376.615	747.88
3379.595	715.88
3382.572	728.88
3385.547	724.88
3388.52	710.88
3391.49	698.88
3394.458	682.88
3397.424	682.88
3400.387	680.88
3403.348	651.88
3406.307	652.88
3409.263	648.88
3412.217	642.88
3415.168	629.88
3418.118	629.88
3421.065	607.88
3424.009	619.88
3426.951	599.88
3429.891	592.88
3432.829	578.88
3435.764	565.88
3438.697	553.88
3441.628	540.88
3444.557	522.88
3447.483	518.88
3450.407	496.88
3453.328	481.88
3456.247	473.88
3459.164	463.88
3462.079	448.88
3464.991	438.88
3467.902	417.88
3470.809	402.88
3473.715	385.88
3476.618	380.88
3479.519	373.88
3482.418	347.88
3485.315	349.88
3488.209	337.88
3491.101	339.88
3493.99	311.88
3496.878	310.88
3499.763	302.88
3502.646	288.88
3505.527	275.88
3508.405	274.88
3511.281	252.88
3514.155	252.88
3517.027	234.88
3519.897	217.88
3522.764	203.88
3525.629	198.88
3528.492	193.88
3531.352	177.88
3534.211	170.88
3537.067	154.88
3539.921	149.88
3542.773	135.88
3545.622	127.88
3548.469	124.88
3551.315	112.88
3554.157	98.88
3556.998	98.88
3559.837	88.88
3562.673	86.88
3565.507	82.88
3568.339	75.88
3571.169	70.88
3573.996	63.88
3576.822	54.88
3579.645	54.88
3582.466	48.88
3585.285	40.88
3588.101	38.88
3590.916	36.88
3593.728	28.88
3596.538	26.88
3599.346	10.88
3602.152	8.88
3604.956	5.88
3607.757	0.88
3610.556	-4.12
3613.354	-9.12
3616.149	-9.12
3618.942	-10.12
3621.732	-14.12
3624.521	-16.12
3627.307	-13.12
3630.092	-22.12
3632.874	-27.12
3635.654	-24.12
3638.432	-31.12
3641.208	-32.12
3643.982	-32.12
3646.753	-38.12
3649.523	-43.12
3652.29	-44.12
3655.055	-48.12
3657.818	-51.12
3660.579	-44.12
3663.338	-53.12
3666.095	-54.12
3668.849	-54.12
3671.602	-58.12
3674.352	-65.12
3677.101	-63.12
3679.847	-64.12
3682.591	-67.12
3685.333	-66.12
3688.073	-70.12
3690.811	-74.12
3693.547	-70.12
3696.281	-75.12
3699.013	-73.12
3701.742	-75.12
3704.47	-84.12
3707.195	-81.12
3709.919	-78.12
3712.64	-82.12
3715.359	-83.12
3718.076	-81.12
3720.792	-81.12
3723.505	-82.12
3726.216	-82.12
3728.925	-85.12
3731.632	-82.12
3734.336	-86.12
3737.039	-87.12
3739.74	-90.12
3742.439	-89.12
3745.136	-88.12
3747.83	-87.12
3750.523	-87.12
3753.213	-94.12
3755.902	-94.12
3758.589	-95.12
3761.273	-92.12
3763.956	-92.12
3766.636	-92.12
3769.315	-97.12
3771.991	-96.12
3774.665	-94.12
3777.338	-95.12
3780.008	-96.12
3782.677	-93.12
3785.343	-96.12
3788.007	-99.12
3790.67	-97.12
3793.33	-95.12
3795.989	-95.12
3798.645	-97.12
3801.299	-102.12
3803.952	-102.12
3806.602	-100.12
3809.251	-103.12
3811.897	-96.12
3814.542	-99.12
3817.184	-97.12
3819.825	-99.12
3822.463	-98.12
3825.1	-98.12
3827.735	-101.12
3830.367	-100.12
3832.998	-102.12
3835.627	-102.12
3838.253	-103.12
3840.878	-100.12
3843.501	-101.12
3846.122	-104.12
3848.741	-107.12
3851.358	-105.12
3853.973	-106.12
3856.586	-104.12
3859.197	-103.12
3861.806	-103.12
3864.414	-104.12
3867.019	-103.12
3869.622	-102.12
3872.224	-102.12
3874.823	-100.12
3877.421	-94.12
3880.016	-96.12
3882.61	-98.12
3885.202	-95.12
3887.792	-99.12
3890.38	-104.12
3892.966	-108.12
3895.55	-108.12
3898.132	-108.12
3900.713	-104.12
3903.291	-103.12
3905.868	-106.12
3908.442	-107.12
3911.015	-107.12
3913.586	-107.12
3916.155	-104.12
3918.722	-108.12
3921.287	-106.12
3923.85	-108.12
3926.411	-110.12
3928.971	-106.12
3931.528	-107.12
3934.084	-108.12
3936.638	-110.12
3939.19	-110.12
3941.74	-108.12
3944.288	-111.12
3946.834	-111.12
3949.378	-111.12
3951.921	-110.12
3954.462	-110.12
3957	-108.12
3959.537	-105.12
3962.072	-102.12
3964.606	-104.12
3967.137	-106.12
3969.667	-109.12
3972.194	-108.12
3974.72	-106.12
3977.244	-109.12
3979.766	-110.12
3982.286	-105.12
3984.805	-110.12
3987.321	-105.12
3989.836	-104.12
3992.349	-107.12
3994.86	-108.12
3997.369	-107.12
3999.877	-108.12
4002.382	-107.12
4004.886	-103.12
4007.388	-105.12
4009.888	-105.12
4012.386	-108.12
4014.883	-104.12
4017.377	-103.12
4019.87	-105.12
4022.361	-105.12
4024.85	-104.12
4027.338	-110.12
4029.823	-108.12
4032.307	-112.12
4034.789	-111.12
4037.269	-108.12
4039.747	-108.12
4042.224	-111.12
4044.699	-106.12
4047.172	-107.12
4049.643	-101.12
4052.112	-105.12
4054.58	-105.12
4057.046	-106.12
4059.51	-102.12
4061.972	-109.12
4064.432	-109.12
4066.891	-108.12
4069.348	-109.12
4071.803	-107.12
4074.256	-107.12
4076.708	-111.12
4079.158	-108.12
4081.606	-109.12
4084.052	-105.12
4086.497	-109.12
4088.939	-110.12
4091.38	-109.12
4093.819	-111.12
4096.257	-108.12
4098.693	-107.12
4101.127	-113.12
4103.559	-113.12
4105.989	-76.12
4108.418	-68.12
4110.845	-64.12
4113.27	-61.12
4115.694	-54.12
4118.115	-46.12
4120.535	-111.12
4122.954	-106.12
4125.37	-105.12
4127.785	-107.12
4130.198	-107.12
4132.609	-106.12
4135.019	-111.12
4137.427	-107.12
4139.833	-111.12
4142.237	-114.12
