Data from boil_coli_100s_File6_1.txt Node
Date: Mon Mar 27 13:36:28 IDT 2017
User: aro
Spectrometer: QEPB0276
Trigger mode: 0
Integration Time (sec): 1.000000E2
Scans to average: 3
Electric dark correction enabled: true
Nonlinearity correction enabled: false
Boxcar width: 0
XAxis mode: Raman Shifts
Number of Pixels in Spectrum: 1044
>>>>>Begin Spectral Data<<<<<
160.701	-376.08
166.742	114.92
172.777	1561.92
178.805	6150.25
184.826	17563.58
190.841	37229.58
196.849	59178.92
202.85	61178.92
208.845	61177.58
214.833	61179.58
220.815	61176.92
226.789	61177.92
232.758	61177.25
238.719	61174.92
244.674	61174.58
250.623	61177.92
256.565	61172.92
262.5	60868.25
268.429	58713.25
274.351	56837.92
280.267	55429.25
286.176	54086.92
292.079	52827.25
297.975	51542.92
303.865	50220.58
309.748	49136.25
315.625	48090.25
321.495	47132.25
327.359	46475.92
333.217	45892.92
339.068	45435.25
344.912	45059.58
350.751	44768.25
356.583	44458.92
362.408	44198.25
368.227	44128.25
374.04	44116.92
379.847	44092.25
385.647	44110.92
391.44	44241.58
397.228	44350.25
403.009	44403.25
408.784	44499.58
414.553	44643.58
420.315	44742.58
426.071	44863.58
431.821	44943.92
437.565	44986.58
443.302	44944.25
449.033	44748.58
454.758	44515.25
460.477	44209.25
466.189	43958.92
471.896	43738.58
477.596	43426.92
483.29	43305.25
488.978	43136.25
494.66	42882.58
500.335	42448.58
506.005	41861.25
511.668	41150.25
517.325	40612.92
522.977	40105.92
528.622	39611.58
534.261	39383.58
539.894	39062.92
545.521	38815.92
551.141	38793.58
556.756	38588.58
562.365	38437.92
567.968	38312.25
573.565	38119.58
579.155	37966.58
584.74	37807.25
590.319	37630.92
595.892	37462.25
601.459	37269.58
607.02	37063.92
612.575	36807.58
618.124	36453.58
623.667	36196.92
629.204	35988.25
634.735	35685.92
640.261	35513.58
645.781	35374.92
651.294	35302.58
656.802	35245.58
662.304	35167.58
667.8	35079.92
673.29	35043.25
678.775	34948.58
684.254	34916.92
689.726	34822.25
695.193	34674.25
700.655	34508.58
706.11	34358.92
711.56	34135.25
717.004	34022.58
722.442	34054.92
727.874	33797.58
733.301	33702.92
738.722	33729.25
744.137	33616.92
749.547	33635.58
754.951	33566.25
760.349	33650.92
765.741	33604.58
771.128	33723.25
776.509	33830.25
781.885	33845.25
787.254	33850.58
792.618	33813.25
797.977	33622.25
803.33	33432.58
808.677	33237.25
814.019	33073.58
819.355	32889.58
824.686	32743.58
830.011	32654.92
835.33	32564.92
840.644	32550.92
845.952	32705.58
851.255	32694.92
856.552	32864.25
861.844	33074.25
867.13	33484.92
872.41	34445.25
877.686	35866.92
882.955	37010.92
888.219	36499.58
893.478	34517.25
898.731	32510.92
903.979	31400.25
909.221	30921.92
914.458	30672.58
919.69	30522.58
924.916	30556.92
930.136	30548.25
935.351	30685.58
940.561	30678.25
945.766	30684.92
950.965	30470.58
956.158	30373.25
961.347	30051.25
966.529	29784.92
971.707	29352.25
976.879	29099.92
982.046	28904.58
987.208	28915.25
992.364	28947.92
997.515	29177.92
1002.66	29442.25
1007.801	29805.92
1012.936	30208.25
1018.066	30673.25
1023.19	30899.58
1028.309	31059.58
1033.423	31136.92
1038.532	31184.92
1043.636	31461.92
1048.734	31549.25
1053.827	31385.25
1058.915	30992.25
1063.998	30415.58
1069.075	30238.58
1074.147	30311.58
1079.214	30768.92
1084.276	31193.25
1089.333	31660.92
1094.385	31900.92
1099.431	31893.92
1104.472	31528.58
1109.509	31144.25
1114.54	30688.92
1119.565	30234.25
1124.586	29976.25
1129.602	29757.25
1134.613	29478.58
1139.618	29429.25
1144.619	29344.25
1149.614	29371.92
1154.604	29594.25
1159.589	29694.25
1164.57	29684.58
1169.545	29816.58
1174.515	29849.58
1179.48	29799.58
1184.44	29600.92
1189.395	29409.92
1194.345	29366.25
1199.29	29214.58
1204.23	29364.25
1209.165	29580.92
1214.095	29705.92
1219.021	29942.58
1223.941	30278.25
1228.856	30469.25
1233.766	30626.25
1238.672	30657.58
1243.572	30569.92
1248.467	30478.25
1253.358	30112.58
1258.244	29904.92
1263.124	29492.25
1268	29211.58
1272.871	29180.25
1277.737	29140.25
1282.599	29258.58
1287.455	29294.92
1292.306	29245.92
1297.153	29405.25
1301.995	29510.92
1306.832	29640.92
1311.664	29726.58
1316.491	29738.58
1321.314	29614.25
1326.132	29393.92
1330.945	29018.92
1335.753	28597.92
1340.556	28204.25
1345.354	27834.92
1350.148	27532.92
1354.937	27367.25
1359.722	27421.92
1364.501	27439.25
1369.276	27533.58
1374.046	27655.92
1378.811	27914.92
1383.572	27943.25
1388.327	27833.92
1393.079	27788.92
1397.825	27506.58
1402.567	27189.92
1407.304	27031.25
1412.036	26964.92
1416.764	26935.92
1421.487	26972.25
1426.205	27125.92
1430.919	27376.92
1435.628	27806.92
1440.333	28160.92
1445.032	28552.92
1449.727	29104.58
1454.418	29681.25
1459.104	30073.92
1463.785	29820.58
1468.462	28863.58
1473.134	28151.25
1477.802	27619.25
1482.465	27543.58
1487.123	27359.25
1491.777	27410.92
1496.426	27416.58
1501.071	27322.25
1505.711	27454.58
1510.347	27705.25
1514.978	27930.92
1519.604	28117.58
1524.226	28260.58
1528.844	28340.92
1533.457	28278.25
1538.065	28289.25
1542.669	28190.58
1547.269	28049.58
1551.864	28041.25
1556.454	28093.25
1561.041	28276.25
1565.622	28351.25
1570.199	28508.25
1574.772	28792.58
1579.34	29040.25
1583.904	29377.25
1588.464	29669.92
1593.019	29808.58
1597.569	29923.58
1602.115	30026.92
1606.657	30014.92
1611.195	29874.25
1615.728	29967.58
1620.256	30161.25
1624.78	30428.92
1629.3	30643.25
1633.816	30896.25
1638.327	31248.92
1642.834	31544.25
1647.336	31829.25
1651.834	31954.92
1656.328	31945.92
1660.817	31837.58
1665.302	31625.92
1669.783	31149.25
1674.259	30538.92
1678.732	29964.58
1683.199	29202.25
1687.663	28456.92
1692.122	27581.92
1696.577	26926.58
1701.028	26371.58
1705.474	25936.58
1709.917	25679.25
1714.355	25376.92
1718.788	25135.58
1723.218	25045.25
1727.643	24744.25
1732.064	24347.58
1736.481	24027.58
1740.893	23518.58
1745.301	23089.25
1749.705	22742.92
1754.105	22297.25
1758.501	21937.25
1762.893	21714.92
1767.28	21600.25
1771.663	21414.58
1776.042	21352.92
1780.417	21341.25
1784.787	21400.58
1789.154	21481.58
1793.516	21620.58
1797.874	21727.25
1802.228	21842.58
1806.578	21815.92
1810.924	21674.58
1815.266	21851.92
1819.603	21211.92
1823.937	21067.58
1828.266	20836.58
1832.591	20697.25
1836.913	20518.92
1841.23	20498.92
1845.543	20439.92
1849.852	20452.25
1854.156	20491.92
1858.457	20531.92
1862.754	20624.92
1867.047	20638.58
1871.335	20664.58
1875.62	20732.58
1879.9	20780.92
1884.177	20747.92
1888.449	20652.92
1892.718	20566.92
1896.982	20462.92
1901.243	20371.92
1905.499	20279.92
1909.752	20250.25
1914	20271.25
1918.245	20179.25
1922.485	20193.58
1926.722	20280.92
1930.954	20330.25
1935.183	20416.92
1939.408	20500.92
1943.628	20586.92
1947.845	20663.58
1952.058	20679.92
1956.267	20619.58
1960.472	20455.25
1964.673	20277.58
1968.87	20119.58
1973.063	19959.25
1977.252	19874.25
1981.438	19789.58
1985.619	19721.25
1989.797	19755.58
1993.971	19710.58
1998.14	19727.92
2002.306	19806.25
2006.469	19881.25
2010.627	19933.25
2014.781	19904.25
2018.932	19885.92
2023.078	19768.58
2027.221	19635.58
2031.36	19454.92
2035.495	19268.25
2039.627	19144.92
2043.754	18959.92
2047.878	18890.25
2051.998	18867.92
2056.114	18923.92
2060.226	18912.92
2064.334	18971.92
2068.439	18976.58
2072.54	19057.25
2076.637	19166.92
2080.73	19170.25
2084.82	19256.25
2088.906	19221.25
2092.988	19186.92
2097.066	19091.25
2101.14	18983.58
2105.211	18824.92
2109.278	18752.92
2113.342	18706.58
2117.401	18703.25
2121.457	18700.25
2125.509	18650.58
2129.558	18484.92
2133.602	18506.25
2137.643	18508.92
2141.681	18537.92
2145.714	18499.25
2149.744	18393.25
2153.77	18318.58
2157.793	18215.58
2161.812	18084.58
2165.827	17922.25
2169.838	17641.58
2173.846	17456.25
2177.851	17275.58
2181.851	17048.58
2185.848	16923.25
2189.841	16772.58
2193.831	16669.92
2197.817	16636.25
2201.799	16556.92
2205.778	16554.58
2209.753	16582.25
2213.725	16576.58
2217.693	16583.92
2221.657	16637.25
2225.618	16556.25
2229.575	16565.92
2233.529	16457.58
2237.479	16407.25
2241.425	16261.92
2245.368	16131.25
2249.307	15972.92
2253.243	15774.92
2257.175	15612.92
2261.104	15494.92
2265.029	15323.92
2268.95	15166.58
2272.868	15094.58
2276.783	14985.25
2280.694	14827.58
2284.601	14716.25
2288.505	14616.92
2292.405	14462.25
2296.302	14351.92
2300.195	14227.92
2304.085	14080.58
2307.971	13870.25
2311.854	13728.92
2315.734	13470.25
2319.609	13348.92
2323.482	13224.25
2327.351	13057.25
2331.216	13007.92
2335.078	12932.92
2338.937	12860.92
2342.792	12774.25
2346.643	12779.58
2350.492	12713.92
2354.336	12769.25
2358.178	12796.58
2362.015	12861.92
2365.85	12864.25
2369.681	12917.92
2373.508	12890.92
2377.333	12871.92
2381.153	12907.92
2384.971	12884.58
2388.785	12758.25
2392.595	12719.92
2396.402	12635.92
2400.206	12609.25
2404.007	12529.25
2407.804	12449.25
2411.597	12423.58
2415.388	12418.25
2419.174	12369.25
2422.958	12358.25
2426.738	12329.92
2430.515	12219.92
2434.289	12208.92
2438.059	12172.92
2441.825	12083.58
2445.589	11952.58
2449.349	11995.25
2453.106	11834.58
2456.859	11759.92
2460.61	11698.58
2464.356	11621.58
2468.1	11564.58
2471.84	11451.92
2475.577	11419.25
2479.311	11414.25
2483.041	11404.58
2486.768	11320.92
2490.492	11394.92
2494.213	11395.92
2497.93	11429.25
2501.644	11445.92
2505.355	11386.58
2509.062	11357.58
2512.766	11308.58
2516.467	11283.92
2520.165	11254.92
2523.859	11185.58
2527.551	10971.92
2531.239	10998.25
2534.923	10902.25
2538.605	10824.25
2542.283	10783.25
2545.958	10744.92
2549.63	10689.92
2553.299	10678.58
2556.964	10578.25
2560.626	10547.92
2564.285	10447.92
2567.941	10474.25
2571.594	10369.58
2575.243	10300.58
2578.89	10305.92
2582.533	10211.92
2586.173	10182.92
2589.809	10056.25
2593.443	10177.25
2597.073	10015.92
2600.701	9954.58
2604.325	9934.25
2607.946	9979.58
2611.564	9901.25
2615.178	9889.25
2618.79	9886.58
2622.398	9911.92
2626.004	9776.58
2629.606	9694.25
2633.205	9662.25
2636.801	9547.58
2640.394	9454.92
2643.983	9348.58
2647.57	9363.25
2651.153	9204.92
2654.734	9109.92
2658.311	9083.92
2661.885	8973.25
2665.456	8913.25
2669.025	8874.25
2672.589	8856.92
2676.151	8736.92
2679.71	8692.58
2683.266	8689.58
2686.819	8566.92
2690.368	8481.92
2693.915	8376.92
2697.458	8324.92
2700.999	8202.25
2704.536	8128.25
2708.071	8059.58
2711.602	8014.92
2715.13	8007.58
2718.656	7998.58
2722.178	7977.25
2725.697	7990.58
2729.214	7931.92
2732.727	7981.58
2736.237	8036.92
2739.744	8006.92
2743.249	8042.58
2746.75	7971.25
2750.248	7979.92
2753.743	7943.25
2757.236	7881.25
2760.725	7855.25
2764.211	7917.92
2767.695	7758.25
2771.175	7742.25
2774.652	7630.58
2778.127	7647.25
2781.598	7571.92
2785.067	7550.25
2788.532	7564.58
2791.995	7549.25
2795.455	7537.25
2798.911	7536.25
2802.365	7568.92
2805.816	7531.92
2809.264	7456.58
2812.709	7511.58
2816.151	7462.58
2819.59	7519.25
2823.026	7461.58
2826.46	7478.92
2829.89	7416.92
2833.318	7523.25
2836.742	7474.25
2840.164	7527.58
2843.583	7594.25
2846.999	7584.25
2850.412	7646.92
2853.822	7705.58
2857.229	7678.58
2860.634	7779.25
2864.035	7964.92
2867.434	7929.25
2870.83	8105.58
2874.223	8251.58
2877.613	8351.25
2881	8529.25
2884.385	8661.58
2887.766	8652.58
2891.145	8692.58
2894.521	8581.58
2897.894	8544.25
2901.264	8440.58
2904.631	8445.92
2907.996	8408.58
2911.358	8341.92
2914.717	8389.25
2918.073	8435.25
2921.426	8529.92
2924.777	8624.25
2928.124	8787.58
2931.469	9049.92
2934.811	9443.92
2938.15	9559.92
2941.487	9594.92
2944.821	9382.58
2948.152	9301.58
2951.48	9138.25
2954.805	8939.92
2958.128	8755.25
2961.447	8700.25
2964.765	8625.25
2968.079	8678.92
2971.39	8661.92
2974.699	8780.58
2978.005	8855.25
2981.308	9020.92
2984.609	9157.25
2987.907	9216.58
2991.202	9255.92
2994.494	9384.92
2997.784	9385.58
3001.07	9450.58
3004.355	9473.25
3007.636	9570.92
3010.915	9557.25
3014.191	9612.25
3017.464	9701.58
3020.734	9662.25
3024.002	9678.25
3027.267	9770.25
3030.53	9823.25
3033.789	9916.58
3037.046	10042.92
3040.301	10099.25
3043.552	10249.92
3046.801	10355.92
3050.048	10507.25
3053.291	10700.25
3056.532	10905.92
3059.771	11216.58
3063.006	11412.58
3066.239	11665.58
3069.469	11912.25
3072.697	12236.58
3075.922	12450.25
3079.144	12634.92
3082.364	12766.58
3085.581	13051.92
3088.795	13194.92
3092.007	13428.92
3095.216	13692.25
3098.423	13912.92
3101.627	14208.25
3104.828	14401.92
3108.026	14641.25
3111.222	14904.25
3114.416	15124.25
3117.607	15380.92
3120.795	15681.25
3123.98	16023.92
3127.163	16389.92
3130.344	16665.58
3133.521	17000.58
3136.696	17233.25
3139.869	17578.25
3143.039	17825.58
3146.206	17955.58
3149.371	18143.92
3152.533	18302.25
3155.693	18488.25
3158.85	18536.92
3162.005	18578.25
3165.157	18639.25
3168.306	18671.25
3171.453	18653.92
3174.597	18775.92
3177.739	18871.58
3180.878	18822.25
3184.014	18890.58
3187.149	18845.92
3190.28	18909.58
3193.409	18944.25
3196.536	19036.92
3199.659	19024.25
3202.781	19100.58
3205.9	19216.58
3209.016	19132.25
3212.13	19046.92
3215.241	18978.58
3218.35	18788.58
3221.456	18682.25
3224.56	18494.92
3227.661	18299.92
3230.76	18113.58
3233.856	17966.92
3236.95	17755.25
3240.041	17725.92
3243.13	17447.25
3246.216	17351.25
3249.3	17221.58
3252.382	17151.58
3255.46	17112.25
3258.537	17338.92
3261.611	16981.92
3264.682	16860.25
3267.751	16820.25
3270.818	16801.58
3273.882	16724.58
3276.943	16615.92
3280.002	16423.92
3283.059	16361.58
3286.113	16138.58
3289.165	15918.92
3292.214	15731.92
3295.261	15389.92
3298.306	15319.58
3301.348	15007.25
3304.387	14733.92
3307.425	14517.25
3310.459	14371.25
3313.492	14146.58
3316.521	13981.58
3319.549	13868.92
3322.574	13665.92
3325.597	13616.58
3328.617	13505.25
3331.635	13425.58
3334.65	13355.25
3337.663	13227.58
3340.674	13234.58
3343.682	13153.25
3346.688	13071.58
3349.691	13053.92
3352.692	13012.92
3355.691	12831.58
3358.687	12716.25
3361.681	12579.92
3364.673	12446.25
3367.662	12254.58
3370.649	12111.58
3373.633	12012.25
3376.615	11819.58
3379.595	11769.58
3382.572	11444.58
3385.547	11375.58
3388.52	11201.92
3391.49	11007.92
3394.458	10872.92
3397.424	10764.58
3400.387	10620.58
3403.348	10485.58
3406.307	10369.25
3409.263	10312.92
3412.217	10134.58
3415.168	10039.25
3418.118	9940.25
3421.065	9847.25
3424.009	9682.92
3426.951	9606.58
3429.891	9430.25
3432.829	9274.25
3435.764	9054.58
3438.697	8905.58
3441.628	8617.58
3444.557	8485.92
3447.483	8261.25
3450.407	7980.25
3453.328	7806.58
3456.247	7582.92
3459.164	7435.92
3462.079	7135.25
3464.991	6915.92
3467.902	6734.58
3470.809	6484.92
3473.715	6278.58
3476.618	6131.92
3479.519	5962.25
3482.418	5846.92
3485.315	5674.92
3488.209	5508.25
3491.101	5295.25
3493.99	5182.92
3496.878	5011.92
3499.763	4870.58
3502.646	4728.58
3505.527	4628.92
3508.405	4438.58
3511.281	4274.58
3514.155	4034.92
3517.027	3866.25
3519.897	3732.58
3522.764	3490.25
3525.629	3352.25
3528.492	3181.92
3531.352	2950.58
3534.211	2797.58
3537.067	2695.25
3539.921	2569.58
3542.773	2365.25
3545.622	2244.58
3548.469	2172.58
3551.315	2010.92
3554.157	1913.92
3556.998	1755.58
3559.837	1647.58
3562.673	1520.25
3565.507	1488.92
3568.339	1396.25
3571.169	1329.25
3573.996	1206.92
3576.822	1141.58
3579.645	1072.58
3582.466	978.92
3585.285	809.92
3588.101	770.92
3590.916	698.92
3593.728	598.25
3596.538	499.58
3599.346	393.58
3602.152	391.58
3604.956	304.58
3607.757	221.58
3610.556	199.58
3613.354	99.25
3616.149	45.25
3618.942	-46.42
3621.732	-92.75
3624.521	-32.08
3627.307	-139.42
3630.092	-202.42
3632.874	-236.42
3635.654	-240.42
3638.432	-244.75
3641.208	-335.08
3643.982	-380.42
3646.753	-439.75
3649.523	-360.75
3652.29	-486.08
3655.055	-568.42
3657.818	-572.08
3660.579	-642.75
3663.338	-600.08
3666.095	-665.75
3668.849	-662.08
3671.602	-774.08
3674.352	-726.08
3677.101	-849.42
3679.847	-897.42
3682.591	-865.75
3685.333	-861.42
3688.073	-948.75
3690.811	-945.75
3693.547	-908.42
3696.281	-1002.42
3699.013	-1020.08
3701.742	-1021.75
3704.47	-1021.42
3707.195	-1091.08
3709.919	-1089.75
3712.64	-1089.75
3715.359	-1102.08
3718.076	-1182.75
3720.792	-1179.42
3723.505	-1173.42
3726.216	-1216.08
3728.925	-1167.42
3731.632	-1212.75
3734.336	-1191.08
3737.039	-1230.75
3739.74	-1243.42
3742.439	-1091.75
3745.136	-1261.08
3747.83	-1298.08
3750.523	-1315.08
3753.213	-1042.08
3755.902	-1305.42
3758.589	-1238.42
3761.273	-1296.08
3763.956	-1340.42
3766.636	-1281.42
3769.315	-1380.08
3771.991	-1326.08
3774.665	-1346.75
3777.338	-1383.75
3780.008	-1346.42
3782.677	-1342.42
3785.343	-1338.42
3788.007	-1340.75
3790.67	-1380.75
3793.33	-1382.75
3795.989	-1378.08
3798.645	-1423.08
3801.299	-1364.42
3803.952	-1386.42
3806.602	-1436.42
3809.251	-1433.75
3811.897	-1422.42
3814.542	-1422.08
3817.184	-1425.08
3819.825	-1464.08
3822.463	-1455.08
3825.1	-1464.08
3827.735	-1460.08
3830.367	-1440.42
3832.998	-1498.42
3835.627	-1483.75
3838.253	-1519.08
3840.878	-1458.75
3843.501	-1515.75
3846.122	-1492.42
3848.741	-1504.75
3851.358	-1506.75
3853.973	-1426.08
3856.586	-1505.75
3859.197	-1504.08
3861.806	-1521.08
3864.414	-1490.42
3867.019	-1464.08
3869.622	-1506.08
3872.224	-1491.42
3874.823	-1472.42
3877.421	-1453.08
3880.016	-1415.42
3882.61	-1365.75
3885.202	-1339.08
3887.792	-1389.42
3890.38	-1469.75
3892.966	-1486.42
3895.55	-1448.42
3898.132	-1549.42
3900.713	-1550.42
3903.291	-1527.08
3905.868	-1511.08
3908.442	-1567.08
3911.015	-1577.08
3913.586	-1562.08
3916.155	-1570.08
3918.722	-1572.08
3921.287	-1579.42
3923.85	-1533.42
3926.411	-1574.42
3928.971	-1591.08
3931.528	-1577.42
3934.084	-1577.75
3936.638	-1575.42
3939.19	-1570.42
3941.74	-1601.08
3944.288	-1610.08
3946.834	-1547.75
3949.378	-1617.08
3951.921	-1531.42
3954.462	-1560.42
3957	-1601.42
3959.537	-1582.08
3962.072	-1528.75
3964.606	-1516.42
3967.137	-1604.08
3969.667	-1579.08
3972.194	-1590.42
3974.72	-1556.08
3977.244	-1463.75
3979.766	-1522.42
3982.286	-1516.08
3984.805	-1580.08
3987.321	-1582.42
3989.836	-1547.42
3992.349	-1511.42
3994.86	-1558.42
3997.369	-1546.08
3999.877	-1547.08
4002.382	-1542.75
4004.886	-1566.75
4007.388	-1539.42
4009.888	-1570.42
4012.386	-1584.75
4014.883	-1582.08
4017.377	-1552.42
4019.87	-1558.08
4022.361	-1549.75
4024.85	-1566.42
4027.338	-1568.42
4029.823	-1578.08
4032.307	-1588.42
4034.789	-1602.42
4037.269	-1570.75
4039.747	-1505.08
4042.224	-1585.75
4044.699	-1524.08
4047.172	-1560.08
4049.643	-1631.42
4052.112	-1513.08
4054.58	-1594.08
4057.046	-1568.08
4059.51	-1579.42
4061.972	-1579.08
4064.432	-1488.42
4066.891	-1618.75
4069.348	-1587.42
4071.803	-1603.42
4074.256	-1597.08
4076.708	-1596.75
4079.158	-1563.42
4081.606	-1655.08
4084.052	-1568.42
4086.497	-1630.42
4088.939	-1577.42
4091.38	-1566.42
4093.819	-1606.42
4096.257	-1828.75
4098.693	-1844.75
4101.127	-1872.08
4103.559	-1837.42
4105.989	-990.42
4108.418	-976.08
4110.845	-870.08
4113.27	-854.08
4115.694	-698.75
4118.115	-556.75
4120.535	-1643.42
4122.954	-1601.08
4125.37	-1658.42
4127.785	-1625.08
4130.198	-1620.75
4132.609	-1616.08
4135.019	-1867.08
4137.427	-1859.75
4139.833	-1865.75
4142.237	-1858.42
