Data from boil_coli_30s_File7_1.txt Node
Date: Mon Mar 27 13:19:54 IDT 2017
User: aro
Spectrometer: QEPB0276
Trigger mode: 0
Integration Time (sec): 3.000000E1
Scans to average: 3
Electric dark correction enabled: true
Nonlinearity correction enabled: false
Boxcar width: 0
XAxis mode: Raman Shifts
Number of Pixels in Spectrum: 1044
>>>>>Begin Spectral Data<<<<<
160.701	-150.38
166.742	27.96
172.777	549.29
178.805	2204.96
184.826	6284.29
190.841	13361.29
196.849	21403.29
202.85	26572.62
208.845	27858.29
214.833	27084.29
220.815	26257.96
226.789	25736.29
232.758	25295.63
238.719	24752.29
244.674	24040.62
250.623	23295.96
256.565	22458.96
262.5	21631.96
268.429	20921.63
274.351	20354.62
280.267	19777.62
286.176	19256.63
292.079	18771.63
297.975	18293.29
303.865	17825.29
309.748	17380.62
315.625	17009.63
321.495	16700.29
327.359	16447.96
333.217	16178.96
339.068	16090.96
344.912	15903.29
350.751	15733.96
356.583	15663.29
362.408	15576.29
368.227	15519.62
374.04	15532.96
379.847	15549.96
385.647	15563.29
391.44	15586.29
397.228	15600.96
403.009	15632.63
408.784	15633.29
414.553	15727.29
420.315	15702.62
426.071	15720.96
431.821	15708.63
437.565	15653.62
443.302	15610.29
449.033	15620.62
454.758	15545.63
460.477	15492.29
466.189	15436.63
471.896	15372.63
477.596	15299.96
483.29	15262.63
488.978	15195.96
494.66	15108.96
500.335	14977.96
506.005	14783.96
511.668	14563.29
517.325	14373.96
522.977	14206.29
528.622	14072.62
534.261	13981.62
539.894	13887.63
545.521	13786.29
551.141	13765.63
556.756	13731.96
562.365	13675.29
567.968	13621.96
573.565	13577.29
579.155	13530.63
584.74	13445.96
590.319	13401.29
595.892	13328.96
601.459	13282.96
607.02	13192.63
612.575	13091.96
618.124	12973.29
623.667	12914.96
629.204	12796.96
634.735	12723.29
640.261	12675.96
645.781	12638.96
651.294	12634.96
656.802	12528.29
662.304	12564.96
667.8	12519.29
673.29	12536.29
678.775	12468.29
684.254	12459.62
689.726	12441.96
695.193	12376.62
700.655	12312.96
706.11	12279.63
711.56	12230.96
717.004	12151.63
722.442	12143.29
727.874	12068.96
733.301	12070.29
738.722	12020.29
744.137	12052.29
749.547	12024.96
754.951	12001.63
760.349	12035.62
765.741	12011.96
771.128	12055.62
776.509	12053.29
781.885	12065.29
787.254	12055.62
792.618	12037.63
797.977	11979.29
803.33	11923.96
808.677	11857.96
814.019	11775.29
819.355	11723.96
824.686	11653.29
830.011	11596.62
835.33	11582.96
840.644	11583.29
845.952	11621.63
851.255	11602.29
856.552	11615.29
861.844	11597.63
867.13	11597.96
872.41	11585.96
877.686	11582.29
882.955	11535.62
888.219	11445.62
893.478	11261.96
898.731	11082.62
903.979	10947.62
909.221	10877.63
914.458	10818.96
919.69	10853.62
924.916	10880.96
930.136	10895.29
935.351	10929.63
940.561	10909.62
945.766	10906.29
950.965	10897.29
956.158	10843.29
961.347	10744.29
966.529	10588.29
971.707	10482.96
976.879	10349.63
982.046	10280.29
987.208	10305.96
992.364	10312.29
997.515	10369.29
1002.66	10467.63
1007.801	10582.29
1012.936	10685.62
1018.066	10807.62
1023.19	10858.96
1028.309	10877.29
1033.423	10918.96
1038.532	10833.29
1043.636	10816.63
1048.734	10719.62
1053.827	10622.63
1058.915	10536.62
1063.998	10470.62
1069.075	10444.96
1074.147	10488.29
1079.214	10589.96
1084.276	10665.29
1089.333	10740.29
1094.385	10846.63
1099.431	10958.29
1104.472	10930.63
1109.509	10855.96
1114.54	10775.62
1119.565	10641.29
1124.586	10564.29
1129.602	10471.29
1134.613	10430.29
1139.618	10408.96
1144.619	10416.62
1149.614	10433.96
1154.604	10502.96
1159.589	10574.96
1164.57	10580.62
1169.545	10643.29
1174.515	10654.62
1179.48	10595.62
1184.44	10546.62
1189.395	10523.29
1194.345	10481.63
1199.29	10440.29
1204.23	10467.29
1209.165	10543.96
1214.095	10570.96
1219.021	10688.96
1223.941	10804.63
1228.856	10861.96
1233.766	10896.96
1238.672	10902.62
1243.572	10889.29
1248.467	10846.96
1253.358	10773.29
1258.244	10628.96
1263.124	10474.63
1268	10346.29
1272.871	10271.62
1277.737	10220.29
1282.599	10213.96
1287.455	10251.29
1292.306	10302.29
1297.153	10373.62
1301.995	10451.62
1306.832	10529.29
1311.664	10556.96
1316.491	10593.63
1321.314	10544.62
1326.132	10462.63
1330.945	10350.96
1335.753	10194.96
1340.556	10060.62
1345.354	9946.96
1350.148	9869.96
1354.937	9877.29
1359.722	9887.62
1364.501	9905.62
1369.276	9959.96
1374.046	9974.29
1378.811	10035.96
1383.572	10021.29
1388.327	9943.63
1393.079	9904.29
1397.825	9792.62
1402.567	9682.29
1407.304	9616.63
1412.036	9552.29
1416.764	9540.96
1421.487	9517.29
1426.205	9568.63
1430.919	9616.96
1435.628	9756.96
1440.333	9865.29
1445.032	9919.29
1449.727	9997.96
1454.418	10042.96
1459.104	10059.62
1463.785	9991.29
1468.462	9885.96
1473.134	9800.96
1477.802	9720.96
1482.465	9748.29
1487.123	9675.96
1491.777	9736.96
1496.426	9797.62
1501.071	9829.96
1505.711	9937.96
1510.347	10042.96
1514.978	10140.29
1519.604	10198.29
1524.226	10306.96
1528.844	10309.96
1533.457	10266.96
1538.065	10258.62
1542.669	10235.96
1547.269	10154.29
1551.864	10146.29
1556.454	10176.96
1561.041	10191.96
1565.622	10230.62
1570.199	10287.29
1574.772	10379.29
1579.34	10517.96
1583.904	10603.29
1588.464	10699.62
1593.019	10778.62
1597.569	10804.96
1602.115	10865.96
1606.657	10808.62
1611.195	10821.63
1615.728	10833.63
1620.256	10895.96
1624.78	11006.62
1629.3	11073.62
1633.816	11187.96
1638.327	11329.29
1642.834	11434.96
1647.336	11564.96
1651.834	11600.29
1656.328	11623.29
1660.817	11614.29
1665.302	11552.62
1669.783	11365.62
1674.259	11188.29
1678.732	10946.96
1683.199	10676.96
1687.663	10411.96
1692.122	10164.29
1696.577	9917.62
1701.028	9704.29
1705.474	9574.96
1709.917	9437.62
1714.355	9320.63
1718.788	9225.29
1723.218	9148.96
1727.643	9088.29
1732.064	8885.29
1736.481	8775.96
1740.893	8650.29
1745.301	8481.96
1749.705	8328.29
1754.105	8171.62
1758.501	8017.96
1762.893	7928.62
1767.28	7856.96
1771.663	7830.62
1776.042	7814.63
1780.417	7859.62
1784.787	7882.63
1789.154	7940.29
1793.516	7991.96
1797.874	8068.62
1802.228	8098.29
1806.578	8075.62
1810.924	7981.62
1815.266	7987.29
1819.603	7780.29
1823.937	7680.96
1828.266	7604.29
1832.591	7529.62
1836.913	7488.62
1841.23	7472.96
1845.543	7458.29
1849.852	7466.96
1854.156	7482.29
1858.457	7482.29
1862.754	7537.29
1867.047	7541.96
1871.335	7572.62
1875.62	7600.63
1879.9	7608.62
1884.177	7604.96
1888.449	7583.96
1892.718	7558.63
1896.982	7529.62
1901.243	7526.29
1905.499	7501.63
1909.752	7493.29
1914	7518.29
1918.245	7519.96
1922.485	7541.96
1926.722	7568.96
1930.954	7581.29
1935.183	7628.96
1939.408	7650.62
1943.628	7706.62
1947.845	7709.62
1952.058	7707.96
1956.267	7657.62
1960.472	7584.96
1964.673	7502.96
1968.87	7420.62
1973.063	7355.96
1977.252	7294.29
1981.438	7264.29
1985.619	7242.96
1989.797	7231.62
1993.971	7212.96
1998.14	7236.62
2002.306	7273.29
2006.469	7255.29
2010.627	7269.96
2014.781	7267.96
2018.932	7260.29
2023.078	7208.62
2027.221	7199.62
2031.36	7112.96
2035.495	7058.29
2039.627	6981.96
2043.754	6958.63
2047.878	6957.29
2051.998	6915.62
2056.114	6952.29
2060.226	6948.63
2064.334	6964.63
2068.439	6987.63
2072.54	7024.29
2076.637	7084.29
2080.73	7099.96
2084.82	7115.29
2088.906	7111.96
2092.988	7100.63
2097.066	7072.96
2101.14	7020.96
2105.211	6968.96
2109.278	6956.29
2113.342	6940.62
2117.401	6883.96
2121.457	6888.62
2125.509	6867.62
2129.558	6823.29
2133.602	6790.96
2137.643	6797.62
2141.681	6784.96
2145.714	6757.29
2149.744	6704.96
2153.77	6685.62
2157.793	6650.29
2161.812	6579.96
2165.827	6534.62
2169.838	6417.63
2173.846	6354.29
2177.851	6298.63
2181.851	6191.96
2185.848	6160.29
2189.841	6076.96
2193.831	6054.29
2197.817	6030.62
2201.799	6039.62
2205.778	6029.29
2209.753	6010.63
2213.725	6018.29
2217.693	6022.96
2221.657	6035.96
2225.618	6004.62
2229.575	6010.96
2233.529	5982.96
2237.479	5935.96
2241.425	5892.62
2245.368	5840.63
2249.307	5771.62
2253.243	5699.96
2257.175	5641.29
2261.104	5593.96
2265.029	5515.29
2268.95	5472.96
2272.868	5433.96
2276.783	5377.29
2280.694	5346.62
2284.601	5295.96
2288.505	5239.63
2292.405	5200.62
2296.302	5155.96
2300.195	5105.62
2304.085	5059.62
2307.971	4971.62
2311.854	4922.62
2315.734	4841.29
2319.609	4767.96
2323.482	4725.29
2327.351	4660.29
2331.216	4638.29
2335.078	4602.62
2338.937	4589.96
2342.792	4563.96
2346.643	4556.96
2350.492	4548.29
2354.336	4573.29
2358.178	4558.62
2362.015	4550.62
2365.85	4569.62
2369.681	4584.62
2373.508	4577.29
2377.333	4566.96
2381.153	4572.62
2384.971	4569.62
2388.785	4536.29
2392.595	4491.96
2396.402	4466.29
2400.206	4461.29
2404.007	4441.96
2407.804	4417.62
2411.597	4419.29
2415.388	4419.96
2419.174	4394.29
2422.958	4398.96
2426.738	4365.29
2430.515	4345.62
2434.289	4335.62
2438.059	4328.96
2441.825	4296.96
2445.589	4265.96
2449.349	4267.62
2453.106	4213.62
2456.859	4178.62
2460.61	4173.29
2464.356	4131.62
2468.1	4120.96
2471.84	4095.63
2475.577	4073.96
2479.311	4075.63
2483.041	4049.96
2486.768	4061.29
2490.492	4070.62
2494.213	4077.29
2497.93	4077.29
2501.644	4091.62
2505.355	4061.62
2509.062	4063.62
2512.766	4056.96
2516.467	4052.62
2520.165	4024.63
2523.859	4012.29
2527.551	3951.63
2531.239	3939.29
2534.923	3924.96
2538.605	3908.96
2542.283	3873.29
2545.958	3856.62
2549.63	3841.29
2553.299	3831.63
2556.964	3821.63
2560.626	3780.29
2564.285	3771.63
2567.941	3771.96
2571.594	3744.96
2575.243	3720.63
2578.89	3729.63
2582.533	3695.96
2586.173	3687.29
2589.809	3625.29
2593.443	3663.96
2597.073	3604.29
2600.701	3586.29
2604.325	3568.96
2607.946	3546.62
2611.564	3552.29
2615.178	3545.63
2618.79	3532.63
2622.398	3527.63
2626.004	3496.63
2629.606	3458.96
2633.205	3442.63
2636.801	3397.96
2640.394	3375.63
2643.983	3330.29
2647.57	3319.29
2651.153	3290.63
2654.734	3258.29
2658.311	3222.96
2661.885	3187.96
2665.456	3150.96
2669.025	3128.96
2672.589	3130.96
2676.151	3090.96
2679.71	3071.96
2683.266	3062.29
2686.819	3022.96
2690.368	2987.63
2693.915	2953.63
2697.458	2925.96
2700.999	2891.29
2704.536	2848.96
2708.071	2836.63
2711.602	2806.29
2715.13	2792.96
2718.656	2794.96
2722.178	2780.62
2725.697	2774.63
2729.214	2783.63
2732.727	2789.96
2736.237	2815.62
2739.744	2820.62
2743.249	2836.29
2746.75	2795.96
2750.248	2830.62
2753.743	2812.62
2757.236	2794.96
2760.725	2793.63
2764.211	2798.63
2767.695	2757.96
2771.175	2739.63
2774.652	2706.29
2778.127	2702.62
2781.598	2667.63
2785.067	2663.96
2788.532	2650.63
2791.995	2652.63
2795.455	2653.29
2798.911	2654.63
2802.365	2661.29
2805.816	2645.96
2809.264	2610.63
2812.709	2620.96
2816.151	2609.29
2819.59	2605.29
2823.026	2593.62
2826.46	2591.29
2829.89	2574.62
2833.318	2587.96
2836.742	2562.63
2840.164	2563.29
2843.583	2584.96
2846.999	2567.29
2850.412	2570.96
2853.822	2596.63
2857.229	2580.96
2860.634	2614.29
2864.035	2644.62
2867.434	2621.96
2870.83	2653.63
2874.223	2666.96
2877.613	2653.96
2881	2658.63
2884.385	2662.63
2887.766	2618.96
2891.145	2622.63
2894.521	2616.63
2897.894	2608.63
2901.264	2592.63
2904.631	2582.62
2907.996	2576.29
2911.358	2573.63
2914.717	2576.29
2918.073	2589.63
2921.426	2608.96
2924.777	2625.96
2928.124	2623.62
2931.469	2655.96
2934.811	2701.29
2938.15	2701.29
2941.487	2733.63
2944.821	2709.29
2948.152	2737.62
2951.48	2730.29
2954.805	2736.63
2958.128	2714.96
2961.447	2761.29
2964.765	2764.62
2968.079	2794.63
2971.39	2809.29
2974.699	2852.29
2978.005	2876.63
2981.308	2923.29
2984.609	2979.29
2987.907	3010.96
2991.202	3066.29
2994.494	3143.96
2997.784	3178.96
3001.07	3225.62
3004.355	3266.29
3007.636	3336.29
3010.915	3357.29
3014.191	3403.29
3017.464	3442.63
3020.734	3422.62
3024.002	3437.96
3027.267	3464.29
3030.53	3496.96
3033.789	3522.29
3037.046	3589.96
3040.301	3618.63
3043.552	3688.63
3046.801	3725.96
3050.048	3793.62
3053.291	3852.63
3056.532	3959.96
3059.771	4045.62
3063.006	4137.62
3066.239	4229.29
3069.469	4333.96
3072.697	4440.96
3075.922	4545.96
3079.144	4627.62
3082.364	4672.96
3085.581	4766.29
3088.795	4849.62
3092.007	4926.29
3095.216	5028.29
3098.423	5119.29
3101.627	5204.62
3104.828	5279.63
3108.026	5398.96
3111.222	5475.29
3114.416	5574.29
3117.607	5683.62
3120.795	5783.96
3123.98	5918.29
3127.163	6046.96
3130.344	6141.29
3133.521	6252.96
3136.696	6369.62
3139.869	6480.29
3143.039	6569.96
3146.206	6659.29
3149.371	6723.62
3152.533	6755.29
3155.693	6812.29
3158.85	6835.29
3162.005	6857.29
3165.157	6890.62
3168.306	6905.29
3171.453	6880.96
3174.597	6918.29
3177.739	6958.29
3180.878	6937.96
3184.014	6948.62
3187.149	6962.29
3190.28	6964.29
3193.409	6994.96
3196.536	7010.96
3199.659	7005.96
3202.781	7019.96
3205.9	7045.29
3209.016	7020.29
3212.13	6999.29
3215.241	6991.96
3218.35	6911.29
3221.456	6861.96
3224.56	6819.96
3227.661	6742.29
3230.76	6682.29
3233.856	6644.62
3236.95	6578.96
3240.041	6555.29
3243.13	6448.63
3246.216	6404.62
3249.3	6355.29
3252.382	6343.96
3255.46	6319.96
3258.537	6376.62
3261.611	6264.62
3264.682	6255.96
3267.751	6223.96
3270.818	6201.63
3273.882	6178.96
3276.943	6113.62
3280.002	6082.63
3283.059	6023.96
3286.113	5928.96
3289.165	5857.29
3292.214	5774.96
3295.261	5681.62
3298.306	5612.62
3301.348	5520.29
3304.387	5417.29
3307.425	5318.96
3310.459	5278.29
3313.492	5187.96
3316.521	5156.62
3319.549	5087.96
3322.574	5028.96
3325.597	4996.62
3328.617	4944.62
3331.635	4917.29
3334.65	4897.29
3337.663	4855.29
3340.674	4847.29
3343.682	4817.62
3346.688	4810.96
3349.691	4787.29
3352.692	4757.29
3355.691	4717.62
3358.687	4658.62
3361.681	4632.96
3364.673	4579.29
3367.662	4504.29
3370.649	4436.96
3373.633	4400.96
3376.615	4332.29
3379.595	4299.62
3382.572	4215.62
3385.547	4179.96
3388.52	4121.29
3391.49	4061.62
3394.458	4009.96
3397.424	3938.63
3400.387	3915.29
3403.348	3859.29
3406.307	3817.96
3409.263	3796.29
3412.217	3737.29
3415.168	3693.63
3418.118	3655.29
3421.065	3640.63
3424.009	3566.96
3426.951	3541.96
3429.891	3477.29
3432.829	3419.29
3435.764	3349.96
3438.697	3284.63
3441.628	3192.29
3444.557	3122.96
3447.483	3049.29
3450.407	2952.29
3453.328	2893.29
3456.247	2796.96
3459.164	2740.63
3462.079	2640.63
3464.991	2575.29
3467.902	2493.62
3470.809	2405.96
3473.715	2352.29
3476.618	2280.29
3479.519	2217.96
3482.418	2172.62
3485.315	2107.29
3488.209	2048.96
3491.101	1978.29
3493.99	1937.63
3496.878	1885.29
3499.763	1816.29
3502.646	1776.29
3505.527	1738.29
3508.405	1661.96
3511.281	1584.29
3514.155	1519.29
3517.027	1454.63
3519.897	1403.29
3522.764	1319.29
3525.629	1269.96
3528.492	1201.63
3531.352	1124.96
3534.211	1060.63
3537.067	1012.29
3539.921	961.29
3542.773	908.63
3545.622	849.96
3548.469	811.96
3551.315	766.63
3554.157	729.29
3556.998	680.63
3559.837	635.29
3562.673	588.63
3565.507	565.29
3568.339	536.96
3571.169	505.29
3573.996	464.63
3576.822	449.62
3579.645	420.63
3582.466	379.63
3585.285	333.96
3588.101	305.29
3590.916	283.96
3593.728	251.96
3596.538	215.29
3599.346	178.96
3602.152	172.96
3604.956	137.96
3607.757	117.63
3610.556	94.96
3613.354	64.63
3616.149	43.96
3618.942	9.96
3621.732	-4.04
3624.521	5.96
3627.307	-23.38
3630.092	-49.38
3632.874	-65.37
3635.654	-70.71
3638.432	-78.04
3641.208	-106.71
3643.982	-124.04
3646.753	-139.37
3649.523	-123.37
3652.29	-161.04
3655.055	-187.71
3657.818	-204.04
3660.579	-217.71
3663.338	-213.37
3666.095	-232.04
3668.849	-231.38
3671.602	-269.37
3674.352	-258.71
3677.101	-292.71
3679.847	-313.71
3682.591	-308.04
3685.333	-309.71
3688.073	-332.04
3690.811	-332.38
3693.547	-329.04
3696.281	-355.71
3699.013	-357.71
3701.742	-364.04
3704.47	-366.71
3707.195	-383.71
3709.919	-390.71
3712.64	-387.04
3715.359	-393.71
3718.076	-418.71
3720.792	-415.71
3723.505	-416.71
3726.216	-438.37
3728.925	-424.37
3731.632	-428.71
3734.336	-435.04
3737.039	-445.04
3739.74	-446.04
3742.439	-404.71
3745.136	-456.37
3747.83	-466.37
3750.523	-472.38
3753.213	-401.37
3755.902	-470.04
3758.589	-454.37
3761.273	-471.38
3763.956	-478.04
3766.636	-470.04
3769.315	-493.38
3771.991	-482.04
3774.665	-483.71
3777.338	-497.71
3780.008	-486.37
3782.677	-485.04
3785.343	-487.38
3788.007	-488.38
3790.67	-496.38
3793.33	-499.38
3795.989	-500.37
3798.645	-511.71
3801.299	-495.04
3803.952	-504.37
3806.602	-515.71
3809.251	-514.37
3811.897	-516.37
3814.542	-515.37
3817.184	-513.71
3819.825	-524.37
3822.463	-526.71
3825.1	-528.04
3827.735	-531.04
3830.367	-529.04
3832.998	-542.71
3835.627	-533.04
3838.253	-547.04
3840.878	-529.71
3843.501	-550.04
3846.122	-541.04
3848.741	-548.38
3851.358	-545.04
3853.973	-527.71
3856.586	-546.04
3859.197	-542.04
3861.806	-551.71
3864.414	-541.37
3867.019	-537.71
3869.622	-552.37
3872.224	-545.04
3874.823	-541.04
3877.421	-533.71
3880.016	-527.04
3882.61	-515.37
3885.202	-507.04
3887.792	-521.37
3890.38	-542.04
3892.966	-545.38
3895.55	-532.71
3898.132	-561.04
3900.713	-565.37
3903.291	-561.04
3905.868	-552.71
3908.442	-569.37
3911.015	-572.71
3913.586	-563.04
3916.155	-572.71
3918.722	-573.37
3921.287	-576.71
3923.85	-563.38
3926.411	-575.38
3928.971	-574.71
3931.528	-576.71
3934.084	-574.04
3936.638	-573.71
3939.19	-573.04
3941.74	-582.37
3944.288	-584.04
3946.834	-573.71
3949.378	-586.04
3951.921	-566.37
3954.462	-566.71
3957	-582.71
3959.537	-576.04
3962.072	-560.71
3964.606	-557.71
3967.137	-581.38
3969.667	-572.04
3972.194	-574.04
3974.72	-570.71
3977.244	-543.38
3979.766	-558.71
3982.286	-559.04
3984.805	-572.71
3987.321	-572.04
3989.836	-563.71
3992.349	-554.04
3994.86	-567.71
3997.369	-564.71
3999.877	-566.37
4002.382	-561.37
4004.886	-569.04
4007.388	-559.71
4009.888	-572.71
4012.386	-574.38
4014.883	-576.04
4017.377	-566.71
4019.87	-567.71
4022.361	-566.04
4024.85	-568.04
4027.338	-573.04
4029.823	-574.04
4032.307	-577.04
4034.789	-579.04
4037.269	-574.37
4039.747	-560.38
4042.224	-575.71
4044.699	-558.04
4047.172	-568.71
4049.643	-586.37
4052.112	-559.04
4054.58	-578.04
4057.046	-572.71
4059.51	-573.71
4061.972	-575.04
4064.432	-548.71
4066.891	-586.71
4069.348	-575.71
4071.803	-582.71
4074.256	-577.04
4076.708	-575.71
4079.158	-567.38
4081.606	-595.04
4084.052	-573.71
4086.497	-591.04
4088.939	-575.71
4091.38	-571.38
4093.819	-581.37
4096.257	-648.37
4098.693	-652.38
4101.127	-661.04
4103.559	-649.04
4105.989	-378.04
4108.418	-372.37
4110.845	-343.38
4113.27	-328.37
4115.694	-276.71
4118.115	-216.04
4120.535	-592.04
4122.954	-579.71
4125.37	-594.71
4127.785	-588.04
4130.198	-588.37
4132.609	-582.38
4135.019	-658.71
4137.427	-657.38
4139.833	-660.37
4142.237	-655.37
