Data from etoh 5sec_RamanShift_02.txt Node
Date: Wed Mar 21 14:31:42 IST 2018
User: aro
Spectrometer: QEPB0276
Trigger mode: 0
Integration Time (sec): 5.000000E0
Scans to average: 1
Electric dark correction enabled: true
Nonlinearity correction enabled: false
Boxcar width: 0
XAxis mode: Raman Shifts
Number of Pixels in Spectrum: 1044
>>>>>Begin Spectral Data<<<<<
160.701	-1.2
166.742	5.8
172.777	4.8
178.805	27.8
184.826	66.8
190.841	149.8
196.849	243.8
202.85	298.8
208.845	320.8
214.833	307.8
220.815	306.8
226.789	297.8
232.758	297.8
238.719	302.8
244.674	295.8
250.623	297.8
256.565	296.8
262.5	286.8
268.429	278.8
274.351	274.8
280.267	275.8
286.176	259.8
292.079	254.8
297.975	245.8
303.865	249.8
309.748	247.8
315.625	246.8
321.495	257.8
327.359	253.8
333.217	235.8
339.068	235.8
344.912	227.8
350.751	237.8
356.583	235.8
362.408	230.8
368.227	230.8
374.04	239.8
379.847	246.8
385.647	256.8
391.44	270.8
397.228	299.8
403.009	326.8
408.784	339.8
414.553	344.8
420.315	359.8
426.071	400.8
431.821	441.8
437.565	465.8
443.302	465.8
449.033	446.8
454.758	391.8
460.477	348.8
466.189	318.8
471.896	281.8
477.596	259.8
483.29	249.8
488.978	232.8
494.66	220.8
500.335	219.8
506.005	216.8
511.668	201.8
517.325	198.8
522.977	199.8
528.622	204.8
534.261	204.8
539.894	201.8
545.521	184.8
551.141	174.8
556.756	172.8
562.365	163.8
567.968	164.8
573.565	151.8
579.155	159.8
584.74	149.8
590.319	159.8
595.892	153.8
601.459	154.8
607.02	150.8
612.575	154.8
618.124	146.8
623.667	149.8
629.204	141.8
634.735	146.8
640.261	147.8
645.781	149.8
651.294	145.8
656.802	151.8
662.304	144.8
667.8	136.8
673.29	136.8
678.775	138.8
684.254	130.8
689.726	138.8
695.193	127.8
700.655	132.8
706.11	131.8
711.56	134.8
717.004	131.8
722.442	136.8
727.874	137.8
733.301	131.8
738.722	129.8
744.137	131.8
749.547	133.8
754.951	139.8
760.349	137.8
765.741	134.8
771.128	147.8
776.509	151.8
781.885	152.8
787.254	159.8
792.618	163.8
797.977	184.8
803.33	205.8
808.677	267.8
814.019	303.8
819.355	295.8
824.686	252.8
830.011	218.8
835.33	237.8
840.644	282.8
845.952	317.8
851.255	324.8
856.552	306.8
861.844	342.8
867.13	443.8
872.41	702.8
877.686	1182.8
882.955	1773.8
888.219	1984.8
893.478	1587.8
898.731	965.8
903.979	541.8
909.221	363.8
914.458	257.8
919.69	218.8
924.916	191.8
930.136	176.8
935.351	178.8
940.561	176.8
945.766	176.8
950.965	172.8
956.158	158.8
961.347	160.8
966.529	160.8
971.707	180.8
976.879	195.8
982.046	191.8
987.208	182.8
992.364	173.8
997.515	185.8
1002.66	206.8
1007.801	223.8
1012.936	234.8
1018.066	265.8
1023.19	300.8
1028.309	344.8
1033.423	401.8
1038.532	483.8
1043.636	598.8
1048.734	721.8
1053.827	771.8
1058.915	742.8
1063.998	632.8
1069.075	524.8
1074.147	467.8
1079.214	492.8
1084.276	581.8
1089.333	694.8
1094.385	763.8
1099.431	760.8
1104.472	652.8
1109.509	522.8
1114.54	420.8
1119.565	342.8
1124.586	317.8
1129.602	292.8
1134.613	265.8
1139.618	245.8
1144.619	231.8
1149.614	243.8
1154.604	269.8
1159.589	280.8
1164.57	255.8
1169.545	233.8
1174.515	211.8
1179.48	184.8
1184.44	155.8
1189.395	131.8
1194.345	128.8
1199.29	134.8
1204.23	126.8
1209.165	128.8
1214.095	137.8
1219.021	158.8
1223.941	176.8
1228.856	169.8
1233.766	158.8
1238.672	156.8
1243.572	156.8
1248.467	170.8
1253.358	171.8
1258.244	193.8
1263.124	212.8
1268	240.8
1272.871	281.8
1277.737	349.8
1282.599	386.8
1287.455	374.8
1292.306	319.8
1297.153	268.8
1301.995	228.8
1306.832	213.8
1311.664	198.8
1316.491	192.8
1321.314	195.8
1326.132	218.8
1330.945	258.8
1335.753	292.8
1340.556	258.8
1345.354	210.8
1350.148	187.8
1354.937	187.8
1359.722	192.8
1364.501	210.8
1369.276	209.8
1374.046	201.8
1378.811	208.8
1383.572	219.8
1388.327	220.8
1393.079	224.8
1397.825	219.8
1402.567	232.8
1407.304	231.8
1412.036	248.8
1416.764	270.8
1421.487	285.8
1426.205	318.8
1430.919	347.8
1435.628	396.8
1440.333	480.8
1445.032	580.8
1449.727	725.8
1454.418	914.8
1459.104	1068.8
1463.785	1054.8
1468.462	868.8
1473.134	657.8
1477.802	503.8
1482.465	444.8
1487.123	414.8
1491.777	381.8
1496.426	334.8
1501.071	277.8
1505.711	233.8
1510.347	206.8
1514.978	180.8
1519.604	169.8
1524.226	157.8
1528.844	145.8
1533.457	142.8
1538.065	135.8
1542.669	121.8
1547.269	110.8
1551.864	107.8
1556.454	101.8
1561.041	105.8
1565.622	100.8
1570.199	92.8
1574.772	89.8
1579.34	86.8
1583.904	83.8
1588.464	78.8
1593.019	71.8
1597.569	76.8
1602.115	74.8
1606.657	72.8
1611.195	75.8
1615.728	73.8
1620.256	73.8
1624.78	76.8
1629.3	72.8
1633.816	71.8
1638.327	67.8
1642.834	69.8
1647.336	69.8
1651.834	69.8
1656.328	64.8
1660.817	62.8
1665.302	66.8
1669.783	61.8
1674.259	61.8
1678.732	55.8
1683.199	54.8
1687.663	53.8
1692.122	57.8
1696.577	55.8
1701.028	53.8
1705.474	52.8
1709.917	48.8
1714.355	53.8
1718.788	47.8
1723.218	40.8
1727.643	42.8
1732.064	45.8
1736.481	43.8
1740.893	38.8
1745.301	39.8
1749.705	41.8
1754.105	36.8
1758.501	38.8
1762.893	31.8
1767.28	33.8
1771.663	27.8
1776.042	26.8
1780.417	28.8
1784.787	28.8
1789.154	28.8
1793.516	25.8
1797.874	31.8
1802.228	29.8
1806.578	29.8
1810.924	31.8
1815.266	26.8
1819.603	29.8
1823.937	27.8
1828.266	25.8
1832.591	25.8
1836.913	24.8
1841.23	24.8
1845.543	23.8
1849.852	22.8
1854.156	19.8
1858.457	20.8
1862.754	22.8
1867.047	21.8
1871.335	26.8
1875.62	23.8
1879.9	23.8
1884.177	24.8
1888.449	26.8
1892.718	27.8
1896.982	23.8
1901.243	24.8
1905.499	22.8
1909.752	22.8
1914	17.8
1918.245	18.8
1922.485	27.8
1926.722	26.8
1930.954	24.8
1935.183	24.8
1939.408	26.8
1943.628	21.8
1947.845	25.8
1952.058	22.8
1956.267	22.8
1960.472	22.8
1964.673	22.8
1968.87	22.8
1973.063	20.8
1977.252	17.8
1981.438	15.8
1985.619	20.8
1989.797	19.8
1993.971	16.8
1998.14	23.8
2002.306	17.8
2006.469	19.8
2010.627	21.8
2014.781	22.8
2018.932	24.8
2023.078	18.8
2027.221	15.8
2031.36	15.8
2035.495	15.8
2039.627	13.8
2043.754	12.8
2047.878	10.8
2051.998	15.8
2056.114	17.8
2060.226	16.8
2064.334	20.8
2068.439	21.8
2072.54	21.8
2076.637	18.8
2080.73	17.8
2084.82	19.8
2088.906	20.8
2092.988	21.8
2097.066	20.8
2101.14	17.8
2105.211	19.8
2109.278	20.8
2113.342	16.8
2117.401	19.8
2121.457	18.8
2125.509	13.8
2129.558	15.8
2133.602	17.8
2137.643	16.8
2141.681	20.8
2145.714	19.8
2149.744	17.8
2153.77	20.8
2157.793	17.8
2161.812	17.8
2165.827	7.8
2169.838	17.8
2173.846	13.8
2177.851	13.8
2181.851	11.8
2185.848	15.8
2189.841	13.8
2193.831	18.8
2197.817	16.8
2201.799	15.8
2205.778	13.8
2209.753	15.8
2213.725	13.8
2217.693	14.8
2221.657	18.8
2225.618	18.8
2229.575	16.8
2233.529	17.8
2237.479	14.8
2241.425	12.8
2245.368	12.8
2249.307	14.8
2253.243	19.8
2257.175	16.8
2261.104	17.8
2265.029	19.8
2268.95	17.8
2272.868	17.8
2276.783	13.8
2280.694	14.8
2284.601	14.8
2288.505	13.8
2292.405	10.8
2296.302	9.8
2300.195	9.8
2304.085	14.8
2307.971	13.8
2311.854	15.8
2315.734	12.8
2319.609	11.8
2323.482	10.8
2327.351	10.8
2331.216	14.8
2335.078	8.8
2338.937	8.8
2342.792	9.8
2346.643	7.8
2350.492	7.8
2354.336	8.8
2358.178	9.8
2362.015	8.8
2365.85	3.8
2369.681	10.8
2373.508	3.8
2377.333	2.8
2381.153	6.8
2384.971	7.8
2388.785	9.8
2392.595	8.8
2396.402	11.8
2400.206	13.8
2404.007	7.8
2407.804	6.8
2411.597	4.8
2415.388	4.8
2419.174	3.8
2422.958	4.8
2426.738	9.8
2430.515	5.8
2434.289	10.8
2438.059	9.8
2441.825	10.8
2445.589	7.8
2449.349	6.8
2453.106	9.8
2456.859	11.8
2460.61	12.8
2464.356	10.8
2468.1	7.8
2471.84	12.8
2475.577	7.8
2479.311	11.8
2483.041	7.8
2486.768	7.8
2490.492	3.8
2494.213	8.8
2497.93	5.8
2501.644	7.8
2505.355	9.8
2509.062	11.8
2512.766	10.8
2516.467	12.8
2520.165	11.8
2523.859	12.8
2527.551	10.8
2531.239	10.8
2534.923	12.8
2538.605	16.8
2542.283	16.8
2545.958	15.8
2549.63	14.8
2553.299	16.8
2556.964	20.8
2560.626	17.8
2564.285	15.8
2567.941	16.8
2571.594	16.8
2575.243	12.8
2578.89	23.8
2582.533	18.8
2586.173	17.8
2589.809	16.8
2593.443	16.8
2597.073	17.8
2600.701	17.8
2604.325	14.8
2607.946	16.8
2611.564	13.8
2615.178	13.8
2618.79	20.8
2622.398	14.8
2626.004	20.8
2629.606	19.8
2633.205	20.8
2636.801	18.8
2640.394	17.8
2643.983	22.8
2647.57	21.8
2651.153	21.8
2654.734	20.8
2658.311	23.8
2661.885	28.8
2665.456	24.8
2669.025	23.8
2672.589	29.8
2676.151	27.8
2679.71	25.8
2683.266	30.8
2686.819	33.8
2690.368	38.8
2693.915	43.8
2697.458	47.8
2700.999	52.8
2704.536	55.8
2708.071	56.8
2711.602	63.8
2715.13	69.8
2718.656	74.8
2722.178	75.8
2725.697	84.8
2729.214	82.8
2732.727	79.8
2736.237	78.8
2739.744	78.8
2743.249	75.8
2746.75	71.8
2750.248	62.8
2753.743	71.8
2757.236	71.8
2760.725	69.8
2764.211	64.8
2767.695	64.8
2771.175	60.8
2774.652	60.8
2778.127	54.8
2781.598	53.8
2785.067	61.8
2788.532	61.8
2791.995	65.8
2795.455	68.8
2798.911	73.8
2802.365	82.8
2805.816	89.8
2809.264	91.8
2812.709	93.8
2816.151	98.8
2819.59	111.8
2823.026	124.8
2826.46	134.8
2829.89	150.8
2833.318	175.8
2836.742	201.8
2840.164	222.8
2843.583	238.8
2846.999	245.8
2850.412	261.8
2853.822	266.8
2857.229	276.8
2860.634	305.8
2864.035	333.8
2867.434	371.8
2870.83	421.8
2874.223	487.8
2877.613	536.8
2881	591.8
2884.385	617.8
2887.766	635.8
2891.145	622.8
2894.521	609.8
2897.894	593.8
2901.264	563.8
2904.631	568.8
2907.996	542.8
2911.358	524.8
2914.717	532.8
2918.073	531.8
2921.426	553.8
2924.777	615.8
2928.124	671.8
2931.469	722.8
2934.811	758.8
2938.15	738.8
2941.487	680.8
2944.821	608.8
2948.152	538.8
2951.48	489.8
2954.805	440.8
2958.128	419.8
2961.447	380.8
2964.765	364.8
2968.079	356.8
2971.39	350.8
2974.699	354.8
2978.005	340.8
2981.308	333.8
2984.609	310.8
2987.907	281.8
2991.202	254.8
2994.494	230.8
2997.784	185.8
3001.07	167.8
3004.355	143.8
3007.636	131.8
3010.915	116.8
3014.191	106.8
3017.464	91.8
3020.734	85.8
3024.002	82.8
3027.267	74.8
3030.53	71.8
3033.789	67.8
3037.046	65.8
3040.301	61.8
3043.552	55.8
3046.801	53.8
3050.048	48.8
3053.291	41.8
3056.532	42.8
3059.771	45.8
3063.006	38.8
3066.239	39.8
3069.469	41.8
3072.697	36.8
3075.922	35.8
3079.144	34.8
3082.364	35.8
3085.581	34.8
3088.795	36.8
3092.007	33.8
3095.216	31.8
3098.423	35.8
3101.627	30.8
3104.828	27.8
3108.026	26.8
3111.222	17.8
3114.416	22.8
3117.607	27.8
3120.795	26.8
3123.98	31.8
3127.163	29.8
3130.344	28.8
3133.521	32.8
3136.696	27.8
3139.869	30.8
3143.039	30.8
3146.206	27.8
3149.371	27.8
3152.533	29.8
3155.693	30.8
3158.85	31.8
3162.005	29.8
3165.157	28.8
3168.306	28.8
3171.453	31.8
3174.597	28.8
3177.739	25.8
3180.878	30.8
3184.014	32.8
3187.149	25.8
3190.28	27.8
3193.409	29.8
3196.536	30.8
3199.659	26.8
3202.781	26.8
3205.9	20.8
3209.016	27.8
3212.13	26.8
3215.241	31.8
3218.35	28.8
3221.456	30.8
3224.56	26.8
3227.661	30.8
3230.76	31.8
3233.856	27.8
3236.95	23.8
3240.041	20.8
3243.13	25.8
3246.216	23.8
3249.3	21.8
3252.382	19.8
3255.46	29.8
3258.537	24.8
3261.611	24.8
3264.682	23.8
3267.751	23.8
3270.818	23.8
3273.882	21.8
3276.943	24.8
3280.002	23.8
3283.059	21.8
3286.113	25.8
3289.165	26.8
3292.214	20.8
3295.261	21.8
3298.306	20.8
3301.348	21.8
3304.387	20.8
3307.425	19.8
3310.459	14.8
3313.492	23.8
3316.521	19.8
3319.549	24.8
3322.574	20.8
3325.597	17.8
3328.617	14.8
3331.635	19.8
3334.65	18.8
3337.663	18.8
3340.674	11.8
3343.682	18.8
3346.688	18.8
3349.691	18.8
3352.692	14.8
3355.691	21.8
3358.687	19.8
3361.681	20.8
3364.673	15.8
3367.662	19.8
3370.649	16.8
3373.633	17.8
3376.615	14.8
3379.595	13.8
3382.572	16.8
3385.547	14.8
3388.52	12.8
3391.49	15.8
3394.458	14.8
3397.424	11.8
3400.387	7.8
3403.348	14.8
3406.307	10.8
3409.263	12.8
3412.217	12.8
3415.168	14.8
3418.118	13.8
3421.065	12.8
3424.009	11.8
3426.951	11.8
3429.891	9.8
3432.829	10.8
3435.764	8.8
3438.697	9.8
3441.628	10.8
3444.557	10.8
3447.483	10.8
3450.407	10.8
3453.328	11.8
3456.247	7.8
3459.164	7.8
3462.079	9.8
3464.991	6.8
3467.902	7.8
3470.809	6.8
3473.715	6.8
3476.618	3.8
3479.519	4.8
3482.418	3.8
3485.315	5.8
3488.209	-2.2
3491.101	-0.2
3493.99	1.8
3496.878	4.8
3499.763	1.8
3502.646	2.8
3505.527	3.8
3508.405	2.8
3511.281	-0.2
3514.155	2.8
3517.027	-3.2
3519.897	0.8
3522.764	-3.2
3525.629	-0.2
3528.492	-3.2
3531.352	-5.2
3534.211	-3.2
3537.067	-0.2
3539.921	-4.2
3542.773	-1.2
3545.622	-5.2
3548.469	-5.2
3551.315	-1.2
3554.157	-3.2
3556.998	-5.2
3559.837	-0.2
3562.673	-2.2
3565.507	-0.2
3568.339	-4.2
3571.169	1.8
3573.996	-3.2
3576.822	-5.2
3579.645	-5.2
3582.466	-8.2
3585.285	-8.2
3588.101	-5.2
3590.916	-7.2
3593.728	-3.2
3596.538	-1.2
3599.346	-6.2
3602.152	-3.2
3604.956	-0.2
3607.757	-7.2
3610.556	-8.2
3613.354	-12.2
3616.149	-11.2
3618.942	-10.2
3621.732	-8.2
3624.521	-10.2
3627.307	-5.2
3630.092	-8.2
3632.874	-6.2
3635.654	-4.2
3638.432	-5.2
3641.208	-11.2
3643.982	-8.2
3646.753	-11.2
3649.523	-6.2
3652.29	-8.2
3655.055	-4.2
3657.818	-11.2
3660.579	-6.2
3663.338	-10.2
3666.095	-8.2
3668.849	-11.2
3671.602	-8.2
3674.352	-8.2
3677.101	-6.2
3679.847	-4.2
3682.591	-4.2
3685.333	-5.2
3688.073	-8.2
3690.811	-10.2
3693.547	-12.2
3696.281	-11.2
3699.013	-9.2
3701.742	-11.2
3704.47	-9.2
3707.195	-13.2
3709.919	-6.2
3712.64	-10.2
3715.359	-7.2
3718.076	-9.2
3720.792	-9.2
3723.505	-6.2
3726.216	-8.2
3728.925	-7.2
3731.632	-5.2
3734.336	-9.2
3737.039	-7.2
3739.74	-8.2
3742.439	-5.2
3745.136	-12.2
3747.83	-11.2
3750.523	-12.2
3753.213	-12.2
3755.902	-13.2
3758.589	-11.2
3761.273	-11.2
3763.956	-7.2
3766.636	-10.2
3769.315	-6.2
3771.991	-7.2
3774.665	-6.2
3777.338	-6.2
3780.008	-8.2
3782.677	-10.2
3785.343	-9.2
3788.007	-11.2
3790.67	-12.2
3793.33	-9.2
3795.989	-10.2
3798.645	-11.2
3801.299	-6.2
3803.952	-8.2
3806.602	-8.2
3809.251	-8.2
3811.897	-6.2
3814.542	-8.2
3817.184	-9.2
3819.825	-5.2
3822.463	-11.2
3825.1	-6.2
3827.735	-11.2
3830.367	-10.2
3832.998	-13.2
3835.627	-13.2
3838.253	-13.2
3840.878	-9.2
3843.501	-10.2
3846.122	-7.2
3848.741	-5.2
3851.358	-9.2
3853.973	-6.2
3856.586	-7.2
3859.197	-8.2
3861.806	-5.2
3864.414	-9.2
3867.019	-11.2
3869.622	-8.2
3872.224	-6.2
3874.823	-11.2
3877.421	-7.2
3880.016	-5.2
3882.61	-8.2
3885.202	-6.2
3887.792	-7.2
3890.38	-11.2
3892.966	-8.2
3895.55	-5.2
3898.132	-7.2
3900.713	-4.2
3903.291	-10.2
3905.868	-11.2
3908.442	-11.2
3911.015	-10.2
3913.586	-13.2
3916.155	-12.2
3918.722	-11.2
3921.287	-11.2
3923.85	-8.2
3926.411	-7.2
3928.971	-8.2
3931.528	-8.2
3934.084	-7.2
3936.638	-8.2
3939.19	-11.2
3941.74	-12.2
3944.288	-7.2
3946.834	-10.2
3949.378	-9.2
3951.921	-11.2
3954.462	-7.2
3957	-10.2
3959.537	-14.2
3962.072	-12.2
3964.606	-9.2
3967.137	-7.2
3969.667	-9.2
3972.194	-11.2
3974.72	-7.2
3977.244	-6.2
3979.766	-6.2
3982.286	-5.2
3984.805	-13.2
3987.321	-13.2
3989.836	-12.2
3992.349	-10.2
3994.86	-12.2
3997.369	-13.2
3999.877	-13.2
4002.382	-7.2
4004.886	-10.2
4007.388	-8.2
4009.888	-5.2
4012.386	-9.2
4014.883	-9.2
4017.377	-8.2
4019.87	-9.2
4022.361	-6.2
4024.85	-13.2
4027.338	-7.2
4029.823	-8.2
4032.307	-12.2
4034.789	-11.2
4037.269	-9.2
4039.747	-11.2
4042.224	-13.2
4044.699	-8.2
4047.172	-7.2
4049.643	-10.2
4052.112	-5.2
4054.58	-8.2
4057.046	-10.2
4059.51	-9.2
4061.972	-11.2
4064.432	-11.2
4066.891	-13.2
4069.348	-14.2
4071.803	-12.2
4074.256	-8.2
4076.708	-6.2
4079.158	-8.2
4081.606	-7.2
4084.052	-5.2
4086.497	-7.2
4088.939	-6.2
4091.38	-11.2
4093.819	-8.2
4096.257	-11.2
4098.693	-10.2
4101.127	-9.2
4103.559	-10.2
4105.989	-0.2
4108.418	-5.2
4110.845	-4.2
4113.27	-4.2
4115.694	-4.2
4118.115	-4.2
4120.535	-8.2
4122.954	-9.2
4125.37	-8.2
4127.785	-14.2
4130.198	-12.2
4132.609	-11.2
4135.019	-10.2
4137.427	-11.2
4139.833	-7.2
4142.237	-8.2
