Data from BAC 10^5 in Saline 2 (5ml I =1_T=5x3)_RamanShift_1.txt Node
Date: Mon May 29 15:01:45 IDT 2017
User: aro
Spectrometer: QEPB0276
Trigger mode: 0
Integration Time (sec): 5.000000E0
Scans to average: 3
Electric dark correction enabled: true
Nonlinearity correction enabled: false
Boxcar width: 0
XAxis mode: Raman Shifts
Number of Pixels in Spectrum: 1044
>>>>>Begin Spectral Data<<<<<
160.701	-40.58
166.742	3.08
172.777	121.42
178.805	500.08
184.826	1422.42
190.841	2996.08
196.849	4781.42
202.85	5978.42
208.845	6259.75
214.833	6030.75
220.815	5751.08
226.789	5549.08
232.758	5359.42
238.719	5176.42
244.674	4919.75
250.623	4709.42
256.565	4450.08
262.5	4217.75
268.429	3995.08
274.351	3798.75
280.267	3609.75
286.176	3487.42
292.079	3343.08
297.975	3207.08
303.865	3094.08
309.748	3013.42
315.625	2949.42
321.495	2882.08
327.359	2845.75
333.217	2820.75
339.068	2793.08
344.912	2777.42
350.751	2759.75
356.583	2758.42
362.408	2755.08
368.227	2761.42
374.04	2785.75
379.847	2830.75
385.647	2842.75
391.44	2837.08
397.228	2836.42
403.009	2829.42
408.784	2875.75
414.553	2949.42
420.315	3053.75
426.071	3046.42
431.821	2952.08
437.565	2866.42
443.302	2840.75
449.033	2808.42
454.758	2770.42
460.477	2766.42
466.189	2726.42
471.896	2712.75
477.596	2690.75
483.29	2665.08
488.978	2643.42
494.66	2619.42
500.335	2585.42
506.005	2523.42
511.668	2473.75
517.325	2416.42
522.977	2375.42
528.622	2341.75
534.261	2303.42
539.894	2270.42
545.521	2247.42
551.141	2228.08
556.756	2197.42
562.365	2162.75
567.968	2156.08
573.565	2138.42
579.155	2105.08
584.74	2088.42
590.319	2064.75
595.892	2047.08
601.459	2016.42
607.02	2001.42
612.575	1974.08
618.124	1947.42
623.667	1915.75
629.204	1909.08
634.735	1895.42
640.261	1889.42
645.781	1903.75
651.294	1898.08
656.802	1867.08
662.304	1816.08
667.8	1785.75
673.29	1757.75
678.775	1746.75
684.254	1730.75
689.726	1707.08
695.193	1694.75
700.655	1685.08
706.11	1651.42
711.56	1633.75
717.004	1613.08
722.442	1595.08
727.874	1573.08
733.301	1556.75
738.722	1552.08
744.137	1545.08
749.547	1525.08
754.951	1528.08
760.349	1526.42
765.741	1489.42
771.128	1480.08
776.509	1469.08
781.885	1460.75
787.254	1437.08
792.618	1432.75
797.977	1405.08
803.33	1394.42
808.677	1373.75
814.019	1346.75
819.355	1318.42
824.686	1301.75
830.011	1264.08
835.33	1265.42
840.644	1244.42
845.952	1232.42
851.255	1214.75
856.552	1204.42
861.844	1185.75
867.13	1189.08
872.41	1192.42
877.686	1204.42
882.955	1211.75
888.219	1168.75
893.478	1110.42
898.731	1052.08
903.979	1008.42
909.221	981.42
914.458	962.08
919.69	950.42
924.916	940.75
930.136	932.42
935.351	926.42
940.561	910.42
945.766	906.42
950.965	890.75
956.158	877.08
961.347	859.42
966.529	840.42
971.707	816.08
976.879	806.08
982.046	794.42
987.208	780.75
992.364	780.42
997.515	780.75
1002.66	792.08
1007.801	787.42
1012.936	798.08
1018.066	800.08
1023.19	800.08
1028.309	799.42
1033.423	800.42
1038.532	785.42
1043.636	788.08
1048.734	789.75
1053.827	784.08
1058.915	763.75
1063.998	746.42
1069.075	743.08
1074.147	738.08
1079.214	748.08
1084.276	759.75
1089.333	766.08
1094.385	771.75
1099.431	761.08
1104.472	744.42
1109.509	733.75
1114.54	725.75
1119.565	709.42
1124.586	693.42
1129.602	677.75
1134.613	675.42
1139.618	667.75
1144.619	668.42
1149.614	669.08
1154.604	665.42
1159.589	670.08
1164.57	673.08
1169.545	669.75
1174.515	669.75
1179.48	665.08
1184.44	657.42
1189.395	646.42
1194.345	646.42
1199.29	641.42
1204.23	643.08
1209.165	639.75
1214.095	654.08
1219.021	651.75
1223.941	660.08
1228.856	650.42
1233.766	660.75
1238.672	662.08
1243.572	653.42
1248.467	647.75
1253.358	638.75
1258.244	625.42
1263.124	611.42
1268	609.08
1272.871	594.08
1277.737	598.42
1282.599	594.08
1287.455	595.42
1292.306	587.75
1297.153	587.08
1301.995	589.42
1306.832	588.08
1311.664	585.42
1316.491	584.75
1321.314	574.75
1326.132	572.75
1330.945	552.42
1335.753	539.42
1340.556	532.08
1345.354	519.08
1350.148	512.08
1354.937	501.75
1359.722	507.08
1364.501	504.08
1369.276	497.08
1374.046	497.08
1378.811	511.08
1383.572	502.42
1388.327	499.75
1393.079	494.75
1397.825	487.42
1402.567	475.42
1407.304	468.42
1412.036	469.08
1416.764	467.42
1421.487	463.08
1426.205	462.08
1430.919	467.42
1435.628	478.42
1440.333	482.08
1445.032	489.08
1449.727	502.75
1454.418	510.75
1459.104	518.75
1463.785	510.42
1468.462	499.75
1473.134	476.42
1477.802	467.42
1482.465	471.42
1487.123	465.42
1491.777	470.75
1496.426	475.08
1501.071	477.75
1505.711	482.75
1510.347	494.75
1514.978	503.42
1519.604	509.08
1524.226	512.42
1528.844	518.08
1533.457	523.42
1538.065	524.75
1542.669	523.42
1547.269	529.75
1551.864	537.75
1556.454	553.42
1561.041	566.42
1565.622	580.42
1570.199	594.42
1574.772	617.08
1579.34	643.42
1583.904	661.42
1588.464	689.75
1593.019	712.08
1597.569	744.42
1602.115	770.75
1606.657	797.08
1611.195	817.75
1615.728	843.08
1620.256	873.42
1624.78	904.75
1629.3	933.08
1633.816	956.75
1638.327	975.42
1642.834	994.75
1647.336	998.75
1651.834	997.08
1656.328	987.42
1660.817	970.08
1665.302	937.08
1669.783	898.75
1674.259	858.08
1678.732	805.75
1683.199	754.42
1687.663	703.42
1692.122	653.08
1696.577	606.08
1701.028	564.75
1705.474	526.42
1709.917	495.42
1714.355	461.08
1718.788	432.42
1723.218	406.75
1727.643	373.75
1732.064	342.42
1736.481	325.08
1740.893	292.08
1745.301	273.75
1749.705	254.08
1754.105	230.08
1758.501	216.75
1762.893	200.08
1767.28	186.42
1771.663	175.75
1776.042	172.75
1780.417	162.75
1784.787	159.75
1789.154	153.75
1793.516	152.42
1797.874	147.08
1802.228	145.42
1806.578	138.42
1810.924	136.08
1815.266	129.08
1819.603	122.08
1823.937	115.08
1828.266	107.08
1832.591	104.08
1836.913	99.75
1841.23	102.08
1845.543	93.75
1849.852	98.75
1854.156	100.42
1858.457	96.75
1862.754	98.42
1867.047	94.08
1871.335	94.42
1875.62	95.42
1879.9	95.42
1884.177	97.75
1888.449	93.75
1892.718	96.42
1896.982	94.42
1901.243	93.75
1905.499	94.75
1909.752	95.08
1914	95.75
1918.245	99.75
1922.485	96.42
1926.722	102.42
1930.954	104.75
1935.183	104.75
1939.408	113.75
1943.628	110.42
1947.845	116.42
1952.058	112.08
1956.267	111.75
1960.472	108.42
1964.673	109.08
1968.87	106.75
1973.063	105.08
1977.252	102.42
1981.438	105.75
1985.619	108.42
1989.797	105.42
1993.971	109.08
1998.14	113.42
2002.306	112.42
2006.469	115.08
2010.627	117.42
2014.781	118.75
2018.932	121.42
2023.078	117.08
2027.221	123.75
2031.36	123.08
2035.495	123.42
2039.627	122.42
2043.754	122.08
2047.878	123.08
2051.998	128.08
2056.114	127.75
2060.226	127.08
2064.334	134.08
2068.439	132.08
2072.54	138.42
2076.637	145.42
2080.73	143.08
2084.82	143.42
2088.906	147.75
2092.988	143.42
2097.066	146.08
2101.14	143.42
2105.211	138.75
2109.278	136.75
2113.342	137.08
2117.401	130.42
2121.457	129.08
2125.509	133.42
2129.558	130.75
2133.602	123.75
2137.643	122.08
2141.681	116.75
2145.714	119.75
2149.744	109.08
2153.77	110.75
2157.793	104.75
2161.812	107.08
2165.827	103.75
2169.838	93.75
2173.846	89.75
2177.851	83.42
2181.851	78.42
2185.848	73.42
2189.841	70.42
2193.831	63.08
2197.817	65.75
2201.799	58.75
2205.778	58.75
2209.753	53.42
2213.725	51.75
2217.693	48.42
2221.657	45.75
2225.618	42.75
2229.575	39.75
2233.529	38.42
2237.479	36.08
2241.425	27.42
2245.368	25.42
2249.307	19.75
2253.243	18.42
2257.175	14.08
2261.104	6.75
2265.029	4.08
2268.95	3.08
2272.868	0.42
2276.783	-2.25
2280.694	-5.58
2284.601	-8.58
2288.505	-10.25
2292.405	-13.92
2296.302	-16.25
2300.195	-21.92
2304.085	-22.92
2307.971	-26.25
2311.854	-26.25
2315.734	-31.58
2319.609	-31.92
2323.482	-34.92
2327.351	-38.25
2331.216	-36.25
2335.078	-37.25
2338.937	-41.92
2342.792	-43.92
2346.643	-45.92
2350.492	-43.25
2354.336	-46.25
2358.178	-46.25
2362.015	-46.25
2365.85	-49.92
2369.681	-47.25
2373.508	-51.25
2377.333	-50.92
2381.153	-49.25
2384.971	-53.58
2388.785	-55.25
2392.595	-52.92
2396.402	-55.58
2400.206	-56.25
2404.007	-57.58
2407.804	-59.58
2411.597	-61.58
2415.388	-61.25
2419.174	-59.92
2422.958	-59.92
2426.738	-67.25
2430.515	-65.25
2434.289	-65.25
2438.059	-68.92
2441.825	-66.58
2445.589	-70.92
2449.349	-68.25
2453.106	-72.58
2456.859	-70.58
2460.61	-72.25
2464.356	-71.58
2468.1	-73.58
2471.84	-72.25
2475.577	-72.25
2479.311	-74.92
2483.041	-73.25
2486.768	-73.92
2490.492	-77.25
2494.213	-77.25
2497.93	-74.92
2501.644	-77.92
2505.355	-80.92
2509.062	-79.25
2512.766	-76.92
2516.467	-78.25
2520.165	-79.25
2523.859	-81.25
2527.551	-80.92
2531.239	-80.25
2534.923	-81.25
2538.605	-78.92
2542.283	-82.92
2545.958	-80.25
2549.63	-81.92
2553.299	-85.25
2556.964	-81.58
2560.626	-83.25
2564.285	-85.25
2567.941	-82.58
2571.594	-83.92
2575.243	-83.92
2578.89	-86.25
2582.533	-84.92
2586.173	-84.92
2589.809	-85.92
2593.443	-89.25
2597.073	-86.58
2600.701	-84.92
2604.325	-86.58
2607.946	-87.58
2611.564	-86.25
2615.178	-88.92
2618.79	-88.25
2622.398	-84.92
2626.004	-87.92
2629.606	-89.58
2633.205	-88.25
2636.801	-87.58
2640.394	-88.58
2643.983	-87.92
2647.57	-87.92
2651.153	-88.58
2654.734	-85.58
2658.311	-87.25
2661.885	-87.92
2665.456	-90.25
2669.025	-87.25
2672.589	-87.25
2676.151	-87.92
2679.71	-87.58
2683.266	-88.25
2686.819	-88.25
2690.368	-86.58
2693.915	-85.92
2697.458	-86.25
2700.999	-85.92
2704.536	-86.25
2708.071	-84.25
2711.602	-84.92
2715.13	-84.25
2718.656	-81.58
2722.178	-81.58
2725.697	-83.58
2729.214	-79.25
2732.727	-80.25
2736.237	-75.58
2739.744	-77.92
2743.249	-75.92
2746.75	-75.25
2750.248	-71.92
2753.743	-71.25
2757.236	-70.58
2760.725	-65.58
2764.211	-67.92
2767.695	-68.25
2771.175	-66.58
2774.652	-67.58
2778.127	-64.58
2781.598	-61.25
2785.067	-62.92
2788.532	-61.25
2791.995	-59.92
2795.455	-56.25
2798.911	-54.25
2802.365	-52.92
2805.816	-52.25
2809.264	-47.58
2812.709	-48.92
2816.151	-46.25
2819.59	-39.25
2823.026	-42.25
2826.46	-35.58
2829.89	-34.58
2833.318	-31.58
2836.742	-26.25
2840.164	-25.58
2843.583	-21.92
2846.999	-16.92
2850.412	-14.92
2853.822	-9.58
2857.229	-5.92
2860.634	2.42
2864.035	6.42
2867.434	6.75
2870.83	13.42
2874.223	20.75
2877.613	27.08
2881	32.75
2884.385	38.08
2887.766	44.75
2891.145	47.42
2894.521	47.75
2897.894	54.75
2901.264	53.75
2904.631	58.75
2907.996	65.42
2911.358	71.08
2914.717	75.42
2918.073	82.75
2921.426	82.75
2924.777	88.75
2928.124	106.42
2931.469	112.42
2934.811	126.08
2938.15	133.08
2941.487	138.08
2944.821	143.75
2948.152	142.75
2951.48	151.42
2954.805	156.75
2958.128	157.42
2961.447	165.75
2964.765	171.75
2968.079	176.08
2971.39	183.75
2974.699	193.08
2978.005	208.08
2981.308	220.75
2984.609	239.75
2987.907	247.42
2991.202	253.75
2994.494	270.42
2997.784	285.42
3001.07	289.42
3004.355	304.75
3007.636	310.75
3010.915	328.08
3014.191	338.75
3017.464	348.42
3020.734	361.42
3024.002	363.75
3027.267	376.08
3030.53	389.42
3033.789	405.75
3037.046	410.42
3040.301	428.42
3043.552	440.08
3046.801	462.08
3050.048	474.75
3053.291	494.75
3056.532	519.42
3059.771	542.42
3063.006	568.75
3066.239	589.75
3069.469	613.75
3072.697	634.08
3075.922	659.75
3079.144	687.42
3082.364	706.08
3085.581	720.08
3088.795	748.75
3092.007	772.42
3095.216	788.08
3098.423	821.75
3101.627	844.42
3104.828	863.08
3108.026	894.75
3111.222	912.42
3114.416	938.75
3117.607	968.42
3120.795	990.75
3123.98	1021.42
3127.163	1047.75
3130.344	1077.42
3133.521	1110.42
3136.696	1139.08
3139.869	1156.75
3143.039	1187.08
3146.206	1209.08
3149.371	1232.75
3152.533	1250.42
3155.693	1253.08
3158.85	1271.08
3162.005	1290.42
3165.157	1282.75
3168.306	1302.42
3171.453	1292.75
3174.597	1308.75
3177.739	1321.42
3180.878	1327.08
3184.014	1330.42
3187.149	1339.08
3190.28	1347.42
3193.409	1350.08
3196.536	1355.42
3199.659	1364.42
3202.781	1373.08
3205.9	1372.08
3209.016	1382.75
3212.13	1368.75
3215.241	1377.42
3218.35	1360.42
3221.456	1351.75
3224.56	1353.75
3227.661	1342.75
3230.76	1330.42
3233.856	1318.08
3236.95	1303.42
3240.041	1305.75
3243.13	1291.75
3246.216	1287.08
3249.3	1285.75
3252.382	1285.08
3255.46	1279.42
3258.537	1273.42
3261.611	1280.08
3264.682	1262.42
3267.751	1271.42
3270.818	1263.08
3273.882	1257.08
3276.943	1251.75
3280.002	1241.42
3283.059	1234.42
3286.113	1222.42
3289.165	1194.42
3292.214	1188.08
3295.261	1164.42
3298.306	1155.75
3301.348	1133.42
3304.387	1114.08
3307.425	1103.75
3310.459	1085.42
3313.492	1081.08
3316.521	1061.75
3319.549	1057.08
3322.574	1046.75
3325.597	1045.08
3328.617	1029.08
3331.635	1030.75
3334.65	1025.42
3337.663	1012.08
3340.674	1017.75
3343.682	1017.42
3346.688	1010.08
3349.691	1002.75
3352.692	1003.08
3355.691	999.42
3358.687	993.42
3361.681	988.75
3364.673	979.08
3367.662	960.42
3370.649	951.42
3373.633	935.75
3376.615	931.42
3379.595	914.42
3382.572	910.42
3385.547	896.42
3388.52	883.75
3391.49	876.75
3394.458	859.75
3397.424	855.75
3400.387	834.08
3403.348	830.75
3406.307	824.42
3409.263	815.75
3412.217	806.42
3415.168	796.08
3418.118	794.42
3421.065	789.08
3424.009	775.08
3426.951	771.08
3429.891	744.75
3432.829	738.42
3435.764	726.08
3438.697	709.08
3441.628	695.08
3444.557	680.42
3447.483	661.42
3450.407	639.42
3453.328	626.42
3456.247	610.75
3459.164	590.75
3462.079	573.08
3464.991	552.42
3467.902	537.75
3470.809	519.75
3473.715	509.42
3476.618	487.42
3479.519	481.42
3482.418	467.42
3485.315	443.75
3488.209	437.08
3491.101	424.75
3493.99	416.08
3496.878	397.75
3499.763	391.42
3502.646	378.08
3505.527	363.42
3508.405	354.75
3511.281	331.42
3514.155	321.75
3517.027	299.42
3519.897	288.08
3522.764	271.08
3525.629	262.75
3528.492	247.75
3531.352	231.42
3534.211	215.08
3537.067	200.75
3539.921	184.75
3542.773	182.08
3545.622	171.75
3548.469	163.08
3551.315	150.75
3554.157	135.75
3556.998	129.08
3559.837	119.42
3562.673	110.08
3565.507	104.75
3568.339	90.08
3571.169	87.75
3573.996	80.08
3576.822	71.08
3579.645	65.75
3582.466	58.42
3585.285	52.08
3588.101	44.42
3590.916	36.42
3593.728	30.08
3596.538	25.08
3599.346	16.08
3602.152	15.75
3604.956	8.75
3607.757	-2.58
3610.556	-5.25
3613.354	-11.92
3616.149	-15.25
3618.942	-16.92
3621.732	-23.58
3624.521	-27.25
3627.307	-33.58
3630.092	-36.25
3632.874	-40.58
3635.654	-44.25
3638.432	-48.25
3641.208	-51.25
3643.982	-56.58
3646.753	-55.92
3649.523	-62.58
3652.29	-62.58
3655.055	-65.92
3657.818	-69.58
3660.579	-74.58
3663.338	-75.58
3666.095	-79.58
3668.849	-83.58
3671.602	-83.92
3674.352	-88.58
3677.101	-90.58
3679.847	-91.92
3682.591	-96.92
3685.333	-97.25
3688.073	-100.92
3690.811	-103.92
3693.547	-102.58
3696.281	-106.92
3699.013	-107.92
3701.742	-109.58
3704.47	-111.58
3707.195	-113.25
3709.919	-112.58
3712.64	-115.58
3715.359	-117.92
3718.076	-118.25
3720.792	-118.92
3723.505	-122.58
3726.216	-121.58
3728.925	-125.92
3731.632	-124.92
3734.336	-122.58
3737.039	-125.58
3739.74	-127.92
3742.439	-128.58
3745.136	-127.25
3747.83	-129.58
3750.523	-130.25
3753.213	-127.58
3755.902	-131.25
3758.589	-131.58
3761.273	-131.92
3763.956	-133.58
3766.636	-132.25
3769.315	-133.58
3771.991	-134.25
3774.665	-132.58
3777.338	-134.25
3780.008	-135.58
3782.677	-136.25
3785.343	-137.58
3788.007	-136.25
3790.67	-136.58
3793.33	-139.58
3795.989	-138.58
3798.645	-137.58
3801.299	-138.25
3803.952	-137.58
3806.602	-138.25
3809.251	-138.92
3811.897	-137.58
3814.542	-138.92
3817.184	-139.92
3819.825	-138.25
3822.463	-138.92
3825.1	-141.58
3827.735	-140.25
3830.367	-141.25
3832.998	-141.25
3835.627	-140.58
3838.253	-137.92
3840.878	-140.58
3843.501	-141.92
3846.122	-140.25
3848.741	-140.58
3851.358	-141.25
3853.973	-141.58
3856.586	-142.58
3859.197	-141.58
3861.806	-140.92
3864.414	-139.58
3867.019	-138.25
3869.622	-137.92
3872.224	-139.25
3874.823	-135.25
3877.421	-129.92
3880.016	-123.92
3882.61	-114.92
3885.202	-111.92
3887.792	-120.58
3890.38	-128.92
3892.966	-134.25
3895.55	-142.25
3898.132	-140.92
3900.713	-144.25
3903.291	-142.58
3905.868	-140.25
3908.442	-143.92
3911.015	-142.92
3913.586	-144.58
3916.155	-144.58
3918.722	-144.92
3921.287	-144.92
3923.85	-144.92
3926.411	-143.92
3928.971	-143.58
3931.528	-142.92
3934.084	-143.58
3936.638	-145.92
3939.19	-142.92
3941.74	-143.58
3944.288	-143.58
3946.834	-146.92
3949.378	-144.25
3951.921	-144.25
3954.462	-143.58
3957	-143.58
3959.537	-143.58
3962.072	-141.92
3964.606	-143.92
3967.137	-144.92
3969.667	-141.92
3972.194	-145.25
3974.72	-142.25
3977.244	-141.58
3979.766	-143.25
3982.286	-143.58
3984.805	-143.25
3987.321	-140.25
3989.836	-142.92
3992.349	-142.58
3994.86	-141.92
3997.369	-144.92
3999.877	-142.25
4002.382	-141.58
4004.886	-141.92
4007.388	-144.58
4009.888	-142.25
4012.386	-143.58
4014.883	-141.58
4017.377	-142.58
4019.87	-142.25
4022.361	-143.92
4024.85	-142.92
4027.338	-142.92
4029.823	-143.58
4032.307	-143.25
4034.789	-141.92
4037.269	-142.25
4039.747	-142.58
4042.224	-143.92
4044.699	-145.25
4047.172	-143.25
4049.643	-142.58
4052.112	-142.58
4054.58	-141.58
4057.046	-143.25
4059.51	-144.58
4061.972	-142.25
4064.432	-141.58
4066.891	-141.58
4069.348	-140.25
4071.803	-140.92
4074.256	-140.25
4076.708	-140.92
4079.158	-141.92
4081.606	-143.92
4084.052	-142.25
4086.497	-140.58
4088.939	-142.58
4091.38	-142.25
4093.819	-141.58
4096.257	-147.58
4098.693	-147.58
4101.127	-149.92
4103.559	-149.25
4105.989	-87.58
4108.418	-86.25
4110.845	-81.92
4113.27	-75.58
4115.694	-71.92
4118.115	-58.25
4120.535	-141.25
4122.954	-141.25
4125.37	-141.92
4127.785	-142.92
4130.198	-141.25
4132.609	-141.58
4135.019	-145.25
4137.427	-146.25
4139.833	-147.25
4142.237	-145.25
