Data from bac10^8 in water 1_I=1_T=5x3_3ml_RamanShift_1.txt Node
Date: Mon May 29 13:39:50 IDT 2017
User: aro
Spectrometer: QEPB0276
Trigger mode: 0
Integration Time (sec): 5.000000E0
Scans to average: 3
Electric dark correction enabled: true
Nonlinearity correction enabled: false
Boxcar width: 0
XAxis mode: Raman Shifts
Number of Pixels in Spectrum: 1044
>>>>>Begin Spectral Data<<<<<
160.701	-7.21
166.742	3.79
172.777	32.46
178.805	133.12
184.826	368.79
190.841	757.12
196.849	1196.12
202.85	1479.79
208.845	1554.46
214.833	1512.46
220.815	1462.46
226.789	1407.79
232.758	1374.46
238.719	1344.79
244.674	1285.12
250.623	1238.46
256.565	1192.12
262.5	1136.12
268.429	1093.12
274.351	1054.46
280.267	1020.79
286.176	990.79
292.079	967.46
297.975	942.12
303.865	920.79
309.748	904.12
315.625	891.46
321.495	879.12
327.359	870.79
333.217	865.46
339.068	862.46
344.912	866.46
350.751	863.79
356.583	862.12
362.408	863.46
368.227	873.79
374.04	890.79
379.847	913.12
385.647	925.12
391.44	919.79
397.228	906.12
403.009	908.12
408.784	941.46
414.553	1006.46
420.315	1088.46
426.071	1084.12
431.821	1007.12
437.565	941.46
443.302	919.79
449.033	908.46
454.758	890.46
460.477	885.79
466.189	876.79
471.896	865.46
477.596	855.46
483.29	860.46
488.978	849.46
494.66	836.46
500.335	822.46
506.005	790.12
511.668	758.79
517.325	735.12
522.977	707.79
528.622	693.79
534.261	677.12
539.894	668.79
545.521	652.12
551.141	655.46
556.756	639.46
562.365	635.79
567.968	630.46
573.565	619.79
579.155	618.79
584.74	615.46
590.319	612.46
595.892	601.46
601.459	599.12
607.02	591.79
612.575	595.79
618.124	575.46
623.667	569.79
629.204	566.12
634.735	568.12
640.261	583.46
645.781	595.79
651.294	609.79
656.802	584.12
662.304	555.12
667.8	536.46
673.29	529.12
678.775	523.79
684.254	517.79
689.726	511.79
695.193	507.46
700.655	501.12
706.11	496.79
711.56	494.12
717.004	497.12
722.442	486.79
727.874	483.12
733.301	487.79
738.722	478.79
744.137	481.46
749.547	483.46
754.951	491.12
760.349	479.12
765.741	475.12
771.128	470.46
776.509	473.12
781.885	470.12
787.254	472.12
792.618	469.79
797.977	462.46
803.33	455.46
808.677	455.46
814.019	447.79
819.355	436.79
824.686	430.12
830.011	428.12
835.33	425.46
840.644	418.12
845.952	412.79
851.255	406.46
856.552	401.79
861.844	394.12
867.13	387.46
872.41	388.12
877.686	383.79
882.955	380.12
888.219	368.46
893.478	360.46
898.731	345.79
903.979	341.79
909.221	337.46
914.458	332.46
919.69	332.79
924.916	328.46
930.136	328.12
935.351	323.12
940.561	318.46
945.766	319.46
950.965	316.46
956.158	310.12
961.347	304.79
966.529	302.79
971.707	296.46
976.879	287.46
982.046	287.46
987.208	282.79
992.364	286.12
997.515	285.79
1002.66	280.12
1007.801	287.12
1012.936	289.46
1018.066	290.12
1023.19	296.12
1028.309	291.46
1033.423	294.12
1038.532	284.12
1043.636	286.79
1048.734	290.46
1053.827	282.46
1058.915	280.12
1063.998	280.12
1069.075	274.46
1074.147	272.12
1079.214	274.79
1084.276	274.46
1089.333	275.12
1094.385	274.79
1099.431	280.12
1104.472	274.46
1109.509	270.12
1114.54	264.46
1119.565	261.12
1124.586	253.46
1129.602	250.12
1134.613	248.12
1139.618	244.12
1144.619	248.46
1149.614	248.79
1154.604	254.12
1159.589	251.12
1164.57	250.79
1169.545	250.79
1174.515	255.12
1179.48	247.12
1184.44	246.46
1189.395	246.12
1194.345	245.79
1199.29	245.12
1204.23	241.12
1209.165	240.79
1214.095	247.12
1219.021	243.46
1223.941	247.46
1228.856	246.46
1233.766	245.46
1238.672	244.46
1243.572	240.79
1248.467	239.79
1253.358	234.46
1258.244	229.12
1263.124	227.79
1268	220.12
1272.871	223.12
1277.737	216.12
1282.599	217.79
1287.455	215.46
1292.306	216.79
1297.153	215.12
1301.995	220.79
1306.832	222.12
1311.664	223.12
1316.491	216.79
1321.314	215.12
1326.132	210.12
1330.945	207.79
1335.753	200.46
1340.556	196.79
1345.354	192.46
1350.148	192.79
1354.937	191.46
1359.722	189.12
1364.501	189.79
1369.276	190.46
1374.046	193.46
1378.811	192.46
1383.572	194.12
1388.327	187.46
1393.079	190.79
1397.825	182.79
1402.567	182.46
1407.304	179.79
1412.036	173.46
1416.764	175.79
1421.487	171.12
1426.205	175.12
1430.919	176.79
1435.628	179.79
1440.333	181.46
1445.032	183.12
1449.727	185.46
1454.418	184.46
1459.104	184.12
1463.785	180.46
1468.462	180.46
1473.134	176.79
1477.802	174.46
1482.465	171.46
1487.123	171.12
1491.777	175.79
1496.426	176.79
1501.071	183.79
1505.711	182.46
1510.347	182.46
1514.978	184.12
1519.604	192.12
1524.226	189.46
1528.844	189.46
1533.457	191.46
1538.065	195.12
1542.669	190.79
1547.269	188.46
1551.864	193.46
1556.454	194.12
1561.041	192.12
1565.622	199.79
1570.199	201.79
1574.772	208.79
1579.34	216.46
1583.904	224.12
1588.464	231.46
1593.019	230.79
1597.569	240.12
1602.115	243.46
1606.657	253.79
1611.195	256.79
1615.728	263.46
1620.256	261.79
1624.78	273.79
1629.3	276.12
1633.816	284.46
1638.327	292.12
1642.834	291.46
1647.336	300.46
1651.834	292.46
1656.328	290.46
1660.817	288.46
1665.302	281.12
1669.783	272.46
1674.259	260.12
1678.732	249.79
1683.199	237.12
1687.663	221.46
1692.122	207.79
1696.577	199.46
1701.028	188.46
1705.474	179.12
1709.917	174.46
1714.355	164.46
1718.788	157.79
1723.218	147.46
1727.643	141.46
1732.064	133.46
1736.481	121.12
1740.893	118.12
1745.301	112.79
1749.705	103.79
1754.105	99.46
1758.501	94.79
1762.893	88.12
1767.28	87.79
1771.663	81.79
1776.042	80.79
1780.417	79.46
1784.787	80.12
1789.154	75.46
1793.516	75.46
1797.874	74.46
1802.228	74.46
1806.578	72.79
1810.924	74.12
1815.266	71.12
1819.603	66.79
1823.937	66.79
1828.266	62.79
1832.591	60.46
1836.913	57.79
1841.23	59.79
1845.543	58.12
1849.852	59.12
1854.156	58.12
1858.457	56.12
1862.754	56.46
1867.047	54.79
1871.335	58.79
1875.62	56.12
1879.9	55.46
1884.177	57.12
1888.449	56.79
1892.718	56.79
1896.982	55.79
1901.243	56.12
1905.499	55.79
1909.752	55.12
1914	54.12
1918.245	59.79
1922.485	59.12
1926.722	61.12
1930.954	60.12
1935.183	63.12
1939.408	61.46
1943.628	63.79
1947.845	63.12
1952.058	63.46
1956.267	59.79
1960.472	61.12
1964.673	57.79
1968.87	58.79
1973.063	58.46
1977.252	55.79
1981.438	54.12
1985.619	55.46
1989.797	57.46
1993.971	55.79
1998.14	56.79
2002.306	58.46
2006.469	55.46
2010.627	54.79
2014.781	60.79
2018.932	56.79
2023.078	55.46
2027.221	57.12
2031.36	54.12
2035.495	55.46
2039.627	58.79
2043.754	56.46
2047.878	57.79
2051.998	55.79
2056.114	55.46
2060.226	57.46
2064.334	59.12
2068.439	56.12
2072.54	62.12
2076.637	62.12
2080.73	62.12
2084.82	62.46
2088.906	64.12
2092.988	63.12
2097.066	58.79
2101.14	58.46
2105.211	62.79
2109.278	61.46
2113.342	59.46
2117.401	55.46
2121.457	53.46
2125.509	54.12
2129.558	58.46
2133.602	51.46
2137.643	53.79
2141.681	52.12
2145.714	51.79
2149.744	52.12
2153.77	49.12
2157.793	50.79
2161.812	46.46
2165.827	44.12
2169.838	43.46
2173.846	40.12
2177.851	41.46
2181.851	38.46
2185.848	37.12
2189.841	36.46
2193.831	35.46
2197.817	33.46
2201.799	29.79
2205.778	34.12
2209.753	33.12
2213.725	31.46
2217.693	31.46
2221.657	31.79
2225.618	28.79
2229.575	26.46
2233.529	27.79
2237.479	26.79
2241.425	24.12
2245.368	23.12
2249.307	19.46
2253.243	23.79
2257.175	19.79
2261.104	18.79
2265.029	19.12
2268.95	13.79
2272.868	16.12
2276.783	15.12
2280.694	16.12
2284.601	13.12
2288.505	10.79
2292.405	10.46
2296.302	10.79
2300.195	8.79
2304.085	8.79
2307.971	7.46
2311.854	7.46
2315.734	7.79
2319.609	4.46
2323.482	5.12
2327.351	3.79
2331.216	4.46
2335.078	3.46
2338.937	1.12
2342.792	2.46
2346.643	0.46
2350.492	0.12
2354.336	0.46
2358.178	-1.54
2362.015	1.46
2365.85	1.46
2369.681	2.12
2373.508	-0.88
2377.333	1.79
2381.153	0.46
2384.971	-1.88
2388.785	-2.88
2392.595	-1.54
2396.402	-2.54
2400.206	-0.21
2404.007	-4.88
2407.804	-4.21
2411.597	-8.21
2415.388	-4.88
2419.174	-4.54
2422.958	-6.21
2426.738	-6.54
2430.515	-6.54
2434.289	-6.88
2438.059	-7.21
2441.825	-5.21
2445.589	-7.88
2449.349	-7.88
2453.106	-7.54
2456.859	-9.88
2460.61	-10.88
2464.356	-8.21
2468.1	-10.88
2471.84	-6.88
2475.577	-8.54
2479.311	-11.54
2483.041	-11.54
2486.768	-11.54
2490.492	-11.88
2494.213	-13.88
2497.93	-9.54
2501.644	-11.54
2505.355	-11.54
2509.062	-12.21
2512.766	-10.88
2516.467	-13.21
2520.165	-14.54
2523.859	-13.21
2527.551	-12.21
2531.239	-13.21
2534.923	-13.21
2538.605	-12.88
2542.283	-13.88
2545.958	-10.88
2549.63	-10.54
2553.299	-15.21
2556.964	-11.21
2560.626	-14.54
2564.285	-13.88
2567.941	-13.88
2571.594	-14.88
2575.243	-14.88
2578.89	-14.54
2582.533	-14.21
2586.173	-14.21
2589.809	-16.21
2593.443	-16.54
2597.073	-16.88
2600.701	-16.88
2604.325	-15.54
2607.946	-16.54
2611.564	-15.88
2615.178	-17.21
2618.79	-17.21
2622.398	-15.88
2626.004	-13.88
2629.606	-16.21
2633.205	-14.21
2636.801	-15.88
2640.394	-17.54
2643.983	-14.88
2647.57	-14.54
2651.153	-18.88
2654.734	-13.88
2658.311	-16.54
2661.885	-16.54
2665.456	-18.21
2669.025	-17.21
2672.589	-16.88
2676.151	-17.88
2679.71	-17.54
2683.266	-17.88
2686.819	-18.21
2690.368	-16.88
2693.915	-16.21
2697.458	-17.21
2700.999	-16.54
2704.536	-14.21
2708.071	-17.54
2711.602	-16.21
2715.13	-17.88
2718.656	-15.54
2722.178	-14.54
2725.697	-13.54
2729.214	-17.54
2732.727	-14.88
2736.237	-15.88
2739.744	-14.21
2743.249	-16.21
2746.75	-13.88
2750.248	-12.21
2753.743	-14.88
2757.236	-13.21
2760.725	-12.88
2764.211	-11.21
2767.695	-12.54
2771.175	-11.54
2774.652	-12.88
2778.127	-11.88
2781.598	-11.88
2785.067	-10.54
2788.532	-11.88
2791.995	-11.21
2795.455	-10.21
2798.911	-11.21
2802.365	-8.54
2805.816	-10.54
2809.264	-7.54
2812.709	-7.54
2816.151	-6.54
2819.59	-3.54
2823.026	-8.88
2826.46	-3.54
2829.89	-4.21
2833.318	-3.21
2836.742	-2.88
2840.164	-1.21
2843.583	-1.88
2846.999	-0.88
2850.412	-0.21
2853.822	4.12
2857.229	3.79
2860.634	9.79
2864.035	4.79
2867.434	7.12
2870.83	7.12
2874.223	7.46
2877.613	12.79
2881	13.46
2884.385	12.79
2887.766	13.79
2891.145	13.46
2894.521	16.46
2897.894	17.12
2901.264	15.46
2904.631	17.12
2907.996	19.79
2911.358	21.46
2914.717	22.46
2918.073	24.12
2921.426	25.79
2924.777	25.79
2928.124	28.79
2931.469	34.46
2934.811	37.12
2938.15	34.79
2941.487	37.12
2944.821	41.46
2948.152	41.46
2951.48	45.79
2954.805	46.79
2958.128	46.79
2961.447	51.79
2964.765	53.12
2968.079	51.46
2971.39	54.46
2974.699	58.12
2978.005	63.79
2981.308	66.79
2984.609	69.79
2987.907	72.79
2991.202	76.12
2994.494	79.12
2997.784	82.46
3001.07	86.46
3004.355	89.79
3007.636	96.46
3010.915	96.46
3014.191	102.79
3017.464	105.46
3020.734	109.46
3024.002	110.79
3027.267	117.46
3030.53	118.46
3033.789	119.12
3037.046	122.12
3040.301	129.12
3043.552	131.46
3046.801	142.79
3050.048	141.79
3053.291	150.46
3056.532	153.79
3059.771	159.46
3063.006	171.46
3066.239	179.46
3069.469	180.46
3072.697	191.79
3075.922	197.46
3079.144	203.79
3082.364	208.12
3085.581	210.12
3088.795	223.79
3092.007	226.12
3095.216	233.79
3098.423	239.79
3101.627	249.12
3104.828	253.46
3108.026	260.12
3111.222	264.46
3114.416	274.12
3117.607	284.46
3120.795	293.79
3123.98	303.46
3127.163	314.79
3130.344	316.79
3133.521	323.12
3136.696	335.12
3139.869	339.46
3143.039	348.79
3146.206	355.79
3149.371	362.12
3152.533	365.12
3155.693	367.79
3158.85	373.79
3162.005	375.79
3165.157	374.12
3168.306	376.12
3171.453	380.12
3174.597	380.79
3177.739	384.46
3180.878	381.46
3184.014	389.79
3187.149	387.46
3190.28	392.46
3193.409	387.79
3196.536	394.12
3199.659	401.46
3202.781	399.12
3205.9	395.46
3209.016	399.12
3212.13	399.79
3215.241	398.46
3218.35	392.46
3221.456	393.79
3224.56	385.12
3227.661	388.46
3230.76	378.79
3233.856	379.12
3236.95	379.12
3240.041	378.46
3243.13	377.46
3246.216	371.79
3249.3	370.12
3252.382	377.12
3255.46	369.79
3258.537	366.79
3261.611	370.79
3264.682	367.12
3267.751	366.46
3270.818	372.12
3273.882	370.46
3276.943	360.79
3280.002	361.46
3283.059	356.79
3286.113	352.46
3289.165	349.46
3292.214	342.79
3295.261	339.12
3298.306	327.79
3301.348	329.12
3304.387	327.46
3307.425	319.79
3310.459	312.79
3313.492	311.79
3316.521	305.46
3319.549	307.79
3322.574	301.12
3325.597	299.12
3328.617	300.79
3331.635	294.46
3334.65	293.12
3337.663	295.12
3340.674	295.46
3343.682	288.46
3346.688	292.12
3349.691	293.12
3352.692	289.46
3355.691	288.46
3358.687	282.12
3361.681	280.79
3364.673	276.79
3367.662	278.79
3370.649	270.46
3373.633	268.46
3376.615	265.79
3379.595	265.12
3382.572	259.46
3385.547	258.12
3388.52	252.12
3391.49	248.12
3394.458	242.46
3397.424	244.79
3400.387	237.46
3403.348	242.12
3406.307	238.46
3409.263	234.79
3412.217	230.46
3415.168	229.79
3418.118	227.46
3421.065	220.12
3424.009	222.46
3426.951	219.12
3429.891	210.79
3432.829	211.12
3435.764	209.12
3438.697	201.12
3441.628	202.12
3444.557	197.12
3447.483	191.79
3450.407	183.79
3453.328	178.79
3456.247	168.46
3459.164	171.46
3462.079	164.46
3464.991	159.46
3467.902	154.46
3470.809	147.46
3473.715	146.46
3476.618	140.12
3479.519	134.46
3482.418	134.79
3485.315	129.12
3488.209	127.46
3491.101	124.12
3493.99	119.12
3496.878	118.79
3499.763	113.46
3502.646	107.12
3505.527	106.79
3508.405	103.12
3511.281	98.12
3514.155	95.12
3517.027	87.46
3519.897	84.46
3522.764	79.12
3525.629	74.46
3528.492	74.46
3531.352	66.79
3534.211	67.79
3537.067	57.46
3539.921	58.12
3542.773	51.46
3545.622	52.12
3548.469	49.46
3551.315	45.79
3554.157	44.79
3556.998	37.79
3559.837	37.46
3562.673	36.79
3565.507	35.12
3568.339	29.46
3571.169	30.79
3573.996	25.12
3576.822	23.46
3579.645	22.79
3582.466	21.12
3585.285	17.46
3588.101	14.12
3590.916	15.12
3593.728	8.46
3596.538	8.79
3599.346	8.46
3602.152	7.46
3604.956	3.46
3607.757	3.46
3610.556	3.12
3613.354	0.12
3616.149	-1.21
3618.942	-0.88
3621.732	-4.88
3624.521	-6.21
3627.307	-6.54
3630.092	-6.88
3632.874	-7.54
3635.654	-10.21
3638.432	-8.88
3641.208	-13.21
3643.982	-12.21
3646.753	-12.88
3649.523	-14.88
3652.29	-13.21
3655.055	-16.88
3657.818	-18.21
3660.579	-19.21
3663.338	-18.21
3666.095	-20.21
3668.849	-20.88
3671.602	-20.88
3674.352	-24.21
3677.101	-23.54
3679.847	-23.21
3682.591	-24.54
3685.333	-25.54
3688.073	-26.88
3690.811	-28.54
3693.547	-26.88
3696.281	-26.88
3699.013	-29.21
3701.742	-30.54
3704.47	-30.54
3707.195	-32.21
3709.919	-31.54
3712.64	-31.88
3715.359	-31.54
3718.076	-33.21
3720.792	-32.88
3723.505	-34.21
3726.216	-32.21
3728.925	-35.88
3731.632	-34.21
3734.336	-34.21
3737.039	-32.54
3739.74	-33.88
3742.439	-34.88
3745.136	-36.88
3747.83	-36.54
3750.523	-37.54
3753.213	-35.88
3755.902	-36.21
3758.589	-37.54
3761.273	-36.88
3763.956	-37.21
3766.636	-34.88
3769.315	-36.88
3771.991	-36.54
3774.665	-36.21
3777.338	-38.21
3780.008	-37.88
3782.677	-37.54
3785.343	-39.21
3788.007	-37.21
3790.67	-37.88
3793.33	-37.88
3795.989	-39.21
3798.645	-36.88
3801.299	-39.54
3803.952	-37.54
3806.602	-38.54
3809.251	-36.54
3811.897	-38.54
3814.542	-37.54
3817.184	-37.21
3819.825	-35.88
3822.463	-39.21
3825.1	-39.54
3827.735	-38.21
3830.367	-37.21
3832.998	-39.21
3835.627	-36.88
3838.253	-38.88
3840.878	-37.21
3843.501	-38.54
3846.122	-37.54
3848.741	-38.21
3851.358	-36.88
3853.973	-38.88
3856.586	-37.21
3859.197	-38.54
3861.806	-36.21
3864.414	-36.88
3867.019	-36.54
3869.622	-34.54
3872.224	-35.88
3874.823	-33.54
3877.421	-31.21
3880.016	-26.21
3882.61	-20.88
3885.202	-18.88
3887.792	-24.54
3890.38	-27.54
3892.966	-32.21
3895.55	-37.88
3898.132	-36.88
3900.713	-39.54
3903.291	-37.54
3905.868	-36.54
3908.442	-38.88
3911.015	-37.88
3913.586	-39.21
3916.155	-39.88
3918.722	-39.88
3921.287	-38.54
3923.85	-40.88
3926.411	-39.54
3928.971	-38.54
3931.528	-37.88
3934.084	-38.88
3936.638	-40.21
3939.19	-39.88
3941.74	-38.21
3944.288	-40.21
3946.834	-41.54
3949.378	-38.88
3951.921	-39.88
3954.462	-38.88
3957	-40.21
3959.537	-38.21
3962.072	-39.21
3964.606	-38.88
3967.137	-41.54
3969.667	-40.21
3972.194	-40.88
3974.72	-39.88
3977.244	-39.88
3979.766	-39.54
3982.286	-42.21
3984.805	-38.88
3987.321	-40.54
3989.836	-39.88
3992.349	-40.54
3994.86	-38.88
3997.369	-39.88
3999.877	-39.21
4002.382	-40.54
4004.886	-39.54
4007.388	-44.21
4009.888	-38.21
4012.386	-38.88
4014.883	-38.54
4017.377	-41.21
4019.87	-41.88
4022.361	-40.21
4024.85	-39.88
4027.338	-39.21
4029.823	-40.21
4032.307	-40.21
4034.789	-38.21
4037.269	-38.54
4039.747	-39.88
4042.224	-41.88
4044.699	-42.54
4047.172	-39.54
4049.643	-41.21
4052.112	-38.54
4054.58	-39.21
4057.046	-39.88
4059.51	-40.54
4061.972	-39.88
4064.432	-39.21
4066.891	-37.88
4069.348	-38.88
4071.803	-39.21
4074.256	-38.54
4076.708	-38.54
4079.158	-39.88
4081.606	-43.21
4084.052	-40.54
4086.497	-38.88
4088.939	-39.88
4091.38	-39.21
4093.819	-38.54
4096.257	-40.21
4098.693	-40.88
4101.127	-43.21
4103.559	-41.88
4105.989	-18.21
4108.418	-17.88
4110.845	-19.21
4113.27	-15.54
4115.694	-16.21
4118.115	-10.88
4120.535	-38.54
4122.954	-38.88
4125.37	-38.88
4127.785	-39.21
4130.198	-38.21
4132.609	-39.21
4135.019	-40.54
4137.427	-40.88
4139.833	-40.88
4142.237	-39.88
