Data from bac10^5 in water 1_I=1_T=5x3_3ml_RamanShift_1.txt Node
Date: Mon May 29 13:32:12 IDT 2017
User: aro
Spectrometer: QEPB0276
Trigger mode: 0
Integration Time (sec): 5.000000E0
Scans to average: 3
Electric dark correction enabled: true
Nonlinearity correction enabled: false
Boxcar width: 0
XAxis mode: Raman Shifts
Number of Pixels in Spectrum: 1044
>>>>>Begin Spectral Data<<<<<
160.701	-39.29
166.742	2.04
172.777	123.04
178.805	511.04
184.826	1459.04
190.841	3065.38
196.849	4872.04
202.85	6069.71
208.845	6349.71
214.833	6148.38
220.815	5851.04
226.789	5652.38
232.758	5464.38
238.719	5264.04
244.674	5020.04
250.623	4759.38
256.565	4499.38
262.5	4264.38
268.429	4041.71
274.351	3846.37
280.267	3667.71
286.176	3500.37
292.079	3361.71
297.975	3228.04
303.865	3122.04
309.748	3028.04
315.625	2950.38
321.495	2895.38
327.359	2833.37
333.217	2809.38
339.068	2790.71
344.912	2781.04
350.751	2772.38
356.583	2755.38
362.408	2753.04
368.227	2744.04
374.04	2779.04
379.847	2803.04
385.647	2822.71
391.44	2824.38
397.228	2813.38
403.009	2814.04
408.784	2855.71
414.553	2937.04
420.315	3046.71
426.071	3025.71
431.821	2937.38
437.565	2838.37
443.302	2803.38
449.033	2785.71
454.758	2771.04
460.477	2736.38
466.189	2732.04
471.896	2694.04
477.596	2665.71
483.29	2652.04
488.978	2631.71
494.66	2601.71
500.335	2559.04
506.005	2528.04
511.668	2459.71
517.325	2416.38
522.977	2364.71
528.622	2326.71
534.261	2283.71
539.894	2266.71
545.521	2243.38
551.141	2211.71
556.756	2183.04
562.365	2179.38
567.968	2141.37
573.565	2114.38
579.155	2107.04
584.74	2082.38
590.319	2057.04
595.892	2033.38
601.459	2020.04
607.02	1991.38
612.575	1971.04
618.124	1938.04
623.667	1910.71
629.204	1909.04
634.735	1886.38
640.261	1881.04
645.781	1898.71
651.294	1896.71
656.802	1851.04
662.304	1815.71
667.8	1790.71
673.29	1770.04
678.775	1753.38
684.254	1739.71
689.726	1707.04
695.193	1698.04
700.655	1673.04
706.11	1663.04
711.56	1641.04
717.004	1626.38
722.442	1608.71
727.874	1580.38
733.301	1574.38
738.722	1562.71
744.137	1560.38
749.547	1551.71
754.951	1541.38
760.349	1530.71
765.741	1513.04
771.128	1496.71
776.509	1489.04
781.885	1487.71
787.254	1455.71
792.618	1455.71
797.977	1429.71
803.33	1404.38
808.677	1392.38
814.019	1372.04
819.355	1348.04
824.686	1325.38
830.011	1304.04
835.33	1286.71
840.644	1278.38
845.952	1260.04
851.255	1242.04
856.552	1223.71
861.844	1201.71
867.13	1185.38
872.41	1183.71
877.686	1172.04
882.955	1144.04
888.219	1118.04
893.478	1079.38
898.731	1038.71
903.979	1025.04
909.221	1000.04
914.458	989.04
919.69	976.04
924.916	969.04
930.136	949.38
935.351	943.04
940.561	923.04
945.766	920.71
950.965	916.38
956.158	901.04
961.347	882.71
966.529	861.38
971.707	838.38
976.879	827.71
982.046	807.38
987.208	798.38
992.364	796.04
997.515	806.38
1002.66	804.38
1007.801	796.71
1012.936	802.38
1018.066	806.04
1023.19	806.38
1028.309	806.71
1033.423	807.04
1038.532	796.71
1043.636	797.04
1048.734	779.38
1053.827	764.71
1058.915	762.71
1063.998	754.04
1069.075	746.38
1074.147	744.71
1079.214	744.04
1084.276	752.71
1089.333	751.38
1094.385	751.71
1099.431	755.38
1104.472	749.04
1109.509	737.71
1114.54	726.38
1119.565	712.71
1124.586	698.04
1129.602	688.04
1134.613	689.38
1139.618	684.38
1144.619	686.04
1149.614	687.71
1154.604	682.38
1159.589	696.04
1164.57	683.71
1169.545	685.38
1174.515	689.38
1179.48	676.38
1184.44	668.38
1189.395	673.38
1194.345	671.04
1199.29	658.38
1204.23	658.38
1209.165	661.38
1214.095	669.04
1219.021	665.04
1223.941	673.04
1228.856	684.38
1233.766	674.71
1238.672	671.38
1243.572	672.04
1248.467	663.71
1253.358	645.71
1258.244	637.71
1263.124	629.71
1268	614.71
1272.871	603.04
1277.737	606.38
1282.599	599.04
1287.455	594.71
1292.306	602.04
1297.153	608.71
1301.995	604.04
1306.832	606.38
1311.664	606.38
1316.491	598.71
1321.314	593.71
1326.132	584.04
1330.945	570.38
1335.753	556.04
1340.556	549.04
1345.354	534.04
1350.148	528.38
1354.937	524.38
1359.722	513.38
1364.501	515.04
1369.276	521.38
1374.046	518.38
1378.811	523.71
1383.572	514.38
1388.327	510.04
1393.079	511.38
1397.825	499.71
1402.567	490.38
1407.304	479.04
1412.036	475.71
1416.764	471.04
1421.487	474.71
1426.205	475.71
1430.919	479.04
1435.628	479.04
1440.333	488.71
1445.032	490.38
1449.727	497.38
1454.418	498.04
1459.104	501.38
1463.785	496.38
1468.462	483.04
1473.134	470.38
1477.802	472.71
1482.465	472.04
1487.123	467.38
1491.777	477.04
1496.426	483.38
1501.071	494.71
1505.711	508.38
1510.347	506.38
1514.978	518.38
1519.604	531.38
1524.226	538.71
1528.844	537.71
1533.457	537.71
1538.065	551.04
1542.669	548.71
1547.269	548.38
1551.864	565.04
1556.454	574.38
1561.041	591.71
1565.622	597.38
1570.199	617.71
1574.772	643.04
1579.34	663.38
1583.904	696.71
1588.464	725.71
1593.019	747.04
1597.569	767.71
1602.115	797.04
1606.657	822.38
1611.195	846.71
1615.728	876.38
1620.256	908.71
1624.78	930.04
1629.3	963.38
1633.816	981.71
1638.327	998.04
1642.834	1023.38
1647.336	1032.71
1651.834	1024.71
1656.328	1007.04
1660.817	986.38
1665.302	952.38
1669.783	912.04
1674.259	879.38
1678.732	823.04
1683.199	768.04
1687.663	717.38
1692.122	672.71
1696.577	624.38
1701.028	582.71
1705.474	550.71
1709.917	508.71
1714.355	477.04
1718.788	448.04
1723.218	413.71
1727.643	387.38
1732.064	356.38
1736.481	330.71
1740.893	303.04
1745.301	281.38
1749.705	260.04
1754.105	240.71
1758.501	228.04
1762.893	209.71
1767.28	192.71
1771.663	187.04
1776.042	173.71
1780.417	169.71
1784.787	165.04
1789.154	167.71
1793.516	159.04
1797.874	160.38
1802.228	159.04
1806.578	145.38
1810.924	145.04
1815.266	138.38
1819.603	127.71
1823.937	123.38
1828.266	114.04
1832.591	112.71
1836.913	107.04
1841.23	105.71
1845.543	106.71
1849.852	101.71
1854.156	100.04
1858.457	100.38
1862.754	98.38
1867.047	105.04
1871.335	101.38
1875.62	100.71
1879.9	101.04
1884.177	102.71
1888.449	101.38
1892.718	101.38
1896.982	102.04
1901.243	99.71
1905.499	101.71
1909.752	100.04
1914	100.38
1918.245	106.71
1922.485	106.38
1926.722	110.71
1930.954	107.71
1935.183	118.38
1939.408	115.04
1943.628	118.71
1947.845	118.71
1952.058	123.04
1956.267	116.04
1960.472	118.04
1964.673	117.04
1968.87	110.38
1973.063	112.38
1977.252	111.38
1981.438	108.04
1985.619	111.04
1989.797	111.04
1993.971	115.38
1998.14	112.38
2002.306	118.04
2006.469	121.71
2010.627	122.38
2014.781	123.04
2018.932	124.71
2023.078	123.04
2027.221	128.38
2031.36	126.04
2035.495	125.38
2039.627	126.71
2043.754	125.71
2047.878	126.71
2051.998	126.71
2056.114	128.71
2060.226	130.04
2064.334	135.38
2068.439	136.38
2072.54	141.71
2076.637	144.71
2080.73	149.04
2084.82	152.04
2088.906	153.71
2092.988	151.71
2097.066	150.04
2101.14	149.71
2105.211	145.38
2109.278	145.04
2113.342	143.04
2117.401	140.71
2121.457	134.71
2125.509	137.38
2129.558	136.04
2133.602	134.38
2137.643	126.71
2141.681	128.04
2145.714	121.04
2149.744	116.38
2153.77	114.38
2157.793	110.04
2161.812	109.38
2165.827	106.38
2169.838	100.71
2173.846	91.71
2177.851	90.04
2181.851	86.04
2185.848	76.38
2189.841	73.04
2193.831	69.38
2197.817	67.38
2201.799	64.38
2205.778	63.38
2209.753	57.71
2213.725	55.38
2217.693	51.04
2221.657	50.04
2225.618	47.71
2229.575	43.71
2233.529	43.04
2237.479	40.04
2241.425	35.04
2245.368	28.04
2249.307	27.04
2253.243	22.38
2257.175	14.38
2261.104	11.71
2265.029	7.71
2268.95	5.04
2272.868	2.71
2276.783	-0.62
2280.694	-2.96
2284.601	-8.29
2288.505	-8.96
2292.405	-13.29
2296.302	-13.62
2300.195	-18.62
2304.085	-20.29
2307.971	-24.62
2311.854	-21.62
2315.734	-24.29
2319.609	-32.29
2323.482	-34.96
2327.351	-33.29
2331.216	-32.96
2335.078	-35.29
2338.937	-38.96
2342.792	-40.29
2346.643	-43.62
2350.492	-41.96
2354.336	-45.62
2358.178	-45.29
2362.015	-46.29
2365.85	-43.62
2369.681	-46.62
2373.508	-48.96
2377.333	-47.62
2381.153	-48.96
2384.971	-51.62
2388.785	-50.96
2392.595	-55.29
2396.402	-51.96
2400.206	-55.96
2404.007	-59.96
2407.804	-57.96
2411.597	-60.96
2415.388	-61.29
2419.174	-61.29
2422.958	-59.96
2426.738	-63.62
2430.515	-63.62
2434.289	-65.62
2438.059	-67.96
2441.825	-61.96
2445.589	-67.29
2449.349	-66.29
2453.106	-68.96
2456.859	-69.29
2460.61	-71.96
2464.356	-71.96
2468.1	-73.96
2471.84	-73.62
2475.577	-73.96
2479.311	-74.96
2483.041	-73.29
2486.768	-75.62
2490.492	-77.29
2494.213	-78.96
2497.93	-74.29
2501.644	-74.96
2505.355	-77.62
2509.062	-75.96
2512.766	-76.62
2516.467	-78.62
2520.165	-79.96
2523.859	-82.62
2527.551	-80.62
2531.239	-79.29
2534.923	-81.29
2538.605	-81.96
2542.283	-82.29
2545.958	-79.96
2549.63	-80.62
2553.299	-81.62
2556.964	-80.96
2560.626	-84.62
2564.285	-82.62
2567.941	-84.62
2571.594	-83.96
2575.243	-84.29
2578.89	-85.29
2582.533	-85.29
2586.173	-83.96
2589.809	-87.96
2593.443	-85.96
2597.073	-87.29
2600.701	-86.62
2604.325	-84.62
2607.946	-87.62
2611.564	-87.29
2615.178	-90.29
2618.79	-88.29
2622.398	-88.29
2626.004	-86.29
2629.606	-85.62
2633.205	-86.96
2636.801	-89.29
2640.394	-88.96
2643.983	-88.29
2647.57	-86.96
2651.153	-90.96
2654.734	-85.29
2658.311	-90.96
2661.885	-87.96
2665.456	-90.62
2669.025	-87.96
2672.589	-88.29
2676.151	-86.62
2679.71	-87.62
2683.266	-90.29
2686.819	-89.62
2690.368	-85.96
2693.915	-86.62
2697.458	-87.96
2700.999	-89.29
2704.536	-85.62
2708.071	-83.62
2711.602	-84.29
2715.13	-85.62
2718.656	-82.96
2722.178	-83.29
2725.697	-82.62
2729.214	-81.96
2732.727	-80.62
2736.237	-77.62
2739.744	-76.96
2743.249	-80.62
2746.75	-76.29
2750.248	-72.96
2753.743	-74.29
2757.236	-70.62
2760.725	-67.96
2764.211	-70.29
2767.695	-70.96
2771.175	-69.29
2774.652	-70.29
2778.127	-68.62
2781.598	-62.62
2785.067	-61.29
2788.532	-58.96
2791.995	-60.96
2795.455	-56.29
2798.911	-56.96
2802.365	-51.62
2805.816	-50.96
2809.264	-50.62
2812.709	-47.29
2816.151	-47.96
2819.59	-41.62
2823.026	-41.29
2826.46	-37.62
2829.89	-33.29
2833.318	-34.29
2836.742	-30.96
2840.164	-24.29
2843.583	-22.62
2846.999	-16.62
2850.412	-14.62
2853.822	-12.29
2857.229	-7.96
2860.634	-3.29
2864.035	-0.96
2867.434	4.38
2870.83	9.71
2874.223	11.71
2877.613	17.04
2881	22.71
2884.385	27.38
2887.766	29.38
2891.145	35.04
2894.521	37.38
2897.894	42.04
2901.264	44.04
2904.631	47.38
2907.996	55.71
2911.358	58.04
2914.717	65.04
2918.073	68.04
2921.426	75.71
2924.777	81.04
2928.124	90.38
2931.469	99.04
2934.811	104.04
2938.15	110.71
2941.487	116.38
2944.821	129.71
2948.152	133.04
2951.48	142.71
2954.805	145.38
2958.128	156.04
2961.447	166.38
2964.765	168.04
2968.079	184.38
2971.39	188.38
2974.699	197.38
2978.005	210.71
2981.308	227.38
2984.609	240.38
2987.907	259.04
2991.202	267.38
2994.494	278.71
2997.784	295.38
3001.07	306.04
3004.355	325.71
3007.636	340.38
3010.915	344.38
3014.191	358.04
3017.464	367.04
3020.734	381.04
3024.002	394.71
3027.267	405.04
3030.53	409.38
3033.789	424.71
3037.046	442.38
3040.301	455.71
3043.552	471.04
3046.801	492.38
3050.048	511.04
3053.291	535.71
3056.532	554.71
3059.771	574.38
3063.006	603.04
3066.239	623.04
3069.469	654.38
3072.697	679.04
3075.922	697.04
3079.144	728.38
3082.364	748.71
3085.581	771.38
3088.795	797.04
3092.007	822.04
3095.216	840.38
3098.423	867.71
3101.627	896.38
3104.828	921.04
3108.026	941.04
3111.222	970.38
3114.416	994.71
3117.607	1013.71
3120.795	1057.38
3123.98	1088.71
3127.163	1110.04
3130.344	1144.04
3133.521	1174.38
3136.696	1206.71
3139.869	1226.71
3143.039	1255.71
3146.206	1277.71
3149.371	1298.04
3152.533	1308.38
3155.693	1326.71
3158.85	1340.04
3162.005	1350.04
3165.157	1364.71
3168.306	1363.04
3171.453	1374.38
3174.597	1387.38
3177.739	1389.38
3180.878	1398.71
3184.014	1404.04
3187.149	1409.71
3190.28	1414.71
3193.409	1427.04
3196.536	1429.04
3199.659	1437.38
3202.781	1452.71
3205.9	1448.71
3209.016	1457.71
3212.13	1458.04
3215.241	1447.71
3218.35	1432.04
3221.456	1431.38
3224.56	1430.04
3227.661	1407.04
3230.76	1392.71
3233.856	1388.04
3236.95	1376.38
3240.041	1381.04
3243.13	1370.38
3246.216	1352.71
3249.3	1347.04
3252.382	1346.04
3255.46	1344.38
3258.537	1348.71
3261.611	1352.04
3264.682	1342.04
3267.751	1336.04
3270.818	1324.71
3273.882	1320.71
3276.943	1314.04
3280.002	1302.71
3283.059	1285.71
3286.113	1272.71
3289.165	1250.38
3292.214	1242.04
3295.261	1217.04
3298.306	1192.71
3301.348	1183.71
3304.387	1164.71
3307.425	1141.38
3310.459	1131.71
3313.492	1120.71
3316.521	1109.04
3319.549	1093.04
3322.574	1084.04
3325.597	1073.71
3328.617	1077.04
3331.635	1071.04
3334.65	1072.04
3337.663	1057.71
3340.674	1051.04
3343.682	1051.04
3346.688	1045.04
3349.691	1045.71
3352.692	1042.38
3355.691	1036.38
3358.687	1026.04
3361.681	1019.71
3364.673	1007.71
3367.662	994.38
3370.649	976.04
3373.633	965.04
3376.615	952.38
3379.595	946.04
3382.572	935.71
3385.547	921.71
3388.52	909.38
3391.49	894.38
3394.458	891.04
3397.424	876.71
3400.387	868.38
3403.348	863.04
3406.307	848.71
3409.263	843.71
3412.217	834.38
3415.168	826.04
3418.118	817.38
3421.065	804.71
3424.009	801.04
3426.951	788.04
3429.891	779.38
3432.829	755.71
3435.764	748.04
3438.697	725.04
3441.628	711.71
3444.557	691.38
3447.483	667.71
3450.407	658.71
3453.328	644.04
3456.247	624.71
3459.164	602.71
3462.079	592.04
3464.991	565.04
3467.902	557.04
3470.809	538.71
3473.715	517.38
3476.618	497.71
3479.519	486.38
3482.418	477.71
3485.315	460.71
3488.209	450.38
3491.101	443.71
3493.99	422.04
3496.878	409.04
3499.763	400.38
3502.646	391.04
3505.527	376.38
3508.405	365.71
3511.281	347.38
3514.155	325.38
3517.027	317.04
3519.897	303.71
3522.764	283.38
3525.629	272.38
3528.492	257.38
3531.352	240.38
3534.211	231.04
3537.067	208.38
3539.921	197.04
3542.773	190.71
3545.622	176.04
3548.469	169.71
3551.315	152.71
3554.157	148.38
3556.998	133.38
3559.837	125.71
3562.673	121.71
3565.507	114.71
3568.339	103.38
3571.169	95.71
3573.996	90.38
3576.822	81.04
3579.645	76.71
3582.466	68.71
3585.285	55.04
3588.101	52.71
3590.916	42.71
3593.728	38.04
3596.538	27.71
3599.346	26.38
3602.152	16.04
3604.956	13.04
3607.757	8.04
3610.556	-0.62
3613.354	-5.29
3616.149	-6.96
3618.942	-14.29
3621.732	-18.96
3624.521	-24.96
3627.307	-27.62
3630.092	-31.62
3632.874	-31.62
3635.654	-37.96
3638.432	-41.62
3641.208	-44.29
3643.982	-50.62
3646.753	-52.62
3649.523	-56.96
3652.29	-61.96
3655.055	-65.29
3657.818	-65.29
3660.579	-70.62
3663.338	-76.29
3666.095	-76.62
3668.849	-82.29
3671.602	-80.96
3674.352	-89.29
3677.101	-88.62
3679.847	-92.96
3682.591	-94.96
3685.333	-95.62
3688.073	-99.62
3690.811	-102.29
3693.547	-103.62
3696.281	-103.62
3699.013	-108.29
3701.742	-108.62
3704.47	-109.62
3707.195	-112.29
3709.919	-111.96
3712.64	-114.96
3715.359	-115.62
3718.076	-116.62
3720.792	-118.96
3723.505	-124.62
3726.216	-123.62
3728.925	-122.29
3731.632	-124.62
3734.336	-125.29
3737.039	-126.62
3739.74	-128.62
3742.439	-128.96
3745.136	-130.29
3747.83	-130.96
3750.523	-132.96
3753.213	-131.29
3755.902	-132.29
3758.589	-133.29
3761.273	-133.62
3763.956	-134.29
3766.636	-132.62
3769.315	-133.96
3771.991	-136.29
3774.665	-134.62
3777.338	-137.62
3780.008	-135.96
3782.677	-134.62
3785.343	-138.29
3788.007	-135.62
3790.67	-139.29
3793.33	-138.29
3795.989	-141.96
3798.645	-138.62
3801.299	-140.96
3803.952	-139.96
3806.602	-140.29
3809.251	-139.29
3811.897	-139.29
3814.542	-141.62
3817.184	-141.29
3819.825	-140.29
3822.463	-141.62
3825.1	-141.96
3827.735	-141.62
3830.367	-140.62
3832.998	-141.62
3835.627	-140.96
3838.253	-140.62
3840.878	-142.29
3843.501	-142.62
3846.122	-142.29
3848.741	-140.96
3851.358	-142.29
3853.973	-143.29
3856.586	-143.96
3859.197	-143.96
3861.806	-140.62
3864.414	-143.29
3867.019	-139.96
3869.622	-138.96
3872.224	-138.96
3874.823	-137.29
3877.421	-131.62
3880.016	-125.62
3882.61	-118.62
3885.202	-115.96
3887.792	-120.62
3890.38	-130.29
3892.966	-134.96
3895.55	-141.29
3898.132	-144.62
3900.713	-146.29
3903.291	-143.96
3905.868	-144.62
3908.442	-145.29
3911.015	-143.96
3913.586	-146.62
3916.155	-147.62
3918.722	-148.29
3921.287	-144.96
3923.85	-148.62
3926.411	-147.62
3928.971	-146.62
3931.528	-145.62
3934.084	-146.62
3936.638	-147.96
3939.19	-146.62
3941.74	-145.96
3944.288	-145.62
3946.834	-146.96
3949.378	-145.96
3951.921	-146.96
3954.462	-147.96
3957	-147.62
3959.537	-144.96
3962.072	-145.62
3964.606	-146.29
3967.137	-146.96
3969.667	-146.62
3972.194	-146.62
3974.72	-145.29
3977.244	-145.62
3979.766	-145.29
3982.286	-145.62
3984.805	-145.29
3987.321	-143.96
3989.836	-146.29
3992.349	-144.96
3994.86	-144.96
3997.369	-143.62
3999.877	-142.96
4002.382	-145.29
4004.886	-144.96
4007.388	-147.96
4009.888	-144.29
4012.386	-146.29
4014.883	-145.96
4017.377	-146.96
4019.87	-146.29
4022.361	-147.96
4024.85	-143.62
4027.338	-144.29
4029.823	-146.29
4032.307	-147.29
4034.789	-144.62
4037.269	-145.29
4039.747	-145.96
4042.224	-147.29
4044.699	-148.29
4047.172	-147.29
4049.643	-147.29
4052.112	-146.96
4054.58	-144.96
4057.046	-144.62
4059.51	-147.29
4061.972	-147.29
4064.432	-146.62
4066.891	-145.62
4069.348	-145.29
4071.803	-145.29
4074.256	-144.29
4076.708	-144.29
4079.158	-147.29
4081.606	-147.96
4084.052	-145.96
4086.497	-147.29
4088.939	-145.29
4091.38	-146.62
4093.819	-146.96
4096.257	-150.29
4098.693	-147.96
4101.127	-151.29
4103.559	-149.29
4105.989	-91.96
4108.418	-88.29
4110.845	-82.29
4113.27	-75.29
4115.694	-69.96
4118.115	-57.62
4120.535	-142.96
4122.954	-144.62
4125.37	-144.29
4127.785	-146.62
4130.198	-144.62
4132.609	-146.29
4135.019	-148.96
4137.427	-149.62
4139.833	-149.29
4142.237	-148.96
