Data from 1000000CFU2_B_RamanShift_1.txt Node
Date: Wed Jan 25 12:42:55 IST 2017
User: aro
Spectrometer: QEPB0276
Trigger mode: 0
Integration Time (sec): 5.000000E0
Scans to average: 1
Electric dark correction enabled: true
Nonlinearity correction enabled: false
Boxcar width: 0
XAxis mode: Raman Shifts
Number of Pixels in Spectrum: 1044
>>>>>Begin Spectral Data<<<<<
160.701	-39.12
166.742	-4.12
172.777	99.88
178.805	427.88
184.826	1183.88
190.841	2445.88
196.849	3781.88
202.85	4636.88
208.845	4859.88
214.833	4660.88
220.815	4484.88
226.789	4360.88
232.758	4246.88
238.719	4089.88
244.674	3929.88
250.623	3770.88
256.565	3611.88
262.5	3415.88
268.429	3309.88
274.351	3130.88
280.267	3039.88
286.176	2903.88
292.079	2817.88
297.975	2744.88
303.865	2649.88
309.748	2582.88
315.625	2517.88
321.495	2463.88
327.359	2425.88
333.217	2400.88
339.068	2397.88
344.912	2386.88
350.751	2351.88
356.583	2349.88
362.408	2338.88
368.227	2342.88
374.04	2364.88
379.847	2357.88
385.647	2373.88
391.44	2398.88
397.228	2385.88
403.009	2433.88
408.784	2419.88
414.553	2425.88
420.315	2440.88
426.071	2446.88
431.821	2442.88
437.565	2440.88
443.302	2426.88
449.033	2422.88
454.758	2382.88
460.477	2388.88
466.189	2399.88
471.896	2368.88
477.596	2355.88
483.29	2364.88
488.978	2340.88
494.66	2340.88
500.335	2286.88
506.005	2232.88
511.668	2235.88
517.325	2177.88
522.977	2144.88
528.622	2121.88
534.261	2081.88
539.894	2068.88
545.521	2054.88
551.141	2037.88
556.756	2026.88
562.365	2017.88
567.968	2004.88
573.565	1981.88
579.155	1996.88
584.74	1957.88
590.319	1947.88
595.892	1955.88
601.459	1928.88
607.02	1912.88
612.575	1900.88
618.124	1871.88
623.667	1863.88
629.204	1844.88
634.735	1828.88
640.261	1813.88
645.781	1792.88
651.294	1783.88
656.802	1795.88
662.304	1781.88
667.8	1782.88
673.29	1769.88
678.775	1763.88
684.254	1749.88
689.726	1737.88
695.193	1725.88
700.655	1723.88
706.11	1722.88
711.56	1677.88
717.004	1691.88
722.442	1679.88
727.874	1652.88
733.301	1674.88
738.722	1647.88
744.137	1633.88
749.547	1630.88
754.951	1628.88
760.349	1625.88
765.741	1623.88
771.128	1644.88
776.509	1614.88
781.885	1626.88
787.254	1642.88
792.618	1613.88
797.977	1602.88
803.33	1573.88
808.677	1571.88
814.019	1565.88
819.355	1547.88
824.686	1525.88
830.011	1508.88
835.33	1507.88
840.644	1503.88
845.952	1488.88
851.255	1495.88
856.552	1490.88
861.844	1484.88
867.13	1467.88
872.41	1464.88
877.686	1437.88
882.955	1427.88
888.219	1392.88
893.478	1377.88
898.731	1361.88
903.979	1345.88
909.221	1330.88
914.458	1296.88
919.69	1322.88
924.916	1320.88
930.136	1306.88
935.351	1313.88
940.561	1288.88
945.766	1307.88
950.965	1284.88
956.158	1284.88
961.347	1262.88
966.529	1240.88
971.707	1223.88
976.879	1211.88
982.046	1199.88
987.208	1196.88
992.364	1192.88
997.515	1192.88
1002.66	1216.88
1007.801	1206.88
1012.936	1234.88
1018.066	1241.88
1023.19	1239.88
1028.309	1264.88
1033.423	1244.88
1038.532	1231.88
1043.636	1223.88
1048.734	1224.88
1053.827	1211.88
1058.915	1188.88
1063.998	1185.88
1069.075	1183.88
1074.147	1180.88
1079.214	1177.88
1084.276	1218.88
1089.333	1196.88
1094.385	1240.88
1099.431	1230.88
1104.472	1216.88
1109.509	1202.88
1114.54	1200.88
1119.565	1188.88
1124.586	1173.88
1129.602	1148.88
1134.613	1156.88
1139.618	1162.88
1144.619	1164.88
1149.614	1164.88
1154.604	1157.88
1159.589	1171.88
1164.57	1160.88
1169.545	1189.88
1174.515	1171.88
1179.48	1182.88
1184.44	1158.88
1189.395	1162.88
1194.345	1147.88
1199.29	1146.88
1204.23	1151.88
1209.165	1156.88
1214.095	1164.88
1219.021	1156.88
1223.941	1171.88
1228.856	1178.88
1233.766	1190.88
1238.672	1193.88
1243.572	1193.88
1248.467	1181.88
1253.358	1175.88
1258.244	1159.88
1263.124	1136.88
1268	1130.88
1272.871	1111.88
1277.737	1093.88
1282.599	1112.88
1287.455	1107.88
1292.306	1112.88
1297.153	1114.88
1301.995	1111.88
1306.832	1129.88
1311.664	1136.88
1316.491	1129.88
1321.314	1135.88
1326.132	1111.88
1330.945	1113.88
1335.753	1105.88
1340.556	1087.88
1345.354	1080.88
1350.148	1077.88
1354.937	1072.88
1359.722	1059.88
1364.501	1053.88
1369.276	1043.88
1374.046	1025.88
1378.811	1026.88
1383.572	1014.88
1388.327	1012.88
1393.079	1012.88
1397.825	1013.88
1402.567	1005.88
1407.304	1001.88
1412.036	986.88
1416.764	1001.88
1421.487	992.88
1426.205	996.88
1430.919	1009.88
1435.628	1012.88
1440.333	1019.88
1445.032	1029.88
1449.727	1040.88
1454.418	1046.88
1459.104	1050.88
1463.785	1026.88
1468.462	1022.88
1473.134	1040.88
1477.802	1013.88
1482.465	1009.88
1487.123	1021.88
1491.777	1001.88
1496.426	1034.88
1501.071	1027.88
1505.711	1036.88
1510.347	1047.88
1514.978	1057.88
1519.604	1062.88
1524.226	1069.88
1528.844	1075.88
1533.457	1052.88
1538.065	1074.88
1542.669	1060.88
1547.269	1044.88
1551.864	1058.88
1556.454	1070.88
1561.041	1093.88
1565.622	1087.88
1570.199	1103.88
1574.772	1129.88
1579.34	1142.88
1583.904	1170.88
1588.464	1189.88
1593.019	1208.88
1597.569	1209.88
1602.115	1231.88
1606.657	1248.88
1611.195	1246.88
1615.728	1275.88
1620.256	1279.88
1624.78	1315.88
1629.3	1314.88
1633.816	1343.88
1638.327	1357.88
1642.834	1376.88
1647.336	1393.88
1651.834	1385.88
1656.328	1381.88
1660.817	1377.88
1665.302	1359.88
1669.783	1338.88
1674.259	1288.88
1678.732	1257.88
1683.199	1226.88
1687.663	1167.88
1692.122	1153.88
1696.577	1089.88
1701.028	1042.88
1705.474	1003.88
1709.917	966.88
1714.355	928.88
1718.788	916.88
1723.218	907.88
1727.643	888.88
1732.064	871.88
1736.481	840.88
1740.893	822.88
1745.301	804.88
1749.705	774.88
1754.105	752.88
1758.501	751.88
1762.893	736.88
1767.28	715.88
1771.663	710.88
1776.042	728.88
1780.417	705.88
1784.787	724.88
1789.154	719.88
1793.516	708.88
1797.874	701.88
1802.228	705.88
1806.578	688.88
1810.924	682.88
1815.266	659.88
1819.603	661.88
1823.937	664.88
1828.266	644.88
1832.591	636.88
1836.913	641.88
1841.23	637.88
1845.543	636.88
1849.852	633.88
1854.156	631.88
1858.457	640.88
1862.754	642.88
1867.047	648.88
1871.335	655.88
1875.62	648.88
1879.9	641.88
1884.177	651.88
1888.449	648.88
1892.718	637.88
1896.982	640.88
1901.243	644.88
1905.499	644.88
1909.752	642.88
1914	633.88
1918.245	634.88
1922.485	639.88
1926.722	645.88
1930.954	644.88
1935.183	636.88
1939.408	645.88
1943.628	646.88
1947.845	637.88
1952.058	651.88
1956.267	643.88
1960.472	628.88
1964.673	622.88
1968.87	621.88
1973.063	616.88
1977.252	625.88
1981.438	594.88
1985.619	613.88
1989.797	610.88
1993.971	612.88
1998.14	618.88
2002.306	611.88
2006.469	621.88
2010.627	622.88
2014.781	623.88
2018.932	628.88
2023.078	617.88
2027.221	626.88
2031.36	628.88
2035.495	620.88
2039.627	610.88
2043.754	609.88
2047.878	601.88
2051.998	593.88
2056.114	610.88
2060.226	612.88
2064.334	608.88
2068.439	600.88
2072.54	621.88
2076.637	620.88
2080.73	617.88
2084.82	634.88
2088.906	621.88
2092.988	641.88
2097.066	644.88
2101.14	637.88
2105.211	619.88
2109.278	611.88
2113.342	610.88
2117.401	615.88
2121.457	592.88
2125.509	590.88
2129.558	598.88
2133.602	586.88
2137.643	583.88
2141.681	588.88
2145.714	594.88
2149.744	576.88
2153.77	585.88
2157.793	576.88
2161.812	564.88
2165.827	554.88
2169.838	554.88
2173.846	545.88
2177.851	539.88
2181.851	538.88
2185.848	523.88
2189.841	523.88
2193.831	520.88
2197.817	509.88
2201.799	502.88
2205.778	501.88
2209.753	498.88
2213.725	501.88
2217.693	501.88
2221.657	494.88
2225.618	507.88
2229.575	493.88
2233.529	487.88
2237.479	492.88
2241.425	483.88
2245.368	471.88
2249.307	472.88
2253.243	467.88
2257.175	452.88
2261.104	446.88
2265.029	451.88
2268.95	444.88
2272.868	438.88
2276.783	425.88
2280.694	419.88
2284.601	418.88
2288.505	408.88
2292.405	399.88
2296.302	393.88
2300.195	395.88
2304.085	391.88
2307.971	376.88
2311.854	366.88
2315.734	367.88
2319.609	360.88
2323.482	357.88
2327.351	344.88
2331.216	348.88
2335.078	363.88
2338.937	346.88
2342.792	344.88
2346.643	336.88
2350.492	339.88
2354.336	343.88
2358.178	339.88
2362.015	343.88
2365.85	339.88
2369.681	340.88
2373.508	337.88
2377.333	343.88
2381.153	332.88
2384.971	332.88
2388.785	349.88
2392.595	335.88
2396.402	335.88
2400.206	331.88
2404.007	331.88
2407.804	328.88
2411.597	326.88
2415.388	325.88
2419.174	321.88
2422.958	326.88
2426.738	326.88
2430.515	319.88
2434.289	320.88
2438.059	321.88
2441.825	319.88
2445.589	319.88
2449.349	312.88
2453.106	314.88
2456.859	305.88
2460.61	302.88
2464.356	299.88
2468.1	294.88
2471.84	291.88
2475.577	298.88
2479.311	297.88
2483.041	294.88
2486.768	297.88
2490.492	292.88
2494.213	294.88
2497.93	297.88
2501.644	296.88
2505.355	295.88
2509.062	297.88
2512.766	292.88
2516.467	286.88
2520.165	292.88
2523.859	286.88
2527.551	286.88
2531.239	276.88
2534.923	276.88
2538.605	268.88
2542.283	266.88
2545.958	274.88
2549.63	269.88
2553.299	271.88
2556.964	258.88
2560.626	263.88
2564.285	266.88
2567.941	260.88
2571.594	271.88
2575.243	254.88
2578.89	253.88
2582.533	260.88
2586.173	259.88
2589.809	254.88
2593.443	247.88
2597.073	243.88
2600.701	241.88
2604.325	239.88
2607.946	245.88
2611.564	234.88
2615.178	233.88
2618.79	238.88
2622.398	237.88
2626.004	238.88
2629.606	233.88
2633.205	222.88
2636.801	234.88
2640.394	224.88
2643.983	220.88
2647.57	224.88
2651.153	228.88
2654.734	224.88
2658.311	212.88
2661.885	210.88
2665.456	209.88
2669.025	210.88
2672.589	209.88
2676.151	209.88
2679.71	210.88
2683.266	206.88
2686.819	204.88
2690.368	191.88
2693.915	200.88
2697.458	195.88
2700.999	189.88
2704.536	186.88
2708.071	186.88
2711.602	180.88
2715.13	182.88
2718.656	184.88
2722.178	186.88
2725.697	182.88
2729.214	182.88
2732.727	189.88
2736.237	200.88
2739.744	189.88
2743.249	196.88
2746.75	185.88
2750.248	196.88
2753.743	191.88
2757.236	191.88
2760.725	182.88
2764.211	183.88
2767.695	182.88
2771.175	177.88
2774.652	176.88
2778.127	180.88
2781.598	176.88
2785.067	178.88
2788.532	183.88
2791.995	177.88
2795.455	177.88
2798.911	187.88
2802.365	182.88
2805.816	193.88
2809.264	184.88
2812.709	195.88
2816.151	186.88
2819.59	181.88
2823.026	183.88
2826.46	184.88
2829.89	185.88
2833.318	188.88
2836.742	189.88
2840.164	190.88
2843.583	192.88
2846.999	199.88
2850.412	202.88
2853.822	200.88
2857.229	205.88
2860.634	207.88
2864.035	209.88
2867.434	217.88
2870.83	211.88
2874.223	218.88
2877.613	221.88
2881	223.88
2884.385	226.88
2887.766	222.88
2891.145	221.88
2894.521	230.88
2897.894	225.88
2901.264	234.88
2904.631	228.88
2907.996	236.88
2911.358	246.88
2914.717	244.88
2918.073	244.88
2921.426	248.88
2924.777	255.88
2928.124	258.88
2931.469	270.88
2934.811	275.88
2938.15	277.88
2941.487	272.88
2944.821	285.88
2948.152	289.88
2951.48	289.88
2954.805	298.88
2958.128	298.88
2961.447	293.88
2964.765	312.88
2968.079	323.88
2971.39	328.88
2974.699	337.88
2978.005	341.88
2981.308	358.88
2984.609	358.88
2987.907	383.88
2991.202	384.88
2994.494	397.88
2997.784	402.88
3001.07	419.88
3004.355	428.88
3007.636	430.88
3010.915	443.88
3014.191	458.88
3017.464	486.88
3020.734	475.88
3024.002	480.88
3027.267	496.88
3030.53	492.88
3033.789	509.88
3037.046	524.88
3040.301	541.88
3043.552	553.88
3046.801	560.88
3050.048	576.88
3053.291	592.88
3056.532	609.88
3059.771	636.88
3063.006	652.88
3066.239	685.88
3069.469	701.88
3072.697	732.88
3075.922	749.88
3079.144	753.88
3082.364	773.88
3085.581	788.88
3088.795	813.88
3092.007	834.88
3095.216	844.88
3098.423	871.88
3101.627	888.88
3104.828	906.88
3108.026	932.88
3111.222	941.88
3114.416	960.88
3117.607	989.88
3120.795	1011.88
3123.98	1045.88
3127.163	1053.88
3130.344	1097.88
3133.521	1117.88
3136.696	1133.88
3139.869	1159.88
3143.039	1172.88
3146.206	1201.88
3149.371	1202.88
3152.533	1221.88
3155.693	1226.88
3158.85	1226.88
3162.005	1240.88
3165.157	1259.88
3168.306	1260.88
3171.453	1262.88
3174.597	1280.88
3177.739	1289.88
3180.878	1300.88
3184.014	1273.88
3187.149	1285.88
3190.28	1285.88
3193.409	1300.88
3196.536	1297.88
3199.659	1313.88
3202.781	1291.88
3205.9	1292.88
3209.016	1302.88
3212.13	1276.88
3215.241	1303.88
3218.35	1289.88
3221.456	1289.88
3224.56	1271.88
3227.661	1252.88
3230.76	1231.88
3233.856	1216.88
3236.95	1239.88
3240.041	1205.88
3243.13	1196.88
3246.216	1204.88
3249.3	1180.88
3252.382	1181.88
3255.46	1172.88
3258.537	1158.88
3261.611	1163.88
3264.682	1152.88
3267.751	1156.88
3270.818	1138.88
3273.882	1138.88
3276.943	1120.88
3280.002	1128.88
3283.059	1116.88
3286.113	1104.88
3289.165	1082.88
3292.214	1081.88
3295.261	1062.88
3298.306	1051.88
3301.348	1019.88
3304.387	1008.88
3307.425	997.88
3310.459	989.88
3313.492	962.88
3316.521	956.88
3319.549	944.88
3322.574	935.88
3325.597	933.88
3328.617	929.88
3331.635	920.88
3334.65	913.88
3337.663	900.88
3340.674	909.88
3343.682	918.88
3346.688	898.88
3349.691	899.88
3352.692	899.88
3355.691	884.88
3358.687	892.88
3361.681	875.88
3364.673	858.88
3367.662	852.88
3370.649	828.88
3373.633	833.88
3376.615	799.88
3379.595	795.88
3382.572	788.88
3385.547	770.88
3388.52	770.88
3391.49	756.88
3394.458	751.88
3397.424	745.88
3400.387	740.88
3403.348	730.88
3406.307	711.88
3409.263	710.88
3412.217	705.88
3415.168	696.88
3418.118	700.88
3421.065	681.88
3424.009	668.88
3426.951	663.88
3429.891	652.88
3432.829	647.88
3435.764	627.88
3438.697	615.88
3441.628	589.88
3444.557	584.88
3447.483	570.88
3450.407	555.88
3453.328	534.88
3456.247	524.88
3459.164	498.88
3462.079	488.88
3464.991	472.88
3467.902	450.88
3470.809	441.88
3473.715	427.88
3476.618	417.88
3479.519	399.88
3482.418	387.88
3485.315	386.88
3488.209	368.88
3491.101	359.88
3493.99	352.88
3496.878	345.88
3499.763	338.88
3502.646	321.88
3505.527	312.88
3508.405	295.88
3511.281	283.88
3514.155	269.88
3517.027	270.88
3519.897	245.88
3522.764	236.88
3525.629	214.88
3528.492	208.88
3531.352	195.88
3534.211	181.88
3537.067	176.88
3539.921	162.88
3542.773	150.88
3545.622	146.88
3548.469	133.88
3551.315	128.88
3554.157	120.88
3556.998	114.88
3559.837	106.88
3562.673	101.88
3565.507	88.88
3568.339	78.88
3571.169	73.88
3573.996	66.88
3576.822	63.88
3579.645	62.88
3582.466	51.88
3585.285	48.88
3588.101	43.88
3590.916	35.88
3593.728	30.88
3596.538	28.88
3599.346	22.88
3602.152	20.88
3604.956	12.88
3607.757	10.88
3610.556	3.88
3613.354	-6.12
3616.149	-4.12
3618.942	-11.12
3621.732	-20.12
3624.521	-19.12
3627.307	-19.12
3630.092	-24.12
3632.874	-27.12
3635.654	-26.12
3638.432	-33.12
3641.208	-35.12
3643.982	-34.12
3646.753	-38.12
3649.523	-41.12
3652.29	-38.12
3655.055	-46.12
3657.818	-47.12
3660.579	-49.12
3663.338	-51.12
3666.095	-55.12
3668.849	-58.12
3671.602	-65.12
3674.352	-63.12
3677.101	-71.12
3679.847	-72.12
3682.591	-74.12
3685.333	-75.12
3688.073	-83.12
3690.811	-80.12
3693.547	-78.12
3696.281	-81.12
3699.013	-81.12
3701.742	-82.12
3704.47	-86.12
3707.195	-83.12
3709.919	-85.12
3712.64	-84.12
3715.359	-88.12
3718.076	-87.12
3720.792	-93.12
3723.505	-94.12
3726.216	-91.12
3728.925	-92.12
3731.632	-91.12
3734.336	-99.12
3737.039	-99.12
3739.74	-96.12
3742.439	-98.12
3745.136	-97.12
3747.83	-95.12
3750.523	-97.12
3753.213	-98.12
3755.902	-98.12
3758.589	-100.12
3761.273	-100.12
3763.956	-101.12
3766.636	-105.12
3769.315	-101.12
3771.991	-107.12
3774.665	-105.12
3777.338	-105.12
3780.008	-110.12
3782.677	-108.12
3785.343	-106.12
3788.007	-107.12
3790.67	-107.12
3793.33	-105.12
3795.989	-106.12
3798.645	-105.12
3801.299	-106.12
3803.952	-105.12
3806.602	-106.12
3809.251	-106.12
3811.897	-109.12
3814.542	-109.12
3817.184	-110.12
3819.825	-110.12
3822.463	-108.12
3825.1	-108.12
3827.735	-110.12
3830.367	-108.12
3832.998	-112.12
3835.627	-111.12
3838.253	-108.12
3840.878	-109.12
3843.501	-113.12
3846.122	-112.12
3848.741	-111.12
3851.358	-112.12
3853.973	-111.12
3856.586	-116.12
3859.197	-113.12
3861.806	-112.12
3864.414	-113.12
3867.019	-113.12
3869.622	-109.12
3872.224	-110.12
3874.823	-110.12
3877.421	-107.12
3880.016	-105.12
3882.61	-99.12
3885.202	-103.12
3887.792	-105.12
3890.38	-109.12
3892.966	-112.12
3895.55	-112.12
3898.132	-113.12
3900.713	-118.12
3903.291	-115.12
3905.868	-117.12
3908.442	-120.12
3911.015	-117.12
3913.586	-114.12
3916.155	-113.12
3918.722	-114.12
3921.287	-115.12
3923.85	-115.12
3926.411	-114.12
3928.971	-118.12
3931.528	-115.12
3934.084	-116.12
3936.638	-118.12
3939.19	-118.12
3941.74	-115.12
3944.288	-117.12
3946.834	-121.12
3949.378	-123.12
3951.921	-121.12
3954.462	-119.12
3957	-118.12
3959.537	-116.12
3962.072	-117.12
3964.606	-114.12
3967.137	-115.12
3969.667	-117.12
3972.194	-117.12
3974.72	-114.12
3977.244	-112.12
3979.766	-114.12
3982.286	-115.12
3984.805	-117.12
3987.321	-116.12
3989.836	-116.12
3992.349	-116.12
3994.86	-117.12
3997.369	-113.12
3999.877	-114.12
4002.382	-117.12
4004.886	-115.12
4007.388	-113.12
4009.888	-112.12
4012.386	-115.12
4014.883	-115.12
4017.377	-113.12
4019.87	-114.12
4022.361	-114.12
4024.85	-117.12
4027.338	-116.12
4029.823	-115.12
4032.307	-116.12
4034.789	-117.12
4037.269	-117.12
4039.747	-120.12
4042.224	-117.12
4044.699	-118.12
4047.172	-114.12
4049.643	-117.12
4052.112	-118.12
4054.58	-116.12
4057.046	-116.12
4059.51	-119.12
4061.972	-117.12
4064.432	-118.12
4066.891	-118.12
4069.348	-117.12
4071.803	-114.12
4074.256	-119.12
4076.708	-114.12
4079.158	-114.12
4081.606	-116.12
4084.052	-112.12
4086.497	-116.12
4088.939	-113.12
4091.38	-116.12
4093.819	-114.12
4096.257	-116.12
4098.693	-119.12
4101.127	-123.12
4103.559	-124.12
4105.989	-78.12
4108.418	-77.12
4110.845	-79.12
4113.27	-70.12
4115.694	-63.12
4118.115	-55.12
4120.535	-115.12
4122.954	-120.12
4125.37	-117.12
4127.785	-118.12
4130.198	-121.12
4132.609	-121.12
4135.019	-124.12
4137.427	-121.12
4139.833	-120.12
4142.237	-119.12
