Data from 1000000CFU2_A_RamanShift_1.txt Node
Date: Wed Jan 25 12:03:35 IST 2017
User: aro
Spectrometer: QEPB0276
Trigger mode: 0
Integration Time (sec): 5.000000E0
Scans to average: 1
Electric dark correction enabled: true
Nonlinearity correction enabled: false
Boxcar width: 0
XAxis mode: Raman Shifts
Number of Pixels in Spectrum: 1044
>>>>>Begin Spectral Data<<<<<
160.701	-42.25
166.742	-3.25
172.777	106.75
178.805	433.75
184.826	1209.75
190.841	2456.75
196.849	3807.75
202.85	4672.75
208.845	4832.75
214.833	4656.75
220.815	4525.75
226.789	4377.75
232.758	4250.75
238.719	4163.75
244.674	3980.75
250.623	3816.75
256.565	3634.75
262.5	3462.75
268.429	3313.75
274.351	3194.75
280.267	3102.75
286.176	2983.75
292.079	2889.75
297.975	2782.75
303.865	2688.75
309.748	2621.75
315.625	2585.75
321.495	2531.75
327.359	2500.75
333.217	2468.75
339.068	2443.75
344.912	2412.75
350.751	2434.75
356.583	2412.75
362.408	2402.75
368.227	2425.75
374.04	2428.75
379.847	2411.75
385.647	2438.75
391.44	2427.75
397.228	2466.75
403.009	2484.75
408.784	2483.75
414.553	2498.75
420.315	2513.75
426.071	2532.75
431.821	2483.75
437.565	2476.75
443.302	2498.75
449.033	2482.75
454.758	2500.75
460.477	2461.75
466.189	2438.75
471.896	2443.75
477.596	2428.75
483.29	2422.75
488.978	2438.75
494.66	2398.75
500.335	2356.75
506.005	2331.75
511.668	2282.75
517.325	2239.75
522.977	2201.75
528.622	2179.75
534.261	2150.75
539.894	2127.75
545.521	2128.75
551.141	2113.75
556.756	2088.75
562.365	2085.75
567.968	2078.75
573.565	2061.75
579.155	2051.75
584.74	2046.75
590.319	2016.75
595.892	2009.75
601.459	1995.75
607.02	1972.75
612.575	1950.75
618.124	1937.75
623.667	1918.75
629.204	1909.75
634.735	1883.75
640.261	1863.75
645.781	1865.75
651.294	1868.75
656.802	1867.75
662.304	1850.75
667.8	1835.75
673.29	1831.75
678.775	1836.75
684.254	1819.75
689.726	1813.75
695.193	1803.75
700.655	1795.75
706.11	1769.75
711.56	1769.75
717.004	1752.75
722.442	1730.75
727.874	1735.75
733.301	1722.75
738.722	1715.75
744.137	1710.75
749.547	1703.75
754.951	1689.75
760.349	1708.75
765.741	1687.75
771.128	1715.75
776.509	1691.75
781.885	1707.75
787.254	1693.75
792.618	1681.75
797.977	1681.75
803.33	1683.75
808.677	1660.75
814.019	1635.75
819.355	1618.75
824.686	1614.75
830.011	1593.75
835.33	1586.75
840.644	1595.75
845.952	1579.75
851.255	1563.75
856.552	1575.75
861.844	1569.75
867.13	1529.75
872.41	1535.75
877.686	1503.75
882.955	1507.75
888.219	1473.75
893.478	1473.75
898.731	1432.75
903.979	1426.75
909.221	1402.75
914.458	1391.75
919.69	1396.75
924.916	1392.75
930.136	1390.75
935.351	1386.75
940.561	1392.75
945.766	1384.75
950.965	1378.75
956.158	1366.75
961.347	1358.75
966.529	1324.75
971.707	1295.75
976.879	1296.75
982.046	1283.75
987.208	1276.75
992.364	1272.75
997.515	1277.75
1002.66	1289.75
1007.801	1309.75
1012.936	1309.75
1018.066	1317.75
1023.19	1323.75
1028.309	1346.75
1033.423	1331.75
1038.532	1316.75
1043.636	1305.75
1048.734	1284.75
1053.827	1280.75
1058.915	1258.75
1063.998	1265.75
1069.075	1249.75
1074.147	1253.75
1079.214	1261.75
1084.276	1278.75
1089.333	1300.75
1094.385	1302.75
1099.431	1324.75
1104.472	1317.75
1109.509	1300.75
1114.54	1280.75
1119.565	1273.75
1124.586	1252.75
1129.602	1246.75
1134.613	1244.75
1139.618	1233.75
1144.619	1232.75
1149.614	1236.75
1154.604	1240.75
1159.589	1253.75
1164.57	1259.75
1169.545	1273.75
1174.515	1271.75
1179.48	1254.75
1184.44	1254.75
1189.395	1247.75
1194.345	1250.75
1199.29	1227.75
1204.23	1239.75
1209.165	1245.75
1214.095	1247.75
1219.021	1258.75
1223.941	1257.75
1228.856	1279.75
1233.766	1270.75
1238.672	1286.75
1243.572	1277.75
1248.467	1265.75
1253.358	1249.75
1258.244	1240.75
1263.124	1206.75
1268	1208.75
1272.871	1190.75
1277.737	1203.75
1282.599	1186.75
1287.455	1192.75
1292.306	1192.75
1297.153	1209.75
1301.995	1213.75
1306.832	1211.75
1311.664	1212.75
1316.491	1221.75
1321.314	1227.75
1326.132	1217.75
1330.945	1199.75
1335.753	1188.75
1340.556	1190.75
1345.354	1161.75
1350.148	1150.75
1354.937	1148.75
1359.722	1133.75
1364.501	1124.75
1369.276	1125.75
1374.046	1100.75
1378.811	1121.75
1383.572	1100.75
1388.327	1110.75
1393.079	1102.75
1397.825	1102.75
1402.567	1088.75
1407.304	1076.75
1412.036	1087.75
1416.764	1075.75
1421.487	1076.75
1426.205	1072.75
1430.919	1077.75
1435.628	1080.75
1440.333	1105.75
1445.032	1111.75
1449.727	1122.75
1454.418	1126.75
1459.104	1117.75
1463.785	1123.75
1468.462	1106.75
1473.134	1100.75
1477.802	1086.75
1482.465	1078.75
1487.123	1084.75
1491.777	1083.75
1496.426	1097.75
1501.071	1102.75
1505.711	1111.75
1510.347	1118.75
1514.978	1139.75
1519.604	1137.75
1524.226	1142.75
1528.844	1144.75
1533.457	1144.75
1538.065	1152.75
1542.669	1138.75
1547.269	1147.75
1551.864	1135.75
1556.454	1152.75
1561.041	1153.75
1565.622	1176.75
1570.199	1189.75
1574.772	1212.75
1579.34	1226.75
1583.904	1247.75
1588.464	1261.75
1593.019	1290.75
1597.569	1291.75
1602.115	1309.75
1606.657	1312.75
1611.195	1314.75
1615.728	1338.75
1620.256	1359.75
1624.78	1375.75
1629.3	1397.75
1633.816	1430.75
1638.327	1455.75
1642.834	1447.75
1647.336	1463.75
1651.834	1484.75
1656.328	1479.75
1660.817	1438.75
1665.302	1434.75
1669.783	1399.75
1674.259	1368.75
1678.732	1333.75
1683.199	1280.75
1687.663	1245.75
1692.122	1204.75
1696.577	1157.75
1701.028	1109.75
1705.474	1060.75
1709.917	1047.75
1714.355	1022.75
1718.788	996.75
1723.218	989.75
1727.643	965.75
1732.064	943.75
1736.481	918.75
1740.893	890.75
1745.301	881.75
1749.705	858.75
1754.105	829.75
1758.501	822.75
1762.893	793.75
1767.28	799.75
1771.663	788.75
1776.042	769.75
1780.417	789.75
1784.787	779.75
1789.154	781.75
1793.516	781.75
1797.874	785.75
1802.228	783.75
1806.578	762.75
1810.924	764.75
1815.266	750.75
1819.603	737.75
1823.937	724.75
1828.266	717.75
1832.591	721.75
1836.913	702.75
1841.23	711.75
1845.543	706.75
1849.852	713.75
1854.156	701.75
1858.457	711.75
1862.754	703.75
1867.047	726.75
1871.335	716.75
1875.62	725.75
1879.9	724.75
1884.177	718.75
1888.449	733.75
1892.718	715.75
1896.982	714.75
1901.243	705.75
1905.499	717.75
1909.752	717.75
1914	705.75
1918.245	704.75
1922.485	708.75
1926.722	702.75
1930.954	706.75
1935.183	729.75
1939.408	722.75
1943.628	723.75
1947.845	726.75
1952.058	734.75
1956.267	723.75
1960.472	707.75
1964.673	706.75
1968.87	694.75
1973.063	695.75
1977.252	683.75
1981.438	688.75
1985.619	694.75
1989.797	690.75
1993.971	682.75
1998.14	690.75
2002.306	676.75
2006.469	693.75
2010.627	690.75
2014.781	691.75
2018.932	681.75
2023.078	696.75
2027.221	681.75
2031.36	685.75
2035.495	685.75
2039.627	670.75
2043.754	673.75
2047.878	664.75
2051.998	669.75
2056.114	668.75
2060.226	673.75
2064.334	672.75
2068.439	680.75
2072.54	684.75
2076.637	676.75
2080.73	684.75
2084.82	689.75
2088.906	683.75
2092.988	707.75
2097.066	688.75
2101.14	684.75
2105.211	683.75
2109.278	662.75
2113.342	676.75
2117.401	666.75
2121.457	657.75
2125.509	655.75
2129.558	666.75
2133.602	663.75
2137.643	643.75
2141.681	648.75
2145.714	653.75
2149.744	643.75
2153.77	638.75
2157.793	636.75
2161.812	626.75
2165.827	619.75
2169.838	612.75
2173.846	601.75
2177.851	600.75
2181.851	589.75
2185.848	574.75
2189.841	572.75
2193.831	559.75
2197.817	558.75
2201.799	557.75
2205.778	561.75
2209.753	571.75
2213.725	553.75
2217.693	559.75
2221.657	551.75
2225.618	553.75
2229.575	544.75
2233.529	547.75
2237.479	547.75
2241.425	531.75
2245.368	537.75
2249.307	535.75
2253.243	506.75
2257.175	507.75
2261.104	492.75
2265.029	493.75
2268.95	492.75
2272.868	493.75
2276.783	480.75
2280.694	475.75
2284.601	467.75
2288.505	456.75
2292.405	449.75
2296.302	450.75
2300.195	449.75
2304.085	426.75
2307.971	422.75
2311.854	420.75
2315.734	418.75
2319.609	408.75
2323.482	397.75
2327.351	403.75
2331.216	402.75
2335.078	385.75
2338.937	392.75
2342.792	386.75
2346.643	389.75
2350.492	395.75
2354.336	389.75
2358.178	384.75
2362.015	385.75
2365.85	383.75
2369.681	387.75
2373.508	385.75
2377.333	386.75
2381.153	386.75
2384.971	391.75
2388.785	388.75
2392.595	381.75
2396.402	378.75
2400.206	383.75
2404.007	372.75
2407.804	371.75
2411.597	375.75
2415.388	362.75
2419.174	368.75
2422.958	361.75
2426.738	364.75
2430.515	357.75
2434.289	352.75
2438.059	359.75
2441.825	363.75
2445.589	355.75
2449.349	353.75
2453.106	355.75
2456.859	344.75
2460.61	343.75
2464.356	344.75
2468.1	338.75
2471.84	335.75
2475.577	336.75
2479.311	322.75
2483.041	331.75
2486.768	329.75
2490.492	335.75
2494.213	337.75
2497.93	332.75
2501.644	329.75
2505.355	336.75
2509.062	339.75
2512.766	331.75
2516.467	338.75
2520.165	325.75
2523.859	325.75
2527.551	320.75
2531.239	319.75
2534.923	314.75
2538.605	311.75
2542.283	307.75
2545.958	302.75
2549.63	316.75
2553.299	307.75
2556.964	313.75
2560.626	296.75
2564.285	307.75
2567.941	292.75
2571.594	302.75
2575.243	298.75
2578.89	293.75
2582.533	294.75
2586.173	283.75
2589.809	285.75
2593.443	283.75
2597.073	278.75
2600.701	278.75
2604.325	277.75
2607.946	275.75
2611.564	279.75
2615.178	269.75
2618.79	274.75
2622.398	267.75
2626.004	263.75
2629.606	263.75
2633.205	272.75
2636.801	263.75
2640.394	256.75
2643.983	260.75
2647.57	254.75
2651.153	257.75
2654.734	247.75
2658.311	250.75
2661.885	252.75
2665.456	242.75
2669.025	247.75
2672.589	241.75
2676.151	232.75
2679.71	233.75
2683.266	230.75
2686.819	232.75
2690.368	228.75
2693.915	226.75
2697.458	220.75
2700.999	219.75
2704.536	215.75
2708.071	217.75
2711.602	216.75
2715.13	208.75
2718.656	206.75
2722.178	206.75
2725.697	217.75
2729.214	218.75
2732.727	221.75
2736.237	219.75
2739.744	212.75
2743.249	213.75
2746.75	213.75
2750.248	222.75
2753.743	216.75
2757.236	226.75
2760.725	210.75
2764.211	211.75
2767.695	207.75
2771.175	206.75
2774.652	200.75
2778.127	206.75
2781.598	200.75
2785.067	212.75
2788.532	206.75
2791.995	202.75
2795.455	205.75
2798.911	210.75
2802.365	210.75
2805.816	214.75
2809.264	211.75
2812.709	209.75
2816.151	209.75
2819.59	219.75
2823.026	213.75
2826.46	213.75
2829.89	217.75
2833.318	215.75
2836.742	218.75
2840.164	214.75
2843.583	213.75
2846.999	216.75
2850.412	226.75
2853.822	229.75
2857.229	227.75
2860.634	228.75
2864.035	235.75
2867.434	238.75
2870.83	237.75
2874.223	241.75
2877.613	240.75
2881	242.75
2884.385	251.75
2887.766	244.75
2891.145	245.75
2894.521	245.75
2897.894	249.75
2901.264	251.75
2904.631	249.75
2907.996	265.75
2911.358	253.75
2914.717	256.75
2918.073	263.75
2921.426	265.75
2924.777	277.75
2928.124	277.75
2931.469	272.75
2934.811	286.75
2938.15	290.75
2941.487	289.75
2944.821	301.75
2948.152	299.75
2951.48	308.75
2954.805	315.75
2958.128	323.75
2961.447	325.75
2964.765	332.75
2968.079	344.75
2971.39	352.75
2974.699	345.75
2978.005	353.75
2981.308	376.75
2984.609	368.75
2987.907	379.75
2991.202	401.75
2994.494	414.75
2997.784	424.75
3001.07	438.75
3004.355	451.75
3007.636	454.75
3010.915	466.75
3014.191	477.75
3017.464	483.75
3020.734	489.75
3024.002	500.75
3027.267	499.75
3030.53	505.75
3033.789	521.75
3037.046	539.75
3040.301	550.75
3043.552	560.75
3046.801	578.75
3050.048	591.75
3053.291	615.75
3056.532	627.75
3059.771	645.75
3063.006	665.75
3066.239	683.75
3069.469	711.75
3072.697	731.75
3075.922	737.75
3079.144	770.75
3082.364	780.75
3085.581	799.75
3088.795	812.75
3092.007	830.75
3095.216	851.75
3098.423	872.75
3101.627	881.75
3104.828	920.75
3108.026	948.75
3111.222	942.75
3114.416	983.75
3117.607	984.75
3120.795	1002.75
3123.98	1030.75
3127.163	1071.75
3130.344	1084.75
3133.521	1109.75
3136.696	1128.75
3139.869	1150.75
3143.039	1170.75
3146.206	1196.75
3149.371	1211.75
3152.533	1223.75
3155.693	1235.75
3158.85	1225.75
3162.005	1266.75
3165.157	1251.75
3168.306	1259.75
3171.453	1244.75
3174.597	1277.75
3177.739	1270.75
3180.878	1267.75
3184.014	1286.75
3187.149	1262.75
3190.28	1279.75
3193.409	1297.75
3196.536	1292.75
3199.659	1298.75
3202.781	1293.75
3205.9	1302.75
3209.016	1304.75
3212.13	1304.75
3215.241	1312.75
3218.35	1284.75
3221.456	1271.75
3224.56	1262.75
3227.661	1248.75
3230.76	1238.75
3233.856	1238.75
3236.95	1216.75
3240.041	1211.75
3243.13	1206.75
3246.216	1195.75
3249.3	1181.75
3252.382	1166.75
3255.46	1175.75
3258.537	1168.75
3261.611	1167.75
3264.682	1153.75
3267.751	1137.75
3270.818	1136.75
3273.882	1131.75
3276.943	1135.75
3280.002	1128.75
3283.059	1101.75
3286.113	1101.75
3289.165	1095.75
3292.214	1080.75
3295.261	1044.75
3298.306	1035.75
3301.348	1038.75
3304.387	1015.75
3307.425	988.75
3310.459	989.75
3313.492	971.75
3316.521	954.75
3319.549	936.75
3322.574	943.75
3325.597	922.75
3328.617	915.75
3331.635	917.75
3334.65	914.75
3337.663	903.75
3340.674	900.75
3343.682	910.75
3346.688	891.75
3349.691	899.75
3352.692	896.75
3355.691	877.75
3358.687	865.75
3361.681	866.75
3364.673	855.75
3367.662	840.75
3370.649	840.75
3373.633	834.75
3376.615	802.75
3379.595	805.75
3382.572	790.75
3385.547	768.75
3388.52	774.75
3391.49	746.75
3394.458	759.75
3397.424	749.75
3400.387	735.75
3403.348	735.75
3406.307	727.75
3409.263	705.75
3412.217	698.75
3415.168	699.75
3418.118	684.75
3421.065	665.75
3424.009	665.75
3426.951	657.75
3429.891	637.75
3432.829	625.75
3435.764	628.75
3438.697	614.75
3441.628	593.75
3444.557	580.75
3447.483	573.75
3450.407	557.75
3453.328	541.75
3456.247	521.75
3459.164	510.75
3462.079	497.75
3464.991	490.75
3467.902	456.75
3470.809	443.75
3473.715	424.75
3476.618	424.75
3479.519	405.75
3482.418	393.75
3485.315	387.75
3488.209	372.75
3491.101	364.75
3493.99	352.75
3496.878	345.75
3499.763	336.75
3502.646	323.75
3505.527	307.75
3508.405	293.75
3511.281	289.75
3514.155	273.75
3517.027	265.75
3519.897	254.75
3522.764	238.75
3525.629	221.75
3528.492	202.75
3531.352	203.75
3534.211	187.75
3537.067	177.75
3539.921	169.75
3542.773	149.75
3545.622	155.75
3548.469	141.75
3551.315	126.75
3554.157	119.75
3556.998	109.75
3559.837	110.75
3562.673	101.75
3565.507	95.75
3568.339	89.75
3571.169	82.75
3573.996	73.75
3576.822	67.75
3579.645	61.75
3582.466	50.75
3585.285	51.75
3588.101	48.75
3590.916	41.75
3593.728	36.75
3596.538	29.75
3599.346	19.75
3602.152	17.75
3604.956	13.75
3607.757	12.75
3610.556	0.75
3613.354	3.75
3616.149	-4.25
3618.942	-9.25
3621.732	-15.25
3624.521	-10.25
3627.307	-21.25
3630.092	-19.25
3632.874	-25.25
3635.654	-28.25
3638.432	-33.25
3641.208	-36.25
3643.982	-36.25
3646.753	-38.25
3649.523	-42.25
3652.29	-43.25
3655.055	-48.25
3657.818	-45.25
3660.579	-46.25
3663.338	-58.25
3666.095	-56.25
3668.849	-61.25
3671.602	-66.25
3674.352	-69.25
3677.101	-71.25
3679.847	-74.25
3682.591	-74.25
3685.333	-74.25
3688.073	-81.25
3690.811	-74.25
3693.547	-77.25
3696.281	-81.25
3699.013	-79.25
3701.742	-79.25
3704.47	-89.25
3707.195	-81.25
3709.919	-85.25
3712.64	-86.25
3715.359	-94.25
3718.076	-93.25
3720.792	-98.25
3723.505	-95.25
3726.216	-96.25
3728.925	-95.25
3731.632	-93.25
3734.336	-97.25
3737.039	-97.25
3739.74	-98.25
3742.439	-96.25
3745.136	-96.25
3747.83	-97.25
3750.523	-95.25
3753.213	-103.25
3755.902	-102.25
3758.589	-105.25
3761.273	-100.25
3763.956	-107.25
3766.636	-106.25
3769.315	-107.25
3771.991	-108.25
3774.665	-107.25
3777.338	-104.25
3780.008	-107.25
3782.677	-106.25
3785.343	-106.25
3788.007	-104.25
3790.67	-107.25
3793.33	-106.25
3795.989	-105.25
3798.645	-109.25
3801.299	-106.25
3803.952	-109.25
3806.602	-104.25
3809.251	-107.25
3811.897	-109.25
3814.542	-105.25
3817.184	-112.25
3819.825	-106.25
3822.463	-107.25
3825.1	-108.25
3827.735	-110.25
3830.367	-110.25
3832.998	-116.25
3835.627	-111.25
3838.253	-113.25
3840.878	-111.25
3843.501	-112.25
3846.122	-113.25
3848.741	-112.25
3851.358	-113.25
3853.973	-111.25
3856.586	-112.25
3859.197	-111.25
3861.806	-116.25
3864.414	-114.25
3867.019	-116.25
3869.622	-114.25
3872.224	-116.25
3874.823	-111.25
3877.421	-108.25
3880.016	-105.25
3882.61	-103.25
3885.202	-105.25
3887.792	-105.25
3890.38	-106.25
3892.966	-113.25
3895.55	-112.25
3898.132	-113.25
3900.713	-116.25
3903.291	-110.25
3905.868	-116.25
3908.442	-118.25
3911.015	-118.25
3913.586	-121.25
3916.155	-114.25
3918.722	-115.25
3921.287	-116.25
3923.85	-117.25
3926.411	-118.25
3928.971	-118.25
3931.528	-116.25
3934.084	-120.25
3936.638	-117.25
3939.19	-119.25
3941.74	-117.25
3944.288	-120.25
3946.834	-122.25
3949.378	-122.25
3951.921	-123.25
3954.462	-120.25
3957	-120.25
3959.537	-123.25
3962.072	-118.25
3964.606	-115.25
3967.137	-117.25
3969.667	-116.25
3972.194	-117.25
3974.72	-115.25
3977.244	-113.25
3979.766	-115.25
3982.286	-118.25
3984.805	-119.25
3987.321	-118.25
3989.836	-115.25
3992.349	-117.25
3994.86	-118.25
3997.369	-117.25
3999.877	-116.25
4002.382	-118.25
4004.886	-114.25
4007.388	-112.25
4009.888	-113.25
4012.386	-114.25
4014.883	-116.25
4017.377	-115.25
4019.87	-115.25
4022.361	-115.25
4024.85	-117.25
4027.338	-120.25
4029.823	-116.25
4032.307	-116.25
4034.789	-120.25
4037.269	-119.25
4039.747	-122.25
4042.224	-116.25
4044.699	-120.25
4047.172	-118.25
4049.643	-116.25
4052.112	-115.25
4054.58	-116.25
4057.046	-116.25
4059.51	-117.25
4061.972	-120.25
4064.432	-116.25
4066.891	-116.25
4069.348	-116.25
4071.803	-117.25
4074.256	-119.25
4076.708	-118.25
4079.158	-120.25
4081.606	-114.25
4084.052	-121.25
4086.497	-115.25
4088.939	-116.25
4091.38	-116.25
4093.819	-118.25
4096.257	-119.25
4098.693	-122.25
4101.127	-123.25
4103.559	-119.25
4105.989	-79.25
4108.418	-77.25
4110.845	-75.25
4113.27	-67.25
4115.694	-63.25
4118.115	-56.25
4120.535	-118.25
4122.954	-121.25
4125.37	-118.25
4127.785	-116.25
4130.198	-122.25
4132.609	-117.25
4135.019	-122.25
4137.427	-124.25
4139.833	-122.25
4142.237	-126.25
