Data from 1000CFU3_A_RamanShift_1.txt Node
Date: Wed Jan 25 11:54:51 IST 2017
User: aro
Spectrometer: QEPB0276
Trigger mode: 0
Integration Time (sec): 5.000000E0
Scans to average: 1
Electric dark correction enabled: true
Nonlinearity correction enabled: false
Boxcar width: 0
XAxis mode: Raman Shifts
Number of Pixels in Spectrum: 1044
>>>>>Begin Spectral Data<<<<<
160.701	-41.38
166.742	-1.38
172.777	107.62
178.805	443.62
184.826	1234.62
190.841	2518.62
196.849	3886.62
202.85	4739.62
208.845	4943.62
214.833	4746.62
220.815	4600.62
226.789	4456.62
232.758	4352.62
238.719	4221.62
244.674	4084.62
250.623	3879.62
256.565	3747.62
262.5	3537.62
268.429	3390.62
274.351	3282.62
280.267	3145.62
286.176	3077.62
292.079	2975.62
297.975	2879.62
303.865	2799.62
309.748	2713.62
315.625	2636.62
321.495	2590.62
327.359	2528.62
333.217	2537.62
339.068	2528.62
344.912	2496.62
350.751	2495.62
356.583	2484.62
362.408	2467.62
368.227	2475.62
374.04	2477.62
379.847	2484.62
385.647	2509.62
391.44	2525.62
397.228	2515.62
403.009	2560.62
408.784	2573.62
414.553	2559.62
420.315	2570.62
426.071	2578.62
431.821	2567.62
437.565	2572.62
443.302	2555.62
449.033	2559.62
454.758	2548.62
460.477	2524.62
466.189	2527.62
471.896	2511.62
477.596	2503.62
483.29	2500.62
488.978	2480.62
494.66	2455.62
500.335	2445.62
506.005	2380.62
511.668	2341.62
517.325	2311.62
522.977	2295.62
528.622	2235.62
534.261	2227.62
539.894	2175.62
545.521	2174.62
551.141	2167.62
556.756	2154.62
562.365	2147.62
567.968	2137.62
573.565	2113.62
579.155	2082.62
584.74	2108.62
590.319	2081.62
595.892	2054.62
601.459	2058.62
607.02	2032.62
612.575	2018.62
618.124	1995.62
623.667	1962.62
629.204	1966.62
634.735	1944.62
640.261	1943.62
645.781	1946.62
651.294	1928.62
656.802	1912.62
662.304	1911.62
667.8	1884.62
673.29	1889.62
678.775	1885.62
684.254	1875.62
689.726	1859.62
695.193	1843.62
700.655	1856.62
706.11	1824.62
711.56	1827.62
717.004	1818.62
722.442	1794.62
727.874	1795.62
733.301	1783.62
738.722	1775.62
744.137	1764.62
749.547	1764.62
754.951	1755.62
760.349	1769.62
765.741	1755.62
771.128	1744.62
776.509	1755.62
781.885	1761.62
787.254	1760.62
792.618	1734.62
797.977	1731.62
803.33	1703.62
808.677	1715.62
814.019	1699.62
819.355	1687.62
824.686	1669.62
830.011	1649.62
835.33	1641.62
840.644	1637.62
845.952	1623.62
851.255	1617.62
856.552	1624.62
861.844	1607.62
867.13	1600.62
872.41	1587.62
877.686	1576.62
882.955	1573.62
888.219	1548.62
893.478	1525.62
898.731	1476.62
903.979	1466.62
909.221	1474.62
914.458	1448.62
919.69	1461.62
924.916	1456.62
930.136	1440.62
935.351	1434.62
940.561	1434.62
945.766	1430.62
950.965	1422.62
956.158	1424.62
961.347	1406.62
966.529	1372.62
971.707	1370.62
976.879	1341.62
982.046	1349.62
987.208	1332.62
992.364	1303.62
997.515	1314.62
1002.66	1342.62
1007.801	1341.62
1012.936	1390.62
1018.066	1373.62
1023.19	1401.62
1028.309	1406.62
1033.423	1369.62
1038.532	1364.62
1043.636	1372.62
1048.734	1349.62
1053.827	1328.62
1058.915	1321.62
1063.998	1317.62
1069.075	1313.62
1074.147	1307.62
1079.214	1329.62
1084.276	1333.62
1089.333	1344.62
1094.385	1360.62
1099.431	1369.62
1104.472	1359.62
1109.509	1356.62
1114.54	1359.62
1119.565	1328.62
1124.586	1325.62
1129.602	1297.62
1134.613	1292.62
1139.618	1280.62
1144.619	1274.62
1149.614	1286.62
1154.604	1287.62
1159.589	1304.62
1164.57	1312.62
1169.545	1327.62
1174.515	1316.62
1179.48	1312.62
1184.44	1299.62
1189.395	1289.62
1194.345	1278.62
1199.29	1276.62
1204.23	1297.62
1209.165	1303.62
1214.095	1313.62
1219.021	1300.62
1223.941	1337.62
1228.856	1324.62
1233.766	1345.62
1238.672	1348.62
1243.572	1344.62
1248.467	1333.62
1253.358	1311.62
1258.244	1285.62
1263.124	1286.62
1268	1248.62
1272.871	1233.62
1277.737	1254.62
1282.599	1238.62
1287.455	1236.62
1292.306	1245.62
1297.153	1259.62
1301.995	1260.62
1306.832	1282.62
1311.664	1272.62
1316.491	1277.62
1321.314	1272.62
1326.132	1274.62
1330.945	1254.62
1335.753	1234.62
1340.556	1215.62
1345.354	1201.62
1350.148	1197.62
1354.937	1194.62
1359.722	1182.62
1364.501	1164.62
1369.276	1143.62
1374.046	1164.62
1378.811	1146.62
1383.572	1133.62
1388.327	1137.62
1393.079	1147.62
1397.825	1132.62
1402.567	1132.62
1407.304	1130.62
1412.036	1115.62
1416.764	1121.62
1421.487	1112.62
1426.205	1108.62
1430.919	1124.62
1435.628	1145.62
1440.333	1152.62
1445.032	1163.62
1449.727	1163.62
1454.418	1166.62
1459.104	1174.62
1463.785	1162.62
1468.462	1146.62
1473.134	1136.62
1477.802	1119.62
1482.465	1122.62
1487.123	1130.62
1491.777	1125.62
1496.426	1131.62
1501.071	1128.62
1505.711	1149.62
1510.347	1157.62
1514.978	1169.62
1519.604	1182.62
1524.226	1181.62
1528.844	1176.62
1533.457	1186.62
1538.065	1186.62
1542.669	1171.62
1547.269	1173.62
1551.864	1180.62
1556.454	1183.62
1561.041	1201.62
1565.622	1237.62
1570.199	1231.62
1574.772	1232.62
1579.34	1287.62
1583.904	1288.62
1588.464	1312.62
1593.019	1317.62
1597.569	1330.62
1602.115	1334.62
1606.657	1353.62
1611.195	1359.62
1615.728	1391.62
1620.256	1405.62
1624.78	1409.62
1629.3	1424.62
1633.816	1463.62
1638.327	1475.62
1642.834	1505.62
1647.336	1501.62
1651.834	1505.62
1656.328	1516.62
1660.817	1497.62
1665.302	1476.62
1669.783	1423.62
1674.259	1410.62
1678.732	1348.62
1683.199	1318.62
1687.663	1276.62
1692.122	1232.62
1696.577	1172.62
1701.028	1156.62
1705.474	1087.62
1709.917	1074.62
1714.355	1037.62
1718.788	1033.62
1723.218	1011.62
1727.643	1015.62
1732.064	974.62
1736.481	938.62
1740.893	941.62
1745.301	889.62
1749.705	888.62
1754.105	862.62
1758.501	844.62
1762.893	823.62
1767.28	818.62
1771.663	811.62
1776.042	807.62
1780.417	819.62
1784.787	808.62
1789.154	801.62
1793.516	803.62
1797.874	807.62
1802.228	789.62
1806.578	786.62
1810.924	782.62
1815.266	756.62
1819.603	741.62
1823.937	747.62
1828.266	730.62
1832.591	735.62
1836.913	733.62
1841.23	725.62
1845.543	725.62
1849.852	725.62
1854.156	738.62
1858.457	736.62
1862.754	744.62
1867.047	743.62
1871.335	741.62
1875.62	729.62
1879.9	742.62
1884.177	751.62
1888.449	749.62
1892.718	732.62
1896.982	731.62
1901.243	732.62
1905.499	719.62
1909.752	733.62
1914	731.62
1918.245	734.62
1922.485	726.62
1926.722	738.62
1930.954	732.62
1935.183	732.62
1939.408	746.62
1943.628	736.62
1947.845	726.62
1952.058	744.62
1956.267	729.62
1960.472	721.62
1964.673	723.62
1968.87	720.62
1973.063	714.62
1977.252	705.62
1981.438	704.62
1985.619	699.62
1989.797	695.62
1993.971	697.62
1998.14	696.62
2002.306	699.62
2006.469	701.62
2010.627	709.62
2014.781	712.62
2018.932	709.62
2023.078	715.62
2027.221	703.62
2031.36	693.62
2035.495	697.62
2039.627	689.62
2043.754	679.62
2047.878	686.62
2051.998	694.62
2056.114	682.62
2060.226	693.62
2064.334	696.62
2068.439	694.62
2072.54	688.62
2076.637	696.62
2080.73	703.62
2084.82	700.62
2088.906	700.62
2092.988	706.62
2097.066	711.62
2101.14	705.62
2105.211	693.62
2109.278	685.62
2113.342	680.62
2117.401	690.62
2121.457	668.62
2125.509	676.62
2129.558	665.62
2133.602	662.62
2137.643	661.62
2141.681	665.62
2145.714	664.62
2149.744	659.62
2153.77	648.62
2157.793	641.62
2161.812	650.62
2165.827	643.62
2169.838	627.62
2173.846	630.62
2177.851	606.62
2181.851	606.62
2185.848	598.62
2189.841	596.62
2193.831	587.62
2197.817	575.62
2201.799	567.62
2205.778	570.62
2209.753	574.62
2213.725	570.62
2217.693	576.62
2221.657	574.62
2225.618	570.62
2229.575	569.62
2233.529	564.62
2237.479	567.62
2241.425	552.62
2245.368	550.62
2249.307	536.62
2253.243	532.62
2257.175	526.62
2261.104	523.62
2265.029	507.62
2268.95	511.62
2272.868	499.62
2276.783	494.62
2280.694	481.62
2284.601	484.62
2288.505	471.62
2292.405	466.62
2296.302	456.62
2300.195	461.62
2304.085	447.62
2307.971	443.62
2311.854	430.62
2315.734	437.62
2319.609	416.62
2323.482	420.62
2327.351	417.62
2331.216	413.62
2335.078	414.62
2338.937	401.62
2342.792	399.62
2346.643	395.62
2350.492	400.62
2354.336	400.62
2358.178	396.62
2362.015	403.62
2365.85	398.62
2369.681	408.62
2373.508	412.62
2377.333	412.62
2381.153	397.62
2384.971	406.62
2388.785	396.62
2392.595	389.62
2396.402	385.62
2400.206	388.62
2404.007	401.62
2407.804	387.62
2411.597	384.62
2415.388	388.62
2419.174	389.62
2422.958	381.62
2426.738	383.62
2430.515	373.62
2434.289	375.62
2438.059	380.62
2441.825	378.62
2445.589	369.62
2449.349	360.62
2453.106	366.62
2456.859	356.62
2460.61	353.62
2464.356	356.62
2468.1	354.62
2471.84	353.62
2475.577	347.62
2479.311	348.62
2483.041	348.62
2486.768	346.62
2490.492	345.62
2494.213	345.62
2497.93	349.62
2501.644	342.62
2505.355	345.62
2509.062	350.62
2512.766	339.62
2516.467	340.62
2520.165	332.62
2523.859	330.62
2527.551	338.62
2531.239	328.62
2534.923	320.62
2538.605	326.62
2542.283	320.62
2545.958	315.62
2549.63	319.62
2553.299	313.62
2556.964	321.62
2560.626	315.62
2564.285	313.62
2567.941	317.62
2571.594	307.62
2575.243	299.62
2578.89	299.62
2582.533	303.62
2586.173	297.62
2589.809	290.62
2593.443	288.62
2597.073	292.62
2600.701	281.62
2604.325	286.62
2607.946	292.62
2611.564	285.62
2615.178	290.62
2618.79	279.62
2622.398	282.62
2626.004	284.62
2629.606	277.62
2633.205	278.62
2636.801	281.62
2640.394	273.62
2643.983	274.62
2647.57	267.62
2651.153	271.62
2654.734	253.62
2658.311	258.62
2661.885	252.62
2665.456	250.62
2669.025	250.62
2672.589	241.62
2676.151	245.62
2679.71	247.62
2683.266	241.62
2686.819	237.62
2690.368	242.62
2693.915	236.62
2697.458	232.62
2700.999	229.62
2704.536	229.62
2708.071	225.62
2711.602	215.62
2715.13	220.62
2718.656	223.62
2722.178	221.62
2725.697	219.62
2729.214	221.62
2732.727	223.62
2736.237	216.62
2739.744	222.62
2743.249	226.62
2746.75	215.62
2750.248	229.62
2753.743	224.62
2757.236	216.62
2760.725	213.62
2764.211	217.62
2767.695	219.62
2771.175	215.62
2774.652	207.62
2778.127	211.62
2781.598	208.62
2785.067	210.62
2788.532	209.62
2791.995	207.62
2795.455	208.62
2798.911	216.62
2802.365	215.62
2805.816	213.62
2809.264	215.62
2812.709	216.62
2816.151	214.62
2819.59	213.62
2823.026	214.62
2826.46	214.62
2829.89	220.62
2833.318	220.62
2836.742	218.62
2840.164	216.62
2843.583	221.62
2846.999	226.62
2850.412	226.62
2853.822	222.62
2857.229	230.62
2860.634	238.62
2864.035	230.62
2867.434	241.62
2870.83	244.62
2874.223	242.62
2877.613	259.62
2881	251.62
2884.385	252.62
2887.766	254.62
2891.145	250.62
2894.521	246.62
2897.894	245.62
2901.264	257.62
2904.631	261.62
2907.996	259.62
2911.358	263.62
2914.717	262.62
2918.073	270.62
2921.426	271.62
2924.777	282.62
2928.124	277.62
2931.469	281.62
2934.811	287.62
2938.15	296.62
2941.487	297.62
2944.821	309.62
2948.152	302.62
2951.48	311.62
2954.805	316.62
2958.128	323.62
2961.447	319.62
2964.765	335.62
2968.079	331.62
2971.39	349.62
2974.699	345.62
2978.005	366.62
2981.308	362.62
2984.609	382.62
2987.907	390.62
2991.202	397.62
2994.494	399.62
2997.784	425.62
3001.07	411.62
3004.355	434.62
3007.636	453.62
3010.915	458.62
3014.191	480.62
3017.464	488.62
3020.734	493.62
3024.002	504.62
3027.267	497.62
3030.53	500.62
3033.789	528.62
3037.046	531.62
3040.301	546.62
3043.552	555.62
3046.801	563.62
3050.048	574.62
3053.291	598.62
3056.532	620.62
3059.771	633.62
3063.006	658.62
3066.239	677.62
3069.469	698.62
3072.697	720.62
3075.922	740.62
3079.144	756.62
3082.364	774.62
3085.581	795.62
3088.795	813.62
3092.007	837.62
3095.216	851.62
3098.423	876.62
3101.627	885.62
3104.828	894.62
3108.026	916.62
3111.222	948.62
3114.416	971.62
3117.607	983.62
3120.795	998.62
3123.98	1033.62
3127.163	1067.62
3130.344	1084.62
3133.521	1106.62
3136.696	1133.62
3139.869	1159.62
3143.039	1161.62
3146.206	1180.62
3149.371	1198.62
3152.533	1219.62
3155.693	1224.62
3158.85	1235.62
3162.005	1233.62
3165.157	1241.62
3168.306	1264.62
3171.453	1239.62
3174.597	1251.62
3177.739	1260.62
3180.878	1259.62
3184.014	1265.62
3187.149	1262.62
3190.28	1282.62
3193.409	1288.62
3196.536	1270.62
3199.659	1285.62
3202.781	1293.62
3205.9	1297.62
3209.016	1288.62
3212.13	1286.62
3215.241	1288.62
3218.35	1273.62
3221.456	1246.62
3224.56	1250.62
3227.661	1222.62
3230.76	1226.62
3233.856	1189.62
3236.95	1192.62
3240.041	1188.62
3243.13	1185.62
3246.216	1158.62
3249.3	1146.62
3252.382	1150.62
3255.46	1150.62
3258.537	1146.62
3261.611	1158.62
3264.682	1153.62
3267.751	1134.62
3270.818	1121.62
3273.882	1113.62
3276.943	1119.62
3280.002	1106.62
3283.059	1104.62
3286.113	1085.62
3289.165	1080.62
3292.214	1075.62
3295.261	1054.62
3298.306	1026.62
3301.348	1015.62
3304.387	991.62
3307.425	975.62
3310.459	985.62
3313.492	961.62
3316.521	943.62
3319.549	940.62
3322.574	926.62
3325.597	926.62
3328.617	909.62
3331.635	914.62
3334.65	919.62
3337.663	907.62
3340.674	889.62
3343.682	893.62
3346.688	896.62
3349.691	898.62
3352.692	876.62
3355.691	879.62
3358.687	872.62
3361.681	852.62
3364.673	847.62
3367.662	830.62
3370.649	811.62
3373.633	808.62
3376.615	803.62
3379.595	799.62
3382.572	775.62
3385.547	773.62
3388.52	762.62
3391.49	761.62
3394.458	736.62
3397.424	728.62
3400.387	727.62
3403.348	709.62
3406.307	707.62
3409.263	705.62
3412.217	703.62
3415.168	685.62
3418.118	667.62
3421.065	665.62
3424.009	651.62
3426.951	644.62
3429.891	646.62
3432.829	640.62
3435.764	615.62
3438.697	602.62
3441.628	593.62
3444.557	573.62
3447.483	558.62
3450.407	536.62
3453.328	520.62
3456.247	507.62
3459.164	493.62
3462.079	480.62
3464.991	466.62
3467.902	448.62
3470.809	431.62
3473.715	424.62
3476.618	405.62
3479.519	406.62
3482.418	384.62
3485.315	377.62
3488.209	360.62
3491.101	358.62
3493.99	339.62
3496.878	323.62
3499.763	326.62
3502.646	306.62
3505.527	290.62
3508.405	287.62
3511.281	279.62
3514.155	265.62
3517.027	248.62
3519.897	232.62
3522.764	228.62
3525.629	208.62
3528.492	193.62
3531.352	184.62
3534.211	176.62
3537.067	168.62
3539.921	152.62
3542.773	145.62
3545.622	139.62
3548.469	127.62
3551.315	115.62
3554.157	118.62
3556.998	101.62
3559.837	98.62
3562.673	94.62
3565.507	89.62
3568.339	77.62
3571.169	73.62
3573.996	66.62
3576.822	60.62
3579.645	51.62
3582.466	44.62
3585.285	45.62
3588.101	37.62
3590.916	29.62
3593.728	31.62
3596.538	21.62
3599.346	18.62
3602.152	13.62
3604.956	4.62
3607.757	5.62
3610.556	0.62
3613.354	-1.38
3616.149	-7.38
3618.942	-14.38
3621.732	-23.38
3624.521	-21.38
3627.307	-26.38
3630.092	-26.38
3632.874	-30.38
3635.654	-32.38
3638.432	-37.38
3641.208	-41.38
3643.982	-42.38
3646.753	-44.38
3649.523	-45.38
3652.29	-49.38
3655.055	-54.38
3657.818	-51.38
3660.579	-54.38
3663.338	-58.38
3666.095	-58.38
3668.849	-66.38
3671.602	-71.38
3674.352	-70.38
3677.101	-76.38
3679.847	-73.38
3682.591	-76.38
3685.333	-81.38
3688.073	-84.38
3690.811	-85.38
3693.547	-91.38
3696.281	-85.38
3699.013	-88.38
3701.742	-89.38
3704.47	-89.38
3707.195	-91.38
3709.919	-90.38
3712.64	-93.38
3715.359	-89.38
3718.076	-94.38
3720.792	-97.38
3723.505	-102.38
3726.216	-98.38
3728.925	-99.38
3731.632	-98.38
3734.336	-104.38
3737.039	-103.38
3739.74	-104.38
3742.439	-103.38
3745.136	-101.38
3747.83	-100.38
3750.523	-102.38
3753.213	-100.38
3755.902	-104.38
3758.589	-104.38
3761.273	-105.38
3763.956	-108.38
3766.636	-108.38
3769.315	-108.38
3771.991	-113.38
3774.665	-115.38
3777.338	-113.38
3780.008	-113.38
3782.677	-114.38
3785.343	-114.38
3788.007	-113.38
3790.67	-107.38
3793.33	-108.38
3795.989	-111.38
3798.645	-110.38
3801.299	-110.38
3803.952	-113.38
3806.602	-111.38
3809.251	-113.38
3811.897	-118.38
3814.542	-117.38
3817.184	-117.38
3819.825	-117.38
3822.463	-120.38
3825.1	-118.38
3827.735	-114.38
3830.367	-115.38
3832.998	-118.38
3835.627	-114.38
3838.253	-114.38
3840.878	-111.38
3843.501	-115.38
3846.122	-120.38
3848.741	-114.38
3851.358	-113.38
3853.973	-120.38
3856.586	-124.38
3859.197	-118.38
3861.806	-119.38
3864.414	-118.38
3867.019	-122.38
3869.622	-117.38
3872.224	-118.38
3874.823	-116.38
3877.421	-114.38
3880.016	-107.38
3882.61	-107.38
3885.202	-109.38
3887.792	-110.38
3890.38	-116.38
3892.966	-119.38
3895.55	-117.38
3898.132	-120.38
3900.713	-123.38
3903.291	-121.38
3905.868	-123.38
3908.442	-125.38
3911.015	-124.38
3913.586	-125.38
3916.155	-117.38
3918.722	-117.38
3921.287	-121.38
3923.85	-121.38
3926.411	-122.38
3928.971	-123.38
3931.528	-123.38
3934.084	-123.38
3936.638	-123.38
3939.19	-128.38
3941.74	-124.38
3944.288	-124.38
3946.834	-129.38
3949.378	-128.38
3951.921	-124.38
3954.462	-125.38
3957	-124.38
3959.537	-123.38
3962.072	-122.38
3964.606	-119.38
3967.137	-119.38
3969.667	-122.38
3972.194	-120.38
3974.72	-120.38
3977.244	-121.38
3979.766	-122.38
3982.286	-123.38
3984.805	-126.38
3987.321	-123.38
3989.836	-124.38
3992.349	-123.38
3994.86	-120.38
3997.369	-117.38
3999.877	-118.38
4002.382	-118.38
4004.886	-118.38
4007.388	-116.38
4009.888	-119.38
4012.386	-122.38
4014.883	-121.38
4017.377	-121.38
4019.87	-123.38
4022.361	-122.38
4024.85	-127.38
4027.338	-126.38
4029.823	-122.38
4032.307	-122.38
4034.789	-123.38
4037.269	-122.38
4039.747	-120.38
4042.224	-121.38
4044.699	-123.38
4047.172	-121.38
4049.643	-122.38
4052.112	-122.38
4054.58	-124.38
4057.046	-125.38
4059.51	-123.38
4061.972	-124.38
4064.432	-124.38
4066.891	-127.38
4069.348	-121.38
4071.803	-122.38
4074.256	-125.38
4076.708	-120.38
4079.158	-121.38
4081.606	-124.38
4084.052	-121.38
4086.497	-119.38
4088.939	-121.38
4091.38	-122.38
4093.819	-120.38
4096.257	-121.38
4098.693	-125.38
4101.127	-129.38
4103.559	-127.38
4105.989	-80.38
4108.418	-83.38
4110.845	-82.38
4113.27	-73.38
4115.694	-64.38
4118.115	-56.38
4120.535	-123.38
4122.954	-126.38
4125.37	-122.38
4127.785	-123.38
4130.198	-126.38
4132.609	-125.38
4135.019	-126.38
4137.427	-127.38
4139.833	-128.38
4142.237	-126.38
