Data from 10000CFU3_B_RamanShift_1.txt Node
Date: Wed Jan 25 12:38:00 IST 2017
User: aro
Spectrometer: QEPB0276
Trigger mode: 0
Integration Time (sec): 5.000000E0
Scans to average: 1
Electric dark correction enabled: true
Nonlinearity correction enabled: false
Boxcar width: 0
XAxis mode: Raman Shifts
Number of Pixels in Spectrum: 1044
>>>>>Begin Spectral Data<<<<<
160.701	-35.5
166.742	-8.5
172.777	104.5
178.805	417.5
184.826	1138.5
190.841	2332.5
196.849	3644.5
202.85	4487.5
208.845	4656.5
214.833	4493.5
220.815	4373.5
226.789	4234.5
232.758	4106.5
238.719	4019.5
244.674	3829.5
250.623	3679.5
256.565	3509.5
262.5	3331.5
268.429	3191.5
274.351	3080.5
280.267	2966.5
286.176	2878.5
292.079	2768.5
297.975	2711.5
303.865	2609.5
309.748	2537.5
315.625	2493.5
321.495	2433.5
327.359	2398.5
333.217	2381.5
339.068	2340.5
344.912	2321.5
350.751	2335.5
356.583	2306.5
362.408	2310.5
368.227	2313.5
374.04	2322.5
379.847	2326.5
385.647	2338.5
391.44	2344.5
397.228	2364.5
403.009	2368.5
408.784	2395.5
414.553	2377.5
420.315	2396.5
426.071	2414.5
431.821	2396.5
437.565	2406.5
443.302	2392.5
449.033	2385.5
454.758	2379.5
460.477	2365.5
466.189	2375.5
471.896	2356.5
477.596	2350.5
483.29	2316.5
488.978	2307.5
494.66	2312.5
500.335	2288.5
506.005	2258.5
511.668	2211.5
517.325	2156.5
522.977	2127.5
528.622	2099.5
534.261	2087.5
539.894	2060.5
545.521	2050.5
551.141	2053.5
556.756	2035.5
562.365	2020.5
567.968	2006.5
573.565	2014.5
579.155	1979.5
584.74	1978.5
590.319	1981.5
595.892	1950.5
601.459	1954.5
607.02	1927.5
612.575	1907.5
618.124	1894.5
623.667	1867.5
629.204	1855.5
634.735	1825.5
640.261	1829.5
645.781	1800.5
651.294	1798.5
656.802	1802.5
662.304	1808.5
667.8	1801.5
673.29	1796.5
678.775	1799.5
684.254	1764.5
689.726	1762.5
695.193	1763.5
700.655	1757.5
706.11	1742.5
711.56	1730.5
717.004	1718.5
722.442	1692.5
727.874	1695.5
733.301	1686.5
738.722	1677.5
744.137	1661.5
749.547	1668.5
754.951	1676.5
760.349	1685.5
765.741	1662.5
771.128	1665.5
776.509	1684.5
781.885	1670.5
787.254	1653.5
792.618	1663.5
797.977	1648.5
803.33	1641.5
808.677	1631.5
814.019	1620.5
819.355	1613.5
824.686	1562.5
830.011	1558.5
835.33	1555.5
840.644	1559.5
845.952	1550.5
851.255	1546.5
856.552	1542.5
861.844	1527.5
867.13	1524.5
872.41	1525.5
877.686	1506.5
882.955	1488.5
888.219	1469.5
893.478	1452.5
898.731	1423.5
903.979	1409.5
909.221	1399.5
914.458	1385.5
919.69	1382.5
924.916	1387.5
930.136	1384.5
935.351	1377.5
940.561	1377.5
945.766	1379.5
950.965	1369.5
956.158	1343.5
961.347	1359.5
966.529	1325.5
971.707	1297.5
976.879	1287.5
982.046	1285.5
987.208	1279.5
992.364	1272.5
997.515	1297.5
1002.66	1301.5
1007.801	1322.5
1012.936	1313.5
1018.066	1322.5
1023.19	1331.5
1028.309	1344.5
1033.423	1340.5
1038.532	1335.5
1043.636	1323.5
1048.734	1296.5
1053.827	1297.5
1058.915	1280.5
1063.998	1273.5
1069.075	1267.5
1074.147	1287.5
1079.214	1261.5
1084.276	1297.5
1089.333	1308.5
1094.385	1320.5
1099.431	1317.5
1104.472	1326.5
1109.509	1323.5
1114.54	1293.5
1119.565	1287.5
1124.586	1278.5
1129.602	1251.5
1134.613	1253.5
1139.618	1234.5
1144.619	1248.5
1149.614	1248.5
1154.604	1245.5
1159.589	1258.5
1164.57	1277.5
1169.545	1290.5
1174.515	1275.5
1179.48	1275.5
1184.44	1261.5
1189.395	1256.5
1194.345	1271.5
1199.29	1245.5
1204.23	1252.5
1209.165	1256.5
1214.095	1275.5
1219.021	1296.5
1223.941	1283.5
1228.856	1294.5
1233.766	1291.5
1238.672	1304.5
1243.572	1290.5
1248.467	1275.5
1253.358	1285.5
1258.244	1241.5
1263.124	1238.5
1268	1233.5
1272.871	1206.5
1277.737	1208.5
1282.599	1207.5
1287.455	1212.5
1292.306	1215.5
1297.153	1219.5
1301.995	1236.5
1306.832	1233.5
1311.664	1241.5
1316.491	1242.5
1321.314	1234.5
1326.132	1239.5
1330.945	1231.5
1335.753	1207.5
1340.556	1203.5
1345.354	1185.5
1350.148	1175.5
1354.937	1166.5
1359.722	1156.5
1364.501	1141.5
1369.276	1137.5
1374.046	1122.5
1378.811	1120.5
1383.572	1111.5
1388.327	1118.5
1393.079	1120.5
1397.825	1105.5
1402.567	1097.5
1407.304	1088.5
1412.036	1083.5
1416.764	1089.5
1421.487	1096.5
1426.205	1106.5
1430.919	1116.5
1435.628	1130.5
1440.333	1128.5
1445.032	1126.5
1449.727	1149.5
1454.418	1146.5
1459.104	1154.5
1463.785	1128.5
1468.462	1133.5
1473.134	1120.5
1477.802	1109.5
1482.465	1112.5
1487.123	1091.5
1491.777	1121.5
1496.426	1097.5
1501.071	1121.5
1505.711	1131.5
1510.347	1143.5
1514.978	1174.5
1519.604	1157.5
1524.226	1170.5
1528.844	1169.5
1533.457	1154.5
1538.065	1168.5
1542.669	1168.5
1547.269	1139.5
1551.864	1159.5
1556.454	1176.5
1561.041	1180.5
1565.622	1191.5
1570.199	1199.5
1574.772	1224.5
1579.34	1246.5
1583.904	1259.5
1588.464	1285.5
1593.019	1305.5
1597.569	1306.5
1602.115	1317.5
1606.657	1327.5
1611.195	1336.5
1615.728	1361.5
1620.256	1366.5
1624.78	1384.5
1629.3	1389.5
1633.816	1426.5
1638.327	1439.5
1642.834	1445.5
1647.336	1459.5
1651.834	1493.5
1656.328	1488.5
1660.817	1453.5
1665.302	1443.5
1669.783	1402.5
1674.259	1376.5
1678.732	1344.5
1683.199	1316.5
1687.663	1265.5
1692.122	1225.5
1696.577	1167.5
1701.028	1119.5
1705.474	1089.5
1709.917	1062.5
1714.355	1037.5
1718.788	1032.5
1723.218	1009.5
1727.643	994.5
1732.064	958.5
1736.481	952.5
1740.893	935.5
1745.301	897.5
1749.705	876.5
1754.105	856.5
1758.501	857.5
1762.893	824.5
1767.28	823.5
1771.663	825.5
1776.042	824.5
1780.417	813.5
1784.787	816.5
1789.154	828.5
1793.516	826.5
1797.874	825.5
1802.228	816.5
1806.578	816.5
1810.924	793.5
1815.266	772.5
1819.603	759.5
1823.937	763.5
1828.266	740.5
1832.591	733.5
1836.913	736.5
1841.23	736.5
1845.543	730.5
1849.852	740.5
1854.156	753.5
1858.457	742.5
1862.754	746.5
1867.047	745.5
1871.335	773.5
1875.62	755.5
1879.9	749.5
1884.177	759.5
1888.449	756.5
1892.718	756.5
1896.982	748.5
1901.243	754.5
1905.499	752.5
1909.752	748.5
1914	745.5
1918.245	743.5
1922.485	739.5
1926.722	748.5
1930.954	746.5
1935.183	759.5
1939.408	771.5
1943.628	756.5
1947.845	752.5
1952.058	759.5
1956.267	751.5
1960.472	748.5
1964.673	733.5
1968.87	723.5
1973.063	717.5
1977.252	720.5
1981.438	704.5
1985.619	722.5
1989.797	707.5
1993.971	709.5
1998.14	710.5
2002.306	714.5
2006.469	727.5
2010.627	721.5
2014.781	715.5
2018.932	735.5
2023.078	717.5
2027.221	727.5
2031.36	724.5
2035.495	705.5
2039.627	724.5
2043.754	709.5
2047.878	691.5
2051.998	704.5
2056.114	703.5
2060.226	699.5
2064.334	703.5
2068.439	692.5
2072.54	708.5
2076.637	725.5
2080.73	718.5
2084.82	708.5
2088.906	719.5
2092.988	731.5
2097.066	716.5
2101.14	711.5
2105.211	708.5
2109.278	708.5
2113.342	698.5
2117.401	698.5
2121.457	680.5
2125.509	684.5
2129.558	693.5
2133.602	675.5
2137.643	680.5
2141.681	671.5
2145.714	682.5
2149.744	663.5
2153.77	682.5
2157.793	670.5
2161.812	654.5
2165.827	649.5
2169.838	642.5
2173.846	640.5
2177.851	628.5
2181.851	617.5
2185.848	598.5
2189.841	609.5
2193.831	619.5
2197.817	597.5
2201.799	602.5
2205.778	602.5
2209.753	596.5
2213.725	590.5
2217.693	598.5
2221.657	589.5
2225.618	587.5
2229.575	583.5
2233.529	590.5
2237.479	581.5
2241.425	569.5
2245.368	575.5
2249.307	557.5
2253.243	539.5
2257.175	549.5
2261.104	534.5
2265.029	523.5
2268.95	530.5
2272.868	519.5
2276.783	506.5
2280.694	502.5
2284.601	503.5
2288.505	498.5
2292.405	478.5
2296.302	468.5
2300.195	487.5
2304.085	474.5
2307.971	463.5
2311.854	459.5
2315.734	450.5
2319.609	446.5
2323.482	439.5
2327.351	435.5
2331.216	431.5
2335.078	427.5
2338.937	424.5
2342.792	413.5
2346.643	422.5
2350.492	418.5
2354.336	417.5
2358.178	425.5
2362.015	408.5
2365.85	418.5
2369.681	426.5
2373.508	419.5
2377.333	417.5
2381.153	414.5
2384.971	416.5
2388.785	417.5
2392.595	410.5
2396.402	412.5
2400.206	410.5
2404.007	410.5
2407.804	402.5
2411.597	402.5
2415.388	402.5
2419.174	409.5
2422.958	401.5
2426.738	401.5
2430.515	400.5
2434.289	392.5
2438.059	387.5
2441.825	394.5
2445.589	384.5
2449.349	400.5
2453.106	385.5
2456.859	380.5
2460.61	372.5
2464.356	372.5
2468.1	370.5
2471.84	364.5
2475.577	366.5
2479.311	368.5
2483.041	355.5
2486.768	366.5
2490.492	368.5
2494.213	359.5
2497.93	365.5
2501.644	364.5
2505.355	365.5
2509.062	366.5
2512.766	360.5
2516.467	357.5
2520.165	355.5
2523.859	358.5
2527.551	353.5
2531.239	348.5
2534.923	345.5
2538.605	346.5
2542.283	338.5
2545.958	341.5
2549.63	331.5
2553.299	327.5
2556.964	340.5
2560.626	331.5
2564.285	332.5
2567.941	326.5
2571.594	329.5
2575.243	323.5
2578.89	332.5
2582.533	319.5
2586.173	316.5
2589.809	318.5
2593.443	317.5
2597.073	315.5
2600.701	310.5
2604.325	297.5
2607.946	303.5
2611.564	308.5
2615.178	297.5
2618.79	304.5
2622.398	313.5
2626.004	301.5
2629.606	293.5
2633.205	288.5
2636.801	294.5
2640.394	288.5
2643.983	281.5
2647.57	287.5
2651.153	287.5
2654.734	275.5
2658.311	274.5
2661.885	278.5
2665.456	262.5
2669.025	268.5
2672.589	262.5
2676.151	268.5
2679.71	262.5
2683.266	259.5
2686.819	260.5
2690.368	252.5
2693.915	254.5
2697.458	246.5
2700.999	249.5
2704.536	243.5
2708.071	243.5
2711.602	242.5
2715.13	233.5
2718.656	246.5
2722.178	237.5
2725.697	237.5
2729.214	246.5
2732.727	236.5
2736.237	247.5
2739.744	251.5
2743.249	241.5
2746.75	239.5
2750.248	245.5
2753.743	245.5
2757.236	237.5
2760.725	238.5
2764.211	233.5
2767.695	241.5
2771.175	233.5
2774.652	226.5
2778.127	218.5
2781.598	230.5
2785.067	217.5
2788.532	222.5
2791.995	229.5
2795.455	233.5
2798.911	237.5
2802.365	227.5
2805.816	235.5
2809.264	230.5
2812.709	234.5
2816.151	239.5
2819.59	229.5
2823.026	228.5
2826.46	233.5
2829.89	239.5
2833.318	226.5
2836.742	238.5
2840.164	234.5
2843.583	233.5
2846.999	231.5
2850.412	233.5
2853.822	241.5
2857.229	258.5
2860.634	257.5
2864.035	254.5
2867.434	254.5
2870.83	255.5
2874.223	259.5
2877.613	266.5
2881	265.5
2884.385	267.5
2887.766	265.5
2891.145	254.5
2894.521	263.5
2897.894	264.5
2901.264	264.5
2904.631	265.5
2907.996	271.5
2911.358	271.5
2914.717	276.5
2918.073	285.5
2921.426	285.5
2924.777	288.5
2928.124	288.5
2931.469	297.5
2934.811	300.5
2938.15	301.5
2941.487	310.5
2944.821	318.5
2948.152	304.5
2951.48	325.5
2954.805	326.5
2958.128	325.5
2961.447	323.5
2964.765	333.5
2968.079	341.5
2971.39	360.5
2974.699	367.5
2978.005	367.5
2981.308	367.5
2984.609	388.5
2987.907	389.5
2991.202	407.5
2994.494	416.5
2997.784	420.5
3001.07	431.5
3004.355	444.5
3007.636	444.5
3010.915	469.5
3014.191	466.5
3017.464	480.5
3020.734	485.5
3024.002	490.5
3027.267	499.5
3030.53	506.5
3033.789	517.5
3037.046	528.5
3040.301	542.5
3043.552	552.5
3046.801	568.5
3050.048	587.5
3053.291	593.5
3056.532	607.5
3059.771	636.5
3063.006	644.5
3066.239	663.5
3069.469	678.5
3072.697	713.5
3075.922	715.5
3079.144	738.5
3082.364	772.5
3085.581	781.5
3088.795	800.5
3092.007	812.5
3095.216	835.5
3098.423	851.5
3101.627	862.5
3104.828	882.5
3108.026	891.5
3111.222	928.5
3114.416	957.5
3117.607	956.5
3120.795	980.5
3123.98	1015.5
3127.163	1034.5
3130.344	1056.5
3133.521	1078.5
3136.696	1096.5
3139.869	1119.5
3143.039	1137.5
3146.206	1148.5
3149.371	1168.5
3152.533	1168.5
3155.693	1192.5
3158.85	1201.5
3162.005	1190.5
3165.157	1215.5
3168.306	1212.5
3171.453	1193.5
3174.597	1235.5
3177.739	1215.5
3180.878	1224.5
3184.014	1238.5
3187.149	1239.5
3190.28	1241.5
3193.409	1228.5
3196.536	1239.5
3199.659	1257.5
3202.781	1233.5
3205.9	1247.5
3209.016	1247.5
3212.13	1260.5
3215.241	1240.5
3218.35	1235.5
3221.456	1219.5
3224.56	1209.5
3227.661	1182.5
3230.76	1182.5
3233.856	1181.5
3236.95	1166.5
3240.041	1167.5
3243.13	1152.5
3246.216	1138.5
3249.3	1141.5
3252.382	1136.5
3255.46	1118.5
3258.537	1132.5
3261.611	1095.5
3264.682	1099.5
3267.751	1102.5
3270.818	1104.5
3273.882	1095.5
3276.943	1086.5
3280.002	1077.5
3283.059	1075.5
3286.113	1072.5
3289.165	1030.5
3292.214	1027.5
3295.261	1005.5
3298.306	996.5
3301.348	984.5
3304.387	975.5
3307.425	957.5
3310.459	938.5
3313.492	926.5
3316.521	915.5
3319.549	925.5
3322.574	901.5
3325.597	896.5
3328.617	890.5
3331.635	878.5
3334.65	879.5
3337.663	876.5
3340.674	871.5
3343.682	860.5
3346.688	885.5
3349.691	860.5
3352.692	866.5
3355.691	844.5
3358.687	846.5
3361.681	833.5
3364.673	820.5
3367.662	800.5
3370.649	798.5
3373.633	788.5
3376.615	772.5
3379.595	764.5
3382.572	761.5
3385.547	755.5
3388.52	742.5
3391.49	725.5
3394.458	728.5
3397.424	702.5
3400.387	698.5
3403.348	690.5
3406.307	682.5
3409.263	668.5
3412.217	667.5
3415.168	667.5
3418.118	654.5
3421.065	642.5
3424.009	633.5
3426.951	633.5
3429.891	621.5
3432.829	611.5
3435.764	589.5
3438.697	584.5
3441.628	568.5
3444.557	555.5
3447.483	548.5
3450.407	539.5
3453.328	517.5
3456.247	491.5
3459.164	485.5
3462.079	475.5
3464.991	443.5
3467.902	442.5
3470.809	424.5
3473.715	407.5
3476.618	402.5
3479.519	385.5
3482.418	375.5
3485.315	362.5
3488.209	360.5
3491.101	350.5
3493.99	341.5
3496.878	325.5
3499.763	318.5
3502.646	315.5
3505.527	300.5
3508.405	281.5
3511.281	275.5
3514.155	256.5
3517.027	248.5
3519.897	232.5
3522.764	230.5
3525.629	208.5
3528.492	204.5
3531.352	193.5
3534.211	175.5
3537.067	170.5
3539.921	160.5
3542.773	142.5
3545.622	149.5
3548.469	132.5
3551.315	127.5
3554.157	122.5
3556.998	103.5
3559.837	101.5
3562.673	94.5
3565.507	89.5
3568.339	82.5
3571.169	80.5
3573.996	68.5
3576.822	64.5
3579.645	65.5
3582.466	45.5
3585.285	49.5
3588.101	44.5
3590.916	33.5
3593.728	28.5
3596.538	28.5
3599.346	20.5
3602.152	14.5
3604.956	11.5
3607.757	6.5
3610.556	3.5
3613.354	0.5
3616.149	-1.5
3618.942	-3.5
3621.732	-10.5
3624.521	-11.5
3627.307	-22.5
3630.092	-21.5
3632.874	-22.5
3635.654	-24.5
3638.432	-29.5
3641.208	-34.5
3643.982	-33.5
3646.753	-35.5
3649.523	-35.5
3652.29	-40.5
3655.055	-46.5
3657.818	-46.5
3660.579	-46.5
3663.338	-58.5
3666.095	-54.5
3668.849	-56.5
3671.602	-60.5
3674.352	-59.5
3677.101	-65.5
3679.847	-68.5
3682.591	-67.5
3685.333	-68.5
3688.073	-70.5
3690.811	-73.5
3693.547	-73.5
3696.281	-76.5
3699.013	-80.5
3701.742	-76.5
3704.47	-80.5
3707.195	-82.5
3709.919	-81.5
3712.64	-80.5
3715.359	-84.5
3718.076	-87.5
3720.792	-91.5
3723.505	-90.5
3726.216	-89.5
3728.925	-89.5
3731.632	-87.5
3734.336	-92.5
3737.039	-93.5
3739.74	-92.5
3742.439	-87.5
3745.136	-92.5
3747.83	-89.5
3750.523	-92.5
3753.213	-94.5
3755.902	-93.5
3758.589	-95.5
3761.273	-98.5
3763.956	-100.5
3766.636	-102.5
3769.315	-100.5
3771.991	-101.5
3774.665	-104.5
3777.338	-100.5
3780.008	-103.5
3782.677	-101.5
3785.343	-98.5
3788.007	-102.5
3790.67	-97.5
3793.33	-101.5
3795.989	-99.5
3798.645	-99.5
3801.299	-100.5
3803.952	-104.5
3806.602	-103.5
3809.251	-104.5
3811.897	-105.5
3814.542	-108.5
3817.184	-108.5
3819.825	-107.5
3822.463	-106.5
3825.1	-108.5
3827.735	-105.5
3830.367	-108.5
3832.998	-106.5
3835.627	-101.5
3838.253	-104.5
3840.878	-101.5
3843.501	-101.5
3846.122	-107.5
3848.741	-104.5
3851.358	-106.5
3853.973	-105.5
3856.586	-107.5
3859.197	-109.5
3861.806	-112.5
3864.414	-107.5
3867.019	-114.5
3869.622	-108.5
3872.224	-110.5
3874.823	-105.5
3877.421	-102.5
3880.016	-99.5
3882.61	-98.5
3885.202	-97.5
3887.792	-101.5
3890.38	-101.5
3892.966	-107.5
3895.55	-107.5
3898.132	-109.5
3900.713	-109.5
3903.291	-107.5
3905.868	-112.5
3908.442	-112.5
3911.015	-110.5
3913.586	-111.5
3916.155	-110.5
3918.722	-108.5
3921.287	-110.5
3923.85	-112.5
3926.411	-112.5
3928.971	-117.5
3931.528	-111.5
3934.084	-113.5
3936.638	-113.5
3939.19	-115.5
3941.74	-110.5
3944.288	-112.5
3946.834	-116.5
3949.378	-115.5
3951.921	-114.5
3954.462	-115.5
3957	-115.5
3959.537	-112.5
3962.072	-112.5
3964.606	-112.5
3967.137	-111.5
3969.667	-116.5
3972.194	-112.5
3974.72	-112.5
3977.244	-110.5
3979.766	-114.5
3982.286	-111.5
3984.805	-114.5
3987.321	-113.5
3989.836	-110.5
3992.349	-112.5
3994.86	-111.5
3997.369	-110.5
3999.877	-108.5
4002.382	-107.5
4004.886	-106.5
4007.388	-110.5
4009.888	-109.5
4012.386	-112.5
4014.883	-111.5
4017.377	-111.5
4019.87	-114.5
4022.361	-110.5
4024.85	-115.5
4027.338	-115.5
4029.823	-111.5
4032.307	-112.5
4034.789	-115.5
4037.269	-113.5
4039.747	-111.5
4042.224	-109.5
4044.699	-114.5
4047.172	-108.5
4049.643	-109.5
4052.112	-108.5
4054.58	-112.5
4057.046	-111.5
4059.51	-114.5
4061.972	-112.5
4064.432	-112.5
4066.891	-113.5
4069.348	-113.5
4071.803	-114.5
4074.256	-116.5
4076.708	-114.5
4079.158	-111.5
4081.606	-112.5
4084.052	-112.5
4086.497	-109.5
4088.939	-106.5
4091.38	-113.5
4093.819	-108.5
4096.257	-112.5
4098.693	-113.5
4101.127	-117.5
4103.559	-115.5
4105.989	-70.5
4108.418	-73.5
4110.845	-70.5
4113.27	-65.5
4115.694	-62.5
4118.115	-51.5
4120.535	-112.5
4122.954	-118.5
4125.37	-113.5
4127.785	-113.5
4130.198	-115.5
4132.609	-114.5
4135.019	-120.5
4137.427	-119.5
4139.833	-119.5
4142.237	-118.5
