Data from 10000000CFU3_B_RamanShift_1.txt Node
Date: Wed Jan 25 12:46:50 IST 2017
User: aro
Spectrometer: QEPB0276
Trigger mode: 0
Integration Time (sec): 5.000000E0
Scans to average: 1
Electric dark correction enabled: true
Nonlinearity correction enabled: false
Boxcar width: 0
XAxis mode: Raman Shifts
Number of Pixels in Spectrum: 1044
>>>>>Begin Spectral Data<<<<<
160.701	-34.12
166.742	1.88
172.777	96.88
178.805	407.88
184.826	1115.88
190.841	2275.88
196.849	3560.88
202.85	4347.88
208.845	4520.88
214.833	4382.88
220.815	4210.88
226.789	4102.88
232.758	3965.88
238.719	3856.88
244.674	3733.88
250.623	3609.88
256.565	3437.88
262.5	3251.88
268.429	3123.88
274.351	2990.88
280.267	2886.88
286.176	2832.88
292.079	2715.88
297.975	2616.88
303.865	2544.88
309.748	2475.88
315.625	2408.88
321.495	2370.88
327.359	2341.88
333.217	2326.88
339.068	2281.88
344.912	2288.88
350.751	2274.88
356.583	2247.88
362.408	2264.88
368.227	2254.88
374.04	2268.88
379.847	2257.88
385.647	2297.88
391.44	2298.88
397.228	2314.88
403.009	2324.88
408.784	2342.88
414.553	2334.88
420.315	2347.88
426.071	2347.88
431.821	2354.88
437.565	2334.88
443.302	2342.88
449.033	2329.88
454.758	2339.88
460.477	2309.88
466.189	2305.88
471.896	2304.88
477.596	2292.88
483.29	2286.88
488.978	2251.88
494.66	2258.88
500.335	2233.88
506.005	2198.88
511.668	2154.88
517.325	2107.88
522.977	2082.88
528.622	2059.88
534.261	2026.88
539.894	2028.88
545.521	1983.88
551.141	1993.88
556.756	1978.88
562.365	1971.88
567.968	1952.88
573.565	1954.88
579.155	1922.88
584.74	1949.88
590.319	1909.88
595.892	1892.88
601.459	1888.88
607.02	1867.88
612.575	1856.88
618.124	1834.88
623.667	1822.88
629.204	1795.88
634.735	1789.88
640.261	1760.88
645.781	1767.88
651.294	1760.88
656.802	1762.88
662.304	1744.88
667.8	1738.88
673.29	1743.88
678.775	1718.88
684.254	1727.88
689.726	1714.88
695.193	1729.88
700.655	1679.88
706.11	1686.88
711.56	1679.88
717.004	1667.88
722.442	1658.88
727.874	1638.88
733.301	1622.88
738.722	1637.88
744.137	1630.88
749.547	1628.88
754.951	1629.88
760.349	1612.88
765.741	1616.88
771.128	1611.88
776.509	1623.88
781.885	1624.88
787.254	1607.88
792.618	1603.88
797.977	1575.88
803.33	1601.88
808.677	1558.88
814.019	1581.88
819.355	1540.88
824.686	1513.88
830.011	1532.88
835.33	1514.88
840.644	1517.88
845.952	1507.88
851.255	1487.88
856.552	1489.88
861.844	1494.88
867.13	1471.88
872.41	1467.88
877.686	1459.88
882.955	1442.88
888.219	1432.88
893.478	1394.88
898.731	1372.88
903.979	1349.88
909.221	1361.88
914.458	1350.88
919.69	1349.88
924.916	1355.88
930.136	1348.88
935.351	1332.88
940.561	1336.88
945.766	1332.88
950.965	1328.88
956.158	1286.88
961.347	1308.88
966.529	1266.88
971.707	1258.88
976.879	1246.88
982.046	1236.88
987.208	1231.88
992.364	1227.88
997.515	1231.88
1002.66	1243.88
1007.801	1255.88
1012.936	1269.88
1018.066	1279.88
1023.19	1303.88
1028.309	1287.88
1033.423	1278.88
1038.532	1272.88
1043.636	1276.88
1048.734	1264.88
1053.827	1248.88
1058.915	1225.88
1063.998	1220.88
1069.075	1216.88
1074.147	1227.88
1079.214	1222.88
1084.276	1233.88
1089.333	1251.88
1094.385	1258.88
1099.431	1280.88
1104.472	1255.88
1109.509	1281.88
1114.54	1264.88
1119.565	1237.88
1124.586	1221.88
1129.602	1198.88
1134.613	1209.88
1139.618	1205.88
1144.619	1206.88
1149.614	1213.88
1154.604	1219.88
1159.589	1234.88
1164.57	1224.88
1169.545	1228.88
1174.515	1229.88
1179.48	1237.88
1184.44	1227.88
1189.395	1212.88
1194.345	1214.88
1199.29	1200.88
1204.23	1200.88
1209.165	1199.88
1214.095	1226.88
1219.021	1222.88
1223.941	1237.88
1228.856	1247.88
1233.766	1253.88
1238.672	1247.88
1243.572	1238.88
1248.467	1243.88
1253.358	1221.88
1258.244	1214.88
1263.124	1194.88
1268	1181.88
1272.871	1171.88
1277.737	1154.88
1282.599	1154.88
1287.455	1158.88
1292.306	1172.88
1297.153	1166.88
1301.995	1191.88
1306.832	1199.88
1311.664	1192.88
1316.491	1190.88
1321.314	1199.88
1326.132	1185.88
1330.945	1178.88
1335.753	1174.88
1340.556	1149.88
1345.354	1133.88
1350.148	1132.88
1354.937	1148.88
1359.722	1116.88
1364.501	1114.88
1369.276	1098.88
1374.046	1107.88
1378.811	1092.88
1383.572	1092.88
1388.327	1090.88
1393.079	1070.88
1397.825	1076.88
1402.567	1050.88
1407.304	1055.88
1412.036	1056.88
1416.764	1071.88
1421.487	1053.88
1426.205	1063.88
1430.919	1068.88
1435.628	1095.88
1440.333	1097.88
1445.032	1098.88
1449.727	1114.88
1454.418	1117.88
1459.104	1104.88
1463.785	1107.88
1468.462	1094.88
1473.134	1085.88
1477.802	1081.88
1482.465	1085.88
1487.123	1053.88
1491.777	1075.88
1496.426	1088.88
1501.071	1082.88
1505.711	1092.88
1510.347	1096.88
1514.978	1118.88
1519.604	1133.88
1524.226	1143.88
1528.844	1136.88
1533.457	1127.88
1538.065	1139.88
1542.669	1122.88
1547.269	1119.88
1551.864	1130.88
1556.454	1137.88
1561.041	1142.88
1565.622	1156.88
1570.199	1165.88
1574.772	1188.88
1579.34	1213.88
1583.904	1213.88
1588.464	1226.88
1593.019	1252.88
1597.569	1259.88
1602.115	1278.88
1606.657	1292.88
1611.195	1287.88
1615.728	1292.88
1620.256	1310.88
1624.78	1359.88
1629.3	1359.88
1633.816	1374.88
1638.327	1397.88
1642.834	1422.88
1647.336	1430.88
1651.834	1446.88
1656.328	1440.88
1660.817	1418.88
1665.302	1386.88
1669.783	1372.88
1674.259	1360.88
1678.732	1309.88
1683.199	1273.88
1687.663	1232.88
1692.122	1195.88
1696.577	1162.88
1701.028	1106.88
1705.474	1057.88
1709.917	1019.88
1714.355	1008.88
1718.788	979.88
1723.218	978.88
1727.643	949.88
1732.064	937.88
1736.481	917.88
1740.893	881.88
1745.301	872.88
1749.705	841.88
1754.105	840.88
1758.501	819.88
1762.893	812.88
1767.28	797.88
1771.663	788.88
1776.042	788.88
1780.417	790.88
1784.787	788.88
1789.154	791.88
1793.516	797.88
1797.874	787.88
1802.228	787.88
1806.578	775.88
1810.924	761.88
1815.266	743.88
1819.603	729.88
1823.937	732.88
1828.266	716.88
1832.591	716.88
1836.913	707.88
1841.23	711.88
1845.543	716.88
1849.852	714.88
1854.156	712.88
1858.457	716.88
1862.754	724.88
1867.047	732.88
1871.335	737.88
1875.62	725.88
1879.9	730.88
1884.177	733.88
1888.449	721.88
1892.718	724.88
1896.982	736.88
1901.243	717.88
1905.499	718.88
1909.752	723.88
1914	710.88
1918.245	715.88
1922.485	720.88
1926.722	725.88
1930.954	731.88
1935.183	721.88
1939.408	747.88
1943.628	727.88
1947.845	731.88
1952.058	734.88
1956.267	735.88
1960.472	722.88
1964.673	705.88
1968.87	702.88
1973.063	700.88
1977.252	692.88
1981.438	693.88
1985.619	687.88
1989.797	675.88
1993.971	682.88
1998.14	685.88
2002.306	693.88
2006.469	686.88
2010.627	687.88
2014.781	693.88
2018.932	697.88
2023.078	698.88
2027.221	700.88
2031.36	693.88
2035.495	697.88
2039.627	692.88
2043.754	680.88
2047.878	679.88
2051.998	681.88
2056.114	678.88
2060.226	677.88
2064.334	674.88
2068.439	689.88
2072.54	694.88
2076.637	702.88
2080.73	699.88
2084.82	693.88
2088.906	689.88
2092.988	700.88
2097.066	688.88
2101.14	689.88
2105.211	683.88
2109.278	680.88
2113.342	678.88
2117.401	673.88
2121.457	656.88
2125.509	657.88
2129.558	668.88
2133.602	670.88
2137.643	660.88
2141.681	654.88
2145.714	660.88
2149.744	644.88
2153.77	640.88
2157.793	634.88
2161.812	632.88
2165.827	625.88
2169.838	620.88
2173.846	601.88
2177.851	598.88
2181.851	593.88
2185.848	596.88
2189.841	585.88
2193.831	577.88
2197.817	567.88
2201.799	580.88
2205.778	570.88
2209.753	563.88
2213.725	568.88
2217.693	578.88
2221.657	566.88
2225.618	561.88
2229.575	560.88
2233.529	570.88
2237.479	567.88
2241.425	550.88
2245.368	541.88
2249.307	535.88
2253.243	525.88
2257.175	521.88
2261.104	519.88
2265.029	503.88
2268.95	495.88
2272.868	501.88
2276.783	478.88
2280.694	488.88
2284.601	479.88
2288.505	467.88
2292.405	458.88
2296.302	463.88
2300.195	462.88
2304.085	451.88
2307.971	442.88
2311.854	432.88
2315.734	436.88
2319.609	410.88
2323.482	403.88
2327.351	413.88
2331.216	421.88
2335.078	405.88
2338.937	400.88
2342.792	397.88
2346.643	398.88
2350.492	391.88
2354.336	389.88
2358.178	397.88
2362.015	412.88
2365.85	395.88
2369.681	396.88
2373.508	411.88
2377.333	397.88
2381.153	402.88
2384.971	404.88
2388.785	400.88
2392.595	390.88
2396.402	389.88
2400.206	387.88
2404.007	386.88
2407.804	385.88
2411.597	382.88
2415.388	381.88
2419.174	380.88
2422.958	380.88
2426.738	372.88
2430.515	380.88
2434.289	374.88
2438.059	372.88
2441.825	371.88
2445.589	369.88
2449.349	366.88
2453.106	373.88
2456.859	370.88
2460.61	363.88
2464.356	358.88
2468.1	363.88
2471.84	344.88
2475.577	354.88
2479.311	344.88
2483.041	348.88
2486.768	343.88
2490.492	343.88
2494.213	350.88
2497.93	352.88
2501.644	336.88
2505.355	350.88
2509.062	353.88
2512.766	356.88
2516.467	345.88
2520.165	346.88
2523.859	339.88
2527.551	334.88
2531.239	342.88
2534.923	327.88
2538.605	327.88
2542.283	332.88
2545.958	328.88
2549.63	328.88
2553.299	325.88
2556.964	320.88
2560.626	308.88
2564.285	316.88
2567.941	314.88
2571.594	309.88
2575.243	305.88
2578.89	309.88
2582.533	302.88
2586.173	311.88
2589.809	309.88
2593.443	303.88
2597.073	291.88
2600.701	300.88
2604.325	293.88
2607.946	297.88
2611.564	295.88
2615.178	286.88
2618.79	288.88
2622.398	290.88
2626.004	293.88
2629.606	283.88
2633.205	275.88
2636.801	276.88
2640.394	273.88
2643.983	272.88
2647.57	262.88
2651.153	272.88
2654.734	259.88
2658.311	263.88
2661.885	267.88
2665.456	257.88
2669.025	254.88
2672.589	254.88
2676.151	249.88
2679.71	247.88
2683.266	250.88
2686.819	246.88
2690.368	237.88
2693.915	243.88
2697.458	243.88
2700.999	238.88
2704.536	224.88
2708.071	229.88
2711.602	235.88
2715.13	230.88
2718.656	230.88
2722.178	226.88
2725.697	226.88
2729.214	220.88
2732.727	232.88
2736.237	235.88
2739.744	230.88
2743.249	239.88
2746.75	231.88
2750.248	241.88
2753.743	233.88
2757.236	226.88
2760.725	230.88
2764.211	231.88
2767.695	228.88
2771.175	217.88
2774.652	214.88
2778.127	218.88
2781.598	216.88
2785.067	208.88
2788.532	215.88
2791.995	215.88
2795.455	212.88
2798.911	222.88
2802.365	225.88
2805.816	223.88
2809.264	223.88
2812.709	227.88
2816.151	231.88
2819.59	219.88
2823.026	218.88
2826.46	216.88
2829.89	231.88
2833.318	223.88
2836.742	228.88
2840.164	216.88
2843.583	226.88
2846.999	235.88
2850.412	224.88
2853.822	235.88
2857.229	238.88
2860.634	234.88
2864.035	238.88
2867.434	254.88
2870.83	255.88
2874.223	254.88
2877.613	262.88
2881	255.88
2884.385	257.88
2887.766	252.88
2891.145	254.88
2894.521	256.88
2897.894	263.88
2901.264	254.88
2904.631	262.88
2907.996	262.88
2911.358	259.88
2914.717	260.88
2918.073	268.88
2921.426	273.88
2924.777	268.88
2928.124	284.88
2931.469	287.88
2934.811	292.88
2938.15	293.88
2941.487	291.88
2944.821	312.88
2948.152	308.88
2951.48	308.88
2954.805	311.88
2958.128	323.88
2961.447	320.88
2964.765	332.88
2968.079	336.88
2971.39	343.88
2974.699	359.88
2978.005	351.88
2981.308	361.88
2984.609	375.88
2987.907	388.88
2991.202	402.88
2994.494	405.88
2997.784	419.88
3001.07	425.88
3004.355	422.88
3007.636	439.88
3010.915	457.88
3014.191	476.88
3017.464	475.88
3020.734	472.88
3024.002	489.88
3027.267	488.88
3030.53	494.88
3033.789	509.88
3037.046	523.88
3040.301	533.88
3043.552	536.88
3046.801	547.88
3050.048	564.88
3053.291	582.88
3056.532	586.88
3059.771	620.88
3063.006	634.88
3066.239	655.88
3069.469	674.88
3072.697	697.88
3075.922	715.88
3079.144	731.88
3082.364	741.88
3085.581	776.88
3088.795	797.88
3092.007	799.88
3095.216	820.88
3098.423	835.88
3101.627	856.88
3104.828	880.88
3108.026	887.88
3111.222	911.88
3114.416	938.88
3117.607	956.88
3120.795	977.88
3123.98	1003.88
3127.163	1026.88
3130.344	1032.88
3133.521	1065.88
3136.696	1085.88
3139.869	1104.88
3143.039	1125.88
3146.206	1134.88
3149.371	1161.88
3152.533	1174.88
3155.693	1166.88
3158.85	1170.88
3162.005	1195.88
3165.157	1182.88
3168.306	1196.88
3171.453	1197.88
3174.597	1214.88
3177.739	1217.88
3180.878	1217.88
3184.014	1217.88
3187.149	1219.88
3190.28	1225.88
3193.409	1227.88
3196.536	1236.88
3199.659	1230.88
3202.781	1231.88
3205.9	1244.88
3209.016	1244.88
3212.13	1241.88
3215.241	1229.88
3218.35	1224.88
3221.456	1217.88
3224.56	1208.88
3227.661	1188.88
3230.76	1178.88
3233.856	1180.88
3236.95	1149.88
3240.041	1141.88
3243.13	1148.88
3246.216	1145.88
3249.3	1135.88
3252.382	1122.88
3255.46	1119.88
3258.537	1121.88
3261.611	1112.88
3264.682	1095.88
3267.751	1093.88
3270.818	1092.88
3273.882	1083.88
3276.943	1076.88
3280.002	1086.88
3283.059	1057.88
3286.113	1046.88
3289.165	1038.88
3292.214	1017.88
3295.261	997.88
3298.306	999.88
3301.348	967.88
3304.387	967.88
3307.425	948.88
3310.459	928.88
3313.492	926.88
3316.521	907.88
3319.549	910.88
3322.574	891.88
3325.597	884.88
3328.617	867.88
3331.635	870.88
3334.65	861.88
3337.663	869.88
3340.674	862.88
3343.682	867.88
3346.688	856.88
3349.691	862.88
3352.692	855.88
3355.691	840.88
3358.687	836.88
3361.681	824.88
3364.673	824.88
3367.662	797.88
3370.649	799.88
3373.633	784.88
3376.615	764.88
3379.595	764.88
3382.572	748.88
3385.547	758.88
3388.52	733.88
3391.49	728.88
3394.458	699.88
3397.424	694.88
3400.387	691.88
3403.348	685.88
3406.307	682.88
3409.263	673.88
3412.217	663.88
3415.168	659.88
3418.118	658.88
3421.065	640.88
3424.009	634.88
3426.951	615.88
3429.891	619.88
3432.829	613.88
3435.764	581.88
3438.697	565.88
3441.628	561.88
3444.557	558.88
3447.483	541.88
3450.407	522.88
3453.328	498.88
3456.247	493.88
3459.164	486.88
3462.079	462.88
3464.991	454.88
3467.902	427.88
3470.809	419.88
3473.715	407.88
3476.618	395.88
3479.519	377.88
3482.418	371.88
3485.315	356.88
3488.209	348.88
3491.101	345.88
3493.99	340.88
3496.878	322.88
3499.763	323.88
3502.646	306.88
3505.527	300.88
3508.405	281.88
3511.281	270.88
3514.155	258.88
3517.027	249.88
3519.897	238.88
3522.764	225.88
3525.629	202.88
3528.492	195.88
3531.352	179.88
3534.211	175.88
3537.067	160.88
3539.921	154.88
3542.773	143.88
3545.622	135.88
3548.469	132.88
3551.315	121.88
3554.157	118.88
3556.998	109.88
3559.837	103.88
3562.673	86.88
3565.507	89.88
3568.339	80.88
3571.169	78.88
3573.996	70.88
3576.822	59.88
3579.645	62.88
3582.466	46.88
3585.285	40.88
3588.101	42.88
3590.916	32.88
3593.728	25.88
3596.538	24.88
3599.346	19.88
3602.152	12.88
3604.956	10.88
3607.757	13.88
3610.556	-0.12
3613.354	2.88
3616.149	-4.12
3618.942	-6.12
3621.732	-9.12
3624.521	-16.12
3627.307	-16.12
3630.092	-21.12
3632.874	-27.12
3635.654	-26.12
3638.432	-29.12
3641.208	-27.12
3643.982	-34.12
3646.753	-34.12
3649.523	-41.12
3652.29	-41.12
3655.055	-45.12
3657.818	-48.12
3660.579	-51.12
3663.338	-55.12
3666.095	-54.12
3668.849	-61.12
3671.602	-60.12
3674.352	-65.12
3677.101	-62.12
3679.847	-68.12
3682.591	-69.12
3685.333	-67.12
3688.073	-71.12
3690.811	-68.12
3693.547	-75.12
3696.281	-76.12
3699.013	-76.12
3701.742	-73.12
3704.47	-77.12
3707.195	-82.12
3709.919	-80.12
3712.64	-86.12
3715.359	-81.12
3718.076	-85.12
3720.792	-89.12
3723.505	-88.12
3726.216	-87.12
3728.925	-87.12
3731.632	-85.12
3734.336	-90.12
3737.039	-94.12
3739.74	-91.12
3742.439	-86.12
3745.136	-95.12
3747.83	-91.12
3750.523	-96.12
3753.213	-92.12
3755.902	-97.12
3758.589	-97.12
3761.273	-98.12
3763.956	-100.12
3766.636	-103.12
3769.315	-100.12
3771.991	-104.12
3774.665	-99.12
3777.338	-98.12
3780.008	-99.12
3782.677	-98.12
3785.343	-97.12
3788.007	-99.12
3790.67	-97.12
3793.33	-103.12
3795.989	-98.12
3798.645	-99.12
3801.299	-102.12
3803.952	-103.12
3806.602	-101.12
3809.251	-102.12
3811.897	-106.12
3814.542	-103.12
3817.184	-109.12
3819.825	-106.12
3822.463	-107.12
3825.1	-101.12
3827.735	-102.12
3830.367	-106.12
3832.998	-105.12
3835.627	-103.12
3838.253	-103.12
3840.878	-101.12
3843.501	-102.12
3846.122	-105.12
3848.741	-105.12
3851.358	-106.12
3853.973	-107.12
3856.586	-108.12
3859.197	-107.12
3861.806	-109.12
3864.414	-107.12
3867.019	-112.12
3869.622	-104.12
3872.224	-109.12
3874.823	-102.12
3877.421	-104.12
3880.016	-101.12
3882.61	-93.12
3885.202	-95.12
3887.792	-100.12
3890.38	-102.12
3892.966	-105.12
3895.55	-105.12
3898.132	-109.12
3900.713	-111.12
3903.291	-108.12
3905.868	-109.12
3908.442	-116.12
3911.015	-113.12
3913.586	-114.12
3916.155	-110.12
3918.722	-109.12
3921.287	-107.12
3923.85	-113.12
3926.411	-108.12
3928.971	-113.12
3931.528	-108.12
3934.084	-111.12
3936.638	-111.12
3939.19	-112.12
3941.74	-110.12
3944.288	-112.12
3946.834	-113.12
3949.378	-115.12
3951.921	-114.12
3954.462	-116.12
3957	-114.12
3959.537	-111.12
3962.072	-113.12
3964.606	-111.12
3967.137	-111.12
3969.667	-114.12
3972.194	-114.12
3974.72	-110.12
3977.244	-110.12
3979.766	-109.12
3982.286	-113.12
3984.805	-111.12
3987.321	-109.12
3989.836	-110.12
3992.349	-111.12
3994.86	-111.12
3997.369	-105.12
3999.877	-109.12
4002.382	-108.12
4004.886	-107.12
4007.388	-109.12
4009.888	-107.12
4012.386	-113.12
4014.883	-110.12
4017.377	-112.12
4019.87	-111.12
4022.361	-110.12
4024.85	-114.12
4027.338	-113.12
4029.823	-109.12
4032.307	-111.12
4034.789	-111.12
4037.269	-113.12
4039.747	-110.12
4042.224	-108.12
4044.699	-111.12
4047.172	-110.12
4049.643	-109.12
4052.112	-112.12
4054.58	-112.12
4057.046	-112.12
4059.51	-111.12
4061.972	-113.12
4064.432	-116.12
4066.891	-115.12
4069.348	-113.12
4071.803	-113.12
4074.256	-114.12
4076.708	-110.12
4079.158	-110.12
4081.606	-110.12
4084.052	-110.12
4086.497	-107.12
4088.939	-108.12
4091.38	-107.12
4093.819	-110.12
4096.257	-113.12
4098.693	-114.12
4101.127	-117.12
4103.559	-116.12
4105.989	-73.12
4108.418	-74.12
4110.845	-71.12
4113.27	-60.12
4115.694	-57.12
4118.115	-53.12
4120.535	-111.12
4122.954	-114.12
4125.37	-111.12
4127.785	-114.12
4130.198	-112.12
4132.609	-112.12
4135.019	-118.12
4137.427	-119.12
4139.833	-118.12
4142.237	-117.12
