Data from 100CFU1_B_RamanShift_1.txt Node
Date: Wed Jan 25 12:28:40 IST 2017
User: aro
Spectrometer: QEPB0276
Trigger mode: 0
Integration Time (sec): 5.000000E0
Scans to average: 1
Electric dark correction enabled: true
Nonlinearity correction enabled: false
Boxcar width: 0
XAxis mode: Raman Shifts
Number of Pixels in Spectrum: 1044
>>>>>Begin Spectral Data<<<<<
160.701	-35.38
166.742	-3.38
172.777	108.62
178.805	409.62
184.826	1128.62
190.841	2326.62
196.849	3614.62
202.85	4434.62
208.845	4598.62
214.833	4460.62
220.815	4300.62
226.789	4159.62
232.758	4063.62
238.719	3911.62
244.674	3784.62
250.623	3643.62
256.565	3452.62
262.5	3298.62
268.429	3173.62
274.351	3040.62
280.267	2917.62
286.176	2854.62
292.079	2737.62
297.975	2671.62
303.865	2575.62
309.748	2518.62
315.625	2434.62
321.495	2395.62
327.359	2363.62
333.217	2336.62
339.068	2322.62
344.912	2297.62
350.751	2292.62
356.583	2261.62
362.408	2271.62
368.227	2294.62
374.04	2283.62
379.847	2291.62
385.647	2300.62
391.44	2334.62
397.228	2357.62
403.009	2358.62
408.784	2360.62
414.553	2367.62
420.315	2387.62
426.071	2377.62
431.821	2377.62
437.565	2370.62
443.302	2368.62
449.033	2369.62
454.758	2346.62
460.477	2320.62
466.189	2334.62
471.896	2328.62
477.596	2313.62
483.29	2296.62
488.978	2287.62
494.66	2277.62
500.335	2245.62
506.005	2213.62
511.668	2182.62
517.325	2123.62
522.977	2114.62
528.622	2074.62
534.261	2076.62
539.894	2048.62
545.521	2030.62
551.141	2003.62
556.756	1994.62
562.365	1993.62
567.968	1996.62
573.565	1966.62
579.155	1968.62
584.74	1942.62
590.319	1933.62
595.892	1936.62
601.459	1915.62
607.02	1890.62
612.575	1879.62
618.124	1857.62
623.667	1840.62
629.204	1839.62
634.735	1829.62
640.261	1806.62
645.781	1790.62
651.294	1785.62
656.802	1771.62
662.304	1764.62
667.8	1770.62
673.29	1769.62
678.775	1754.62
684.254	1733.62
689.726	1751.62
695.193	1725.62
700.655	1724.62
706.11	1714.62
711.56	1693.62
717.004	1684.62
722.442	1673.62
727.874	1658.62
733.301	1654.62
738.722	1650.62
744.137	1652.62
749.547	1652.62
754.951	1619.62
760.349	1645.62
765.741	1637.62
771.128	1638.62
776.509	1650.62
781.885	1640.62
787.254	1616.62
792.618	1621.62
797.977	1619.62
803.33	1608.62
808.677	1582.62
814.019	1585.62
819.355	1547.62
824.686	1537.62
830.011	1536.62
835.33	1518.62
840.644	1519.62
845.952	1517.62
851.255	1525.62
856.552	1494.62
861.844	1503.62
867.13	1497.62
872.41	1485.62
877.686	1485.62
882.955	1449.62
888.219	1435.62
893.478	1423.62
898.731	1394.62
903.979	1371.62
909.221	1348.62
914.458	1343.62
919.69	1341.62
924.916	1359.62
930.136	1357.62
935.351	1332.62
940.561	1340.62
945.766	1327.62
950.965	1325.62
956.158	1320.62
961.347	1301.62
966.529	1282.62
971.707	1261.62
976.879	1262.62
982.046	1260.62
987.208	1236.62
992.364	1245.62
997.515	1240.62
1002.66	1252.62
1007.801	1277.62
1012.936	1274.62
1018.066	1290.62
1023.19	1288.62
1028.309	1289.62
1033.423	1289.62
1038.532	1290.62
1043.636	1278.62
1048.734	1262.62
1053.827	1230.62
1058.915	1238.62
1063.998	1235.62
1069.075	1225.62
1074.147	1216.62
1079.214	1233.62
1084.276	1246.62
1089.333	1248.62
1094.385	1262.62
1099.431	1266.62
1104.472	1264.62
1109.509	1266.62
1114.54	1252.62
1119.565	1240.62
1124.586	1224.62
1129.602	1218.62
1134.613	1206.62
1139.618	1203.62
1144.619	1209.62
1149.614	1206.62
1154.604	1215.62
1159.589	1225.62
1164.57	1238.62
1169.545	1232.62
1174.515	1229.62
1179.48	1237.62
1184.44	1220.62
1189.395	1211.62
1194.345	1204.62
1199.29	1202.62
1204.23	1189.62
1209.165	1201.62
1214.095	1207.62
1219.021	1220.62
1223.941	1252.62
1228.856	1249.62
1233.766	1237.62
1238.672	1261.62
1243.572	1233.62
1248.467	1253.62
1253.358	1225.62
1258.244	1222.62
1263.124	1198.62
1268	1183.62
1272.871	1151.62
1277.737	1159.62
1282.599	1156.62
1287.455	1166.62
1292.306	1169.62
1297.153	1176.62
1301.995	1164.62
1306.832	1176.62
1311.664	1179.62
1316.491	1164.62
1321.314	1177.62
1326.132	1184.62
1330.945	1177.62
1335.753	1169.62
1340.556	1147.62
1345.354	1138.62
1350.148	1122.62
1354.937	1125.62
1359.722	1108.62
1364.501	1092.62
1369.276	1097.62
1374.046	1059.62
1378.811	1070.62
1383.572	1071.62
1388.327	1066.62
1393.079	1072.62
1397.825	1059.62
1402.567	1061.62
1407.304	1059.62
1412.036	1030.62
1416.764	1046.62
1421.487	1056.62
1426.205	1043.62
1430.919	1063.62
1435.628	1079.62
1440.333	1079.62
1445.032	1088.62
1449.727	1116.62
1454.418	1100.62
1459.104	1077.62
1463.785	1098.62
1468.462	1082.62
1473.134	1081.62
1477.802	1064.62
1482.465	1064.62
1487.123	1057.62
1491.777	1062.62
1496.426	1058.62
1501.071	1068.62
1505.711	1078.62
1510.347	1081.62
1514.978	1098.62
1519.604	1112.62
1524.226	1099.62
1528.844	1121.62
1533.457	1112.62
1538.065	1107.62
1542.669	1105.62
1547.269	1112.62
1551.864	1108.62
1556.454	1120.62
1561.041	1115.62
1565.622	1132.62
1570.199	1148.62
1574.772	1168.62
1579.34	1191.62
1583.904	1198.62
1588.464	1229.62
1593.019	1258.62
1597.569	1245.62
1602.115	1279.62
1606.657	1283.62
1611.195	1282.62
1615.728	1305.62
1620.256	1322.62
1624.78	1339.62
1629.3	1358.62
1633.816	1371.62
1638.327	1377.62
1642.834	1407.62
1647.336	1411.62
1651.834	1422.62
1656.328	1408.62
1660.817	1401.62
1665.302	1377.62
1669.783	1348.62
1674.259	1328.62
1678.732	1285.62
1683.199	1248.62
1687.663	1211.62
1692.122	1157.62
1696.577	1137.62
1701.028	1079.62
1705.474	1027.62
1709.917	1011.62
1714.355	988.62
1718.788	967.62
1723.218	960.62
1727.643	934.62
1732.064	912.62
1736.481	897.62
1740.893	884.62
1745.301	864.62
1749.705	835.62
1754.105	811.62
1758.501	795.62
1762.893	784.62
1767.28	773.62
1771.663	767.62
1776.042	769.62
1780.417	764.62
1784.787	770.62
1789.154	768.62
1793.516	757.62
1797.874	761.62
1802.228	763.62
1806.578	748.62
1810.924	743.62
1815.266	723.62
1819.603	721.62
1823.937	701.62
1828.266	707.62
1832.591	687.62
1836.913	693.62
1841.23	679.62
1845.543	697.62
1849.852	697.62
1854.156	696.62
1858.457	707.62
1862.754	698.62
1867.047	705.62
1871.335	707.62
1875.62	715.62
1879.9	705.62
1884.177	701.62
1888.449	706.62
1892.718	698.62
1896.982	692.62
1901.243	688.62
1905.499	697.62
1909.752	695.62
1914	692.62
1918.245	693.62
1922.485	683.62
1926.722	690.62
1930.954	695.62
1935.183	705.62
1939.408	707.62
1943.628	703.62
1947.845	697.62
1952.058	706.62
1956.267	695.62
1960.472	688.62
1964.673	688.62
1968.87	677.62
1973.063	671.62
1977.252	663.62
1981.438	665.62
1985.619	652.62
1989.797	654.62
1993.971	656.62
1998.14	664.62
2002.306	658.62
2006.469	668.62
2010.627	683.62
2014.781	673.62
2018.932	685.62
2023.078	673.62
2027.221	673.62
2031.36	670.62
2035.495	665.62
2039.627	669.62
2043.754	659.62
2047.878	647.62
2051.998	641.62
2056.114	651.62
2060.226	662.62
2064.334	660.62
2068.439	657.62
2072.54	659.62
2076.637	660.62
2080.73	675.62
2084.82	668.62
2088.906	673.62
2092.988	671.62
2097.066	664.62
2101.14	660.62
2105.211	653.62
2109.278	648.62
2113.342	642.62
2117.401	645.62
2121.457	643.62
2125.509	638.62
2129.558	640.62
2133.602	632.62
2137.643	626.62
2141.681	626.62
2145.714	634.62
2149.744	624.62
2153.77	624.62
2157.793	630.62
2161.812	611.62
2165.827	607.62
2169.838	588.62
2173.846	592.62
2177.851	586.62
2181.851	580.62
2185.848	576.62
2189.841	564.62
2193.831	550.62
2197.817	545.62
2201.799	544.62
2205.778	542.62
2209.753	554.62
2213.725	541.62
2217.693	545.62
2221.657	542.62
2225.618	540.62
2229.575	547.62
2233.529	548.62
2237.479	530.62
2241.425	528.62
2245.368	537.62
2249.307	520.62
2253.243	506.62
2257.175	491.62
2261.104	486.62
2265.029	491.62
2268.95	482.62
2272.868	469.62
2276.783	464.62
2280.694	463.62
2284.601	462.62
2288.505	453.62
2292.405	442.62
2296.302	437.62
2300.195	427.62
2304.085	437.62
2307.971	418.62
2311.854	415.62
2315.734	414.62
2319.609	415.62
2323.482	397.62
2327.351	398.62
2331.216	396.62
2335.078	403.62
2338.937	389.62
2342.792	380.62
2346.643	378.62
2350.492	376.62
2354.336	383.62
2358.178	384.62
2362.015	369.62
2365.85	391.62
2369.681	384.62
2373.508	389.62
2377.333	388.62
2381.153	388.62
2384.971	385.62
2388.785	378.62
2392.595	365.62
2396.402	370.62
2400.206	374.62
2404.007	370.62
2407.804	371.62
2411.597	368.62
2415.388	367.62
2419.174	370.62
2422.958	369.62
2426.738	364.62
2430.515	362.62
2434.289	369.62
2438.059	352.62
2441.825	358.62
2445.589	354.62
2449.349	353.62
2453.106	349.62
2456.859	342.62
2460.61	342.62
2464.356	334.62
2468.1	339.62
2471.84	333.62
2475.577	335.62
2479.311	331.62
2483.041	322.62
2486.768	334.62
2490.492	334.62
2494.213	336.62
2497.93	337.62
2501.644	322.62
2505.355	325.62
2509.062	328.62
2512.766	331.62
2516.467	323.62
2520.165	318.62
2523.859	316.62
2527.551	325.62
2531.239	317.62
2534.923	311.62
2538.605	319.62
2542.283	309.62
2545.958	303.62
2549.63	307.62
2553.299	296.62
2556.964	301.62
2560.626	297.62
2564.285	296.62
2567.941	293.62
2571.594	302.62
2575.243	293.62
2578.89	290.62
2582.533	289.62
2586.173	285.62
2589.809	287.62
2593.443	277.62
2597.073	287.62
2600.701	278.62
2604.325	273.62
2607.946	270.62
2611.564	275.62
2615.178	274.62
2618.79	269.62
2622.398	271.62
2626.004	278.62
2629.606	274.62
2633.205	252.62
2636.801	260.62
2640.394	266.62
2643.983	255.62
2647.57	259.62
2651.153	259.62
2654.734	254.62
2658.311	247.62
2661.885	247.62
2665.456	238.62
2669.025	238.62
2672.589	238.62
2676.151	242.62
2679.71	238.62
2683.266	222.62
2686.819	224.62
2690.368	231.62
2693.915	218.62
2697.458	228.62
2700.999	216.62
2704.536	212.62
2708.071	217.62
2711.602	213.62
2715.13	201.62
2718.656	215.62
2722.178	215.62
2725.697	214.62
2729.214	210.62
2732.727	217.62
2736.237	220.62
2739.744	207.62
2743.249	223.62
2746.75	218.62
2750.248	221.62
2753.743	214.62
2757.236	218.62
2760.725	212.62
2764.211	213.62
2767.695	206.62
2771.175	205.62
2774.652	200.62
2778.127	205.62
2781.598	203.62
2785.067	204.62
2788.532	206.62
2791.995	203.62
2795.455	205.62
2798.911	213.62
2802.365	202.62
2805.816	198.62
2809.264	219.62
2812.709	211.62
2816.151	209.62
2819.59	209.62
2823.026	206.62
2826.46	208.62
2829.89	209.62
2833.318	212.62
2836.742	220.62
2840.164	208.62
2843.583	213.62
2846.999	218.62
2850.412	221.62
2853.822	228.62
2857.229	237.62
2860.634	232.62
2864.035	231.62
2867.434	234.62
2870.83	237.62
2874.223	242.62
2877.613	239.62
2881	225.62
2884.385	241.62
2887.766	235.62
2891.145	242.62
2894.521	242.62
2897.894	242.62
2901.264	247.62
2904.631	252.62
2907.996	246.62
2911.358	250.62
2914.717	249.62
2918.073	263.62
2921.426	269.62
2924.777	269.62
2928.124	272.62
2931.469	278.62
2934.811	278.62
2938.15	285.62
2941.487	280.62
2944.821	283.62
2948.152	293.62
2951.48	294.62
2954.805	296.62
2958.128	302.62
2961.447	317.62
2964.765	309.62
2968.079	319.62
2971.39	335.62
2974.699	339.62
2978.005	347.62
2981.308	353.62
2984.609	355.62
2987.907	372.62
2991.202	384.62
2994.494	386.62
2997.784	405.62
3001.07	404.62
3004.355	423.62
3007.636	427.62
3010.915	448.62
3014.191	440.62
3017.464	454.62
3020.734	468.62
3024.002	478.62
3027.267	474.62
3030.53	477.62
3033.789	495.62
3037.046	501.62
3040.301	511.62
3043.552	538.62
3046.801	537.62
3050.048	567.62
3053.291	569.62
3056.532	579.62
3059.771	604.62
3063.006	627.62
3066.239	644.62
3069.469	662.62
3072.697	684.62
3075.922	706.62
3079.144	723.62
3082.364	727.62
3085.581	763.62
3088.795	768.62
3092.007	783.62
3095.216	795.62
3098.423	804.62
3101.627	827.62
3104.828	855.62
3108.026	865.62
3111.222	899.62
3114.416	911.62
3117.607	939.62
3120.795	962.62
3123.98	970.62
3127.163	998.62
3130.344	1020.62
3133.521	1043.62
3136.696	1049.62
3139.869	1085.62
3143.039	1106.62
3146.206	1115.62
3149.371	1132.62
3152.533	1139.62
3155.693	1143.62
3158.85	1163.62
3162.005	1161.62
3165.157	1178.62
3168.306	1182.62
3171.453	1194.62
3174.597	1190.62
3177.739	1197.62
3180.878	1208.62
3184.014	1200.62
3187.149	1179.62
3190.28	1204.62
3193.409	1212.62
3196.536	1198.62
3199.659	1225.62
3202.781	1212.62
3205.9	1222.62
3209.016	1211.62
3212.13	1221.62
3215.241	1211.62
3218.35	1203.62
3221.456	1203.62
3224.56	1191.62
3227.661	1167.62
3230.76	1158.62
3233.856	1146.62
3236.95	1155.62
3240.041	1121.62
3243.13	1126.62
3246.216	1121.62
3249.3	1106.62
3252.382	1089.62
3255.46	1100.62
3258.537	1095.62
3261.611	1093.62
3264.682	1086.62
3267.751	1082.62
3270.818	1078.62
3273.882	1069.62
3276.943	1059.62
3280.002	1049.62
3283.059	1042.62
3286.113	1039.62
3289.165	1019.62
3292.214	995.62
3295.261	978.62
3298.306	979.62
3301.348	959.62
3304.387	957.62
3307.425	935.62
3310.459	922.62
3313.492	918.62
3316.521	881.62
3319.549	881.62
3322.574	887.62
3325.597	872.62
3328.617	860.62
3331.635	864.62
3334.65	860.62
3337.663	844.62
3340.674	851.62
3343.682	850.62
3346.688	848.62
3349.691	844.62
3352.692	845.62
3355.691	814.62
3358.687	823.62
3361.681	802.62
3364.673	796.62
3367.662	793.62
3370.649	785.62
3373.633	768.62
3376.615	755.62
3379.595	743.62
3382.572	736.62
3385.547	743.62
3388.52	725.62
3391.49	704.62
3394.458	701.62
3397.424	700.62
3400.387	689.62
3403.348	679.62
3406.307	672.62
3409.263	658.62
3412.217	652.62
3415.168	642.62
3418.118	634.62
3421.065	631.62
3424.009	630.62
3426.951	612.62
3429.891	604.62
3432.829	592.62
3435.764	582.62
3438.697	569.62
3441.628	545.62
3444.557	549.62
3447.483	531.62
3450.407	522.62
3453.328	501.62
3456.247	486.62
3459.164	463.62
3462.079	455.62
3464.991	445.62
3467.902	434.62
3470.809	414.62
3473.715	398.62
3476.618	386.62
3479.519	386.62
3482.418	373.62
3485.315	355.62
3488.209	353.62
3491.101	350.62
3493.99	332.62
3496.878	319.62
3499.763	313.62
3502.646	300.62
3505.527	296.62
3508.405	280.62
3511.281	265.62
3514.155	246.62
3517.027	247.62
3519.897	230.62
3522.764	219.62
3525.629	198.62
3528.492	196.62
3531.352	188.62
3534.211	173.62
3537.067	162.62
3539.921	155.62
3542.773	140.62
3545.622	137.62
3548.469	132.62
3551.315	124.62
3554.157	109.62
3556.998	104.62
3559.837	95.62
3562.673	97.62
3565.507	85.62
3568.339	80.62
3571.169	69.62
3573.996	66.62
3576.822	63.62
3579.645	51.62
3582.466	45.62
3585.285	45.62
3588.101	38.62
3590.916	36.62
3593.728	34.62
3596.538	23.62
3599.346	17.62
3602.152	14.62
3604.956	11.62
3607.757	9.62
3610.556	-1.38
3613.354	-5.38
3616.149	-1.38
3618.942	-12.38
3621.732	-13.38
3624.521	-20.38
3627.307	-23.38
3630.092	-25.38
3632.874	-21.38
3635.654	-28.38
3638.432	-32.38
3641.208	-31.38
3643.982	-38.38
3646.753	-37.38
3649.523	-37.38
3652.29	-41.38
3655.055	-48.38
3657.818	-51.38
3660.579	-51.38
3663.338	-52.38
3666.095	-56.38
3668.849	-62.38
3671.602	-59.38
3674.352	-61.38
3677.101	-63.38
3679.847	-68.38
3682.591	-70.38
3685.333	-69.38
3688.073	-70.38
3690.811	-69.38
3693.547	-81.38
3696.281	-71.38
3699.013	-78.38
3701.742	-79.38
3704.47	-80.38
3707.195	-85.38
3709.919	-84.38
3712.64	-84.38
3715.359	-83.38
3718.076	-84.38
3720.792	-90.38
3723.505	-86.38
3726.216	-89.38
3728.925	-88.38
3731.632	-86.38
3734.336	-92.38
3737.039	-91.38
3739.74	-93.38
3742.439	-94.38
3745.136	-91.38
3747.83	-93.38
3750.523	-91.38
3753.213	-94.38
3755.902	-97.38
3758.589	-95.38
3761.273	-94.38
3763.956	-99.38
3766.636	-100.38
3769.315	-99.38
3771.991	-102.38
3774.665	-100.38
3777.338	-99.38
3780.008	-98.38
3782.677	-97.38
3785.343	-99.38
3788.007	-101.38
3790.67	-98.38
3793.33	-103.38
3795.989	-102.38
3798.645	-103.38
3801.299	-102.38
3803.952	-102.38
3806.602	-101.38
3809.251	-104.38
3811.897	-105.38
3814.542	-106.38
3817.184	-103.38
3819.825	-105.38
3822.463	-105.38
3825.1	-100.38
3827.735	-102.38
3830.367	-105.38
3832.998	-107.38
3835.627	-104.38
3838.253	-103.38
3840.878	-105.38
3843.501	-108.38
3846.122	-108.38
3848.741	-105.38
3851.358	-105.38
3853.973	-107.38
3856.586	-109.38
3859.197	-108.38
3861.806	-110.38
3864.414	-108.38
3867.019	-106.38
3869.622	-103.38
3872.224	-109.38
3874.823	-103.38
3877.421	-104.38
3880.016	-98.38
3882.61	-95.38
3885.202	-98.38
3887.792	-99.38
3890.38	-102.38
3892.966	-108.38
3895.55	-109.38
3898.132	-110.38
3900.713	-110.38
3903.291	-108.38
3905.868	-109.38
3908.442	-111.38
3911.015	-109.38
3913.586	-110.38
3916.155	-108.38
3918.722	-109.38
3921.287	-110.38
3923.85	-111.38
3926.411	-109.38
3928.971	-118.38
3931.528	-110.38
3934.084	-115.38
3936.638	-114.38
3939.19	-111.38
3941.74	-112.38
3944.288	-114.38
3946.834	-114.38
3949.378	-115.38
3951.921	-111.38
3954.462	-112.38
3957	-111.38
3959.537	-112.38
3962.072	-110.38
3964.606	-110.38
3967.137	-111.38
3969.667	-111.38
3972.194	-112.38
3974.72	-110.38
3977.244	-109.38
3979.766	-110.38
3982.286	-115.38
3984.805	-113.38
3987.321	-111.38
3989.836	-112.38
3992.349	-109.38
3994.86	-110.38
3997.369	-111.38
3999.877	-107.38
4002.382	-107.38
4004.886	-107.38
4007.388	-107.38
4009.888	-108.38
4012.386	-111.38
4014.883	-111.38
4017.377	-114.38
4019.87	-112.38
4022.361	-111.38
4024.85	-114.38
4027.338	-114.38
4029.823	-110.38
4032.307	-110.38
4034.789	-110.38
4037.269	-111.38
4039.747	-110.38
4042.224	-108.38
4044.699	-114.38
4047.172	-108.38
4049.643	-107.38
4052.112	-111.38
4054.58	-113.38
4057.046	-111.38
4059.51	-113.38
4061.972	-115.38
4064.432	-115.38
4066.891	-114.38
4069.348	-112.38
4071.803	-113.38
4074.256	-115.38
4076.708	-112.38
4079.158	-108.38
4081.606	-112.38
4084.052	-108.38
4086.497	-109.38
4088.939	-108.38
4091.38	-112.38
4093.819	-112.38
4096.257	-114.38
4098.693	-118.38
4101.127	-115.38
4103.559	-114.38
4105.989	-71.38
4108.418	-73.38
4110.845	-71.38
4113.27	-61.38
4115.694	-56.38
4118.115	-45.38
4120.535	-110.38
4122.954	-115.38
4125.37	-112.38
4127.785	-114.38
4130.198	-115.38
4132.609	-116.38
4135.019	-120.38
4137.427	-121.38
4139.833	-118.38
4142.237	-119.38
