Data from Bacilus_dil1103_B2_RamanShift_1.txt Node
Date: Wed Mar 01 12:43:02 IST 2017
User: aro
Spectrometer: QEPB0276
Trigger mode: 0
Integration Time (sec): 5.000000E0
Scans to average: 1
Electric dark correction enabled: true
Nonlinearity correction enabled: false
Boxcar width: 0
XAxis mode: Raman Shifts
Number of Pixels in Spectrum: 1044
>>>>>Begin Spectral Data<<<<<
160.701	-28.5
166.742	-4.5
172.777	84.5
178.805	356.5
184.826	979.5
190.841	2051.5
196.849	3254.5
202.85	3990.5
208.845	4199.5
214.833	4055.5
220.815	3926.5
226.789	3809.5
232.758	3693.5
238.719	3588.5
244.674	3467.5
250.623	3333.5
256.565	3164.5
262.5	3007.5
268.429	2876.5
274.351	2764.5
280.267	2668.5
286.176	2570.5
292.079	2461.5
297.975	2413.5
303.865	2330.5
309.748	2274.5
315.625	2229.5
321.495	2179.5
327.359	2151.5
333.217	2119.5
339.068	2107.5
344.912	2090.5
350.751	2083.5
356.583	2069.5
362.408	2081.5
368.227	2085.5
374.04	2099.5
379.847	2104.5
385.647	2127.5
391.44	2146.5
397.228	2144.5
403.009	2163.5
408.784	2152.5
414.553	2162.5
420.315	2161.5
426.071	2165.5
431.821	2170.5
437.565	2172.5
443.302	2168.5
449.033	2154.5
454.758	2121.5
460.477	2126.5
466.189	2133.5
471.896	2120.5
477.596	2091.5
483.29	2099.5
488.978	2099.5
494.66	2089.5
500.335	2047.5
506.005	2015.5
511.668	1994.5
517.325	1951.5
522.977	1938.5
528.622	1880.5
534.261	1864.5
539.894	1865.5
545.521	1842.5
551.141	1820.5
556.756	1796.5
562.365	1804.5
567.968	1790.5
573.565	1778.5
579.155	1752.5
584.74	1741.5
590.319	1738.5
595.892	1738.5
601.459	1715.5
607.02	1704.5
612.575	1704.5
618.124	1697.5
623.667	1665.5
629.204	1647.5
634.735	1635.5
640.261	1608.5
645.781	1595.5
651.294	1615.5
656.802	1585.5
662.304	1581.5
667.8	1580.5
673.29	1563.5
678.775	1562.5
684.254	1560.5
689.726	1553.5
695.193	1546.5
700.655	1552.5
706.11	1539.5
711.56	1522.5
717.004	1507.5
722.442	1494.5
727.874	1495.5
733.301	1478.5
738.722	1476.5
744.137	1481.5
749.547	1472.5
754.951	1447.5
760.349	1445.5
765.741	1455.5
771.128	1449.5
776.509	1451.5
781.885	1447.5
787.254	1456.5
792.618	1445.5
797.977	1447.5
803.33	1424.5
808.677	1437.5
814.019	1381.5
819.355	1383.5
824.686	1384.5
830.011	1362.5
835.33	1345.5
840.644	1348.5
845.952	1344.5
851.255	1350.5
856.552	1319.5
861.844	1309.5
867.13	1305.5
872.41	1300.5
877.686	1297.5
882.955	1285.5
888.219	1266.5
893.478	1250.5
898.731	1229.5
903.979	1221.5
909.221	1180.5
914.458	1175.5
919.69	1178.5
924.916	1157.5
930.136	1171.5
935.351	1155.5
940.561	1157.5
945.766	1154.5
950.965	1146.5
956.158	1142.5
961.347	1143.5
966.529	1140.5
971.707	1104.5
976.879	1089.5
982.046	1086.5
987.208	1077.5
992.364	1066.5
997.515	1077.5
1002.66	1072.5
1007.801	1093.5
1012.936	1092.5
1018.066	1103.5
1023.19	1107.5
1028.309	1113.5
1033.423	1112.5
1038.532	1100.5
1043.636	1109.5
1048.734	1101.5
1053.827	1090.5
1058.915	1079.5
1063.998	1066.5
1069.075	1048.5
1074.147	1054.5
1079.214	1068.5
1084.276	1073.5
1089.333	1083.5
1094.385	1072.5
1099.431	1078.5
1104.472	1092.5
1109.509	1083.5
1114.54	1089.5
1119.565	1074.5
1124.586	1044.5
1129.602	1039.5
1134.613	1040.5
1139.618	1031.5
1144.619	1025.5
1149.614	1035.5
1154.604	1039.5
1159.589	1034.5
1164.57	1032.5
1169.545	1038.5
1174.515	1058.5
1179.48	1050.5
1184.44	1048.5
1189.395	1043.5
1194.345	1031.5
1199.29	1037.5
1204.23	1026.5
1209.165	1031.5
1214.095	1020.5
1219.021	1035.5
1223.941	1047.5
1228.856	1032.5
1233.766	1051.5
1238.672	1046.5
1243.572	1046.5
1248.467	1046.5
1253.358	1042.5
1258.244	1032.5
1263.124	1019.5
1268	1012.5
1272.871	975.5
1277.737	974.5
1282.599	970.5
1287.455	977.5
1292.306	975.5
1297.153	977.5
1301.995	993.5
1306.832	996.5
1311.664	988.5
1316.491	982.5
1321.314	999.5
1326.132	979.5
1330.945	977.5
1335.753	948.5
1340.556	941.5
1345.354	912.5
1350.148	904.5
1354.937	887.5
1359.722	893.5
1364.501	903.5
1369.276	921.5
1374.046	926.5
1378.811	956.5
1383.572	951.5
1388.327	956.5
1393.079	940.5
1397.825	944.5
1402.567	907.5
1407.304	899.5
1412.036	897.5
1416.764	882.5
1421.487	877.5
1426.205	869.5
1430.919	874.5
1435.628	894.5
1440.333	875.5
1445.032	898.5
1449.727	906.5
1454.418	899.5
1459.104	913.5
1463.785	897.5
1468.462	891.5
1473.134	878.5
1477.802	868.5
1482.465	865.5
1487.123	851.5
1491.777	869.5
1496.426	874.5
1501.071	892.5
1505.711	910.5
1510.347	913.5
1514.978	923.5
1519.604	929.5
1524.226	954.5
1528.844	957.5
1533.457	947.5
1538.065	978.5
1542.669	982.5
1547.269	969.5
1551.864	972.5
1556.454	969.5
1561.041	967.5
1565.622	967.5
1570.199	971.5
1574.772	992.5
1579.34	1018.5
1583.904	1018.5
1588.464	1047.5
1593.019	1061.5
1597.569	1074.5
1602.115	1083.5
1606.657	1084.5
1611.195	1099.5
1615.728	1109.5
1620.256	1106.5
1624.78	1140.5
1629.3	1144.5
1633.816	1159.5
1638.327	1165.5
1642.834	1190.5
1647.336	1199.5
1651.834	1199.5
1656.328	1212.5
1660.817	1186.5
1665.302	1161.5
1669.783	1163.5
1674.259	1131.5
1678.732	1082.5
1683.199	1050.5
1687.663	1011.5
1692.122	964.5
1696.577	925.5
1701.028	910.5
1705.474	891.5
1709.917	894.5
1714.355	864.5
1718.788	844.5
1723.218	820.5
1727.643	790.5
1732.064	784.5
1736.481	754.5
1740.893	745.5
1745.301	708.5
1749.705	704.5
1754.105	674.5
1758.501	644.5
1762.893	624.5
1767.28	625.5
1771.663	618.5
1776.042	613.5
1780.417	610.5
1784.787	609.5
1789.154	609.5
1793.516	618.5
1797.874	627.5
1802.228	625.5
1806.578	632.5
1810.924	628.5
1815.266	635.5
1819.603	614.5
1823.937	606.5
1828.266	599.5
1832.591	586.5
1836.913	581.5
1841.23	563.5
1845.543	569.5
1849.852	555.5
1854.156	556.5
1858.457	559.5
1862.754	564.5
1867.047	556.5
1871.335	564.5
1875.62	568.5
1879.9	571.5
1884.177	570.5
1888.449	575.5
1892.718	570.5
1896.982	565.5
1901.243	563.5
1905.499	559.5
1909.752	549.5
1914	556.5
1918.245	552.5
1922.485	565.5
1926.722	575.5
1930.954	574.5
1935.183	575.5
1939.408	564.5
1943.628	594.5
1947.845	602.5
1952.058	593.5
1956.267	579.5
1960.472	586.5
1964.673	576.5
1968.87	575.5
1973.063	563.5
1977.252	562.5
1981.438	552.5
1985.619	559.5
1989.797	549.5
1993.971	546.5
1998.14	551.5
2002.306	558.5
2006.469	551.5
2010.627	548.5
2014.781	563.5
2018.932	532.5
2023.078	556.5
2027.221	551.5
2031.36	549.5
2035.495	540.5
2039.627	533.5
2043.754	529.5
2047.878	535.5
2051.998	534.5
2056.114	522.5
2060.226	540.5
2064.334	541.5
2068.439	534.5
2072.54	543.5
2076.637	543.5
2080.73	548.5
2084.82	564.5
2088.906	552.5
2092.988	571.5
2097.066	557.5
2101.14	555.5
2105.211	548.5
2109.278	555.5
2113.342	549.5
2117.401	549.5
2121.457	535.5
2125.509	542.5
2129.558	540.5
2133.602	534.5
2137.643	536.5
2141.681	532.5
2145.714	523.5
2149.744	528.5
2153.77	526.5
2157.793	515.5
2161.812	513.5
2165.827	499.5
2169.838	496.5
2173.846	481.5
2177.851	485.5
2181.851	475.5
2185.848	471.5
2189.841	460.5
2193.831	453.5
2197.817	453.5
2201.799	447.5
2205.778	446.5
2209.753	450.5
2213.725	446.5
2217.693	437.5
2221.657	438.5
2225.618	438.5
2229.575	433.5
2233.529	437.5
2237.479	435.5
2241.425	426.5
2245.368	421.5
2249.307	413.5
2253.243	416.5
2257.175	405.5
2261.104	392.5
2265.029	389.5
2268.95	383.5
2272.868	383.5
2276.783	386.5
2280.694	367.5
2284.601	375.5
2288.505	372.5
2292.405	356.5
2296.302	356.5
2300.195	354.5
2304.085	343.5
2307.971	342.5
2311.854	337.5
2315.734	338.5
2319.609	326.5
2323.482	318.5
2327.351	312.5
2331.216	317.5
2335.078	305.5
2338.937	308.5
2342.792	295.5
2346.643	302.5
2350.492	301.5
2354.336	297.5
2358.178	306.5
2362.015	295.5
2365.85	298.5
2369.681	299.5
2373.508	304.5
2377.333	296.5
2381.153	300.5
2384.971	299.5
2388.785	300.5
2392.595	286.5
2396.402	293.5
2400.206	292.5
2404.007	295.5
2407.804	279.5
2411.597	273.5
2415.388	285.5
2419.174	275.5
2422.958	280.5
2426.738	271.5
2430.515	274.5
2434.289	272.5
2438.059	267.5
2441.825	260.5
2445.589	266.5
2449.349	264.5
2453.106	252.5
2456.859	259.5
2460.61	266.5
2464.356	241.5
2468.1	249.5
2471.84	240.5
2475.577	255.5
2479.311	240.5
2483.041	232.5
2486.768	250.5
2490.492	249.5
2494.213	239.5
2497.93	249.5
2501.644	241.5
2505.355	246.5
2509.062	248.5
2512.766	240.5
2516.467	233.5
2520.165	238.5
2523.859	235.5
2527.551	235.5
2531.239	235.5
2534.923	235.5
2538.605	232.5
2542.283	218.5
2545.958	228.5
2549.63	236.5
2553.299	227.5
2556.964	229.5
2560.626	223.5
2564.285	226.5
2567.941	224.5
2571.594	217.5
2575.243	220.5
2578.89	214.5
2582.533	219.5
2586.173	216.5
2589.809	208.5
2593.443	215.5
2597.073	205.5
2600.701	208.5
2604.325	208.5
2607.946	198.5
2611.564	203.5
2615.178	210.5
2618.79	203.5
2622.398	212.5
2626.004	203.5
2629.606	204.5
2633.205	201.5
2636.801	197.5
2640.394	191.5
2643.983	194.5
2647.57	185.5
2651.153	190.5
2654.734	189.5
2658.311	188.5
2661.885	177.5
2665.456	178.5
2669.025	165.5
2672.589	172.5
2676.151	172.5
2679.71	173.5
2683.266	176.5
2686.819	166.5
2690.368	164.5
2693.915	164.5
2697.458	161.5
2700.999	156.5
2704.536	160.5
2708.071	151.5
2711.602	150.5
2715.13	146.5
2718.656	152.5
2722.178	143.5
2725.697	146.5
2729.214	152.5
2732.727	149.5
2736.237	151.5
2739.744	150.5
2743.249	155.5
2746.75	155.5
2750.248	160.5
2753.743	156.5
2757.236	160.5
2760.725	162.5
2764.211	160.5
2767.695	163.5
2771.175	161.5
2774.652	162.5
2778.127	163.5
2781.598	164.5
2785.067	155.5
2788.532	153.5
2791.995	148.5
2795.455	151.5
2798.911	159.5
2802.365	171.5
2805.816	162.5
2809.264	161.5
2812.709	168.5
2816.151	167.5
2819.59	163.5
2823.026	163.5
2826.46	160.5
2829.89	167.5
2833.318	173.5
2836.742	172.5
2840.164	174.5
2843.583	176.5
2846.999	169.5
2850.412	179.5
2853.822	176.5
2857.229	175.5
2860.634	172.5
2864.035	183.5
2867.434	187.5
2870.83	194.5
2874.223	202.5
2877.613	191.5
2881	198.5
2884.385	197.5
2887.766	208.5
2891.145	205.5
2894.521	197.5
2897.894	204.5
2901.264	208.5
2904.631	208.5
2907.996	204.5
2911.358	209.5
2914.717	209.5
2918.073	215.5
2921.426	220.5
2924.777	226.5
2928.124	226.5
2931.469	229.5
2934.811	236.5
2938.15	238.5
2941.487	247.5
2944.821	240.5
2948.152	252.5
2951.48	263.5
2954.805	256.5
2958.128	274.5
2961.447	280.5
2964.765	267.5
2968.079	286.5
2971.39	291.5
2974.699	298.5
2978.005	311.5
2981.308	312.5
2984.609	332.5
2987.907	344.5
2991.202	358.5
2994.494	359.5
2997.784	372.5
3001.07	384.5
3004.355	396.5
3007.636	406.5
3010.915	424.5
3014.191	420.5
3017.464	428.5
3020.734	442.5
3024.002	462.5
3027.267	470.5
3030.53	473.5
3033.789	476.5
3037.046	484.5
3040.301	500.5
3043.552	513.5
3046.801	530.5
3050.048	535.5
3053.291	552.5
3056.532	564.5
3059.771	588.5
3063.006	602.5
3066.239	613.5
3069.469	643.5
3072.697	665.5
3075.922	680.5
3079.144	698.5
3082.364	691.5
3085.581	728.5
3088.795	758.5
3092.007	777.5
3095.216	787.5
3098.423	804.5
3101.627	844.5
3104.828	839.5
3108.026	866.5
3111.222	886.5
3114.416	903.5
3117.607	920.5
3120.795	954.5
3123.98	966.5
3127.163	979.5
3130.344	1030.5
3133.521	1037.5
3136.696	1068.5
3139.869	1089.5
3143.039	1100.5
3146.206	1129.5
3149.371	1125.5
3152.533	1160.5
3155.693	1174.5
3158.85	1181.5
3162.005	1181.5
3165.157	1191.5
3168.306	1204.5
3171.453	1193.5
3174.597	1215.5
3177.739	1202.5
3180.878	1213.5
3184.014	1217.5
3187.149	1234.5
3190.28	1232.5
3193.409	1214.5
3196.536	1232.5
3199.659	1234.5
3202.781	1240.5
3205.9	1251.5
3209.016	1251.5
3212.13	1242.5
3215.241	1251.5
3218.35	1236.5
3221.456	1234.5
3224.56	1230.5
3227.661	1238.5
3230.76	1214.5
3233.856	1205.5
3236.95	1188.5
3240.041	1186.5
3243.13	1182.5
3246.216	1162.5
3249.3	1151.5
3252.382	1153.5
3255.46	1148.5
3258.537	1152.5
3261.611	1130.5
3264.682	1127.5
3267.751	1136.5
3270.818	1105.5
3273.882	1111.5
3276.943	1101.5
3280.002	1105.5
3283.059	1096.5
3286.113	1078.5
3289.165	1053.5
3292.214	1049.5
3295.261	1044.5
3298.306	1033.5
3301.348	1005.5
3304.387	990.5
3307.425	979.5
3310.459	956.5
3313.492	944.5
3316.521	932.5
3319.549	921.5
3322.574	908.5
3325.597	913.5
3328.617	892.5
3331.635	893.5
3334.65	885.5
3337.663	876.5
3340.674	873.5
3343.682	862.5
3346.688	862.5
3349.691	875.5
3352.692	866.5
3355.691	855.5
3358.687	851.5
3361.681	843.5
3364.673	837.5
3367.662	833.5
3370.649	818.5
3373.633	811.5
3376.615	783.5
3379.595	791.5
3382.572	775.5
3385.547	771.5
3388.52	757.5
3391.49	753.5
3394.458	738.5
3397.424	718.5
3400.387	719.5
3403.348	701.5
3406.307	705.5
3409.263	691.5
3412.217	693.5
3415.168	682.5
3418.118	670.5
3421.065	663.5
3424.009	659.5
3426.951	647.5
3429.891	637.5
3432.829	630.5
3435.764	639.5
3438.697	603.5
3441.628	600.5
3444.557	593.5
3447.483	564.5
3450.407	555.5
3453.328	544.5
3456.247	528.5
3459.164	518.5
3462.079	500.5
3464.991	483.5
3467.902	474.5
3470.809	448.5
3473.715	442.5
3476.618	426.5
3479.519	418.5
3482.418	409.5
3485.315	390.5
3488.209	389.5
3491.101	373.5
3493.99	371.5
3496.878	355.5
3499.763	345.5
3502.646	325.5
3505.527	333.5
3508.405	324.5
3511.281	303.5
3514.155	291.5
3517.027	284.5
3519.897	276.5
3522.764	255.5
3525.629	246.5
3528.492	241.5
3531.352	223.5
3534.211	206.5
3537.067	195.5
3539.921	188.5
3542.773	173.5
3545.622	165.5
3548.469	169.5
3551.315	155.5
3554.157	147.5
3556.998	140.5
3559.837	133.5
3562.673	123.5
3565.507	119.5
3568.339	112.5
3571.169	105.5
3573.996	99.5
3576.822	95.5
3579.645	92.5
3582.466	82.5
3585.285	75.5
3588.101	67.5
3590.916	61.5
3593.728	61.5
3596.538	50.5
3599.346	37.5
3602.152	42.5
3604.956	35.5
3607.757	33.5
3610.556	27.5
3613.354	28.5
3616.149	20.5
3618.942	14.5
3621.732	15.5
3624.521	8.5
3627.307	0.5
3630.092	-0.5
3632.874	-3.5
3635.654	-7.5
3638.432	-9.5
3641.208	-7.5
3643.982	-11.5
3646.753	-14.5
3649.523	-20.5
3652.29	-21.5
3655.055	-28.5
3657.818	-25.5
3660.579	-30.5
3663.338	-32.5
3666.095	-35.5
3668.849	-37.5
3671.602	-42.5
3674.352	-41.5
3677.101	-47.5
3679.847	-51.5
3682.591	-49.5
3685.333	-52.5
3688.073	-56.5
3690.811	-59.5
3693.547	-57.5
3696.281	-59.5
3699.013	-56.5
3701.742	-60.5
3704.47	-56.5
3707.195	-68.5
3709.919	-66.5
3712.64	-67.5
3715.359	-71.5
3718.076	-71.5
3720.792	-72.5
3723.505	-75.5
3726.216	-68.5
3728.925	-74.5
3731.632	-74.5
3734.336	-78.5
3737.039	-81.5
3739.74	-72.5
3742.439	-74.5
3745.136	-77.5
3747.83	-78.5
3750.523	-86.5
3753.213	-76.5
3755.902	-79.5
3758.589	-82.5
3761.273	-80.5
3763.956	-79.5
3766.636	-82.5
3769.315	-83.5
3771.991	-81.5
3774.665	-83.5
3777.338	-85.5
3780.008	-85.5
3782.677	-87.5
3785.343	-85.5
3788.007	-85.5
3790.67	-82.5
3793.33	-80.5
3795.989	-81.5
3798.645	-82.5
3801.299	-87.5
3803.952	-87.5
3806.602	-97.5
3809.251	-89.5
3811.897	-92.5
3814.542	-92.5
3817.184	-89.5
3819.825	-86.5
3822.463	-89.5
3825.1	-86.5
3827.735	-86.5
3830.367	-92.5
3832.998	-91.5
3835.627	-91.5
3838.253	-93.5
3840.878	-90.5
3843.501	-88.5
3846.122	-91.5
3848.741	-87.5
3851.358	-88.5
3853.973	-87.5
3856.586	-93.5
3859.197	-95.5
3861.806	-91.5
3864.414	-96.5
3867.019	-85.5
3869.622	-91.5
3872.224	-87.5
3874.823	-92.5
3877.421	-87.5
3880.016	-79.5
3882.61	-84.5
3885.202	-78.5
3887.792	-82.5
3890.38	-88.5
3892.966	-91.5
3895.55	-91.5
3898.132	-90.5
3900.713	-96.5
3903.291	-94.5
3905.868	-93.5
3908.442	-98.5
3911.015	-94.5
3913.586	-98.5
3916.155	-98.5
3918.722	-99.5
3921.287	-89.5
3923.85	-94.5
3926.411	-94.5
3928.971	-95.5
3931.528	-96.5
3934.084	-91.5
3936.638	-92.5
3939.19	-96.5
3941.74	-94.5
3944.288	-97.5
3946.834	-97.5
3949.378	-97.5
3951.921	-94.5
3954.462	-93.5
3957	-97.5
3959.537	-97.5
3962.072	-100.5
3964.606	-93.5
3967.137	-99.5
3969.667	-95.5
3972.194	-95.5
3974.72	-94.5
3977.244	-98.5
3979.766	-95.5
3982.286	-92.5
3984.805	-95.5
3987.321	-94.5
3989.836	-90.5
3992.349	-94.5
3994.86	-91.5
3997.369	-95.5
3999.877	-95.5
4002.382	-93.5
4004.886	-95.5
4007.388	-97.5
4009.888	-97.5
4012.386	-94.5
4014.883	-92.5
4017.377	-90.5
4019.87	-93.5
4022.361	-94.5
4024.85	-96.5
4027.338	-92.5
4029.823	-99.5
4032.307	-96.5
4034.789	-95.5
4037.269	-91.5
4039.747	-94.5
4042.224	-91.5
4044.699	-91.5
4047.172	-95.5
4049.643	-96.5
4052.112	-99.5
4054.58	-97.5
4057.046	-98.5
4059.51	-97.5
4061.972	-92.5
4064.432	-96.5
4066.891	-92.5
4069.348	-95.5
4071.803	-96.5
4074.256	-98.5
4076.708	-100.5
4079.158	-98.5
4081.606	-97.5
4084.052	-94.5
4086.497	-96.5
4088.939	-92.5
4091.38	-90.5
4093.819	-101.5
4096.257	-104.5
4098.693	-98.5
4101.127	-104.5
4103.559	-105.5
4105.989	-61.5
4108.418	-59.5
4110.845	-57.5
4113.27	-52.5
4115.694	-43.5
4118.115	-36.5
4120.535	-95.5
4122.954	-100.5
4125.37	-97.5
4127.785	-97.5
4130.198	-95.5
4132.609	-95.5
4135.019	-100.5
4137.427	-101.5
4139.833	-102.5
4142.237	-103.5
