Data from Bacilus_dil1103_A2_RamanShift_1.txt Node
Date: Wed Mar 01 12:12:17 IST 2017
User: aro
Spectrometer: QEPB0276
Trigger mode: 0
Integration Time (sec): 5.000000E0
Scans to average: 1
Electric dark correction enabled: true
Nonlinearity correction enabled: false
Boxcar width: 0
XAxis mode: Raman Shifts
Number of Pixels in Spectrum: 1044
>>>>>Begin Spectral Data<<<<<
160.701	-32.62
166.742	2.38
172.777	92.38
178.805	368.38
184.826	1026.38
190.841	2135.38
196.849	3402.38
202.85	4186.38
208.845	4401.38
214.833	4219.38
220.815	4047.38
226.789	3927.38
232.758	3783.38
238.719	3655.38
244.674	3495.38
250.623	3359.38
256.565	3185.38
262.5	3004.38
268.429	2845.38
274.351	2719.38
280.267	2605.38
286.176	2493.38
292.079	2379.38
297.975	2304.38
303.865	2233.38
309.748	2165.38
315.625	2111.38
321.495	2064.38
327.359	2013.38
333.217	2011.38
339.068	1980.38
344.912	1973.38
350.751	1953.38
356.583	1964.38
362.408	1957.38
368.227	1961.38
374.04	1963.38
379.847	1979.38
385.647	1973.38
391.44	1989.38
397.228	2035.38
403.009	2031.38
408.784	2027.38
414.553	2031.38
420.315	2025.38
426.071	2016.38
431.821	2033.38
437.565	2038.38
443.302	2022.38
449.033	2007.38
454.758	1986.38
460.477	1988.38
466.189	1971.38
471.896	1940.38
477.596	1943.38
483.29	1937.38
488.978	1919.38
494.66	1907.38
500.335	1894.38
506.005	1848.38
511.668	1809.38
517.325	1772.38
522.977	1738.38
528.622	1697.38
534.261	1681.38
539.894	1656.38
545.521	1643.38
551.141	1617.38
556.756	1618.38
562.365	1589.38
567.968	1570.38
573.565	1551.38
579.155	1559.38
584.74	1530.38
590.319	1516.38
595.892	1526.38
601.459	1501.38
607.02	1500.38
612.575	1491.38
618.124	1459.38
623.667	1447.38
629.204	1415.38
634.735	1408.38
640.261	1396.38
645.781	1385.38
651.294	1361.38
656.802	1356.38
662.304	1361.38
667.8	1345.38
673.29	1335.38
678.775	1329.38
684.254	1327.38
689.726	1313.38
695.193	1311.38
700.655	1291.38
706.11	1285.38
711.56	1282.38
717.004	1277.38
722.442	1259.38
727.874	1235.38
733.301	1235.38
738.722	1233.38
744.137	1201.38
749.547	1199.38
754.951	1201.38
760.349	1193.38
765.741	1182.38
771.128	1190.38
776.509	1178.38
781.885	1185.38
787.254	1187.38
792.618	1191.38
797.977	1180.38
803.33	1162.38
808.677	1152.38
814.019	1127.38
819.355	1111.38
824.686	1093.38
830.011	1089.38
835.33	1082.38
840.644	1065.38
845.952	1035.38
851.255	1038.38
856.552	1031.38
861.844	1004.38
867.13	1007.38
872.41	1004.38
877.686	988.38
882.955	975.38
888.219	959.38
893.478	937.38
898.731	917.38
903.979	895.38
909.221	888.38
914.458	861.38
919.69	851.38
924.916	848.38
930.136	840.38
935.351	845.38
940.561	838.38
945.766	837.38
950.965	835.38
956.158	825.38
961.347	804.38
966.529	807.38
971.707	773.38
976.879	768.38
982.046	755.38
987.208	745.38
992.364	748.38
997.515	748.38
1002.66	743.38
1007.801	744.38
1012.936	750.38
1018.066	746.38
1023.19	756.38
1028.309	749.38
1033.423	750.38
1038.532	761.38
1043.636	764.38
1048.734	742.38
1053.827	743.38
1058.915	728.38
1063.998	733.38
1069.075	717.38
1074.147	723.38
1079.214	716.38
1084.276	715.38
1089.333	719.38
1094.385	733.38
1099.431	728.38
1104.472	739.38
1109.509	726.38
1114.54	722.38
1119.565	714.38
1124.586	696.38
1129.602	696.38
1134.613	682.38
1139.618	682.38
1144.619	680.38
1149.614	686.38
1154.604	683.38
1159.589	690.38
1164.57	678.38
1169.545	693.38
1174.515	691.38
1179.48	692.38
1184.44	691.38
1189.395	691.38
1194.345	679.38
1199.29	686.38
1204.23	674.38
1209.165	684.38
1214.095	679.38
1219.021	691.38
1223.941	685.38
1228.856	686.38
1233.766	688.38
1238.672	695.38
1243.572	688.38
1248.467	681.38
1253.358	681.38
1258.244	679.38
1263.124	653.38
1268	652.38
1272.871	629.38
1277.737	632.38
1282.599	631.38
1287.455	609.38
1292.306	626.38
1297.153	633.38
1301.995	637.38
1306.832	631.38
1311.664	642.38
1316.491	629.38
1321.314	654.38
1326.132	633.38
1330.945	630.38
1335.753	590.38
1340.556	593.38
1345.354	576.38
1350.148	564.38
1354.937	566.38
1359.722	559.38
1364.501	574.38
1369.276	584.38
1374.046	588.38
1378.811	591.38
1383.572	600.38
1388.327	600.38
1393.079	575.38
1397.825	580.38
1402.567	559.38
1407.304	563.38
1412.036	555.38
1416.764	546.38
1421.487	538.38
1426.205	539.38
1430.919	535.38
1435.628	554.38
1440.333	549.38
1445.032	551.38
1449.727	548.38
1454.418	564.38
1459.104	565.38
1463.785	566.38
1468.462	556.38
1473.134	546.38
1477.802	532.38
1482.465	537.38
1487.123	532.38
1491.777	539.38
1496.426	539.38
1501.071	549.38
1505.711	567.38
1510.347	555.38
1514.978	590.38
1519.604	595.38
1524.226	608.38
1528.844	610.38
1533.457	608.38
1538.065	615.38
1542.669	630.38
1547.269	621.38
1551.864	626.38
1556.454	632.38
1561.041	635.38
1565.622	652.38
1570.199	643.38
1574.772	671.38
1579.34	681.38
1583.904	701.38
1588.464	723.38
1593.019	735.38
1597.569	763.38
1602.115	760.38
1606.657	793.38
1611.195	816.38
1615.728	822.38
1620.256	819.38
1624.78	853.38
1629.3	854.38
1633.816	889.38
1638.327	909.38
1642.834	918.38
1647.336	928.38
1651.834	926.38
1656.328	920.38
1660.817	901.38
1665.302	893.38
1669.783	863.38
1674.259	838.38
1678.732	800.38
1683.199	748.38
1687.663	710.38
1692.122	670.38
1696.577	649.38
1701.028	623.38
1705.474	596.38
1709.917	580.38
1714.355	558.38
1718.788	534.38
1723.218	506.38
1727.643	490.38
1732.064	471.38
1736.481	432.38
1740.893	427.38
1745.301	402.38
1749.705	388.38
1754.105	366.38
1758.501	346.38
1762.893	335.38
1767.28	322.38
1771.663	321.38
1776.042	303.38
1780.417	316.38
1784.787	311.38
1789.154	312.38
1793.516	309.38
1797.874	314.38
1802.228	311.38
1806.578	310.38
1810.924	312.38
1815.266	302.38
1819.603	297.38
1823.937	290.38
1828.266	277.38
1832.591	272.38
1836.913	279.38
1841.23	258.38
1845.543	265.38
1849.852	253.38
1854.156	264.38
1858.457	251.38
1862.754	255.38
1867.047	258.38
1871.335	259.38
1875.62	259.38
1879.9	266.38
1884.177	261.38
1888.449	252.38
1892.718	260.38
1896.982	256.38
1901.243	257.38
1905.499	258.38
1909.752	254.38
1914	260.38
1918.245	261.38
1922.485	270.38
1926.722	267.38
1930.954	267.38
1935.183	272.38
1939.408	269.38
1943.628	278.38
1947.845	281.38
1952.058	283.38
1956.267	279.38
1960.472	287.38
1964.673	279.38
1968.87	278.38
1973.063	278.38
1977.252	271.38
1981.438	270.38
1985.619	268.38
1989.797	254.38
1993.971	263.38
1998.14	261.38
2002.306	272.38
2006.469	264.38
2010.627	272.38
2014.781	276.38
2018.932	283.38
2023.078	269.38
2027.221	274.38
2031.36	279.38
2035.495	271.38
2039.627	274.38
2043.754	268.38
2047.878	281.38
2051.998	272.38
2056.114	279.38
2060.226	282.38
2064.334	280.38
2068.439	273.38
2072.54	277.38
2076.637	292.38
2080.73	290.38
2084.82	295.38
2088.906	295.38
2092.988	300.38
2097.066	300.38
2101.14	305.38
2105.211	295.38
2109.278	290.38
2113.342	282.38
2117.401	296.38
2121.457	289.38
2125.509	289.38
2129.558	285.38
2133.602	287.38
2137.643	299.38
2141.681	274.38
2145.714	273.38
2149.744	273.38
2153.77	270.38
2157.793	256.38
2161.812	263.38
2165.827	257.38
2169.838	257.38
2173.846	258.38
2177.851	249.38
2181.851	237.38
2185.848	224.38
2189.841	229.38
2193.831	222.38
2197.817	227.38
2201.799	211.38
2205.778	226.38
2209.753	214.38
2213.725	215.38
2217.693	215.38
2221.657	208.38
2225.618	209.38
2229.575	204.38
2233.529	203.38
2237.479	194.38
2241.425	195.38
2245.368	199.38
2249.307	184.38
2253.243	188.38
2257.175	175.38
2261.104	173.38
2265.029	165.38
2268.95	165.38
2272.868	164.38
2276.783	165.38
2280.694	159.38
2284.601	161.38
2288.505	150.38
2292.405	149.38
2296.302	140.38
2300.195	146.38
2304.085	133.38
2307.971	134.38
2311.854	134.38
2315.734	137.38
2319.609	122.38
2323.482	128.38
2327.351	116.38
2331.216	118.38
2335.078	117.38
2338.937	114.38
2342.792	115.38
2346.643	106.38
2350.492	106.38
2354.336	113.38
2358.178	105.38
2362.015	105.38
2365.85	104.38
2369.681	100.38
2373.508	99.38
2377.333	101.38
2381.153	110.38
2384.971	115.38
2388.785	102.38
2392.595	99.38
2396.402	103.38
2400.206	95.38
2404.007	95.38
2407.804	89.38
2411.597	87.38
2415.388	96.38
2419.174	91.38
2422.958	93.38
2426.738	90.38
2430.515	82.38
2434.289	87.38
2438.059	78.38
2441.825	82.38
2445.589	79.38
2449.349	76.38
2453.106	80.38
2456.859	84.38
2460.61	86.38
2464.356	71.38
2468.1	71.38
2471.84	69.38
2475.577	66.38
2479.311	68.38
2483.041	68.38
2486.768	76.38
2490.492	74.38
2494.213	67.38
2497.93	74.38
2501.644	74.38
2505.355	67.38
2509.062	68.38
2512.766	65.38
2516.467	66.38
2520.165	66.38
2523.859	64.38
2527.551	60.38
2531.239	61.38
2534.923	60.38
2538.605	70.38
2542.283	54.38
2545.958	57.38
2549.63	60.38
2553.299	61.38
2556.964	52.38
2560.626	58.38
2564.285	59.38
2567.941	57.38
2571.594	56.38
2575.243	54.38
2578.89	55.38
2582.533	55.38
2586.173	52.38
2589.809	58.38
2593.443	51.38
2597.073	49.38
2600.701	49.38
2604.325	42.38
2607.946	48.38
2611.564	43.38
2615.178	47.38
2618.79	48.38
2622.398	51.38
2626.004	47.38
2629.606	42.38
2633.205	45.38
2636.801	41.38
2640.394	41.38
2643.983	46.38
2647.57	39.38
2651.153	39.38
2654.734	40.38
2658.311	43.38
2661.885	38.38
2665.456	38.38
2669.025	37.38
2672.589	36.38
2676.151	29.38
2679.71	32.38
2683.266	32.38
2686.819	33.38
2690.368	34.38
2693.915	34.38
2697.458	28.38
2700.999	32.38
2704.536	29.38
2708.071	26.38
2711.602	27.38
2715.13	19.38
2718.656	25.38
2722.178	25.38
2725.697	30.38
2729.214	31.38
2732.727	29.38
2736.237	31.38
2739.744	30.38
2743.249	30.38
2746.75	33.38
2750.248	37.38
2753.743	32.38
2757.236	42.38
2760.725	38.38
2764.211	43.38
2767.695	45.38
2771.175	49.38
2774.652	38.38
2778.127	47.38
2781.598	42.38
2785.067	44.38
2788.532	42.38
2791.995	46.38
2795.455	47.38
2798.911	45.38
2802.365	55.38
2805.816	60.38
2809.264	57.38
2812.709	53.38
2816.151	54.38
2819.59	54.38
2823.026	55.38
2826.46	60.38
2829.89	62.38
2833.318	69.38
2836.742	60.38
2840.164	68.38
2843.583	76.38
2846.999	69.38
2850.412	75.38
2853.822	73.38
2857.229	81.38
2860.634	93.38
2864.035	92.38
2867.434	98.38
2870.83	97.38
2874.223	94.38
2877.613	102.38
2881	109.38
2884.385	108.38
2887.766	111.38
2891.145	118.38
2894.521	118.38
2897.894	112.38
2901.264	120.38
2904.631	124.38
2907.996	126.38
2911.358	125.38
2914.717	142.38
2918.073	143.38
2921.426	145.38
2924.777	146.38
2928.124	150.38
2931.469	161.38
2934.811	167.38
2938.15	171.38
2941.487	178.38
2944.821	179.38
2948.152	199.38
2951.48	193.38
2954.805	200.38
2958.128	212.38
2961.447	214.38
2964.765	216.38
2968.079	227.38
2971.39	234.38
2974.699	242.38
2978.005	259.38
2981.308	269.38
2984.609	282.38
2987.907	295.38
2991.202	304.38
2994.494	324.38
2997.784	316.38
3001.07	339.38
3004.355	354.38
3007.636	364.38
3010.915	381.38
3014.191	392.38
3017.464	413.38
3020.734	423.38
3024.002	422.38
3027.267	447.38
3030.53	446.38
3033.789	448.38
3037.046	461.38
3040.301	475.38
3043.552	495.38
3046.801	517.38
3050.048	538.38
3053.291	538.38
3056.532	561.38
3059.771	577.38
3063.006	599.38
3066.239	622.38
3069.469	646.38
3072.697	671.38
3075.922	679.38
3079.144	710.38
3082.364	737.38
3085.581	755.38
3088.795	779.38
3092.007	795.38
3095.216	823.38
3098.423	843.38
3101.627	854.38
3104.828	882.38
3108.026	907.38
3111.222	919.38
3114.416	950.38
3117.607	969.38
3120.795	983.38
3123.98	1014.38
3127.163	1052.38
3130.344	1062.38
3133.521	1082.38
3136.696	1130.38
3139.869	1164.38
3143.039	1182.38
3146.206	1203.38
3149.371	1229.38
3152.533	1232.38
3155.693	1243.38
3158.85	1254.38
3162.005	1255.38
3165.157	1265.38
3168.306	1285.38
3171.453	1296.38
3174.597	1292.38
3177.739	1310.38
3180.878	1303.38
3184.014	1317.38
3187.149	1315.38
3190.28	1322.38
3193.409	1323.38
3196.536	1331.38
3199.659	1344.38
3202.781	1352.38
3205.9	1356.38
3209.016	1350.38
3212.13	1354.38
3215.241	1357.38
3218.35	1341.38
3221.456	1345.38
3224.56	1340.38
3227.661	1317.38
3230.76	1312.38
3233.856	1302.38
3236.95	1293.38
3240.041	1298.38
3243.13	1270.38
3246.216	1265.38
3249.3	1270.38
3252.382	1254.38
3255.46	1236.38
3258.537	1233.38
3261.611	1237.38
3264.682	1235.38
3267.751	1214.38
3270.818	1198.38
3273.882	1201.38
3276.943	1193.38
3280.002	1198.38
3283.059	1189.38
3286.113	1166.38
3289.165	1149.38
3292.214	1134.38
3295.261	1120.38
3298.306	1116.38
3301.348	1087.38
3304.387	1080.38
3307.425	1060.38
3310.459	1044.38
3313.492	1030.38
3316.521	1021.38
3319.549	1012.38
3322.574	989.38
3325.597	994.38
3328.617	984.38
3331.635	974.38
3334.65	962.38
3337.663	959.38
3340.674	945.38
3343.682	947.38
3346.688	944.38
3349.691	954.38
3352.692	940.38
3355.691	925.38
3358.687	932.38
3361.681	928.38
3364.673	908.38
3367.662	900.38
3370.649	896.38
3373.633	878.38
3376.615	871.38
3379.595	866.38
3382.572	861.38
3385.547	838.38
3388.52	833.38
3391.49	822.38
3394.458	812.38
3397.424	807.38
3400.387	793.38
3403.348	787.38
3406.307	774.38
3409.263	765.38
3412.217	745.38
3415.168	739.38
3418.118	737.38
3421.065	738.38
3424.009	717.38
3426.951	725.38
3429.891	694.38
3432.829	687.38
3435.764	679.38
3438.697	671.38
3441.628	656.38
3444.557	647.38
3447.483	634.38
3450.407	608.38
3453.328	597.38
3456.247	574.38
3459.164	558.38
3462.079	549.38
3464.991	540.38
3467.902	510.38
3470.809	507.38
3473.715	479.38
3476.618	472.38
3479.519	458.38
3482.418	463.38
3485.315	440.38
3488.209	436.38
3491.101	409.38
3493.99	408.38
3496.878	392.38
3499.763	377.38
3502.646	369.38
3505.527	360.38
3508.405	343.38
3511.281	329.38
3514.155	325.38
3517.027	308.38
3519.897	301.38
3522.764	280.38
3525.629	279.38
3528.492	262.38
3531.352	241.38
3534.211	226.38
3537.067	221.38
3539.921	212.38
3542.773	189.38
3545.622	191.38
3548.469	181.38
3551.315	177.38
3554.157	155.38
3556.998	154.38
3559.837	138.38
3562.673	130.38
3565.507	124.38
3568.339	125.38
3571.169	110.38
3573.996	108.38
3576.822	99.38
3579.645	100.38
3582.466	92.38
3585.285	88.38
3588.101	77.38
3590.916	69.38
3593.728	62.38
3596.538	57.38
3599.346	48.38
3602.152	48.38
3604.956	39.38
3607.757	30.38
3610.556	30.38
3613.354	27.38
3616.149	18.38
3618.942	19.38
3621.732	15.38
3624.521	14.38
3627.307	3.38
3630.092	1.38
3632.874	-1.62
3635.654	-9.62
3638.432	-7.62
3641.208	-11.62
3643.982	-13.62
3646.753	-8.62
3649.523	-20.62
3652.29	-21.62
3655.055	-23.62
3657.818	-35.62
3660.579	-32.62
3663.338	-38.62
3666.095	-38.62
3668.849	-39.62
3671.602	-39.62
3674.352	-41.62
3677.101	-47.62
3679.847	-49.62
3682.591	-53.62
3685.333	-58.62
3688.073	-63.62
3690.811	-57.62
3693.547	-61.62
3696.281	-63.62
3699.013	-60.62
3701.742	-64.62
3704.47	-65.62
3707.195	-71.62
3709.919	-73.62
3712.64	-73.62
3715.359	-76.62
3718.076	-75.62
3720.792	-74.62
3723.505	-75.62
3726.216	-72.62
3728.925	-77.62
3731.632	-82.62
3734.336	-83.62
3737.039	-84.62
3739.74	-80.62
3742.439	-78.62
3745.136	-82.62
3747.83	-77.62
3750.523	-83.62
3753.213	-80.62
3755.902	-85.62
3758.589	-86.62
3761.273	-88.62
3763.956	-88.62
3766.636	-88.62
3769.315	-88.62
3771.991	-87.62
3774.665	-88.62
3777.338	-90.62
3780.008	-87.62
3782.677	-90.62
3785.343	-90.62
3788.007	-88.62
3790.67	-90.62
3793.33	-94.62
3795.989	-91.62
3798.645	-90.62
3801.299	-93.62
3803.952	-92.62
3806.602	-94.62
3809.251	-91.62
3811.897	-90.62
3814.542	-93.62
3817.184	-94.62
3819.825	-92.62
3822.463	-91.62
3825.1	-94.62
3827.735	-94.62
3830.367	-99.62
3832.998	-100.62
3835.627	-96.62
3838.253	-98.62
3840.878	-95.62
3843.501	-95.62
3846.122	-95.62
3848.741	-98.62
3851.358	-95.62
3853.973	-99.62
3856.586	-96.62
3859.197	-98.62
3861.806	-92.62
3864.414	-96.62
3867.019	-91.62
3869.622	-97.62
3872.224	-95.62
3874.823	-93.62
3877.421	-94.62
3880.016	-88.62
3882.61	-86.62
3885.202	-78.62
3887.792	-83.62
3890.38	-87.62
3892.966	-92.62
3895.55	-94.62
3898.132	-93.62
3900.713	-100.62
3903.291	-101.62
3905.868	-99.62
3908.442	-102.62
3911.015	-98.62
3913.586	-99.62
3916.155	-97.62
3918.722	-99.62
3921.287	-96.62
3923.85	-96.62
3926.411	-99.62
3928.971	-100.62
3931.528	-102.62
3934.084	-97.62
3936.638	-102.62
3939.19	-104.62
3941.74	-99.62
3944.288	-99.62
3946.834	-97.62
3949.378	-100.62
3951.921	-98.62
3954.462	-96.62
3957	-102.62
3959.537	-101.62
3962.072	-107.62
3964.606	-100.62
3967.137	-99.62
3969.667	-99.62
3972.194	-97.62
3974.72	-97.62
3977.244	-99.62
3979.766	-102.62
3982.286	-100.62
3984.805	-102.62
3987.321	-103.62
3989.836	-98.62
3992.349	-99.62
3994.86	-95.62
3997.369	-99.62
3999.877	-95.62
4002.382	-97.62
4004.886	-100.62
4007.388	-100.62
4009.888	-102.62
4012.386	-102.62
4014.883	-100.62
4017.377	-93.62
4019.87	-96.62
4022.361	-98.62
4024.85	-96.62
4027.338	-92.62
4029.823	-101.62
4032.307	-100.62
4034.789	-100.62
4037.269	-97.62
4039.747	-99.62
4042.224	-100.62
4044.699	-94.62
4047.172	-99.62
4049.643	-100.62
4052.112	-98.62
4054.58	-101.62
4057.046	-98.62
4059.51	-98.62
4061.972	-102.62
4064.432	-96.62
4066.891	-100.62
4069.348	-101.62
4071.803	-97.62
4074.256	-102.62
4076.708	-102.62
4079.158	-98.62
4081.606	-99.62
4084.052	-100.62
4086.497	-102.62
4088.939	-97.62
4091.38	-97.62
4093.819	-97.62
4096.257	-104.62
4098.693	-100.62
4101.127	-106.62
4103.559	-106.62
4105.989	-63.62
4108.418	-64.62
4110.845	-63.62
4113.27	-54.62
4115.694	-49.62
4118.115	-34.62
4120.535	-100.62
4122.954	-103.62
4125.37	-99.62
4127.785	-101.62
4130.198	-101.62
4132.609	-98.62
4135.019	-106.62
4137.427	-107.62
4139.833	-107.62
4142.237	-108.62
