Data from Bacilus_dil1105_B1_RamanShift_1.txt Node
Date: Wed Mar 01 12:36:42 IST 2017
User: aro
Spectrometer: QEPB0276
Trigger mode: 0
Integration Time (sec): 5.000000E0
Scans to average: 1
Electric dark correction enabled: true
Nonlinearity correction enabled: false
Boxcar width: 0
XAxis mode: Raman Shifts
Number of Pixels in Spectrum: 1044
>>>>>Begin Spectral Data<<<<<
160.701	-23.25
166.742	-2.25
172.777	88.75
178.805	367.75
184.826	1032.75
190.841	2158.75
196.849	3432.75
202.85	4245.75
208.845	4417.75
214.833	4309.75
220.815	4090.75
226.789	3976.75
232.758	3862.75
238.719	3750.75
244.674	3564.75
250.623	3401.75
256.565	3236.75
262.5	3073.75
268.429	2905.75
274.351	2773.75
280.267	2679.75
286.176	2544.75
292.079	2460.75
297.975	2349.75
303.865	2278.75
309.748	2220.75
315.625	2136.75
321.495	2115.75
327.359	2095.75
333.217	2050.75
339.068	2040.75
344.912	2007.75
350.751	2010.75
356.583	1999.75
362.408	2009.75
368.227	2030.75
374.04	2018.75
379.847	2024.75
385.647	2045.75
391.44	2048.75
397.228	2084.75
403.009	2079.75
408.784	2058.75
414.553	2072.75
420.315	2086.75
426.071	2090.75
431.821	2102.75
437.565	2096.75
443.302	2074.75
449.033	2066.75
454.758	2037.75
460.477	2048.75
466.189	2016.75
471.896	2012.75
477.596	1980.75
483.29	2004.75
488.978	1975.75
494.66	1947.75
500.335	1953.75
506.005	1902.75
511.668	1859.75
517.325	1828.75
522.977	1780.75
528.622	1757.75
534.261	1726.75
539.894	1693.75
545.521	1681.75
551.141	1666.75
556.756	1662.75
562.365	1654.75
567.968	1630.75
573.565	1612.75
579.155	1603.75
584.74	1575.75
590.319	1578.75
595.892	1560.75
601.459	1566.75
607.02	1548.75
612.575	1528.75
618.124	1529.75
623.667	1496.75
629.204	1476.75
634.735	1474.75
640.261	1441.75
645.781	1438.75
651.294	1412.75
656.802	1403.75
662.304	1415.75
667.8	1389.75
673.29	1404.75
678.775	1379.75
684.254	1389.75
689.726	1370.75
695.193	1372.75
700.655	1362.75
706.11	1338.75
711.56	1324.75
717.004	1309.75
722.442	1314.75
727.874	1295.75
733.301	1289.75
738.722	1276.75
744.137	1263.75
749.547	1260.75
754.951	1247.75
760.349	1237.75
765.741	1242.75
771.128	1222.75
776.509	1246.75
781.885	1230.75
787.254	1223.75
792.618	1243.75
797.977	1233.75
803.33	1212.75
808.677	1204.75
814.019	1181.75
819.355	1166.75
824.686	1139.75
830.011	1138.75
835.33	1104.75
840.644	1112.75
845.952	1101.75
851.255	1094.75
856.552	1083.75
861.844	1067.75
867.13	1060.75
872.41	1049.75
877.686	1049.75
882.955	1034.75
888.219	1019.75
893.478	994.75
898.731	977.75
903.979	955.75
909.221	955.75
914.458	921.75
919.69	912.75
924.916	914.75
930.136	912.75
935.351	891.75
940.561	891.75
945.766	885.75
950.965	877.75
956.158	867.75
961.347	854.75
966.529	865.75
971.707	826.75
976.879	829.75
982.046	813.75
987.208	808.75
992.364	801.75
997.515	804.75
1002.66	798.75
1007.801	794.75
1012.936	809.75
1018.066	827.75
1023.19	821.75
1028.309	820.75
1033.423	819.75
1038.532	813.75
1043.636	826.75
1048.734	809.75
1053.827	800.75
1058.915	787.75
1063.998	775.75
1069.075	777.75
1074.147	769.75
1079.214	770.75
1084.276	775.75
1089.333	773.75
1094.385	769.75
1099.431	786.75
1104.472	789.75
1109.509	781.75
1114.54	780.75
1119.565	767.75
1124.586	766.75
1129.602	746.75
1134.613	754.75
1139.618	742.75
1144.619	745.75
1149.614	740.75
1154.604	752.75
1159.589	749.75
1164.57	743.75
1169.545	749.75
1174.515	764.75
1179.48	748.75
1184.44	753.75
1189.395	757.75
1194.345	740.75
1199.29	736.75
1204.23	737.75
1209.165	743.75
1214.095	736.75
1219.021	735.75
1223.941	751.75
1228.856	754.75
1233.766	748.75
1238.672	762.75
1243.572	755.75
1248.467	753.75
1253.358	747.75
1258.244	746.75
1263.124	727.75
1268	711.75
1272.871	704.75
1277.737	700.75
1282.599	688.75
1287.455	695.75
1292.306	681.75
1297.153	698.75
1301.995	693.75
1306.832	702.75
1311.664	697.75
1316.491	707.75
1321.314	710.75
1326.132	680.75
1330.945	687.75
1335.753	675.75
1340.556	664.75
1345.354	639.75
1350.148	634.75
1354.937	618.75
1359.722	622.75
1364.501	636.75
1369.276	637.75
1374.046	651.75
1378.811	653.75
1383.572	663.75
1388.327	658.75
1393.079	643.75
1397.825	634.75
1402.567	618.75
1407.304	617.75
1412.036	610.75
1416.764	605.75
1421.487	604.75
1426.205	596.75
1430.919	605.75
1435.628	611.75
1440.333	606.75
1445.032	616.75
1449.727	623.75
1454.418	618.75
1459.104	620.75
1463.785	623.75
1468.462	617.75
1473.134	602.75
1477.802	605.75
1482.465	610.75
1487.123	604.75
1491.777	602.75
1496.426	603.75
1501.071	617.75
1505.711	625.75
1510.347	636.75
1514.978	655.75
1519.604	655.75
1524.226	673.75
1528.844	681.75
1533.457	688.75
1538.065	683.75
1542.669	690.75
1547.269	676.75
1551.864	690.75
1556.454	706.75
1561.041	705.75
1565.622	709.75
1570.199	709.75
1574.772	731.75
1579.34	744.75
1583.904	771.75
1588.464	792.75
1593.019	798.75
1597.569	826.75
1602.115	840.75
1606.657	862.75
1611.195	870.75
1615.728	871.75
1620.256	898.75
1624.78	913.75
1629.3	929.75
1633.816	949.75
1638.327	981.75
1642.834	984.75
1647.336	987.75
1651.834	999.75
1656.328	999.75
1660.817	950.75
1665.302	931.75
1669.783	929.75
1674.259	913.75
1678.732	867.75
1683.199	827.75
1687.663	784.75
1692.122	742.75
1696.577	708.75
1701.028	688.75
1705.474	658.75
1709.917	640.75
1714.355	617.75
1718.788	584.75
1723.218	559.75
1727.643	538.75
1732.064	516.75
1736.481	503.75
1740.893	466.75
1745.301	454.75
1749.705	441.75
1754.105	425.75
1758.501	399.75
1762.893	388.75
1767.28	376.75
1771.663	380.75
1776.042	363.75
1780.417	368.75
1784.787	365.75
1789.154	355.75
1793.516	359.75
1797.874	364.75
1802.228	363.75
1806.578	365.75
1810.924	361.75
1815.266	362.75
1819.603	351.75
1823.937	336.75
1828.266	337.75
1832.591	325.75
1836.913	324.75
1841.23	322.75
1845.543	311.75
1849.852	309.75
1854.156	308.75
1858.457	306.75
1862.754	307.75
1867.047	309.75
1871.335	317.75
1875.62	319.75
1879.9	315.75
1884.177	325.75
1888.449	306.75
1892.718	307.75
1896.982	313.75
1901.243	319.75
1905.499	313.75
1909.752	313.75
1914	310.75
1918.245	320.75
1922.485	319.75
1926.722	314.75
1930.954	321.75
1935.183	322.75
1939.408	324.75
1943.628	341.75
1947.845	338.75
1952.058	329.75
1956.267	335.75
1960.472	328.75
1964.673	337.75
1968.87	322.75
1973.063	326.75
1977.252	319.75
1981.438	319.75
1985.619	312.75
1989.797	308.75
1993.971	316.75
1998.14	315.75
2002.306	321.75
2006.469	312.75
2010.627	320.75
2014.781	327.75
2018.932	321.75
2023.078	326.75
2027.221	330.75
2031.36	314.75
2035.495	322.75
2039.627	313.75
2043.754	318.75
2047.878	316.75
2051.998	319.75
2056.114	323.75
2060.226	324.75
2064.334	324.75
2068.439	326.75
2072.54	324.75
2076.637	332.75
2080.73	327.75
2084.82	338.75
2088.906	352.75
2092.988	346.75
2097.066	347.75
2101.14	352.75
2105.211	341.75
2109.278	334.75
2113.342	332.75
2117.401	328.75
2121.457	332.75
2125.509	332.75
2129.558	333.75
2133.602	337.75
2137.643	330.75
2141.681	337.75
2145.714	315.75
2149.744	317.75
2153.77	315.75
2157.793	305.75
2161.812	308.75
2165.827	302.75
2169.838	296.75
2173.846	293.75
2177.851	297.75
2181.851	289.75
2185.848	277.75
2189.841	273.75
2193.831	270.75
2197.817	259.75
2201.799	261.75
2205.778	270.75
2209.753	264.75
2213.725	258.75
2217.693	250.75
2221.657	248.75
2225.618	251.75
2229.575	247.75
2233.529	244.75
2237.479	245.75
2241.425	242.75
2245.368	232.75
2249.307	231.75
2253.243	228.75
2257.175	221.75
2261.104	221.75
2265.029	211.75
2268.95	208.75
2272.868	209.75
2276.783	201.75
2280.694	197.75
2284.601	193.75
2288.505	189.75
2292.405	185.75
2296.302	186.75
2300.195	189.75
2304.085	168.75
2307.971	175.75
2311.854	173.75
2315.734	177.75
2319.609	168.75
2323.482	160.75
2327.351	156.75
2331.216	157.75
2335.078	144.75
2338.937	144.75
2342.792	146.75
2346.643	152.75
2350.492	149.75
2354.336	150.75
2358.178	133.75
2362.015	136.75
2365.85	146.75
2369.681	136.75
2373.508	138.75
2377.333	137.75
2381.153	143.75
2384.971	138.75
2388.785	138.75
2392.595	135.75
2396.402	137.75
2400.206	138.75
2404.007	131.75
2407.804	126.75
2411.597	118.75
2415.388	130.75
2419.174	129.75
2422.958	125.75
2426.738	124.75
2430.515	124.75
2434.289	123.75
2438.059	115.75
2441.825	121.75
2445.589	112.75
2449.349	114.75
2453.106	105.75
2456.859	115.75
2460.61	111.75
2464.356	110.75
2468.1	114.75
2471.84	100.75
2475.577	108.75
2479.311	100.75
2483.041	104.75
2486.768	106.75
2490.492	108.75
2494.213	99.75
2497.93	102.75
2501.644	109.75
2505.355	112.75
2509.062	104.75
2512.766	102.75
2516.467	100.75
2520.165	98.75
2523.859	95.75
2527.551	96.75
2531.239	98.75
2534.923	99.75
2538.605	95.75
2542.283	89.75
2545.958	97.75
2549.63	95.75
2553.299	88.75
2556.964	93.75
2560.626	97.75
2564.285	88.75
2567.941	83.75
2571.594	84.75
2575.243	82.75
2578.89	85.75
2582.533	90.75
2586.173	81.75
2589.809	85.75
2593.443	89.75
2597.073	81.75
2600.701	80.75
2604.325	71.75
2607.946	74.75
2611.564	76.75
2615.178	77.75
2618.79	74.75
2622.398	76.75
2626.004	81.75
2629.606	76.75
2633.205	71.75
2636.801	81.75
2640.394	74.75
2643.983	69.75
2647.57	64.75
2651.153	68.75
2654.734	62.75
2658.311	67.75
2661.885	61.75
2665.456	69.75
2669.025	60.75
2672.589	61.75
2676.151	60.75
2679.71	62.75
2683.266	52.75
2686.819	63.75
2690.368	54.75
2693.915	60.75
2697.458	52.75
2700.999	55.75
2704.536	56.75
2708.071	49.75
2711.602	47.75
2715.13	42.75
2718.656	54.75
2722.178	53.75
2725.697	50.75
2729.214	61.75
2732.727	54.75
2736.237	52.75
2739.744	62.75
2743.249	56.75
2746.75	59.75
2750.248	67.75
2753.743	59.75
2757.236	65.75
2760.725	67.75
2764.211	63.75
2767.695	69.75
2771.175	67.75
2774.652	71.75
2778.127	68.75
2781.598	66.75
2785.067	72.75
2788.532	63.75
2791.995	71.75
2795.455	69.75
2798.911	75.75
2802.365	78.75
2805.816	78.75
2809.264	75.75
2812.709	79.75
2816.151	82.75
2819.59	73.75
2823.026	85.75
2826.46	79.75
2829.89	82.75
2833.318	88.75
2836.742	84.75
2840.164	96.75
2843.583	100.75
2846.999	98.75
2850.412	91.75
2853.822	100.75
2857.229	102.75
2860.634	111.75
2864.035	117.75
2867.434	120.75
2870.83	121.75
2874.223	123.75
2877.613	122.75
2881	124.75
2884.385	131.75
2887.766	135.75
2891.145	138.75
2894.521	139.75
2897.894	139.75
2901.264	143.75
2904.631	148.75
2907.996	150.75
2911.358	151.75
2914.717	159.75
2918.073	159.75
2921.426	167.75
2924.777	177.75
2928.124	173.75
2931.469	183.75
2934.811	186.75
2938.15	189.75
2941.487	211.75
2944.821	197.75
2948.152	223.75
2951.48	219.75
2954.805	224.75
2958.128	233.75
2961.447	238.75
2964.765	243.75
2968.079	249.75
2971.39	257.75
2974.699	273.75
2978.005	275.75
2981.308	292.75
2984.609	301.75
2987.907	324.75
2991.202	329.75
2994.494	338.75
2997.784	348.75
3001.07	359.75
3004.355	375.75
3007.636	395.75
3010.915	400.75
3014.191	399.75
3017.464	426.75
3020.734	437.75
3024.002	440.75
3027.267	467.75
3030.53	465.75
3033.789	476.75
3037.046	481.75
3040.301	491.75
3043.552	506.75
3046.801	532.75
3050.048	553.75
3053.291	566.75
3056.532	587.75
3059.771	612.75
3063.006	624.75
3066.239	642.75
3069.469	666.75
3072.697	687.75
3075.922	712.75
3079.144	734.75
3082.364	755.75
3085.581	780.75
3088.795	805.75
3092.007	826.75
3095.216	846.75
3098.423	856.75
3101.627	893.75
3104.828	905.75
3108.026	920.75
3111.222	945.75
3114.416	985.75
3117.607	998.75
3120.795	1025.75
3123.98	1049.75
3127.163	1078.75
3130.344	1106.75
3133.521	1128.75
3136.696	1152.75
3139.869	1180.75
3143.039	1219.75
3146.206	1227.75
3149.371	1249.75
3152.533	1268.75
3155.693	1289.75
3158.85	1284.75
3162.005	1294.75
3165.157	1306.75
3168.306	1314.75
3171.453	1327.75
3174.597	1313.75
3177.739	1319.75
3180.878	1322.75
3184.014	1335.75
3187.149	1335.75
3190.28	1344.75
3193.409	1358.75
3196.536	1367.75
3199.659	1356.75
3202.781	1375.75
3205.9	1373.75
3209.016	1396.75
3212.13	1389.75
3215.241	1382.75
3218.35	1373.75
3221.456	1368.75
3224.56	1368.75
3227.661	1366.75
3230.76	1337.75
3233.856	1323.75
3236.95	1334.75
3240.041	1334.75
3243.13	1301.75
3246.216	1285.75
3249.3	1287.75
3252.382	1287.75
3255.46	1282.75
3258.537	1247.75
3261.611	1261.75
3264.682	1254.75
3267.751	1240.75
3270.818	1241.75
3273.882	1223.75
3276.943	1227.75
3280.002	1216.75
3283.059	1193.75
3286.113	1185.75
3289.165	1180.75
3292.214	1167.75
3295.261	1139.75
3298.306	1149.75
3301.348	1113.75
3304.387	1087.75
3307.425	1084.75
3310.459	1068.75
3313.492	1052.75
3316.521	1047.75
3319.549	1018.75
3322.574	1014.75
3325.597	993.75
3328.617	988.75
3331.635	978.75
3334.65	973.75
3337.663	968.75
3340.674	966.75
3343.682	954.75
3346.688	959.75
3349.691	951.75
3352.692	954.75
3355.691	957.75
3358.687	953.75
3361.681	944.75
3364.673	941.75
3367.662	921.75
3370.649	917.75
3373.633	906.75
3376.615	884.75
3379.595	876.75
3382.572	871.75
3385.547	854.75
3388.52	849.75
3391.49	829.75
3394.458	823.75
3397.424	810.75
3400.387	810.75
3403.348	791.75
3406.307	788.75
3409.263	767.75
3412.217	773.75
3415.168	766.75
3418.118	755.75
3421.065	746.75
3424.009	730.75
3426.951	718.75
3429.891	715.75
3432.829	713.75
3435.764	696.75
3438.697	683.75
3441.628	664.75
3444.557	641.75
3447.483	647.75
3450.407	623.75
3453.328	599.75
3456.247	593.75
3459.164	570.75
3462.079	562.75
3464.991	535.75
3467.902	529.75
3470.809	511.75
3473.715	492.75
3476.618	483.75
3479.519	475.75
3482.418	456.75
3485.315	452.75
3488.209	431.75
3491.101	420.75
3493.99	420.75
3496.878	404.75
3499.763	386.75
3502.646	383.75
3505.527	362.75
3508.405	350.75
3511.281	340.75
3514.155	336.75
3517.027	307.75
3519.897	300.75
3522.764	289.75
3525.629	277.75
3528.492	269.75
3531.352	239.75
3534.211	242.75
3537.067	231.75
3539.921	213.75
3542.773	197.75
3545.622	195.75
3548.469	178.75
3551.315	174.75
3554.157	160.75
3556.998	151.75
3559.837	145.75
3562.673	134.75
3565.507	131.75
3568.339	128.75
3571.169	117.75
3573.996	114.75
3576.822	103.75
3579.645	94.75
3582.466	90.75
3585.285	86.75
3588.101	79.75
3590.916	74.75
3593.728	74.75
3596.538	61.75
3599.346	48.75
3602.152	51.75
3604.956	39.75
3607.757	30.75
3610.556	34.75
3613.354	30.75
3616.149	24.75
3618.942	21.75
3621.732	16.75
3624.521	12.75
3627.307	5.75
3630.092	-2.25
3632.874	-3.25
3635.654	-11.25
3638.432	-7.25
3641.208	-7.25
3643.982	-10.25
3646.753	-10.25
3649.523	-18.25
3652.29	-17.25
3655.055	-24.25
3657.818	-30.25
3660.579	-33.25
3663.338	-38.25
3666.095	-37.25
3668.849	-41.25
3671.602	-44.25
3674.352	-40.25
3677.101	-44.25
3679.847	-51.25
3682.591	-55.25
3685.333	-55.25
3688.073	-56.25
3690.811	-63.25
3693.547	-60.25
3696.281	-68.25
3699.013	-60.25
3701.742	-65.25
3704.47	-63.25
3707.195	-70.25
3709.919	-72.25
3712.64	-68.25
3715.359	-75.25
3718.076	-76.25
3720.792	-77.25
3723.505	-79.25
3726.216	-75.25
3728.925	-77.25
3731.632	-75.25
3734.336	-83.25
3737.039	-81.25
3739.74	-77.25
3742.439	-74.25
3745.136	-79.25
3747.83	-81.25
3750.523	-87.25
3753.213	-84.25
3755.902	-88.25
3758.589	-89.25
3761.273	-82.25
3763.956	-86.25
3766.636	-84.25
3769.315	-86.25
3771.991	-88.25
3774.665	-89.25
3777.338	-93.25
3780.008	-91.25
3782.677	-91.25
3785.343	-91.25
3788.007	-87.25
3790.67	-87.25
3793.33	-85.25
3795.989	-87.25
3798.645	-90.25
3801.299	-90.25
3803.952	-94.25
3806.602	-99.25
3809.251	-90.25
3811.897	-93.25
3814.542	-100.25
3817.184	-89.25
3819.825	-92.25
3822.463	-91.25
3825.1	-91.25
3827.735	-94.25
3830.367	-99.25
3832.998	-98.25
3835.627	-95.25
3838.253	-97.25
3840.878	-93.25
3843.501	-91.25
3846.122	-94.25
3848.741	-93.25
3851.358	-95.25
3853.973	-94.25
3856.586	-95.25
3859.197	-101.25
3861.806	-96.25
3864.414	-100.25
3867.019	-94.25
3869.622	-94.25
3872.224	-92.25
3874.823	-95.25
3877.421	-91.25
3880.016	-87.25
3882.61	-89.25
3885.202	-83.25
3887.792	-84.25
3890.38	-91.25
3892.966	-93.25
3895.55	-94.25
3898.132	-94.25
3900.713	-94.25
3903.291	-98.25
3905.868	-96.25
3908.442	-100.25
3911.015	-97.25
3913.586	-102.25
3916.155	-102.25
3918.722	-100.25
3921.287	-95.25
3923.85	-95.25
3926.411	-99.25
3928.971	-99.25
3931.528	-96.25
3934.084	-94.25
3936.638	-99.25
3939.19	-102.25
3941.74	-98.25
3944.288	-101.25
3946.834	-101.25
3949.378	-101.25
3951.921	-95.25
3954.462	-95.25
3957	-100.25
3959.537	-100.25
3962.072	-105.25
3964.606	-103.25
3967.137	-100.25
3969.667	-99.25
3972.194	-98.25
3974.72	-95.25
3977.244	-104.25
3979.766	-97.25
3982.286	-94.25
3984.805	-97.25
3987.321	-100.25
3989.836	-94.25
3992.349	-99.25
3994.86	-101.25
3997.369	-101.25
3999.877	-96.25
4002.382	-96.25
4004.886	-96.25
4007.388	-96.25
4009.888	-99.25
4012.386	-98.25
4014.883	-96.25
4017.377	-94.25
4019.87	-98.25
4022.361	-101.25
4024.85	-98.25
4027.338	-97.25
4029.823	-99.25
4032.307	-98.25
4034.789	-97.25
4037.269	-96.25
4039.747	-94.25
4042.224	-97.25
4044.699	-93.25
4047.172	-98.25
4049.643	-101.25
4052.112	-101.25
4054.58	-99.25
4057.046	-99.25
4059.51	-100.25
4061.972	-98.25
4064.432	-96.25
4066.891	-99.25
4069.348	-100.25
4071.803	-97.25
4074.256	-105.25
4076.708	-101.25
4079.158	-99.25
4081.606	-99.25
4084.052	-96.25
4086.497	-100.25
4088.939	-96.25
4091.38	-95.25
4093.819	-103.25
4096.257	-102.25
4098.693	-102.25
4101.127	-108.25
4103.559	-111.25
4105.989	-66.25
4108.418	-66.25
4110.845	-58.25
4113.27	-50.25
4115.694	-43.25
4118.115	-31.25
4120.535	-101.25
4122.954	-102.25
4125.37	-99.25
4127.785	-98.25
4130.198	-98.25
4132.609	-97.25
4135.019	-105.25
4137.427	-105.25
4139.833	-111.25
4142.237	-109.25
