Data from Bacilus_dil1102_B2_RamanShift_1.txt Node
Date: Wed Mar 01 12:45:57 IST 2017
User: aro
Spectrometer: QEPB0276
Trigger mode: 0
Integration Time (sec): 5.000000E0
Scans to average: 1
Electric dark correction enabled: true
Nonlinearity correction enabled: false
Boxcar width: 0
XAxis mode: Raman Shifts
Number of Pixels in Spectrum: 1044
>>>>>Begin Spectral Data<<<<<
160.701	-29.25
166.742	-1.25
172.777	89.75
178.805	364.75
184.826	1029.75
190.841	2154.75
196.849	3410.75
202.85	4216.75
208.845	4424.75
214.833	4242.75
220.815	4088.75
226.789	3967.75
232.758	3830.75
238.719	3707.75
244.674	3522.75
250.623	3367.75
256.565	3191.75
262.5	3019.75
268.429	2860.75
274.351	2721.75
280.267	2594.75
286.176	2513.75
292.079	2407.75
297.975	2302.75
303.865	2227.75
309.748	2167.75
315.625	2100.75
321.495	2062.75
327.359	2035.75
333.217	2006.75
339.068	1970.75
344.912	1984.75
350.751	1968.75
356.583	1962.75
362.408	1963.75
368.227	1954.75
374.04	1947.75
379.847	1971.75
385.647	1975.75
391.44	2007.75
397.228	2028.75
403.009	2034.75
408.784	2025.75
414.553	2035.75
420.315	2030.75
426.071	2025.75
431.821	2036.75
437.565	2044.75
443.302	2015.75
449.033	1999.75
454.758	1989.75
460.477	1983.75
466.189	1978.75
471.896	1982.75
477.596	1957.75
483.29	1943.75
488.978	1943.75
494.66	1933.75
500.335	1898.75
506.005	1855.75
511.668	1803.75
517.325	1774.75
522.977	1736.75
528.622	1704.75
534.261	1680.75
539.894	1668.75
545.521	1642.75
551.141	1625.75
556.756	1613.75
562.365	1585.75
567.968	1588.75
573.565	1573.75
579.155	1563.75
584.74	1515.75
590.319	1514.75
595.892	1519.75
601.459	1504.75
607.02	1512.75
612.575	1477.75
618.124	1458.75
623.667	1442.75
629.204	1424.75
634.735	1422.75
640.261	1384.75
645.781	1388.75
651.294	1385.75
656.802	1362.75
662.304	1356.75
667.8	1347.75
673.29	1345.75
678.775	1333.75
684.254	1324.75
689.726	1317.75
695.193	1305.75
700.655	1304.75
706.11	1287.75
711.56	1279.75
717.004	1256.75
722.442	1247.75
727.874	1231.75
733.301	1222.75
738.722	1233.75
744.137	1217.75
749.547	1210.75
754.951	1187.75
760.349	1192.75
765.741	1191.75
771.128	1176.75
776.509	1193.75
781.885	1179.75
787.254	1180.75
792.618	1186.75
797.977	1170.75
803.33	1152.75
808.677	1147.75
814.019	1116.75
819.355	1100.75
824.686	1084.75
830.011	1073.75
835.33	1066.75
840.644	1059.75
845.952	1049.75
851.255	1032.75
856.552	1025.75
861.844	1007.75
867.13	1001.75
872.41	998.75
877.686	986.75
882.955	972.75
888.219	960.75
893.478	924.75
898.731	916.75
903.979	888.75
909.221	879.75
914.458	864.75
919.69	868.75
924.916	839.75
930.136	824.75
935.351	831.75
940.561	832.75
945.766	828.75
950.965	818.75
956.158	806.75
961.347	800.75
966.529	778.75
971.707	763.75
976.879	767.75
982.046	752.75
987.208	725.75
992.364	741.75
997.515	740.75
1002.66	750.75
1007.801	742.75
1012.936	740.75
1018.066	763.75
1023.19	750.75
1028.309	753.75
1033.423	749.75
1038.532	759.75
1043.636	747.75
1048.734	746.75
1053.827	725.75
1058.915	727.75
1063.998	718.75
1069.075	707.75
1074.147	697.75
1079.214	701.75
1084.276	707.75
1089.333	717.75
1094.385	714.75
1099.431	723.75
1104.472	719.75
1109.509	712.75
1114.54	717.75
1119.565	711.75
1124.586	693.75
1129.602	688.75
1134.613	683.75
1139.618	672.75
1144.619	678.75
1149.614	670.75
1154.604	684.75
1159.589	687.75
1164.57	677.75
1169.545	682.75
1174.515	676.75
1179.48	670.75
1184.44	692.75
1189.395	673.75
1194.345	662.75
1199.29	672.75
1204.23	665.75
1209.165	665.75
1214.095	665.75
1219.021	666.75
1223.941	668.75
1228.856	672.75
1233.766	664.75
1238.672	672.75
1243.572	679.75
1248.467	674.75
1253.358	661.75
1258.244	664.75
1263.124	648.75
1268	638.75
1272.871	623.75
1277.737	628.75
1282.599	621.75
1287.455	614.75
1292.306	617.75
1297.153	622.75
1301.995	627.75
1306.832	623.75
1311.664	629.75
1316.491	623.75
1321.314	623.75
1326.132	624.75
1330.945	608.75
1335.753	583.75
1340.556	580.75
1345.354	563.75
1350.148	559.75
1354.937	553.75
1359.722	555.75
1364.501	552.75
1369.276	587.75
1374.046	574.75
1378.811	594.75
1383.572	581.75
1388.327	580.75
1393.079	576.75
1397.825	573.75
1402.567	549.75
1407.304	545.75
1412.036	546.75
1416.764	538.75
1421.487	528.75
1426.205	522.75
1430.919	531.75
1435.628	545.75
1440.333	535.75
1445.032	543.75
1449.727	559.75
1454.418	547.75
1459.104	548.75
1463.785	546.75
1468.462	544.75
1473.134	529.75
1477.802	534.75
1482.465	522.75
1487.123	524.75
1491.777	538.75
1496.426	538.75
1501.071	542.75
1505.711	555.75
1510.347	566.75
1514.978	571.75
1519.604	579.75
1524.226	593.75
1528.844	605.75
1533.457	606.75
1538.065	613.75
1542.669	611.75
1547.269	612.75
1551.864	623.75
1556.454	625.75
1561.041	626.75
1565.622	633.75
1570.199	649.75
1574.772	653.75
1579.34	688.75
1583.904	681.75
1588.464	716.75
1593.019	732.75
1597.569	749.75
1602.115	781.75
1606.657	786.75
1611.195	800.75
1615.728	810.75
1620.256	810.75
1624.78	838.75
1629.3	852.75
1633.816	886.75
1638.327	898.75
1642.834	894.75
1647.336	919.75
1651.834	903.75
1656.328	900.75
1660.817	894.75
1665.302	869.75
1669.783	853.75
1674.259	825.75
1678.732	792.75
1683.199	747.75
1687.663	718.75
1692.122	657.75
1696.577	635.75
1701.028	606.75
1705.474	589.75
1709.917	572.75
1714.355	544.75
1718.788	511.75
1723.218	490.75
1727.643	470.75
1732.064	446.75
1736.481	426.75
1740.893	404.75
1745.301	388.75
1749.705	375.75
1754.105	351.75
1758.501	333.75
1762.893	323.75
1767.28	316.75
1771.663	307.75
1776.042	300.75
1780.417	295.75
1784.787	292.75
1789.154	301.75
1793.516	291.75
1797.874	298.75
1802.228	302.75
1806.578	296.75
1810.924	293.75
1815.266	299.75
1819.603	280.75
1823.937	279.75
1828.266	272.75
1832.591	267.75
1836.913	253.75
1841.23	264.75
1845.543	256.75
1849.852	250.75
1854.156	250.75
1858.457	243.75
1862.754	252.75
1867.047	247.75
1871.335	248.75
1875.62	241.75
1879.9	246.75
1884.177	243.75
1888.449	255.75
1892.718	247.75
1896.982	250.75
1901.243	242.75
1905.499	247.75
1909.752	247.75
1914	240.75
1918.245	241.75
1922.485	252.75
1926.722	255.75
1930.954	258.75
1935.183	260.75
1939.408	256.75
1943.628	265.75
1947.845	278.75
1952.058	279.75
1956.267	266.75
1960.472	269.75
1964.673	264.75
1968.87	253.75
1973.063	260.75
1977.252	255.75
1981.438	255.75
1985.619	266.75
1989.797	250.75
1993.971	262.75
1998.14	258.75
2002.306	263.75
2006.469	258.75
2010.627	261.75
2014.781	259.75
2018.932	263.75
2023.078	264.75
2027.221	253.75
2031.36	265.75
2035.495	264.75
2039.627	269.75
2043.754	265.75
2047.878	256.75
2051.998	261.75
2056.114	262.75
2060.226	265.75
2064.334	269.75
2068.439	274.75
2072.54	269.75
2076.637	277.75
2080.73	282.75
2084.82	289.75
2088.906	290.75
2092.988	291.75
2097.066	288.75
2101.14	289.75
2105.211	280.75
2109.278	283.75
2113.342	283.75
2117.401	277.75
2121.457	283.75
2125.509	280.75
2129.558	275.75
2133.602	272.75
2137.643	273.75
2141.681	262.75
2145.714	262.75
2149.744	262.75
2153.77	260.75
2157.793	260.75
2161.812	256.75
2165.827	257.75
2169.838	259.75
2173.846	235.75
2177.851	240.75
2181.851	229.75
2185.848	233.75
2189.841	218.75
2193.831	210.75
2197.817	208.75
2201.799	210.75
2205.778	203.75
2209.753	208.75
2213.725	202.75
2217.693	202.75
2221.657	198.75
2225.618	198.75
2229.575	196.75
2233.529	193.75
2237.479	197.75
2241.425	184.75
2245.368	183.75
2249.307	177.75
2253.243	178.75
2257.175	173.75
2261.104	168.75
2265.029	166.75
2268.95	158.75
2272.868	160.75
2276.783	154.75
2280.694	144.75
2284.601	143.75
2288.505	141.75
2292.405	136.75
2296.302	134.75
2300.195	143.75
2304.085	126.75
2307.971	134.75
2311.854	122.75
2315.734	122.75
2319.609	117.75
2323.482	105.75
2327.351	106.75
2331.216	115.75
2335.078	105.75
2338.937	111.75
2342.792	98.75
2346.643	103.75
2350.492	98.75
2354.336	103.75
2358.178	98.75
2362.015	98.75
2365.85	97.75
2369.681	94.75
2373.508	97.75
2377.333	93.75
2381.153	95.75
2384.971	101.75
2388.785	98.75
2392.595	89.75
2396.402	94.75
2400.206	93.75
2404.007	86.75
2407.804	86.75
2411.597	82.75
2415.388	84.75
2419.174	82.75
2422.958	80.75
2426.738	84.75
2430.515	69.75
2434.289	80.75
2438.059	78.75
2441.825	69.75
2445.589	68.75
2449.349	68.75
2453.106	66.75
2456.859	69.75
2460.61	67.75
2464.356	64.75
2468.1	68.75
2471.84	67.75
2475.577	68.75
2479.311	59.75
2483.041	68.75
2486.768	67.75
2490.492	68.75
2494.213	57.75
2497.93	63.75
2501.644	58.75
2505.355	62.75
2509.062	59.75
2512.766	54.75
2516.467	65.75
2520.165	56.75
2523.859	56.75
2527.551	55.75
2531.239	65.75
2534.923	62.75
2538.605	48.75
2542.283	50.75
2545.958	52.75
2549.63	52.75
2553.299	49.75
2556.964	47.75
2560.626	56.75
2564.285	50.75
2567.941	54.75
2571.594	43.75
2575.243	45.75
2578.89	40.75
2582.533	49.75
2586.173	42.75
2589.809	51.75
2593.443	47.75
2597.073	44.75
2600.701	47.75
2604.325	39.75
2607.946	41.75
2611.564	33.75
2615.178	35.75
2618.79	37.75
2622.398	38.75
2626.004	37.75
2629.606	38.75
2633.205	40.75
2636.801	39.75
2640.394	32.75
2643.983	30.75
2647.57	31.75
2651.153	36.75
2654.734	33.75
2658.311	35.75
2661.885	31.75
2665.456	30.75
2669.025	27.75
2672.589	33.75
2676.151	26.75
2679.71	25.75
2683.266	19.75
2686.819	27.75
2690.368	25.75
2693.915	26.75
2697.458	18.75
2700.999	27.75
2704.536	22.75
2708.071	26.75
2711.602	18.75
2715.13	14.75
2718.656	22.75
2722.178	23.75
2725.697	19.75
2729.214	24.75
2732.727	23.75
2736.237	25.75
2739.744	29.75
2743.249	27.75
2746.75	31.75
2750.248	33.75
2753.743	28.75
2757.236	34.75
2760.725	36.75
2764.211	34.75
2767.695	36.75
2771.175	39.75
2774.652	33.75
2778.127	39.75
2781.598	42.75
2785.067	44.75
2788.532	34.75
2791.995	36.75
2795.455	40.75
2798.911	47.75
2802.365	55.75
2805.816	52.75
2809.264	46.75
2812.709	50.75
2816.151	48.75
2819.59	53.75
2823.026	60.75
2826.46	60.75
2829.89	57.75
2833.318	60.75
2836.742	61.75
2840.164	67.75
2843.583	69.75
2846.999	65.75
2850.412	72.75
2853.822	74.75
2857.229	78.75
2860.634	90.75
2864.035	90.75
2867.434	94.75
2870.83	96.75
2874.223	88.75
2877.613	97.75
2881	100.75
2884.385	101.75
2887.766	107.75
2891.145	114.75
2894.521	117.75
2897.894	109.75
2901.264	115.75
2904.631	115.75
2907.996	121.75
2911.358	122.75
2914.717	136.75
2918.073	140.75
2921.426	138.75
2924.777	143.75
2928.124	153.75
2931.469	153.75
2934.811	168.75
2938.15	170.75
2941.487	171.75
2944.821	177.75
2948.152	185.75
2951.48	200.75
2954.805	206.75
2958.128	206.75
2961.447	225.75
2964.765	215.75
2968.079	234.75
2971.39	231.75
2974.699	244.75
2978.005	255.75
2981.308	265.75
2984.609	276.75
2987.907	298.75
2991.202	307.75
2994.494	322.75
2997.784	332.75
3001.07	338.75
3004.355	356.75
3007.636	373.75
3010.915	386.75
3014.191	389.75
3017.464	397.75
3020.734	412.75
3024.002	422.75
3027.267	440.75
3030.53	444.75
3033.789	463.75
3037.046	470.75
3040.301	488.75
3043.552	491.75
3046.801	508.75
3050.048	531.75
3053.291	537.75
3056.532	555.75
3059.771	581.75
3063.006	588.75
3066.239	623.75
3069.469	640.75
3072.697	663.75
3075.922	690.75
3079.144	707.75
3082.364	737.75
3085.581	765.75
3088.795	775.75
3092.007	798.75
3095.216	830.75
3098.423	847.75
3101.627	879.75
3104.828	895.75
3108.026	916.75
3111.222	930.75
3114.416	973.75
3117.607	969.75
3120.795	1005.75
3123.98	1038.75
3127.163	1066.75
3130.344	1083.75
3133.521	1103.75
3136.696	1135.75
3139.869	1166.75
3143.039	1199.75
3146.206	1208.75
3149.371	1245.75
3152.533	1232.75
3155.693	1263.75
3158.85	1274.75
3162.005	1287.75
3165.157	1275.75
3168.306	1292.75
3171.453	1320.75
3174.597	1293.75
3177.739	1310.75
3180.878	1321.75
3184.014	1316.75
3187.149	1331.75
3190.28	1327.75
3193.409	1337.75
3196.536	1356.75
3199.659	1334.75
3202.781	1347.75
3205.9	1355.75
3209.016	1356.75
3212.13	1375.75
3215.241	1355.75
3218.35	1364.75
3221.456	1364.75
3224.56	1332.75
3227.661	1335.75
3230.76	1331.75
3233.856	1313.75
3236.95	1323.75
3240.041	1306.75
3243.13	1271.75
3246.216	1261.75
3249.3	1256.75
3252.382	1262.75
3255.46	1256.75
3258.537	1247.75
3261.611	1221.75
3264.682	1228.75
3267.751	1233.75
3270.818	1218.75
3273.882	1226.75
3276.943	1209.75
3280.002	1204.75
3283.059	1180.75
3286.113	1165.75
3289.165	1174.75
3292.214	1149.75
3295.261	1131.75
3298.306	1111.75
3301.348	1101.75
3304.387	1086.75
3307.425	1074.75
3310.459	1046.75
3313.492	1047.75
3316.521	1018.75
3319.549	1013.75
3322.574	1009.75
3325.597	997.75
3328.617	982.75
3331.635	974.75
3334.65	972.75
3337.663	962.75
3340.674	956.75
3343.682	947.75
3346.688	961.75
3349.691	960.75
3352.692	953.75
3355.691	938.75
3358.687	937.75
3361.681	925.75
3364.673	924.75
3367.662	898.75
3370.649	895.75
3373.633	880.75
3376.615	869.75
3379.595	872.75
3382.572	858.75
3385.547	837.75
3388.52	846.75
3391.49	830.75
3394.458	822.75
3397.424	804.75
3400.387	797.75
3403.348	778.75
3406.307	783.75
3409.263	761.75
3412.217	762.75
3415.168	751.75
3418.118	749.75
3421.065	731.75
3424.009	727.75
3426.951	719.75
3429.891	703.75
3432.829	703.75
3435.764	689.75
3438.697	679.75
3441.628	666.75
3444.557	640.75
3447.483	622.75
3450.407	603.75
3453.328	597.75
3456.247	571.75
3459.164	568.75
3462.079	546.75
3464.991	535.75
3467.902	521.75
3470.809	505.75
3473.715	483.75
3476.618	479.75
3479.519	468.75
3482.418	448.75
3485.315	428.75
3488.209	425.75
3491.101	413.75
3493.99	407.75
3496.878	391.75
3499.763	378.75
3502.646	367.75
3505.527	364.75
3508.405	347.75
3511.281	338.75
3514.155	324.75
3517.027	303.75
3519.897	291.75
3522.764	285.75
3525.629	269.75
3528.492	264.75
3531.352	249.75
3534.211	238.75
3537.067	226.75
3539.921	207.75
3542.773	193.75
3545.622	190.75
3548.469	183.75
3551.315	169.75
3554.157	160.75
3556.998	152.75
3559.837	142.75
3562.673	134.75
3565.507	135.75
3568.339	128.75
3571.169	116.75
3573.996	106.75
3576.822	100.75
3579.645	96.75
3582.466	84.75
3585.285	82.75
3588.101	71.75
3590.916	68.75
3593.728	64.75
3596.538	62.75
3599.346	63.75
3602.152	44.75
3604.956	40.75
3607.757	27.75
3610.556	36.75
3613.354	22.75
3616.149	22.75
3618.942	16.75
3621.732	13.75
3624.521	14.75
3627.307	3.75
3630.092	4.75
3632.874	-5.25
3635.654	-10.25
3638.432	-8.25
3641.208	-12.25
3643.982	-14.25
3646.753	-9.25
3649.523	-19.25
3652.29	-18.25
3655.055	-20.25
3657.818	-25.25
3660.579	-31.25
3663.338	-37.25
3666.095	-36.25
3668.849	-43.25
3671.602	-48.25
3674.352	-39.25
3677.101	-46.25
3679.847	-51.25
3682.591	-57.25
3685.333	-52.25
3688.073	-60.25
3690.811	-58.25
3693.547	-63.25
3696.281	-60.25
3699.013	-65.25
3701.742	-66.25
3704.47	-64.25
3707.195	-72.25
3709.919	-73.25
3712.64	-70.25
3715.359	-74.25
3718.076	-73.25
3720.792	-70.25
3723.505	-72.25
3726.216	-69.25
3728.925	-78.25
3731.632	-79.25
3734.336	-81.25
3737.039	-83.25
3739.74	-80.25
3742.439	-79.25
3745.136	-83.25
3747.83	-80.25
3750.523	-85.25
3753.213	-76.25
3755.902	-85.25
3758.589	-89.25
3761.273	-88.25
3763.956	-89.25
3766.636	-81.25
3769.315	-89.25
3771.991	-85.25
3774.665	-87.25
3777.338	-87.25
3780.008	-86.25
3782.677	-92.25
3785.343	-93.25
3788.007	-87.25
3790.67	-91.25
3793.33	-89.25
3795.989	-87.25
3798.645	-88.25
3801.299	-88.25
3803.952	-91.25
3806.602	-100.25
3809.251	-92.25
3811.897	-93.25
3814.542	-91.25
3817.184	-96.25
3819.825	-90.25
3822.463	-92.25
3825.1	-89.25
3827.735	-91.25
3830.367	-97.25
3832.998	-95.25
3835.627	-95.25
3838.253	-95.25
3840.878	-95.25
3843.501	-92.25
3846.122	-98.25
3848.741	-96.25
3851.358	-95.25
3853.973	-95.25
3856.586	-95.25
3859.197	-99.25
3861.806	-93.25
3864.414	-96.25
3867.019	-94.25
3869.622	-96.25
3872.224	-97.25
3874.823	-96.25
3877.421	-96.25
3880.016	-85.25
3882.61	-85.25
3885.202	-79.25
3887.792	-83.25
3890.38	-91.25
3892.966	-90.25
3895.55	-92.25
3898.132	-95.25
3900.713	-101.25
3903.291	-102.25
3905.868	-97.25
3908.442	-98.25
3911.015	-96.25
3913.586	-102.25
3916.155	-99.25
3918.722	-95.25
3921.287	-96.25
3923.85	-95.25
3926.411	-98.25
3928.971	-100.25
3931.528	-102.25
3934.084	-97.25
3936.638	-99.25
3939.19	-101.25
3941.74	-95.25
3944.288	-92.25
3946.834	-98.25
3949.378	-98.25
3951.921	-99.25
3954.462	-96.25
3957	-104.25
3959.537	-105.25
3962.072	-101.25
3964.606	-99.25
3967.137	-98.25
3969.667	-98.25
3972.194	-100.25
3974.72	-93.25
3977.244	-101.25
3979.766	-100.25
3982.286	-99.25
3984.805	-100.25
3987.321	-102.25
3989.836	-101.25
3992.349	-100.25
3994.86	-98.25
3997.369	-94.25
3999.877	-92.25
4002.382	-94.25
4004.886	-97.25
4007.388	-100.25
4009.888	-100.25
4012.386	-102.25
4014.883	-101.25
4017.377	-95.25
4019.87	-97.25
4022.361	-98.25
4024.85	-94.25
4027.338	-93.25
4029.823	-104.25
4032.307	-100.25
4034.789	-98.25
4037.269	-96.25
4039.747	-96.25
4042.224	-98.25
4044.699	-94.25
4047.172	-100.25
4049.643	-99.25
4052.112	-97.25
4054.58	-100.25
4057.046	-97.25
4059.51	-98.25
4061.972	-97.25
4064.432	-99.25
4066.891	-98.25
4069.348	-100.25
4071.803	-100.25
4074.256	-104.25
4076.708	-103.25
4079.158	-99.25
4081.606	-99.25
4084.052	-101.25
4086.497	-103.25
4088.939	-96.25
4091.38	-98.25
4093.819	-98.25
4096.257	-104.25
4098.693	-101.25
4101.127	-105.25
4103.559	-109.25
4105.989	-60.25
4108.418	-59.25
4110.845	-58.25
4113.27	-53.25
4115.694	-46.25
4118.115	-39.25
4120.535	-100.25
4122.954	-102.25
4125.37	-100.25
4127.785	-98.25
4130.198	-98.25
4132.609	-98.25
4135.019	-104.25
4137.427	-105.25
4139.833	-107.25
4142.237	-107.25
