Data from Bacilus_dil1104_A3_RamanShift_1.txt Node
Date: Wed Mar 01 12:07:07 IST 2017
User: aro
Spectrometer: QEPB0276
Trigger mode: 0
Integration Time (sec): 5.000000E0
Scans to average: 1
Electric dark correction enabled: true
Nonlinearity correction enabled: false
Boxcar width: 0
XAxis mode: Raman Shifts
Number of Pixels in Spectrum: 1044
>>>>>Begin Spectral Data<<<<<
160.701	-27.12
166.742	-2.12
172.777	86.88
178.805	344.88
184.826	978.88
190.841	2019.88
196.849	3199.88
202.85	3944.88
208.845	4140.88
214.833	3993.88
220.815	3825.88
226.789	3731.88
232.758	3657.88
238.719	3559.88
244.674	3432.88
250.623	3254.88
256.565	3127.88
262.5	2972.88
268.429	2877.88
274.351	2741.88
280.267	2655.88
286.176	2555.88
292.079	2476.88
297.975	2408.88
303.865	2325.88
309.748	2264.88
315.625	2223.88
321.495	2186.88
327.359	2155.88
333.217	2121.88
339.068	2118.88
344.912	2110.88
350.751	2102.88
356.583	2109.88
362.408	2111.88
368.227	2115.88
374.04	2092.88
379.847	2115.88
385.647	2119.88
391.44	2127.88
397.228	2155.88
403.009	2159.88
408.784	2186.88
414.553	2176.88
420.315	2181.88
426.071	2158.88
431.821	2179.88
437.565	2156.88
443.302	2165.88
449.033	2153.88
454.758	2145.88
460.477	2143.88
466.189	2129.88
471.896	2125.88
477.596	2109.88
483.29	2106.88
488.978	2093.88
494.66	2096.88
500.335	2064.88
506.005	2029.88
511.668	1999.88
517.325	1951.88
522.977	1911.88
528.622	1920.88
534.261	1885.88
539.894	1867.88
545.521	1853.88
551.141	1827.88
556.756	1848.88
562.365	1818.88
567.968	1794.88
573.565	1802.88
579.155	1786.88
584.74	1785.88
590.319	1773.88
595.892	1772.88
601.459	1748.88
607.02	1748.88
612.575	1721.88
618.124	1703.88
623.667	1700.88
629.204	1690.88
634.735	1681.88
640.261	1654.88
645.781	1625.88
651.294	1647.88
656.802	1639.88
662.304	1624.88
667.8	1613.88
673.29	1603.88
678.775	1601.88
684.254	1601.88
689.726	1601.88
695.193	1591.88
700.655	1586.88
706.11	1577.88
711.56	1567.88
717.004	1545.88
722.442	1543.88
727.874	1536.88
733.301	1520.88
738.722	1519.88
744.137	1500.88
749.547	1485.88
754.951	1495.88
760.349	1482.88
765.741	1478.88
771.128	1491.88
776.509	1486.88
781.885	1482.88
787.254	1480.88
792.618	1500.88
797.977	1484.88
803.33	1470.88
808.677	1467.88
814.019	1449.88
819.355	1439.88
824.686	1409.88
830.011	1389.88
835.33	1379.88
840.644	1392.88
845.952	1384.88
851.255	1374.88
856.552	1343.88
861.844	1346.88
867.13	1357.88
872.41	1344.88
877.686	1335.88
882.955	1333.88
888.219	1301.88
893.478	1312.88
898.731	1272.88
903.979	1260.88
909.221	1258.88
914.458	1244.88
919.69	1228.88
924.916	1218.88
930.136	1225.88
935.351	1210.88
940.561	1223.88
945.766	1218.88
950.965	1193.88
956.158	1202.88
961.347	1193.88
966.529	1177.88
971.707	1155.88
976.879	1164.88
982.046	1146.88
987.208	1134.88
992.364	1137.88
997.515	1121.88
1002.66	1133.88
1007.801	1142.88
1012.936	1146.88
1018.066	1169.88
1023.19	1162.88
1028.309	1174.88
1033.423	1173.88
1038.532	1174.88
1043.636	1177.88
1048.734	1162.88
1053.827	1146.88
1058.915	1137.88
1063.998	1122.88
1069.075	1109.88
1074.147	1118.88
1079.214	1116.88
1084.276	1117.88
1089.333	1129.88
1094.385	1128.88
1099.431	1136.88
1104.472	1153.88
1109.509	1152.88
1114.54	1138.88
1119.565	1118.88
1124.586	1117.88
1129.602	1098.88
1134.613	1091.88
1139.618	1090.88
1144.619	1083.88
1149.614	1078.88
1154.604	1090.88
1159.589	1091.88
1164.57	1099.88
1169.545	1099.88
1174.515	1104.88
1179.48	1088.88
1184.44	1099.88
1189.395	1112.88
1194.345	1097.88
1199.29	1102.88
1204.23	1084.88
1209.165	1091.88
1214.095	1092.88
1219.021	1088.88
1223.941	1115.88
1228.856	1108.88
1233.766	1122.88
1238.672	1113.88
1243.572	1118.88
1248.467	1106.88
1253.358	1115.88
1258.244	1087.88
1263.124	1069.88
1268	1055.88
1272.871	1047.88
1277.737	1035.88
1282.599	1042.88
1287.455	1029.88
1292.306	1045.88
1297.153	1038.88
1301.995	1047.88
1306.832	1060.88
1311.664	1050.88
1316.491	1053.88
1321.314	1063.88
1326.132	1047.88
1330.945	1036.88
1335.753	1018.88
1340.556	999.88
1345.354	971.88
1350.148	954.88
1354.937	947.88
1359.722	951.88
1364.501	960.88
1369.276	964.88
1374.046	994.88
1378.811	1014.88
1383.572	1013.88
1388.327	998.88
1393.079	991.88
1397.825	989.88
1402.567	973.88
1407.304	954.88
1412.036	951.88
1416.764	935.88
1421.487	929.88
1426.205	925.88
1430.919	935.88
1435.628	933.88
1440.333	950.88
1445.032	966.88
1449.727	957.88
1454.418	969.88
1459.104	951.88
1463.785	946.88
1468.462	938.88
1473.134	944.88
1477.802	924.88
1482.465	922.88
1487.123	928.88
1491.777	935.88
1496.426	935.88
1501.071	935.88
1505.711	953.88
1510.347	967.88
1514.978	977.88
1519.604	988.88
1524.226	1015.88
1528.844	1023.88
1533.457	1021.88
1538.065	1012.88
1542.669	1021.88
1547.269	1036.88
1551.864	1028.88
1556.454	1028.88
1561.041	1019.88
1565.622	1030.88
1570.199	1029.88
1574.772	1053.88
1579.34	1081.88
1583.904	1079.88
1588.464	1092.88
1593.019	1096.88
1597.569	1118.88
1602.115	1139.88
1606.657	1128.88
1611.195	1152.88
1615.728	1144.88
1620.256	1175.88
1624.78	1174.88
1629.3	1194.88
1633.816	1208.88
1638.327	1231.88
1642.834	1232.88
1647.336	1244.88
1651.834	1244.88
1656.328	1245.88
1660.817	1237.88
1665.302	1218.88
1669.783	1204.88
1674.259	1174.88
1678.732	1128.88
1683.199	1103.88
1687.663	1045.88
1692.122	1004.88
1696.577	978.88
1701.028	946.88
1705.474	946.88
1709.917	934.88
1714.355	925.88
1718.788	898.88
1723.218	874.88
1727.643	845.88
1732.064	837.88
1736.481	814.88
1740.893	772.88
1745.301	766.88
1749.705	753.88
1754.105	724.88
1758.501	698.88
1762.893	681.88
1767.28	677.88
1771.663	674.88
1776.042	653.88
1780.417	649.88
1784.787	670.88
1789.154	672.88
1793.516	675.88
1797.874	686.88
1802.228	680.88
1806.578	690.88
1810.924	683.88
1815.266	674.88
1819.603	668.88
1823.937	656.88
1828.266	642.88
1832.591	625.88
1836.913	626.88
1841.23	617.88
1845.543	609.88
1849.852	614.88
1854.156	612.88
1858.457	615.88
1862.754	613.88
1867.047	617.88
1871.335	600.88
1875.62	604.88
1879.9	621.88
1884.177	626.88
1888.449	619.88
1892.718	620.88
1896.982	617.88
1901.243	612.88
1905.499	605.88
1909.752	603.88
1914	605.88
1918.245	606.88
1922.485	617.88
1926.722	620.88
1930.954	612.88
1935.183	627.88
1939.408	628.88
1943.628	640.88
1947.845	640.88
1952.058	633.88
1956.267	626.88
1960.472	626.88
1964.673	621.88
1968.87	619.88
1973.063	607.88
1977.252	609.88
1981.438	610.88
1985.619	602.88
1989.797	606.88
1993.971	594.88
1998.14	603.88
2002.306	593.88
2006.469	593.88
2010.627	594.88
2014.781	589.88
2018.932	588.88
2023.078	602.88
2027.221	602.88
2031.36	584.88
2035.495	576.88
2039.627	570.88
2043.754	562.88
2047.878	578.88
2051.998	577.88
2056.114	568.88
2060.226	581.88
2064.334	578.88
2068.439	589.88
2072.54	578.88
2076.637	589.88
2080.73	579.88
2084.82	596.88
2088.906	609.88
2092.988	601.88
2097.066	600.88
2101.14	599.88
2105.211	589.88
2109.278	588.88
2113.342	585.88
2117.401	580.88
2121.457	580.88
2125.509	586.88
2129.558	568.88
2133.602	568.88
2137.643	568.88
2141.681	571.88
2145.714	562.88
2149.744	563.88
2153.77	551.88
2157.793	556.88
2161.812	564.88
2165.827	545.88
2169.838	535.88
2173.846	514.88
2177.851	525.88
2181.851	508.88
2185.848	502.88
2189.841	483.88
2193.831	489.88
2197.817	496.88
2201.799	481.88
2205.778	489.88
2209.753	473.88
2213.725	473.88
2217.693	473.88
2221.657	477.88
2225.618	482.88
2229.575	473.88
2233.529	471.88
2237.479	466.88
2241.425	466.88
2245.368	459.88
2249.307	453.88
2253.243	448.88
2257.175	443.88
2261.104	430.88
2265.029	423.88
2268.95	414.88
2272.868	421.88
2276.783	416.88
2280.694	401.88
2284.601	401.88
2288.505	392.88
2292.405	395.88
2296.302	381.88
2300.195	378.88
2304.085	374.88
2307.971	368.88
2311.854	365.88
2315.734	362.88
2319.609	364.88
2323.482	344.88
2327.351	341.88
2331.216	344.88
2335.078	338.88
2338.937	339.88
2342.792	331.88
2346.643	330.88
2350.492	327.88
2354.336	330.88
2358.178	334.88
2362.015	329.88
2365.85	329.88
2369.681	336.88
2373.508	333.88
2377.333	343.88
2381.153	327.88
2384.971	325.88
2388.785	320.88
2392.595	314.88
2396.402	311.88
2400.206	317.88
2404.007	313.88
2407.804	310.88
2411.597	310.88
2415.388	314.88
2419.174	301.88
2422.958	299.88
2426.738	305.88
2430.515	302.88
2434.289	301.88
2438.059	300.88
2441.825	292.88
2445.589	293.88
2449.349	293.88
2453.106	288.88
2456.859	293.88
2460.61	289.88
2464.356	270.88
2468.1	276.88
2471.84	271.88
2475.577	275.88
2479.311	268.88
2483.041	271.88
2486.768	273.88
2490.492	275.88
2494.213	269.88
2497.93	269.88
2501.644	270.88
2505.355	276.88
2509.062	273.88
2512.766	268.88
2516.467	266.88
2520.165	272.88
2523.859	268.88
2527.551	268.88
2531.239	268.88
2534.923	266.88
2538.605	268.88
2542.283	255.88
2545.958	253.88
2549.63	258.88
2553.299	254.88
2556.964	250.88
2560.626	251.88
2564.285	252.88
2567.941	250.88
2571.594	243.88
2575.243	243.88
2578.89	238.88
2582.533	242.88
2586.173	247.88
2589.809	235.88
2593.443	245.88
2597.073	246.88
2600.701	236.88
2604.325	228.88
2607.946	229.88
2611.564	228.88
2615.178	224.88
2618.79	232.88
2622.398	231.88
2626.004	228.88
2629.606	230.88
2633.205	224.88
2636.801	228.88
2640.394	215.88
2643.983	216.88
2647.57	212.88
2651.153	212.88
2654.734	210.88
2658.311	209.88
2661.885	200.88
2665.456	204.88
2669.025	203.88
2672.589	202.88
2676.151	197.88
2679.71	194.88
2683.266	192.88
2686.819	191.88
2690.368	186.88
2693.915	182.88
2697.458	179.88
2700.999	186.88
2704.536	189.88
2708.071	174.88
2711.602	170.88
2715.13	172.88
2718.656	169.88
2722.178	170.88
2725.697	168.88
2729.214	169.88
2732.727	167.88
2736.237	171.88
2739.744	167.88
2743.249	178.88
2746.75	174.88
2750.248	183.88
2753.743	177.88
2757.236	189.88
2760.725	180.88
2764.211	184.88
2767.695	182.88
2771.175	178.88
2774.652	184.88
2778.127	181.88
2781.598	182.88
2785.067	178.88
2788.532	179.88
2791.995	178.88
2795.455	177.88
2798.911	176.88
2802.365	188.88
2805.816	183.88
2809.264	184.88
2812.709	186.88
2816.151	174.88
2819.59	167.88
2823.026	188.88
2826.46	188.88
2829.89	181.88
2833.318	183.88
2836.742	180.88
2840.164	186.88
2843.583	190.88
2846.999	183.88
2850.412	187.88
2853.822	190.88
2857.229	200.88
2860.634	198.88
2864.035	195.88
2867.434	203.88
2870.83	210.88
2874.223	198.88
2877.613	199.88
2881	206.88
2884.385	217.88
2887.766	222.88
2891.145	227.88
2894.521	216.88
2897.894	218.88
2901.264	226.88
2904.631	214.88
2907.996	220.88
2911.358	209.88
2914.717	231.88
2918.073	225.88
2921.426	228.88
2924.777	234.88
2928.124	237.88
2931.469	244.88
2934.811	237.88
2938.15	253.88
2941.487	254.88
2944.821	253.88
2948.152	262.88
2951.48	263.88
2954.805	265.88
2958.128	277.88
2961.447	288.88
2964.765	276.88
2968.079	299.88
2971.39	295.88
2974.699	299.88
2978.005	314.88
2981.308	324.88
2984.609	323.88
2987.907	347.88
2991.202	358.88
2994.494	361.88
2997.784	373.88
3001.07	379.88
3004.355	396.88
3007.636	412.88
3010.915	411.88
3014.191	423.88
3017.464	430.88
3020.734	445.88
3024.002	454.88
3027.267	459.88
3030.53	476.88
3033.789	476.88
3037.046	474.88
3040.301	492.88
3043.552	505.88
3046.801	519.88
3050.048	520.88
3053.291	534.88
3056.532	545.88
3059.771	579.88
3063.006	587.88
3066.239	604.88
3069.469	623.88
3072.697	650.88
3075.922	657.88
3079.144	664.88
3082.364	681.88
3085.581	721.88
3088.795	748.88
3092.007	756.88
3095.216	775.88
3098.423	796.88
3101.627	803.88
3104.828	820.88
3108.026	841.88
3111.222	857.88
3114.416	877.88
3117.607	889.88
3120.795	924.88
3123.98	931.88
3127.163	954.88
3130.344	975.88
3133.521	1008.88
3136.696	1032.88
3139.869	1044.88
3143.039	1072.88
3146.206	1079.88
3149.371	1107.88
3152.533	1101.88
3155.693	1136.88
3158.85	1133.88
3162.005	1129.88
3165.157	1133.88
3168.306	1149.88
3171.453	1146.88
3174.597	1156.88
3177.739	1172.88
3180.878	1158.88
3184.014	1169.88
3187.149	1174.88
3190.28	1179.88
3193.409	1191.88
3196.536	1191.88
3199.659	1192.88
3202.781	1189.88
3205.9	1202.88
3209.016	1200.88
3212.13	1220.88
3215.241	1218.88
3218.35	1195.88
3221.456	1199.88
3224.56	1194.88
3227.661	1184.88
3230.76	1179.88
3233.856	1158.88
3236.95	1147.88
3240.041	1148.88
3243.13	1131.88
3246.216	1125.88
3249.3	1124.88
3252.382	1103.88
3255.46	1092.88
3258.537	1100.88
3261.611	1098.88
3264.682	1082.88
3267.751	1088.88
3270.818	1085.88
3273.882	1075.88
3276.943	1063.88
3280.002	1051.88
3283.059	1067.88
3286.113	1040.88
3289.165	1034.88
3292.214	1012.88
3295.261	991.88
3298.306	994.88
3301.348	969.88
3304.387	960.88
3307.425	930.88
3310.459	932.88
3313.492	923.88
3316.521	915.88
3319.549	906.88
3322.574	891.88
3325.597	878.88
3328.617	860.88
3331.635	862.88
3334.65	852.88
3337.663	856.88
3340.674	846.88
3343.682	829.88
3346.688	843.88
3349.691	831.88
3352.692	836.88
3355.691	833.88
3358.687	825.88
3361.681	819.88
3364.673	817.88
3367.662	809.88
3370.649	799.88
3373.633	786.88
3376.615	776.88
3379.595	769.88
3382.572	753.88
3385.547	737.88
3388.52	736.88
3391.49	722.88
3394.458	713.88
3397.424	700.88
3400.387	687.88
3403.348	687.88
3406.307	686.88
3409.263	675.88
3412.217	665.88
3415.168	643.88
3418.118	664.88
3421.065	647.88
3424.009	638.88
3426.951	624.88
3429.891	617.88
3432.829	614.88
3435.764	611.88
3438.697	597.88
3441.628	584.88
3444.557	568.88
3447.483	557.88
3450.407	533.88
3453.328	517.88
3456.247	508.88
3459.164	487.88
3462.079	482.88
3464.991	469.88
3467.902	458.88
3470.809	445.88
3473.715	420.88
3476.618	428.88
3479.519	407.88
3482.418	388.88
3485.315	384.88
3488.209	375.88
3491.101	364.88
3493.99	363.88
3496.878	351.88
3499.763	348.88
3502.646	329.88
3505.527	315.88
3508.405	308.88
3511.281	297.88
3514.155	283.88
3517.027	267.88
3519.897	258.88
3522.764	256.88
3525.629	244.88
3528.492	235.88
3531.352	206.88
3534.211	204.88
3537.067	197.88
3539.921	189.88
3542.773	164.88
3545.622	165.88
3548.469	169.88
3551.315	156.88
3554.157	137.88
3556.998	133.88
3559.837	128.88
3562.673	120.88
3565.507	122.88
3568.339	107.88
3571.169	103.88
3573.996	101.88
3576.822	82.88
3579.645	83.88
3582.466	82.88
3585.285	76.88
3588.101	67.88
3590.916	57.88
3593.728	58.88
3596.538	50.88
3599.346	47.88
3602.152	42.88
3604.956	36.88
3607.757	26.88
3610.556	31.88
3613.354	27.88
3616.149	18.88
3618.942	16.88
3621.732	8.88
3624.521	13.88
3627.307	-1.12
3630.092	-3.12
3632.874	-2.12
3635.654	-12.12
3638.432	-4.12
3641.208	-12.12
3643.982	-11.12
3646.753	-8.12
3649.523	-14.12
3652.29	-22.12
3655.055	-21.12
3657.818	-27.12
3660.579	-32.12
3663.338	-32.12
3666.095	-38.12
3668.849	-37.12
3671.602	-44.12
3674.352	-35.12
3677.101	-42.12
3679.847	-48.12
3682.591	-51.12
3685.333	-49.12
3688.073	-51.12
3690.811	-53.12
3693.547	-61.12
3696.281	-64.12
3699.013	-58.12
3701.742	-60.12
3704.47	-60.12
3707.195	-65.12
3709.919	-66.12
3712.64	-63.12
3715.359	-67.12
3718.076	-69.12
3720.792	-71.12
3723.505	-72.12
3726.216	-68.12
3728.925	-68.12
3731.632	-70.12
3734.336	-79.12
3737.039	-73.12
3739.74	-72.12
3742.439	-70.12
3745.136	-72.12
3747.83	-74.12
3750.523	-80.12
3753.213	-72.12
3755.902	-79.12
3758.589	-81.12
3761.273	-79.12
3763.956	-79.12
3766.636	-73.12
3769.315	-79.12
3771.991	-81.12
3774.665	-86.12
3777.338	-84.12
3780.008	-82.12
3782.677	-85.12
3785.343	-85.12
3788.007	-85.12
3790.67	-84.12
3793.33	-81.12
3795.989	-81.12
3798.645	-81.12
3801.299	-83.12
3803.952	-89.12
3806.602	-93.12
3809.251	-84.12
3811.897	-88.12
3814.542	-86.12
3817.184	-86.12
3819.825	-84.12
3822.463	-84.12
3825.1	-86.12
3827.735	-86.12
3830.367	-92.12
3832.998	-95.12
3835.627	-88.12
3838.253	-91.12
3840.878	-92.12
3843.501	-85.12
3846.122	-85.12
3848.741	-89.12
3851.358	-88.12
3853.973	-90.12
3856.586	-91.12
3859.197	-92.12
3861.806	-90.12
3864.414	-94.12
3867.019	-88.12
3869.622	-87.12
3872.224	-88.12
3874.823	-89.12
3877.421	-86.12
3880.016	-81.12
3882.61	-85.12
3885.202	-80.12
3887.792	-81.12
3890.38	-85.12
3892.966	-90.12
3895.55	-87.12
3898.132	-88.12
3900.713	-92.12
3903.291	-92.12
3905.868	-93.12
3908.442	-96.12
3911.015	-92.12
3913.586	-97.12
3916.155	-97.12
3918.722	-92.12
3921.287	-88.12
3923.85	-91.12
3926.411	-92.12
3928.971	-94.12
3931.528	-93.12
3934.084	-91.12
3936.638	-93.12
3939.19	-97.12
3941.74	-89.12
3944.288	-93.12
3946.834	-92.12
3949.378	-93.12
3951.921	-96.12
3954.462	-89.12
3957	-98.12
3959.537	-92.12
3962.072	-97.12
3964.606	-98.12
3967.137	-97.12
3969.667	-92.12
3972.194	-92.12
3974.72	-91.12
3977.244	-96.12
3979.766	-98.12
3982.286	-90.12
3984.805	-96.12
3987.321	-93.12
3989.836	-93.12
3992.349	-93.12
3994.86	-89.12
3997.369	-90.12
3999.877	-89.12
4002.382	-93.12
4004.886	-91.12
4007.388	-93.12
4009.888	-95.12
4012.386	-93.12
4014.883	-94.12
4017.377	-88.12
4019.87	-94.12
4022.361	-89.12
4024.85	-89.12
4027.338	-91.12
4029.823	-94.12
4032.307	-96.12
4034.789	-93.12
4037.269	-93.12
4039.747	-92.12
4042.224	-95.12
4044.699	-85.12
4047.172	-91.12
4049.643	-94.12
4052.112	-94.12
4054.58	-97.12
4057.046	-95.12
4059.51	-94.12
4061.972	-92.12
4064.432	-93.12
4066.891	-89.12
4069.348	-95.12
4071.803	-93.12
4074.256	-92.12
4076.708	-96.12
4079.158	-91.12
4081.606	-92.12
4084.052	-95.12
4086.497	-99.12
4088.939	-88.12
4091.38	-90.12
4093.819	-95.12
4096.257	-99.12
4098.693	-95.12
4101.127	-100.12
4103.559	-101.12
4105.989	-58.12
4108.418	-56.12
4110.845	-53.12
4113.27	-52.12
4115.694	-43.12
4118.115	-31.12
4120.535	-92.12
4122.954	-93.12
4125.37	-93.12
4127.785	-90.12
4130.198	-93.12
4132.609	-95.12
4135.019	-100.12
4137.427	-101.12
4139.833	-100.12
4142.237	-101.12
