Data from Bacilus_dil1105_B2_RamanShift_1.txt Node
Date: Wed Mar 01 12:37:32 IST 2017
User: aro
Spectrometer: QEPB0276
Trigger mode: 0
Integration Time (sec): 5.000000E0
Scans to average: 1
Electric dark correction enabled: true
Nonlinearity correction enabled: false
Boxcar width: 0
XAxis mode: Raman Shifts
Number of Pixels in Spectrum: 1044
>>>>>Begin Spectral Data<<<<<
160.701	-28.12
166.742	-9.12
172.777	83.88
178.805	359.88
184.826	977.88
190.841	2028.88
196.849	3252.88
202.85	4019.88
208.845	4187.88
214.833	4054.88
220.815	3910.88
226.789	3810.88
232.758	3723.88
238.719	3611.88
244.674	3473.88
250.623	3304.88
256.565	3186.88
262.5	3024.88
268.429	2892.88
274.351	2757.88
280.267	2671.88
286.176	2550.88
292.079	2462.88
297.975	2383.88
303.865	2323.88
309.748	2296.88
315.625	2200.88
321.495	2165.88
327.359	2149.88
333.217	2114.88
339.068	2091.88
344.912	2078.88
350.751	2092.88
356.583	2085.88
362.408	2078.88
368.227	2097.88
374.04	2095.88
379.847	2111.88
385.647	2108.88
391.44	2130.88
397.228	2135.88
403.009	2160.88
408.784	2158.88
414.553	2158.88
420.315	2169.88
426.071	2173.88
431.821	2168.88
437.565	2158.88
443.302	2168.88
449.033	2151.88
454.758	2138.88
460.477	2134.88
466.189	2123.88
471.896	2115.88
477.596	2093.88
483.29	2078.88
488.978	2077.88
494.66	2072.88
500.335	2053.88
506.005	2000.88
511.668	1978.88
517.325	1926.88
522.977	1925.88
528.622	1875.88
534.261	1868.88
539.894	1852.88
545.521	1804.88
551.141	1807.88
556.756	1801.88
562.365	1781.88
567.968	1766.88
573.565	1751.88
579.155	1756.88
584.74	1737.88
590.319	1727.88
595.892	1709.88
601.459	1723.88
607.02	1703.88
612.575	1677.88
618.124	1669.88
623.667	1655.88
629.204	1640.88
634.735	1625.88
640.261	1610.88
645.781	1590.88
651.294	1581.88
656.802	1567.88
662.304	1564.88
667.8	1555.88
673.29	1557.88
678.775	1559.88
684.254	1555.88
689.726	1546.88
695.193	1528.88
700.655	1533.88
706.11	1522.88
711.56	1505.88
717.004	1515.88
722.442	1478.88
727.874	1492.88
733.301	1469.88
738.722	1471.88
744.137	1455.88
749.547	1438.88
754.951	1448.88
760.349	1431.88
765.741	1438.88
771.128	1427.88
776.509	1428.88
781.885	1451.88
787.254	1435.88
792.618	1431.88
797.977	1437.88
803.33	1430.88
808.677	1417.88
814.019	1394.88
819.355	1376.88
824.686	1348.88
830.011	1349.88
835.33	1343.88
840.644	1336.88
845.952	1307.88
851.255	1318.88
856.552	1294.88
861.844	1285.88
867.13	1297.88
872.41	1301.88
877.686	1283.88
882.955	1268.88
888.219	1253.88
893.478	1251.88
898.731	1224.88
903.979	1186.88
909.221	1182.88
914.458	1164.88
919.69	1163.88
924.916	1145.88
930.136	1156.88
935.351	1147.88
940.561	1142.88
945.766	1147.88
950.965	1143.88
956.158	1126.88
961.347	1114.88
966.529	1113.88
971.707	1087.88
976.879	1077.88
982.046	1062.88
987.208	1062.88
992.364	1053.88
997.515	1048.88
1002.66	1064.88
1007.801	1073.88
1012.936	1070.88
1018.066	1077.88
1023.19	1067.88
1028.309	1081.88
1033.423	1086.88
1038.532	1104.88
1043.636	1107.88
1048.734	1086.88
1053.827	1067.88
1058.915	1067.88
1063.998	1034.88
1069.075	1031.88
1074.147	1043.88
1079.214	1039.88
1084.276	1048.88
1089.333	1056.88
1094.385	1062.88
1099.431	1066.88
1104.472	1070.88
1109.509	1076.88
1114.54	1049.88
1119.565	1046.88
1124.586	1043.88
1129.602	1018.88
1134.613	1031.88
1139.618	1010.88
1144.619	1000.88
1149.614	1000.88
1154.604	1015.88
1159.589	1008.88
1164.57	1004.88
1169.545	1013.88
1174.515	1029.88
1179.48	1029.88
1184.44	1013.88
1189.395	1022.88
1194.345	1004.88
1199.29	1024.88
1204.23	1000.88
1209.165	1008.88
1214.095	1017.88
1219.021	1018.88
1223.941	1017.88
1228.856	1034.88
1233.766	1026.88
1238.672	1051.88
1243.572	1037.88
1248.467	1027.88
1253.358	1029.88
1258.244	1018.88
1263.124	1010.88
1268	986.88
1272.871	963.88
1277.737	959.88
1282.599	960.88
1287.455	947.88
1292.306	956.88
1297.153	963.88
1301.995	967.88
1306.832	980.88
1311.664	977.88
1316.491	977.88
1321.314	979.88
1326.132	973.88
1330.945	949.88
1335.753	938.88
1340.556	917.88
1345.354	883.88
1350.148	883.88
1354.937	873.88
1359.722	881.88
1364.501	900.88
1369.276	905.88
1374.046	913.88
1378.811	922.88
1383.572	927.88
1388.327	920.88
1393.079	919.88
1397.825	906.88
1402.567	893.88
1407.304	890.88
1412.036	878.88
1416.764	857.88
1421.487	859.88
1426.205	854.88
1430.919	852.88
1435.628	863.88
1440.333	861.88
1445.032	871.88
1449.727	895.88
1454.418	886.88
1459.104	878.88
1463.785	891.88
1468.462	874.88
1473.134	861.88
1477.802	865.88
1482.465	841.88
1487.123	842.88
1491.777	852.88
1496.426	862.88
1501.071	862.88
1505.711	892.88
1510.347	895.88
1514.978	899.88
1519.604	916.88
1524.226	927.88
1528.844	945.88
1533.457	940.88
1538.065	943.88
1542.669	940.88
1547.269	935.88
1551.864	943.88
1556.454	940.88
1561.041	948.88
1565.622	958.88
1570.199	961.88
1574.772	961.88
1579.34	993.88
1583.904	1009.88
1588.464	1020.88
1593.019	1027.88
1597.569	1057.88
1602.115	1061.88
1606.657	1086.88
1611.195	1089.88
1615.728	1085.88
1620.256	1092.88
1624.78	1106.88
1629.3	1120.88
1633.816	1138.88
1638.327	1150.88
1642.834	1163.88
1647.336	1168.88
1651.834	1175.88
1656.328	1188.88
1660.817	1184.88
1665.302	1154.88
1669.783	1123.88
1674.259	1119.88
1678.732	1072.88
1683.199	1038.88
1687.663	984.88
1692.122	946.88
1696.577	915.88
1701.028	887.88
1705.474	890.88
1709.917	873.88
1714.355	846.88
1718.788	816.88
1723.218	803.88
1727.643	778.88
1732.064	757.88
1736.481	751.88
1740.893	715.88
1745.301	699.88
1749.705	681.88
1754.105	659.88
1758.501	649.88
1762.893	619.88
1767.28	619.88
1771.663	605.88
1776.042	593.88
1780.417	597.88
1784.787	595.88
1789.154	590.88
1793.516	596.88
1797.874	610.88
1802.228	615.88
1806.578	604.88
1810.924	606.88
1815.266	614.88
1819.603	592.88
1823.937	583.88
1828.266	583.88
1832.591	568.88
1836.913	559.88
1841.23	558.88
1845.543	550.88
1849.852	547.88
1854.156	552.88
1858.457	542.88
1862.754	542.88
1867.047	540.88
1871.335	549.88
1875.62	545.88
1879.9	548.88
1884.177	544.88
1888.449	545.88
1892.718	550.88
1896.982	550.88
1901.243	545.88
1905.499	541.88
1909.752	529.88
1914	545.88
1918.245	544.88
1922.485	545.88
1926.722	544.88
1930.954	545.88
1935.183	551.88
1939.408	561.88
1943.628	569.88
1947.845	571.88
1952.058	568.88
1956.267	565.88
1960.472	570.88
1964.673	553.88
1968.87	552.88
1973.063	554.88
1977.252	538.88
1981.438	532.88
1985.619	531.88
1989.797	516.88
1993.971	532.88
1998.14	527.88
2002.306	528.88
2006.469	530.88
2010.627	545.88
2014.781	534.88
2018.932	532.88
2023.078	534.88
2027.221	539.88
2031.36	525.88
2035.495	523.88
2039.627	518.88
2043.754	514.88
2047.878	514.88
2051.998	523.88
2056.114	518.88
2060.226	516.88
2064.334	517.88
2068.439	514.88
2072.54	530.88
2076.637	540.88
2080.73	535.88
2084.82	538.88
2088.906	547.88
2092.988	549.88
2097.066	538.88
2101.14	548.88
2105.211	546.88
2109.278	530.88
2113.342	526.88
2117.401	527.88
2121.457	526.88
2125.509	530.88
2129.558	518.88
2133.602	519.88
2137.643	524.88
2141.681	507.88
2145.714	507.88
2149.744	508.88
2153.77	496.88
2157.793	501.88
2161.812	494.88
2165.827	482.88
2169.838	477.88
2173.846	478.88
2177.851	468.88
2181.851	459.88
2185.848	454.88
2189.841	442.88
2193.831	429.88
2197.817	438.88
2201.799	438.88
2205.778	438.88
2209.753	430.88
2213.725	435.88
2217.693	422.88
2221.657	418.88
2225.618	420.88
2229.575	418.88
2233.529	419.88
2237.479	432.88
2241.425	416.88
2245.368	406.88
2249.307	408.88
2253.243	408.88
2257.175	392.88
2261.104	381.88
2265.029	372.88
2268.95	364.88
2272.868	370.88
2276.783	364.88
2280.694	347.88
2284.601	358.88
2288.505	348.88
2292.405	350.88
2296.302	334.88
2300.195	333.88
2304.085	328.88
2307.971	325.88
2311.854	322.88
2315.734	320.88
2319.609	314.88
2323.482	305.88
2327.351	298.88
2331.216	312.88
2335.078	294.88
2338.937	296.88
2342.792	283.88
2346.643	285.88
2350.492	293.88
2354.336	288.88
2358.178	287.88
2362.015	282.88
2365.85	292.88
2369.681	286.88
2373.508	284.88
2377.333	281.88
2381.153	288.88
2384.971	288.88
2388.785	285.88
2392.595	271.88
2396.402	287.88
2400.206	268.88
2404.007	266.88
2407.804	269.88
2411.597	258.88
2415.388	266.88
2419.174	264.88
2422.958	261.88
2426.738	258.88
2430.515	262.88
2434.289	259.88
2438.059	253.88
2441.825	251.88
2445.589	251.88
2449.349	248.88
2453.106	251.88
2456.859	256.88
2460.61	256.88
2464.356	238.88
2468.1	240.88
2471.84	232.88
2475.577	232.88
2479.311	229.88
2483.041	236.88
2486.768	236.88
2490.492	237.88
2494.213	239.88
2497.93	235.88
2501.644	233.88
2505.355	235.88
2509.062	227.88
2512.766	229.88
2516.467	232.88
2520.165	228.88
2523.859	229.88
2527.551	220.88
2531.239	223.88
2534.923	227.88
2538.605	226.88
2542.283	218.88
2545.958	217.88
2549.63	228.88
2553.299	220.88
2556.964	209.88
2560.626	212.88
2564.285	207.88
2567.941	203.88
2571.594	210.88
2575.243	208.88
2578.89	214.88
2582.533	204.88
2586.173	207.88
2589.809	205.88
2593.443	210.88
2597.073	199.88
2600.701	195.88
2604.325	198.88
2607.946	195.88
2611.564	203.88
2615.178	187.88
2618.79	191.88
2622.398	198.88
2626.004	195.88
2629.606	197.88
2633.205	187.88
2636.801	183.88
2640.394	183.88
2643.983	179.88
2647.57	180.88
2651.153	173.88
2654.734	176.88
2658.311	180.88
2661.885	170.88
2665.456	170.88
2669.025	168.88
2672.589	160.88
2676.151	166.88
2679.71	166.88
2683.266	158.88
2686.819	155.88
2690.368	158.88
2693.915	158.88
2697.458	149.88
2700.999	154.88
2704.536	152.88
2708.071	148.88
2711.602	134.88
2715.13	140.88
2718.656	141.88
2722.178	136.88
2725.697	135.88
2729.214	147.88
2732.727	146.88
2736.237	144.88
2739.744	146.88
2743.249	147.88
2746.75	156.88
2750.248	159.88
2753.743	150.88
2757.236	155.88
2760.725	158.88
2764.211	155.88
2767.695	152.88
2771.175	151.88
2774.652	159.88
2778.127	153.88
2781.598	152.88
2785.067	159.88
2788.532	145.88
2791.995	148.88
2795.455	156.88
2798.911	155.88
2802.365	161.88
2805.816	160.88
2809.264	150.88
2812.709	154.88
2816.151	160.88
2819.59	158.88
2823.026	163.88
2826.46	159.88
2829.89	156.88
2833.318	172.88
2836.742	161.88
2840.164	168.88
2843.583	164.88
2846.999	164.88
2850.412	165.88
2853.822	172.88
2857.229	170.88
2860.634	183.88
2864.035	183.88
2867.434	187.88
2870.83	185.88
2874.223	190.88
2877.613	193.88
2881	190.88
2884.385	199.88
2887.766	199.88
2891.145	202.88
2894.521	198.88
2897.894	198.88
2901.264	200.88
2904.631	208.88
2907.996	208.88
2911.358	204.88
2914.717	208.88
2918.073	213.88
2921.426	218.88
2924.777	223.88
2928.124	225.88
2931.469	233.88
2934.811	241.88
2938.15	246.88
2941.487	246.88
2944.821	245.88
2948.152	243.88
2951.48	263.88
2954.805	261.88
2958.128	273.88
2961.447	274.88
2964.765	272.88
2968.079	285.88
2971.39	292.88
2974.699	303.88
2978.005	307.88
2981.308	316.88
2984.609	337.88
2987.907	339.88
2991.202	346.88
2994.494	359.88
2997.784	374.88
3001.07	375.88
3004.355	385.88
3007.636	400.88
3010.915	412.88
3014.191	430.88
3017.464	437.88
3020.734	439.88
3024.002	443.88
3027.267	468.88
3030.53	462.88
3033.789	476.88
3037.046	489.88
3040.301	503.88
3043.552	502.88
3046.801	524.88
3050.048	542.88
3053.291	544.88
3056.532	556.88
3059.771	586.88
3063.006	584.88
3066.239	618.88
3069.469	647.88
3072.697	664.88
3075.922	672.88
3079.144	689.88
3082.364	718.88
3085.581	734.88
3088.795	748.88
3092.007	773.88
3095.216	792.88
3098.423	808.88
3101.627	839.88
3104.828	853.88
3108.026	873.88
3111.222	878.88
3114.416	909.88
3117.607	929.88
3120.795	943.88
3123.98	973.88
3127.163	995.88
3130.344	1009.88
3133.521	1044.88
3136.696	1058.88
3139.869	1084.88
3143.039	1106.88
3146.206	1120.88
3149.371	1150.88
3152.533	1158.88
3155.693	1157.88
3158.85	1186.88
3162.005	1185.88
3165.157	1194.88
3168.306	1179.88
3171.453	1208.88
3174.597	1205.88
3177.739	1217.88
3180.878	1206.88
3184.014	1219.88
3187.149	1230.88
3190.28	1225.88
3193.409	1238.88
3196.536	1232.88
3199.659	1233.88
3202.781	1261.88
3205.9	1247.88
3209.016	1262.88
3212.13	1249.88
3215.241	1254.88
3218.35	1254.88
3221.456	1229.88
3224.56	1238.88
3227.661	1214.88
3230.76	1219.88
3233.856	1213.88
3236.95	1191.88
3240.041	1185.88
3243.13	1177.88
3246.216	1161.88
3249.3	1144.88
3252.382	1158.88
3255.46	1139.88
3258.537	1137.88
3261.611	1133.88
3264.682	1118.88
3267.751	1110.88
3270.818	1108.88
3273.882	1115.88
3276.943	1103.88
3280.002	1085.88
3283.059	1098.88
3286.113	1069.88
3289.165	1061.88
3292.214	1062.88
3295.261	1035.88
3298.306	1019.88
3301.348	1013.88
3304.387	995.88
3307.425	986.88
3310.459	955.88
3313.492	939.88
3316.521	932.88
3319.549	918.88
3322.574	908.88
3325.597	908.88
3328.617	904.88
3331.635	895.88
3334.65	881.88
3337.663	876.88
3340.674	870.88
3343.682	868.88
3346.688	860.88
3349.691	875.88
3352.692	861.88
3355.691	860.88
3358.687	865.88
3361.681	837.88
3364.673	840.88
3367.662	826.88
3370.649	833.88
3373.633	809.88
3376.615	790.88
3379.595	790.88
3382.572	769.88
3385.547	764.88
3388.52	763.88
3391.49	746.88
3394.458	726.88
3397.424	729.88
3400.387	718.88
3403.348	716.88
3406.307	708.88
3409.263	698.88
3412.217	682.88
3415.168	676.88
3418.118	682.88
3421.065	667.88
3424.009	650.88
3426.951	657.88
3429.891	632.88
3432.829	630.88
3435.764	624.88
3438.697	601.88
3441.628	598.88
3444.557	592.88
3447.483	568.88
3450.407	564.88
3453.328	545.88
3456.247	530.88
3459.164	519.88
3462.079	498.88
3464.991	479.88
3467.902	467.88
3470.809	453.88
3473.715	443.88
3476.618	426.88
3479.519	423.88
3482.418	410.88
3485.315	398.88
3488.209	382.88
3491.101	382.88
3493.99	364.88
3496.878	353.88
3499.763	349.88
3502.646	332.88
3505.527	325.88
3508.405	317.88
3511.281	307.88
3514.155	293.88
3517.027	280.88
3519.897	277.88
3522.764	252.88
3525.629	245.88
3528.492	238.88
3531.352	231.88
3534.211	215.88
3537.067	208.88
3539.921	192.88
3542.773	172.88
3545.622	171.88
3548.469	165.88
3551.315	161.88
3554.157	142.88
3556.998	136.88
3559.837	135.88
3562.673	120.88
3565.507	117.88
3568.339	116.88
3571.169	103.88
3573.996	106.88
3576.822	87.88
3579.645	77.88
3582.466	75.88
3585.285	73.88
3588.101	63.88
3590.916	61.88
3593.728	61.88
3596.538	59.88
3599.346	46.88
3602.152	40.88
3604.956	33.88
3607.757	25.88
3610.556	26.88
3613.354	22.88
3616.149	16.88
3618.942	15.88
3621.732	9.88
3624.521	15.88
3627.307	2.88
3630.092	4.88
3632.874	1.88
3635.654	-12.12
3638.432	-10.12
3641.208	-9.12
3643.982	-11.12
3646.753	-11.12
3649.523	-18.12
3652.29	-19.12
3655.055	-27.12
3657.818	-30.12
3660.579	-32.12
3663.338	-34.12
3666.095	-38.12
3668.849	-39.12
3671.602	-43.12
3674.352	-36.12
3677.101	-42.12
3679.847	-50.12
3682.591	-50.12
3685.333	-56.12
3688.073	-55.12
3690.811	-56.12
3693.547	-52.12
3696.281	-59.12
3699.013	-56.12
3701.742	-57.12
3704.47	-61.12
3707.195	-63.12
3709.919	-63.12
3712.64	-65.12
3715.359	-72.12
3718.076	-72.12
3720.792	-71.12
3723.505	-72.12
3726.216	-68.12
3728.925	-74.12
3731.632	-74.12
3734.336	-77.12
3737.039	-81.12
3739.74	-72.12
3742.439	-75.12
3745.136	-75.12
3747.83	-79.12
3750.523	-79.12
3753.213	-74.12
3755.902	-80.12
3758.589	-81.12
3761.273	-81.12
3763.956	-82.12
3766.636	-76.12
3769.315	-86.12
3771.991	-83.12
3774.665	-83.12
3777.338	-89.12
3780.008	-84.12
3782.677	-88.12
3785.343	-83.12
3788.007	-83.12
3790.67	-83.12
3793.33	-81.12
3795.989	-83.12
3798.645	-85.12
3801.299	-87.12
3803.952	-86.12
3806.602	-93.12
3809.251	-87.12
3811.897	-87.12
3814.542	-91.12
3817.184	-86.12
3819.825	-84.12
3822.463	-83.12
3825.1	-85.12
3827.735	-87.12
3830.367	-95.12
3832.998	-93.12
3835.627	-91.12
3838.253	-93.12
3840.878	-90.12
3843.501	-91.12
3846.122	-91.12
3848.741	-87.12
3851.358	-89.12
3853.973	-89.12
3856.586	-94.12
3859.197	-94.12
3861.806	-91.12
3864.414	-93.12
3867.019	-89.12
3869.622	-94.12
3872.224	-91.12
3874.823	-88.12
3877.421	-89.12
3880.016	-77.12
3882.61	-77.12
3885.202	-76.12
3887.792	-82.12
3890.38	-89.12
3892.966	-88.12
3895.55	-89.12
3898.132	-93.12
3900.713	-95.12
3903.291	-95.12
3905.868	-92.12
3908.442	-97.12
3911.015	-91.12
3913.586	-95.12
3916.155	-93.12
3918.722	-96.12
3921.287	-91.12
3923.85	-95.12
3926.411	-99.12
3928.971	-92.12
3931.528	-96.12
3934.084	-93.12
3936.638	-94.12
3939.19	-100.12
3941.74	-91.12
3944.288	-93.12
3946.834	-95.12
3949.378	-99.12
3951.921	-95.12
3954.462	-94.12
3957	-98.12
3959.537	-101.12
3962.072	-97.12
3964.606	-91.12
3967.137	-93.12
3969.667	-92.12
3972.194	-96.12
3974.72	-90.12
3977.244	-102.12
3979.766	-98.12
3982.286	-93.12
3984.805	-96.12
3987.321	-92.12
3989.836	-89.12
3992.349	-92.12
3994.86	-94.12
3997.369	-95.12
3999.877	-90.12
4002.382	-93.12
4004.886	-94.12
4007.388	-96.12
4009.888	-97.12
4012.386	-95.12
4014.883	-91.12
4017.377	-88.12
4019.87	-92.12
4022.361	-93.12
4024.85	-93.12
4027.338	-92.12
4029.823	-101.12
4032.307	-98.12
4034.789	-96.12
4037.269	-91.12
4039.747	-92.12
4042.224	-89.12
4044.699	-87.12
4047.172	-91.12
4049.643	-94.12
4052.112	-93.12
4054.58	-99.12
4057.046	-99.12
4059.51	-97.12
4061.972	-94.12
4064.432	-93.12
4066.891	-92.12
4069.348	-97.12
4071.803	-93.12
4074.256	-97.12
4076.708	-95.12
4079.158	-98.12
4081.606	-96.12
4084.052	-99.12
4086.497	-100.12
4088.939	-94.12
4091.38	-92.12
4093.819	-95.12
4096.257	-101.12
4098.693	-98.12
4101.127	-102.12
4103.559	-103.12
4105.989	-60.12
4108.418	-59.12
4110.845	-49.12
4113.27	-53.12
4115.694	-41.12
4118.115	-36.12
4120.535	-93.12
4122.954	-97.12
4125.37	-94.12
4127.785	-96.12
4130.198	-94.12
4132.609	-92.12
4135.019	-101.12
4137.427	-100.12
4139.833	-103.12
4142.237	-102.12
