Data from Bacilus_dil1102_B1_RamanShift_1.txt Node
Date: Wed Mar 01 12:45:02 IST 2017
User: aro
Spectrometer: QEPB0276
Trigger mode: 0
Integration Time (sec): 5.000000E0
Scans to average: 1
Electric dark correction enabled: true
Nonlinearity correction enabled: false
Boxcar width: 0
XAxis mode: Raman Shifts
Number of Pixels in Spectrum: 1044
>>>>>Begin Spectral Data<<<<<
160.701	-28.12
166.742	-1.12
172.777	90.88
178.805	362.88
184.826	1021.88
190.841	2119.88
196.849	3340.88
202.85	4120.88
208.845	4311.88
214.833	4166.88
220.815	4011.88
226.789	3867.88
232.758	3736.88
238.719	3626.88
244.674	3487.88
250.623	3304.88
256.565	3126.88
262.5	3006.88
268.429	2845.88
274.351	2694.88
280.267	2593.88
286.176	2497.88
292.079	2392.88
297.975	2316.88
303.865	2206.88
309.748	2171.88
315.625	2092.88
321.495	2057.88
327.359	2022.88
333.217	1985.88
339.068	1992.88
344.912	2002.88
350.751	1975.88
356.583	1971.88
362.408	1964.88
368.227	1947.88
374.04	1957.88
379.847	1994.88
385.647	1991.88
391.44	2009.88
397.228	2031.88
403.009	2022.88
408.784	2026.88
414.553	2045.88
420.315	2042.88
426.071	2035.88
431.821	2043.88
437.565	2015.88
443.302	2022.88
449.033	2017.88
454.758	2015.88
460.477	1993.88
466.189	1991.88
471.896	1984.88
477.596	1962.88
483.29	1962.88
488.978	1936.88
494.66	1927.88
500.335	1890.88
506.005	1856.88
511.668	1833.88
517.325	1772.88
522.977	1762.88
528.622	1726.88
534.261	1685.88
539.894	1691.88
545.521	1685.88
551.141	1645.88
556.756	1635.88
562.365	1624.88
567.968	1606.88
573.565	1564.88
579.155	1572.88
584.74	1557.88
590.319	1569.88
595.892	1558.88
601.459	1519.88
607.02	1528.88
612.575	1506.88
618.124	1495.88
623.667	1450.88
629.204	1463.88
634.735	1418.88
640.261	1417.88
645.781	1411.88
651.294	1395.88
656.802	1397.88
662.304	1389.88
667.8	1361.88
673.29	1363.88
678.775	1354.88
684.254	1344.88
689.726	1341.88
695.193	1348.88
700.655	1337.88
706.11	1324.88
711.56	1303.88
717.004	1276.88
722.442	1296.88
727.874	1278.88
733.301	1263.88
738.722	1259.88
744.137	1244.88
749.547	1239.88
754.951	1233.88
760.349	1215.88
765.741	1240.88
771.128	1224.88
776.509	1224.88
781.885	1226.88
787.254	1223.88
792.618	1213.88
797.977	1211.88
803.33	1202.88
808.677	1176.88
814.019	1169.88
819.355	1135.88
824.686	1141.88
830.011	1107.88
835.33	1124.88
840.644	1097.88
845.952	1094.88
851.255	1084.88
856.552	1068.88
861.844	1048.88
867.13	1055.88
872.41	1041.88
877.686	1031.88
882.955	1022.88
888.219	1002.88
893.478	980.88
898.731	975.88
903.979	932.88
909.221	937.88
914.458	909.88
919.69	908.88
924.916	904.88
930.136	901.88
935.351	887.88
940.561	884.88
945.766	885.88
950.965	865.88
956.158	872.88
961.347	853.88
966.529	852.88
971.707	831.88
976.879	830.88
982.046	804.88
987.208	795.88
992.364	797.88
997.515	790.88
1002.66	802.88
1007.801	802.88
1012.936	805.88
1018.066	816.88
1023.19	790.88
1028.309	807.88
1033.423	809.88
1038.532	819.88
1043.636	810.88
1048.734	812.88
1053.827	789.88
1058.915	794.88
1063.998	775.88
1069.075	768.88
1074.147	761.88
1079.214	766.88
1084.276	767.88
1089.333	774.88
1094.385	786.88
1099.431	776.88
1104.472	780.88
1109.509	779.88
1114.54	779.88
1119.565	776.88
1124.586	765.88
1129.602	769.88
1134.613	737.88
1139.618	741.88
1144.619	737.88
1149.614	739.88
1154.604	728.88
1159.589	734.88
1164.57	737.88
1169.545	748.88
1174.515	738.88
1179.48	754.88
1184.44	747.88
1189.395	730.88
1194.345	745.88
1199.29	733.88
1204.23	723.88
1209.165	719.88
1214.095	719.88
1219.021	724.88
1223.941	743.88
1228.856	732.88
1233.766	745.88
1238.672	751.88
1243.572	751.88
1248.467	739.88
1253.358	742.88
1258.244	715.88
1263.124	723.88
1268	692.88
1272.871	685.88
1277.737	690.88
1282.599	673.88
1287.455	684.88
1292.306	681.88
1297.153	670.88
1301.995	685.88
1306.832	684.88
1311.664	686.88
1316.491	685.88
1321.314	682.88
1326.132	699.88
1330.945	670.88
1335.753	662.88
1340.556	638.88
1345.354	634.88
1350.148	612.88
1354.937	607.88
1359.722	608.88
1364.501	613.88
1369.276	626.88
1374.046	653.88
1378.811	642.88
1383.572	656.88
1388.327	661.88
1393.079	640.88
1397.825	629.88
1402.567	613.88
1407.304	610.88
1412.036	596.88
1416.764	599.88
1421.487	588.88
1426.205	583.88
1430.919	605.88
1435.628	597.88
1440.333	602.88
1445.032	610.88
1449.727	617.88
1454.418	603.88
1459.104	610.88
1463.785	607.88
1468.462	594.88
1473.134	596.88
1477.802	597.88
1482.465	589.88
1487.123	584.88
1491.777	589.88
1496.426	594.88
1501.071	602.88
1505.711	610.88
1510.347	608.88
1514.978	627.88
1519.604	652.88
1524.226	655.88
1528.844	660.88
1533.457	665.88
1538.065	664.88
1542.669	672.88
1547.269	669.88
1551.864	671.88
1556.454	688.88
1561.041	681.88
1565.622	693.88
1570.199	705.88
1574.772	709.88
1579.34	742.88
1583.904	748.88
1588.464	766.88
1593.019	797.88
1597.569	815.88
1602.115	822.88
1606.657	831.88
1611.195	853.88
1615.728	873.88
1620.256	879.88
1624.78	898.88
1629.3	913.88
1633.816	932.88
1638.327	943.88
1642.834	953.88
1647.336	976.88
1651.834	971.88
1656.328	961.88
1660.817	963.88
1665.302	928.88
1669.783	910.88
1674.259	867.88
1678.732	835.88
1683.199	795.88
1687.663	752.88
1692.122	726.88
1696.577	680.88
1701.028	654.88
1705.474	650.88
1709.917	629.88
1714.355	619.88
1718.788	588.88
1723.218	561.88
1727.643	526.88
1732.064	515.88
1736.481	487.88
1740.893	471.88
1745.301	451.88
1749.705	426.88
1754.105	408.88
1758.501	389.88
1762.893	380.88
1767.28	369.88
1771.663	372.88
1776.042	358.88
1780.417	355.88
1784.787	356.88
1789.154	353.88
1793.516	352.88
1797.874	372.88
1802.228	367.88
1806.578	365.88
1810.924	350.88
1815.266	357.88
1819.603	348.88
1823.937	335.88
1828.266	329.88
1832.591	321.88
1836.913	320.88
1841.23	309.88
1845.543	310.88
1849.852	307.88
1854.156	307.88
1858.457	308.88
1862.754	313.88
1867.047	307.88
1871.335	303.88
1875.62	308.88
1879.9	311.88
1884.177	307.88
1888.449	312.88
1892.718	301.88
1896.982	304.88
1901.243	307.88
1905.499	304.88
1909.752	314.88
1914	301.88
1918.245	300.88
1922.485	309.88
1926.722	304.88
1930.954	320.88
1935.183	317.88
1939.408	321.88
1943.628	328.88
1947.845	336.88
1952.058	333.88
1956.267	332.88
1960.472	325.88
1964.673	326.88
1968.87	322.88
1973.063	319.88
1977.252	309.88
1981.438	312.88
1985.619	304.88
1989.797	308.88
1993.971	322.88
1998.14	314.88
2002.306	317.88
2006.469	303.88
2010.627	310.88
2014.781	319.88
2018.932	313.88
2023.078	311.88
2027.221	323.88
2031.36	319.88
2035.495	318.88
2039.627	308.88
2043.754	309.88
2047.878	313.88
2051.998	313.88
2056.114	309.88
2060.226	310.88
2064.334	305.88
2068.439	318.88
2072.54	321.88
2076.637	319.88
2080.73	320.88
2084.82	345.88
2088.906	341.88
2092.988	346.88
2097.066	344.88
2101.14	339.88
2105.211	341.88
2109.278	336.88
2113.342	325.88
2117.401	322.88
2121.457	324.88
2125.509	337.88
2129.558	315.88
2133.602	308.88
2137.643	320.88
2141.681	319.88
2145.714	305.88
2149.744	311.88
2153.77	308.88
2157.793	303.88
2161.812	305.88
2165.827	293.88
2169.838	294.88
2173.846	293.88
2177.851	281.88
2181.851	280.88
2185.848	262.88
2189.841	263.88
2193.831	256.88
2197.817	263.88
2201.799	255.88
2205.778	246.88
2209.753	247.88
2213.725	250.88
2217.693	251.88
2221.657	239.88
2225.618	240.88
2229.575	233.88
2233.529	236.88
2237.479	241.88
2241.425	231.88
2245.368	230.88
2249.307	216.88
2253.243	221.88
2257.175	215.88
2261.104	208.88
2265.029	207.88
2268.95	200.88
2272.868	201.88
2276.783	197.88
2280.694	189.88
2284.601	190.88
2288.505	178.88
2292.405	175.88
2296.302	168.88
2300.195	177.88
2304.085	164.88
2307.971	169.88
2311.854	166.88
2315.734	161.88
2319.609	159.88
2323.482	150.88
2327.351	142.88
2331.216	140.88
2335.078	141.88
2338.937	149.88
2342.792	136.88
2346.643	135.88
2350.492	137.88
2354.336	133.88
2358.178	135.88
2362.015	138.88
2365.85	141.88
2369.681	127.88
2373.508	122.88
2377.333	126.88
2381.153	136.88
2384.971	133.88
2388.785	131.88
2392.595	125.88
2396.402	122.88
2400.206	115.88
2404.007	119.88
2407.804	117.88
2411.597	109.88
2415.388	119.88
2419.174	118.88
2422.958	113.88
2426.738	123.88
2430.515	116.88
2434.289	108.88
2438.059	108.88
2441.825	107.88
2445.589	98.88
2449.349	103.88
2453.106	96.88
2456.859	104.88
2460.61	105.88
2464.356	92.88
2468.1	101.88
2471.84	86.88
2475.577	99.88
2479.311	87.88
2483.041	91.88
2486.768	95.88
2490.492	98.88
2494.213	89.88
2497.93	92.88
2501.644	85.88
2505.355	91.88
2509.062	89.88
2512.766	88.88
2516.467	91.88
2520.165	85.88
2523.859	90.88
2527.551	81.88
2531.239	90.88
2534.923	88.88
2538.605	87.88
2542.283	82.88
2545.958	76.88
2549.63	77.88
2553.299	82.88
2556.964	80.88
2560.626	85.88
2564.285	72.88
2567.941	75.88
2571.594	69.88
2575.243	77.88
2578.89	69.88
2582.533	70.88
2586.173	73.88
2589.809	74.88
2593.443	70.88
2597.073	75.88
2600.701	71.88
2604.325	71.88
2607.946	69.88
2611.564	69.88
2615.178	64.88
2618.79	69.88
2622.398	64.88
2626.004	65.88
2629.606	63.88
2633.205	66.88
2636.801	60.88
2640.394	59.88
2643.983	59.88
2647.57	58.88
2651.153	61.88
2654.734	56.88
2658.311	62.88
2661.885	52.88
2665.456	55.88
2669.025	51.88
2672.589	53.88
2676.151	48.88
2679.71	50.88
2683.266	49.88
2686.819	58.88
2690.368	46.88
2693.915	48.88
2697.458	43.88
2700.999	44.88
2704.536	39.88
2708.071	47.88
2711.602	41.88
2715.13	36.88
2718.656	47.88
2722.178	40.88
2725.697	43.88
2729.214	42.88
2732.727	40.88
2736.237	43.88
2739.744	48.88
2743.249	43.88
2746.75	51.88
2750.248	52.88
2753.743	52.88
2757.236	58.88
2760.725	53.88
2764.211	56.88
2767.695	59.88
2771.175	61.88
2774.652	61.88
2778.127	59.88
2781.598	59.88
2785.067	57.88
2788.532	57.88
2791.995	55.88
2795.455	55.88
2798.911	62.88
2802.365	71.88
2805.816	75.88
2809.264	63.88
2812.709	68.88
2816.151	70.88
2819.59	69.88
2823.026	67.88
2826.46	75.88
2829.89	77.88
2833.318	75.88
2836.742	88.88
2840.164	79.88
2843.583	90.88
2846.999	84.88
2850.412	83.88
2853.822	91.88
2857.229	101.88
2860.634	100.88
2864.035	102.88
2867.434	103.88
2870.83	113.88
2874.223	107.88
2877.613	112.88
2881	114.88
2884.385	116.88
2887.766	120.88
2891.145	123.88
2894.521	135.88
2897.894	129.88
2901.264	136.88
2904.631	133.88
2907.996	133.88
2911.358	146.88
2914.717	148.88
2918.073	147.88
2921.426	146.88
2924.777	156.88
2928.124	163.88
2931.469	170.88
2934.811	171.88
2938.15	175.88
2941.487	195.88
2944.821	194.88
2948.152	198.88
2951.48	206.88
2954.805	210.88
2958.128	222.88
2961.447	223.88
2964.765	227.88
2968.079	242.88
2971.39	243.88
2974.699	259.88
2978.005	274.88
2981.308	276.88
2984.609	296.88
2987.907	304.88
2991.202	316.88
2994.494	323.88
2997.784	331.88
3001.07	355.88
3004.355	358.88
3007.636	382.88
3010.915	380.88
3014.191	397.88
3017.464	409.88
3020.734	415.88
3024.002	423.88
3027.267	445.88
3030.53	449.88
3033.789	457.88
3037.046	478.88
3040.301	492.88
3043.552	489.88
3046.801	524.88
3050.048	529.88
3053.291	547.88
3056.532	567.88
3059.771	574.88
3063.006	596.88
3066.239	611.88
3069.469	651.88
3072.697	673.88
3075.922	683.88
3079.144	711.88
3082.364	730.88
3085.581	752.88
3088.795	784.88
3092.007	796.88
3095.216	812.88
3098.423	824.88
3101.627	859.88
3104.828	877.88
3108.026	911.88
3111.222	925.88
3114.416	947.88
3117.607	967.88
3120.795	1012.88
3123.98	1012.88
3127.163	1056.88
3130.344	1066.88
3133.521	1103.88
3136.696	1125.88
3139.869	1139.88
3143.039	1173.88
3146.206	1205.88
3149.371	1220.88
3152.533	1238.88
3155.693	1232.88
3158.85	1257.88
3162.005	1263.88
3165.157	1256.88
3168.306	1263.88
3171.453	1282.88
3174.597	1294.88
3177.739	1294.88
3180.878	1299.88
3184.014	1312.88
3187.149	1323.88
3190.28	1320.88
3193.409	1306.88
3196.536	1309.88
3199.659	1334.88
3202.781	1324.88
3205.9	1353.88
3209.016	1356.88
3212.13	1352.88
3215.241	1346.88
3218.35	1340.88
3221.456	1343.88
3224.56	1316.88
3227.661	1317.88
3230.76	1303.88
3233.856	1305.88
3236.95	1294.88
3240.041	1301.88
3243.13	1279.88
3246.216	1268.88
3249.3	1268.88
3252.382	1249.88
3255.46	1237.88
3258.537	1238.88
3261.611	1232.88
3264.682	1218.88
3267.751	1186.88
3270.818	1220.88
3273.882	1201.88
3276.943	1209.88
3280.002	1175.88
3283.059	1173.88
3286.113	1161.88
3289.165	1148.88
3292.214	1136.88
3295.261	1128.88
3298.306	1116.88
3301.348	1076.88
3304.387	1075.88
3307.425	1057.88
3310.459	1033.88
3313.492	1019.88
3316.521	1011.88
3319.549	1003.88
3322.574	981.88
3325.597	987.88
3328.617	962.88
3331.635	972.88
3334.65	967.88
3337.663	942.88
3340.674	952.88
3343.682	943.88
3346.688	948.88
3349.691	937.88
3352.692	932.88
3355.691	931.88
3358.687	928.88
3361.681	923.88
3364.673	914.88
3367.662	894.88
3370.649	892.88
3373.633	878.88
3376.615	856.88
3379.595	844.88
3382.572	841.88
3385.547	837.88
3388.52	821.88
3391.49	809.88
3394.458	793.88
3397.424	792.88
3400.387	787.88
3403.348	757.88
3406.307	770.88
3409.263	768.88
3412.217	751.88
3415.168	745.88
3418.118	729.88
3421.065	729.88
3424.009	702.88
3426.951	694.88
3429.891	689.88
3432.829	696.88
3435.764	682.88
3438.697	674.88
3441.628	654.88
3444.557	636.88
3447.483	630.88
3450.407	603.88
3453.328	587.88
3456.247	579.88
3459.164	554.88
3462.079	538.88
3464.991	527.88
3467.902	508.88
3470.809	499.88
3473.715	480.88
3476.618	470.88
3479.519	459.88
3482.418	438.88
3485.315	447.88
3488.209	428.88
3491.101	404.88
3493.99	398.88
3496.878	387.88
3499.763	383.88
3502.646	364.88
3505.527	361.88
3508.405	345.88
3511.281	326.88
3514.155	326.88
3517.027	310.88
3519.897	302.88
3522.764	278.88
3525.629	273.88
3528.492	265.88
3531.352	232.88
3534.211	228.88
3537.067	225.88
3539.921	211.88
3542.773	194.88
3545.622	189.88
3548.469	180.88
3551.315	172.88
3554.157	157.88
3556.998	147.88
3559.837	137.88
3562.673	127.88
3565.507	133.88
3568.339	125.88
3571.169	118.88
3573.996	107.88
3576.822	102.88
3579.645	93.88
3582.466	88.88
3585.285	83.88
3588.101	73.88
3590.916	69.88
3593.728	61.88
3596.538	59.88
3599.346	60.88
3602.152	54.88
3604.956	37.88
3607.757	34.88
3610.556	30.88
3613.354	25.88
3616.149	14.88
3618.942	12.88
3621.732	20.88
3624.521	18.88
3627.307	4.88
3630.092	2.88
3632.874	3.88
3635.654	-11.12
3638.432	-9.12
3641.208	-15.12
3643.982	-12.12
3646.753	-15.12
3649.523	-13.12
3652.29	-18.12
3655.055	-21.12
3657.818	-32.12
3660.579	-33.12
3663.338	-33.12
3666.095	-37.12
3668.849	-45.12
3671.602	-43.12
3674.352	-44.12
3677.101	-48.12
3679.847	-53.12
3682.591	-52.12
3685.333	-54.12
3688.073	-55.12
3690.811	-54.12
3693.547	-61.12
3696.281	-63.12
3699.013	-64.12
3701.742	-66.12
3704.47	-65.12
3707.195	-72.12
3709.919	-74.12
3712.64	-70.12
3715.359	-75.12
3718.076	-74.12
3720.792	-72.12
3723.505	-76.12
3726.216	-72.12
3728.925	-77.12
3731.632	-83.12
3734.336	-84.12
3737.039	-85.12
3739.74	-80.12
3742.439	-76.12
3745.136	-83.12
3747.83	-80.12
3750.523	-86.12
3753.213	-77.12
3755.902	-86.12
3758.589	-82.12
3761.273	-89.12
3763.956	-88.12
3766.636	-86.12
3769.315	-87.12
3771.991	-83.12
3774.665	-88.12
3777.338	-92.12
3780.008	-87.12
3782.677	-90.12
3785.343	-91.12
3788.007	-92.12
3790.67	-92.12
3793.33	-91.12
3795.989	-90.12
3798.645	-89.12
3801.299	-90.12
3803.952	-93.12
3806.602	-95.12
3809.251	-92.12
3811.897	-95.12
3814.542	-94.12
3817.184	-93.12
3819.825	-89.12
3822.463	-92.12
3825.1	-96.12
3827.735	-95.12
3830.367	-100.12
3832.998	-95.12
3835.627	-94.12
3838.253	-98.12
3840.878	-99.12
3843.501	-97.12
3846.122	-97.12
3848.741	-99.12
3851.358	-94.12
3853.973	-97.12
3856.586	-97.12
3859.197	-98.12
3861.806	-100.12
3864.414	-100.12
3867.019	-94.12
3869.622	-98.12
3872.224	-95.12
3874.823	-92.12
3877.421	-97.12
3880.016	-90.12
3882.61	-89.12
3885.202	-86.12
3887.792	-87.12
3890.38	-89.12
3892.966	-91.12
3895.55	-90.12
3898.132	-97.12
3900.713	-98.12
3903.291	-100.12
3905.868	-100.12
3908.442	-104.12
3911.015	-98.12
3913.586	-100.12
3916.155	-98.12
3918.722	-101.12
3921.287	-95.12
3923.85	-95.12
3926.411	-103.12
3928.971	-102.12
3931.528	-104.12
3934.084	-99.12
3936.638	-103.12
3939.19	-104.12
3941.74	-93.12
3944.288	-99.12
3946.834	-103.12
3949.378	-103.12
3951.921	-102.12
3954.462	-99.12
3957	-102.12
3959.537	-102.12
3962.072	-106.12
3964.606	-101.12
3967.137	-101.12
3969.667	-97.12
3972.194	-98.12
3974.72	-97.12
3977.244	-101.12
3979.766	-100.12
3982.286	-94.12
3984.805	-99.12
3987.321	-105.12
3989.836	-96.12
3992.349	-99.12
3994.86	-95.12
3997.369	-98.12
3999.877	-94.12
4002.382	-99.12
4004.886	-96.12
4007.388	-101.12
4009.888	-99.12
4012.386	-101.12
4014.883	-104.12
4017.377	-92.12
4019.87	-100.12
4022.361	-99.12
4024.85	-98.12
4027.338	-99.12
4029.823	-101.12
4032.307	-99.12
4034.789	-101.12
4037.269	-98.12
4039.747	-97.12
4042.224	-99.12
4044.699	-95.12
4047.172	-101.12
4049.643	-100.12
4052.112	-102.12
4054.58	-101.12
4057.046	-98.12
4059.51	-100.12
4061.972	-103.12
4064.432	-100.12
4066.891	-97.12
4069.348	-104.12
4071.803	-102.12
4074.256	-102.12
4076.708	-100.12
4079.158	-97.12
4081.606	-97.12
4084.052	-102.12
4086.497	-102.12
4088.939	-98.12
4091.38	-95.12
4093.819	-103.12
4096.257	-104.12
4098.693	-100.12
4101.127	-108.12
4103.559	-110.12
4105.989	-64.12
4108.418	-61.12
4110.845	-64.12
4113.27	-58.12
4115.694	-46.12
4118.115	-39.12
4120.535	-102.12
4122.954	-102.12
4125.37	-99.12
4127.785	-98.12
4130.198	-98.12
4132.609	-97.12
4135.019	-102.12
4137.427	-105.12
4139.833	-110.12
4142.237	-107.12
