Data from Bacilus_dil1103_A3_RamanShift_0.txt Node
Date: Wed Mar 01 12:13:12 IST 2017
User: aro
Spectrometer: QEPB0276
Trigger mode: 0
Integration Time (sec): 5.000000E0
Scans to average: 1
Electric dark correction enabled: true
Nonlinearity correction enabled: false
Boxcar width: 0
XAxis mode: Raman Shifts
Number of Pixels in Spectrum: 1044
>>>>>Begin Spectral Data<<<<<
160.701	-26.75
166.742	-5.75
172.777	88.25
178.805	367.25
184.826	1032.25
190.841	2180.25
196.849	3438.25
202.85	4249.25
208.845	4424.25
214.833	4298.25
220.815	4097.25
226.789	3983.25
232.758	3873.25
238.719	3701.25
244.674	3570.25
250.623	3388.25
256.565	3217.25
262.5	3065.25
268.429	2932.25
274.351	2762.25
280.267	2674.25
286.176	2582.25
292.079	2459.25
297.975	2381.25
303.865	2300.25
309.748	2239.25
315.625	2196.25
321.495	2142.25
327.359	2105.25
333.217	2078.25
339.068	2063.25
344.912	2054.25
350.751	2028.25
356.583	2038.25
362.408	2047.25
368.227	2028.25
374.04	2060.25
379.847	2058.25
385.647	2058.25
391.44	2097.25
397.228	2103.25
403.009	2094.25
408.784	2107.25
414.553	2106.25
420.315	2104.25
426.071	2112.25
431.821	2110.25
437.565	2105.25
443.302	2110.25
449.033	2069.25
454.758	2081.25
460.477	2085.25
466.189	2064.25
471.896	2054.25
477.596	2011.25
483.29	2020.25
488.978	2011.25
494.66	2010.25
500.335	1970.25
506.005	1910.25
511.668	1893.25
517.325	1850.25
522.977	1806.25
528.622	1776.25
534.261	1744.25
539.894	1736.25
545.521	1734.25
551.141	1661.25
556.756	1689.25
562.365	1684.25
567.968	1663.25
573.565	1645.25
579.155	1616.25
584.74	1632.25
590.319	1609.25
595.892	1592.25
601.459	1590.25
607.02	1569.25
612.575	1550.25
618.124	1534.25
623.667	1503.25
629.204	1501.25
634.735	1484.25
640.261	1459.25
645.781	1454.25
651.294	1453.25
656.802	1426.25
662.304	1435.25
667.8	1420.25
673.29	1417.25
678.775	1399.25
684.254	1394.25
689.726	1399.25
695.193	1388.25
700.655	1367.25
706.11	1352.25
711.56	1351.25
717.004	1332.25
722.442	1326.25
727.874	1310.25
733.301	1298.25
738.722	1304.25
744.137	1299.25
749.547	1290.25
754.951	1271.25
760.349	1261.25
765.741	1262.25
771.128	1269.25
776.509	1273.25
781.885	1260.25
787.254	1257.25
792.618	1248.25
797.977	1249.25
803.33	1253.25
808.677	1216.25
814.019	1209.25
819.355	1187.25
824.686	1175.25
830.011	1154.25
835.33	1145.25
840.644	1136.25
845.952	1124.25
851.255	1105.25
856.552	1092.25
861.844	1084.25
867.13	1092.25
872.41	1082.25
877.686	1064.25
882.955	1059.25
888.219	1036.25
893.478	1027.25
898.731	977.25
903.979	978.25
909.221	964.25
914.458	947.25
919.69	929.25
924.916	936.25
930.136	930.25
935.351	907.25
940.561	908.25
945.766	910.25
950.965	908.25
956.158	882.25
961.347	880.25
966.529	876.25
971.707	847.25
976.879	846.25
982.046	851.25
987.208	834.25
992.364	829.25
997.515	821.25
1002.66	820.25
1007.801	833.25
1012.936	832.25
1018.066	827.25
1023.19	849.25
1028.309	841.25
1033.423	848.25
1038.532	845.25
1043.636	847.25
1048.734	835.25
1053.827	822.25
1058.915	810.25
1063.998	803.25
1069.075	802.25
1074.147	784.25
1079.214	783.25
1084.276	795.25
1089.333	804.25
1094.385	806.25
1099.431	804.25
1104.472	805.25
1109.509	804.25
1114.54	813.25
1119.565	777.25
1124.586	793.25
1129.602	770.25
1134.613	768.25
1139.618	755.25
1144.619	749.25
1149.614	761.25
1154.604	750.25
1159.589	761.25
1164.57	762.25
1169.545	769.25
1174.515	762.25
1179.48	767.25
1184.44	765.25
1189.395	768.25
1194.345	759.25
1199.29	746.25
1204.23	757.25
1209.165	752.25
1214.095	755.25
1219.021	754.25
1223.941	750.25
1228.856	772.25
1233.766	768.25
1238.672	758.25
1243.572	768.25
1248.467	760.25
1253.358	765.25
1258.244	745.25
1263.124	743.25
1268	722.25
1272.871	698.25
1277.737	706.25
1282.599	696.25
1287.455	700.25
1292.306	702.25
1297.153	713.25
1301.995	705.25
1306.832	706.25
1311.664	705.25
1316.491	709.25
1321.314	713.25
1326.132	701.25
1330.945	689.25
1335.753	679.25
1340.556	673.25
1345.354	645.25
1350.148	653.25
1354.937	620.25
1359.722	630.25
1364.501	640.25
1369.276	634.25
1374.046	650.25
1378.811	663.25
1383.572	670.25
1388.327	658.25
1393.079	659.25
1397.825	657.25
1402.567	635.25
1407.304	627.25
1412.036	623.25
1416.764	617.25
1421.487	612.25
1426.205	618.25
1430.919	607.25
1435.628	608.25
1440.333	612.25
1445.032	635.25
1449.727	630.25
1454.418	626.25
1459.104	626.25
1463.785	626.25
1468.462	620.25
1473.134	615.25
1477.802	604.25
1482.465	604.25
1487.123	604.25
1491.777	608.25
1496.426	613.25
1501.071	619.25
1505.711	629.25
1510.347	637.25
1514.978	657.25
1519.604	647.25
1524.226	677.25
1528.844	673.25
1533.457	679.25
1538.065	673.25
1542.669	683.25
1547.269	685.25
1551.864	683.25
1556.454	700.25
1561.041	699.25
1565.622	716.25
1570.199	713.25
1574.772	741.25
1579.34	745.25
1583.904	762.25
1588.464	796.25
1593.019	797.25
1597.569	825.25
1602.115	850.25
1606.657	849.25
1611.195	882.25
1615.728	878.25
1620.256	895.25
1624.78	904.25
1629.3	923.25
1633.816	951.25
1638.327	959.25
1642.834	971.25
1647.336	985.25
1651.834	969.25
1656.328	972.25
1660.817	965.25
1665.302	934.25
1669.783	925.25
1674.259	893.25
1678.732	861.25
1683.199	809.25
1687.663	777.25
1692.122	735.25
1696.577	705.25
1701.028	669.25
1705.474	657.25
1709.917	630.25
1714.355	611.25
1718.788	585.25
1723.218	558.25
1727.643	544.25
1732.064	518.25
1736.481	497.25
1740.893	478.25
1745.301	464.25
1749.705	440.25
1754.105	415.25
1758.501	403.25
1762.893	388.25
1767.28	378.25
1771.663	376.25
1776.042	362.25
1780.417	364.25
1784.787	363.25
1789.154	364.25
1793.516	369.25
1797.874	367.25
1802.228	374.25
1806.578	364.25
1810.924	370.25
1815.266	350.25
1819.603	346.25
1823.937	347.25
1828.266	333.25
1832.591	325.25
1836.913	331.25
1841.23	312.25
1845.543	307.25
1849.852	314.25
1854.156	311.25
1858.457	306.25
1862.754	313.25
1867.047	317.25
1871.335	314.25
1875.62	312.25
1879.9	320.25
1884.177	311.25
1888.449	315.25
1892.718	308.25
1896.982	306.25
1901.243	309.25
1905.499	307.25
1909.752	310.25
1914	315.25
1918.245	306.25
1922.485	307.25
1926.722	325.25
1930.954	315.25
1935.183	324.25
1939.408	316.25
1943.628	329.25
1947.845	334.25
1952.058	333.25
1956.267	327.25
1960.472	333.25
1964.673	331.25
1968.87	320.25
1973.063	315.25
1977.252	317.25
1981.438	321.25
1985.619	310.25
1989.797	319.25
1993.971	317.25
1998.14	315.25
2002.306	314.25
2006.469	318.25
2010.627	318.25
2014.781	324.25
2018.932	320.25
2023.078	326.25
2027.221	319.25
2031.36	316.25
2035.495	319.25
2039.627	309.25
2043.754	310.25
2047.878	310.25
2051.998	310.25
2056.114	319.25
2060.226	316.25
2064.334	322.25
2068.439	319.25
2072.54	315.25
2076.637	323.25
2080.73	332.25
2084.82	334.25
2088.906	346.25
2092.988	348.25
2097.066	344.25
2101.14	344.25
2105.211	333.25
2109.278	323.25
2113.342	333.25
2117.401	334.25
2121.457	336.25
2125.509	328.25
2129.558	324.25
2133.602	328.25
2137.643	323.25
2141.681	313.25
2145.714	312.25
2149.744	311.25
2153.77	308.25
2157.793	307.25
2161.812	297.25
2165.827	294.25
2169.838	298.25
2173.846	288.25
2177.851	282.25
2181.851	280.25
2185.848	266.25
2189.841	262.25
2193.831	261.25
2197.817	254.25
2201.799	262.25
2205.778	248.25
2209.753	248.25
2213.725	249.25
2217.693	246.25
2221.657	246.25
2225.618	249.25
2229.575	249.25
2233.529	239.25
2237.479	235.25
2241.425	235.25
2245.368	229.25
2249.307	219.25
2253.243	216.25
2257.175	212.25
2261.104	209.25
2265.029	203.25
2268.95	198.25
2272.868	198.25
2276.783	200.25
2280.694	192.25
2284.601	186.25
2288.505	182.25
2292.405	175.25
2296.302	178.25
2300.195	177.25
2304.085	162.25
2307.971	176.25
2311.854	163.25
2315.734	170.25
2319.609	151.25
2323.482	159.25
2327.351	147.25
2331.216	151.25
2335.078	143.25
2338.937	142.25
2342.792	137.25
2346.643	139.25
2350.492	143.25
2354.336	150.25
2358.178	139.25
2362.015	138.25
2365.85	138.25
2369.681	126.25
2373.508	135.25
2377.333	132.25
2381.153	137.25
2384.971	141.25
2388.785	132.25
2392.595	133.25
2396.402	130.25
2400.206	132.25
2404.007	127.25
2407.804	125.25
2411.597	120.25
2415.388	123.25
2419.174	124.25
2422.958	119.25
2426.738	120.25
2430.515	111.25
2434.289	123.25
2438.059	105.25
2441.825	115.25
2445.589	104.25
2449.349	106.25
2453.106	104.25
2456.859	108.25
2460.61	106.25
2464.356	96.25
2468.1	106.25
2471.84	104.25
2475.577	101.25
2479.311	95.25
2483.041	94.25
2486.768	101.25
2490.492	90.25
2494.213	98.25
2497.93	100.25
2501.644	101.25
2505.355	99.25
2509.062	99.25
2512.766	91.25
2516.467	96.25
2520.165	96.25
2523.859	89.25
2527.551	89.25
2531.239	92.25
2534.923	91.25
2538.605	85.25
2542.283	88.25
2545.958	89.25
2549.63	80.25
2553.299	81.25
2556.964	82.25
2560.626	86.25
2564.285	85.25
2567.941	84.25
2571.594	77.25
2575.243	83.25
2578.89	82.25
2582.533	75.25
2586.173	74.25
2589.809	78.25
2593.443	79.25
2597.073	73.25
2600.701	73.25
2604.325	75.25
2607.946	68.25
2611.564	75.25
2615.178	67.25
2618.79	69.25
2622.398	74.25
2626.004	69.25
2629.606	69.25
2633.205	67.25
2636.801	66.25
2640.394	59.25
2643.983	62.25
2647.57	65.25
2651.153	63.25
2654.734	60.25
2658.311	69.25
2661.885	53.25
2665.456	59.25
2669.025	49.25
2672.589	52.25
2676.151	58.25
2679.71	57.25
2683.266	52.25
2686.819	48.25
2690.368	52.25
2693.915	58.25
2697.458	52.25
2700.999	46.25
2704.536	54.25
2708.071	45.25
2711.602	42.25
2715.13	38.25
2718.656	50.25
2722.178	44.25
2725.697	47.25
2729.214	48.25
2732.727	50.25
2736.237	44.25
2739.744	47.25
2743.249	45.25
2746.75	47.25
2750.248	51.25
2753.743	59.25
2757.236	59.25
2760.725	59.25
2764.211	63.25
2767.695	64.25
2771.175	63.25
2774.652	56.25
2778.127	63.25
2781.598	59.25
2785.067	59.25
2788.532	61.25
2791.995	59.25
2795.455	68.25
2798.911	65.25
2802.365	69.25
2805.816	67.25
2809.264	74.25
2812.709	70.25
2816.151	74.25
2819.59	68.25
2823.026	72.25
2826.46	79.25
2829.89	77.25
2833.318	85.25
2836.742	84.25
2840.164	78.25
2843.583	90.25
2846.999	77.25
2850.412	91.25
2853.822	87.25
2857.229	95.25
2860.634	96.25
2864.035	106.25
2867.434	109.25
2870.83	114.25
2874.223	109.25
2877.613	120.25
2881	116.25
2884.385	118.25
2887.766	120.25
2891.145	127.25
2894.521	128.25
2897.894	134.25
2901.264	140.25
2904.631	141.25
2907.996	139.25
2911.358	134.25
2914.717	140.25
2918.073	148.25
2921.426	159.25
2924.777	158.25
2928.124	171.25
2931.469	175.25
2934.811	189.25
2938.15	180.25
2941.487	193.25
2944.821	191.25
2948.152	203.25
2951.48	205.25
2954.805	204.25
2958.128	219.25
2961.447	230.25
2964.765	229.25
2968.079	237.25
2971.39	244.25
2974.699	256.25
2978.005	269.25
2981.308	274.25
2984.609	289.25
2987.907	297.25
2991.202	316.25
2994.494	322.25
2997.784	334.25
3001.07	352.25
3004.355	363.25
3007.636	369.25
3010.915	380.25
3014.191	398.25
3017.464	407.25
3020.734	413.25
3024.002	422.25
3027.267	435.25
3030.53	443.25
3033.789	447.25
3037.046	464.25
3040.301	471.25
3043.552	493.25
3046.801	505.25
3050.048	525.25
3053.291	538.25
3056.532	562.25
3059.771	589.25
3063.006	588.25
3066.239	617.25
3069.469	647.25
3072.697	659.25
3075.922	673.25
3079.144	689.25
3082.364	726.25
3085.581	739.25
3088.795	771.25
3092.007	795.25
3095.216	802.25
3098.423	829.25
3101.627	855.25
3104.828	870.25
3108.026	900.25
3111.222	919.25
3114.416	938.25
3117.607	959.25
3120.795	981.25
3123.98	999.25
3127.163	1033.25
3130.344	1055.25
3133.521	1081.25
3136.696	1107.25
3139.869	1138.25
3143.039	1162.25
3146.206	1190.25
3149.371	1198.25
3152.533	1216.25
3155.693	1228.25
3158.85	1242.25
3162.005	1254.25
3165.157	1264.25
3168.306	1261.25
3171.453	1271.25
3174.597	1289.25
3177.739	1283.25
3180.878	1277.25
3184.014	1305.25
3187.149	1296.25
3190.28	1296.25
3193.409	1302.25
3196.536	1305.25
3199.659	1316.25
3202.781	1326.25
3205.9	1312.25
3209.016	1344.25
3212.13	1335.25
3215.241	1331.25
3218.35	1320.25
3221.456	1324.25
3224.56	1314.25
3227.661	1298.25
3230.76	1273.25
3233.856	1289.25
3236.95	1263.25
3240.041	1255.25
3243.13	1258.25
3246.216	1247.25
3249.3	1234.25
3252.382	1230.25
3255.46	1217.25
3258.537	1208.25
3261.611	1208.25
3264.682	1191.25
3267.751	1204.25
3270.818	1205.25
3273.882	1196.25
3276.943	1179.25
3280.002	1149.25
3283.059	1156.25
3286.113	1160.25
3289.165	1149.25
3292.214	1125.25
3295.261	1116.25
3298.306	1090.25
3301.348	1060.25
3304.387	1057.25
3307.425	1032.25
3310.459	1029.25
3313.492	1011.25
3316.521	1008.25
3319.549	977.25
3322.574	983.25
3325.597	979.25
3328.617	956.25
3331.635	961.25
3334.65	955.25
3337.663	939.25
3340.674	941.25
3343.682	929.25
3346.688	934.25
3349.691	937.25
3352.692	926.25
3355.691	916.25
3358.687	928.25
3361.681	913.25
3364.673	908.25
3367.662	891.25
3370.649	884.25
3373.633	876.25
3376.615	852.25
3379.595	847.25
3382.572	828.25
3385.547	830.25
3388.52	842.25
3391.49	816.25
3394.458	790.25
3397.424	789.25
3400.387	791.25
3403.348	771.25
3406.307	766.25
3409.263	753.25
3412.217	737.25
3415.168	736.25
3418.118	739.25
3421.065	713.25
3424.009	707.25
3426.951	702.25
3429.891	697.25
3432.829	691.25
3435.764	690.25
3438.697	667.25
3441.628	646.25
3444.557	637.25
3447.483	618.25
3450.407	607.25
3453.328	586.25
3456.247	567.25
3459.164	557.25
3462.079	542.25
3464.991	520.25
3467.902	507.25
3470.809	495.25
3473.715	470.25
3476.618	466.25
3479.519	450.25
3482.418	442.25
3485.315	424.25
3488.209	415.25
3491.101	409.25
3493.99	392.25
3496.878	381.25
3499.763	374.25
3502.646	369.25
3505.527	355.25
3508.405	335.25
3511.281	324.25
3514.155	321.25
3517.027	305.25
3519.897	301.25
3522.764	281.25
3525.629	262.25
3528.492	254.25
3531.352	241.25
3534.211	226.25
3537.067	222.25
3539.921	209.25
3542.773	187.25
3545.622	185.25
3548.469	175.25
3551.315	175.25
3554.157	155.25
3556.998	139.25
3559.837	140.25
3562.673	130.25
3565.507	128.25
3568.339	126.25
3571.169	108.25
3573.996	108.25
3576.822	94.25
3579.645	92.25
3582.466	88.25
3585.285	74.25
3588.101	68.25
3590.916	62.25
3593.728	63.25
3596.538	57.25
3599.346	48.25
3602.152	47.25
3604.956	38.25
3607.757	30.25
3610.556	25.25
3613.354	27.25
3616.149	22.25
3618.942	14.25
3621.732	14.25
3624.521	10.25
3627.307	-1.75
3630.092	-1.75
3632.874	-4.75
3635.654	-17.75
3638.432	-7.75
3641.208	-10.75
3643.982	-16.75
3646.753	-12.75
3649.523	-18.75
3652.29	-29.75
3655.055	-29.75
3657.818	-31.75
3660.579	-37.75
3663.338	-39.75
3666.095	-41.75
3668.849	-43.75
3671.602	-42.75
3674.352	-43.75
3677.101	-46.75
3679.847	-59.75
3682.591	-56.75
3685.333	-57.75
3688.073	-60.75
3690.811	-60.75
3693.547	-62.75
3696.281	-65.75
3699.013	-63.75
3701.742	-63.75
3704.47	-64.75
3707.195	-69.75
3709.919	-73.75
3712.64	-72.75
3715.359	-81.75
3718.076	-76.75
3720.792	-77.75
3723.505	-79.75
3726.216	-68.75
3728.925	-75.75
3731.632	-80.75
3734.336	-81.75
3737.039	-86.75
3739.74	-84.75
3742.439	-80.75
3745.136	-87.75
3747.83	-78.75
3750.523	-90.75
3753.213	-80.75
3755.902	-85.75
3758.589	-86.75
3761.273	-86.75
3763.956	-88.75
3766.636	-90.75
3769.315	-91.75
3771.991	-89.75
3774.665	-90.75
3777.338	-96.75
3780.008	-89.75
3782.677	-91.75
3785.343	-86.75
3788.007	-90.75
3790.67	-87.75
3793.33	-91.75
3795.989	-92.75
3798.645	-94.75
3801.299	-94.75
3803.952	-93.75
3806.602	-96.75
3809.251	-94.75
3811.897	-97.75
3814.542	-95.75
3817.184	-95.75
3819.825	-96.75
3822.463	-91.75
3825.1	-96.75
3827.735	-96.75
3830.367	-99.75
3832.998	-97.75
3835.627	-94.75
3838.253	-95.75
3840.878	-95.75
3843.501	-94.75
3846.122	-95.75
3848.741	-96.75
3851.358	-98.75
3853.973	-98.75
3856.586	-99.75
3859.197	-98.75
3861.806	-95.75
3864.414	-101.75
3867.019	-95.75
3869.622	-98.75
3872.224	-97.75
3874.823	-96.75
3877.421	-97.75
3880.016	-89.75
3882.61	-84.75
3885.202	-86.75
3887.792	-83.75
3890.38	-89.75
3892.966	-98.75
3895.55	-96.75
3898.132	-96.75
3900.713	-100.75
3903.291	-103.75
3905.868	-101.75
3908.442	-101.75
3911.015	-95.75
3913.586	-100.75
3916.155	-98.75
3918.722	-97.75
3921.287	-93.75
3923.85	-101.75
3926.411	-101.75
3928.971	-103.75
3931.528	-102.75
3934.084	-98.75
3936.638	-101.75
3939.19	-101.75
3941.74	-96.75
3944.288	-102.75
3946.834	-101.75
3949.378	-103.75
3951.921	-101.75
3954.462	-100.75
3957	-107.75
3959.537	-103.75
3962.072	-101.75
3964.606	-99.75
3967.137	-98.75
3969.667	-98.75
3972.194	-101.75
3974.72	-98.75
3977.244	-106.75
3979.766	-105.75
3982.286	-98.75
3984.805	-98.75
3987.321	-103.75
3989.836	-94.75
3992.349	-98.75
3994.86	-97.75
3997.369	-99.75
3999.877	-101.75
4002.382	-98.75
4004.886	-102.75
4007.388	-101.75
4009.888	-101.75
4012.386	-103.75
4014.883	-100.75
4017.377	-93.75
4019.87	-96.75
4022.361	-102.75
4024.85	-99.75
4027.338	-101.75
4029.823	-101.75
4032.307	-105.75
4034.789	-100.75
4037.269	-96.75
4039.747	-98.75
4042.224	-96.75
4044.699	-92.75
4047.172	-98.75
4049.643	-101.75
4052.112	-104.75
4054.58	-106.75
4057.046	-106.75
4059.51	-102.75
4061.972	-98.75
4064.432	-97.75
4066.891	-101.75
4069.348	-101.75
4071.803	-99.75
4074.256	-107.75
4076.708	-103.75
4079.158	-103.75
4081.606	-99.75
4084.052	-104.75
4086.497	-104.75
4088.939	-98.75
4091.38	-96.75
4093.819	-102.75
4096.257	-100.75
4098.693	-102.75
4101.127	-111.75
4103.559	-110.75
4105.989	-64.75
4108.418	-65.75
4110.845	-62.75
4113.27	-52.75
4115.694	-46.75
4118.115	-36.75
4120.535	-103.75
4122.954	-104.75
4125.37	-101.75
4127.785	-101.75
4130.198	-104.75
4132.609	-100.75
4135.019	-104.75
4137.427	-103.75
4139.833	-106.75
4142.237	-107.75
