Data from Bacilus_dil1105_A1_RamanShift_1.txt Node
Date: Wed Mar 01 11:54:27 IST 2017
User: aro
Spectrometer: QEPB0276
Trigger mode: 0
Integration Time (sec): 5.000000E0
Scans to average: 1
Electric dark correction enabled: true
Nonlinearity correction enabled: false
Boxcar width: 0
XAxis mode: Raman Shifts
Number of Pixels in Spectrum: 1044
>>>>>Begin Spectral Data<<<<<
160.701	-25.5
166.742	-5.5
172.777	84.5
178.805	354.5
184.826	972.5
190.841	2047.5
196.849	3207.5
202.85	3935.5
208.845	4130.5
214.833	3967.5
220.815	3835.5
226.789	3707.5
232.758	3612.5
238.719	3474.5
244.674	3355.5
250.623	3187.5
256.565	3033.5
262.5	2892.5
268.429	2755.5
274.351	2620.5
280.267	2533.5
286.176	2418.5
292.079	2332.5
297.975	2250.5
303.865	2190.5
309.748	2101.5
315.625	2063.5
321.495	2016.5
327.359	1991.5
333.217	1976.5
339.068	1961.5
344.912	1927.5
350.751	1938.5
356.583	1924.5
362.408	1920.5
368.227	1930.5
374.04	1932.5
379.847	1945.5
385.647	1960.5
391.44	1977.5
397.228	1996.5
403.009	1996.5
408.784	1995.5
414.553	1999.5
420.315	2009.5
426.071	2020.5
431.821	2015.5
437.565	1994.5
443.302	1972.5
449.033	1984.5
454.758	1988.5
460.477	1981.5
466.189	1949.5
471.896	1950.5
477.596	1922.5
483.29	1930.5
488.978	1918.5
494.66	1905.5
500.335	1885.5
506.005	1867.5
511.668	1814.5
517.325	1777.5
522.977	1751.5
528.622	1722.5
534.261	1688.5
539.894	1673.5
545.521	1660.5
551.141	1646.5
556.756	1633.5
562.365	1622.5
567.968	1607.5
573.565	1590.5
579.155	1584.5
584.74	1583.5
590.319	1571.5
595.892	1565.5
601.459	1555.5
607.02	1541.5
612.575	1535.5
618.124	1493.5
623.667	1501.5
629.204	1465.5
634.735	1450.5
640.261	1447.5
645.781	1443.5
651.294	1432.5
656.802	1420.5
662.304	1406.5
667.8	1396.5
673.29	1394.5
678.775	1395.5
684.254	1379.5
689.726	1383.5
695.193	1383.5
700.655	1371.5
706.11	1348.5
711.56	1329.5
717.004	1340.5
722.442	1335.5
727.874	1315.5
733.301	1299.5
738.722	1281.5
744.137	1287.5
749.547	1276.5
754.951	1269.5
760.349	1269.5
765.741	1273.5
771.128	1260.5
776.509	1261.5
781.885	1262.5
787.254	1257.5
792.618	1274.5
797.977	1254.5
803.33	1248.5
808.677	1221.5
814.019	1214.5
819.355	1191.5
824.686	1192.5
830.011	1166.5
835.33	1157.5
840.644	1152.5
845.952	1142.5
851.255	1139.5
856.552	1144.5
861.844	1116.5
867.13	1118.5
872.41	1105.5
877.686	1090.5
882.955	1080.5
888.219	1075.5
893.478	1056.5
898.731	1035.5
903.979	1005.5
909.221	1010.5
914.458	978.5
919.69	969.5
924.916	980.5
930.136	978.5
935.351	970.5
940.561	958.5
945.766	958.5
950.965	953.5
956.158	941.5
961.347	919.5
966.529	916.5
971.707	913.5
976.879	889.5
982.046	876.5
987.208	880.5
992.364	869.5
997.515	868.5
1002.66	878.5
1007.801	878.5
1012.936	888.5
1018.066	893.5
1023.19	878.5
1028.309	909.5
1033.423	908.5
1038.532	904.5
1043.636	900.5
1048.734	870.5
1053.827	875.5
1058.915	864.5
1063.998	861.5
1069.075	860.5
1074.147	858.5
1079.214	851.5
1084.276	866.5
1089.333	857.5
1094.385	860.5
1099.431	861.5
1104.472	875.5
1109.509	871.5
1114.54	867.5
1119.565	860.5
1124.586	850.5
1129.602	843.5
1134.613	834.5
1139.618	828.5
1144.619	810.5
1149.614	835.5
1154.604	831.5
1159.589	815.5
1164.57	825.5
1169.545	831.5
1174.515	849.5
1179.48	834.5
1184.44	846.5
1189.395	823.5
1194.345	820.5
1199.29	817.5
1204.23	826.5
1209.165	812.5
1214.095	826.5
1219.021	826.5
1223.941	834.5
1228.856	827.5
1233.766	839.5
1238.672	841.5
1243.572	849.5
1248.467	831.5
1253.358	827.5
1258.244	815.5
1263.124	814.5
1268	789.5
1272.871	775.5
1277.737	784.5
1282.599	767.5
1287.455	762.5
1292.306	774.5
1297.153	779.5
1301.995	781.5
1306.832	789.5
1311.664	779.5
1316.491	783.5
1321.314	781.5
1326.132	782.5
1330.945	777.5
1335.753	746.5
1340.556	743.5
1345.354	703.5
1350.148	703.5
1354.937	692.5
1359.722	688.5
1364.501	702.5
1369.276	715.5
1374.046	735.5
1378.811	736.5
1383.572	739.5
1388.327	748.5
1393.079	733.5
1397.825	726.5
1402.567	707.5
1407.304	708.5
1412.036	692.5
1416.764	689.5
1421.487	678.5
1426.205	682.5
1430.919	687.5
1435.628	686.5
1440.333	681.5
1445.032	687.5
1449.727	693.5
1454.418	695.5
1459.104	696.5
1463.785	687.5
1468.462	691.5
1473.134	681.5
1477.802	673.5
1482.465	673.5
1487.123	677.5
1491.777	676.5
1496.426	682.5
1501.071	683.5
1505.711	710.5
1510.347	707.5
1514.978	717.5
1519.604	728.5
1524.226	742.5
1528.844	766.5
1533.457	763.5
1538.065	761.5
1542.669	762.5
1547.269	752.5
1551.864	748.5
1556.454	769.5
1561.041	761.5
1565.622	774.5
1570.199	783.5
1574.772	785.5
1579.34	814.5
1583.904	829.5
1588.464	851.5
1593.019	859.5
1597.569	873.5
1602.115	889.5
1606.657	910.5
1611.195	900.5
1615.728	921.5
1620.256	941.5
1624.78	947.5
1629.3	951.5
1633.816	1006.5
1638.327	998.5
1642.834	1012.5
1647.336	1015.5
1651.834	1008.5
1656.328	1005.5
1660.817	987.5
1665.302	983.5
1669.783	962.5
1674.259	940.5
1678.732	904.5
1683.199	865.5
1687.663	814.5
1692.122	774.5
1696.577	750.5
1701.028	732.5
1705.474	710.5
1709.917	708.5
1714.355	690.5
1718.788	658.5
1723.218	636.5
1727.643	614.5
1732.064	594.5
1736.481	561.5
1740.893	560.5
1745.301	532.5
1749.705	518.5
1754.105	492.5
1758.501	470.5
1762.893	460.5
1767.28	449.5
1771.663	444.5
1776.042	430.5
1780.417	434.5
1784.787	437.5
1789.154	442.5
1793.516	437.5
1797.874	459.5
1802.228	454.5
1806.578	457.5
1810.924	448.5
1815.266	439.5
1819.603	432.5
1823.937	436.5
1828.266	419.5
1832.591	410.5
1836.913	404.5
1841.23	398.5
1845.543	396.5
1849.852	388.5
1854.156	386.5
1858.457	384.5
1862.754	383.5
1867.047	396.5
1871.335	395.5
1875.62	381.5
1879.9	403.5
1884.177	398.5
1888.449	386.5
1892.718	399.5
1896.982	387.5
1901.243	387.5
1905.499	386.5
1909.752	389.5
1914	374.5
1918.245	383.5
1922.485	386.5
1926.722	391.5
1930.954	404.5
1935.183	400.5
1939.408	403.5
1943.628	407.5
1947.845	416.5
1952.058	411.5
1956.267	406.5
1960.472	407.5
1964.673	411.5
1968.87	405.5
1973.063	407.5
1977.252	395.5
1981.438	387.5
1985.619	391.5
1989.797	390.5
1993.971	390.5
1998.14	383.5
2002.306	380.5
2006.469	380.5
2010.627	388.5
2014.781	386.5
2018.932	396.5
2023.078	394.5
2027.221	388.5
2031.36	394.5
2035.495	378.5
2039.627	383.5
2043.754	371.5
2047.878	383.5
2051.998	384.5
2056.114	380.5
2060.226	391.5
2064.334	400.5
2068.439	393.5
2072.54	393.5
2076.637	392.5
2080.73	386.5
2084.82	400.5
2088.906	404.5
2092.988	420.5
2097.066	409.5
2101.14	410.5
2105.211	404.5
2109.278	401.5
2113.342	395.5
2117.401	399.5
2121.457	378.5
2125.509	392.5
2129.558	384.5
2133.602	393.5
2137.643	386.5
2141.681	382.5
2145.714	381.5
2149.744	380.5
2153.77	370.5
2157.793	367.5
2161.812	368.5
2165.827	358.5
2169.838	355.5
2173.846	349.5
2177.851	344.5
2181.851	334.5
2185.848	338.5
2189.841	325.5
2193.831	322.5
2197.817	321.5
2201.799	315.5
2205.778	311.5
2209.753	315.5
2213.725	303.5
2217.693	307.5
2221.657	312.5
2225.618	310.5
2229.575	305.5
2233.529	296.5
2237.479	297.5
2241.425	291.5
2245.368	301.5
2249.307	290.5
2253.243	283.5
2257.175	270.5
2261.104	264.5
2265.029	262.5
2268.95	256.5
2272.868	259.5
2276.783	255.5
2280.694	249.5
2284.601	236.5
2288.505	242.5
2292.405	239.5
2296.302	235.5
2300.195	234.5
2304.085	223.5
2307.971	222.5
2311.854	218.5
2315.734	227.5
2319.609	207.5
2323.482	200.5
2327.351	192.5
2331.216	201.5
2335.078	202.5
2338.937	192.5
2342.792	188.5
2346.643	198.5
2350.492	195.5
2354.336	192.5
2358.178	185.5
2362.015	186.5
2365.85	196.5
2369.681	189.5
2373.508	189.5
2377.333	195.5
2381.153	190.5
2384.971	188.5
2388.785	180.5
2392.595	187.5
2396.402	177.5
2400.206	185.5
2404.007	173.5
2407.804	174.5
2411.597	170.5
2415.388	180.5
2419.174	171.5
2422.958	169.5
2426.738	169.5
2430.515	163.5
2434.289	160.5
2438.059	160.5
2441.825	160.5
2445.589	162.5
2449.349	161.5
2453.106	153.5
2456.859	163.5
2460.61	154.5
2464.356	148.5
2468.1	150.5
2471.84	144.5
2475.577	139.5
2479.311	143.5
2483.041	135.5
2486.768	152.5
2490.492	145.5
2494.213	146.5
2497.93	148.5
2501.644	133.5
2505.355	147.5
2509.062	140.5
2512.766	136.5
2516.467	136.5
2520.165	134.5
2523.859	137.5
2527.551	138.5
2531.239	145.5
2534.923	143.5
2538.605	126.5
2542.283	128.5
2545.958	133.5
2549.63	131.5
2553.299	130.5
2556.964	133.5
2560.626	131.5
2564.285	127.5
2567.941	137.5
2571.594	129.5
2575.243	127.5
2578.89	124.5
2582.533	128.5
2586.173	120.5
2589.809	120.5
2593.443	120.5
2597.073	124.5
2600.701	119.5
2604.325	119.5
2607.946	115.5
2611.564	114.5
2615.178	116.5
2618.79	112.5
2622.398	104.5
2626.004	112.5
2629.606	112.5
2633.205	113.5
2636.801	111.5
2640.394	102.5
2643.983	105.5
2647.57	95.5
2651.153	107.5
2654.734	98.5
2658.311	94.5
2661.885	95.5
2665.456	98.5
2669.025	97.5
2672.589	98.5
2676.151	93.5
2679.71	92.5
2683.266	88.5
2686.819	93.5
2690.368	91.5
2693.915	91.5
2697.458	86.5
2700.999	91.5
2704.536	86.5
2708.071	77.5
2711.602	78.5
2715.13	77.5
2718.656	78.5
2722.178	75.5
2725.697	76.5
2729.214	79.5
2732.727	82.5
2736.237	82.5
2739.744	82.5
2743.249	83.5
2746.75	80.5
2750.248	84.5
2753.743	83.5
2757.236	97.5
2760.725	91.5
2764.211	88.5
2767.695	92.5
2771.175	99.5
2774.652	101.5
2778.127	98.5
2781.598	90.5
2785.067	94.5
2788.532	95.5
2791.995	85.5
2795.455	91.5
2798.911	97.5
2802.365	104.5
2805.816	98.5
2809.264	95.5
2812.709	99.5
2816.151	92.5
2819.59	96.5
2823.026	98.5
2826.46	100.5
2829.89	109.5
2833.318	112.5
2836.742	107.5
2840.164	105.5
2843.583	116.5
2846.999	111.5
2850.412	117.5
2853.822	118.5
2857.229	116.5
2860.634	123.5
2864.035	133.5
2867.434	132.5
2870.83	136.5
2874.223	133.5
2877.613	133.5
2881	139.5
2884.385	139.5
2887.766	147.5
2891.145	148.5
2894.521	147.5
2897.894	149.5
2901.264	154.5
2904.631	151.5
2907.996	150.5
2911.358	156.5
2914.717	162.5
2918.073	169.5
2921.426	167.5
2924.777	177.5
2928.124	183.5
2931.469	187.5
2934.811	188.5
2938.15	198.5
2941.487	194.5
2944.821	192.5
2948.152	211.5
2951.48	213.5
2954.805	217.5
2958.128	219.5
2961.447	227.5
2964.765	230.5
2968.079	248.5
2971.39	246.5
2974.699	259.5
2978.005	272.5
2981.308	269.5
2984.609	286.5
2987.907	293.5
2991.202	307.5
2994.494	311.5
2997.784	333.5
3001.07	343.5
3004.355	355.5
3007.636	372.5
3010.915	386.5
3014.191	391.5
3017.464	397.5
3020.734	403.5
3024.002	416.5
3027.267	425.5
3030.53	434.5
3033.789	444.5
3037.046	447.5
3040.301	467.5
3043.552	468.5
3046.801	491.5
3050.048	499.5
3053.291	506.5
3056.532	533.5
3059.771	548.5
3063.006	552.5
3066.239	582.5
3069.469	606.5
3072.697	630.5
3075.922	646.5
3079.144	655.5
3082.364	683.5
3085.581	690.5
3088.795	735.5
3092.007	744.5
3095.216	759.5
3098.423	782.5
3101.627	789.5
3104.828	814.5
3108.026	830.5
3111.222	848.5
3114.416	874.5
3117.607	904.5
3120.795	919.5
3123.98	937.5
3127.163	961.5
3130.344	984.5
3133.521	1007.5
3136.696	1032.5
3139.869	1057.5
3143.039	1083.5
3146.206	1097.5
3149.371	1123.5
3152.533	1124.5
3155.693	1142.5
3158.85	1132.5
3162.005	1171.5
3165.157	1165.5
3168.306	1155.5
3171.453	1178.5
3174.597	1187.5
3177.739	1181.5
3180.878	1186.5
3184.014	1189.5
3187.149	1209.5
3190.28	1189.5
3193.409	1213.5
3196.536	1203.5
3199.659	1221.5
3202.781	1229.5
3205.9	1227.5
3209.016	1218.5
3212.13	1253.5
3215.241	1238.5
3218.35	1233.5
3221.456	1226.5
3224.56	1218.5
3227.661	1210.5
3230.76	1190.5
3233.856	1195.5
3236.95	1191.5
3240.041	1175.5
3243.13	1157.5
3246.216	1158.5
3249.3	1145.5
3252.382	1135.5
3255.46	1123.5
3258.537	1130.5
3261.611	1119.5
3264.682	1120.5
3267.751	1109.5
3270.818	1116.5
3273.882	1102.5
3276.943	1085.5
3280.002	1083.5
3283.059	1076.5
3286.113	1065.5
3289.165	1067.5
3292.214	1039.5
3295.261	1027.5
3298.306	1014.5
3301.348	986.5
3304.387	990.5
3307.425	975.5
3310.459	937.5
3313.492	927.5
3316.521	933.5
3319.549	914.5
3322.574	905.5
3325.597	905.5
3328.617	896.5
3331.635	899.5
3334.65	869.5
3337.663	874.5
3340.674	861.5
3343.682	870.5
3346.688	868.5
3349.691	844.5
3352.692	854.5
3355.691	849.5
3358.687	848.5
3361.681	848.5
3364.673	840.5
3367.662	817.5
3370.649	803.5
3373.633	785.5
3376.615	790.5
3379.595	775.5
3382.572	776.5
3385.547	760.5
3388.52	752.5
3391.49	741.5
3394.458	723.5
3397.424	728.5
3400.387	705.5
3403.348	685.5
3406.307	702.5
3409.263	689.5
3412.217	685.5
3415.168	673.5
3418.118	675.5
3421.065	657.5
3424.009	647.5
3426.951	640.5
3429.891	626.5
3432.829	631.5
3435.764	625.5
3438.697	609.5
3441.628	593.5
3444.557	579.5
3447.483	568.5
3450.407	547.5
3453.328	534.5
3456.247	525.5
3459.164	506.5
3462.079	492.5
3464.991	483.5
3467.902	458.5
3470.809	466.5
3473.715	448.5
3476.618	431.5
3479.519	415.5
3482.418	412.5
3485.315	389.5
3488.209	385.5
3491.101	373.5
3493.99	369.5
3496.878	353.5
3499.763	341.5
3502.646	341.5
3505.527	330.5
3508.405	316.5
3511.281	302.5
3514.155	291.5
3517.027	270.5
3519.897	263.5
3522.764	252.5
3525.629	239.5
3528.492	241.5
3531.352	219.5
3534.211	213.5
3537.067	201.5
3539.921	190.5
3542.773	173.5
3545.622	173.5
3548.469	158.5
3551.315	155.5
3554.157	142.5
3556.998	133.5
3559.837	126.5
3562.673	121.5
3565.507	120.5
3568.339	110.5
3571.169	104.5
3573.996	92.5
3576.822	85.5
3579.645	83.5
3582.466	73.5
3585.285	69.5
3588.101	67.5
3590.916	61.5
3593.728	60.5
3596.538	52.5
3599.346	53.5
3602.152	43.5
3604.956	29.5
3607.757	28.5
3610.556	24.5
3613.354	21.5
3616.149	9.5
3618.942	11.5
3621.732	15.5
3624.521	14.5
3627.307	-0.5
3630.092	1.5
3632.874	-3.5
3635.654	-16.5
3638.432	-11.5
3641.208	-15.5
3643.982	-15.5
3646.753	-12.5
3649.523	-18.5
3652.29	-23.5
3655.055	-31.5
3657.818	-34.5
3660.579	-40.5
3663.338	-34.5
3666.095	-41.5
3668.849	-41.5
3671.602	-43.5
3674.352	-40.5
3677.101	-45.5
3679.847	-50.5
3682.591	-53.5
3685.333	-53.5
3688.073	-58.5
3690.811	-58.5
3693.547	-57.5
3696.281	-62.5
3699.013	-58.5
3701.742	-58.5
3704.47	-65.5
3707.195	-69.5
3709.919	-69.5
3712.64	-70.5
3715.359	-75.5
3718.076	-72.5
3720.792	-72.5
3723.505	-70.5
3726.216	-70.5
3728.925	-78.5
3731.632	-74.5
3734.336	-81.5
3737.039	-84.5
3739.74	-78.5
3742.439	-82.5
3745.136	-77.5
3747.83	-76.5
3750.523	-78.5
3753.213	-79.5
3755.902	-80.5
3758.589	-82.5
3761.273	-82.5
3763.956	-86.5
3766.636	-84.5
3769.315	-87.5
3771.991	-85.5
3774.665	-86.5
3777.338	-85.5
3780.008	-83.5
3782.677	-85.5
3785.343	-86.5
3788.007	-88.5
3790.67	-87.5
3793.33	-86.5
3795.989	-86.5
3798.645	-83.5
3801.299	-86.5
3803.952	-91.5
3806.602	-94.5
3809.251	-88.5
3811.897	-90.5
3814.542	-90.5
3817.184	-94.5
3819.825	-90.5
3822.463	-87.5
3825.1	-84.5
3827.735	-87.5
3830.367	-94.5
3832.998	-90.5
3835.627	-89.5
3838.253	-95.5
3840.878	-93.5
3843.501	-89.5
3846.122	-93.5
3848.741	-90.5
3851.358	-89.5
3853.973	-88.5
3856.586	-94.5
3859.197	-95.5
3861.806	-88.5
3864.414	-100.5
3867.019	-94.5
3869.622	-94.5
3872.224	-94.5
3874.823	-92.5
3877.421	-88.5
3880.016	-83.5
3882.61	-81.5
3885.202	-81.5
3887.792	-82.5
3890.38	-87.5
3892.966	-90.5
3895.55	-90.5
3898.132	-94.5
3900.713	-102.5
3903.291	-94.5
3905.868	-95.5
3908.442	-94.5
3911.015	-93.5
3913.586	-95.5
3916.155	-99.5
3918.722	-95.5
3921.287	-95.5
3923.85	-93.5
3926.411	-95.5
3928.971	-95.5
3931.528	-95.5
3934.084	-94.5
3936.638	-98.5
3939.19	-99.5
3941.74	-96.5
3944.288	-97.5
3946.834	-98.5
3949.378	-96.5
3951.921	-95.5
3954.462	-93.5
3957	-98.5
3959.537	-95.5
3962.072	-100.5
3964.606	-99.5
3967.137	-99.5
3969.667	-94.5
3972.194	-98.5
3974.72	-92.5
3977.244	-97.5
3979.766	-97.5
3982.286	-96.5
3984.805	-96.5
3987.321	-99.5
3989.836	-91.5
3992.349	-94.5
3994.86	-91.5
3997.369	-98.5
3999.877	-92.5
4002.382	-93.5
4004.886	-91.5
4007.388	-94.5
4009.888	-95.5
4012.386	-98.5
4014.883	-98.5
4017.377	-90.5
4019.87	-96.5
4022.361	-94.5
4024.85	-93.5
4027.338	-94.5
4029.823	-98.5
4032.307	-96.5
4034.789	-95.5
4037.269	-93.5
4039.747	-94.5
4042.224	-95.5
4044.699	-88.5
4047.172	-94.5
4049.643	-94.5
4052.112	-99.5
4054.58	-96.5
4057.046	-95.5
4059.51	-100.5
4061.972	-97.5
4064.432	-98.5
4066.891	-96.5
4069.348	-99.5
4071.803	-94.5
4074.256	-96.5
4076.708	-97.5
4079.158	-96.5
4081.606	-92.5
4084.052	-97.5
4086.497	-99.5
4088.939	-92.5
4091.38	-94.5
4093.819	-96.5
4096.257	-97.5
4098.693	-97.5
4101.127	-102.5
4103.559	-104.5
4105.989	-60.5
4108.418	-60.5
4110.845	-58.5
4113.27	-55.5
4115.694	-45.5
4118.115	-38.5
4120.535	-97.5
4122.954	-96.5
4125.37	-97.5
4127.785	-95.5
4130.198	-96.5
4132.609	-96.5
4135.019	-99.5
4137.427	-98.5
4139.833	-106.5
4142.237	-103.5
