Data from Bacilus_dil1104_B1_RamanShift_1.txt Node
Date: Wed Mar 01 12:39:22 IST 2017
User: aro
Spectrometer: QEPB0276
Trigger mode: 0
Integration Time (sec): 5.000000E0
Scans to average: 1
Electric dark correction enabled: true
Nonlinearity correction enabled: false
Boxcar width: 0
XAxis mode: Raman Shifts
Number of Pixels in Spectrum: 1044
>>>>>Begin Spectral Data<<<<<
160.701	-26.5
166.742	-1.5
172.777	83.5
178.805	350.5
184.826	989.5
190.841	2091.5
196.849	3314.5
202.85	4070.5
208.845	4273.5
214.833	4126.5
220.815	3963.5
226.789	3866.5
232.758	3785.5
238.719	3634.5
244.674	3471.5
250.623	3314.5
256.565	3172.5
262.5	3013.5
268.429	2847.5
274.351	2745.5
280.267	2625.5
286.176	2523.5
292.079	2427.5
297.975	2336.5
303.865	2260.5
309.748	2196.5
315.625	2164.5
321.495	2120.5
327.359	2091.5
333.217	2048.5
339.068	2033.5
344.912	2034.5
350.751	2009.5
356.583	1995.5
362.408	2006.5
368.227	2016.5
374.04	2035.5
379.847	2054.5
385.647	2038.5
391.44	2061.5
397.228	2063.5
403.009	2077.5
408.784	2086.5
414.553	2095.5
420.315	2081.5
426.071	2084.5
431.821	2097.5
437.565	2094.5
443.302	2097.5
449.033	2071.5
454.758	2058.5
460.477	2060.5
466.189	2028.5
471.896	2029.5
477.596	2038.5
483.29	2013.5
488.978	1992.5
494.66	2001.5
500.335	1971.5
506.005	1921.5
511.668	1896.5
517.325	1868.5
522.977	1818.5
528.622	1793.5
534.261	1769.5
539.894	1746.5
545.521	1731.5
551.141	1721.5
556.756	1699.5
562.365	1686.5
567.968	1681.5
573.565	1653.5
579.155	1650.5
584.74	1640.5
590.319	1635.5
595.892	1632.5
601.459	1613.5
607.02	1593.5
612.575	1581.5
618.124	1550.5
623.667	1563.5
629.204	1539.5
634.735	1524.5
640.261	1512.5
645.781	1474.5
651.294	1483.5
656.802	1473.5
662.304	1458.5
667.8	1463.5
673.29	1433.5
678.775	1444.5
684.254	1432.5
689.726	1432.5
695.193	1427.5
700.655	1418.5
706.11	1401.5
711.56	1398.5
717.004	1374.5
722.442	1358.5
727.874	1351.5
733.301	1351.5
738.722	1347.5
744.137	1321.5
749.547	1338.5
754.951	1307.5
760.349	1311.5
765.741	1306.5
771.128	1308.5
776.509	1312.5
781.885	1317.5
787.254	1318.5
792.618	1304.5
797.977	1300.5
803.33	1284.5
808.677	1278.5
814.019	1260.5
819.355	1236.5
824.686	1216.5
830.011	1204.5
835.33	1206.5
840.644	1198.5
845.952	1173.5
851.255	1168.5
856.552	1178.5
861.844	1141.5
867.13	1156.5
872.41	1150.5
877.686	1131.5
882.955	1123.5
888.219	1117.5
893.478	1090.5
898.731	1071.5
903.979	1065.5
909.221	1033.5
914.458	1014.5
919.69	1023.5
924.916	995.5
930.136	992.5
935.351	998.5
940.561	1003.5
945.766	984.5
950.965	985.5
956.158	973.5
961.347	960.5
966.529	948.5
971.707	931.5
976.879	920.5
982.046	933.5
987.208	894.5
992.364	909.5
997.515	903.5
1002.66	892.5
1007.801	919.5
1012.936	925.5
1018.066	918.5
1023.19	917.5
1028.309	926.5
1033.423	927.5
1038.532	919.5
1043.636	921.5
1048.734	931.5
1053.827	896.5
1058.915	905.5
1063.998	875.5
1069.075	871.5
1074.147	880.5
1079.214	882.5
1084.276	887.5
1089.333	885.5
1094.385	902.5
1099.431	906.5
1104.472	918.5
1109.509	902.5
1114.54	894.5
1119.565	889.5
1124.586	865.5
1129.602	875.5
1134.613	853.5
1139.618	839.5
1144.619	839.5
1149.614	837.5
1154.604	853.5
1159.589	847.5
1164.57	866.5
1169.545	867.5
1174.515	856.5
1179.48	855.5
1184.44	851.5
1189.395	853.5
1194.345	849.5
1199.29	846.5
1204.23	849.5
1209.165	846.5
1214.095	849.5
1219.021	847.5
1223.941	860.5
1228.856	867.5
1233.766	852.5
1238.672	859.5
1243.572	869.5
1248.467	872.5
1253.358	857.5
1258.244	832.5
1263.124	829.5
1268	824.5
1272.871	802.5
1277.737	807.5
1282.599	800.5
1287.455	793.5
1292.306	791.5
1297.153	796.5
1301.995	813.5
1306.832	804.5
1311.664	805.5
1316.491	811.5
1321.314	823.5
1326.132	810.5
1330.945	785.5
1335.753	789.5
1340.556	756.5
1345.354	741.5
1350.148	736.5
1354.937	708.5
1359.722	718.5
1364.501	731.5
1369.276	748.5
1374.046	752.5
1378.811	755.5
1383.572	758.5
1388.327	759.5
1393.079	746.5
1397.825	745.5
1402.567	728.5
1407.304	719.5
1412.036	715.5
1416.764	702.5
1421.487	700.5
1426.205	699.5
1430.919	701.5
1435.628	720.5
1440.333	704.5
1445.032	718.5
1449.727	720.5
1454.418	743.5
1459.104	725.5
1463.785	738.5
1468.462	715.5
1473.134	712.5
1477.802	696.5
1482.465	697.5
1487.123	685.5
1491.777	704.5
1496.426	714.5
1501.071	720.5
1505.711	709.5
1510.347	733.5
1514.978	743.5
1519.604	765.5
1524.226	776.5
1528.844	777.5
1533.457	787.5
1538.065	786.5
1542.669	799.5
1547.269	778.5
1551.864	796.5
1556.454	796.5
1561.041	784.5
1565.622	797.5
1570.199	814.5
1574.772	816.5
1579.34	844.5
1583.904	848.5
1588.464	879.5
1593.019	894.5
1597.569	910.5
1602.115	927.5
1606.657	950.5
1611.195	960.5
1615.728	954.5
1620.256	971.5
1624.78	991.5
1629.3	1011.5
1633.816	1018.5
1638.327	1029.5
1642.834	1054.5
1647.336	1042.5
1651.834	1054.5
1656.328	1065.5
1660.817	1051.5
1665.302	1015.5
1669.783	1008.5
1674.259	977.5
1678.732	952.5
1683.199	889.5
1687.663	863.5
1692.122	817.5
1696.577	788.5
1701.028	757.5
1705.474	739.5
1709.917	738.5
1714.355	706.5
1718.788	683.5
1723.218	648.5
1727.643	628.5
1732.064	618.5
1736.481	590.5
1740.893	566.5
1745.301	542.5
1749.705	536.5
1754.105	503.5
1758.501	489.5
1762.893	474.5
1767.28	475.5
1771.663	459.5
1776.042	456.5
1780.417	450.5
1784.787	454.5
1789.154	444.5
1793.516	449.5
1797.874	468.5
1802.228	466.5
1806.578	468.5
1810.924	461.5
1815.266	453.5
1819.603	452.5
1823.937	443.5
1828.266	423.5
1832.591	415.5
1836.913	407.5
1841.23	404.5
1845.543	414.5
1849.852	405.5
1854.156	396.5
1858.457	402.5
1862.754	398.5
1867.047	403.5
1871.335	405.5
1875.62	410.5
1879.9	413.5
1884.177	403.5
1888.449	404.5
1892.718	407.5
1896.982	406.5
1901.243	392.5
1905.499	392.5
1909.752	398.5
1914	397.5
1918.245	391.5
1922.485	394.5
1926.722	403.5
1930.954	413.5
1935.183	411.5
1939.408	417.5
1943.628	423.5
1947.845	428.5
1952.058	422.5
1956.267	419.5
1960.472	417.5
1964.673	422.5
1968.87	417.5
1973.063	407.5
1977.252	390.5
1981.438	408.5
1985.619	403.5
1989.797	394.5
1993.971	397.5
1998.14	404.5
2002.306	394.5
2006.469	393.5
2010.627	404.5
2014.781	409.5
2018.932	411.5
2023.078	408.5
2027.221	410.5
2031.36	406.5
2035.495	391.5
2039.627	403.5
2043.754	386.5
2047.878	391.5
2051.998	394.5
2056.114	398.5
2060.226	402.5
2064.334	395.5
2068.439	404.5
2072.54	404.5
2076.637	407.5
2080.73	409.5
2084.82	421.5
2088.906	428.5
2092.988	419.5
2097.066	419.5
2101.14	419.5
2105.211	418.5
2109.278	407.5
2113.342	408.5
2117.401	412.5
2121.457	406.5
2125.509	422.5
2129.558	402.5
2133.602	401.5
2137.643	406.5
2141.681	398.5
2145.714	390.5
2149.744	388.5
2153.77	383.5
2157.793	388.5
2161.812	392.5
2165.827	375.5
2169.838	371.5
2173.846	364.5
2177.851	363.5
2181.851	345.5
2185.848	338.5
2189.841	340.5
2193.831	329.5
2197.817	335.5
2201.799	337.5
2205.778	328.5
2209.753	332.5
2213.725	324.5
2217.693	310.5
2221.657	320.5
2225.618	315.5
2229.575	317.5
2233.529	308.5
2237.479	311.5
2241.425	305.5
2245.368	303.5
2249.307	293.5
2253.243	293.5
2257.175	297.5
2261.104	294.5
2265.029	280.5
2268.95	264.5
2272.868	263.5
2276.783	279.5
2280.694	262.5
2284.601	260.5
2288.505	252.5
2292.405	246.5
2296.302	241.5
2300.195	245.5
2304.085	239.5
2307.971	225.5
2311.854	231.5
2315.734	226.5
2319.609	221.5
2323.482	217.5
2327.351	215.5
2331.216	210.5
2335.078	212.5
2338.937	212.5
2342.792	203.5
2346.643	197.5
2350.492	198.5
2354.336	202.5
2358.178	194.5
2362.015	197.5
2365.85	199.5
2369.681	195.5
2373.508	196.5
2377.333	195.5
2381.153	200.5
2384.971	209.5
2388.785	197.5
2392.595	186.5
2396.402	201.5
2400.206	188.5
2404.007	176.5
2407.804	184.5
2411.597	180.5
2415.388	179.5
2419.174	176.5
2422.958	179.5
2426.738	180.5
2430.515	175.5
2434.289	180.5
2438.059	173.5
2441.825	165.5
2445.589	164.5
2449.349	164.5
2453.106	166.5
2456.859	168.5
2460.61	168.5
2464.356	154.5
2468.1	162.5
2471.84	154.5
2475.577	157.5
2479.311	149.5
2483.041	153.5
2486.768	152.5
2490.492	160.5
2494.213	153.5
2497.93	150.5
2501.644	152.5
2505.355	155.5
2509.062	156.5
2512.766	145.5
2516.467	154.5
2520.165	152.5
2523.859	144.5
2527.551	139.5
2531.239	146.5
2534.923	145.5
2538.605	147.5
2542.283	144.5
2545.958	138.5
2549.63	137.5
2553.299	140.5
2556.964	146.5
2560.626	134.5
2564.285	136.5
2567.941	133.5
2571.594	130.5
2575.243	131.5
2578.89	127.5
2582.533	133.5
2586.173	126.5
2589.809	132.5
2593.443	126.5
2597.073	126.5
2600.701	131.5
2604.325	124.5
2607.946	130.5
2611.564	121.5
2615.178	124.5
2618.79	126.5
2622.398	124.5
2626.004	118.5
2629.606	132.5
2633.205	119.5
2636.801	116.5
2640.394	109.5
2643.983	110.5
2647.57	108.5
2651.153	112.5
2654.734	108.5
2658.311	99.5
2661.885	101.5
2665.456	110.5
2669.025	95.5
2672.589	102.5
2676.151	98.5
2679.71	98.5
2683.266	98.5
2686.819	99.5
2690.368	100.5
2693.915	98.5
2697.458	94.5
2700.999	96.5
2704.536	93.5
2708.071	91.5
2711.602	81.5
2715.13	79.5
2718.656	84.5
2722.178	87.5
2725.697	78.5
2729.214	93.5
2732.727	96.5
2736.237	85.5
2739.744	94.5
2743.249	93.5
2746.75	95.5
2750.248	94.5
2753.743	93.5
2757.236	96.5
2760.725	96.5
2764.211	97.5
2767.695	106.5
2771.175	104.5
2774.652	102.5
2778.127	109.5
2781.598	102.5
2785.067	104.5
2788.532	98.5
2791.995	98.5
2795.455	106.5
2798.911	112.5
2802.365	112.5
2805.816	109.5
2809.264	106.5
2812.709	106.5
2816.151	108.5
2819.59	105.5
2823.026	116.5
2826.46	113.5
2829.89	113.5
2833.318	114.5
2836.742	119.5
2840.164	127.5
2843.583	125.5
2846.999	121.5
2850.412	123.5
2853.822	127.5
2857.229	131.5
2860.634	137.5
2864.035	136.5
2867.434	146.5
2870.83	149.5
2874.223	147.5
2877.613	144.5
2881	152.5
2884.385	156.5
2887.766	157.5
2891.145	167.5
2894.521	166.5
2897.894	168.5
2901.264	164.5
2904.631	169.5
2907.996	165.5
2911.358	171.5
2914.717	177.5
2918.073	178.5
2921.426	186.5
2924.777	195.5
2928.124	189.5
2931.469	194.5
2934.811	208.5
2938.15	203.5
2941.487	220.5
2944.821	219.5
2948.152	227.5
2951.48	232.5
2954.805	232.5
2958.128	248.5
2961.447	258.5
2964.765	259.5
2968.079	267.5
2971.39	276.5
2974.699	277.5
2978.005	285.5
2981.308	292.5
2984.609	309.5
2987.907	325.5
2991.202	340.5
2994.494	346.5
2997.784	348.5
3001.07	377.5
3004.355	388.5
3007.636	407.5
3010.915	403.5
3014.191	418.5
3017.464	430.5
3020.734	436.5
3024.002	444.5
3027.267	464.5
3030.53	464.5
3033.789	473.5
3037.046	479.5
3040.301	500.5
3043.552	514.5
3046.801	537.5
3050.048	540.5
3053.291	552.5
3056.532	568.5
3059.771	593.5
3063.006	603.5
3066.239	627.5
3069.469	665.5
3072.697	676.5
3075.922	690.5
3079.144	720.5
3082.364	733.5
3085.581	755.5
3088.795	781.5
3092.007	797.5
3095.216	825.5
3098.423	834.5
3101.627	861.5
3104.828	876.5
3108.026	895.5
3111.222	923.5
3114.416	948.5
3117.607	975.5
3120.795	989.5
3123.98	1008.5
3127.163	1055.5
3130.344	1064.5
3133.521	1078.5
3136.696	1129.5
3139.869	1126.5
3143.039	1167.5
3146.206	1173.5
3149.371	1206.5
3152.533	1219.5
3155.693	1223.5
3158.85	1247.5
3162.005	1248.5
3165.157	1255.5
3168.306	1258.5
3171.453	1267.5
3174.597	1269.5
3177.739	1271.5
3180.878	1276.5
3184.014	1292.5
3187.149	1294.5
3190.28	1302.5
3193.409	1312.5
3196.536	1310.5
3199.659	1311.5
3202.781	1315.5
3205.9	1324.5
3209.016	1349.5
3212.13	1341.5
3215.241	1333.5
3218.35	1323.5
3221.456	1316.5
3224.56	1330.5
3227.661	1309.5
3230.76	1286.5
3233.856	1287.5
3236.95	1266.5
3240.041	1267.5
3243.13	1248.5
3246.216	1234.5
3249.3	1238.5
3252.382	1222.5
3255.46	1224.5
3258.537	1213.5
3261.611	1200.5
3264.682	1205.5
3267.751	1196.5
3270.818	1203.5
3273.882	1190.5
3276.943	1184.5
3280.002	1162.5
3283.059	1152.5
3286.113	1141.5
3289.165	1128.5
3292.214	1137.5
3295.261	1096.5
3298.306	1088.5
3301.348	1075.5
3304.387	1053.5
3307.425	1040.5
3310.459	1031.5
3313.492	1005.5
3316.521	1002.5
3319.549	978.5
3322.574	974.5
3325.597	958.5
3328.617	954.5
3331.635	964.5
3334.65	943.5
3337.663	937.5
3340.674	932.5
3343.682	922.5
3346.688	933.5
3349.691	925.5
3352.692	918.5
3355.691	906.5
3358.687	905.5
3361.681	917.5
3364.673	895.5
3367.662	888.5
3370.649	886.5
3373.633	874.5
3376.615	843.5
3379.595	823.5
3382.572	824.5
3385.547	826.5
3388.52	804.5
3391.49	804.5
3394.458	793.5
3397.424	788.5
3400.387	770.5
3403.348	752.5
3406.307	757.5
3409.263	736.5
3412.217	726.5
3415.168	724.5
3418.118	723.5
3421.065	720.5
3424.009	706.5
3426.951	703.5
3429.891	685.5
3432.829	674.5
3435.764	668.5
3438.697	645.5
3441.628	639.5
3444.557	620.5
3447.483	614.5
3450.407	598.5
3453.328	578.5
3456.247	570.5
3459.164	552.5
3462.079	549.5
3464.991	517.5
3467.902	506.5
3470.809	494.5
3473.715	480.5
3476.618	470.5
3479.519	456.5
3482.418	445.5
3485.315	425.5
3488.209	409.5
3491.101	398.5
3493.99	397.5
3496.878	386.5
3499.763	371.5
3502.646	359.5
3505.527	351.5
3508.405	341.5
3511.281	330.5
3514.155	320.5
3517.027	309.5
3519.897	295.5
3522.764	285.5
3525.629	270.5
3528.492	253.5
3531.352	231.5
3534.211	230.5
3537.067	213.5
3539.921	209.5
3542.773	194.5
3545.622	196.5
3548.469	182.5
3551.315	169.5
3554.157	153.5
3556.998	154.5
3559.837	138.5
3562.673	131.5
3565.507	127.5
3568.339	119.5
3571.169	114.5
3573.996	111.5
3576.822	105.5
3579.645	93.5
3582.466	90.5
3585.285	85.5
3588.101	73.5
3590.916	70.5
3593.728	66.5
3596.538	57.5
3599.346	55.5
3602.152	53.5
3604.956	46.5
3607.757	38.5
3610.556	32.5
3613.354	29.5
3616.149	22.5
3618.942	18.5
3621.732	17.5
3624.521	20.5
3627.307	7.5
3630.092	5.5
3632.874	0.5
3635.654	-11.5
3638.432	-0.5
3641.208	-9.5
3643.982	-4.5
3646.753	-12.5
3649.523	-6.5
3652.29	-19.5
3655.055	-20.5
3657.818	-30.5
3660.579	-32.5
3663.338	-29.5
3666.095	-36.5
3668.849	-32.5
3671.602	-40.5
3674.352	-43.5
3677.101	-42.5
3679.847	-46.5
3682.591	-48.5
3685.333	-51.5
3688.073	-56.5
3690.811	-59.5
3693.547	-58.5
3696.281	-60.5
3699.013	-59.5
3701.742	-58.5
3704.47	-57.5
3707.195	-66.5
3709.919	-66.5
3712.64	-67.5
3715.359	-72.5
3718.076	-68.5
3720.792	-71.5
3723.505	-75.5
3726.216	-71.5
3728.925	-73.5
3731.632	-75.5
3734.336	-81.5
3737.039	-81.5
3739.74	-75.5
3742.439	-78.5
3745.136	-78.5
3747.83	-77.5
3750.523	-80.5
3753.213	-77.5
3755.902	-83.5
3758.589	-83.5
3761.273	-85.5
3763.956	-84.5
3766.636	-80.5
3769.315	-83.5
3771.991	-84.5
3774.665	-87.5
3777.338	-87.5
3780.008	-85.5
3782.677	-87.5
3785.343	-82.5
3788.007	-83.5
3790.67	-85.5
3793.33	-82.5
3795.989	-86.5
3798.645	-83.5
3801.299	-87.5
3803.952	-93.5
3806.602	-94.5
3809.251	-88.5
3811.897	-86.5
3814.542	-90.5
3817.184	-87.5
3819.825	-89.5
3822.463	-91.5
3825.1	-88.5
3827.735	-93.5
3830.367	-95.5
3832.998	-94.5
3835.627	-89.5
3838.253	-93.5
3840.878	-91.5
3843.501	-87.5
3846.122	-94.5
3848.741	-90.5
3851.358	-90.5
3853.973	-91.5
3856.586	-93.5
3859.197	-96.5
3861.806	-92.5
3864.414	-100.5
3867.019	-91.5
3869.622	-91.5
3872.224	-91.5
3874.823	-91.5
3877.421	-87.5
3880.016	-81.5
3882.61	-77.5
3885.202	-75.5
3887.792	-82.5
3890.38	-88.5
3892.966	-87.5
3895.55	-89.5
3898.132	-89.5
3900.713	-96.5
3903.291	-93.5
3905.868	-94.5
3908.442	-92.5
3911.015	-96.5
3913.586	-97.5
3916.155	-97.5
3918.722	-95.5
3921.287	-92.5
3923.85	-93.5
3926.411	-93.5
3928.971	-94.5
3931.528	-96.5
3934.084	-90.5
3936.638	-95.5
3939.19	-101.5
3941.74	-95.5
3944.288	-95.5
3946.834	-98.5
3949.378	-98.5
3951.921	-101.5
3954.462	-92.5
3957	-100.5
3959.537	-95.5
3962.072	-95.5
3964.606	-94.5
3967.137	-101.5
3969.667	-97.5
3972.194	-100.5
3974.72	-95.5
3977.244	-99.5
3979.766	-94.5
3982.286	-91.5
3984.805	-96.5
3987.321	-96.5
3989.836	-91.5
3992.349	-93.5
3994.86	-98.5
3997.369	-97.5
3999.877	-94.5
4002.382	-95.5
4004.886	-91.5
4007.388	-95.5
4009.888	-97.5
4012.386	-97.5
4014.883	-95.5
4017.377	-89.5
4019.87	-93.5
4022.361	-95.5
4024.85	-96.5
4027.338	-96.5
4029.823	-98.5
4032.307	-96.5
4034.789	-96.5
4037.269	-93.5
4039.747	-91.5
4042.224	-91.5
4044.699	-88.5
4047.172	-95.5
4049.643	-98.5
4052.112	-99.5
4054.58	-103.5
4057.046	-96.5
4059.51	-97.5
4061.972	-94.5
4064.432	-92.5
4066.891	-94.5
4069.348	-98.5
4071.803	-93.5
4074.256	-100.5
4076.708	-103.5
4079.158	-98.5
4081.606	-95.5
4084.052	-98.5
4086.497	-101.5
4088.939	-95.5
4091.38	-92.5
4093.819	-96.5
4096.257	-98.5
4098.693	-99.5
4101.127	-104.5
4103.559	-105.5
4105.989	-66.5
4108.418	-65.5
4110.845	-56.5
4113.27	-55.5
4115.694	-40.5
4118.115	-30.5
4120.535	-96.5
4122.954	-97.5
4125.37	-99.5
4127.785	-95.5
4130.198	-98.5
4132.609	-95.5
4135.019	-100.5
4137.427	-99.5
4139.833	-102.5
4142.237	-103.5
