Data from Bacilus_dil1102_A1_RamanShift_1.txt Node
Date: Wed Mar 01 12:15:22 IST 2017
User: aro
Spectrometer: QEPB0276
Trigger mode: 0
Integration Time (sec): 5.000000E0
Scans to average: 1
Electric dark correction enabled: true
Nonlinearity correction enabled: false
Boxcar width: 0
XAxis mode: Raman Shifts
Number of Pixels in Spectrum: 1044
>>>>>Begin Spectral Data<<<<<
160.701	-28.75
166.742	1.25
172.777	89.25
178.805	355.25
184.826	979.25
190.841	2036.25
196.849	3213.25
202.85	3972.25
208.845	4155.25
214.833	4037.25
220.815	3863.25
226.789	3742.25
232.758	3632.25
238.719	3536.25
244.674	3415.25
250.623	3266.25
256.565	3070.25
262.5	2961.25
268.429	2824.25
274.351	2701.25
280.267	2587.25
286.176	2500.25
292.079	2393.25
297.975	2294.25
303.865	2249.25
309.748	2186.25
315.625	2123.25
321.495	2110.25
327.359	2074.25
333.217	2037.25
339.068	2022.25
344.912	2016.25
350.751	2008.25
356.583	2005.25
362.408	2001.25
368.227	2012.25
374.04	2012.25
379.847	2043.25
385.647	2036.25
391.44	2023.25
397.228	2071.25
403.009	2057.25
408.784	2079.25
414.553	2085.25
420.315	2071.25
426.071	2083.25
431.821	2066.25
437.565	2075.25
443.302	2081.25
449.033	2060.25
454.758	2068.25
460.477	2054.25
466.189	2028.25
471.896	2011.25
477.596	2000.25
483.29	2013.25
488.978	1990.25
494.66	1989.25
500.335	1952.25
506.005	1920.25
511.668	1881.25
517.325	1855.25
522.977	1833.25
528.622	1800.25
534.261	1780.25
539.894	1740.25
545.521	1730.25
551.141	1719.25
556.756	1695.25
562.365	1698.25
567.968	1694.25
573.565	1673.25
579.155	1672.25
584.74	1653.25
590.319	1644.25
595.892	1627.25
601.459	1626.25
607.02	1613.25
612.575	1593.25
618.124	1577.25
623.667	1567.25
629.204	1551.25
634.735	1529.25
640.261	1500.25
645.781	1516.25
651.294	1491.25
656.802	1487.25
662.304	1480.25
667.8	1473.25
673.29	1463.25
678.775	1449.25
684.254	1441.25
689.726	1441.25
695.193	1442.25
700.655	1429.25
706.11	1429.25
711.56	1412.25
717.004	1405.25
722.442	1391.25
727.874	1380.25
733.301	1361.25
738.722	1368.25
744.137	1354.25
749.547	1352.25
754.951	1345.25
760.349	1336.25
765.741	1324.25
771.128	1326.25
776.509	1330.25
781.885	1329.25
787.254	1336.25
792.618	1342.25
797.977	1333.25
803.33	1318.25
808.677	1304.25
814.019	1284.25
819.355	1276.25
824.686	1253.25
830.011	1238.25
835.33	1224.25
840.644	1225.25
845.952	1223.25
851.255	1204.25
856.552	1206.25
861.844	1179.25
867.13	1174.25
872.41	1164.25
877.686	1176.25
882.955	1137.25
888.219	1134.25
893.478	1120.25
898.731	1104.25
903.979	1087.25
909.221	1072.25
914.458	1050.25
919.69	1046.25
924.916	1042.25
930.136	1025.25
935.351	1037.25
940.561	1030.25
945.766	1033.25
950.965	1024.25
956.158	1029.25
961.347	1008.25
966.529	1011.25
971.707	983.25
976.879	968.25
982.046	953.25
987.208	935.25
992.364	940.25
997.515	936.25
1002.66	942.25
1007.801	940.25
1012.936	961.25
1018.066	967.25
1023.19	966.25
1028.309	976.25
1033.423	973.25
1038.532	965.25
1043.636	979.25
1048.734	962.25
1053.827	955.25
1058.915	942.25
1063.998	926.25
1069.075	927.25
1074.147	914.25
1079.214	919.25
1084.276	923.25
1089.333	920.25
1094.385	924.25
1099.431	938.25
1104.472	932.25
1109.509	937.25
1114.54	937.25
1119.565	923.25
1124.586	912.25
1129.602	914.25
1134.613	896.25
1139.618	890.25
1144.619	893.25
1149.614	901.25
1154.604	896.25
1159.589	882.25
1164.57	886.25
1169.545	901.25
1174.515	906.25
1179.48	902.25
1184.44	909.25
1189.395	894.25
1194.345	888.25
1199.29	892.25
1204.23	883.25
1209.165	872.25
1214.095	882.25
1219.021	889.25
1223.941	894.25
1228.856	902.25
1233.766	913.25
1238.672	923.25
1243.572	909.25
1248.467	904.25
1253.358	887.25
1258.244	884.25
1263.124	868.25
1268	862.25
1272.871	858.25
1277.737	848.25
1282.599	841.25
1287.455	833.25
1292.306	827.25
1297.153	832.25
1301.995	851.25
1306.832	843.25
1311.664	845.25
1316.491	854.25
1321.314	844.25
1326.132	841.25
1330.945	830.25
1335.753	812.25
1340.556	792.25
1345.354	784.25
1350.148	773.25
1354.937	748.25
1359.722	757.25
1364.501	766.25
1369.276	778.25
1374.046	799.25
1378.811	812.25
1383.572	810.25
1388.327	821.25
1393.079	808.25
1397.825	789.25
1402.567	762.25
1407.304	764.25
1412.036	754.25
1416.764	754.25
1421.487	728.25
1426.205	745.25
1430.919	741.25
1435.628	749.25
1440.333	750.25
1445.032	755.25
1449.727	764.25
1454.418	773.25
1459.104	762.25
1463.785	762.25
1468.462	747.25
1473.134	747.25
1477.802	736.25
1482.465	720.25
1487.123	722.25
1491.777	730.25
1496.426	748.25
1501.071	738.25
1505.711	757.25
1510.347	764.25
1514.978	786.25
1519.604	795.25
1524.226	800.25
1528.844	807.25
1533.457	833.25
1538.065	812.25
1542.669	832.25
1547.269	818.25
1551.864	829.25
1556.454	846.25
1561.041	830.25
1565.622	837.25
1570.199	838.25
1574.772	851.25
1579.34	875.25
1583.904	889.25
1588.464	916.25
1593.019	918.25
1597.569	933.25
1602.115	958.25
1606.657	959.25
1611.195	980.25
1615.728	986.25
1620.256	994.25
1624.78	1000.25
1629.3	1028.25
1633.816	1038.25
1638.327	1071.25
1642.834	1059.25
1647.336	1080.25
1651.834	1067.25
1656.328	1082.25
1660.817	1069.25
1665.302	1051.25
1669.783	1040.25
1674.259	993.25
1678.732	955.25
1683.199	916.25
1687.663	869.25
1692.122	829.25
1696.577	802.25
1701.028	797.25
1705.474	777.25
1709.917	759.25
1714.355	734.25
1718.788	711.25
1723.218	691.25
1727.643	675.25
1732.064	656.25
1736.481	642.25
1740.893	599.25
1745.301	590.25
1749.705	579.25
1754.105	552.25
1758.501	522.25
1762.893	509.25
1767.28	509.25
1771.663	503.25
1776.042	494.25
1780.417	482.25
1784.787	488.25
1789.154	487.25
1793.516	497.25
1797.874	503.25
1802.228	499.25
1806.578	502.25
1810.924	501.25
1815.266	488.25
1819.603	486.25
1823.937	484.25
1828.266	464.25
1832.591	461.25
1836.913	454.25
1841.23	451.25
1845.543	437.25
1849.852	440.25
1854.156	443.25
1858.457	443.25
1862.754	444.25
1867.047	440.25
1871.335	447.25
1875.62	439.25
1879.9	456.25
1884.177	432.25
1888.449	444.25
1892.718	438.25
1896.982	448.25
1901.243	430.25
1905.499	426.25
1909.752	439.25
1914	442.25
1918.245	432.25
1922.485	435.25
1926.722	441.25
1930.954	446.25
1935.183	444.25
1939.408	453.25
1943.628	464.25
1947.845	467.25
1952.058	463.25
1956.267	462.25
1960.472	457.25
1964.673	458.25
1968.87	449.25
1973.063	442.25
1977.252	443.25
1981.438	444.25
1985.619	428.25
1989.797	443.25
1993.971	436.25
1998.14	430.25
2002.306	435.25
2006.469	435.25
2010.627	439.25
2014.781	438.25
2018.932	432.25
2023.078	427.25
2027.221	434.25
2031.36	429.25
2035.495	424.25
2039.627	440.25
2043.754	441.25
2047.878	432.25
2051.998	428.25
2056.114	435.25
2060.226	423.25
2064.334	436.25
2068.439	435.25
2072.54	435.25
2076.637	441.25
2080.73	438.25
2084.82	452.25
2088.906	447.25
2092.988	458.25
2097.066	450.25
2101.14	451.25
2105.211	448.25
2109.278	436.25
2113.342	439.25
2117.401	438.25
2121.457	435.25
2125.509	435.25
2129.558	429.25
2133.602	429.25
2137.643	430.25
2141.681	426.25
2145.714	407.25
2149.744	416.25
2153.77	405.25
2157.793	408.25
2161.812	411.25
2165.827	393.25
2169.838	394.25
2173.846	388.25
2177.851	386.25
2181.851	378.25
2185.848	365.25
2189.841	362.25
2193.831	355.25
2197.817	353.25
2201.799	351.25
2205.778	354.25
2209.753	350.25
2213.725	345.25
2217.693	343.25
2221.657	344.25
2225.618	340.25
2229.575	331.25
2233.529	343.25
2237.479	330.25
2241.425	325.25
2245.368	334.25
2249.307	327.25
2253.243	321.25
2257.175	315.25
2261.104	302.25
2265.029	294.25
2268.95	293.25
2272.868	295.25
2276.783	297.25
2280.694	284.25
2284.601	281.25
2288.505	270.25
2292.405	267.25
2296.302	261.25
2300.195	271.25
2304.085	260.25
2307.971	253.25
2311.854	251.25
2315.734	253.25
2319.609	245.25
2323.482	238.25
2327.351	230.25
2331.216	242.25
2335.078	241.25
2338.937	236.25
2342.792	222.25
2346.643	220.25
2350.492	225.25
2354.336	223.25
2358.178	219.25
2362.015	213.25
2365.85	218.25
2369.681	218.25
2373.508	221.25
2377.333	213.25
2381.153	216.25
2384.971	225.25
2388.785	223.25
2392.595	210.25
2396.402	214.25
2400.206	209.25
2404.007	207.25
2407.804	205.25
2411.597	198.25
2415.388	191.25
2419.174	198.25
2422.958	194.25
2426.738	196.25
2430.515	192.25
2434.289	189.25
2438.059	188.25
2441.825	189.25
2445.589	191.25
2449.349	188.25
2453.106	182.25
2456.859	187.25
2460.61	181.25
2464.356	177.25
2468.1	174.25
2471.84	182.25
2475.577	167.25
2479.311	175.25
2483.041	175.25
2486.768	182.25
2490.492	183.25
2494.213	165.25
2497.93	180.25
2501.644	159.25
2505.355	172.25
2509.062	175.25
2512.766	168.25
2516.467	168.25
2520.165	164.25
2523.859	170.25
2527.551	163.25
2531.239	168.25
2534.923	163.25
2538.605	164.25
2542.283	158.25
2545.958	153.25
2549.63	156.25
2553.299	158.25
2556.964	154.25
2560.626	163.25
2564.285	155.25
2567.941	156.25
2571.594	156.25
2575.243	147.25
2578.89	143.25
2582.533	149.25
2586.173	141.25
2589.809	145.25
2593.443	140.25
2597.073	146.25
2600.701	143.25
2604.325	143.25
2607.946	136.25
2611.564	138.25
2615.178	138.25
2618.79	144.25
2622.398	141.25
2626.004	136.25
2629.606	131.25
2633.205	130.25
2636.801	137.25
2640.394	128.25
2643.983	130.25
2647.57	132.25
2651.153	131.25
2654.734	127.25
2658.311	122.25
2661.885	116.25
2665.456	117.25
2669.025	114.25
2672.589	120.25
2676.151	116.25
2679.71	113.25
2683.266	111.25
2686.819	114.25
2690.368	110.25
2693.915	114.25
2697.458	111.25
2700.999	105.25
2704.536	103.25
2708.071	106.25
2711.602	100.25
2715.13	89.25
2718.656	100.25
2722.178	97.25
2725.697	96.25
2729.214	104.25
2732.727	99.25
2736.237	104.25
2739.744	108.25
2743.249	106.25
2746.75	103.25
2750.248	111.25
2753.743	109.25
2757.236	113.25
2760.725	111.25
2764.211	116.25
2767.695	108.25
2771.175	112.25
2774.652	114.25
2778.127	110.25
2781.598	111.25
2785.067	113.25
2788.532	114.25
2791.995	105.25
2795.455	115.25
2798.911	115.25
2802.365	114.25
2805.816	123.25
2809.264	118.25
2812.709	117.25
2816.151	120.25
2819.59	115.25
2823.026	121.25
2826.46	127.25
2829.89	123.25
2833.318	126.25
2836.742	125.25
2840.164	118.25
2843.583	121.25
2846.999	128.25
2850.412	133.25
2853.822	134.25
2857.229	132.25
2860.634	143.25
2864.035	148.25
2867.434	151.25
2870.83	153.25
2874.223	146.25
2877.613	155.25
2881	148.25
2884.385	161.25
2887.766	161.25
2891.145	165.25
2894.521	172.25
2897.894	167.25
2901.264	167.25
2904.631	167.25
2907.996	169.25
2911.358	173.25
2914.717	184.25
2918.073	176.25
2921.426	187.25
2924.777	178.25
2928.124	194.25
2931.469	198.25
2934.811	206.25
2938.15	208.25
2941.487	213.25
2944.821	217.25
2948.152	218.25
2951.48	227.25
2954.805	227.25
2958.128	233.25
2961.447	242.25
2964.765	252.25
2968.079	268.25
2971.39	256.25
2974.699	268.25
2978.005	282.25
2981.308	286.25
2984.609	302.25
2987.907	308.25
2991.202	316.25
2994.494	327.25
2997.784	342.25
3001.07	350.25
3004.355	362.25
3007.636	381.25
3010.915	393.25
3014.191	398.25
3017.464	413.25
3020.734	421.25
3024.002	414.25
3027.267	432.25
3030.53	436.25
3033.789	435.25
3037.046	458.25
3040.301	465.25
3043.552	479.25
3046.801	508.25
3050.048	508.25
3053.291	520.25
3056.532	549.25
3059.771	557.25
3063.006	573.25
3066.239	600.25
3069.469	619.25
3072.697	643.25
3075.922	658.25
3079.144	682.25
3082.364	696.25
3085.581	719.25
3088.795	740.25
3092.007	743.25
3095.216	770.25
3098.423	790.25
3101.627	814.25
3104.828	822.25
3108.026	830.25
3111.222	853.25
3114.416	888.25
3117.607	905.25
3120.795	939.25
3123.98	948.25
3127.163	971.25
3130.344	994.25
3133.521	1020.25
3136.696	1032.25
3139.869	1061.25
3143.039	1082.25
3146.206	1106.25
3149.371	1127.25
3152.533	1140.25
3155.693	1137.25
3158.85	1143.25
3162.005	1160.25
3165.157	1173.25
3168.306	1173.25
3171.453	1187.25
3174.597	1202.25
3177.739	1194.25
3180.878	1195.25
3184.014	1202.25
3187.149	1211.25
3190.28	1207.25
3193.409	1212.25
3196.536	1219.25
3199.659	1218.25
3202.781	1233.25
3205.9	1244.25
3209.016	1251.25
3212.13	1239.25
3215.241	1241.25
3218.35	1230.25
3221.456	1224.25
3224.56	1216.25
3227.661	1207.25
3230.76	1201.25
3233.856	1207.25
3236.95	1196.25
3240.041	1181.25
3243.13	1168.25
3246.216	1158.25
3249.3	1147.25
3252.382	1138.25
3255.46	1134.25
3258.537	1135.25
3261.611	1124.25
3264.682	1129.25
3267.751	1130.25
3270.818	1114.25
3273.882	1106.25
3276.943	1113.25
3280.002	1095.25
3283.059	1074.25
3286.113	1083.25
3289.165	1068.25
3292.214	1053.25
3295.261	1021.25
3298.306	1022.25
3301.348	998.25
3304.387	1002.25
3307.425	970.25
3310.459	946.25
3313.492	929.25
3316.521	936.25
3319.549	918.25
3322.574	916.25
3325.597	917.25
3328.617	882.25
3331.635	886.25
3334.65	883.25
3337.663	878.25
3340.674	879.25
3343.682	866.25
3346.688	888.25
3349.691	871.25
3352.692	860.25
3355.691	852.25
3358.687	857.25
3361.681	853.25
3364.673	834.25
3367.662	838.25
3370.649	823.25
3373.633	803.25
3376.615	795.25
3379.595	788.25
3382.572	769.25
3385.547	765.25
3388.52	754.25
3391.49	744.25
3394.458	738.25
3397.424	730.25
3400.387	723.25
3403.348	710.25
3406.307	720.25
3409.263	702.25
3412.217	685.25
3415.168	679.25
3418.118	674.25
3421.065	666.25
3424.009	655.25
3426.951	647.25
3429.891	635.25
3432.829	633.25
3435.764	626.25
3438.697	614.25
3441.628	598.25
3444.557	595.25
3447.483	561.25
3450.407	556.25
3453.328	532.25
3456.247	524.25
3459.164	509.25
3462.079	507.25
3464.991	490.25
3467.902	469.25
3470.809	452.25
3473.715	449.25
3476.618	439.25
3479.519	409.25
3482.418	412.25
3485.315	396.25
3488.209	392.25
3491.101	384.25
3493.99	373.25
3496.878	353.25
3499.763	344.25
3502.646	333.25
3505.527	321.25
3508.405	314.25
3511.281	307.25
3514.155	298.25
3517.027	284.25
3519.897	276.25
3522.764	262.25
3525.629	244.25
3528.492	247.25
3531.352	222.25
3534.211	212.25
3537.067	207.25
3539.921	192.25
3542.773	181.25
3545.622	181.25
3548.469	172.25
3551.315	162.25
3554.157	142.25
3556.998	139.25
3559.837	133.25
3562.673	121.25
3565.507	118.25
3568.339	109.25
3571.169	105.25
3573.996	103.25
3576.822	94.25
3579.645	84.25
3582.466	82.25
3585.285	70.25
3588.101	66.25
3590.916	61.25
3593.728	61.25
3596.538	54.25
3599.346	47.25
3602.152	39.25
3604.956	40.25
3607.757	32.25
3610.556	27.25
3613.354	22.25
3616.149	14.25
3618.942	12.25
3621.732	9.25
3624.521	12.25
3627.307	0.25
3630.092	5.25
3632.874	-4.75
3635.654	-9.75
3638.432	-4.75
3641.208	-11.75
3643.982	-12.75
3646.753	-14.75
3649.523	-17.75
3652.29	-21.75
3655.055	-21.75
3657.818	-24.75
3660.579	-30.75
3663.338	-34.75
3666.095	-33.75
3668.849	-36.75
3671.602	-44.75
3674.352	-43.75
3677.101	-50.75
3679.847	-56.75
3682.591	-50.75
3685.333	-55.75
3688.073	-56.75
3690.811	-54.75
3693.547	-55.75
3696.281	-60.75
3699.013	-57.75
3701.742	-59.75
3704.47	-65.75
3707.195	-69.75
3709.919	-69.75
3712.64	-66.75
3715.359	-72.75
3718.076	-68.75
3720.792	-68.75
3723.505	-74.75
3726.216	-67.75
3728.925	-77.75
3731.632	-80.75
3734.336	-82.75
3737.039	-84.75
3739.74	-73.75
3742.439	-78.75
3745.136	-79.75
3747.83	-76.75
3750.523	-83.75
3753.213	-77.75
3755.902	-82.75
3758.589	-87.75
3761.273	-83.75
3763.956	-89.75
3766.636	-80.75
3769.315	-83.75
3771.991	-81.75
3774.665	-83.75
3777.338	-84.75
3780.008	-86.75
3782.677	-90.75
3785.343	-88.75
3788.007	-89.75
3790.67	-85.75
3793.33	-87.75
3795.989	-88.75
3798.645	-86.75
3801.299	-87.75
3803.952	-87.75
3806.602	-94.75
3809.251	-90.75
3811.897	-91.75
3814.542	-94.75
3817.184	-88.75
3819.825	-91.75
3822.463	-87.75
3825.1	-86.75
3827.735	-88.75
3830.367	-94.75
3832.998	-93.75
3835.627	-91.75
3838.253	-93.75
3840.878	-92.75
3843.501	-90.75
3846.122	-92.75
3848.741	-92.75
3851.358	-90.75
3853.973	-93.75
3856.586	-95.75
3859.197	-91.75
3861.806	-91.75
3864.414	-95.75
3867.019	-88.75
3869.622	-92.75
3872.224	-90.75
3874.823	-89.75
3877.421	-95.75
3880.016	-87.75
3882.61	-80.75
3885.202	-80.75
3887.792	-82.75
3890.38	-86.75
3892.966	-88.75
3895.55	-91.75
3898.132	-89.75
3900.713	-93.75
3903.291	-98.75
3905.868	-99.75
3908.442	-97.75
3911.015	-94.75
3913.586	-97.75
3916.155	-92.75
3918.722	-95.75
3921.287	-89.75
3923.85	-90.75
3926.411	-97.75
3928.971	-96.75
3931.528	-99.75
3934.084	-96.75
3936.638	-97.75
3939.19	-94.75
3941.74	-90.75
3944.288	-98.75
3946.834	-95.75
3949.378	-99.75
3951.921	-96.75
3954.462	-96.75
3957	-99.75
3959.537	-97.75
3962.072	-101.75
3964.606	-97.75
3967.137	-98.75
3969.667	-94.75
3972.194	-93.75
3974.72	-93.75
3977.244	-97.75
3979.766	-98.75
3982.286	-93.75
3984.805	-94.75
3987.321	-97.75
3989.836	-93.75
3992.349	-92.75
3994.86	-94.75
3997.369	-94.75
3999.877	-92.75
4002.382	-94.75
4004.886	-97.75
4007.388	-97.75
4009.888	-99.75
4012.386	-94.75
4014.883	-94.75
4017.377	-88.75
4019.87	-91.75
4022.361	-94.75
4024.85	-92.75
4027.338	-94.75
4029.823	-95.75
4032.307	-98.75
4034.789	-97.75
4037.269	-93.75
4039.747	-94.75
4042.224	-93.75
4044.699	-88.75
4047.172	-94.75
4049.643	-96.75
4052.112	-97.75
4054.58	-97.75
4057.046	-98.75
4059.51	-98.75
4061.972	-96.75
4064.432	-97.75
4066.891	-96.75
4069.348	-100.75
4071.803	-94.75
4074.256	-96.75
4076.708	-98.75
4079.158	-93.75
4081.606	-95.75
4084.052	-96.75
4086.497	-98.75
4088.939	-97.75
4091.38	-94.75
4093.819	-96.75
4096.257	-102.75
4098.693	-97.75
4101.127	-101.75
4103.559	-103.75
4105.989	-61.75
4108.418	-63.75
4110.845	-56.75
4113.27	-53.75
4115.694	-40.75
4118.115	-37.75
4120.535	-95.75
4122.954	-99.75
4125.37	-94.75
4127.785	-92.75
4130.198	-90.75
4132.609	-95.75
4135.019	-101.75
4137.427	-101.75
4139.833	-105.75
4142.237	-107.75
