Data from Bacilus_dil1104_B2_RamanShift_1.txt Node
Date: Wed Mar 01 12:40:12 IST 2017
User: aro
Spectrometer: QEPB0276
Trigger mode: 0
Integration Time (sec): 5.000000E0
Scans to average: 1
Electric dark correction enabled: true
Nonlinearity correction enabled: false
Boxcar width: 0
XAxis mode: Raman Shifts
Number of Pixels in Spectrum: 1044
>>>>>Begin Spectral Data<<<<<
160.701	-27.62
166.742	1.38
172.777	87.38
178.805	370.38
184.826	1044.38
190.841	2181.38
196.849	3460.38
202.85	4249.38
208.845	4450.38
214.833	4314.38
220.815	4137.38
226.789	4032.38
232.758	3885.38
238.719	3767.38
244.674	3600.38
250.623	3447.38
256.565	3280.38
262.5	3108.38
268.429	2982.38
274.351	2823.38
280.267	2721.38
286.176	2607.38
292.079	2505.38
297.975	2413.38
303.865	2332.38
309.748	2270.38
315.625	2221.38
321.495	2153.38
327.359	2133.38
333.217	2105.38
339.068	2097.38
344.912	2091.38
350.751	2080.38
356.583	2058.38
362.408	2053.38
368.227	2071.38
374.04	2085.38
379.847	2089.38
385.647	2093.38
391.44	2101.38
397.228	2120.38
403.009	2146.38
408.784	2125.38
414.553	2137.38
420.315	2154.38
426.071	2157.38
431.821	2141.38
437.565	2138.38
443.302	2139.38
449.033	2120.38
454.758	2118.38
460.477	2112.38
466.189	2077.38
471.896	2068.38
477.596	2075.38
483.29	2073.38
488.978	2062.38
494.66	2060.38
500.335	2012.38
506.005	1973.38
511.668	1938.38
517.325	1887.38
522.977	1863.38
528.622	1843.38
534.261	1825.38
539.894	1780.38
545.521	1779.38
551.141	1759.38
556.756	1733.38
562.365	1742.38
567.968	1695.38
573.565	1698.38
579.155	1677.38
584.74	1662.38
590.319	1671.38
595.892	1660.38
601.459	1622.38
607.02	1617.38
612.575	1594.38
618.124	1593.38
623.667	1581.38
629.204	1554.38
634.735	1543.38
640.261	1536.38
645.781	1498.38
651.294	1507.38
656.802	1506.38
662.304	1486.38
667.8	1480.38
673.29	1472.38
678.775	1459.38
684.254	1453.38
689.726	1458.38
695.193	1445.38
700.655	1425.38
706.11	1411.38
711.56	1408.38
717.004	1411.38
722.442	1397.38
727.874	1393.38
733.301	1376.38
738.722	1363.38
744.137	1356.38
749.547	1337.38
754.951	1339.38
760.349	1321.38
765.741	1329.38
771.128	1327.38
776.509	1331.38
781.885	1327.38
787.254	1334.38
792.618	1319.38
797.977	1319.38
803.33	1303.38
808.677	1283.38
814.019	1267.38
819.355	1248.38
824.686	1236.38
830.011	1209.38
835.33	1213.38
840.644	1215.38
845.952	1200.38
851.255	1185.38
856.552	1187.38
861.844	1162.38
867.13	1156.38
872.41	1146.38
877.686	1136.38
882.955	1114.38
888.219	1110.38
893.478	1097.38
898.731	1080.38
903.979	1054.38
909.221	1035.38
914.458	1018.38
919.69	1005.38
924.916	1010.38
930.136	999.38
935.351	994.38
940.561	993.38
945.766	990.38
950.965	975.38
956.158	967.38
961.347	963.38
966.529	946.38
971.707	934.38
976.879	924.38
982.046	916.38
987.208	897.38
992.364	890.38
997.515	896.38
1002.66	908.38
1007.801	913.38
1012.936	900.38
1018.066	901.38
1023.19	921.38
1028.309	929.38
1033.423	929.38
1038.532	921.38
1043.636	933.38
1048.734	912.38
1053.827	908.38
1058.915	893.38
1063.998	884.38
1069.075	865.38
1074.147	868.38
1079.214	886.38
1084.276	880.38
1089.333	868.38
1094.385	892.38
1099.431	888.38
1104.472	912.38
1109.509	893.38
1114.54	887.38
1119.565	890.38
1124.586	871.38
1129.602	863.38
1134.613	835.38
1139.618	847.38
1144.619	827.38
1149.614	847.38
1154.604	851.38
1159.589	840.38
1164.57	837.38
1169.545	850.38
1174.515	863.38
1179.48	849.38
1184.44	843.38
1189.395	847.38
1194.345	835.38
1199.29	845.38
1204.23	842.38
1209.165	843.38
1214.095	836.38
1219.021	836.38
1223.941	847.38
1228.856	853.38
1233.766	860.38
1238.672	854.38
1243.572	853.38
1248.467	852.38
1253.358	855.38
1258.244	833.38
1263.124	834.38
1268	805.38
1272.871	805.38
1277.737	794.38
1282.599	792.38
1287.455	791.38
1292.306	789.38
1297.153	794.38
1301.995	786.38
1306.832	790.38
1311.664	806.38
1316.491	795.38
1321.314	797.38
1326.132	791.38
1330.945	775.38
1335.753	761.38
1340.556	751.38
1345.354	735.38
1350.148	717.38
1354.937	717.38
1359.722	703.38
1364.501	731.38
1369.276	733.38
1374.046	740.38
1378.811	749.38
1383.572	749.38
1388.327	759.38
1393.079	749.38
1397.825	731.38
1402.567	711.38
1407.304	714.38
1412.036	699.38
1416.764	696.38
1421.487	696.38
1426.205	691.38
1430.919	690.38
1435.628	694.38
1440.333	719.38
1445.032	710.38
1449.727	710.38
1454.418	715.38
1459.104	716.38
1463.785	710.38
1468.462	714.38
1473.134	693.38
1477.802	690.38
1482.465	695.38
1487.123	688.38
1491.777	687.38
1496.426	707.38
1501.071	698.38
1505.711	721.38
1510.347	718.38
1514.978	732.38
1519.604	746.38
1524.226	774.38
1528.844	769.38
1533.457	775.38
1538.065	776.38
1542.669	776.38
1547.269	783.38
1551.864	786.38
1556.454	795.38
1561.041	788.38
1565.622	794.38
1570.199	798.38
1574.772	811.38
1579.34	839.38
1583.904	851.38
1588.464	880.38
1593.019	897.38
1597.569	903.38
1602.115	925.38
1606.657	942.38
1611.195	963.38
1615.728	961.38
1620.256	983.38
1624.78	985.38
1629.3	1001.38
1633.816	1023.38
1638.327	1055.38
1642.834	1051.38
1647.336	1062.38
1651.834	1069.38
1656.328	1073.38
1660.817	1040.38
1665.302	1023.38
1669.783	1026.38
1674.259	956.38
1678.732	954.38
1683.199	902.38
1687.663	853.38
1692.122	820.38
1696.577	780.38
1701.028	761.38
1705.474	742.38
1709.917	731.38
1714.355	695.38
1718.788	674.38
1723.218	659.38
1727.643	628.38
1732.064	623.38
1736.481	585.38
1740.893	564.38
1745.301	547.38
1749.705	521.38
1754.105	494.38
1758.501	478.38
1762.893	455.38
1767.28	451.38
1771.663	462.38
1776.042	430.38
1780.417	445.38
1784.787	433.38
1789.154	437.38
1793.516	439.38
1797.874	441.38
1802.228	452.38
1806.578	444.38
1810.924	443.38
1815.266	442.38
1819.603	427.38
1823.937	417.38
1828.266	417.38
1832.591	413.38
1836.913	398.38
1841.23	396.38
1845.543	386.38
1849.852	390.38
1854.156	390.38
1858.457	387.38
1862.754	397.38
1867.047	388.38
1871.335	381.38
1875.62	393.38
1879.9	391.38
1884.177	388.38
1888.449	391.38
1892.718	395.38
1896.982	379.38
1901.243	391.38
1905.499	389.38
1909.752	385.38
1914	388.38
1918.245	388.38
1922.485	402.38
1926.722	389.38
1930.954	391.38
1935.183	412.38
1939.408	405.38
1943.628	419.38
1947.845	415.38
1952.058	416.38
1956.267	406.38
1960.472	413.38
1964.673	409.38
1968.87	397.38
1973.063	398.38
1977.252	397.38
1981.438	396.38
1985.619	393.38
1989.797	394.38
1993.971	387.38
1998.14	391.38
2002.306	391.38
2006.469	384.38
2010.627	392.38
2014.781	395.38
2018.932	396.38
2023.078	391.38
2027.221	392.38
2031.36	384.38
2035.495	382.38
2039.627	386.38
2043.754	389.38
2047.878	385.38
2051.998	377.38
2056.114	395.38
2060.226	387.38
2064.334	386.38
2068.439	401.38
2072.54	393.38
2076.637	395.38
2080.73	402.38
2084.82	402.38
2088.906	409.38
2092.988	414.38
2097.066	409.38
2101.14	405.38
2105.211	410.38
2109.278	399.38
2113.342	403.38
2117.401	397.38
2121.457	399.38
2125.509	396.38
2129.558	390.38
2133.602	399.38
2137.643	395.38
2141.681	396.38
2145.714	378.38
2149.744	375.38
2153.77	373.38
2157.793	374.38
2161.812	368.38
2165.827	365.38
2169.838	359.38
2173.846	350.38
2177.851	347.38
2181.851	348.38
2185.848	327.38
2189.841	332.38
2193.831	322.38
2197.817	320.38
2201.799	316.38
2205.778	320.38
2209.753	309.38
2213.725	310.38
2217.693	306.38
2221.657	308.38
2225.618	302.38
2229.575	311.38
2233.529	300.38
2237.479	305.38
2241.425	288.38
2245.368	286.38
2249.307	283.38
2253.243	281.38
2257.175	288.38
2261.104	276.38
2265.029	261.38
2268.95	256.38
2272.868	267.38
2276.783	255.38
2280.694	249.38
2284.601	244.38
2288.505	246.38
2292.405	231.38
2296.302	234.38
2300.195	237.38
2304.085	214.38
2307.971	227.38
2311.854	227.38
2315.734	223.38
2319.609	222.38
2323.482	211.38
2327.351	195.38
2331.216	205.38
2335.078	191.38
2338.937	200.38
2342.792	192.38
2346.643	189.38
2350.492	189.38
2354.336	188.38
2358.178	185.38
2362.015	184.38
2365.85	181.38
2369.681	186.38
2373.508	185.38
2377.333	183.38
2381.153	187.38
2384.971	185.38
2388.785	187.38
2392.595	177.38
2396.402	185.38
2400.206	179.38
2404.007	173.38
2407.804	168.38
2411.597	159.38
2415.388	165.38
2419.174	161.38
2422.958	167.38
2426.738	164.38
2430.515	155.38
2434.289	165.38
2438.059	156.38
2441.825	154.38
2445.589	156.38
2449.349	152.38
2453.106	160.38
2456.859	151.38
2460.61	149.38
2464.356	141.38
2468.1	147.38
2471.84	144.38
2475.577	143.38
2479.311	138.38
2483.041	132.38
2486.768	136.38
2490.492	146.38
2494.213	140.38
2497.93	139.38
2501.644	138.38
2505.355	142.38
2509.062	136.38
2512.766	138.38
2516.467	146.38
2520.165	132.38
2523.859	139.38
2527.551	131.38
2531.239	139.38
2534.923	140.38
2538.605	131.38
2542.283	131.38
2545.958	127.38
2549.63	129.38
2553.299	127.38
2556.964	122.38
2560.626	137.38
2564.285	122.38
2567.941	128.38
2571.594	121.38
2575.243	117.38
2578.89	120.38
2582.533	123.38
2586.173	115.38
2589.809	117.38
2593.443	115.38
2597.073	119.38
2600.701	112.38
2604.325	112.38
2607.946	106.38
2611.564	111.38
2615.178	113.38
2618.79	110.38
2622.398	110.38
2626.004	114.38
2629.606	105.38
2633.205	106.38
2636.801	103.38
2640.394	106.38
2643.983	106.38
2647.57	103.38
2651.153	107.38
2654.734	97.38
2658.311	100.38
2661.885	88.38
2665.456	91.38
2669.025	86.38
2672.589	95.38
2676.151	85.38
2679.71	88.38
2683.266	80.38
2686.819	85.38
2690.368	84.38
2693.915	82.38
2697.458	87.38
2700.999	87.38
2704.536	82.38
2708.071	79.38
2711.602	80.38
2715.13	74.38
2718.656	77.38
2722.178	73.38
2725.697	78.38
2729.214	81.38
2732.727	73.38
2736.237	77.38
2739.744	76.38
2743.249	85.38
2746.75	85.38
2750.248	86.38
2753.743	85.38
2757.236	91.38
2760.725	91.38
2764.211	88.38
2767.695	91.38
2771.175	95.38
2774.652	93.38
2778.127	95.38
2781.598	88.38
2785.067	89.38
2788.532	92.38
2791.995	91.38
2795.455	92.38
2798.911	92.38
2802.365	103.38
2805.816	104.38
2809.264	100.38
2812.709	98.38
2816.151	106.38
2819.59	98.38
2823.026	105.38
2826.46	107.38
2829.89	108.38
2833.318	115.38
2836.742	118.38
2840.164	110.38
2843.583	109.38
2846.999	111.38
2850.412	113.38
2853.822	130.38
2857.229	120.38
2860.634	134.38
2864.035	131.38
2867.434	138.38
2870.83	143.38
2874.223	137.38
2877.613	136.38
2881	152.38
2884.385	150.38
2887.766	154.38
2891.145	155.38
2894.521	158.38
2897.894	162.38
2901.264	164.38
2904.631	161.38
2907.996	166.38
2911.358	169.38
2914.717	173.38
2918.073	179.38
2921.426	184.38
2924.777	181.38
2928.124	192.38
2931.469	197.38
2934.811	199.38
2938.15	200.38
2941.487	218.38
2944.821	214.38
2948.152	228.38
2951.48	230.38
2954.805	231.38
2958.128	249.38
2961.447	254.38
2964.765	255.38
2968.079	270.38
2971.39	272.38
2974.699	278.38
2978.005	287.38
2981.308	296.38
2984.609	317.38
2987.907	319.38
2991.202	344.38
2994.494	353.38
2997.784	354.38
3001.07	380.38
3004.355	392.38
3007.636	397.38
3010.915	413.38
3014.191	423.38
3017.464	430.38
3020.734	449.38
3024.002	452.38
3027.267	470.38
3030.53	478.38
3033.789	482.38
3037.046	493.38
3040.301	518.38
3043.552	522.38
3046.801	542.38
3050.048	549.38
3053.291	562.38
3056.532	585.38
3059.771	606.38
3063.006	623.38
3066.239	655.38
3069.469	679.38
3072.697	693.38
3075.922	718.38
3079.144	749.38
3082.364	761.38
3085.581	781.38
3088.795	801.38
3092.007	826.38
3095.216	849.38
3098.423	855.38
3101.627	890.38
3104.828	927.38
3108.026	925.38
3111.222	946.38
3114.416	977.38
3117.607	996.38
3120.795	1026.38
3123.98	1048.38
3127.163	1079.38
3130.344	1100.38
3133.521	1114.38
3136.696	1153.38
3139.869	1159.38
3143.039	1209.38
3146.206	1232.38
3149.371	1233.38
3152.533	1254.38
3155.693	1268.38
3158.85	1285.38
3162.005	1298.38
3165.157	1296.38
3168.306	1320.38
3171.453	1326.38
3174.597	1329.38
3177.739	1315.38
3180.878	1329.38
3184.014	1328.38
3187.149	1336.38
3190.28	1339.38
3193.409	1349.38
3196.536	1336.38
3199.659	1350.38
3202.781	1358.38
3205.9	1374.38
3209.016	1376.38
3212.13	1372.38
3215.241	1376.38
3218.35	1367.38
3221.456	1341.38
3224.56	1355.38
3227.661	1341.38
3230.76	1320.38
3233.856	1313.38
3236.95	1333.38
3240.041	1306.38
3243.13	1288.38
3246.216	1273.38
3249.3	1258.38
3252.382	1264.38
3255.46	1254.38
3258.537	1238.38
3261.611	1238.38
3264.682	1229.38
3267.751	1236.38
3270.818	1238.38
3273.882	1221.38
3276.943	1206.38
3280.002	1203.38
3283.059	1203.38
3286.113	1166.38
3289.165	1166.38
3292.214	1135.38
3295.261	1139.38
3298.306	1114.38
3301.348	1095.38
3304.387	1091.38
3307.425	1065.38
3310.459	1068.38
3313.492	1042.38
3316.521	1037.38
3319.549	1018.38
3322.574	1000.38
3325.597	1002.38
3328.617	979.38
3331.635	984.38
3334.65	970.38
3337.663	969.38
3340.674	967.38
3343.682	952.38
3346.688	946.38
3349.691	949.38
3352.692	956.38
3355.691	957.38
3358.687	943.38
3361.681	928.38
3364.673	914.38
3367.662	913.38
3370.649	906.38
3373.633	894.38
3376.615	877.38
3379.595	868.38
3382.572	853.38
3385.547	844.38
3388.52	822.38
3391.49	833.38
3394.458	805.38
3397.424	807.38
3400.387	790.38
3403.348	772.38
3406.307	776.38
3409.263	775.38
3412.217	756.38
3415.168	756.38
3418.118	748.38
3421.065	738.38
3424.009	717.38
3426.951	716.38
3429.891	691.38
3432.829	703.38
3435.764	690.38
3438.697	682.38
3441.628	665.38
3444.557	655.38
3447.483	625.38
3450.407	609.38
3453.328	599.38
3456.247	579.38
3459.164	571.38
3462.079	549.38
3464.991	533.38
3467.902	512.38
3470.809	495.38
3473.715	495.38
3476.618	480.38
3479.519	464.38
3482.418	450.38
3485.315	438.38
3488.209	421.38
3491.101	419.38
3493.99	399.38
3496.878	393.38
3499.763	384.38
3502.646	370.38
3505.527	366.38
3508.405	346.38
3511.281	326.38
3514.155	328.38
3517.027	310.38
3519.897	301.38
3522.764	284.38
3525.629	272.38
3528.492	254.38
3531.352	242.38
3534.211	240.38
3537.067	223.38
3539.921	208.38
3542.773	201.38
3545.622	195.38
3548.469	183.38
3551.315	166.38
3554.157	159.38
3556.998	151.38
3559.837	134.38
3562.673	131.38
3565.507	133.38
3568.339	117.38
3571.169	125.38
3573.996	111.38
3576.822	99.38
3579.645	94.38
3582.466	79.38
3585.285	84.38
3588.101	71.38
3590.916	69.38
3593.728	65.38
3596.538	55.38
3599.346	57.38
3602.152	50.38
3604.956	43.38
3607.757	36.38
3610.556	31.38
3613.354	23.38
3616.149	19.38
3618.942	19.38
3621.732	10.38
3624.521	15.38
3627.307	6.38
3630.092	3.38
3632.874	-2.62
3635.654	-6.62
3638.432	-6.62
3641.208	-9.62
3643.982	-13.62
3646.753	-16.62
3649.523	-22.62
3652.29	-19.62
3655.055	-28.62
3657.818	-25.62
3660.579	-29.62
3663.338	-29.62
3666.095	-31.62
3668.849	-39.62
3671.602	-46.62
3674.352	-47.62
3677.101	-49.62
3679.847	-54.62
3682.591	-55.62
3685.333	-50.62
3688.073	-57.62
3690.811	-54.62
3693.547	-60.62
3696.281	-63.62
3699.013	-58.62
3701.742	-63.62
3704.47	-63.62
3707.195	-69.62
3709.919	-70.62
3712.64	-68.62
3715.359	-76.62
3718.076	-69.62
3720.792	-71.62
3723.505	-80.62
3726.216	-75.62
3728.925	-78.62
3731.632	-81.62
3734.336	-84.62
3737.039	-85.62
3739.74	-78.62
3742.439	-78.62
3745.136	-82.62
3747.83	-80.62
3750.523	-85.62
3753.213	-79.62
3755.902	-87.62
3758.589	-88.62
3761.273	-84.62
3763.956	-87.62
3766.636	-86.62
3769.315	-86.62
3771.991	-88.62
3774.665	-85.62
3777.338	-86.62
3780.008	-88.62
3782.677	-91.62
3785.343	-90.62
3788.007	-96.62
3790.67	-92.62
3793.33	-88.62
3795.989	-87.62
3798.645	-87.62
3801.299	-91.62
3803.952	-91.62
3806.602	-98.62
3809.251	-92.62
3811.897	-92.62
3814.542	-96.62
3817.184	-97.62
3819.825	-91.62
3822.463	-91.62
3825.1	-90.62
3827.735	-91.62
3830.367	-96.62
3832.998	-95.62
3835.627	-96.62
3838.253	-97.62
3840.878	-96.62
3843.501	-93.62
3846.122	-100.62
3848.741	-97.62
3851.358	-94.62
3853.973	-93.62
3856.586	-94.62
3859.197	-97.62
3861.806	-95.62
3864.414	-98.62
3867.019	-97.62
3869.622	-98.62
3872.224	-97.62
3874.823	-95.62
3877.421	-96.62
3880.016	-84.62
3882.61	-87.62
3885.202	-81.62
3887.792	-84.62
3890.38	-86.62
3892.966	-95.62
3895.55	-94.62
3898.132	-96.62
3900.713	-99.62
3903.291	-99.62
3905.868	-94.62
3908.442	-99.62
3911.015	-93.62
3913.586	-101.62
3916.155	-101.62
3918.722	-103.62
3921.287	-94.62
3923.85	-100.62
3926.411	-96.62
3928.971	-102.62
3931.528	-100.62
3934.084	-96.62
3936.638	-99.62
3939.19	-102.62
3941.74	-96.62
3944.288	-98.62
3946.834	-100.62
3949.378	-106.62
3951.921	-103.62
3954.462	-102.62
3957	-100.62
3959.537	-100.62
3962.072	-101.62
3964.606	-100.62
3967.137	-99.62
3969.667	-97.62
3972.194	-97.62
3974.72	-98.62
3977.244	-102.62
3979.766	-102.62
3982.286	-98.62
3984.805	-96.62
3987.321	-97.62
3989.836	-97.62
3992.349	-95.62
3994.86	-98.62
3997.369	-99.62
3999.877	-98.62
4002.382	-98.62
4004.886	-100.62
4007.388	-103.62
4009.888	-101.62
4012.386	-100.62
4014.883	-96.62
4017.377	-92.62
4019.87	-98.62
4022.361	-97.62
4024.85	-96.62
4027.338	-99.62
4029.823	-103.62
4032.307	-104.62
4034.789	-99.62
4037.269	-96.62
4039.747	-96.62
4042.224	-93.62
4044.699	-93.62
4047.172	-101.62
4049.643	-98.62
4052.112	-103.62
4054.58	-105.62
4057.046	-103.62
4059.51	-104.62
4061.972	-100.62
4064.432	-101.62
4066.891	-98.62
4069.348	-100.62
4071.803	-100.62
4074.256	-102.62
4076.708	-106.62
4079.158	-99.62
4081.606	-100.62
4084.052	-102.62
4086.497	-103.62
4088.939	-97.62
4091.38	-94.62
4093.819	-100.62
4096.257	-104.62
4098.693	-103.62
4101.127	-111.62
4103.559	-112.62
4105.989	-63.62
4108.418	-60.62
4110.845	-55.62
4113.27	-55.62
4115.694	-39.62
4118.115	-34.62
4120.535	-100.62
4122.954	-103.62
4125.37	-100.62
4127.785	-101.62
4130.198	-99.62
4132.609	-99.62
4135.019	-106.62
4137.427	-107.62
4139.833	-108.62
4142.237	-108.62
