Data from coli colony - 10s - I=1, bc=5_RamanShift_1.txt Node
Date: Thu Aug 24 11:34:08 IDT 2017
User: aro
Spectrometer: QEPB0276
Trigger mode: 0
Integration Time (sec): 1.000000E1
Scans to average: 1
Electric dark correction enabled: true
Nonlinearity correction enabled: false
Boxcar width: 5
XAxis mode: Raman Shifts
Number of Pixels in Spectrum: 1044
>>>>>Begin Spectral Data<<<<<
160.701	281
166.742	468.29
172.777	670.38
178.805	851.11
184.826	1002.3
190.841	1138.55
196.849	1368.82
202.85	1609.73
208.845	1851.64
214.833	2092.18
220.815	2311.91
226.789	2478.36
232.758	2612.18
238.719	2689.36
244.674	2760.73
250.623	2822.18
256.565	2893.36
262.5	2959.64
268.429	3024.55
274.351	3089.36
280.267	3157
286.176	3230
292.079	3301.55
297.975	3379.73
303.865	3465.45
309.748	3553.55
315.625	3639.09
321.495	3729.82
327.359	3805.91
333.217	3883.64
339.068	3954.64
344.912	4013.27
350.751	4065.82
356.583	4114
362.408	4145
368.227	4171.64
374.04	4180.45
379.847	4181.91
385.647	4193.55
391.44	4203.27
397.228	4214
403.009	4211
408.784	4191.64
414.553	4157.45
420.315	4128.36
426.071	4093.09
431.821	4058.55
437.565	4023.55
443.302	3984.64
449.033	3934.73
454.758	3871.18
460.477	3812.09
466.189	3765.27
471.896	3722.73
477.596	3689.45
483.29	3648.91
488.978	3606.18
494.66	3564.73
500.335	3523.09
506.005	3490
511.668	3455.55
517.325	3425.27
522.977	3395
528.622	3366.91
534.261	3341.91
539.894	3318.64
545.521	3309.36
551.141	3294.27
556.756	3287.18
562.365	3279
567.968	3269.45
573.565	3262.45
579.155	3253.27
584.74	3240.55
590.319	3225.27
595.892	3206.18
601.459	3188.09
607.02	3167
612.575	3149.36
618.124	3138.64
623.667	3125.73
629.204	3116.82
634.735	3097.36
640.261	3082.91
645.781	3061.18
651.294	3045.27
656.802	3034.36
662.304	3020.91
667.8	3004.09
673.29	2983.73
678.775	2963.18
684.254	2935.82
689.726	2910.82
695.193	2893.09
700.655	2872.45
706.11	2853
711.56	2836.36
717.004	2821
722.442	2798.55
727.874	2787.55
733.301	2774.09
738.722	2761.91
744.137	2753.27
749.547	2740.82
754.951	2732.09
760.349	2726.09
765.741	2718
771.128	2708.36
776.509	2698.09
781.885	2691.27
787.254	2680
792.618	2666.27
797.977	2658.91
803.33	2642
808.677	2630.09
814.019	2616.45
819.355	2605
824.686	2594.82
830.011	2588.91
835.33	2583.73
840.644	2578.18
845.952	2570
851.255	2571.82
856.552	2564.82
861.844	2560.55
867.13	2555.55
872.41	2554.09
877.686	2550.09
882.955	2543.09
888.219	2538.45
893.478	2538
898.731	2539.82
903.979	2542.73
909.221	2542.55
914.458	2550.55
919.69	2556.55
924.916	2565.82
930.136	2584.27
935.351	2590.91
940.561	2607.09
945.766	2620.64
950.965	2632.91
956.158	2636.09
961.347	2648.18
966.529	2657.18
971.707	2672
976.879	2689.09
982.046	2711.73
987.208	2739.64
992.364	2776.45
997.515	2817.91
1002.66	2862.64
1007.801	2916.73
1012.936	2973.27
1018.066	3027.82
1023.19	3095.55
1028.309	3160.45
1033.423	3217.73
1038.532	3289.82
1043.636	3354.73
1048.734	3430.55
1053.827	3514.27
1058.915	3607
1063.998	3710.36
1069.075	3826.09
1074.147	3955.82
1079.214	4081
1084.276	4228.91
1089.333	4379.73
1094.385	4527.09
1099.431	4676.45
1104.472	4834
1109.509	4981.64
1114.54	5140.55
1119.565	5299.18
1124.586	5458.09
1129.602	5623.18
1134.613	5794
1139.618	5974.45
1144.619	6165.91
1149.614	6367.18
1154.604	6569.18
1159.589	6774.91
1164.57	6982.27
1169.545	7187.27
1174.515	7387.82
1179.48	7591.64
1184.44	7796.18
1189.395	8004.82
1194.345	8213.18
1199.29	8438.45
1204.23	8658.64
1209.165	8888.36
1214.095	9131.64
1219.021	9365.64
1223.941	9600.64
1228.856	9829.91
1233.766	10039.18
1238.672	10239.73
1243.572	10419.09
1248.467	10585.18
1253.358	10750.27
1258.244	10911.64
1263.124	11095.55
1268	11309
1272.871	11564.73
1277.737	11876.27
1282.599	12251.73
1287.455	12714.36
1292.306	13250.82
1297.153	13859.55
1301.995	14550.27
1306.832	15293.45
1311.664	16080.64
1316.491	16892.18
1321.314	17730.64
1326.132	18555.64
1330.945	19358.73
1335.753	20120.64
1340.556	20818.27
1345.354	21444.09
1350.148	21995.45
1354.937	22452.09
1359.722	22828.27
1364.501	23129.73
1369.276	23357.27
1374.046	23483.64
1378.811	23532.55
1383.572	23518.73
1388.327	23441.55
1393.079	23322.45
1397.825	23173.73
1402.567	22997.91
1407.304	22805.91
1412.036	22603.18
1416.764	22403.09
1421.487	22185.55
1426.205	21985.27
1430.919	21764.27
1435.628	21536.55
1440.333	21295.27
1445.032	21038.27
1449.727	20762.55
1454.418	20479.36
1459.104	20173.73
1463.785	19851.27
1468.462	19533.09
1473.134	19213.82
1477.802	18902
1482.465	18608.73
1487.123	18340.27
1491.777	18090.09
1496.426	17858
1501.071	17655.73
1505.711	17453.64
1510.347	17243.36
1514.978	17035.36
1519.604	16812.09
1524.226	16581.82
1528.844	16337.82
1533.457	16094.45
1538.065	15851
1542.669	15629
1547.269	15412.82
1551.864	15208.36
1556.454	15033.45
1561.041	14893.73
1565.622	14772.18
1570.199	14665.27
1574.772	14572.18
1579.34	14483.64
1583.904	14389.64
1588.464	14270.91
1593.019	14146.82
1597.569	14009.09
1602.115	13873.36
1606.657	13730.64
1611.195	13580.09
1615.728	13435.91
1620.256	13295.73
1624.78	13177.55
1629.3	13082.73
1633.816	13009.27
1638.327	12955.91
1642.834	12911.73
1647.336	12872.73
1651.834	12828.18
1656.328	12774.18
1660.817	12710.27
1665.302	12633.36
1669.783	12519.73
1674.259	12384.09
1678.732	12206.45
1683.199	12005.27
1687.663	11796.91
1692.122	11562.45
1696.577	11334.18
1701.028	11113.09
1705.474	10896.27
1709.917	10690.18
1714.355	10495.27
1718.788	10301.55
1723.218	10108.73
1727.643	9935.91
1732.064	9766.36
1736.481	9600.64
1740.893	9446.64
1745.301	9291.73
1749.705	9132.45
1754.105	8986.91
1758.501	8849.64
1762.893	8734.55
1767.28	8630.73
1771.663	8550.73
1776.042	8481.64
1780.417	8424.82
1784.787	8374.45
1789.154	8326.82
1793.516	8279.91
1797.874	8221
1802.228	8164
1806.578	8096.45
1810.924	8033.64
1815.266	7948.09
1819.603	7906.82
1823.937	7851.82
1828.266	7817.55
1832.591	7792.91
1836.913	7788.09
1841.23	7788.09
1845.543	7816
1849.852	7839.91
1854.156	7872.82
1858.457	7904.64
1862.754	7931.45
1867.047	7959.64
1871.335	7973.82
1875.62	7969.55
1879.9	7960.27
1884.177	7937.45
1888.449	7908.91
1892.718	7863.73
1896.982	7808.91
1901.243	7742.64
1905.499	7677.91
1909.752	7597.09
1914	7514.09
1918.245	7427
1922.485	7326.27
1926.722	7207.91
1930.954	7083.18
1935.183	6932.36
1939.408	6769.91
1943.628	6577.09
1947.845	6376.18
1952.058	6157.09
1956.267	5930
1960.472	5698.82
1964.673	5460.27
1968.87	5223.82
1973.063	5000.82
1977.252	4780.36
1981.438	4578
1985.619	4386.82
1989.797	4203.64
1993.971	4048.91
1998.14	3900.18
2002.306	3755.45
2006.469	3618.73
2010.627	3489.55
2014.781	3366
2018.932	3237.64
2023.078	3126.73
2027.221	3011.45
2031.36	2905.18
2035.495	2805.18
2039.627	2709.55
2043.754	2625.73
2047.878	2546.73
2051.998	2469.09
2056.114	2399.55
2060.226	2343.73
2064.334	2295.09
2068.439	2250
2072.54	2205.09
2076.637	2154.18
2080.73	2114.55
2084.82	2067.82
2088.906	2020.73
2092.988	1973.09
2097.066	1924.36
2101.14	1881.18
2105.211	1834.45
2109.278	1779.09
2113.342	1733.18
2117.401	1681.91
2121.457	1642.64
2125.509	1598
2129.558	1564.55
2133.602	1525.82
2137.643	1494.82
2141.681	1462.18
2145.714	1436.64
2149.744	1407.18
2153.77	1378.09
2157.793	1354.18
2161.812	1323.91
2165.827	1297.64
2169.838	1281.73
2173.846	1255.91
2177.851	1232.09
2181.851	1211.82
2185.848	1187.64
2189.841	1171.55
2193.831	1155.45
2197.817	1141.09
2201.799	1131.09
2205.778	1116.18
2209.753	1105.64
2213.725	1098.09
2217.693	1091.27
2221.657	1078.36
2225.618	1071.91
2229.575	1062.82
2233.529	1052.64
2237.479	1039.27
2241.425	1025.09
2245.368	1009.55
2249.307	1002.73
2253.243	989.18
2257.175	976.55
2261.104	958.45
2265.029	946.27
2268.95	934.73
2272.868	921.27
2276.783	909.91
2280.694	900.36
2284.601	892.91
2288.505	884
2292.405	872.55
2296.302	857.18
2300.195	845.82
2304.085	835.09
2307.971	831.09
2311.854	818.45
2315.734	815.82
2319.609	808.18
2323.482	795.64
2327.351	790.55
2331.216	780
2335.078	776.55
2338.937	770.64
2342.792	765.91
2346.643	763.73
2350.492	762.18
2354.336	757.82
2358.178	753.27
2362.015	748.27
2365.85	748.55
2369.681	748.82
2373.508	746.55
2377.333	749.36
2381.153	742.82
2384.971	741.82
2388.785	740.36
2392.595	736.36
2396.402	732.73
2400.206	728.91
2404.007	723.73
2407.804	721.73
2411.597	721.82
2415.388	716.45
2419.174	712.82
2422.958	707.73
2426.738	704.73
2430.515	702
2434.289	694.82
2438.059	683.36
2441.825	682.27
2445.589	679.82
2449.349	670.91
2453.106	670
2456.859	660.27
2460.61	654.18
2464.356	651.64
2468.1	644.18
2471.84	639.82
2475.577	635.82
2479.311	633.64
2483.041	631.27
2486.768	629.18
2490.492	624.64
2494.213	621.09
2497.93	618.82
2501.644	612.09
2505.355	613.91
2509.062	613.27
2512.766	612.55
2516.467	610.27
2520.165	605.09
2523.859	600.55
2527.551	603.36
2531.239	595.64
2534.923	596.27
2538.605	593.27
2542.283	591.09
2545.958	586.09
2549.63	584.36
2553.299	583.36
2556.964	576.55
2560.626	575.91
2564.285	573.55
2567.941	565.09
2571.594	560.73
2575.243	558.64
2578.89	553
2582.533	543.73
2586.173	535.82
2589.809	535.27
2593.443	518.45
2597.073	515.09
2600.701	513.91
2604.325	505.55
2607.946	495.09
2611.564	491.09
2615.178	486.64
2618.79	476.45
2622.398	471.09
2626.004	465.09
2629.606	460.18
2633.205	452.36
2636.801	448
2640.394	441.64
2643.983	437.73
2647.57	431.91
2651.153	426.18
2654.734	422.36
2658.311	411.82
2661.885	412.73
2665.456	403.27
2669.025	399.64
2672.589	392.64
2676.151	392.18
2679.71	389.18
2683.266	379.73
2686.819	375.27
2690.368	373.36
2693.915	366.27
2697.458	358.45
2700.999	358.91
2704.536	352.91
2708.071	350.18
2711.602	348.09
2715.13	340.18
2718.656	339.82
2722.178	339.36
2725.697	337.64
2729.214	336.18
2732.727	334
2736.237	336.45
2739.744	334.27
2743.249	329.27
2746.75	334.55
2750.248	329.64
2753.743	326.09
2757.236	322.45
2760.725	323.18
2764.211	308.27
2767.695	310.64
2771.175	305.64
2774.652	302.73
2778.127	298
2781.598	300
2785.067	293
2788.532	289
2791.995	290.64
2795.455	291.18
2798.911	292.18
2802.365	289.55
2805.816	288.82
2809.264	291.55
2812.709	288.27
2816.151	292.64
2819.59	287
2823.026	289.55
2826.46	285.73
2829.89	286.09
2833.318	279.55
2836.742	281
2840.164	280.64
2843.583	279.82
2846.999	281.82
2850.412	278.82
2853.822	277.73
2857.229	281.36
2860.634	278.73
2864.035	269.73
2867.434	276.91
2870.83	271.45
2874.223	272
2877.613	271.45
2881	264.36
2884.385	263.64
2887.766	263.64
2891.145	256.18
2894.521	258.55
2897.894	254.18
2901.264	259.64
2904.631	257.36
2907.996	262.82
2911.358	260.82
2914.717	260
2918.073	259.18
2921.426	262.18
2924.777	262.18
2928.124	266.36
2931.469	270.55
2934.811	266.45
2938.15	273.64
2941.487	270.82
2944.821	278.27
2948.152	276.27
2951.48	281.27
2954.805	283.55
2958.128	290.36
2961.447	290.73
2964.765	297
2968.079	302.18
2971.39	311.18
2974.699	313.18
2978.005	324.18
2981.308	328.09
2984.609	334
2987.907	339.27
2991.202	351.09
2994.494	355.55
2997.784	365.09
3001.07	373.64
3004.355	377.27
3007.636	378
3010.915	385.18
3014.191	390.55
3017.464	396.45
3020.734	408.18
3024.002	411.55
3027.267	417.64
3030.53	425.91
3033.789	427.91
3037.046	433.36
3040.301	450.09
3043.552	460.18
3046.801	470.73
3050.048	483
3053.291	500
3056.532	510.82
3059.771	518.82
3063.006	533.82
3066.239	553.45
3069.469	567.73
3072.697	581.91
3075.922	598.18
3079.144	613.91
3082.364	631.45
3085.581	640.36
3088.795	660.55
3092.007	670.55
3095.216	680.18
3098.423	692.55
3101.627	705.64
3104.828	717.73
3108.026	737.18
3111.222	749.45
3114.416	766.64
3117.607	783.36
3120.795	797.55
3123.98	812.09
3127.163	825.27
3130.344	837.36
3133.521	856.09
3136.696	870.91
3139.869	885
3143.039	898
3146.206	913.73
3149.371	917.73
3152.533	929.18
3155.693	932.55
3158.85	950.09
3162.005	959.91
3165.157	970
3168.306	985.36
3171.453	993.91
3174.597	1003.36
3177.739	1013.45
3180.878	1030.09
3184.014	1044.55
3187.149	1064.64
3190.28	1086
3193.409	1103.45
3196.536	1129.27
3199.659	1156.18
3202.781	1178.36
3205.9	1201
3209.016	1227.64
3212.13	1257.55
3215.241	1280.27
3218.35	1309.91
3221.456	1334.36
3224.56	1361.27
3227.661	1386.82
3230.76	1408.64
3233.856	1439.09
3236.95	1465.09
3240.041	1487.09
3243.13	1521.45
3246.216	1544.91
3249.3	1570.27
3252.382	1595.73
3255.46	1613.64
3258.537	1628.27
3261.611	1653.18
3264.682	1670.82
3267.751	1682
3270.818	1688.82
3273.882	1693.82
3276.943	1691.55
3280.002	1689.91
3283.059	1677.09
3286.113	1667.36
3289.165	1656.09
3292.214	1639.55
3295.261	1622.55
3298.306	1594.64
3301.348	1578.27
3304.387	1562.18
3307.425	1539.55
3310.459	1519.18
3313.492	1501.27
3316.521	1477.82
3319.549	1459.55
3322.574	1440.36
3325.597	1422.27
3328.617	1405.82
3331.635	1388.91
3334.65	1366
3337.663	1352.82
3340.674	1334.36
3343.682	1318
3346.688	1299.73
3349.691	1280.27
3352.692	1259.36
3355.691	1241.09
3358.687	1218.55
3361.681	1196
3364.673	1174.64
3367.662	1147
3370.649	1126.82
3373.633	1096.27
3376.615	1073.55
3379.595	1039.09
3382.572	1019.82
3385.547	991.09
3388.52	967.73
3391.49	945.36
3394.458	924.64
3397.424	903.27
3400.387	878.82
3403.348	859.09
3406.307	842.09
3409.263	819.45
3412.217	806.36
3415.168	790.55
3418.118	774.27
3421.065	755
3424.009	738.09
3426.951	717.18
3429.891	700.73
3432.829	685.18
3435.764	667.73
3438.697	648.82
3441.628	633.64
3444.557	614.91
3447.483	597.18
3450.407	582.45
3453.328	561.55
3456.247	543.73
3459.164	523.36
3462.079	511.27
3464.991	495.27
3467.902	477.82
3470.809	464.91
3473.715	449.27
3476.618	431.73
3479.519	420.73
3482.418	402.18
3485.315	393
3488.209	380.73
3491.101	374.64
3493.99	364.36
3496.878	350.27
3499.763	344.64
3502.646	326
3505.527	314.27
3508.405	304.55
3511.281	290.73
3514.155	286.64
3517.027	274.18
3519.897	258.27
3522.764	254.18
3525.629	245.82
3528.492	228.45
3531.352	221.64
3534.211	213.09
3537.067	203.73
3539.921	193.18
3542.773	187.36
3545.622	179.73
3548.469	169.91
3551.315	166.45
3554.157	161
3556.998	151.45
3559.837	150.73
3562.673	147.64
3565.507	141
3568.339	132.09
3571.169	128.18
3573.996	124.73
3576.822	123.73
3579.645	115.09
3582.466	116.18
3585.285	113.64
3588.101	107.91
3590.916	102.09
3593.728	100.82
3596.538	96.73
3599.346	94.09
3602.152	90.09
3604.956	87.09
3607.757	86.18
3610.556	78.82
3613.354	80.91
3616.149	76.91
3618.942	74.73
3621.732	71.64
3624.521	62.91
3627.307	64.27
3630.092	64.82
3632.874	63.36
3635.654	59.64
3638.432	56.09
3641.208	56.64
3643.982	56.36
3646.753	49.82
3649.523	44.18
3652.29	49.09
3655.055	50
3657.818	45.91
3660.579	45.55
3663.338	39.64
3666.095	37.09
3668.849	33.36
3671.602	38.45
3674.352	31.45
3677.101	35.27
3679.847	33.73
3682.591	30.18
3685.333	26
3688.073	28.82
3690.811	23.82
3693.547	19.45
3696.281	19.82
3699.013	20.82
3701.742	19.64
3704.47	16.18
3707.195	16.36
3709.919	15
3712.64	12.64
3715.359	9.18
3718.076	12.64
3720.792	10.91
3723.505	8.64
3726.216	6.27
3728.925	3.91
3731.632	3.91
3734.336	0.73
3737.039	-0.64
3739.74	-0.09
3742.439	-6.73
3745.136	1.73
3747.83	-0.82
3750.523	-0.36
3753.213	-16.91
3755.902	-1.55
3758.589	-10.09
3761.273	-4.18
3763.956	-8
3766.636	-7.27
3769.315	-11.09
3771.991	-11.73
3774.665	-16.27
3777.338	-17
3780.008	-16.82
3782.677	-20.18
3785.343	-22.09
3788.007	-26.18
3790.67	-18
3793.33	-21.73
3795.989	-25.27
3798.645	-23.55
3801.299	-27.82
3803.952	-29.09
3806.602	-27.73
3809.251	-33.45
3811.897	-28.27
3814.542	-30.45
3817.184	-30.55
3819.825	-32.82
3822.463	-32.45
3825.1	-32.27
3827.735	-35.64
3830.367	-33.36
3832.998	-29.73
3835.627	-32.27
3838.253	-34.09
3840.878	-35.27
3843.501	-37.82
3846.122	-36.55
3848.741	-36.64
3851.358	-35.91
3853.973	-40.55
3856.586	-37.73
3859.197	-35
3861.806	-38.55
3864.414	-37.45
3867.019	-36
3869.622	-32.36
3872.224	-32.45
3874.823	-29.09
3877.421	-32.36
3880.016	-29.18
3882.61	-32.27
3885.202	-27.64
3887.792	-29.27
3890.38	-29.27
3892.966	-33.55
3895.55	-36.45
3898.132	-36.27
3900.713	-37.45
3903.291	-42.64
3905.868	-44.82
3908.442	-42.36
3911.015	-42.18
3913.586	-45.55
3916.155	-41.91
3918.722	-41.36
3921.287	-42.82
3923.85	-45.09
3926.411	-43.55
3928.971	-41.27
3931.528	-47.36
3934.084	-45.36
3936.638	-44.27
3939.19	-47.45
3941.74	-43.36
3944.288	-41.91
3946.834	-43.82
3949.378	-39.91
3951.921	-40
3954.462	-46.27
3957	-40.27
3959.537	-44.27
3962.072	-48.45
3964.606	-43.91
3967.137	-41.36
3969.667	-41.18
3972.194	-40.27
3974.72	-42.82
3977.244	-47.55
3979.766	-47.09
3982.286	-45.27
3984.805	-44.73
3987.321	-42.55
3989.836	-42.45
3992.349	-44.45
3994.86	-41.82
3997.369	-44.09
3999.877	-46.09
4002.382	-46.45
4004.886	-46.55
4007.388	-44.36
4009.888	-42.82
4012.386	-42.82
4014.883	-45
4017.377	-45.18
4019.87	-44.36
4022.361	-45.55
4024.85	-47.36
4027.338	-42.73
4029.823	-44.82
4032.307	-45
4034.789	-43.55
4037.269	-48.45
4039.747	-49.18
4042.224	-44.73
4044.699	-46.27
4047.172	-42.82
4049.643	-39.73
4052.112	-48
4054.58	-45.82
4057.046	-43.82
4059.51	-45
4061.972	-45
4064.432	-50.82
4066.891	-41.27
4069.348	-45
4071.803	-45.55
4074.256	-45
4076.708	-41.91
4079.158	-48.91
4081.606	-41.64
4084.052	-53.27
4086.497	-51.36
4088.939	-55.27
4091.38	-57.27
4093.819	-54.55
4096.257	-43.09
4098.693	-34.09
4101.127	-32
4103.559	-30.91
4105.989	-38.91
4108.418	-35.55
4110.845	-34.18
4113.27	-30.64
4115.694	-29.09
4118.115	-27.18
4120.535	-30.18
4122.954	-36.09
4125.37	-40.73
4127.785	-47.55
4130.198	-53.45
4132.609	-59.8
4135.019	-50.67
4137.427	-54.5
4139.833	-53.86
4142.237	-57
