Data from Tap water 2ml (I=.5_T=5x3)_RamanShift_1.txt Node
Date: Mon May 29 14:33:07 IDT 2017
User: aro
Spectrometer: QEPB0276
Trigger mode: 0
Integration Time (sec): 5.000000E0
Scans to average: 3
Electric dark correction enabled: true
Nonlinearity correction enabled: false
Boxcar width: 0
XAxis mode: Raman Shifts
Number of Pixels in Spectrum: 1044
>>>>>Begin Spectral Data<<<<<
160.701	-6.79
166.742	1.54
172.777	23.88
178.805	98.88
184.826	279.21
190.841	563.21
196.849	881.88
202.85	1084.88
208.845	1127.88
214.833	1093.54
220.815	1036.54
226.789	1009.54
232.758	974.21
238.719	939.21
244.674	901.88
250.623	852.88
256.565	808.54
262.5	778.21
268.429	733.88
274.351	706.21
280.267	672.21
286.176	647.54
292.079	623.54
297.975	600.21
303.865	583.21
309.748	570.54
315.625	559.21
321.495	542.54
327.359	543.21
333.217	531.88
339.068	534.21
344.912	531.21
350.751	533.21
356.583	523.21
362.408	529.21
368.227	525.54
374.04	533.21
379.847	541.54
385.647	543.21
391.44	542.88
397.228	536.88
403.009	546.88
408.784	553.54
414.553	578.54
420.315	608.21
426.071	606.54
431.821	579.54
437.565	550.88
443.302	538.21
449.033	538.21
454.758	527.88
460.477	526.21
466.189	518.54
471.896	513.21
477.596	505.88
483.29	502.88
488.978	502.21
494.66	500.21
500.335	488.54
506.005	480.21
511.668	462.21
517.325	445.21
522.977	430.54
528.622	425.54
534.261	415.21
539.894	409.54
545.521	403.54
551.141	401.88
556.756	392.21
562.365	397.21
567.968	393.54
573.565	388.21
579.155	383.21
584.74	377.88
590.319	376.21
595.892	371.21
601.459	368.21
607.02	364.54
612.575	359.88
618.124	347.88
623.667	342.54
629.204	344.88
634.735	348.54
640.261	347.21
645.781	351.88
651.294	356.21
656.802	343.88
662.304	328.88
667.8	326.54
673.29	324.21
678.775	316.54
684.254	313.21
689.726	311.54
695.193	303.54
700.655	305.21
706.11	301.54
711.56	290.54
717.004	293.21
722.442	295.21
727.874	284.21
733.301	287.88
738.722	285.21
744.137	281.21
749.547	282.21
754.951	282.88
760.349	280.54
765.741	278.88
771.128	273.54
776.509	271.54
781.885	269.54
787.254	270.88
792.618	263.54
797.977	257.54
803.33	258.54
808.677	252.88
814.019	254.21
819.355	246.88
824.686	242.88
830.011	240.88
835.33	234.54
840.644	233.88
845.952	229.21
851.255	224.88
856.552	224.21
861.844	218.88
867.13	217.54
872.41	208.88
877.686	206.88
882.955	204.88
888.219	199.54
893.478	190.88
898.731	185.54
903.979	186.54
909.221	178.21
914.458	180.88
919.69	177.21
924.916	175.54
930.136	173.54
935.351	172.21
940.561	171.88
945.766	167.88
950.965	164.88
956.158	162.54
961.347	163.21
966.529	155.88
971.707	151.88
976.879	152.54
982.046	151.54
987.208	149.21
992.364	151.54
997.515	148.21
1002.66	149.88
1007.801	145.88
1012.936	148.21
1018.066	149.21
1023.19	151.21
1028.309	154.88
1033.423	148.21
1038.532	147.54
1043.636	147.21
1048.734	144.21
1053.827	145.88
1058.915	143.21
1063.998	140.54
1069.075	138.88
1074.147	136.88
1079.214	136.88
1084.276	138.88
1089.333	140.88
1094.385	139.88
1099.431	139.21
1104.472	135.88
1109.509	137.88
1114.54	137.21
1119.565	133.54
1124.586	129.88
1129.602	130.88
1134.613	126.21
1139.618	128.88
1144.619	123.88
1149.614	125.21
1154.604	128.21
1159.589	127.88
1164.57	127.54
1169.545	130.21
1174.515	129.21
1179.48	126.21
1184.44	121.21
1189.395	122.88
1194.345	126.88
1199.29	122.88
1204.23	123.54
1209.165	122.88
1214.095	123.88
1219.021	123.54
1223.941	125.54
1228.856	126.21
1233.766	129.54
1238.672	125.54
1243.572	125.88
1248.467	123.88
1253.358	118.54
1258.244	115.21
1263.124	115.21
1268	114.54
1272.871	112.54
1277.737	109.88
1282.599	109.54
1287.455	109.21
1292.306	109.54
1297.153	108.88
1301.995	109.54
1306.832	111.88
1311.664	109.54
1316.491	110.54
1321.314	106.88
1326.132	105.21
1330.945	104.54
1335.753	103.21
1340.556	98.54
1345.354	92.88
1350.148	93.54
1354.937	91.54
1359.722	91.88
1364.501	94.21
1369.276	95.88
1374.046	99.21
1378.811	100.88
1383.572	98.88
1388.327	98.88
1393.079	95.54
1397.825	92.54
1402.567	88.54
1407.304	88.21
1412.036	86.21
1416.764	88.54
1421.487	87.88
1426.205	88.88
1430.919	85.54
1435.628	86.88
1440.333	89.54
1445.032	90.21
1449.727	86.21
1454.418	89.88
1459.104	88.54
1463.785	84.21
1468.462	83.21
1473.134	82.21
1477.802	84.21
1482.465	85.21
1487.123	83.21
1491.777	84.54
1496.426	83.88
1501.071	89.54
1505.711	88.54
1510.347	91.54
1514.978	94.21
1519.604	97.54
1524.226	99.21
1528.844	99.54
1533.457	98.88
1538.065	101.54
1542.669	101.54
1547.269	102.88
1551.864	102.21
1556.454	105.88
1561.041	109.88
1565.622	105.54
1570.199	107.21
1574.772	111.54
1579.34	117.88
1583.904	122.54
1588.464	123.54
1593.019	130.21
1597.569	131.88
1602.115	138.21
1606.657	141.88
1611.195	144.88
1615.728	148.54
1620.256	155.21
1624.78	153.88
1629.3	162.21
1633.816	166.21
1638.327	171.88
1642.834	169.21
1647.336	173.88
1651.834	167.54
1656.328	166.21
1660.817	163.21
1665.302	158.54
1669.783	155.21
1674.259	144.54
1678.732	134.54
1683.199	127.54
1687.663	117.88
1692.122	110.88
1696.577	103.54
1701.028	100.21
1705.474	93.21
1709.917	91.21
1714.355	86.54
1718.788	77.54
1723.218	74.54
1727.643	68.21
1732.064	63.88
1736.481	58.54
1740.893	53.54
1745.301	52.54
1749.705	45.21
1754.105	41.21
1758.501	40.21
1762.893	37.54
1767.28	34.54
1771.663	31.88
1776.042	31.54
1780.417	29.21
1784.787	28.88
1789.154	29.54
1793.516	26.21
1797.874	28.54
1802.228	29.21
1806.578	28.21
1810.924	28.54
1815.266	26.54
1819.603	24.54
1823.937	26.88
1828.266	23.21
1832.591	22.54
1836.913	22.88
1841.23	19.54
1845.543	20.21
1849.852	19.54
1854.156	19.54
1858.457	20.21
1862.754	20.54
1867.047	20.88
1871.335	19.88
1875.62	18.88
1879.9	18.54
1884.177	20.54
1888.449	18.21
1892.718	19.21
1896.982	20.54
1901.243	19.54
1905.499	19.88
1909.752	19.54
1914	21.21
1918.245	20.54
1922.485	19.88
1926.722	21.88
1930.954	19.88
1935.183	22.21
1939.408	26.21
1943.628	21.88
1947.845	25.54
1952.058	26.21
1956.267	22.54
1960.472	20.88
1964.673	23.88
1968.87	21.88
1973.063	24.21
1977.252	19.88
1981.438	21.21
1985.619	20.88
1989.797	21.88
1993.971	21.54
1998.14	19.88
2002.306	21.88
2006.469	22.54
2010.627	21.54
2014.781	23.21
2018.932	22.54
2023.078	23.88
2027.221	23.54
2031.36	23.54
2035.495	25.88
2039.627	22.21
2043.754	21.88
2047.878	24.21
2051.998	24.54
2056.114	21.21
2060.226	23.21
2064.334	23.21
2068.439	21.21
2072.54	26.54
2076.637	26.88
2080.73	26.54
2084.82	27.54
2088.906	26.21
2092.988	26.21
2097.066	27.88
2101.14	25.54
2105.211	28.21
2109.278	27.21
2113.342	25.21
2117.401	23.88
2121.457	23.54
2125.509	24.88
2129.558	24.21
2133.602	23.54
2137.643	23.88
2141.681	21.88
2145.714	20.21
2149.744	20.21
2153.77	21.88
2157.793	20.88
2161.812	20.21
2165.827	18.21
2169.838	16.88
2173.846	15.88
2177.851	13.88
2181.851	14.54
2185.848	11.88
2189.841	12.21
2193.831	11.21
2197.817	11.21
2201.799	10.88
2205.778	9.54
2209.753	10.54
2213.725	8.54
2217.693	10.54
2221.657	9.54
2225.618	5.21
2229.575	6.54
2233.529	7.54
2237.479	5.88
2241.425	5.88
2245.368	5.21
2249.307	1.88
2253.243	3.54
2257.175	2.21
2261.104	0.54
2265.029	-0.12
2268.95	1.54
2272.868	-0.79
2276.783	0.21
2280.694	0.88
2284.601	-3.46
2288.505	-2.12
2292.405	-4.12
2296.302	-3.46
2300.195	-4.79
2304.085	-2.79
2307.971	-5.79
2311.854	-5.79
2315.734	-5.46
2319.609	-6.12
2323.482	-7.12
2327.351	-4.79
2331.216	-4.12
2335.078	-3.12
2338.937	-8.46
2342.792	-6.46
2346.643	-7.12
2350.492	-9.12
2354.336	-11.46
2358.178	-8.79
2362.015	-8.46
2365.85	-7.12
2369.681	-8.46
2373.508	-7.12
2377.333	-10.79
2381.153	-6.79
2384.971	-9.79
2388.785	-9.46
2392.595	-7.79
2396.402	-9.46
2400.206	-9.79
2404.007	-12.79
2407.804	-11.12
2411.597	-11.46
2415.388	-11.12
2419.174	-10.79
2422.958	-10.46
2426.738	-11.79
2430.515	-13.79
2434.289	-12.79
2438.059	-13.79
2441.825	-13.12
2445.589	-12.12
2449.349	-10.46
2453.106	-13.79
2456.859	-14.12
2460.61	-15.46
2464.356	-12.79
2468.1	-14.79
2471.84	-16.12
2475.577	-12.79
2479.311	-14.12
2483.041	-15.12
2486.768	-14.12
2490.492	-14.79
2494.213	-16.46
2497.93	-12.46
2501.644	-13.79
2505.355	-15.12
2509.062	-16.46
2512.766	-13.79
2516.467	-14.12
2520.165	-16.46
2523.859	-16.46
2527.551	-16.79
2531.239	-16.46
2534.923	-15.12
2538.605	-16.12
2542.283	-17.46
2545.958	-15.46
2549.63	-16.12
2553.299	-15.79
2556.964	-15.79
2560.626	-16.12
2564.285	-16.12
2567.941	-15.12
2571.594	-16.46
2575.243	-16.79
2578.89	-15.79
2582.533	-16.46
2586.173	-14.12
2589.809	-18.79
2593.443	-18.46
2597.073	-18.12
2600.701	-18.12
2604.325	-18.12
2607.946	-17.79
2611.564	-16.46
2615.178	-17.12
2618.79	-16.79
2622.398	-15.79
2626.004	-16.46
2629.606	-15.46
2633.205	-16.12
2636.801	-16.12
2640.394	-17.12
2643.983	-16.79
2647.57	-16.46
2651.153	-17.79
2654.734	-14.12
2658.311	-16.12
2661.885	-17.46
2665.456	-17.46
2669.025	-18.12
2672.589	-18.12
2676.151	-18.46
2679.71	-17.12
2683.266	-17.12
2686.819	-16.79
2690.368	-16.79
2693.915	-16.12
2697.458	-14.79
2700.999	-15.79
2704.536	-15.12
2708.071	-15.12
2711.602	-16.46
2715.13	-15.79
2718.656	-16.12
2722.178	-17.12
2725.697	-15.12
2729.214	-16.12
2732.727	-16.12
2736.237	-15.12
2739.744	-15.46
2743.249	-17.12
2746.75	-15.79
2750.248	-13.79
2753.743	-14.79
2757.236	-13.46
2760.725	-11.46
2764.211	-14.46
2767.695	-14.79
2771.175	-13.46
2774.652	-13.79
2778.127	-13.79
2781.598	-12.12
2785.067	-12.12
2788.532	-11.46
2791.995	-12.79
2795.455	-10.46
2798.911	-12.79
2802.365	-8.12
2805.816	-9.46
2809.264	-9.46
2812.709	-10.12
2816.151	-10.79
2819.59	-7.12
2823.026	-11.46
2826.46	-8.46
2829.89	-10.12
2833.318	-8.12
2836.742	-8.12
2840.164	-6.12
2843.583	-4.12
2846.999	-4.79
2850.412	-7.46
2853.822	-6.12
2857.229	-5.46
2860.634	-3.46
2864.035	-4.12
2867.434	-3.79
2870.83	0.21
2874.223	-2.79
2877.613	-0.79
2881	1.54
2884.385	0.54
2887.766	0.88
2891.145	1.88
2894.521	0.54
2897.894	2.21
2901.264	2.88
2904.631	3.54
2907.996	4.21
2911.358	4.54
2914.717	6.54
2918.073	5.88
2921.426	7.54
2924.777	8.88
2928.124	8.88
2931.469	9.88
2934.811	10.88
2938.15	12.21
2941.487	13.88
2944.821	15.21
2948.152	14.88
2951.48	18.54
2954.805	21.54
2958.128	20.88
2961.447	22.21
2964.765	22.21
2968.079	24.88
2971.39	24.88
2974.699	27.21
2978.005	26.54
2981.308	30.88
2984.609	35.88
2987.907	35.21
2991.202	38.54
2994.494	43.21
2997.784	43.88
3001.07	45.21
3004.355	45.88
3007.636	49.88
3010.915	54.88
3014.191	57.54
3017.464	56.54
3020.734	59.54
3024.002	63.21
3027.267	62.21
3030.53	64.21
3033.789	67.54
3037.046	68.88
3040.301	72.21
3043.552	72.21
3046.801	77.21
3050.048	80.88
3053.291	80.88
3056.532	84.21
3059.771	87.21
3063.006	93.21
3066.239	97.54
3069.469	99.54
3072.697	104.88
3075.922	109.88
3079.144	114.54
3082.364	117.21
3085.581	116.88
3088.795	122.88
3092.007	126.21
3095.216	130.88
3098.423	135.21
3101.627	139.54
3104.828	146.21
3108.026	146.88
3111.222	150.21
3114.416	154.54
3117.607	158.88
3120.795	166.54
3123.98	174.54
3127.163	177.21
3130.344	180.21
3133.521	184.88
3136.696	192.21
3139.869	192.88
3143.039	195.54
3146.206	206.88
3149.371	206.88
3152.533	210.54
3155.693	213.21
3158.85	214.88
3162.005	212.54
3165.157	215.54
3168.306	216.88
3171.453	221.54
3174.597	220.88
3177.739	219.54
3180.878	219.88
3184.014	220.54
3187.149	222.54
3190.28	218.54
3193.409	219.54
3196.536	223.88
3199.659	223.88
3202.781	227.21
3205.9	220.88
3209.016	229.54
3212.13	221.54
3215.241	226.54
3218.35	221.54
3221.456	219.54
3224.56	218.54
3227.661	219.54
3230.76	214.88
3233.856	213.54
3236.95	208.54
3240.041	207.21
3243.13	205.21
3246.216	203.88
3249.3	203.88
3252.382	208.88
3255.46	207.21
3258.537	206.21
3261.611	208.21
3264.682	205.88
3267.751	211.21
3270.818	208.54
3273.882	204.88
3276.943	206.21
3280.002	199.21
3283.059	202.21
3286.113	197.21
3289.165	198.21
3292.214	192.21
3295.261	191.54
3298.306	186.54
3301.348	183.88
3304.387	181.88
3307.425	180.54
3310.459	176.54
3313.492	176.21
3316.521	176.54
3319.549	171.88
3322.574	168.88
3325.597	170.88
3328.617	163.54
3331.635	167.21
3334.65	166.21
3337.663	161.88
3340.674	162.54
3343.682	161.21
3346.688	161.54
3349.691	163.21
3352.692	160.54
3355.691	155.88
3358.687	158.54
3361.681	158.54
3364.673	153.88
3367.662	157.21
3370.649	149.54
3373.633	148.88
3376.615	145.21
3379.595	145.88
3382.572	144.21
3385.547	143.54
3388.52	135.21
3391.49	140.54
3394.458	134.88
3397.424	131.88
3400.387	129.54
3403.348	129.54
3406.307	127.88
3409.263	130.88
3412.217	128.54
3415.168	123.88
3418.118	122.54
3421.065	119.88
3424.009	121.54
3426.951	122.88
3429.891	116.54
3432.829	113.21
3435.764	114.54
3438.697	108.88
3441.628	109.21
3444.557	106.88
3447.483	102.88
3450.407	98.88
3453.328	95.21
3456.247	90.54
3459.164	90.88
3462.079	86.88
3464.991	83.54
3467.902	80.21
3470.809	78.88
3473.715	73.54
3476.618	73.54
3479.519	72.88
3482.418	70.21
3485.315	64.54
3488.209	63.88
3491.101	62.54
3493.99	57.88
3496.878	60.21
3499.763	57.21
3502.646	57.21
3505.527	51.54
3508.405	50.54
3511.281	50.21
3514.155	47.88
3517.027	42.88
3519.897	40.21
3522.764	38.88
3525.629	35.21
3528.492	35.21
3531.352	29.88
3534.211	30.88
3537.067	29.21
3539.921	23.88
3542.773	24.88
3545.622	21.21
3548.469	19.54
3551.315	17.54
3554.157	17.88
3556.998	14.88
3559.837	11.54
3562.673	13.21
3565.507	9.21
3568.339	8.54
3571.169	9.21
3573.996	4.88
3576.822	7.88
3579.645	3.88
3582.466	3.54
3585.285	4.54
3588.101	0.88
3590.916	0.21
3593.728	-1.12
3596.538	-1.79
3599.346	-3.46
3602.152	-5.79
3604.956	-3.79
3607.757	-4.46
3610.556	-5.79
3613.354	-7.79
3616.149	-8.12
3618.942	-5.79
3621.732	-9.46
3624.521	-10.79
3627.307	-11.46
3630.092	-11.46
3632.874	-12.46
3635.654	-12.46
3638.432	-13.12
3641.208	-14.79
3643.982	-13.79
3646.753	-12.79
3649.523	-14.79
3652.29	-16.46
3655.055	-16.46
3657.818	-17.12
3660.579	-18.46
3663.338	-18.79
3666.095	-18.79
3668.849	-18.12
3671.602	-17.12
3674.352	-19.12
3677.101	-20.79
3679.847	-19.79
3682.591	-21.79
3685.333	-22.46
3688.073	-21.12
3690.811	-25.12
3693.547	-22.12
3696.281	-21.79
3699.013	-22.79
3701.742	-23.79
3704.47	-24.46
3707.195	-24.46
3709.919	-25.46
3712.64	-26.12
3715.359	-25.12
3718.076	-26.46
3720.792	-27.79
3723.505	-28.79
3726.216	-27.46
3728.925	-28.12
3731.632	-27.46
3734.336	-26.46
3737.039	-27.79
3739.74	-29.79
3742.439	-28.12
3745.136	-28.12
3747.83	-29.12
3750.523	-27.46
3753.213	-26.12
3755.902	-28.79
3758.589	-29.79
3761.273	-28.79
3763.956	-28.79
3766.636	-27.46
3769.315	-27.79
3771.991	-29.12
3774.665	-28.79
3777.338	-30.46
3780.008	-29.46
3782.677	-30.12
3785.343	-30.46
3788.007	-29.46
3790.67	-29.46
3793.33	-29.12
3795.989	-30.46
3798.645	-29.79
3801.299	-30.46
3803.952	-29.46
3806.602	-31.46
3809.251	-29.79
3811.897	-29.12
3814.542	-31.12
3817.184	-29.79
3819.825	-29.46
3822.463	-28.46
3825.1	-31.79
3827.735	-28.79
3830.367	-28.79
3832.998	-30.46
3835.627	-29.12
3838.253	-28.46
3840.878	-31.12
3843.501	-31.12
3846.122	-30.12
3848.741	-28.79
3851.358	-30.12
3853.973	-30.46
3856.586	-28.79
3859.197	-30.79
3861.806	-29.12
3864.414	-29.79
3867.019	-28.79
3869.622	-26.79
3872.224	-28.46
3874.823	-27.12
3877.421	-25.46
3880.016	-24.12
3882.61	-19.79
3885.202	-20.79
3887.792	-21.79
3890.38	-24.79
3892.966	-26.79
3895.55	-31.12
3898.132	-30.79
3900.713	-29.79
3903.291	-28.46
3905.868	-28.79
3908.442	-31.12
3911.015	-30.46
3913.586	-30.79
3916.155	-31.79
3918.722	-32.12
3921.287	-30.46
3923.85	-33.12
3926.411	-30.12
3928.971	-31.46
3931.528	-28.79
3934.084	-30.46
3936.638	-33.12
3939.19	-30.12
3941.74	-29.12
3944.288	-29.79
3946.834	-31.46
3949.378	-30.12
3951.921	-31.46
3954.462	-30.79
3957	-30.79
3959.537	-30.12
3962.072	-29.46
3964.606	-33.12
3967.137	-32.12
3969.667	-29.79
3972.194	-33.12
3974.72	-30.46
3977.244	-31.46
3979.766	-30.12
3982.286	-30.46
3984.805	-31.79
3987.321	-29.79
3989.836	-31.79
3992.349	-32.12
3994.86	-31.46
3997.369	-32.12
3999.877	-31.79
4002.382	-30.12
4004.886	-31.79
4007.388	-33.12
4009.888	-30.46
4012.386	-30.46
4014.883	-31.12
4017.377	-31.46
4019.87	-32.12
4022.361	-32.46
4024.85	-30.79
4027.338	-31.12
4029.823	-31.46
4032.307	-32.12
4034.789	-30.46
4037.269	-30.46
4039.747	-31.79
4042.224	-31.46
4044.699	-32.79
4047.172	-30.12
4049.643	-32.46
4052.112	-31.79
4054.58	-30.12
4057.046	-29.46
4059.51	-30.79
4061.972	-30.12
4064.432	-28.79
4066.891	-31.79
4069.348	-27.79
4071.803	-29.46
4074.256	-28.12
4076.708	-30.12
4079.158	-32.12
4081.606	-32.12
4084.052	-30.46
4086.497	-27.12
4088.939	-30.79
4091.38	-31.79
4093.819	-29.46
4096.257	-30.12
4098.693	-28.79
4101.127	-30.79
4103.559	-29.79
4105.989	-17.12
4108.418	-16.12
4110.845	-14.79
4113.27	-14.12
4115.694	-13.12
4118.115	-9.46
4120.535	-28.12
4122.954	-28.46
4125.37	-28.79
4127.785	-30.79
4130.198	-27.79
4132.609	-29.46
4135.019	-29.46
4137.427	-30.79
4139.833	-29.46
4142.237	-27.79
