Data from Tap water 5ml (I=.5_T=5x3)_RamanShift_1.txt Node
Date: Mon May 29 14:39:43 IDT 2017
User: aro
Spectrometer: QEPB0276
Trigger mode: 0
Integration Time (sec): 5.000000E0
Scans to average: 3
Electric dark correction enabled: true
Nonlinearity correction enabled: false
Boxcar width: 0
XAxis mode: Raman Shifts
Number of Pixels in Spectrum: 1044
>>>>>Begin Spectral Data<<<<<
160.701	-13.5
166.742	-0.17
172.777	46.17
178.805	190.17
184.826	550.5
190.841	1155.83
196.849	1856.5
202.85	2313.5
208.845	2432.17
214.833	2350.5
220.815	2226.17
226.789	2157.17
232.758	2086.17
238.719	2006.17
244.674	1914.5
250.623	1819.5
256.565	1726.83
262.5	1632.83
268.429	1543.17
274.351	1465.17
280.267	1401.83
286.176	1335.5
292.079	1284.17
297.975	1238.17
303.865	1189.83
309.748	1155.5
315.625	1129.5
321.495	1109.5
327.359	1095.83
333.217	1074.17
339.068	1073.83
344.912	1064.5
350.751	1050.5
356.583	1044.83
362.408	1046.17
368.227	1045.17
374.04	1063.17
379.847	1059.17
385.647	1073.5
391.44	1068.17
397.228	1068.5
403.009	1074.83
408.784	1092.83
414.553	1107.83
420.315	1142.83
426.071	1141.5
431.821	1104.83
437.565	1076.17
443.302	1068.5
449.033	1056.5
454.758	1051.17
460.477	1039.83
466.189	1033.17
471.896	1025.17
477.596	1016.83
483.29	1016.83
488.978	1003.83
494.66	991.17
500.335	968.17
506.005	967.5
511.668	942.17
517.325	921.17
522.977	905.5
528.622	891.5
534.261	882.5
539.894	862.83
545.521	860.5
551.141	847.17
556.756	835.17
562.365	826.83
567.968	824.5
573.565	819.17
579.155	812.17
584.74	802.5
590.319	786.17
595.892	781.17
601.459	775.5
607.02	761.83
612.575	754.83
618.124	745.83
623.667	738.17
629.204	735.83
634.735	719.5
640.261	725.17
645.781	732.83
651.294	725.83
656.802	708.5
662.304	691.17
667.8	684.17
673.29	680.83
678.775	667.5
684.254	667.5
689.726	651.83
695.193	652.83
700.655	646.5
706.11	635.83
711.56	628.5
717.004	620.5
722.442	617.5
727.874	602.83
733.301	603.5
738.722	598.17
744.137	591.83
749.547	592.83
754.951	588.83
760.349	588.5
765.741	573.83
771.128	579.83
776.509	567.83
781.885	564.83
787.254	560.5
792.618	549.5
797.977	541.83
803.33	534.5
808.677	529.83
814.019	522.83
819.355	511.83
824.686	504.17
830.011	497.83
835.33	485.5
840.644	482.83
845.952	478.83
851.255	472.17
856.552	466.5
861.844	461.5
867.13	453.83
872.41	444.5
877.686	437.5
882.955	427.5
888.219	416.17
893.478	411.83
898.731	401.83
903.979	394.17
909.221	383.5
914.458	380.17
919.69	373.83
924.916	373.5
930.136	365.5
935.351	360.5
940.561	357.17
945.766	355.17
950.965	352.17
956.158	345.83
961.347	337.17
966.529	328.17
971.707	319.83
976.879	316.5
982.046	311.5
987.208	310.17
992.364	312.17
997.515	307.5
1002.66	310.17
1007.801	316.17
1012.936	308.5
1018.066	313.83
1023.19	311.83
1028.309	311.5
1033.423	310.5
1038.532	307.83
1043.636	301.83
1048.734	298.83
1053.827	296.5
1058.915	292.17
1063.998	286.5
1069.075	286.83
1074.147	281.5
1079.214	285.5
1084.276	285.5
1089.333	283.83
1094.385	284.5
1099.431	286.5
1104.472	283.17
1109.509	285.83
1114.54	281.17
1119.565	275.5
1124.586	269.17
1129.602	268.5
1134.613	264.83
1139.618	262.5
1144.619	259.5
1149.614	263.17
1154.604	266.83
1159.589	264.17
1164.57	263.83
1169.545	268.5
1174.515	264.83
1179.48	256.5
1184.44	258.5
1189.395	257.5
1194.345	257.83
1199.29	250.5
1204.23	253.17
1209.165	254.83
1214.095	262.17
1219.021	261.17
1223.941	259.5
1228.856	261.83
1233.766	260.83
1238.672	259.5
1243.572	264.5
1248.467	256.83
1253.358	249.83
1258.244	244.5
1263.124	244.5
1268	239.83
1272.871	233.17
1277.737	234.17
1282.599	227.17
1287.455	230.83
1292.306	233.5
1297.153	232.83
1301.995	230.17
1306.832	237.17
1311.664	234.83
1316.491	230.83
1321.314	230.17
1326.132	226.5
1330.945	225.5
1335.753	217.83
1340.556	216.5
1345.354	210.5
1350.148	209.5
1354.937	206.5
1359.722	205.83
1364.501	204.17
1369.276	198.17
1374.046	198.17
1378.811	201.5
1383.572	198.5
1388.327	198.17
1393.079	193.5
1397.825	190.5
1402.567	189.17
1407.304	186.5
1412.036	184.17
1416.764	185.17
1421.487	184.5
1426.205	179.17
1430.919	181.17
1435.628	186.5
1440.333	188.17
1445.032	194.5
1449.727	192.83
1454.418	192.17
1459.104	185.5
1463.785	186.83
1468.462	183.5
1473.134	182.83
1477.802	185.5
1482.465	182.17
1487.123	185.5
1491.777	185.17
1496.426	183.17
1501.071	188.83
1505.711	191.5
1510.347	199.5
1514.978	203.17
1519.604	202.83
1524.226	204.5
1528.844	204.5
1533.457	206.83
1538.065	208.5
1542.669	208.5
1547.269	208.83
1551.864	211.17
1556.454	216.5
1561.041	222.17
1565.622	227.83
1570.199	233.83
1574.772	243.5
1579.34	251.83
1583.904	265.17
1588.464	273.83
1593.019	283.5
1597.569	293.17
1602.115	303.17
1606.657	316.83
1611.195	321.83
1615.728	334.5
1620.256	345.83
1624.78	350.5
1629.3	368.5
1633.816	374.83
1638.327	382.5
1642.834	397.5
1647.336	392.83
1651.834	393.5
1656.328	381.17
1660.817	377.5
1665.302	366.83
1669.783	355.83
1674.259	336.5
1678.732	318.83
1683.199	300.83
1687.663	281.83
1692.122	259.83
1696.577	243.83
1701.028	222.5
1705.474	207.83
1709.917	195.17
1714.355	178.17
1718.788	169.5
1723.218	155.83
1727.643	149.17
1732.064	138.83
1736.481	125.5
1740.893	119.17
1745.301	109.17
1749.705	100.17
1754.105	91.5
1758.501	86.5
1762.893	80.5
1767.28	75.17
1771.663	73.17
1776.042	69.5
1780.417	66.83
1784.787	66.83
1789.154	65.17
1793.516	61.83
1797.874	60.83
1802.228	57.83
1806.578	56.17
1810.924	54.5
1815.266	51.17
1819.603	43.5
1823.937	46.17
1828.266	46.17
1832.591	43.5
1836.913	42.17
1841.23	40.5
1845.543	39.5
1849.852	41.17
1854.156	39.83
1858.457	41.17
1862.754	39.83
1867.047	41.83
1871.335	41.83
1875.62	40.17
1879.9	40.5
1884.177	41.83
1888.449	42.5
1892.718	43.17
1896.982	39.5
1901.243	40.5
1905.499	41.83
1909.752	41.83
1914	41.17
1918.245	40.83
1922.485	42.17
1926.722	44.17
1930.954	42.83
1935.183	45.17
1939.408	48.5
1943.628	44.83
1947.845	45.5
1952.058	47.5
1956.267	44.17
1960.472	44.83
1964.673	44.17
1968.87	41.5
1973.063	42.83
1977.252	39.17
1981.438	43.17
1985.619	43.83
1989.797	44.17
1993.971	43.17
1998.14	43.17
2002.306	48.17
2006.469	43.83
2010.627	47.5
2014.781	52.17
2018.932	48.83
2023.078	49.17
2027.221	48.17
2031.36	47.5
2035.495	49.83
2039.627	45.5
2043.754	49.17
2047.878	50.5
2051.998	52.17
2056.114	53.83
2060.226	49.83
2064.334	53.17
2068.439	51.5
2072.54	53.17
2076.637	52.5
2080.73	56.83
2084.82	57.5
2088.906	56.17
2092.988	57.5
2097.066	55.17
2101.14	54.5
2105.211	54.83
2109.278	56.5
2113.342	54.83
2117.401	52.83
2121.457	49.83
2125.509	50.17
2129.558	49.83
2133.602	50.83
2137.643	50.17
2141.681	46.17
2145.714	44.17
2149.744	44.17
2153.77	41.83
2157.793	41.83
2161.812	35.5
2165.827	35.5
2169.838	36.17
2173.846	30.83
2177.851	35.17
2181.851	32.83
2185.848	27.83
2189.841	26.83
2193.831	25.83
2197.817	24.5
2201.799	21.83
2205.778	22.5
2209.753	18.83
2213.725	19.5
2217.693	19.17
2221.657	17.5
2225.618	16.17
2229.575	17.17
2233.529	13.83
2237.479	13.17
2241.425	11.17
2245.368	9.17
2249.307	4.5
2253.243	5.17
2257.175	5.83
2261.104	0.83
2265.029	1.83
2268.95	1.17
2272.868	-1.17
2276.783	-1.17
2280.694	-0.17
2284.601	-4.5
2288.505	-3.83
2292.405	-5.83
2296.302	-6.83
2300.195	-8.17
2304.085	-7.5
2307.971	-10.83
2311.854	-12.83
2315.734	-12.17
2319.609	-11.5
2323.482	-13.83
2327.351	-14.83
2331.216	-15.17
2335.078	-15.17
2338.937	-18.5
2342.792	-17.83
2346.643	-17.83
2350.492	-16.83
2354.336	-18.5
2358.178	-18.17
2362.015	-16.83
2365.85	-17.5
2369.681	-18.17
2373.508	-20.5
2377.333	-21.83
2381.153	-19.17
2384.971	-22.17
2388.785	-20.5
2392.595	-20.5
2396.402	-20.83
2400.206	-19.17
2404.007	-22.83
2407.804	-23.5
2411.597	-25.83
2415.388	-22.5
2419.174	-22.83
2422.958	-21.17
2426.738	-25.17
2430.515	-26.5
2434.289	-26.5
2438.059	-25.83
2441.825	-25.17
2445.589	-27.5
2449.349	-26.17
2453.106	-26.83
2456.859	-28.83
2460.61	-30.83
2464.356	-26.5
2468.1	-29.17
2471.84	-29.5
2475.577	-27.83
2479.311	-29.17
2483.041	-30.17
2486.768	-29.83
2490.492	-30.5
2494.213	-29.17
2497.93	-28.5
2501.644	-30.5
2505.355	-28.5
2509.062	-28.83
2512.766	-29.5
2516.467	-29.17
2520.165	-32.5
2523.859	-31.17
2527.551	-32.17
2531.239	-29.83
2534.923	-29.5
2538.605	-30.83
2542.283	-33.17
2545.958	-32.17
2549.63	-31.5
2553.299	-31.83
2556.964	-31.17
2560.626	-33.5
2564.285	-31.5
2567.941	-33.17
2571.594	-33.17
2575.243	-32.17
2578.89	-33.83
2582.533	-32.5
2586.173	-32.83
2589.809	-34.83
2593.443	-33.17
2597.073	-36.17
2600.701	-34.83
2604.325	-35.83
2607.946	-35.83
2611.564	-32.5
2615.178	-34.83
2618.79	-34.83
2622.398	-32.17
2626.004	-33.83
2629.606	-32.83
2633.205	-31.83
2636.801	-34.83
2640.394	-33.83
2643.983	-33.17
2647.57	-32.5
2651.153	-36.5
2654.734	-34.5
2658.311	-35.17
2661.885	-35.17
2665.456	-35.83
2669.025	-34.17
2672.589	-32.5
2676.151	-32.83
2679.71	-32.83
2683.266	-34.17
2686.819	-32.5
2690.368	-32.5
2693.915	-33.5
2697.458	-31.83
2700.999	-33.17
2704.536	-33.83
2708.071	-33.83
2711.602	-33.5
2715.13	-34.5
2718.656	-33.5
2722.178	-31.5
2725.697	-30.83
2729.214	-33.17
2732.727	-30.5
2736.237	-30.83
2739.744	-31.83
2743.249	-32.17
2746.75	-30.5
2750.248	-28.5
2753.743	-28.5
2757.236	-27.5
2760.725	-27.83
2764.211	-27.17
2767.695	-27.83
2771.175	-28.5
2774.652	-26.83
2778.127	-26.5
2781.598	-24.83
2785.067	-26.17
2788.532	-23.17
2791.995	-25.5
2795.455	-22.17
2798.911	-23.17
2802.365	-18.5
2805.816	-21.17
2809.264	-19.17
2812.709	-18.5
2816.151	-17.83
2819.59	-18.5
2823.026	-17.83
2826.46	-14.5
2829.89	-17.5
2833.318	-14.83
2836.742	-13.17
2840.164	-10.5
2843.583	-11.5
2846.999	-10.5
2850.412	-8.5
2853.822	-6.5
2857.229	-4.83
2860.634	-1.17
2864.035	-0.17
2867.434	-1.83
2870.83	1.83
2874.223	2.17
2877.613	2.83
2881	7.5
2884.385	4.5
2887.766	7.83
2891.145	8.83
2894.521	10.5
2897.894	11.5
2901.264	11.17
2904.631	13.17
2907.996	17.5
2911.358	20.83
2914.717	18.83
2918.073	23.5
2921.426	25.5
2924.777	30.5
2928.124	32.83
2931.469	33.5
2934.811	36.17
2938.15	41.83
2941.487	40.17
2944.821	45.83
2948.152	49.17
2951.48	48.83
2954.805	50.17
2958.128	58.83
2961.447	59.17
2964.765	62.17
2968.079	64.17
2971.39	68.83
2974.699	74.5
2978.005	77.83
2981.308	84.17
2984.609	89.17
2987.907	94.5
2991.202	101.83
2994.494	107.5
2997.784	111.17
3001.07	114.5
3004.355	121.17
3007.636	125.83
3010.915	127.5
3014.191	135.17
3017.464	140.83
3020.734	142.5
3024.002	144.5
3027.267	151.5
3030.53	154.5
3033.789	162.83
3037.046	163.5
3040.301	169.5
3043.552	176.17
3046.801	187.83
3050.048	191.5
3053.291	197.83
3056.532	208.5
3059.771	216.83
3063.006	227.83
3066.239	236.17
3069.469	247.17
3072.697	256.5
3075.922	267.83
3079.144	274.83
3082.364	289.83
3085.581	295.83
3088.795	303.83
3092.007	310.83
3095.216	322.5
3098.423	329.5
3101.627	338.17
3104.828	351.17
3108.026	356.5
3111.222	368.17
3114.416	379.5
3117.607	390.5
3120.795	398.83
3123.98	416.5
3127.163	426.5
3130.344	437.83
3133.521	450.17
3136.696	459.17
3139.869	475.83
3143.039	482.83
3146.206	487.83
3149.371	495.17
3152.533	502.17
3155.693	510.17
3158.85	512.17
3162.005	518.83
3165.157	518.5
3168.306	517.5
3171.453	523.5
3174.597	527.83
3177.739	533.5
3180.878	536.17
3184.014	535.5
3187.149	532.17
3190.28	541.17
3193.409	540.83
3196.536	550.17
3199.659	549.17
3202.781	552.5
3205.9	551.17
3209.016	549.5
3212.13	554.83
3215.241	551.17
3218.35	546.5
3221.456	547.83
3224.56	541.83
3227.661	531.5
3230.76	529.17
3233.856	522.83
3236.95	530.83
3240.041	517.5
3243.13	518.83
3246.216	508.17
3249.3	513.5
3252.382	510.5
3255.46	509.17
3258.537	505.5
3261.611	510.83
3264.682	501.83
3267.751	507.5
3270.818	506.5
3273.882	497.17
3276.943	498.5
3280.002	488.5
3283.059	483.83
3286.113	480.83
3289.165	472.83
3292.214	469.17
3295.261	459.83
3298.306	452.5
3301.348	451.17
3304.387	442.83
3307.425	438.17
3310.459	427.83
3313.492	428.5
3316.521	420.17
3319.549	419.17
3322.574	413.5
3325.597	411.17
3328.617	410.5
3331.635	405.17
3334.65	405.83
3337.663	408.17
3340.674	402.83
3343.682	405.5
3346.688	399.83
3349.691	397.83
3352.692	402.17
3355.691	391.17
3358.687	395.83
3361.681	389.17
3364.673	389.5
3367.662	381.83
3370.649	375.5
3373.633	371.83
3376.615	367.5
3379.595	360.5
3382.572	362.17
3385.547	353.83
3388.52	354.83
3391.49	342.83
3394.458	339.17
3397.424	337.17
3400.387	328.83
3403.348	328.17
3406.307	324.17
3409.263	324.17
3412.217	319.83
3415.168	313.17
3418.118	313.83
3421.065	310.5
3424.009	303.83
3426.951	298.83
3429.891	293.17
3432.829	291.17
3435.764	282.83
3438.697	282.83
3441.628	273.17
3444.557	269.5
3447.483	258.5
3450.407	250.17
3453.328	245.83
3456.247	239.5
3459.164	229.17
3462.079	227.17
3464.991	213.83
3467.902	210.5
3470.809	200.83
3473.715	199.83
3476.618	193.5
3479.519	189.17
3482.418	181.5
3485.315	175.5
3488.209	168.83
3491.101	168.83
3493.99	158.83
3496.878	158.83
3499.763	154.17
3502.646	148.17
3505.527	144.17
3508.405	140.5
3511.281	134.17
3514.155	127.5
3517.027	120.5
3519.897	113.83
3522.764	107.83
3525.629	99.5
3528.492	95.5
3531.352	89.17
3534.211	87.5
3537.067	80.5
3539.921	75.5
3542.773	71.17
3545.622	70.17
3548.469	59.17
3551.315	60.5
3554.157	56.5
3556.998	49.17
3559.837	46.5
3562.673	43.17
3565.507	40.83
3568.339	38.5
3571.169	37.83
3573.996	32.17
3576.822	31.17
3579.645	27.5
3582.466	24.83
3585.285	23.83
3588.101	19.5
3590.916	15.17
3593.728	13.83
3596.538	10.5
3599.346	6.17
3602.152	5.83
3604.956	3.5
3607.757	2.5
3610.556	-0.5
3613.354	-3.17
3616.149	-3.5
3618.942	-7.83
3621.732	-9.17
3624.521	-11.5
3627.307	-10.17
3630.092	-12.83
3632.874	-14.83
3635.654	-14.83
3638.432	-17.5
3641.208	-15.5
3643.982	-20.17
3646.753	-18.83
3649.523	-23.17
3652.29	-22.17
3655.055	-25.83
3657.818	-26.83
3660.579	-26.5
3663.338	-27.17
3666.095	-28.5
3668.849	-29.83
3671.602	-30.17
3674.352	-30.5
3677.101	-33.5
3679.847	-34.83
3682.591	-35.83
3685.333	-37.83
3688.073	-36.5
3690.811	-41.5
3693.547	-36.83
3696.281	-40.17
3699.013	-40.17
3701.742	-39.83
3704.47	-40.5
3707.195	-44.17
3709.919	-42.17
3712.64	-44.5
3715.359	-42.5
3718.076	-44.5
3720.792	-46.17
3723.505	-47.5
3726.216	-45.17
3728.925	-48.17
3731.632	-46.83
3734.336	-47.5
3737.039	-46.17
3739.74	-47.83
3742.439	-48.83
3745.136	-50.17
3747.83	-51.17
3750.523	-50.5
3753.213	-46.5
3755.902	-51.17
3758.589	-49.83
3761.273	-49.5
3763.956	-51.17
3766.636	-50.5
3769.315	-50.83
3771.991	-52.17
3774.665	-50.83
3777.338	-51.83
3780.008	-51.83
3782.677	-51.83
3785.343	-54.17
3788.007	-51.83
3790.67	-52.5
3793.33	-51.17
3795.989	-52.5
3798.645	-53.83
3801.299	-54.5
3803.952	-51.17
3806.602	-53.5
3809.251	-53.17
3811.897	-53.5
3814.542	-54.5
3817.184	-53.5
3819.825	-52.5
3822.463	-53.17
3825.1	-56.17
3827.735	-53.17
3830.367	-53.83
3832.998	-54.17
3835.627	-53.5
3838.253	-53.83
3840.878	-54.17
3843.501	-53.83
3846.122	-52.83
3848.741	-54.5
3851.358	-52.5
3853.973	-55.83
3856.586	-55.5
3859.197	-55.5
3861.806	-54.17
3864.414	-53.83
3867.019	-52.83
3869.622	-51.17
3872.224	-53.83
3874.823	-52.5
3877.421	-50.17
3880.016	-46.83
3882.61	-44.5
3885.202	-44.17
3887.792	-47.83
3890.38	-50.83
3892.966	-50.5
3895.55	-55.17
3898.132	-54.83
3900.713	-58.17
3903.291	-54.5
3905.868	-53.83
3908.442	-56.17
3911.015	-55.83
3913.586	-56.5
3916.155	-55.5
3918.722	-56.83
3921.287	-55.83
3923.85	-57.5
3926.411	-56.5
3928.971	-55.83
3931.528	-55.17
3934.084	-56.5
3936.638	-56.83
3939.19	-54.83
3941.74	-55.17
3944.288	-55.17
3946.834	-56.5
3949.378	-54.5
3951.921	-57.17
3954.462	-56.17
3957	-57.5
3959.537	-56.83
3962.072	-55.83
3964.606	-56.83
3967.137	-56.5
3969.667	-55.5
3972.194	-57.83
3974.72	-55.83
3977.244	-55.83
3979.766	-56.5
3982.286	-56.83
3984.805	-56.17
3987.321	-54.17
3989.836	-56.83
3992.349	-56.83
3994.86	-55.83
3997.369	-55.5
3999.877	-57.17
4002.382	-55.5
4004.886	-55.83
4007.388	-57.17
4009.888	-54.5
4012.386	-56.17
4014.883	-54.83
4017.377	-56.5
4019.87	-55.5
4022.361	-55.83
4024.85	-55.5
4027.338	-56.17
4029.823	-55.17
4032.307	-56.83
4034.789	-55.17
4037.269	-54.17
4039.747	-56.83
4042.224	-57.83
4044.699	-58.17
4047.172	-56.17
4049.643	-55.83
4052.112	-56.17
4054.58	-54.5
4057.046	-54.5
4059.51	-57.17
4061.972	-55.83
4064.432	-55.83
4066.891	-56.5
4069.348	-55.5
4071.803	-55.17
4074.256	-53.83
4076.708	-55.5
4079.158	-55.5
4081.606	-57.17
4084.052	-55.5
4086.497	-56.17
4088.939	-54.17
4091.38	-55.17
4093.819	-55.83
4096.257	-56.5
4098.693	-56.83
4101.127	-58.5
4103.559	-57.17
4105.989	-34.83
4108.418	-33.17
4110.845	-33.5
4113.27	-31.5
4115.694	-27.17
4118.115	-24.17
4120.535	-52.5
4122.954	-53.83
4125.37	-54.5
4127.785	-55.5
4130.198	-54.83
4132.609	-54.17
4135.019	-54.17
4137.427	-56.5
4139.833	-56.5
4142.237	-55.5
