Data from Tap water 3ml (I=1_T=5x3)_RamanShift_1.txt Node
Date: Mon May 29 14:00:07 IDT 2017
User: aro
Spectrometer: QEPB0276
Trigger mode: 0
Integration Time (sec): 5.000000E0
Scans to average: 3
Electric dark correction enabled: true
Nonlinearity correction enabled: false
Boxcar width: 0
XAxis mode: Raman Shifts
Number of Pixels in Spectrum: 1044
>>>>>Begin Spectral Data<<<<<
160.701	-38.04
166.742	0.62
172.777	118.29
178.805	502.96
184.826	1426.96
190.841	3002.62
196.849	4809.96
202.85	5982.62
208.845	6243.96
214.833	6036.96
220.815	5783.29
226.789	5576.29
232.758	5382.96
238.719	5194.62
244.674	4976.62
250.623	4727.29
256.565	4473.29
262.5	4239.29
268.429	4021.62
274.351	3834.62
280.267	3662.96
286.176	3508.29
292.079	3381.29
297.975	3251.96
303.865	3138.96
309.748	3060.62
315.625	2982.96
321.495	2914.29
327.359	2868.62
333.217	2835.96
339.068	2817.62
344.912	2801.29
350.751	2769.96
356.583	2784.29
362.408	2778.96
368.227	2778.29
374.04	2785.62
379.847	2825.62
385.647	2840.29
391.44	2837.29
397.228	2839.29
403.009	2838.29
408.784	2872.62
414.553	2951.96
420.315	3034.29
426.071	3019.29
431.821	2942.62
437.565	2845.29
443.302	2830.29
449.033	2795.62
454.758	2765.62
460.477	2742.62
466.189	2730.29
471.896	2707.62
477.596	2680.62
483.29	2665.29
488.978	2644.29
494.66	2622.96
500.335	2575.29
506.005	2536.29
511.668	2483.62
517.325	2429.62
522.977	2389.62
528.622	2335.62
534.261	2314.96
539.894	2283.62
545.521	2268.29
551.141	2236.96
556.756	2205.96
562.365	2198.62
567.968	2173.62
573.565	2148.62
579.155	2137.29
584.74	2109.96
590.319	2097.29
595.892	2060.29
601.459	2037.62
607.02	2023.29
612.575	1994.29
618.124	1966.29
623.667	1946.96
629.204	1929.29
634.735	1910.29
640.261	1897.62
645.781	1923.62
651.294	1913.29
656.802	1881.96
662.304	1837.62
667.8	1805.29
673.29	1802.62
678.775	1777.29
684.254	1757.62
689.726	1737.62
695.193	1714.96
700.655	1714.29
706.11	1676.96
711.56	1657.29
717.004	1634.62
722.442	1634.29
727.874	1604.29
733.301	1603.62
738.722	1592.96
744.137	1572.62
749.547	1570.29
754.951	1569.29
760.349	1555.29
765.741	1527.62
771.128	1525.29
776.509	1510.29
781.885	1496.62
787.254	1487.29
792.618	1473.62
797.977	1447.29
803.33	1439.62
808.677	1405.96
814.019	1393.62
819.355	1366.62
824.686	1346.96
830.011	1323.62
835.33	1307.29
840.644	1290.29
845.952	1280.29
851.255	1271.29
856.552	1246.96
861.844	1230.29
867.13	1215.96
872.41	1194.29
877.686	1176.62
882.955	1147.96
888.219	1124.96
893.478	1093.29
898.731	1068.29
903.979	1042.96
909.221	1029.96
914.458	1010.96
919.69	1000.29
924.916	986.96
930.136	978.29
935.351	979.29
940.561	960.29
945.766	947.29
950.965	943.96
956.158	923.96
961.347	915.29
966.529	884.62
971.707	866.29
976.879	861.29
982.046	851.29
987.208	835.96
992.364	828.62
997.515	836.29
1002.66	836.62
1007.801	837.62
1012.936	850.29
1018.066	844.96
1023.19	854.29
1028.309	847.62
1033.423	835.62
1038.532	830.96
1043.636	816.96
1048.734	810.62
1053.827	788.62
1058.915	786.96
1063.998	776.96
1069.075	769.62
1074.147	770.62
1079.214	765.29
1084.276	779.96
1089.333	785.96
1094.385	783.29
1099.431	783.62
1104.472	777.62
1109.509	771.96
1114.54	756.62
1119.565	749.62
1124.586	738.96
1129.602	726.62
1134.613	714.62
1139.618	712.62
1144.619	713.96
1149.614	713.62
1154.604	722.29
1159.589	721.29
1164.57	713.96
1169.545	724.62
1174.515	724.96
1179.48	717.96
1184.44	698.62
1189.395	703.29
1194.345	698.29
1199.29	690.96
1204.23	690.62
1209.165	694.96
1214.095	696.29
1219.021	697.62
1223.941	703.62
1228.856	711.29
1233.766	711.96
1238.672	706.62
1243.572	703.96
1248.467	693.29
1253.358	687.96
1258.244	671.96
1263.124	656.62
1268	652.62
1272.871	641.29
1277.737	631.96
1282.599	627.62
1287.455	629.29
1292.306	620.62
1297.153	634.29
1301.995	633.96
1306.832	640.62
1311.664	638.96
1316.491	630.96
1321.314	632.62
1326.132	616.62
1330.945	605.96
1335.753	587.62
1340.556	575.96
1345.354	564.62
1350.148	560.29
1354.937	545.96
1359.722	546.96
1364.501	548.96
1369.276	540.29
1374.046	544.96
1378.811	539.29
1383.572	540.96
1388.327	541.29
1393.079	528.62
1397.825	527.29
1402.567	511.96
1407.304	505.29
1412.036	501.29
1416.764	507.29
1421.487	505.62
1426.205	500.96
1430.919	501.96
1435.628	508.62
1440.333	508.29
1445.032	520.29
1449.727	519.29
1454.418	520.29
1459.104	517.62
1463.785	517.29
1468.462	507.29
1473.134	502.29
1477.802	492.96
1482.465	496.62
1487.123	490.96
1491.777	500.29
1496.426	502.29
1501.071	510.62
1505.711	518.96
1510.347	531.29
1514.978	539.29
1519.604	547.29
1524.226	549.29
1528.844	553.29
1533.457	561.62
1538.065	556.96
1542.669	570.29
1547.269	569.96
1551.864	584.62
1556.454	594.96
1561.041	608.29
1565.622	622.62
1570.199	640.29
1574.772	666.62
1579.34	695.96
1583.904	715.96
1588.464	745.29
1593.019	770.29
1597.569	791.29
1602.115	822.29
1606.657	845.96
1611.195	868.96
1615.728	895.96
1620.256	915.29
1624.78	954.96
1629.3	980.29
1633.816	1008.62
1638.327	1019.96
1642.834	1039.96
1647.336	1054.62
1651.834	1042.96
1656.328	1024.96
1660.817	1000.62
1665.302	978.96
1669.783	942.29
1674.259	895.96
1678.732	841.62
1683.199	800.62
1687.663	735.62
1692.122	694.62
1696.577	640.96
1701.028	600.62
1705.474	556.29
1709.917	526.96
1714.355	497.62
1718.788	462.29
1723.218	437.96
1727.643	413.29
1732.064	379.96
1736.481	355.29
1740.893	328.96
1745.301	306.29
1749.705	283.29
1754.105	268.96
1758.501	251.29
1762.893	234.62
1767.28	217.96
1771.663	209.96
1776.042	198.96
1780.417	189.29
1784.787	186.96
1789.154	182.96
1793.516	179.62
1797.874	173.29
1802.228	172.62
1806.578	160.29
1810.924	155.96
1815.266	152.96
1819.603	143.62
1823.937	137.62
1828.266	135.62
1832.591	130.96
1836.913	125.29
1841.23	128.62
1845.543	127.29
1849.852	123.96
1854.156	124.62
1858.457	125.96
1862.754	127.29
1867.047	128.62
1871.335	127.29
1875.62	122.62
1879.9	124.96
1884.177	129.29
1888.449	120.29
1892.718	122.96
1896.982	124.62
1901.243	120.29
1905.499	120.96
1909.752	121.29
1914	121.96
1918.245	126.29
1922.485	121.62
1926.722	125.62
1930.954	125.29
1935.183	137.29
1939.408	134.62
1943.628	134.29
1947.845	134.62
1952.058	135.29
1956.267	132.29
1960.472	135.96
1964.673	131.96
1968.87	125.96
1973.063	127.62
1977.252	125.62
1981.438	130.29
1985.619	128.96
1989.797	128.62
1993.971	132.62
1998.14	132.29
2002.306	133.96
2006.469	140.96
2010.627	138.96
2014.781	143.62
2018.932	141.29
2023.078	146.62
2027.221	140.29
2031.36	141.62
2035.495	141.96
2039.627	142.62
2043.754	142.96
2047.878	144.96
2051.998	147.29
2056.114	146.29
2060.226	145.62
2064.334	148.29
2068.439	154.29
2072.54	157.96
2076.637	154.29
2080.73	164.62
2084.82	161.62
2088.906	167.29
2092.988	166.96
2097.066	159.96
2101.14	156.29
2105.211	155.96
2109.278	153.29
2113.342	149.62
2117.401	148.62
2121.457	144.96
2125.509	140.62
2129.558	139.29
2133.602	139.62
2137.643	139.29
2141.681	132.29
2145.714	131.29
2149.744	131.96
2153.77	126.96
2157.793	124.62
2161.812	121.29
2165.827	111.62
2169.838	109.29
2173.846	103.96
2177.851	95.96
2181.851	92.96
2185.848	89.29
2189.841	84.62
2193.831	78.29
2197.817	73.62
2201.799	72.96
2205.778	74.62
2209.753	71.29
2213.725	63.62
2217.693	64.62
2221.657	61.29
2225.618	58.62
2229.575	54.96
2233.529	51.62
2237.479	47.29
2241.425	44.62
2245.368	37.96
2249.307	33.29
2253.243	32.62
2257.175	28.29
2261.104	18.62
2265.029	14.96
2268.95	15.29
2272.868	10.29
2276.783	6.96
2280.694	8.62
2284.601	1.29
2288.505	2.62
2292.405	-5.04
2296.302	-6.04
2300.195	-8.71
2304.085	-9.71
2307.971	-14.04
2311.854	-15.04
2315.734	-19.71
2319.609	-23.71
2323.482	-25.04
2327.351	-26.71
2331.216	-26.04
2335.078	-25.71
2338.937	-31.38
2342.792	-32.38
2346.643	-33.71
2350.492	-33.71
2354.336	-36.04
2358.178	-34.38
2362.015	-35.04
2365.85	-36.71
2369.681	-36.04
2373.508	-39.71
2377.333	-39.04
2381.153	-38.38
2384.971	-39.71
2388.785	-42.04
2392.595	-41.71
2396.402	-43.71
2400.206	-44.71
2404.007	-45.71
2407.804	-47.38
2411.597	-49.71
2415.388	-47.71
2419.174	-49.38
2422.958	-45.38
2426.738	-50.04
2430.515	-52.04
2434.289	-55.38
2438.059	-52.38
2441.825	-53.04
2445.589	-55.71
2449.349	-56.71
2453.106	-59.38
2456.859	-56.71
2460.61	-63.04
2464.356	-60.38
2468.1	-61.71
2471.84	-60.38
2475.577	-62.38
2479.311	-63.38
2483.041	-64.71
2486.768	-62.04
2490.492	-65.04
2494.213	-66.04
2497.93	-61.38
2501.644	-66.04
2505.355	-65.04
2509.062	-64.04
2512.766	-65.38
2516.467	-66.71
2520.165	-66.71
2523.859	-69.38
2527.551	-70.71
2531.239	-69.71
2534.923	-70.38
2538.605	-69.71
2542.283	-70.71
2545.958	-69.71
2549.63	-68.04
2553.299	-69.38
2556.964	-71.38
2560.626	-74.04
2564.285	-74.04
2567.941	-74.04
2571.594	-72.71
2575.243	-72.04
2578.89	-75.04
2582.533	-75.71
2586.173	-75.38
2589.809	-75.71
2593.443	-77.38
2597.073	-77.04
2600.701	-79.71
2604.325	-76.71
2607.946	-80.04
2611.564	-78.38
2615.178	-78.38
2618.79	-78.04
2622.398	-77.71
2626.004	-76.38
2629.606	-78.38
2633.205	-77.38
2636.801	-77.38
2640.394	-80.38
2643.983	-79.04
2647.57	-78.04
2651.153	-81.04
2654.734	-77.38
2658.311	-79.04
2661.885	-79.04
2665.456	-82.38
2669.025	-79.38
2672.589	-78.71
2676.151	-78.38
2679.71	-78.71
2683.266	-78.71
2686.819	-79.38
2690.368	-76.04
2693.915	-75.04
2697.458	-76.38
2700.999	-78.71
2704.536	-78.04
2708.071	-78.04
2711.602	-76.71
2715.13	-77.04
2718.656	-75.38
2722.178	-76.71
2725.697	-75.38
2729.214	-72.04
2732.727	-72.04
2736.237	-73.04
2739.744	-73.38
2743.249	-70.71
2746.75	-68.38
2750.248	-66.04
2753.743	-68.71
2757.236	-65.71
2760.725	-64.71
2764.211	-64.04
2767.695	-65.71
2771.175	-61.38
2774.652	-62.71
2778.127	-60.71
2781.598	-60.38
2785.067	-58.38
2788.532	-54.38
2791.995	-51.71
2795.455	-50.04
2798.911	-50.71
2802.365	-46.38
2805.816	-46.71
2809.264	-44.04
2812.709	-41.04
2816.151	-38.38
2819.59	-34.71
2823.026	-36.38
2826.46	-30.71
2829.89	-32.71
2833.318	-23.04
2836.742	-23.71
2840.164	-20.71
2843.583	-15.04
2846.999	-14.38
2850.412	-13.04
2853.822	-7.71
2857.229	-4.04
2860.634	1.29
2864.035	4.29
2867.434	6.29
2870.83	12.96
2874.223	14.29
2877.613	18.62
2881	25.96
2884.385	26.62
2887.766	31.62
2891.145	35.62
2894.521	35.29
2897.894	43.29
2901.264	45.29
2904.631	47.62
2907.996	54.96
2911.358	62.29
2914.717	60.96
2918.073	64.29
2921.426	73.29
2924.777	83.29
2928.124	84.96
2931.469	91.62
2934.811	101.29
2938.15	105.96
2941.487	113.29
2944.821	123.29
2948.152	127.62
2951.48	136.96
2954.805	140.96
2958.128	147.62
2961.447	154.96
2964.765	161.29
2968.079	170.29
2971.39	175.29
2974.699	190.29
2978.005	203.29
2981.308	213.29
2984.609	229.96
2987.907	239.96
2991.202	252.29
2994.494	272.62
2997.784	282.62
3001.07	294.29
3004.355	308.29
3007.636	320.62
3010.915	332.96
3014.191	342.29
3017.464	354.62
3020.734	363.62
3024.002	372.29
3027.267	393.62
3030.53	401.29
3033.789	412.62
3037.046	423.62
3040.301	442.29
3043.552	459.29
3046.801	477.29
3050.048	497.29
3053.291	510.29
3056.532	538.62
3059.771	557.96
3063.006	577.29
3066.239	595.29
3069.469	628.29
3072.697	660.96
3075.922	671.96
3079.144	701.29
3082.364	719.96
3085.581	735.96
3088.795	767.96
3092.007	786.29
3095.216	804.96
3098.423	829.96
3101.627	856.96
3104.828	887.29
3108.026	902.29
3111.222	928.96
3114.416	958.29
3117.607	986.96
3120.795	1014.62
3123.98	1037.62
3127.163	1070.62
3130.344	1096.96
3133.521	1131.62
3136.696	1159.62
3139.869	1185.29
3143.039	1208.29
3146.206	1229.29
3149.371	1245.29
3152.533	1264.96
3155.693	1282.62
3158.85	1288.29
3162.005	1293.96
3165.157	1315.29
3168.306	1315.96
3171.453	1322.29
3174.597	1329.62
3177.739	1341.29
3180.878	1346.96
3184.014	1347.29
3187.149	1357.62
3190.28	1365.29
3193.409	1374.62
3196.536	1384.62
3199.659	1397.96
3202.781	1395.96
3205.9	1394.62
3209.016	1406.96
3212.13	1406.96
3215.241	1400.96
3218.35	1393.96
3221.456	1384.29
3224.56	1376.29
3227.661	1373.96
3230.76	1356.62
3233.856	1343.62
3236.95	1331.62
3240.041	1333.29
3243.13	1317.29
3246.216	1316.62
3249.3	1312.96
3252.382	1318.62
3255.46	1316.29
3258.537	1301.96
3261.611	1294.96
3264.682	1293.62
3267.751	1294.96
3270.818	1289.62
3273.882	1282.62
3276.943	1270.29
3280.002	1269.96
3283.059	1251.29
3286.113	1248.96
3289.165	1219.29
3292.214	1200.96
3295.261	1182.96
3298.306	1169.96
3301.348	1148.29
3304.387	1143.29
3307.425	1120.96
3310.459	1108.96
3313.492	1088.96
3316.521	1069.29
3319.549	1074.29
3322.574	1068.62
3325.597	1060.29
3328.617	1053.62
3331.635	1049.62
3334.65	1047.62
3337.663	1038.29
3340.674	1035.96
3343.682	1032.29
3346.688	1025.62
3349.691	1030.29
3352.692	1018.96
3355.691	1017.29
3358.687	1013.96
3361.681	1008.29
3364.673	994.29
3367.662	983.96
3370.649	963.29
3373.633	960.29
3376.615	950.62
3379.595	934.29
3382.572	924.96
3385.547	905.96
3388.52	891.29
3391.49	889.62
3394.458	879.29
3397.424	865.96
3400.387	863.62
3403.348	845.29
3406.307	839.96
3409.263	835.62
3412.217	827.62
3415.168	816.96
3418.118	811.62
3421.065	798.96
3424.009	787.96
3426.951	779.29
3429.891	762.29
3432.829	752.62
3435.764	739.96
3438.697	721.29
3441.628	710.62
3444.557	687.29
3447.483	671.96
3450.407	654.62
3453.328	636.62
3456.247	617.96
3459.164	601.29
3462.079	577.29
3464.991	567.96
3467.902	553.96
3470.809	531.96
3473.715	518.29
3476.618	502.96
3479.519	488.96
3482.418	483.62
3485.315	461.62
3488.209	452.29
3491.101	435.96
3493.99	423.62
3496.878	415.29
3499.763	402.62
3502.646	388.29
3505.527	372.29
3508.405	361.62
3511.281	345.96
3514.155	332.62
3517.027	315.29
3519.897	297.62
3522.764	283.96
3525.629	266.29
3528.492	256.62
3531.352	240.96
3534.211	225.96
3537.067	216.62
3539.921	200.96
3542.773	192.96
3545.622	175.62
3548.469	160.96
3551.315	153.96
3554.157	149.62
3556.998	134.96
3559.837	129.62
3562.673	119.96
3565.507	113.29
3568.339	100.62
3571.169	101.62
3573.996	90.29
3576.822	82.96
3579.645	71.96
3582.466	68.62
3585.285	57.96
3588.101	53.96
3590.916	45.62
3593.728	40.96
3596.538	33.62
3599.346	23.29
3602.152	17.29
3604.956	14.29
3607.757	7.62
3610.556	4.29
3613.354	-0.71
3616.149	-9.04
3618.942	-9.04
3621.732	-17.04
3624.521	-19.38
3627.307	-21.71
3630.092	-28.04
3632.874	-34.04
3635.654	-38.71
3638.432	-43.04
3641.208	-44.38
3643.982	-46.38
3646.753	-48.04
3649.523	-53.71
3652.29	-57.04
3655.055	-60.71
3657.818	-62.38
3660.579	-67.04
3663.338	-69.71
3666.095	-76.04
3668.849	-76.04
3671.602	-80.38
3674.352	-82.71
3677.101	-87.38
3679.847	-92.38
3682.591	-91.04
3685.333	-95.04
3688.073	-97.38
3690.811	-97.38
3693.547	-100.38
3696.281	-100.04
3699.013	-105.38
3701.742	-105.38
3704.47	-107.71
3707.195	-108.71
3709.919	-108.71
3712.64	-114.04
3715.359	-112.38
3718.076	-114.71
3720.792	-117.71
3723.505	-118.04
3726.216	-119.71
3728.925	-121.04
3731.632	-122.71
3734.336	-120.38
3737.039	-122.71
3739.74	-124.71
3742.439	-126.71
3745.136	-126.38
3747.83	-128.38
3750.523	-125.71
3753.213	-125.38
3755.902	-129.04
3758.589	-128.71
3761.273	-128.38
3763.956	-130.38
3766.636	-129.04
3769.315	-131.04
3771.991	-132.38
3774.665	-130.71
3777.338	-133.04
3780.008	-133.04
3782.677	-134.38
3785.343	-133.71
3788.007	-130.38
3790.67	-135.71
3793.33	-133.71
3795.989	-137.04
3798.645	-135.04
3801.299	-137.71
3803.952	-137.38
3806.602	-138.38
3809.251	-137.71
3811.897	-138.04
3814.542	-136.04
3817.184	-136.38
3819.825	-137.04
3822.463	-136.38
3825.1	-137.71
3827.735	-138.04
3830.367	-137.38
3832.998	-139.04
3835.627	-138.04
3838.253	-138.71
3840.878	-138.04
3843.501	-139.71
3846.122	-139.38
3848.741	-138.71
3851.358	-139.04
3853.973	-140.71
3856.586	-139.71
3859.197	-141.71
3861.806	-138.04
3864.414	-139.71
3867.019	-138.38
3869.622	-138.04
3872.224	-137.38
3874.823	-134.04
3877.421	-131.04
3880.016	-126.04
3882.61	-119.38
3885.202	-117.04
3887.792	-122.38
3890.38	-129.71
3892.966	-133.04
3895.55	-141.71
3898.132	-139.71
3900.713	-141.71
3903.291	-141.38
3905.868	-139.71
3908.442	-141.38
3911.015	-140.71
3913.586	-141.71
3916.155	-144.71
3918.722	-143.71
3921.287	-142.38
3923.85	-142.71
3926.411	-144.04
3928.971	-142.38
3931.528	-141.71
3934.084	-143.71
3936.638	-145.04
3939.19	-142.71
3941.74	-142.71
3944.288	-143.71
3946.834	-144.71
3949.378	-142.71
3951.921	-144.38
3954.462	-141.38
3957	-143.38
3959.537	-142.71
3962.072	-141.71
3964.606	-143.38
3967.137	-143.71
3969.667	-143.04
3972.194	-143.71
3974.72	-142.04
3977.244	-142.38
3979.766	-142.04
3982.286	-142.71
3984.805	-142.71
3987.321	-140.71
3989.836	-143.38
3992.349	-141.71
3994.86	-140.71
3997.369	-142.38
3999.877	-141.38
4002.382	-141.38
4004.886	-140.38
4007.388	-143.04
4009.888	-140.38
4012.386	-141.71
4014.883	-142.38
4017.377	-142.38
4019.87	-142.71
4022.361	-142.71
4024.85	-142.38
4027.338	-142.38
4029.823	-143.38
4032.307	-143.71
4034.789	-143.04
4037.269	-140.71
4039.747	-142.38
4042.224	-144.04
4044.699	-144.71
4047.172	-143.04
4049.643	-142.38
4052.112	-142.04
4054.58	-142.38
4057.046	-142.04
4059.51	-144.04
4061.972	-142.71
4064.432	-143.04
4066.891	-142.71
4069.348	-141.71
4071.803	-141.38
4074.256	-140.71
4076.708	-141.38
4079.158	-143.38
4081.606	-143.04
4084.052	-143.04
4086.497	-142.71
4088.939	-143.04
4091.38	-143.71
4093.819	-141.38
4096.257	-145.71
4098.693	-144.04
4101.127	-146.71
4103.559	-147.04
4105.989	-91.71
4108.418	-90.71
4110.845	-84.38
4113.27	-80.04
4115.694	-71.71
4118.115	-59.38
4120.535	-142.38
4122.954	-141.38
4125.37	-141.04
4127.785	-142.04
4130.198	-142.04
4132.609	-142.38
4135.019	-146.38
4137.427	-146.71
4139.833	-146.04
4142.237	-144.71
