Data from Tap water 0.5ml (I=1_T=5x3)_RamanShift_1.txt Node
Date: Mon May 29 13:57:37 IDT 2017
User: aro
Spectrometer: QEPB0276
Trigger mode: 0
Integration Time (sec): 5.000000E0
Scans to average: 3
Electric dark correction enabled: true
Nonlinearity correction enabled: false
Boxcar width: 0
XAxis mode: Raman Shifts
Number of Pixels in Spectrum: 1044
>>>>>Begin Spectral Data<<<<<
160.701	2.17
166.742	6.5
172.777	18.5
178.805	54.5
184.826	154.17
190.841	309.83
196.849	480.17
202.85	598.83
208.845	626.5
214.833	612.17
220.815	595.5
226.789	580.5
232.758	576.83
238.719	575.5
244.674	554.83
250.623	546.17
256.565	517.83
262.5	512.5
268.429	501.83
274.351	490.83
280.267	483.5
286.176	475.5
292.079	468.5
297.975	467.5
303.865	459.5
309.748	460.5
315.625	456.17
321.495	459.17
327.359	455.83
333.217	455.17
339.068	460.83
344.912	462.83
350.751	464.83
356.583	466.17
362.408	471.5
368.227	478.17
374.04	493.17
379.847	516.17
385.647	530.5
391.44	516.83
397.228	501.5
403.009	504.83
408.784	540.5
414.553	609.5
420.315	697.17
426.071	698.5
431.821	607.83
437.565	535.5
443.302	512.17
449.033	500.17
454.758	488.5
460.477	485.83
466.189	475.83
471.896	466.83
477.596	464.5
483.29	455.17
488.978	457.83
494.66	451.5
500.335	429.83
506.005	403.17
511.668	371.83
517.325	344.5
522.977	322.83
528.622	309.17
534.261	295.5
539.894	280.83
545.521	276.5
551.141	272.5
556.756	262.5
562.365	262.83
567.968	258.17
573.565	261.17
579.155	259.83
584.74	254.5
590.319	252.83
595.892	250.17
601.459	254.17
607.02	249.5
612.575	248.5
618.124	238.17
623.667	234.17
629.204	228.83
634.735	239.5
640.261	258.17
645.781	278.5
651.294	286.5
656.802	266.5
662.304	237.17
667.8	220.5
673.29	212.17
678.775	205.5
684.254	203.17
689.726	199.5
695.193	200.17
700.655	193.83
706.11	198.17
711.56	190.83
717.004	192.17
722.442	193.17
727.874	190.17
733.301	190.83
738.722	192.83
744.137	191.17
749.547	199.17
754.951	207.5
760.349	205.17
765.741	197.17
771.128	193.5
776.509	194.17
781.885	200.17
787.254	199.83
792.618	199.83
797.977	198.17
803.33	199.5
808.677	194.5
814.019	195.83
819.355	185.17
824.686	184.5
830.011	179.83
835.33	184.17
840.644	176.17
845.952	170.17
851.255	169.5
856.552	160.83
861.844	160.17
867.13	152.83
872.41	151.83
877.686	150.17
882.955	144.83
888.219	143.83
893.478	138.5
898.731	139.17
903.979	134.83
909.221	128.5
914.458	132.5
919.69	133.5
924.916	127.5
930.136	125.83
935.351	130.5
940.561	125.5
945.766	126.83
950.965	125.5
956.158	125.17
961.347	123.5
966.529	120.5
971.707	121.17
976.879	114.83
982.046	113.5
987.208	114.17
992.364	112.83
997.515	117.17
1002.66	112.83
1007.801	117.5
1012.936	114.17
1018.066	118.83
1023.19	121.17
1028.309	119.83
1033.423	120.83
1038.532	119.83
1043.636	118.83
1048.734	124.5
1053.827	120.17
1058.915	117.83
1063.998	119.5
1069.075	117.17
1074.147	114.83
1079.214	117.83
1084.276	118.83
1089.333	117.17
1094.385	114.83
1099.431	114.5
1104.472	112.17
1109.509	114.5
1114.54	110.17
1119.565	108.17
1124.586	103.17
1129.602	103.83
1134.613	101.17
1139.618	100.83
1144.619	98.17
1149.614	100.5
1154.604	104.17
1159.589	105.17
1164.57	103.83
1169.545	107.17
1174.515	104.83
1179.48	106.5
1184.44	105.17
1189.395	104.83
1194.345	102.83
1199.29	101.17
1204.23	104.17
1209.165	101.83
1214.095	103.83
1219.021	101.83
1223.941	106.83
1228.856	108.83
1233.766	103.17
1238.672	102.83
1243.572	103.5
1248.467	99.17
1253.358	100.17
1258.244	95.83
1263.124	92.5
1268	92.17
1272.871	90.5
1277.737	87.83
1282.599	87.5
1287.455	88.83
1292.306	90.5
1297.153	89.5
1301.995	92.17
1306.832	89.83
1311.664	90.83
1316.491	95.17
1321.314	88.83
1326.132	85.83
1330.945	88.17
1335.753	85.17
1340.556	83.5
1345.354	81.5
1350.148	85.5
1354.937	84.17
1359.722	77.5
1364.501	79.83
1369.276	80.17
1374.046	80.5
1378.811	79.5
1383.572	80.17
1388.327	78.83
1393.079	74.5
1397.825	76.83
1402.567	73.83
1407.304	74.5
1412.036	71.5
1416.764	72.83
1421.487	74.17
1426.205	72.5
1430.919	73.5
1435.628	72.17
1440.333	74.83
1445.032	76.5
1449.727	76.83
1454.418	77.5
1459.104	75.83
1463.785	76.17
1468.462	76.5
1473.134	73.5
1477.802	74.5
1482.465	72.83
1487.123	77.17
1491.777	75.17
1496.426	76.5
1501.071	76.5
1505.711	79.17
1510.347	81.17
1514.978	81.17
1519.604	80.83
1524.226	80.83
1528.844	79.83
1533.457	77.17
1538.065	78.5
1542.669	79.17
1547.269	77.83
1551.864	80.17
1556.454	91.17
1561.041	96.5
1565.622	86.17
1570.199	82.83
1574.772	82.5
1579.34	80.17
1583.904	83.83
1588.464	83.5
1593.019	89.83
1597.569	90.5
1602.115	92.5
1606.657	94.5
1611.195	91.83
1615.728	94.5
1620.256	100.83
1624.78	100.5
1629.3	103.83
1633.816	101.17
1638.327	105.83
1642.834	107.5
1647.336	109.17
1651.834	106.5
1656.328	105.5
1660.817	109.83
1665.302	103.17
1669.783	103.5
1674.259	95.83
1678.732	96.17
1683.199	91.83
1687.663	85.5
1692.122	82.17
1696.577	79.5
1701.028	76.5
1705.474	71.83
1709.917	72.83
1714.355	66.83
1718.788	65.5
1723.218	64.17
1727.643	60.17
1732.064	57.5
1736.481	54.83
1740.893	53.17
1745.301	50.5
1749.705	45.83
1754.105	44.17
1758.501	45.17
1762.893	42.5
1767.28	42.5
1771.663	42.5
1776.042	41.5
1780.417	38.5
1784.787	39.5
1789.154	38.5
1793.516	39.5
1797.874	38.5
1802.228	38.17
1806.578	37.5
1810.924	37.5
1815.266	37.5
1819.603	33.5
1823.937	35.83
1828.266	31.83
1832.591	33.17
1836.913	32.5
1841.23	31.83
1845.543	29.5
1849.852	32.5
1854.156	32.5
1858.457	29.83
1862.754	31.5
1867.047	34.83
1871.335	31.5
1875.62	32.83
1879.9	29.5
1884.177	32.17
1888.449	34.5
1892.718	34.17
1896.982	32.5
1901.243	32.83
1905.499	34.5
1909.752	33.5
1914	31.83
1918.245	35.83
1922.485	35.17
1926.722	34.83
1930.954	34.17
1935.183	35.17
1939.408	37.5
1943.628	33.83
1947.845	36.5
1952.058	37.5
1956.267	34.5
1960.472	31.83
1964.673	31.83
1968.87	29.5
1973.063	29.17
1977.252	30.5
1981.438	29.17
1985.619	31.5
1989.797	28.17
1993.971	29.17
1998.14	28.17
2002.306	29.5
2006.469	29.83
2010.627	27.17
2014.781	32.17
2018.932	27.5
2023.078	26.17
2027.221	27.17
2031.36	28.17
2035.495	28.83
2039.627	27.17
2043.754	27.5
2047.878	29.83
2051.998	27.17
2056.114	29.83
2060.226	28.5
2064.334	30.83
2068.439	28.17
2072.54	31.17
2076.637	30.17
2080.73	30.5
2084.82	31.17
2088.906	32.5
2092.988	30.5
2097.066	30.5
2101.14	29.83
2105.211	31.17
2109.278	30.17
2113.342	28.17
2117.401	27.5
2121.457	27.83
2125.509	29.5
2129.558	28.83
2133.602	27.17
2137.643	26.83
2141.681	25.17
2145.714	24.5
2149.744	21.5
2153.77	24.17
2157.793	24.83
2161.812	24.5
2165.827	20.83
2169.838	23.17
2173.846	19.5
2177.851	21.83
2181.851	19.17
2185.848	20.5
2189.841	19.17
2193.831	17.17
2197.817	16.5
2201.799	17.5
2205.778	20.17
2209.753	16.83
2213.725	18.17
2217.693	17.17
2221.657	15.17
2225.618	15.83
2229.575	15.83
2233.529	16.83
2237.479	16.17
2241.425	17.17
2245.368	16.83
2249.307	12.83
2253.243	14.17
2257.175	11.83
2261.104	9.5
2265.029	10.83
2268.95	13.17
2272.868	11.5
2276.783	11.5
2280.694	12.17
2284.601	9.5
2288.505	10.17
2292.405	9.17
2296.302	10.83
2300.195	9.17
2304.085	9.17
2307.971	7.83
2311.854	9.5
2315.734	8.5
2319.609	7.5
2323.482	10.83
2327.351	15.17
2331.216	29.17
2335.078	30.17
2338.937	17.83
2342.792	9.5
2346.643	7.5
2350.492	8.5
2354.336	3.83
2358.178	5.83
2362.015	6.83
2365.85	6.17
2369.681	5.5
2373.508	4.83
2377.333	5.17
2381.153	6.5
2384.971	3.83
2388.785	5.17
2392.595	4.17
2396.402	5.5
2400.206	5.5
2404.007	0.83
2407.804	3.5
2411.597	2.17
2415.388	4.5
2419.174	2.5
2422.958	5.17
2426.738	2.5
2430.515	-1.17
2434.289	1.17
2438.059	0.17
2441.825	2.5
2445.589	0.83
2449.349	0.17
2453.106	-0.17
2456.859	-0.5
2460.61	-1.83
2464.356	-0.17
2468.1	-0.83
2471.84	0.5
2475.577	-1.5
2479.311	-1.5
2483.041	-1.83
2486.768	0.5
2490.492	-2.5
2494.213	-3.17
2497.93	0.83
2501.644	-1.17
2505.355	1.17
2509.062	-1.17
2512.766	-0.17
2516.467	0.17
2520.165	-3.17
2523.859	-0.83
2527.551	-1.83
2531.239	-1.17
2534.923	-3.17
2538.605	0.17
2542.283	-1.5
2545.958	-0.5
2549.63	-1.83
2553.299	-2.17
2556.964	-1.17
2560.626	-2.17
2564.285	-1.17
2567.941	-2.17
2571.594	-1.83
2575.243	-1.5
2578.89	-4.17
2582.533	-3.5
2586.173	-1.17
2589.809	-3.5
2593.443	-3.5
2597.073	-5.17
2600.701	-4.17
2604.325	-4.17
2607.946	-7.17
2611.564	-4.17
2615.178	-5.17
2618.79	-3.5
2622.398	-4.17
2626.004	-3.5
2629.606	-2.83
2633.205	-1.83
2636.801	-4.5
2640.394	-1.17
2643.983	-4.17
2647.57	-3.5
2651.153	-4.5
2654.734	-2.5
2658.311	-4.5
2661.885	-2.83
2665.456	-6.83
2669.025	-2.5
2672.589	-2.5
2676.151	-4.83
2679.71	-3.83
2683.266	-5.17
2686.819	-6.83
2690.368	-4.83
2693.915	-5.17
2697.458	-6.5
2700.999	-5.5
2704.536	-4.17
2708.071	-3.83
2711.602	-5.5
2715.13	-7.5
2718.656	-4.17
2722.178	-4.17
2725.697	-4.17
2729.214	-4.5
2732.727	-5.5
2736.237	-3.17
2739.744	-4.5
2743.249	-5.5
2746.75	-4.5
2750.248	-3.83
2753.743	-3.17
2757.236	-3.5
2760.725	-2.83
2764.211	-5.83
2767.695	-3.5
2771.175	-4.17
2774.652	-5.83
2778.127	-5.83
2781.598	-3.83
2785.067	-4.83
2788.532	-1.5
2791.995	-4.17
2795.455	-4.5
2798.911	-7.5
2802.365	-3.83
2805.816	-5.83
2809.264	-2.83
2812.709	-4.83
2816.151	-5.17
2819.59	-1.5
2823.026	-4.5
2826.46	-2.5
2829.89	-4.5
2833.318	-3.17
2836.742	-3.17
2840.164	-2.83
2843.583	-1.17
2846.999	-3.83
2850.412	-2.17
2853.822	-1.5
2857.229	-1.5
2860.634	-1.5
2864.035	-1.17
2867.434	-2.17
2870.83	-0.5
2874.223	-0.83
2877.613	0.5
2881	-0.5
2884.385	-0.83
2887.766	0.17
2891.145	1.83
2894.521	0.5
2897.894	-0.5
2901.264	-1.83
2904.631	-0.17
2907.996	0.5
2911.358	0.83
2914.717	0.83
2918.073	1.83
2921.426	2.5
2924.777	2.5
2928.124	2.5
2931.469	6.17
2934.811	6.17
2938.15	3.83
2941.487	4.5
2944.821	5.5
2948.152	5.17
2951.48	5.5
2954.805	6.5
2958.128	6.83
2961.447	9.83
2964.765	8.17
2968.079	8.5
2971.39	7.17
2974.699	12.17
2978.005	9.83
2981.308	12.83
2984.609	16.83
2987.907	14.5
2991.202	14.5
2994.494	15.83
2997.784	19.5
3001.07	13.83
3004.355	17.17
3007.636	21.17
3010.915	22.5
3014.191	21.5
3017.464	24.5
3020.734	23.83
3024.002	23.17
3027.267	25.17
3030.53	23.5
3033.789	25.17
3037.046	27.5
3040.301	28.5
3043.552	28.83
3046.801	31.5
3050.048	32.83
3053.291	33.5
3056.532	32.83
3059.771	36.5
3063.006	37.83
3066.239	41.17
3069.469	40.83
3072.697	43.5
3075.922	45.5
3079.144	46.5
3082.364	51.17
3085.581	48.83
3088.795	53.17
3092.007	53.17
3095.216	53.83
3098.423	55.5
3101.627	60.17
3104.828	61.83
3108.026	77.5
3111.222	111.17
3114.416	67.83
3117.607	67.17
3120.795	69.17
3123.98	71.83
3127.163	74.17
3130.344	76.5
3133.521	80.17
3136.696	79.17
3139.869	81.83
3143.039	84.5
3146.206	85.83
3149.371	89.17
3152.533	85.83
3155.693	87.17
3158.85	87.83
3162.005	88.5
3165.157	89.17
3168.306	88.17
3171.453	89.5
3174.597	92.83
3177.739	95.5
3180.878	89.5
3184.014	91.83
3187.149	91.17
3190.28	90.5
3193.409	91.17
3196.536	94.5
3199.659	95.5
3202.781	94.5
3205.9	91.5
3209.016	93.17
3212.13	95.83
3215.241	96.17
3218.35	90.17
3221.456	89.83
3224.56	89.83
3227.661	88.5
3230.76	87.5
3233.856	92.17
3236.95	87.83
3240.041	89.5
3243.13	83.83
3246.216	85.5
3249.3	88.17
3252.382	83.83
3255.46	84.17
3258.537	86.83
3261.611	84.5
3264.682	84.5
3267.751	87.17
3270.818	87.17
3273.882	82.17
3276.943	84.83
3280.002	81.5
3283.059	80.17
3286.113	80.17
3289.165	77.83
3292.214	78.83
3295.261	78.17
3298.306	74.17
3301.348	75.5
3304.387	73.17
3307.425	72.83
3310.459	72.17
3313.492	70.5
3316.521	63.5
3319.549	66.5
3322.574	67.5
3325.597	64.83
3328.617	63.5
3331.635	67.5
3334.65	65.83
3337.663	66.5
3340.674	67.17
3343.682	65.5
3346.688	65.83
3349.691	68.5
3352.692	63.83
3355.691	62.17
3358.687	61.83
3361.681	62.5
3364.673	59.83
3367.662	63.83
3370.649	57.5
3373.633	61.5
3376.615	56.5
3379.595	58.83
3382.572	56.17
3385.547	55.5
3388.52	54.17
3391.49	53.5
3394.458	52.83
3397.424	54.17
3400.387	50.5
3403.348	51.17
3406.307	50.83
3409.263	49.17
3412.217	50.83
3415.168	48.5
3418.118	49.17
3421.065	49.83
3424.009	42.17
3426.951	47.17
3429.891	43.17
3432.829	44.17
3435.764	43.83
3438.697	43.17
3441.628	41.83
3444.557	41.5
3447.483	37.5
3450.407	36.5
3453.328	34.17
3456.247	31.5
3459.164	32.83
3462.079	32.17
3464.991	28.83
3467.902	26.83
3470.809	25.5
3473.715	25.5
3476.618	25.5
3479.519	22.83
3482.418	23.83
3485.315	20.5
3488.209	20.5
3491.101	18.17
3493.99	16.5
3496.878	18.5
3499.763	16.17
3502.646	16.5
3505.527	15.83
3508.405	15.83
3511.281	14.17
3514.155	12.5
3517.027	8.17
3519.897	9.5
3522.764	8.17
3525.629	6.83
3528.492	9.5
3531.352	4.5
3534.211	3.5
3537.067	3.5
3539.921	1.5
3542.773	-0.5
3545.622	0.5
3548.469	0.5
3551.315	-0.83
3554.157	0.83
3556.998	-4.17
3559.837	-3.5
3562.673	-1.83
3565.507	-1.83
3568.339	-3.5
3571.169	-3.17
3573.996	-4.83
3576.822	-4.5
3579.645	-6.17
3582.466	-6.17
3585.285	-6.17
3588.101	-6.5
3590.916	-9.17
3593.728	-10.17
3596.538	-7.83
3599.346	-9.5
3602.152	-8.5
3604.956	-9.5
3607.757	-10.5
3610.556	-9.17
3613.354	-12.83
3616.149	-10.83
3618.942	-11.17
3621.732	-13.5
3624.521	-14.17
3627.307	-13.5
3630.092	-14.83
3632.874	-12.5
3635.654	-15.17
3638.432	-13.83
3641.208	-15.5
3643.982	-13.5
3646.753	-13.17
3649.523	-17.17
3652.29	-16.17
3655.055	-16.5
3657.818	-14.5
3660.579	-15.5
3663.338	-16.17
3666.095	-17.83
3668.849	-16.83
3671.602	-15.17
3674.352	-16.17
3677.101	-16.83
3679.847	-17.83
3682.591	-17.83
3685.333	-17.83
3688.073	-16.83
3690.811	-18.5
3693.547	-18.83
3696.281	-17.83
3699.013	-18.17
3701.742	-17.5
3704.47	-19.17
3707.195	-19.83
3709.919	-18.17
3712.64	-20.5
3715.359	-19.83
3718.076	-20.83
3720.792	-20.17
3723.505	-21.17
3726.216	-20.17
3728.925	-21.17
3731.632	-21.83
3734.336	-20.83
3737.039	-19.17
3739.74	-21.83
3742.439	-19.83
3745.136	-20.5
3747.83	-24.17
3750.523	-21.5
3753.213	-20.17
3755.902	-22.5
3758.589	-21.17
3761.273	-22.83
3763.956	-23.83
3766.636	-20.83
3769.315	-21.17
3771.991	-22.5
3774.665	-22.17
3777.338	-21.83
3780.008	-20.5
3782.677	-22.5
3785.343	-22.17
3788.007	-20.83
3790.67	-21.83
3793.33	-21.5
3795.989	-22.17
3798.645	-21.5
3801.299	-22.83
3803.952	-22.5
3806.602	-21.83
3809.251	-21.83
3811.897	-20.17
3814.542	-22.17
3817.184	-21.83
3819.825	-21.17
3822.463	-21.83
3825.1	-24.5
3827.735	-21.5
3830.367	-21.17
3832.998	-22.83
3835.627	-21.83
3838.253	-22.5
3840.878	-22.83
3843.501	-22.83
3846.122	-21.83
3848.741	-22.17
3851.358	-19.83
3853.973	-22.83
3856.586	-21.5
3859.197	-24.5
3861.806	-20.83
3864.414	-21.17
3867.019	-19.83
3869.622	-17.5
3872.224	-19.5
3874.823	-16.17
3877.421	-12.17
3880.016	-7.17
3882.61	-1.83
3885.202	3.5
3887.792	-3.17
3890.38	-8.83
3892.966	-14.83
3895.55	-20.5
3898.132	-20.83
3900.713	-22.5
3903.291	-20.5
3905.868	-20.5
3908.442	-22.17
3911.015	-21.83
3913.586	-23.17
3916.155	-23.83
3918.722	-23.83
3921.287	-21.5
3923.85	-23.83
3926.411	-23.5
3928.971	-21.5
3931.528	-20.17
3934.084	-22.5
3936.638	-22.5
3939.19	-19.83
3941.74	-21.5
3944.288	-22.5
3946.834	-21.83
3949.378	-22.5
3951.921	-21.83
3954.462	-21.83
3957	-20.83
3959.537	-21.5
3962.072	-21.5
3964.606	-22.83
3967.137	-23.83
3969.667	-20.5
3972.194	-24.17
3974.72	-21.83
3977.244	-22.5
3979.766	-22.17
3982.286	-24.17
3984.805	-22.5
3987.321	-22.83
3989.836	-22.83
3992.349	-23.17
3994.86	-21.83
3997.369	-22.5
3999.877	-23.5
4002.382	-21.5
4004.886	-23.5
4007.388	-24.17
4009.888	-21.5
4012.386	-22.5
4014.883	-21.5
4017.377	-22.5
4019.87	-22.5
4022.361	-22.17
4024.85	-21.5
4027.338	-21.17
4029.823	-21.17
4032.307	-23.17
4034.789	-21.17
4037.269	-22.5
4039.747	-22.5
4042.224	-22.5
4044.699	-24.5
4047.172	-21.17
4049.643	-20.83
4052.112	-21.5
4054.58	-20.17
4057.046	-20.17
4059.51	-22.5
4061.972	-19.5
4064.432	-19.83
4066.891	-20.5
4069.348	-19.5
4071.803	-20.17
4074.256	-21.17
4076.708	-20.17
4079.158	-20.17
4081.606	-21.83
4084.052	-20.17
4086.497	-20.5
4088.939	-21.5
4091.38	-20.17
4093.819	-20.83
4096.257	-20.83
4098.693	-20.17
4101.127	-22.5
4103.559	-22.17
4105.989	-1.17
4108.418	-0.5
4110.845	-3.17
4113.27	-0.83
4115.694	-2.17
4118.115	-0.17
4120.535	-18.17
4122.954	-18.83
4125.37	-19.17
4127.785	-19.83
4130.198	-19.5
4132.609	-20.17
4135.019	-19.17
4137.427	-21.83
4139.833	-20.17
4142.237	-20.5
