Data from Tap water 1ml dis focus 2 (I=1_T=5x3)_RamanShift_1.txt Node
Date: Mon May 29 14:17:33 IDT 2017
User: aro
Spectrometer: QEPB0276
Trigger mode: 0
Integration Time (sec): 5.000000E0
Scans to average: 3
Electric dark correction enabled: true
Nonlinearity correction enabled: false
Boxcar width: 0
XAxis mode: Raman Shifts
Number of Pixels in Spectrum: 1044
>>>>>Begin Spectral Data<<<<<
160.701	-29.75
166.742	0.92
172.777	100.25
178.805	411.58
184.826	1161.25
190.841	2444.92
196.849	3895.25
202.85	4829.25
208.845	5051.58
214.833	4866.58
220.815	4660.58
226.789	4488.58
232.758	4364.25
238.719	4185.25
244.674	4005.58
250.623	3813.25
256.565	3626.25
262.5	3416.92
268.429	3247.25
274.351	3099.25
280.267	2959.25
286.176	2841.58
292.079	2724.58
297.975	2627.92
303.865	2553.25
309.748	2481.25
315.625	2427.58
321.495	2375.25
327.359	2338.58
333.217	2309.25
339.068	2294.25
344.912	2290.92
350.751	2286.92
356.583	2268.25
362.408	2264.25
368.227	2286.58
374.04	2331.25
379.847	2413.92
385.647	2449.58
391.44	2410.92
397.228	2356.25
403.009	2367.25
408.784	2471.25
414.553	2709.25
420.315	2998.92
426.071	2976.25
431.821	2686.25
437.565	2438.58
443.302	2342.25
449.033	2308.58
454.758	2280.58
460.477	2263.92
466.189	2235.25
471.896	2213.58
477.596	2195.25
483.29	2176.58
488.978	2154.92
494.66	2133.58
500.335	2105.58
506.005	2066.58
511.668	2020.25
517.325	1964.25
522.977	1926.25
528.622	1907.25
534.261	1866.25
539.894	1842.92
545.521	1821.92
551.141	1804.58
556.756	1786.92
562.365	1772.58
567.968	1766.58
573.565	1746.92
579.155	1735.92
584.74	1723.25
590.319	1691.25
595.892	1675.58
601.459	1655.92
607.02	1632.92
612.575	1608.92
618.124	1592.25
623.667	1586.92
629.204	1575.58
634.735	1594.25
640.261	1655.58
645.781	1727.92
651.294	1746.92
656.802	1669.25
662.304	1557.92
667.8	1490.58
673.29	1465.92
678.775	1443.92
684.254	1432.58
689.726	1416.58
695.193	1397.25
700.655	1383.58
706.11	1376.92
711.56	1351.25
717.004	1335.25
722.442	1319.92
727.874	1317.92
733.301	1310.25
738.722	1312.25
744.137	1308.92
749.547	1322.92
754.951	1330.92
760.349	1316.25
765.741	1282.25
771.128	1253.92
776.509	1239.25
781.885	1225.58
787.254	1222.25
792.618	1197.92
797.977	1184.25
803.33	1165.25
808.677	1141.92
814.019	1129.25
819.355	1114.92
824.686	1097.58
830.011	1079.58
835.33	1062.92
840.644	1054.92
845.952	1035.25
851.255	1033.25
856.552	1010.25
861.844	995.25
867.13	976.92
872.41	967.92
877.686	950.58
882.955	924.58
888.219	897.25
893.478	878.25
898.731	860.58
903.979	848.25
909.221	833.25
914.458	825.58
919.69	809.58
924.916	801.58
930.136	792.25
935.351	789.58
940.561	777.92
945.766	770.92
950.965	761.58
956.158	744.58
961.347	734.92
966.529	717.92
971.707	704.92
976.879	689.25
982.046	679.92
987.208	677.92
992.364	673.25
997.515	681.92
1002.66	676.58
1007.801	677.92
1012.936	678.58
1018.066	686.58
1023.19	684.25
1028.309	683.58
1033.423	688.92
1038.532	663.25
1043.636	659.25
1048.734	650.58
1053.827	640.25
1058.915	635.58
1063.998	622.58
1069.075	618.92
1074.147	622.92
1079.214	621.58
1084.276	627.25
1089.333	625.25
1094.385	629.92
1099.431	622.58
1104.472	623.25
1109.509	619.58
1114.54	604.92
1119.565	609.92
1124.586	589.58
1129.602	581.58
1134.613	576.92
1139.618	572.25
1144.619	568.92
1149.614	576.25
1154.604	577.25
1159.589	576.25
1164.57	579.92
1169.545	576.25
1174.515	579.25
1179.48	576.58
1184.44	572.58
1189.395	562.58
1194.345	554.92
1199.29	552.58
1204.23	550.92
1209.165	552.58
1214.095	563.25
1219.021	563.58
1223.941	567.92
1228.856	569.25
1233.766	568.92
1238.672	562.92
1243.572	557.58
1248.467	559.25
1253.358	545.92
1258.244	533.25
1263.124	523.58
1268	514.92
1272.871	506.25
1277.737	506.92
1282.599	499.58
1287.455	503.25
1292.306	500.58
1297.153	502.58
1301.995	499.92
1306.832	502.92
1311.664	503.25
1316.491	495.25
1321.314	489.25
1326.132	485.58
1330.945	474.58
1335.753	461.25
1340.556	445.25
1345.354	440.92
1350.148	440.92
1354.937	434.92
1359.722	429.58
1364.501	428.25
1369.276	434.92
1374.046	435.25
1378.811	440.25
1383.572	437.58
1388.327	434.58
1393.079	427.25
1397.825	418.92
1402.567	408.92
1407.304	404.25
1412.036	397.25
1416.764	391.58
1421.487	394.92
1426.205	395.25
1430.919	396.58
1435.628	401.25
1440.333	398.92
1445.032	405.25
1449.727	402.58
1454.418	396.92
1459.104	398.92
1463.785	392.58
1468.462	391.92
1473.134	381.92
1477.802	379.92
1482.465	381.58
1487.123	383.25
1491.777	386.58
1496.426	397.58
1501.071	414.25
1505.711	419.58
1510.347	431.58
1514.978	430.92
1519.604	446.25
1524.226	453.92
1528.844	453.25
1533.457	449.58
1538.065	459.25
1542.669	462.92
1547.269	461.25
1551.864	467.25
1556.454	480.58
1561.041	494.58
1565.622	498.25
1570.199	511.58
1574.772	529.58
1579.34	558.58
1583.904	573.25
1588.464	599.25
1593.019	615.92
1597.569	632.58
1602.115	657.58
1606.657	675.92
1611.195	690.25
1615.728	726.25
1620.256	744.25
1624.78	760.58
1629.3	779.58
1633.816	800.58
1638.327	817.25
1642.834	825.25
1647.336	830.92
1651.834	827.58
1656.328	819.92
1660.817	802.25
1665.302	778.58
1669.783	744.25
1674.259	707.25
1678.732	662.92
1683.199	635.92
1687.663	585.92
1692.122	540.58
1696.577	504.25
1701.028	479.58
1705.474	447.58
1709.917	430.92
1714.355	402.58
1718.788	369.25
1723.218	350.25
1727.643	324.58
1732.064	299.92
1736.481	279.58
1740.893	256.25
1745.301	238.58
1749.705	221.92
1754.105	209.25
1758.501	190.25
1762.893	176.92
1767.28	167.25
1771.663	153.58
1776.042	150.58
1780.417	140.58
1784.787	140.25
1789.154	138.58
1793.516	136.58
1797.874	136.92
1802.228	134.25
1806.578	128.58
1810.924	130.58
1815.266	123.92
1819.603	114.25
1823.937	112.25
1828.266	106.25
1832.591	102.58
1836.913	94.92
1841.23	93.92
1845.543	93.58
1849.852	94.58
1854.156	92.92
1858.457	91.92
1862.754	89.58
1867.047	92.58
1871.335	90.25
1875.62	91.25
1879.9	92.25
1884.177	89.58
1888.449	87.58
1892.718	89.25
1896.982	87.25
1901.243	88.25
1905.499	89.92
1909.752	90.92
1914	91.92
1918.245	93.25
1922.485	93.58
1926.722	97.58
1930.954	94.25
1935.183	104.58
1939.408	106.92
1943.628	104.92
1947.845	107.25
1952.058	107.58
1956.267	104.92
1960.472	104.92
1964.673	106.58
1968.87	103.25
1973.063	104.92
1977.252	98.25
1981.438	98.92
1985.619	100.92
1989.797	99.92
1993.971	101.92
1998.14	107.25
2002.306	106.58
2006.469	106.58
2010.627	110.58
2014.781	114.58
2018.932	115.25
2023.078	107.58
2027.221	113.25
2031.36	115.92
2035.495	113.58
2039.627	112.58
2043.754	115.58
2047.878	112.58
2051.998	115.25
2056.114	117.58
2060.226	116.25
2064.334	121.92
2068.439	119.25
2072.54	126.25
2076.637	130.92
2080.73	133.25
2084.82	134.58
2088.906	134.58
2092.988	136.58
2097.066	134.58
2101.14	132.25
2105.211	132.58
2109.278	130.25
2113.342	129.25
2117.401	125.58
2121.457	123.25
2125.509	124.58
2129.558	121.58
2133.602	122.92
2137.643	121.25
2141.681	113.58
2145.714	116.25
2149.744	110.58
2153.77	114.58
2157.793	106.25
2161.812	103.25
2165.827	100.25
2169.838	95.58
2173.846	89.92
2177.851	90.25
2181.851	84.92
2185.848	77.92
2189.841	76.58
2193.831	71.92
2197.817	71.58
2201.799	63.92
2205.778	64.92
2209.753	62.92
2213.725	62.58
2217.693	59.92
2221.657	58.92
2225.618	53.58
2229.575	52.25
2233.529	53.25
2237.479	46.58
2241.425	43.92
2245.368	36.58
2249.307	33.92
2253.243	34.92
2257.175	31.25
2261.104	23.92
2265.029	22.92
2268.95	20.92
2272.868	18.25
2276.783	15.92
2280.694	15.92
2284.601	12.25
2288.505	11.92
2292.405	2.92
2296.302	4.25
2300.195	1.58
2304.085	-1.75
2307.971	-4.75
2311.854	-5.42
2315.734	-10.08
2319.609	-8.75
2323.482	-14.42
2327.351	-13.75
2331.216	-9.08
2335.078	-12.08
2338.937	-15.42
2342.792	-20.75
2346.643	-21.08
2350.492	-19.75
2354.336	-23.75
2358.178	-24.42
2362.015	-23.08
2365.85	-26.08
2369.681	-24.08
2373.508	-24.75
2377.333	-28.08
2381.153	-27.42
2384.971	-29.42
2388.785	-32.42
2392.595	-31.08
2396.402	-30.42
2400.206	-34.08
2404.007	-35.08
2407.804	-36.42
2411.597	-37.42
2415.388	-39.08
2419.174	-39.75
2422.958	-38.75
2426.738	-40.75
2430.515	-42.42
2434.289	-42.75
2438.059	-44.75
2441.825	-44.08
2445.589	-45.08
2449.349	-43.75
2453.106	-46.08
2456.859	-44.75
2460.61	-52.08
2464.356	-48.42
2468.1	-52.42
2471.84	-48.42
2475.577	-49.42
2479.311	-53.75
2483.041	-50.75
2486.768	-54.42
2490.492	-55.08
2494.213	-56.08
2497.93	-51.08
2501.644	-54.08
2505.355	-54.75
2509.062	-55.08
2512.766	-53.42
2516.467	-55.75
2520.165	-57.42
2523.859	-57.42
2527.551	-56.08
2531.239	-55.42
2534.923	-58.42
2538.605	-57.08
2542.283	-58.42
2545.958	-58.75
2549.63	-62.08
2553.299	-60.75
2556.964	-58.75
2560.626	-60.75
2564.285	-60.42
2567.941	-59.42
2571.594	-61.75
2575.243	-62.42
2578.89	-62.08
2582.533	-62.75
2586.173	-60.08
2589.809	-62.08
2593.443	-63.08
2597.073	-65.08
2600.701	-66.08
2604.325	-67.08
2607.946	-67.75
2611.564	-63.42
2615.178	-65.08
2618.79	-68.42
2622.398	-65.75
2626.004	-65.08
2629.606	-65.75
2633.205	-64.75
2636.801	-66.42
2640.394	-64.08
2643.983	-67.42
2647.57	-64.75
2651.153	-68.42
2654.734	-64.08
2658.311	-65.08
2661.885	-65.42
2665.456	-68.08
2669.025	-65.75
2672.589	-65.75
2676.151	-66.75
2679.71	-66.75
2683.266	-67.08
2686.819	-69.42
2690.368	-67.42
2693.915	-65.08
2697.458	-63.08
2700.999	-67.75
2704.536	-66.42
2708.071	-65.08
2711.602	-65.08
2715.13	-65.08
2718.656	-61.75
2722.178	-64.42
2725.697	-62.75
2729.214	-63.08
2732.727	-59.75
2736.237	-60.42
2739.744	-60.42
2743.249	-58.08
2746.75	-58.08
2750.248	-56.08
2753.743	-55.75
2757.236	-53.08
2760.725	-51.75
2764.211	-50.08
2767.695	-48.75
2771.175	-47.42
2774.652	-49.08
2778.127	-45.75
2781.598	-46.42
2785.067	-45.42
2788.532	-41.08
2791.995	-41.42
2795.455	-39.75
2798.911	-41.42
2802.365	-35.08
2805.816	-34.75
2809.264	-32.42
2812.709	-30.08
2816.151	-28.42
2819.59	-30.08
2823.026	-24.75
2826.46	-22.08
2829.89	-22.08
2833.318	-18.75
2836.742	-14.75
2840.164	-13.08
2843.583	-5.42
2846.999	-8.42
2850.412	-4.08
2853.822	-0.08
2857.229	-2.08
2860.634	6.25
2864.035	11.92
2867.434	11.92
2870.83	19.92
2874.223	18.58
2877.613	21.25
2881	27.25
2884.385	28.25
2887.766	34.92
2891.145	33.25
2894.521	37.92
2897.894	40.92
2901.264	46.25
2904.631	47.58
2907.996	51.58
2911.358	57.25
2914.717	61.92
2918.073	63.58
2921.426	68.58
2924.777	74.58
2928.124	79.25
2931.469	87.25
2934.811	92.58
2938.15	96.58
2941.487	101.92
2944.821	109.58
2948.152	115.58
2951.48	119.58
2954.805	132.58
2958.128	134.25
2961.447	140.25
2964.765	149.58
2968.079	154.92
2971.39	160.25
2974.699	170.92
2978.005	184.25
2981.308	194.92
2984.609	205.92
2987.907	219.25
2991.202	222.92
2994.494	241.58
2997.784	253.58
3001.07	266.25
3004.355	279.58
3007.636	290.25
3010.915	295.92
3014.191	312.92
3017.464	318.25
3020.734	327.25
3024.002	337.92
3027.267	349.58
3030.53	355.92
3033.789	367.25
3037.046	380.92
3040.301	397.25
3043.552	407.58
3046.801	419.92
3050.048	442.92
3053.291	456.25
3056.532	468.58
3059.771	485.58
3063.006	509.25
3066.239	528.92
3069.469	547.25
3072.697	567.58
3075.922	588.58
3079.144	613.92
3082.364	632.92
3085.581	645.92
3088.795	666.58
3092.007	686.58
3095.216	698.92
3098.423	724.92
3101.627	743.92
3104.828	772.92
3108.026	778.25
3111.222	804.92
3114.416	821.25
3117.607	851.25
3120.795	871.58
3123.98	896.25
3127.163	924.92
3130.344	946.25
3133.521	967.92
3136.696	1000.25
3139.869	1022.58
3143.039	1045.58
3146.206	1056.25
3149.371	1076.25
3152.533	1086.92
3155.693	1102.58
3158.85	1110.25
3162.005	1121.58
3165.157	1119.92
3168.306	1137.92
3171.453	1142.25
3174.597	1150.92
3177.739	1144.25
3180.878	1153.25
3184.014	1162.25
3187.149	1159.92
3190.28	1167.92
3193.409	1171.58
3196.536	1177.58
3199.659	1190.92
3202.781	1190.92
3205.9	1199.58
3209.016	1202.92
3212.13	1192.92
3215.241	1198.25
3218.35	1184.92
3221.456	1174.92
3224.56	1173.92
3227.661	1164.58
3230.76	1156.92
3233.856	1144.58
3236.95	1128.25
3240.041	1127.92
3243.13	1124.58
3246.216	1122.58
3249.3	1122.25
3252.382	1107.92
3255.46	1108.25
3258.537	1105.25
3261.611	1103.58
3264.682	1098.58
3267.751	1104.25
3270.818	1104.58
3273.882	1101.25
3276.943	1087.92
3280.002	1077.58
3283.059	1067.92
3286.113	1051.25
3289.165	1038.92
3292.214	1023.58
3295.261	1013.25
3298.306	994.58
3301.348	982.58
3304.387	967.58
3307.425	954.58
3310.459	939.25
3313.492	921.58
3316.521	907.92
3319.549	918.25
3322.574	898.25
3325.597	902.25
3328.617	888.92
3331.635	887.58
3334.65	885.92
3337.663	872.25
3340.674	867.58
3343.682	873.92
3346.688	868.58
3349.691	869.58
3352.692	860.58
3355.691	848.58
3358.687	852.92
3361.681	841.58
3364.673	836.58
3367.662	825.25
3370.649	814.25
3373.633	801.25
3376.615	788.92
3379.595	784.58
3382.572	774.58
3385.547	764.25
3388.52	749.92
3391.49	743.58
3394.458	730.58
3397.424	727.58
3400.387	719.25
3403.348	708.58
3406.307	700.92
3409.263	693.25
3412.217	695.25
3415.168	685.25
3418.118	671.58
3421.065	666.92
3424.009	662.58
3426.951	653.25
3429.891	637.92
3432.829	628.58
3435.764	625.92
3438.697	604.92
3441.628	594.58
3444.557	575.25
3447.483	560.25
3450.407	548.58
3453.328	533.58
3456.247	517.58
3459.164	504.25
3462.079	486.58
3464.991	467.92
3467.902	458.58
3470.809	443.92
3473.715	434.92
3476.618	424.58
3479.519	406.25
3482.418	397.25
3485.315	383.58
3488.209	371.92
3491.101	363.92
3493.99	352.92
3496.878	343.25
3499.763	336.92
3502.646	323.25
3505.527	310.25
3508.405	307.92
3511.281	289.25
3514.155	271.92
3517.027	265.92
3519.897	245.58
3522.764	232.92
3525.629	229.58
3528.492	214.25
3531.352	205.58
3534.211	191.25
3537.067	175.92
3539.921	169.58
3542.773	159.58
3545.622	149.92
3548.469	144.92
3551.315	130.92
3554.157	123.25
3556.998	113.92
3559.837	107.25
3562.673	104.92
3565.507	96.25
3568.339	91.25
3571.169	81.92
3573.996	74.92
3576.822	65.58
3579.645	63.58
3582.466	58.58
3585.285	50.25
3588.101	45.58
3590.916	38.92
3593.728	31.92
3596.538	30.25
3599.346	19.25
3602.152	18.25
3604.956	12.92
3607.757	10.25
3610.556	0.92
3613.354	-3.08
3616.149	-4.75
3618.942	-9.42
3621.732	-13.08
3624.521	-16.08
3627.307	-19.08
3630.092	-21.42
3632.874	-28.75
3635.654	-31.08
3638.432	-31.08
3641.208	-35.75
3643.982	-37.08
3646.753	-38.08
3649.523	-43.75
3652.29	-46.08
3655.055	-52.08
3657.818	-52.08
3660.579	-55.75
3663.338	-57.08
3666.095	-62.75
3668.849	-66.42
3671.602	-65.75
3674.352	-69.08
3677.101	-73.42
3679.847	-71.42
3682.591	-74.75
3685.333	-78.75
3688.073	-79.42
3690.811	-84.08
3693.547	-85.08
3696.281	-84.42
3699.013	-87.08
3701.742	-87.42
3704.47	-90.08
3707.195	-92.08
3709.919	-92.75
3712.64	-92.75
3715.359	-94.08
3718.076	-96.42
3720.792	-97.75
3723.505	-99.42
3726.216	-100.42
3728.925	-100.08
3731.632	-102.42
3734.336	-100.75
3737.039	-101.75
3739.74	-103.08
3742.439	-105.42
3745.136	-107.08
3747.83	-107.08
3750.523	-107.08
3753.213	-106.42
3755.902	-107.08
3758.589	-107.75
3761.273	-108.08
3763.956	-110.08
3766.636	-108.42
3769.315	-109.42
3771.991	-110.75
3774.665	-109.75
3777.338	-110.75
3780.008	-111.75
3782.677	-111.75
3785.343	-113.08
3788.007	-112.08
3790.67	-113.75
3793.33	-112.08
3795.989	-114.42
3798.645	-114.42
3801.299	-114.42
3803.952	-113.08
3806.602	-114.42
3809.251	-115.75
3811.897	-114.42
3814.542	-114.75
3817.184	-114.75
3819.825	-113.42
3822.463	-115.42
3825.1	-118.75
3827.735	-115.42
3830.367	-114.08
3832.998	-117.08
3835.627	-115.75
3838.253	-115.08
3840.878	-116.75
3843.501	-117.08
3846.122	-115.75
3848.741	-115.42
3851.358	-115.75
3853.973	-117.75
3856.586	-116.42
3859.197	-117.08
3861.806	-117.08
3864.414	-115.08
3867.019	-114.42
3869.622	-112.08
3872.224	-112.08
3874.823	-110.75
3877.421	-104.42
3880.016	-100.08
3882.61	-94.42
3885.202	-90.42
3887.792	-96.75
3890.38	-104.75
3892.966	-110.42
3895.55	-116.42
3898.132	-116.42
3900.713	-118.42
3903.291	-115.42
3905.868	-117.42
3908.442	-118.08
3911.015	-117.42
3913.586	-119.42
3916.155	-120.08
3918.722	-120.08
3921.287	-118.42
3923.85	-120.08
3926.411	-120.75
3928.971	-120.42
3931.528	-119.42
3934.084	-120.08
3936.638	-119.08
3939.19	-118.42
3941.74	-119.75
3944.288	-119.42
3946.834	-120.75
3949.378	-119.08
3951.921	-119.42
3954.462	-120.42
3957	-120.42
3959.537	-117.75
3962.072	-119.42
3964.606	-120.08
3967.137	-119.75
3969.667	-119.42
3972.194	-119.42
3974.72	-118.42
3977.244	-120.42
3979.766	-118.42
3982.286	-118.42
3984.805	-119.75
3987.321	-116.75
3989.836	-119.75
3992.349	-120.42
3994.86	-118.42
3997.369	-118.42
3999.877	-117.08
4002.382	-117.42
4004.886	-119.42
4007.388	-120.75
4009.888	-116.75
4012.386	-117.08
4014.883	-116.75
4017.377	-117.42
4019.87	-118.42
4022.361	-119.75
4024.85	-118.75
4027.338	-119.08
4029.823	-119.42
4032.307	-120.75
4034.789	-118.42
4037.269	-118.42
4039.747	-117.42
4042.224	-119.42
4044.699	-122.42
4047.172	-118.75
4049.643	-117.75
4052.112	-119.42
4054.58	-118.08
4057.046	-118.08
4059.51	-120.42
4061.972	-118.42
4064.432	-118.75
4066.891	-118.42
4069.348	-116.75
4071.803	-119.42
4074.256	-117.08
4076.708	-118.08
4079.158	-119.08
4081.606	-120.08
4084.052	-118.08
4086.497	-117.75
4088.939	-117.75
4091.38	-118.75
4093.819	-117.75
4096.257	-120.75
4098.693	-120.08
4101.127	-121.75
4103.559	-122.08
4105.989	-73.08
4108.418	-68.42
4110.845	-65.08
4113.27	-61.42
4115.694	-56.08
4118.115	-46.42
4120.535	-116.75
4122.954	-117.08
4125.37	-116.08
4127.785	-118.75
4130.198	-116.42
4132.609	-117.75
4135.019	-120.08
4137.427	-122.08
4139.833	-120.75
4142.237	-120.08
