Data from Tap water 1.5ml (I=1_T=5x3)_RamanShift_1.txt Node
Date: Mon May 29 13:58:23 IDT 2017
User: aro
Spectrometer: QEPB0276
Trigger mode: 0
Integration Time (sec): 5.000000E0
Scans to average: 3
Electric dark correction enabled: true
Nonlinearity correction enabled: false
Boxcar width: 0
XAxis mode: Raman Shifts
Number of Pixels in Spectrum: 1044
>>>>>Begin Spectral Data<<<<<
160.701	-13.42
166.742	1.58
172.777	62.58
178.805	240.92
184.826	657.92
190.841	1344.92
196.849	2081.58
202.85	2554.92
208.845	2651.25
214.833	2563.92
220.815	2449.58
226.789	2388.92
232.758	2308.25
238.719	2224.58
244.674	2140.92
250.623	2041.25
256.565	1952.25
262.5	1859.58
268.429	1761.92
274.351	1694.58
280.267	1633.92
286.176	1557.25
292.079	1514.58
297.975	1471.25
303.865	1418.92
309.748	1395.92
315.625	1360.92
321.495	1338.25
327.359	1332.58
333.217	1319.92
339.068	1306.25
344.912	1305.25
350.751	1299.25
356.583	1304.92
362.408	1295.58
368.227	1311.92
374.04	1323.92
379.847	1349.92
385.647	1361.92
391.44	1357.25
397.228	1339.25
403.009	1352.92
408.784	1399.92
414.553	1461.92
420.315	1549.25
426.071	1550.25
431.821	1449.92
437.565	1373.58
443.302	1346.25
449.033	1331.92
454.758	1318.25
460.477	1302.92
466.189	1285.58
471.896	1266.58
477.596	1261.92
483.29	1258.25
488.978	1249.25
494.66	1223.58
500.335	1209.25
506.005	1162.58
511.668	1123.58
517.325	1084.58
522.977	1066.25
528.622	1026.25
534.261	1014.58
539.894	997.92
545.521	981.58
551.141	969.92
556.756	959.58
562.365	944.58
567.968	933.58
573.565	928.92
579.155	918.58
584.74	914.92
590.319	898.58
595.892	884.25
601.459	888.25
607.02	870.58
612.575	865.25
618.124	849.58
623.667	839.25
629.204	826.92
634.735	826.58
640.261	841.92
645.781	855.25
651.294	864.25
656.802	837.58
662.304	798.58
667.8	777.92
673.29	763.25
678.775	754.25
684.254	752.25
689.726	743.58
695.193	730.92
700.655	726.25
706.11	722.92
711.56	714.25
717.004	708.25
722.442	695.58
727.874	687.25
733.301	677.25
738.722	674.25
744.137	678.25
749.547	680.25
754.951	678.92
760.349	672.25
765.741	657.25
771.128	661.92
776.509	656.25
781.885	653.92
787.254	654.25
792.618	642.25
797.977	632.25
803.33	629.92
808.677	619.58
814.019	608.58
819.355	596.58
824.686	585.92
830.011	579.58
835.33	577.25
840.644	562.92
845.952	554.92
851.255	542.25
856.552	544.25
861.844	532.58
867.13	515.92
872.41	513.92
877.686	503.25
882.955	498.58
888.219	486.92
893.478	470.92
898.731	454.92
903.979	443.58
909.221	437.58
914.458	433.25
919.69	425.92
924.916	420.58
930.136	413.92
935.351	414.92
940.561	413.92
945.766	414.92
950.965	406.58
956.158	394.25
961.347	390.25
966.529	383.58
971.707	370.58
976.879	362.92
982.046	362.92
987.208	355.25
992.364	357.92
997.515	353.25
1002.66	355.92
1007.801	355.92
1012.936	357.58
1018.066	363.58
1023.19	359.25
1028.309	362.92
1033.423	362.92
1038.532	360.25
1043.636	355.92
1048.734	355.92
1053.827	345.25
1058.915	344.25
1063.998	340.58
1069.075	334.58
1074.147	339.58
1079.214	342.58
1084.276	336.92
1089.333	338.92
1094.385	336.58
1099.431	337.92
1104.472	333.58
1109.509	328.92
1114.54	333.58
1119.565	320.58
1124.586	315.92
1129.602	311.92
1134.613	305.25
1139.618	304.25
1144.619	298.92
1149.614	305.25
1154.604	306.58
1159.589	306.58
1164.57	312.58
1169.545	310.25
1174.515	310.25
1179.48	307.58
1184.44	302.25
1189.395	302.92
1194.345	299.58
1199.29	299.25
1204.23	298.58
1209.165	298.58
1214.095	294.92
1219.021	299.58
1223.941	306.25
1228.856	304.25
1233.766	304.25
1238.672	300.25
1243.572	293.92
1248.467	293.92
1253.358	289.25
1258.244	284.92
1263.124	281.58
1268	269.25
1272.871	260.58
1277.737	261.58
1282.599	265.25
1287.455	261.25
1292.306	262.58
1297.153	263.58
1301.995	259.58
1306.832	266.25
1311.664	263.58
1316.491	266.25
1321.314	259.92
1326.132	251.92
1330.945	249.92
1335.753	237.58
1340.556	233.92
1345.354	230.58
1350.148	231.25
1354.937	220.58
1359.722	218.58
1364.501	221.92
1369.276	224.25
1374.046	222.92
1378.811	232.25
1383.572	226.92
1388.327	227.58
1393.079	231.25
1397.825	221.25
1402.567	213.58
1407.304	211.92
1412.036	207.92
1416.764	205.92
1421.487	204.25
1426.205	206.25
1430.919	205.25
1435.628	204.92
1440.333	204.58
1445.032	208.25
1449.727	210.92
1454.418	215.25
1459.104	209.25
1463.785	206.25
1468.462	201.25
1473.134	199.25
1477.802	194.92
1482.465	197.25
1487.123	199.25
1491.777	195.25
1496.426	204.25
1501.071	206.92
1505.711	210.92
1510.347	218.58
1514.978	221.25
1519.604	228.58
1524.226	230.58
1528.844	232.58
1533.457	233.58
1538.065	232.58
1542.669	236.92
1547.269	233.25
1551.864	239.92
1556.454	252.25
1561.041	257.58
1565.622	258.25
1570.199	257.58
1574.772	263.92
1579.34	274.92
1583.904	289.92
1588.464	291.92
1593.019	300.58
1597.569	310.25
1602.115	320.92
1606.657	331.92
1611.195	334.92
1615.728	354.25
1620.256	358.92
1624.78	373.58
1629.3	385.58
1633.816	386.58
1638.327	396.58
1642.834	398.58
1647.336	404.25
1651.834	404.92
1656.328	391.25
1660.817	385.92
1665.302	377.92
1669.783	361.58
1674.259	346.58
1678.732	323.58
1683.199	305.58
1687.663	281.58
1692.122	260.58
1696.577	246.25
1701.028	232.25
1705.474	224.25
1709.917	216.25
1714.355	204.92
1718.788	193.25
1723.218	180.25
1727.643	167.92
1732.064	155.92
1736.481	145.92
1740.893	135.25
1745.301	127.92
1749.705	110.25
1754.105	105.92
1758.501	99.92
1762.893	89.92
1767.28	85.25
1771.663	81.58
1776.042	76.58
1780.417	74.92
1784.787	72.92
1789.154	68.25
1793.516	71.58
1797.874	70.92
1802.228	70.58
1806.578	68.58
1810.924	68.25
1815.266	68.25
1819.603	62.92
1823.937	59.25
1828.266	59.25
1832.591	53.92
1836.913	52.25
1841.23	48.25
1845.543	50.25
1849.852	49.58
1854.156	51.25
1858.457	48.58
1862.754	48.92
1867.047	51.58
1871.335	49.92
1875.62	49.58
1879.9	50.92
1884.177	49.92
1888.449	48.92
1892.718	53.58
1896.982	51.58
1901.243	49.58
1905.499	49.92
1909.752	49.58
1914	47.58
1918.245	51.25
1922.485	53.25
1926.722	53.58
1930.954	56.92
1935.183	57.25
1939.408	58.92
1943.628	59.92
1947.845	59.92
1952.058	59.58
1956.267	58.25
1960.472	55.58
1964.673	54.92
1968.87	54.25
1973.063	53.25
1977.252	51.58
1981.438	49.92
1985.619	50.92
1989.797	49.25
1993.971	51.25
1998.14	51.92
2002.306	54.58
2006.469	52.58
2010.627	52.92
2014.781	56.58
2018.932	53.58
2023.078	54.92
2027.221	54.58
2031.36	53.58
2035.495	53.58
2039.627	53.92
2043.754	52.92
2047.878	52.25
2051.998	53.25
2056.114	54.58
2060.226	53.92
2064.334	54.25
2068.439	53.92
2072.54	59.58
2076.637	60.58
2080.73	62.92
2084.82	64.58
2088.906	65.58
2092.988	63.92
2097.066	60.58
2101.14	58.58
2105.211	64.92
2109.278	61.92
2113.342	59.58
2117.401	58.58
2121.457	59.25
2125.509	55.25
2129.558	55.92
2133.602	54.25
2137.643	54.25
2141.681	49.58
2145.714	51.58
2149.744	48.58
2153.77	46.92
2157.793	44.58
2161.812	44.25
2165.827	42.92
2169.838	40.58
2173.846	38.58
2177.851	34.25
2181.851	35.92
2185.848	27.92
2189.841	30.58
2193.831	27.92
2197.817	28.25
2201.799	24.92
2205.778	21.58
2209.753	22.92
2213.725	21.92
2217.693	21.25
2221.657	18.92
2225.618	18.25
2229.575	15.58
2233.529	16.58
2237.479	16.25
2241.425	13.92
2245.368	10.58
2249.307	10.92
2253.243	7.25
2257.175	8.25
2261.104	5.58
2265.029	3.25
2268.95	2.25
2272.868	0.92
2276.783	0.58
2280.694	1.92
2284.601	-4.08
2288.505	-1.75
2292.405	-4.75
2296.302	-6.08
2300.195	-5.75
2304.085	-9.08
2307.971	-8.08
2311.854	-8.75
2315.734	-9.42
2319.609	-11.75
2323.482	-13.75
2327.351	-11.75
2331.216	-0.42
2335.078	0.92
2338.937	-8.75
2342.792	-13.75
2346.643	-16.42
2350.492	-16.08
2354.336	-18.42
2358.178	-19.42
2362.015	-16.75
2365.85	-16.75
2369.681	-16.42
2373.508	-19.08
2377.333	-20.42
2381.153	-19.75
2384.971	-19.42
2388.785	-21.75
2392.595	-20.08
2396.402	-22.75
2400.206	-20.75
2404.007	-26.75
2407.804	-24.42
2411.597	-25.75
2415.388	-24.08
2419.174	-23.75
2422.958	-23.75
2426.738	-28.75
2430.515	-29.08
2434.289	-27.42
2438.059	-29.75
2441.825	-26.08
2445.589	-28.42
2449.349	-28.75
2453.106	-30.08
2456.859	-28.42
2460.61	-32.75
2464.356	-29.75
2468.1	-32.08
2471.84	-32.75
2475.577	-30.42
2479.311	-33.42
2483.041	-32.42
2486.768	-31.75
2490.492	-33.42
2494.213	-35.08
2497.93	-31.75
2501.644	-34.08
2505.355	-34.42
2509.062	-34.08
2512.766	-34.08
2516.467	-33.75
2520.165	-35.75
2523.859	-33.75
2527.551	-35.75
2531.239	-33.75
2534.923	-35.75
2538.605	-34.75
2542.283	-36.75
2545.958	-35.42
2549.63	-33.42
2553.299	-36.42
2556.964	-32.75
2560.626	-32.75
2564.285	-34.42
2567.941	-34.42
2571.594	-35.75
2575.243	-34.42
2578.89	-36.08
2582.533	-36.75
2586.173	-34.42
2589.809	-38.42
2593.443	-36.75
2597.073	-39.08
2600.701	-38.75
2604.325	-40.42
2607.946	-38.42
2611.564	-37.08
2615.178	-38.42
2618.79	-38.42
2622.398	-35.75
2626.004	-37.42
2629.606	-37.42
2633.205	-38.08
2636.801	-38.75
2640.394	-38.75
2643.983	-38.42
2647.57	-39.08
2651.153	-40.08
2654.734	-40.42
2658.311	-40.08
2661.885	-39.08
2665.456	-40.08
2669.025	-38.42
2672.589	-38.08
2676.151	-39.08
2679.71	-37.75
2683.266	-41.42
2686.819	-41.75
2690.368	-41.08
2693.915	-38.75
2697.458	-37.42
2700.999	-42.75
2704.536	-40.75
2708.071	-40.08
2711.602	-42.42
2715.13	-40.75
2718.656	-37.42
2722.178	-38.42
2725.697	-38.42
2729.214	-39.75
2732.727	-39.08
2736.237	-37.75
2739.744	-38.42
2743.249	-37.75
2746.75	-36.75
2750.248	-35.75
2753.743	-36.42
2757.236	-33.08
2760.725	-34.42
2764.211	-33.75
2767.695	-31.42
2771.175	-33.42
2774.652	-33.75
2778.127	-33.42
2781.598	-34.08
2785.067	-32.42
2788.532	-31.42
2791.995	-31.75
2795.455	-30.42
2798.911	-28.75
2802.365	-29.08
2805.816	-29.08
2809.264	-24.75
2812.709	-24.08
2816.151	-25.75
2819.59	-22.75
2823.026	-24.42
2826.46	-21.42
2829.89	-22.42
2833.318	-21.08
2836.742	-20.42
2840.164	-20.08
2843.583	-14.75
2846.999	-18.08
2850.412	-16.75
2853.822	-12.08
2857.229	-11.75
2860.634	-7.42
2864.035	-4.75
2867.434	-6.42
2870.83	-3.42
2874.223	-4.75
2877.613	0.58
2881	0.25
2884.385	-1.75
2887.766	1.58
2891.145	3.92
2894.521	1.58
2897.894	3.92
2901.264	3.25
2904.631	6.25
2907.996	9.92
2911.358	14.58
2914.717	11.58
2918.073	12.25
2921.426	17.92
2924.777	18.58
2928.124	21.58
2931.469	29.25
2934.811	27.92
2938.15	31.92
2941.487	31.25
2944.821	33.92
2948.152	33.92
2951.48	37.58
2954.805	43.25
2958.128	42.92
2961.447	44.58
2964.765	47.92
2968.079	49.92
2971.39	53.25
2974.699	58.25
2978.005	63.25
2981.308	65.58
2984.609	72.58
2987.907	79.92
2991.202	82.92
2994.494	94.92
2997.784	94.92
3001.07	96.25
3004.355	105.25
3007.636	109.58
3010.915	116.58
3014.191	126.92
3017.464	121.92
3020.734	127.92
3024.002	137.58
3027.267	137.58
3030.53	141.25
3033.789	140.92
3037.046	144.58
3040.301	152.92
3043.552	157.58
3046.801	167.25
3050.048	169.58
3053.291	180.58
3056.532	187.58
3059.771	193.58
3063.006	204.25
3066.239	209.58
3069.469	223.25
3072.697	233.25
3075.922	246.92
3079.144	249.92
3082.364	258.92
3085.581	265.25
3088.795	272.58
3092.007	282.92
3095.216	291.92
3098.423	299.58
3101.627	307.25
3104.828	326.58
3108.026	329.92
3111.222	337.58
3114.416	348.92
3117.607	355.92
3120.795	370.25
3123.98	381.25
3127.163	391.58
3130.344	399.92
3133.521	416.58
3136.696	422.58
3139.869	435.58
3143.039	444.58
3146.206	453.25
3149.371	465.58
3152.533	467.25
3155.693	469.58
3158.85	471.25
3162.005	476.92
3165.157	477.92
3168.306	480.58
3171.453	481.58
3174.597	487.58
3177.739	489.58
3180.878	488.58
3184.014	484.58
3187.149	493.92
3190.28	490.25
3193.409	494.58
3196.536	497.58
3199.659	498.25
3202.781	495.58
3205.9	495.25
3209.016	497.25
3212.13	499.25
3215.241	494.58
3218.35	488.92
3221.456	492.25
3224.56	481.92
3227.661	477.25
3230.76	477.58
3233.856	473.25
3236.95	470.92
3240.041	466.92
3243.13	465.25
3246.216	465.58
3249.3	463.92
3252.382	464.58
3255.46	459.92
3258.537	462.25
3261.611	463.25
3264.682	467.92
3267.751	465.58
3270.818	468.92
3273.882	466.58
3276.943	462.92
3280.002	457.25
3283.059	449.25
3286.113	446.58
3289.165	436.25
3292.214	427.58
3295.261	423.25
3298.306	412.92
3301.348	412.58
3304.387	400.92
3307.425	389.58
3310.459	390.25
3313.492	377.92
3316.521	381.25
3319.549	375.58
3322.574	373.92
3325.597	372.25
3328.617	367.58
3331.635	366.92
3334.65	363.92
3337.663	363.58
3340.674	361.92
3343.682	357.92
3346.688	364.25
3349.691	355.92
3352.692	357.25
3355.691	362.25
3358.687	351.25
3361.681	353.25
3364.673	343.25
3367.662	340.92
3370.649	334.92
3373.633	333.25
3376.615	326.25
3379.595	325.58
3382.572	325.25
3385.547	313.25
3388.52	310.58
3391.49	308.58
3394.458	296.92
3397.424	296.25
3400.387	291.58
3403.348	291.25
3406.307	289.58
3409.263	285.92
3412.217	278.58
3415.168	278.25
3418.118	277.25
3421.065	274.92
3424.009	268.25
3426.951	268.92
3429.891	261.25
3432.829	257.25
3435.764	252.25
3438.697	244.25
3441.628	240.92
3444.557	235.58
3447.483	228.25
3450.407	220.25
3453.328	211.58
3456.247	207.92
3459.164	197.92
3462.079	186.92
3464.991	185.58
3467.902	180.58
3470.809	176.58
3473.715	168.92
3476.618	160.92
3479.519	158.92
3482.418	152.92
3485.315	149.92
3488.209	143.25
3491.101	137.25
3493.99	134.92
3496.878	131.92
3499.763	126.58
3502.646	125.58
3505.527	118.92
3508.405	111.92
3511.281	109.58
3514.155	98.92
3517.027	96.58
3519.897	90.92
3522.764	80.92
3525.629	78.92
3528.492	76.92
3531.352	69.58
3534.211	66.25
3537.067	60.92
3539.921	55.58
3542.773	51.58
3545.622	46.92
3548.469	40.25
3551.315	37.92
3554.157	34.25
3556.998	29.25
3559.837	27.25
3562.673	24.92
3565.507	22.92
3568.339	18.92
3571.169	17.92
3573.996	13.92
3576.822	10.25
3579.645	8.92
3582.466	7.92
3585.285	2.92
3588.101	0.92
3590.916	-2.42
3593.728	-4.42
3596.538	-5.08
3599.346	-11.75
3602.152	-11.75
3604.956	-15.08
3607.757	-14.75
3610.556	-17.75
3613.354	-21.75
3616.149	-22.08
3618.942	-21.75
3621.732	-26.08
3624.521	-25.08
3627.307	-29.08
3630.092	-28.75
3632.874	-30.75
3635.654	-32.42
3638.432	-34.75
3641.208	-35.42
3643.982	-37.08
3646.753	-36.42
3649.523	-39.08
3652.29	-38.75
3655.055	-41.75
3657.818	-43.08
3660.579	-44.08
3663.338	-44.75
3666.095	-47.42
3668.849	-47.75
3671.602	-47.75
3674.352	-53.08
3677.101	-52.42
3679.847	-53.08
3682.591	-56.42
3685.333	-54.75
3688.073	-54.75
3690.811	-55.75
3693.547	-55.75
3696.281	-56.42
3699.013	-58.08
3701.742	-57.75
3704.47	-59.08
3707.195	-59.75
3709.919	-60.42
3712.64	-62.08
3715.359	-62.42
3718.076	-61.75
3720.792	-63.08
3723.505	-64.08
3726.216	-64.42
3728.925	-63.42
3731.632	-64.75
3734.336	-61.75
3737.039	-64.42
3739.74	-65.42
3742.439	-65.75
3745.136	-66.08
3747.83	-68.08
3750.523	-67.42
3753.213	-63.42
3755.902	-68.42
3758.589	-68.08
3761.273	-67.08
3763.956	-68.08
3766.636	-66.75
3769.315	-68.08
3771.991	-69.08
3774.665	-66.75
3777.338	-69.08
3780.008	-70.08
3782.677	-68.75
3785.343	-70.75
3788.007	-69.08
3790.67	-69.42
3793.33	-69.08
3795.989	-70.08
3798.645	-69.42
3801.299	-71.42
3803.952	-68.42
3806.602	-70.08
3809.251	-69.75
3811.897	-69.75
3814.542	-69.75
3817.184	-69.75
3819.825	-69.08
3822.463	-71.75
3825.1	-71.75
3827.735	-70.42
3830.367	-70.42
3832.998	-71.75
3835.627	-71.42
3838.253	-70.08
3840.878	-71.08
3843.501	-72.08
3846.122	-71.08
3848.741	-69.75
3851.358	-71.08
3853.973	-70.42
3856.586	-70.75
3859.197	-71.08
3861.806	-71.75
3864.414	-70.08
3867.019	-70.08
3869.622	-67.42
3872.224	-69.42
3874.823	-63.42
3877.421	-59.42
3880.016	-52.75
3882.61	-46.08
3885.202	-44.08
3887.792	-50.75
3890.38	-59.75
3892.966	-61.42
3895.55	-70.42
3898.132	-70.42
3900.713	-72.42
3903.291	-70.75
3905.868	-70.42
3908.442	-72.42
3911.015	-71.08
3913.586	-72.08
3916.155	-73.42
3918.722	-73.42
3921.287	-71.42
3923.85	-72.08
3926.411	-72.08
3928.971	-72.42
3931.528	-72.75
3934.084	-72.42
3936.638	-71.75
3939.19	-71.08
3941.74	-71.42
3944.288	-70.75
3946.834	-73.75
3949.378	-71.75
3951.921	-73.42
3954.462	-72.08
3957	-73.42
3959.537	-71.08
3962.072	-72.08
3964.606	-72.75
3967.137	-73.75
3969.667	-72.08
3972.194	-73.42
3974.72	-71.75
3977.244	-73.75
3979.766	-72.08
3982.286	-72.75
3984.805	-72.42
3987.321	-70.42
3989.836	-73.75
3992.349	-73.42
3994.86	-71.08
3997.369	-72.42
3999.877	-70.42
4002.382	-71.75
4004.886	-72.08
4007.388	-73.08
4009.888	-70.75
4012.386	-71.75
4014.883	-70.42
4017.377	-71.75
4019.87	-71.08
4022.361	-73.75
4024.85	-71.75
4027.338	-72.08
4029.823	-70.75
4032.307	-71.75
4034.789	-71.75
4037.269	-70.75
4039.747	-71.75
4042.224	-73.08
4044.699	-75.42
4047.172	-71.75
4049.643	-71.42
4052.112	-71.08
4054.58	-69.08
4057.046	-71.75
4059.51	-73.42
4061.972	-73.08
4064.432	-71.42
4066.891	-72.08
4069.348	-69.75
4071.803	-70.75
4074.256	-68.75
4076.708	-70.08
4079.158	-73.08
4081.606	-73.08
4084.052	-72.08
4086.497	-71.75
4088.939	-71.75
4091.38	-72.08
4093.819	-70.75
4096.257	-70.08
4098.693	-71.08
4101.127	-73.75
4103.559	-74.08
4105.989	-35.75
4108.418	-34.75
4110.845	-35.75
4113.27	-32.42
4115.694	-30.08
4118.115	-24.08
4120.535	-70.08
4122.954	-69.75
4125.37	-70.75
4127.785	-71.08
4130.198	-71.42
4132.609	-70.42
4135.019	-72.75
4137.427	-74.08
4139.833	-71.75
4142.237	-73.08
