Data from 10000000CFU3_B_RamanShift_1.txt Node
Date: Mon Jan 23 14:49:32 IST 2017
User: aro
Spectrometer: QEPB0276
Trigger mode: 0
Integration Time (sec): 5.000000E0
Scans to average: 1
Electric dark correction enabled: true
Nonlinearity correction enabled: false
Boxcar width: 0
XAxis mode: Raman Shifts
Number of Pixels in Spectrum: 1044
>>>>>Begin Spectral Data<<<<<
160.701	-31.25
166.742	6.75
172.777	96.75
178.805	395.75
184.826	1119.75
190.841	2313.75
196.849	3622.75
202.85	4507.75
208.845	4725.75
214.833	4586.75
220.815	4379.75
226.789	4249.75
232.758	4147.75
238.719	4033.75
244.674	3881.75
250.623	3722.75
256.565	3568.75
262.5	3417.75
268.429	3229.75
274.351	3118.75
280.267	2979.75
286.176	2875.75
292.079	2763.75
297.975	2675.75
303.865	2598.75
309.748	2509.75
315.625	2454.75
321.495	2430.75
327.359	2377.75
333.217	2356.75
339.068	2348.75
344.912	2313.75
350.751	2293.75
356.583	2290.75
362.408	2292.75
368.227	2291.75
374.04	2303.75
379.847	2297.75
385.647	2326.75
391.44	2340.75
397.228	2353.75
403.009	2360.75
408.784	2384.75
414.553	2366.75
420.315	2392.75
426.071	2393.75
431.821	2387.75
437.565	2392.75
443.302	2397.75
449.033	2385.75
454.758	2364.75
460.477	2364.75
466.189	2367.75
471.896	2358.75
477.596	2313.75
483.29	2319.75
488.978	2311.75
494.66	2306.75
500.335	2268.75
506.005	2233.75
511.668	2208.75
517.325	2171.75
522.977	2139.75
528.622	2113.75
534.261	2111.75
539.894	2093.75
545.521	2064.75
551.141	2049.75
556.756	2038.75
562.365	2031.75
567.968	2005.75
573.565	2011.75
579.155	1992.75
584.74	1976.75
590.319	1945.75
595.892	1956.75
601.459	1944.75
607.02	1927.75
612.575	1906.75
618.124	1909.75
623.667	1903.75
629.204	1873.75
634.735	1852.75
640.261	1825.75
645.781	1839.75
651.294	1821.75
656.802	1822.75
662.304	1801.75
667.8	1810.75
673.29	1791.75
678.775	1802.75
684.254	1799.75
689.726	1799.75
695.193	1765.75
700.655	1743.75
706.11	1744.75
711.56	1738.75
717.004	1726.75
722.442	1718.75
727.874	1703.75
733.301	1706.75
738.722	1692.75
744.137	1695.75
749.547	1686.75
754.951	1691.75
760.349	1686.75
765.741	1682.75
771.128	1667.75
776.509	1674.75
781.885	1668.75
787.254	1668.75
792.618	1667.75
797.977	1648.75
803.33	1630.75
808.677	1626.75
814.019	1625.75
819.355	1592.75
824.686	1577.75
830.011	1584.75
835.33	1571.75
840.644	1553.75
845.952	1556.75
851.255	1549.75
856.552	1543.75
861.844	1538.75
867.13	1535.75
872.41	1526.75
877.686	1512.75
882.955	1507.75
888.219	1493.75
893.478	1471.75
898.731	1431.75
903.979	1410.75
909.221	1388.75
914.458	1383.75
919.69	1377.75
924.916	1384.75
930.136	1370.75
935.351	1381.75
940.561	1371.75
945.766	1365.75
950.965	1371.75
956.158	1343.75
961.347	1338.75
966.529	1306.75
971.707	1289.75
976.879	1282.75
982.046	1273.75
987.208	1275.75
992.364	1255.75
997.515	1280.75
1002.66	1279.75
1007.801	1284.75
1012.936	1306.75
1018.066	1304.75
1023.19	1309.75
1028.309	1309.75
1033.423	1304.75
1038.532	1306.75
1043.636	1305.75
1048.734	1289.75
1053.827	1283.75
1058.915	1254.75
1063.998	1267.75
1069.075	1261.75
1074.147	1260.75
1079.214	1274.75
1084.276	1282.75
1089.333	1287.75
1094.385	1300.75
1099.431	1290.75
1104.472	1300.75
1109.509	1292.75
1114.54	1274.75
1119.565	1249.75
1124.586	1264.75
1129.602	1229.75
1134.613	1232.75
1139.618	1232.75
1144.619	1212.75
1149.614	1230.75
1154.604	1231.75
1159.589	1250.75
1164.57	1236.75
1169.545	1246.75
1174.515	1249.75
1179.48	1241.75
1184.44	1227.75
1189.395	1235.75
1194.345	1224.75
1199.29	1225.75
1204.23	1227.75
1209.165	1230.75
1214.095	1247.75
1219.021	1243.75
1223.941	1244.75
1228.856	1256.75
1233.766	1268.75
1238.672	1278.75
1243.572	1270.75
1248.467	1248.75
1253.358	1238.75
1258.244	1244.75
1263.124	1224.75
1268	1195.75
1272.871	1184.75
1277.737	1177.75
1282.599	1190.75
1287.455	1185.75
1292.306	1172.75
1297.153	1187.75
1301.995	1191.75
1306.832	1211.75
1311.664	1210.75
1316.491	1220.75
1321.314	1211.75
1326.132	1209.75
1330.945	1193.75
1335.753	1202.75
1340.556	1167.75
1345.354	1169.75
1350.148	1149.75
1354.937	1171.75
1359.722	1134.75
1364.501	1131.75
1369.276	1118.75
1374.046	1106.75
1378.811	1103.75
1383.572	1101.75
1388.327	1073.75
1393.079	1111.75
1397.825	1075.75
1402.567	1083.75
1407.304	1068.75
1412.036	1062.75
1416.764	1072.75
1421.487	1069.75
1426.205	1074.75
1430.919	1076.75
1435.628	1100.75
1440.333	1108.75
1445.032	1132.75
1449.727	1130.75
1454.418	1127.75
1459.104	1142.75
1463.785	1121.75
1468.462	1121.75
1473.134	1091.75
1477.802	1092.75
1482.465	1084.75
1487.123	1098.75
1491.777	1094.75
1496.426	1094.75
1501.071	1103.75
1505.711	1115.75
1510.347	1132.75
1514.978	1125.75
1519.604	1124.75
1524.226	1151.75
1528.844	1154.75
1533.457	1138.75
1538.065	1144.75
1542.669	1131.75
1547.269	1123.75
1551.864	1124.75
1556.454	1139.75
1561.041	1138.75
1565.622	1153.75
1570.199	1167.75
1574.772	1185.75
1579.34	1207.75
1583.904	1230.75
1588.464	1251.75
1593.019	1264.75
1597.569	1258.75
1602.115	1287.75
1606.657	1295.75
1611.195	1324.75
1615.728	1339.75
1620.256	1338.75
1624.78	1358.75
1629.3	1376.75
1633.816	1391.75
1638.327	1414.75
1642.834	1426.75
1647.336	1424.75
1651.834	1441.75
1656.328	1436.75
1660.817	1429.75
1665.302	1411.75
1669.783	1373.75
1674.259	1357.75
1678.732	1307.75
1683.199	1288.75
1687.663	1245.75
1692.122	1216.75
1696.577	1148.75
1701.028	1089.75
1705.474	1050.75
1709.917	1013.75
1714.355	997.75
1718.788	984.75
1723.218	967.75
1727.643	951.75
1732.064	946.75
1736.481	918.75
1740.893	898.75
1745.301	869.75
1749.705	856.75
1754.105	826.75
1758.501	814.75
1762.893	801.75
1767.28	793.75
1771.663	788.75
1776.042	775.75
1780.417	797.75
1784.787	787.75
1789.154	786.75
1793.516	791.75
1797.874	786.75
1802.228	765.75
1806.578	755.75
1810.924	753.75
1815.266	738.75
1819.603	717.75
1823.937	713.75
1828.266	710.75
1832.591	703.75
1836.913	700.75
1841.23	698.75
1845.543	696.75
1849.852	711.75
1854.156	696.75
1858.457	706.75
1862.754	701.75
1867.047	709.75
1871.335	718.75
1875.62	726.75
1879.9	723.75
1884.177	709.75
1888.449	719.75
1892.718	718.75
1896.982	721.75
1901.243	714.75
1905.499	715.75
1909.752	709.75
1914	723.75
1918.245	720.75
1922.485	706.75
1926.722	712.75
1930.954	718.75
1935.183	711.75
1939.408	720.75
1943.628	736.75
1947.845	729.75
1952.058	717.75
1956.267	706.75
1960.472	709.75
1964.673	690.75
1968.87	688.75
1973.063	664.75
1977.252	672.75
1981.438	677.75
1985.619	685.75
1989.797	680.75
1993.971	672.75
1998.14	670.75
2002.306	675.75
2006.469	690.75
2010.627	680.75
2014.781	696.75
2018.932	688.75
2023.078	685.75
2027.221	682.75
2031.36	682.75
2035.495	663.75
2039.627	660.75
2043.754	665.75
2047.878	668.75
2051.998	669.75
2056.114	659.75
2060.226	667.75
2064.334	671.75
2068.439	669.75
2072.54	678.75
2076.637	681.75
2080.73	694.75
2084.82	695.75
2088.906	697.75
2092.988	691.75
2097.066	677.75
2101.14	675.75
2105.211	678.75
2109.278	667.75
2113.342	663.75
2117.401	647.75
2121.457	661.75
2125.509	641.75
2129.558	651.75
2133.602	639.75
2137.643	652.75
2141.681	647.75
2145.714	634.75
2149.744	643.75
2153.77	629.75
2157.793	620.75
2161.812	607.75
2165.827	615.75
2169.838	607.75
2173.846	593.75
2177.851	595.75
2181.851	580.75
2185.848	567.75
2189.841	568.75
2193.831	572.75
2197.817	560.75
2201.799	565.75
2205.778	550.75
2209.753	554.75
2213.725	557.75
2217.693	552.75
2221.657	544.75
2225.618	550.75
2229.575	547.75
2233.529	541.75
2237.479	540.75
2241.425	542.75
2245.368	521.75
2249.307	526.75
2253.243	522.75
2257.175	508.75
2261.104	505.75
2265.029	495.75
2268.95	486.75
2272.868	466.75
2276.783	466.75
2280.694	466.75
2284.601	467.75
2288.505	462.75
2292.405	443.75
2296.302	441.75
2300.195	434.75
2304.085	433.75
2307.971	429.75
2311.854	427.75
2315.734	408.75
2319.609	402.75
2323.482	400.75
2327.351	393.75
2331.216	394.75
2335.078	394.75
2338.937	391.75
2342.792	392.75
2346.643	385.75
2350.492	378.75
2354.336	374.75
2358.178	386.75
2362.015	385.75
2365.85	389.75
2369.681	384.75
2373.508	378.75
2377.333	389.75
2381.153	374.75
2384.971	381.75
2388.785	374.75
2392.595	387.75
2396.402	375.75
2400.206	371.75
2404.007	369.75
2407.804	374.75
2411.597	374.75
2415.388	373.75
2419.174	367.75
2422.958	362.75
2426.738	358.75
2430.515	358.75
2434.289	363.75
2438.059	352.75
2441.825	349.75
2445.589	355.75
2449.349	355.75
2453.106	351.75
2456.859	345.75
2460.61	344.75
2464.356	343.75
2468.1	337.75
2471.84	334.75
2475.577	331.75
2479.311	328.75
2483.041	340.75
2486.768	334.75
2490.492	336.75
2494.213	333.75
2497.93	330.75
2501.644	322.75
2505.355	339.75
2509.062	329.75
2512.766	324.75
2516.467	323.75
2520.165	324.75
2523.859	333.75
2527.551	314.75
2531.239	318.75
2534.923	316.75
2538.605	316.75
2542.283	309.75
2545.958	314.75
2549.63	311.75
2553.299	312.75
2556.964	298.75
2560.626	300.75
2564.285	293.75
2567.941	303.75
2571.594	297.75
2575.243	300.75
2578.89	283.75
2582.533	284.75
2586.173	283.75
2589.809	286.75
2593.443	278.75
2597.073	275.75
2600.701	280.75
2604.325	278.75
2607.946	275.75
2611.564	275.75
2615.178	273.75
2618.79	272.75
2622.398	277.75
2626.004	264.75
2629.606	276.75
2633.205	267.75
2636.801	265.75
2640.394	259.75
2643.983	260.75
2647.57	245.75
2651.153	240.75
2654.734	246.75
2658.311	248.75
2661.885	242.75
2665.456	242.75
2669.025	254.75
2672.589	234.75
2676.151	235.75
2679.71	234.75
2683.266	237.75
2686.819	230.75
2690.368	228.75
2693.915	225.75
2697.458	216.75
2700.999	226.75
2704.536	214.75
2708.071	215.75
2711.602	217.75
2715.13	214.75
2718.656	218.75
2722.178	220.75
2725.697	219.75
2729.214	221.75
2732.727	212.75
2736.237	216.75
2739.744	213.75
2743.249	220.75
2746.75	226.75
2750.248	216.75
2753.743	222.75
2757.236	212.75
2760.725	211.75
2764.211	214.75
2767.695	211.75
2771.175	209.75
2774.652	207.75
2778.127	204.75
2781.598	205.75
2785.067	207.75
2788.532	206.75
2791.995	202.75
2795.455	201.75
2798.911	204.75
2802.365	216.75
2805.816	211.75
2809.264	212.75
2812.709	214.75
2816.151	213.75
2819.59	216.75
2823.026	200.75
2826.46	211.75
2829.89	205.75
2833.318	211.75
2836.742	208.75
2840.164	217.75
2843.583	219.75
2846.999	218.75
2850.412	220.75
2853.822	230.75
2857.229	225.75
2860.634	225.75
2864.035	234.75
2867.434	237.75
2870.83	242.75
2874.223	242.75
2877.613	251.75
2881	246.75
2884.385	245.75
2887.766	250.75
2891.145	254.75
2894.521	243.75
2897.894	255.75
2901.264	253.75
2904.631	251.75
2907.996	253.75
2911.358	256.75
2914.717	266.75
2918.073	262.75
2921.426	261.75
2924.777	271.75
2928.124	267.75
2931.469	272.75
2934.811	285.75
2938.15	306.75
2941.487	299.75
2944.821	300.75
2948.152	305.75
2951.48	310.75
2954.805	310.75
2958.128	326.75
2961.447	330.75
2964.765	331.75
2968.079	338.75
2971.39	343.75
2974.699	349.75
2978.005	353.75
2981.308	355.75
2984.609	377.75
2987.907	383.75
2991.202	395.75
2994.494	404.75
2997.784	407.75
3001.07	426.75
3004.355	445.75
3007.636	453.75
3010.915	452.75
3014.191	461.75
3017.464	486.75
3020.734	471.75
3024.002	495.75
3027.267	501.75
3030.53	501.75
3033.789	511.75
3037.046	527.75
3040.301	533.75
3043.552	549.75
3046.801	574.75
3050.048	573.75
3053.291	596.75
3056.532	614.75
3059.771	633.75
3063.006	657.75
3066.239	674.75
3069.469	684.75
3072.697	693.75
3075.922	727.75
3079.144	743.75
3082.364	770.75
3085.581	781.75
3088.795	796.75
3092.007	832.75
3095.216	843.75
3098.423	862.75
3101.627	873.75
3104.828	889.75
3108.026	909.75
3111.222	930.75
3114.416	939.75
3117.607	966.75
3120.795	991.75
3123.98	1031.75
3127.163	1049.75
3130.344	1069.75
3133.521	1096.75
3136.696	1112.75
3139.869	1138.75
3143.039	1137.75
3146.206	1179.75
3149.371	1176.75
3152.533	1182.75
3155.693	1192.75
3158.85	1216.75
3162.005	1211.75
3165.157	1211.75
3168.306	1214.75
3171.453	1234.75
3174.597	1233.75
3177.739	1246.75
3180.878	1227.75
3184.014	1249.75
3187.149	1252.75
3190.28	1248.75
3193.409	1253.75
3196.536	1264.75
3199.659	1245.75
3202.781	1247.75
3205.9	1260.75
3209.016	1260.75
3212.13	1249.75
3215.241	1246.75
3218.35	1238.75
3221.456	1248.75
3224.56	1220.75
3227.661	1219.75
3230.76	1210.75
3233.856	1170.75
3236.95	1162.75
3240.041	1178.75
3243.13	1155.75
3246.216	1140.75
3249.3	1145.75
3252.382	1123.75
3255.46	1122.75
3258.537	1137.75
3261.611	1109.75
3264.682	1119.75
3267.751	1093.75
3270.818	1105.75
3273.882	1105.75
3276.943	1083.75
3280.002	1087.75
3283.059	1063.75
3286.113	1068.75
3289.165	1040.75
3292.214	1039.75
3295.261	1016.75
3298.306	989.75
3301.348	973.75
3304.387	961.75
3307.425	963.75
3310.459	941.75
3313.492	933.75
3316.521	925.75
3319.549	909.75
3322.574	897.75
3325.597	899.75
3328.617	885.75
3331.635	881.75
3334.65	876.75
3337.663	867.75
3340.674	872.75
3343.682	874.75
3346.688	856.75
3349.691	856.75
3352.692	852.75
3355.691	839.75
3358.687	831.75
3361.681	839.75
3364.673	824.75
3367.662	817.75
3370.649	794.75
3373.633	773.75
3376.615	776.75
3379.595	771.75
3382.572	749.75
3385.547	748.75
3388.52	723.75
3391.49	721.75
3394.458	716.75
3397.424	703.75
3400.387	701.75
3403.348	682.75
3406.307	683.75
3409.263	686.75
3412.217	674.75
3415.168	662.75
3418.118	655.75
3421.065	645.75
3424.009	639.75
3426.951	621.75
3429.891	620.75
3432.829	595.75
3435.764	605.75
3438.697	585.75
3441.628	559.75
3444.557	557.75
3447.483	544.75
3450.407	530.75
3453.328	507.75
3456.247	496.75
3459.164	470.75
3462.079	468.75
3464.991	442.75
3467.902	438.75
3470.809	412.75
3473.715	415.75
3476.618	397.75
3479.519	383.75
3482.418	364.75
3485.315	359.75
3488.209	356.75
3491.101	346.75
3493.99	328.75
3496.878	323.75
3499.763	308.75
3502.646	296.75
3505.527	295.75
3508.405	291.75
3511.281	270.75
3514.155	260.75
3517.027	240.75
3519.897	237.75
3522.764	222.75
3525.629	208.75
3528.492	200.75
3531.352	190.75
3534.211	170.75
3537.067	161.75
3539.921	152.75
3542.773	147.75
3545.622	141.75
3548.469	131.75
3551.315	121.75
3554.157	120.75
3556.998	109.75
3559.837	98.75
3562.673	90.75
3565.507	84.75
3568.339	76.75
3571.169	72.75
3573.996	69.75
3576.822	61.75
3579.645	54.75
3582.466	52.75
3585.285	44.75
3588.101	34.75
3590.916	40.75
3593.728	34.75
3596.538	29.75
3599.346	23.75
3602.152	17.75
3604.956	10.75
3607.757	6.75
3610.556	-2.25
3613.354	-8.25
3616.149	-7.25
3618.942	-9.25
3621.732	-15.25
3624.521	-10.25
3627.307	-17.25
3630.092	-23.25
3632.874	-20.25
3635.654	-21.25
3638.432	-27.25
3641.208	-34.25
3643.982	-33.25
3646.753	-39.25
3649.523	-38.25
3652.29	-50.25
3655.055	-47.25
3657.818	-52.25
3660.579	-56.25
3663.338	-51.25
3666.095	-53.25
3668.849	-53.25
3671.602	-61.25
3674.352	-62.25
3677.101	-67.25
3679.847	-69.25
3682.591	-71.25
3685.333	-70.25
3688.073	-70.25
3690.811	-75.25
3693.547	-77.25
3696.281	-77.25
3699.013	-77.25
3701.742	-82.25
3704.47	-76.25
3707.195	-82.25
3709.919	-81.25
3712.64	-83.25
3715.359	-84.25
3718.076	-89.25
3720.792	-91.25
3723.505	-91.25
3726.216	-91.25
3728.925	-93.25
3731.632	-89.25
3734.336	-92.25
3737.039	-89.25
3739.74	-91.25
3742.439	-95.25
3745.136	-97.25
3747.83	-93.25
3750.523	-94.25
3753.213	-95.25
3755.902	-98.25
3758.589	-100.25
3761.273	-98.25
3763.956	-99.25
3766.636	-99.25
3769.315	-102.25
3771.991	-100.25
3774.665	-98.25
3777.338	-96.25
3780.008	-97.25
3782.677	-103.25
3785.343	-99.25
3788.007	-102.25
3790.67	-102.25
3793.33	-104.25
3795.989	-103.25
3798.645	-101.25
3801.299	-102.25
3803.952	-107.25
3806.602	-109.25
3809.251	-107.25
3811.897	-103.25
3814.542	-104.25
3817.184	-100.25
3819.825	-109.25
3822.463	-103.25
3825.1	-108.25
3827.735	-109.25
3830.367	-108.25
3832.998	-113.25
3835.627	-111.25
3838.253	-109.25
3840.878	-109.25
3843.501	-105.25
3846.122	-110.25
3848.741	-108.25
3851.358	-108.25
3853.973	-109.25
3856.586	-106.25
3859.197	-105.25
3861.806	-109.25
3864.414	-109.25
3867.019	-112.25
3869.622	-112.25
3872.224	-111.25
3874.823	-110.25
3877.421	-107.25
3880.016	-103.25
3882.61	-101.25
3885.202	-100.25
3887.792	-104.25
3890.38	-107.25
3892.966	-105.25
3895.55	-111.25
3898.132	-109.25
3900.713	-112.25
3903.291	-113.25
3905.868	-111.25
3908.442	-115.25
3911.015	-114.25
3913.586	-112.25
3916.155	-113.25
3918.722	-113.25
3921.287	-110.25
3923.85	-111.25
3926.411	-112.25
3928.971	-112.25
3931.528	-114.25
3934.084	-115.25
3936.638	-114.25
3939.19	-115.25
3941.74	-115.25
3944.288	-116.25
3946.834	-111.25
3949.378	-112.25
3951.921	-109.25
3954.462	-113.25
3957	-114.25
3959.537	-114.25
3962.072	-114.25
3964.606	-112.25
3967.137	-111.25
3969.667	-110.25
3972.194	-111.25
3974.72	-116.25
3977.244	-114.25
3979.766	-115.25
3982.286	-114.25
3984.805	-111.25
3987.321	-110.25
3989.836	-108.25
3992.349	-112.25
3994.86	-113.25
3997.369	-111.25
3999.877	-112.25
4002.382	-109.25
4004.886	-110.25
4007.388	-111.25
4009.888	-110.25
4012.386	-112.25
4014.883	-115.25
4017.377	-118.25
4019.87	-114.25
4022.361	-113.25
4024.85	-114.25
4027.338	-110.25
4029.823	-110.25
4032.307	-109.25
4034.789	-109.25
4037.269	-111.25
4039.747	-111.25
4042.224	-116.25
4044.699	-117.25
4047.172	-115.25
4049.643	-114.25
4052.112	-114.25
4054.58	-115.25
4057.046	-113.25
4059.51	-114.25
4061.972	-113.25
4064.432	-116.25
4066.891	-112.25
4069.348	-110.25
4071.803	-111.25
4074.256	-111.25
4076.708	-110.25
4079.158	-112.25
4081.606	-115.25
4084.052	-116.25
4086.497	-114.25
4088.939	-114.25
4091.38	-115.25
4093.819	-112.25
4096.257	-120.25
4098.693	-116.25
4101.127	-121.25
4103.559	-121.25
4105.989	-79.25
4108.418	-76.25
4110.845	-72.25
4113.27	-66.25
4115.694	-51.25
4118.115	-46.25
4120.535	-109.25
4122.954	-110.25
4125.37	-113.25
4127.785	-116.25
4130.198	-115.25
4132.609	-112.25
4135.019	-116.25
4137.427	-119.25
4139.833	-116.25
4142.237	-116.25
