Data from 1000CFU2_A_RamanShift_1.txt Node
Date: Mon Jan 23 14:14:27 IST 2017
User: aro
Spectrometer: QEPB0276
Trigger mode: 0
Integration Time (sec): 5.000000E0
Scans to average: 1
Electric dark correction enabled: true
Nonlinearity correction enabled: false
Boxcar width: 0
XAxis mode: Raman Shifts
Number of Pixels in Spectrum: 1044
>>>>>Begin Spectral Data<<<<<
160.701	-27.62
166.742	-0.62
172.777	94.38
178.805	347.38
184.826	969.38
190.841	2036.38
196.849	3205.38
202.85	3946.38
208.845	4179.38
214.833	4051.38
220.815	3907.38
226.789	3803.38
232.758	3733.38
238.719	3617.38
244.674	3502.38
250.623	3347.38
256.565	3226.38
262.5	3089.38
268.429	2962.38
274.351	2867.38
280.267	2774.38
286.176	2677.38
292.079	2591.38
297.975	2514.38
303.865	2461.38
309.748	2383.38
315.625	2353.38
321.495	2283.38
327.359	2287.38
333.217	2243.38
339.068	2202.38
344.912	2225.38
350.751	2196.38
356.583	2184.38
362.408	2198.38
368.227	2199.38
374.04	2185.38
379.847	2189.38
385.647	2205.38
391.44	2232.38
397.228	2224.38
403.009	2243.38
408.784	2238.38
414.553	2270.38
420.315	2279.38
426.071	2284.38
431.821	2277.38
437.565	2260.38
443.302	2288.38
449.033	2275.38
454.758	2268.38
460.477	2262.38
466.189	2245.38
471.896	2235.38
477.596	2220.38
483.29	2216.38
488.978	2224.38
494.66	2196.38
500.335	2183.38
506.005	2171.38
511.668	2135.38
517.325	2087.38
522.977	2065.38
528.622	2028.38
534.261	2032.38
539.894	2010.38
545.521	1999.38
551.141	2006.38
556.756	1980.38
562.365	1964.38
567.968	1962.38
573.565	1965.38
579.155	1954.38
584.74	1939.38
590.319	1931.38
595.892	1933.38
601.459	1912.38
607.02	1901.38
612.575	1866.38
618.124	1855.38
623.667	1876.38
629.204	1845.38
634.735	1809.38
640.261	1817.38
645.781	1812.38
651.294	1804.38
656.802	1798.38
662.304	1785.38
667.8	1795.38
673.29	1783.38
678.775	1793.38
684.254	1787.38
689.726	1785.38
695.193	1762.38
700.655	1748.38
706.11	1764.38
711.56	1733.38
717.004	1725.38
722.442	1740.38
727.874	1723.38
733.301	1728.38
738.722	1709.38
744.137	1693.38
749.547	1680.38
754.951	1721.38
760.349	1711.38
765.741	1706.38
771.128	1699.38
776.509	1710.38
781.885	1702.38
787.254	1708.38
792.618	1702.38
797.977	1686.38
803.33	1677.38
808.677	1648.38
814.019	1649.38
819.355	1639.38
824.686	1643.38
830.011	1618.38
835.33	1603.38
840.644	1603.38
845.952	1619.38
851.255	1617.38
856.552	1618.38
861.844	1601.38
867.13	1612.38
872.41	1606.38
877.686	1589.38
882.955	1572.38
888.219	1561.38
893.478	1543.38
898.731	1516.38
903.979	1497.38
909.221	1462.38
914.458	1460.38
919.69	1470.38
924.916	1465.38
930.136	1476.38
935.351	1480.38
940.561	1492.38
945.766	1473.38
950.965	1474.38
956.158	1463.38
961.347	1441.38
966.529	1430.38
971.707	1410.38
976.879	1399.38
982.046	1380.38
987.208	1377.38
992.364	1379.38
997.515	1379.38
1002.66	1406.38
1007.801	1403.38
1012.936	1433.38
1018.066	1422.38
1023.19	1439.38
1028.309	1452.38
1033.423	1442.38
1038.532	1449.38
1043.636	1437.38
1048.734	1403.38
1053.827	1401.38
1058.915	1381.38
1063.998	1390.38
1069.075	1414.38
1074.147	1379.38
1079.214	1392.38
1084.276	1408.38
1089.333	1429.38
1094.385	1429.38
1099.431	1442.38
1104.472	1427.38
1109.509	1433.38
1114.54	1404.38
1119.565	1401.38
1124.586	1373.38
1129.602	1371.38
1134.613	1370.38
1139.618	1370.38
1144.619	1361.38
1149.614	1375.38
1154.604	1375.38
1159.589	1388.38
1164.57	1396.38
1169.545	1395.38
1174.515	1400.38
1179.48	1381.38
1184.44	1385.38
1189.395	1376.38
1194.345	1374.38
1199.29	1374.38
1204.23	1374.38
1209.165	1382.38
1214.095	1384.38
1219.021	1389.38
1223.941	1412.38
1228.856	1408.38
1233.766	1421.38
1238.672	1433.38
1243.572	1438.38
1248.467	1429.38
1253.358	1404.38
1258.244	1397.38
1263.124	1368.38
1268	1353.38
1272.871	1347.38
1277.737	1340.38
1282.599	1330.38
1287.455	1327.38
1292.306	1334.38
1297.153	1362.38
1301.995	1369.38
1306.832	1383.38
1311.664	1388.38
1316.491	1381.38
1321.314	1374.38
1326.132	1368.38
1330.945	1356.38
1335.753	1337.38
1340.556	1339.38
1345.354	1342.38
1350.148	1322.38
1354.937	1332.38
1359.722	1308.38
1364.501	1278.38
1369.276	1264.38
1374.046	1240.38
1378.811	1226.38
1383.572	1223.38
1388.327	1229.38
1393.079	1228.38
1397.825	1224.38
1402.567	1231.38
1407.304	1223.38
1412.036	1226.38
1416.764	1219.38
1421.487	1216.38
1426.205	1219.38
1430.919	1237.38
1435.628	1252.38
1440.333	1265.38
1445.032	1285.38
1449.727	1289.38
1454.418	1288.38
1459.104	1285.38
1463.785	1288.38
1468.462	1282.38
1473.134	1273.38
1477.802	1277.38
1482.465	1269.38
1487.123	1249.38
1491.777	1256.38
1496.426	1251.38
1501.071	1261.38
1505.711	1251.38
1510.347	1290.38
1514.978	1278.38
1519.604	1284.38
1524.226	1278.38
1528.844	1281.38
1533.457	1285.38
1538.065	1266.38
1542.669	1278.38
1547.269	1250.38
1551.864	1256.38
1556.454	1299.38
1561.041	1284.38
1565.622	1290.38
1570.199	1307.38
1574.772	1325.38
1579.34	1347.38
1583.904	1362.38
1588.464	1381.38
1593.019	1403.38
1597.569	1403.38
1602.115	1406.38
1606.657	1408.38
1611.195	1430.38
1615.728	1434.38
1620.256	1441.38
1624.78	1463.38
1629.3	1464.38
1633.816	1492.38
1638.327	1509.38
1642.834	1518.38
1647.336	1523.38
1651.834	1546.38
1656.328	1535.38
1660.817	1533.38
1665.302	1531.38
1669.783	1504.38
1674.259	1469.38
1678.732	1441.38
1683.199	1411.38
1687.663	1376.38
1692.122	1328.38
1696.577	1290.38
1701.028	1217.38
1705.474	1162.38
1709.917	1131.38
1714.355	1124.38
1718.788	1119.38
1723.218	1121.38
1727.643	1097.38
1732.064	1095.38
1736.481	1067.38
1740.893	1042.38
1745.301	1032.38
1749.705	1003.38
1754.105	980.38
1758.501	966.38
1762.893	944.38
1767.28	960.38
1771.663	951.38
1776.042	945.38
1780.417	953.38
1784.787	950.38
1789.154	961.38
1793.516	954.38
1797.874	944.38
1802.228	927.38
1806.578	917.38
1810.924	906.38
1815.266	891.38
1819.603	868.38
1823.937	867.38
1828.266	862.38
1832.591	871.38
1836.913	860.38
1841.23	871.38
1845.543	878.38
1849.852	879.38
1854.156	887.38
1858.457	866.38
1862.754	892.38
1867.047	886.38
1871.335	881.38
1875.62	881.38
1879.9	903.38
1884.177	890.38
1888.449	901.38
1892.718	898.38
1896.982	885.38
1901.243	897.38
1905.499	897.38
1909.752	894.38
1914	887.38
1918.245	880.38
1922.485	888.38
1926.722	891.38
1930.954	897.38
1935.183	897.38
1939.408	897.38
1943.628	889.38
1947.845	884.38
1952.058	881.38
1956.267	874.38
1960.472	870.38
1964.673	856.38
1968.87	838.38
1973.063	826.38
1977.252	831.38
1981.438	825.38
1985.619	824.38
1989.797	823.38
1993.971	826.38
1998.14	830.38
2002.306	822.38
2006.469	837.38
2010.627	838.38
2014.781	848.38
2018.932	830.38
2023.078	832.38
2027.221	839.38
2031.36	830.38
2035.495	823.38
2039.627	808.38
2043.754	808.38
2047.878	809.38
2051.998	816.38
2056.114	807.38
2060.226	803.38
2064.334	814.38
2068.439	824.38
2072.54	828.38
2076.637	841.38
2080.73	837.38
2084.82	837.38
2088.906	826.38
2092.988	823.38
2097.066	821.38
2101.14	816.38
2105.211	810.38
2109.278	803.38
2113.342	800.38
2117.401	805.38
2121.457	790.38
2125.509	795.38
2129.558	781.38
2133.602	770.38
2137.643	780.38
2141.681	772.38
2145.714	771.38
2149.744	767.38
2153.77	766.38
2157.793	754.38
2161.812	757.38
2165.827	748.38
2169.838	745.38
2173.846	742.38
2177.851	722.38
2181.851	714.38
2185.848	695.38
2189.841	685.38
2193.831	691.38
2197.817	684.38
2201.799	684.38
2205.778	689.38
2209.753	688.38
2213.725	688.38
2217.693	690.38
2221.657	676.38
2225.618	681.38
2229.575	681.38
2233.529	685.38
2237.479	679.38
2241.425	671.38
2245.368	654.38
2249.307	646.38
2253.243	651.38
2257.175	633.38
2261.104	620.38
2265.029	617.38
2268.95	613.38
2272.868	614.38
2276.783	611.38
2280.694	592.38
2284.601	587.38
2288.505	592.38
2292.405	587.38
2296.302	565.38
2300.195	575.38
2304.085	556.38
2307.971	550.38
2311.854	544.38
2315.734	531.38
2319.609	520.38
2323.482	514.38
2327.351	513.38
2331.216	518.38
2335.078	513.38
2338.937	515.38
2342.792	511.38
2346.643	504.38
2350.492	501.38
2354.336	505.38
2358.178	501.38
2362.015	507.38
2365.85	499.38
2369.681	507.38
2373.508	509.38
2377.333	519.38
2381.153	508.38
2384.971	506.38
2388.785	508.38
2392.595	511.38
2396.402	510.38
2400.206	507.38
2404.007	489.38
2407.804	494.38
2411.597	494.38
2415.388	488.38
2419.174	493.38
2422.958	481.38
2426.738	489.38
2430.515	484.38
2434.289	488.38
2438.059	494.38
2441.825	483.38
2445.589	474.38
2449.349	467.38
2453.106	467.38
2456.859	462.38
2460.61	467.38
2464.356	464.38
2468.1	462.38
2471.84	454.38
2475.577	453.38
2479.311	457.38
2483.041	461.38
2486.768	453.38
2490.492	458.38
2494.213	450.38
2497.93	459.38
2501.644	451.38
2505.355	460.38
2509.062	447.38
2512.766	465.38
2516.467	456.38
2520.165	446.38
2523.859	449.38
2527.551	449.38
2531.239	436.38
2534.923	428.38
2538.605	438.38
2542.283	422.38
2545.958	427.38
2549.63	434.38
2553.299	429.38
2556.964	420.38
2560.626	417.38
2564.285	406.38
2567.941	425.38
2571.594	407.38
2575.243	416.38
2578.89	420.38
2582.533	404.38
2586.173	401.38
2589.809	395.38
2593.443	393.38
2597.073	396.38
2600.701	384.38
2604.325	388.38
2607.946	391.38
2611.564	394.38
2615.178	384.38
2618.79	392.38
2622.398	388.38
2626.004	377.38
2629.606	383.38
2633.205	363.38
2636.801	379.38
2640.394	360.38
2643.983	359.38
2647.57	355.38
2651.153	357.38
2654.734	354.38
2658.311	360.38
2661.885	348.38
2665.456	338.38
2669.025	344.38
2672.589	341.38
2676.151	334.38
2679.71	333.38
2683.266	341.38
2686.819	329.38
2690.368	329.38
2693.915	328.38
2697.458	324.38
2700.999	320.38
2704.536	317.38
2708.071	310.38
2711.602	312.38
2715.13	302.38
2718.656	316.38
2722.178	311.38
2725.697	312.38
2729.214	305.38
2732.727	307.38
2736.237	319.38
2739.744	306.38
2743.249	311.38
2746.75	314.38
2750.248	315.38
2753.743	312.38
2757.236	306.38
2760.725	301.38
2764.211	296.38
2767.695	285.38
2771.175	282.38
2774.652	283.38
2778.127	281.38
2781.598	281.38
2785.067	279.38
2788.532	280.38
2791.995	281.38
2795.455	280.38
2798.911	280.38
2802.365	289.38
2805.816	288.38
2809.264	289.38
2812.709	286.38
2816.151	282.38
2819.59	284.38
2823.026	284.38
2826.46	288.38
2829.89	284.38
2833.318	282.38
2836.742	286.38
2840.164	289.38
2843.583	284.38
2846.999	290.38
2850.412	289.38
2853.822	293.38
2857.229	299.38
2860.634	287.38
2864.035	295.38
2867.434	301.38
2870.83	295.38
2874.223	304.38
2877.613	311.38
2881	313.38
2884.385	307.38
2887.766	303.38
2891.145	298.38
2894.521	298.38
2897.894	296.38
2901.264	306.38
2904.631	303.38
2907.996	301.38
2911.358	300.38
2914.717	308.38
2918.073	302.38
2921.426	307.38
2924.777	309.38
2928.124	326.38
2931.469	326.38
2934.811	324.38
2938.15	344.38
2941.487	327.38
2944.821	326.38
2948.152	333.38
2951.48	341.38
2954.805	335.38
2958.128	350.38
2961.447	349.38
2964.765	353.38
2968.079	350.38
2971.39	361.38
2974.699	376.38
2978.005	377.38
2981.308	380.38
2984.609	382.38
2987.907	403.38
2991.202	407.38
2994.494	411.38
2997.784	424.38
3001.07	435.38
3004.355	428.38
3007.636	444.38
3010.915	441.38
3014.191	450.38
3017.464	460.38
3020.734	468.38
3024.002	466.38
3027.267	480.38
3030.53	485.38
3033.789	481.38
3037.046	497.38
3040.301	514.38
3043.552	519.38
3046.801	528.38
3050.048	530.38
3053.291	550.38
3056.532	560.38
3059.771	579.38
3063.006	595.38
3066.239	618.38
3069.469	625.38
3072.697	637.38
3075.922	667.38
3079.144	685.38
3082.364	691.38
3085.581	708.38
3088.795	712.38
3092.007	724.38
3095.216	754.38
3098.423	767.38
3101.627	771.38
3104.828	794.38
3108.026	805.38
3111.222	824.38
3114.416	833.38
3117.607	862.38
3120.795	871.38
3123.98	880.38
3127.163	908.38
3130.344	928.38
3133.521	945.38
3136.696	955.38
3139.869	986.38
3143.039	989.38
3146.206	1015.38
3149.371	1023.38
3152.533	1046.38
3155.693	1034.38
3158.85	1036.38
3162.005	1049.38
3165.157	1047.38
3168.306	1056.38
3171.453	1052.38
3174.597	1071.38
3177.739	1053.38
3180.878	1066.38
3184.014	1065.38
3187.149	1062.38
3190.28	1055.38
3193.409	1074.38
3196.536	1068.38
3199.659	1073.38
3202.781	1076.38
3205.9	1066.38
3209.016	1073.38
3212.13	1072.38
3215.241	1070.38
3218.35	1062.38
3221.456	1057.38
3224.56	1048.38
3227.661	1032.38
3230.76	1024.38
3233.856	1020.38
3236.95	1006.38
3240.041	998.38
3243.13	988.38
3246.216	976.38
3249.3	977.38
3252.382	968.38
3255.46	970.38
3258.537	969.38
3261.611	963.38
3264.682	954.38
3267.751	951.38
3270.818	962.38
3273.882	926.38
3276.943	942.38
3280.002	926.38
3283.059	915.38
3286.113	911.38
3289.165	907.38
3292.214	890.38
3295.261	867.38
3298.306	862.38
3301.348	847.38
3304.387	825.38
3307.425	811.38
3310.459	797.38
3313.492	783.38
3316.521	793.38
3319.549	787.38
3322.574	764.38
3325.597	761.38
3328.617	763.38
3331.635	759.38
3334.65	754.38
3337.663	750.38
3340.674	746.38
3343.682	743.38
3346.688	722.38
3349.691	739.38
3352.692	731.38
3355.691	724.38
3358.687	715.38
3361.681	713.38
3364.673	710.38
3367.662	686.38
3370.649	683.38
3373.633	668.38
3376.615	668.38
3379.595	656.38
3382.572	647.38
3385.547	646.38
3388.52	627.38
3391.49	610.38
3394.458	619.38
3397.424	591.38
3400.387	593.38
3403.348	590.38
3406.307	582.38
3409.263	577.38
3412.217	575.38
3415.168	574.38
3418.118	559.38
3421.065	548.38
3424.009	547.38
3426.951	534.38
3429.891	534.38
3432.829	521.38
3435.764	511.38
3438.697	513.38
3441.628	486.38
3444.557	475.38
3447.483	464.38
3450.407	455.38
3453.328	436.38
3456.247	425.38
3459.164	411.38
3462.079	408.38
3464.991	393.38
3467.902	375.38
3470.809	362.38
3473.715	351.38
3476.618	335.38
3479.519	339.38
3482.418	324.38
3485.315	311.38
3488.209	302.38
3491.101	298.38
3493.99	293.38
3496.878	277.38
3499.763	269.38
3502.646	264.38
3505.527	254.38
3508.405	241.38
3511.281	232.38
3514.155	218.38
3517.027	208.38
3519.897	212.38
3522.764	200.38
3525.629	185.38
3528.492	173.38
3531.352	167.38
3534.211	154.38
3537.067	138.38
3539.921	137.38
3542.773	130.38
3545.622	118.38
3548.469	105.38
3551.315	105.38
3554.157	106.38
3556.998	94.38
3559.837	85.38
3562.673	78.38
3565.507	77.38
3568.339	74.38
3571.169	71.38
3573.996	65.38
3576.822	61.38
3579.645	49.38
3582.466	45.38
3585.285	45.38
3588.101	33.38
3590.916	37.38
3593.728	33.38
3596.538	26.38
3599.346	24.38
3602.152	16.38
3604.956	14.38
3607.757	5.38
3610.556	2.38
3613.354	-3.62
3616.149	-0.62
3618.942	-9.62
3621.732	-7.62
3624.521	-3.62
3627.307	-8.62
3630.092	-13.62
3632.874	-18.62
3635.654	-21.62
3638.432	-16.62
3641.208	-17.62
3643.982	-24.62
3646.753	-29.62
3649.523	-32.62
3652.29	-39.62
3655.055	-38.62
3657.818	-41.62
3660.579	-43.62
3663.338	-42.62
3666.095	-45.62
3668.849	-43.62
3671.602	-47.62
3674.352	-49.62
3677.101	-56.62
3679.847	-58.62
3682.591	-60.62
3685.333	-63.62
3688.073	-62.62
3690.811	-60.62
3693.547	-61.62
3696.281	-65.62
3699.013	-62.62
3701.742	-64.62
3704.47	-66.62
3707.195	-68.62
3709.919	-65.62
3712.64	-68.62
3715.359	-69.62
3718.076	-74.62
3720.792	-79.62
3723.505	-75.62
3726.216	-73.62
3728.925	-71.62
3731.632	-75.62
3734.336	-77.62
3737.039	-77.62
3739.74	-72.62
3742.439	-80.62
3745.136	-80.62
3747.83	-75.62
3750.523	-82.62
3753.213	-79.62
3755.902	-77.62
3758.589	-83.62
3761.273	-82.62
3763.956	-81.62
3766.636	-85.62
3769.315	-82.62
3771.991	-80.62
3774.665	-80.62
3777.338	-81.62
3780.008	-85.62
3782.677	-89.62
3785.343	-89.62
3788.007	-85.62
3790.67	-89.62
3793.33	-87.62
3795.989	-84.62
3798.645	-83.62
3801.299	-83.62
3803.952	-88.62
3806.602	-87.62
3809.251	-87.62
3811.897	-84.62
3814.542	-89.62
3817.184	-91.62
3819.825	-90.62
3822.463	-90.62
3825.1	-91.62
3827.735	-93.62
3830.367	-86.62
3832.998	-92.62
3835.627	-87.62
3838.253	-86.62
3840.878	-88.62
3843.501	-92.62
3846.122	-90.62
3848.741	-97.62
3851.358	-93.62
3853.973	-94.62
3856.586	-91.62
3859.197	-91.62
3861.806	-89.62
3864.414	-94.62
3867.019	-92.62
3869.622	-94.62
3872.224	-90.62
3874.823	-92.62
3877.421	-88.62
3880.016	-88.62
3882.61	-85.62
3885.202	-89.62
3887.792	-90.62
3890.38	-90.62
3892.966	-91.62
3895.55	-95.62
3898.132	-93.62
3900.713	-92.62
3903.291	-94.62
3905.868	-92.62
3908.442	-95.62
3911.015	-96.62
3913.586	-95.62
3916.155	-97.62
3918.722	-101.62
3921.287	-94.62
3923.85	-95.62
3926.411	-98.62
3928.971	-96.62
3931.528	-101.62
3934.084	-98.62
3936.638	-98.62
3939.19	-98.62
3941.74	-95.62
3944.288	-97.62
3946.834	-96.62
3949.378	-97.62
3951.921	-99.62
3954.462	-101.62
3957	-100.62
3959.537	-98.62
3962.072	-99.62
3964.606	-95.62
3967.137	-94.62
3969.667	-92.62
3972.194	-96.62
3974.72	-97.62
3977.244	-96.62
3979.766	-96.62
3982.286	-97.62
3984.805	-96.62
3987.321	-97.62
3989.836	-96.62
3992.349	-97.62
3994.86	-96.62
3997.369	-93.62
3999.877	-98.62
4002.382	-94.62
4004.886	-92.62
4007.388	-97.62
4009.888	-98.62
4012.386	-96.62
4014.883	-102.62
4017.377	-102.62
4019.87	-95.62
4022.361	-97.62
4024.85	-94.62
4027.338	-94.62
4029.823	-93.62
4032.307	-97.62
4034.789	-94.62
4037.269	-97.62
4039.747	-94.62
4042.224	-98.62
4044.699	-100.62
4047.172	-97.62
4049.643	-96.62
4052.112	-100.62
4054.58	-97.62
4057.046	-93.62
4059.51	-96.62
4061.972	-99.62
4064.432	-97.62
4066.891	-96.62
4069.348	-95.62
4071.803	-96.62
4074.256	-92.62
4076.708	-91.62
4079.158	-98.62
4081.606	-100.62
4084.052	-101.62
4086.497	-95.62
4088.939	-97.62
4091.38	-97.62
4093.819	-96.62
4096.257	-99.62
4098.693	-97.62
4101.127	-101.62
4103.559	-100.62
4105.989	-67.62
4108.418	-63.62
4110.845	-59.62
4113.27	-60.62
4115.694	-49.62
4118.115	-42.62
4120.535	-96.62
4122.954	-95.62
4125.37	-98.62
4127.785	-97.62
4130.198	-97.62
4132.609	-95.62
4135.019	-102.62
4137.427	-106.62
4139.833	-103.62
4142.237	-100.62
