Data from 1000CFU1_A_RamanShift_1.txt Node
Date: Mon Jan 23 14:13:22 IST 2017
User: aro
Spectrometer: QEPB0276
Trigger mode: 0
Integration Time (sec): 5.000000E0
Scans to average: 1
Electric dark correction enabled: true
Nonlinearity correction enabled: false
Boxcar width: 0
XAxis mode: Raman Shifts
Number of Pixels in Spectrum: 1044
>>>>>Begin Spectral Data<<<<<
160.701	-28.5
166.742	1.5
172.777	90.5
178.805	369.5
184.826	1050.5
190.841	2147.5
196.849	3359.5
202.85	4185.5
208.845	4383.5
214.833	4251.5
220.815	4063.5
226.789	3945.5
232.758	3834.5
238.719	3734.5
244.674	3570.5
250.623	3435.5
256.565	3269.5
262.5	3119.5
268.429	2967.5
274.351	2850.5
280.267	2735.5
286.176	2634.5
292.079	2550.5
297.975	2468.5
303.865	2379.5
309.748	2307.5
315.625	2258.5
321.495	2198.5
327.359	2156.5
333.217	2143.5
339.068	2127.5
344.912	2095.5
350.751	2099.5
356.583	2084.5
362.408	2099.5
368.227	2111.5
374.04	2098.5
379.847	2105.5
385.647	2129.5
391.44	2138.5
397.228	2144.5
403.009	2133.5
408.784	2162.5
414.553	2168.5
420.315	2181.5
426.071	2162.5
431.821	2176.5
437.565	2165.5
443.302	2165.5
449.033	2163.5
454.758	2166.5
460.477	2151.5
466.189	2135.5
471.896	2119.5
477.596	2107.5
483.29	2113.5
488.978	2106.5
494.66	2080.5
500.335	2063.5
506.005	2033.5
511.668	2003.5
517.325	1964.5
522.977	1942.5
528.622	1911.5
534.261	1879.5
539.894	1870.5
545.521	1851.5
551.141	1838.5
556.756	1834.5
562.365	1820.5
567.968	1821.5
573.565	1794.5
579.155	1798.5
584.74	1778.5
590.319	1772.5
595.892	1768.5
601.459	1758.5
607.02	1732.5
612.575	1703.5
618.124	1702.5
623.667	1702.5
629.204	1673.5
634.735	1647.5
640.261	1642.5
645.781	1644.5
651.294	1637.5
656.802	1625.5
662.304	1614.5
667.8	1621.5
673.29	1607.5
678.775	1605.5
684.254	1610.5
689.726	1578.5
695.193	1581.5
700.655	1573.5
706.11	1556.5
711.56	1539.5
717.004	1539.5
722.442	1523.5
727.874	1518.5
733.301	1523.5
738.722	1507.5
744.137	1485.5
749.547	1502.5
754.951	1495.5
760.349	1490.5
765.741	1486.5
771.128	1484.5
776.509	1487.5
781.885	1503.5
787.254	1478.5
792.618	1480.5
797.977	1444.5
803.33	1461.5
808.677	1451.5
814.019	1419.5
819.355	1422.5
824.686	1402.5
830.011	1410.5
835.33	1385.5
840.644	1366.5
845.952	1372.5
851.255	1360.5
856.552	1359.5
861.844	1350.5
867.13	1358.5
872.41	1343.5
877.686	1332.5
882.955	1334.5
888.219	1307.5
893.478	1286.5
898.731	1277.5
903.979	1246.5
909.221	1229.5
914.458	1196.5
919.69	1203.5
924.916	1202.5
930.136	1186.5
935.351	1191.5
940.561	1191.5
945.766	1198.5
950.965	1203.5
956.158	1174.5
961.347	1176.5
966.529	1142.5
971.707	1129.5
976.879	1121.5
982.046	1099.5
987.208	1104.5
992.364	1106.5
997.515	1106.5
1002.66	1114.5
1007.801	1127.5
1012.936	1125.5
1018.066	1122.5
1023.19	1137.5
1028.309	1153.5
1033.423	1145.5
1038.532	1143.5
1043.636	1135.5
1048.734	1111.5
1053.827	1107.5
1058.915	1094.5
1063.998	1092.5
1069.075	1085.5
1074.147	1101.5
1079.214	1089.5
1084.276	1106.5
1089.333	1123.5
1094.385	1127.5
1099.431	1125.5
1104.472	1144.5
1109.509	1127.5
1114.54	1115.5
1119.565	1103.5
1124.586	1097.5
1129.602	1071.5
1134.613	1059.5
1139.618	1061.5
1144.619	1070.5
1149.614	1075.5
1154.604	1091.5
1159.589	1090.5
1164.57	1071.5
1169.545	1081.5
1174.515	1091.5
1179.48	1075.5
1184.44	1079.5
1189.395	1068.5
1194.345	1068.5
1199.29	1065.5
1204.23	1076.5
1209.165	1068.5
1214.095	1071.5
1219.021	1079.5
1223.941	1098.5
1228.856	1102.5
1233.766	1104.5
1238.672	1112.5
1243.572	1106.5
1248.467	1086.5
1253.358	1100.5
1258.244	1077.5
1263.124	1057.5
1268	1039.5
1272.871	1037.5
1277.737	1032.5
1282.599	1022.5
1287.455	1024.5
1292.306	1019.5
1297.153	1040.5
1301.995	1036.5
1306.832	1040.5
1311.664	1059.5
1316.491	1052.5
1321.314	1042.5
1326.132	1043.5
1330.945	1044.5
1335.753	1027.5
1340.556	1008.5
1345.354	998.5
1350.148	1005.5
1354.937	992.5
1359.722	977.5
1364.501	959.5
1369.276	964.5
1374.046	947.5
1378.811	948.5
1383.572	941.5
1388.327	944.5
1393.079	941.5
1397.825	940.5
1402.567	940.5
1407.304	912.5
1412.036	910.5
1416.764	920.5
1421.487	910.5
1426.205	925.5
1430.919	934.5
1435.628	941.5
1440.333	945.5
1445.032	955.5
1449.727	983.5
1454.418	969.5
1459.104	978.5
1463.785	980.5
1468.462	959.5
1473.134	950.5
1477.802	946.5
1482.465	934.5
1487.123	937.5
1491.777	949.5
1496.426	942.5
1501.071	953.5
1505.711	953.5
1510.347	974.5
1514.978	977.5
1519.604	983.5
1524.226	994.5
1528.844	986.5
1533.457	988.5
1538.065	977.5
1542.669	970.5
1547.269	963.5
1551.864	970.5
1556.454	982.5
1561.041	1005.5
1565.622	1014.5
1570.199	1022.5
1574.772	1038.5
1579.34	1057.5
1583.904	1076.5
1588.464	1096.5
1593.019	1102.5
1597.569	1120.5
1602.115	1137.5
1606.657	1137.5
1611.195	1163.5
1615.728	1162.5
1620.256	1172.5
1624.78	1215.5
1629.3	1223.5
1633.816	1243.5
1638.327	1257.5
1642.834	1278.5
1647.336	1275.5
1651.834	1290.5
1656.328	1272.5
1660.817	1258.5
1665.302	1254.5
1669.783	1223.5
1674.259	1198.5
1678.732	1163.5
1683.199	1128.5
1687.663	1090.5
1692.122	1055.5
1696.577	1014.5
1701.028	963.5
1705.474	913.5
1709.917	892.5
1714.355	868.5
1718.788	856.5
1723.218	846.5
1727.643	817.5
1732.064	812.5
1736.481	781.5
1740.893	769.5
1745.301	744.5
1749.705	720.5
1754.105	697.5
1758.501	702.5
1762.893	694.5
1767.28	676.5
1771.663	677.5
1776.042	670.5
1780.417	674.5
1784.787	660.5
1789.154	667.5
1793.516	673.5
1797.874	667.5
1802.228	657.5
1806.578	647.5
1810.924	642.5
1815.266	623.5
1819.603	611.5
1823.937	610.5
1828.266	598.5
1832.591	599.5
1836.913	603.5
1841.23	600.5
1845.543	585.5
1849.852	601.5
1854.156	603.5
1858.457	603.5
1862.754	600.5
1867.047	620.5
1871.335	600.5
1875.62	607.5
1879.9	623.5
1884.177	612.5
1888.449	603.5
1892.718	607.5
1896.982	605.5
1901.243	607.5
1905.499	606.5
1909.752	603.5
1914	608.5
1918.245	597.5
1922.485	606.5
1926.722	605.5
1930.954	612.5
1935.183	601.5
1939.408	612.5
1943.628	608.5
1947.845	597.5
1952.058	606.5
1956.267	614.5
1960.472	592.5
1964.673	580.5
1968.87	586.5
1973.063	575.5
1977.252	572.5
1981.438	573.5
1985.619	571.5
1989.797	578.5
1993.971	583.5
1998.14	573.5
2002.306	570.5
2006.469	580.5
2010.627	595.5
2014.781	592.5
2018.932	588.5
2023.078	585.5
2027.221	583.5
2031.36	566.5
2035.495	582.5
2039.627	572.5
2043.754	563.5
2047.878	574.5
2051.998	569.5
2056.114	572.5
2060.226	571.5
2064.334	576.5
2068.439	584.5
2072.54	581.5
2076.637	599.5
2080.73	598.5
2084.82	592.5
2088.906	589.5
2092.988	592.5
2097.066	590.5
2101.14	583.5
2105.211	577.5
2109.278	581.5
2113.342	579.5
2117.401	575.5
2121.457	552.5
2125.509	558.5
2129.558	558.5
2133.602	557.5
2137.643	555.5
2141.681	556.5
2145.714	557.5
2149.744	540.5
2153.77	536.5
2157.793	539.5
2161.812	541.5
2165.827	528.5
2169.838	525.5
2173.846	516.5
2177.851	505.5
2181.851	506.5
2185.848	473.5
2189.841	480.5
2193.831	486.5
2197.817	488.5
2201.799	481.5
2205.778	484.5
2209.753	465.5
2213.725	474.5
2217.693	479.5
2221.657	476.5
2225.618	473.5
2229.575	471.5
2233.529	471.5
2237.479	457.5
2241.425	462.5
2245.368	451.5
2249.307	443.5
2253.243	438.5
2257.175	430.5
2261.104	422.5
2265.029	419.5
2268.95	409.5
2272.868	409.5
2276.783	405.5
2280.694	403.5
2284.601	393.5
2288.505	393.5
2292.405	382.5
2296.302	377.5
2300.195	380.5
2304.085	359.5
2307.971	370.5
2311.854	355.5
2315.734	345.5
2319.609	339.5
2323.482	338.5
2327.351	327.5
2331.216	338.5
2335.078	339.5
2338.937	331.5
2342.792	317.5
2346.643	322.5
2350.492	321.5
2354.336	312.5
2358.178	328.5
2362.015	325.5
2365.85	328.5
2369.681	326.5
2373.508	325.5
2377.333	322.5
2381.153	331.5
2384.971	326.5
2388.785	319.5
2392.595	322.5
2396.402	322.5
2400.206	308.5
2404.007	313.5
2407.804	315.5
2411.597	307.5
2415.388	313.5
2419.174	312.5
2422.958	310.5
2426.738	311.5
2430.515	309.5
2434.289	304.5
2438.059	310.5
2441.825	303.5
2445.589	300.5
2449.349	297.5
2453.106	289.5
2456.859	292.5
2460.61	287.5
2464.356	288.5
2468.1	284.5
2471.84	283.5
2475.577	282.5
2479.311	284.5
2483.041	287.5
2486.768	293.5
2490.492	273.5
2494.213	283.5
2497.93	286.5
2501.644	278.5
2505.355	282.5
2509.062	278.5
2512.766	277.5
2516.467	279.5
2520.165	277.5
2523.859	270.5
2527.551	276.5
2531.239	267.5
2534.923	266.5
2538.605	257.5
2542.283	264.5
2545.958	263.5
2549.63	254.5
2553.299	263.5
2556.964	252.5
2560.626	262.5
2564.285	247.5
2567.941	255.5
2571.594	253.5
2575.243	245.5
2578.89	254.5
2582.533	246.5
2586.173	247.5
2589.809	243.5
2593.443	245.5
2597.073	239.5
2600.701	237.5
2604.325	223.5
2607.946	233.5
2611.564	238.5
2615.178	232.5
2618.79	222.5
2622.398	229.5
2626.004	223.5
2629.606	224.5
2633.205	225.5
2636.801	220.5
2640.394	216.5
2643.983	215.5
2647.57	214.5
2651.153	210.5
2654.734	209.5
2658.311	204.5
2661.885	209.5
2665.456	214.5
2669.025	200.5
2672.589	203.5
2676.151	194.5
2679.71	193.5
2683.266	196.5
2686.819	202.5
2690.368	194.5
2693.915	189.5
2697.458	190.5
2700.999	182.5
2704.536	181.5
2708.071	179.5
2711.602	178.5
2715.13	176.5
2718.656	179.5
2722.178	188.5
2725.697	192.5
2729.214	188.5
2732.727	189.5
2736.237	181.5
2739.744	187.5
2743.249	185.5
2746.75	188.5
2750.248	184.5
2753.743	182.5
2757.236	179.5
2760.725	183.5
2764.211	174.5
2767.695	177.5
2771.175	168.5
2774.652	172.5
2778.127	170.5
2781.598	175.5
2785.067	168.5
2788.532	179.5
2791.995	180.5
2795.455	173.5
2798.911	171.5
2802.365	174.5
2805.816	176.5
2809.264	180.5
2812.709	183.5
2816.151	176.5
2819.59	186.5
2823.026	177.5
2826.46	182.5
2829.89	184.5
2833.318	192.5
2836.742	178.5
2840.164	184.5
2843.583	191.5
2846.999	196.5
2850.412	191.5
2853.822	197.5
2857.229	197.5
2860.634	203.5
2864.035	200.5
2867.434	208.5
2870.83	209.5
2874.223	213.5
2877.613	224.5
2881	217.5
2884.385	214.5
2887.766	213.5
2891.145	225.5
2894.521	224.5
2897.894	219.5
2901.264	222.5
2904.631	223.5
2907.996	222.5
2911.358	238.5
2914.717	233.5
2918.073	236.5
2921.426	243.5
2924.777	247.5
2928.124	246.5
2931.469	251.5
2934.811	259.5
2938.15	266.5
2941.487	264.5
2944.821	273.5
2948.152	267.5
2951.48	277.5
2954.805	283.5
2958.128	297.5
2961.447	296.5
2964.765	299.5
2968.079	304.5
2971.39	316.5
2974.699	310.5
2978.005	328.5
2981.308	319.5
2984.609	332.5
2987.907	350.5
2991.202	357.5
2994.494	359.5
2997.784	369.5
3001.07	387.5
3004.355	399.5
3007.636	412.5
3010.915	412.5
3014.191	417.5
3017.464	442.5
3020.734	435.5
3024.002	445.5
3027.267	448.5
3030.53	459.5
3033.789	461.5
3037.046	473.5
3040.301	490.5
3043.552	493.5
3046.801	514.5
3050.048	535.5
3053.291	546.5
3056.532	555.5
3059.771	585.5
3063.006	595.5
3066.239	613.5
3069.469	619.5
3072.697	652.5
3075.922	670.5
3079.144	680.5
3082.364	697.5
3085.581	719.5
3088.795	737.5
3092.007	744.5
3095.216	771.5
3098.423	784.5
3101.627	798.5
3104.828	823.5
3108.026	837.5
3111.222	846.5
3114.416	868.5
3117.607	888.5
3120.795	913.5
3123.98	926.5
3127.163	968.5
3130.344	979.5
3133.521	1002.5
3136.696	1026.5
3139.869	1049.5
3143.039	1056.5
3146.206	1079.5
3149.371	1081.5
3152.533	1111.5
3155.693	1117.5
3158.85	1119.5
3162.005	1114.5
3165.157	1137.5
3168.306	1137.5
3171.453	1138.5
3174.597	1146.5
3177.739	1148.5
3180.878	1155.5
3184.014	1146.5
3187.149	1154.5
3190.28	1160.5
3193.409	1160.5
3196.536	1160.5
3199.659	1160.5
3202.781	1170.5
3205.9	1169.5
3209.016	1175.5
3212.13	1156.5
3215.241	1161.5
3218.35	1148.5
3221.456	1151.5
3224.56	1136.5
3227.661	1123.5
3230.76	1136.5
3233.856	1103.5
3236.95	1083.5
3240.041	1086.5
3243.13	1076.5
3246.216	1069.5
3249.3	1069.5
3252.382	1054.5
3255.46	1049.5
3258.537	1050.5
3261.611	1042.5
3264.682	1047.5
3267.751	1032.5
3270.818	1030.5
3273.882	1015.5
3276.943	1011.5
3280.002	1006.5
3283.059	992.5
3286.113	995.5
3289.165	971.5
3292.214	963.5
3295.261	946.5
3298.306	920.5
3301.348	919.5
3304.387	902.5
3307.425	889.5
3310.459	882.5
3313.492	874.5
3316.521	857.5
3319.549	849.5
3322.574	844.5
3325.597	845.5
3328.617	826.5
3331.635	821.5
3334.65	822.5
3337.663	830.5
3340.674	821.5
3343.682	813.5
3346.688	786.5
3349.691	804.5
3352.692	797.5
3355.691	795.5
3358.687	791.5
3361.681	773.5
3364.673	759.5
3367.662	751.5
3370.649	746.5
3373.633	728.5
3376.615	739.5
3379.595	724.5
3382.572	721.5
3385.547	697.5
3388.52	692.5
3391.49	683.5
3394.458	667.5
3397.424	651.5
3400.387	647.5
3403.348	641.5
3406.307	631.5
3409.263	638.5
3412.217	633.5
3415.168	625.5
3418.118	617.5
3421.065	608.5
3424.009	603.5
3426.951	595.5
3429.891	579.5
3432.829	581.5
3435.764	561.5
3438.697	553.5
3441.628	544.5
3444.557	515.5
3447.483	507.5
3450.407	492.5
3453.328	489.5
3456.247	463.5
3459.164	451.5
3462.079	443.5
3464.991	426.5
3467.902	417.5
3470.809	401.5
3473.715	393.5
3476.618	370.5
3479.519	369.5
3482.418	355.5
3485.315	339.5
3488.209	341.5
3491.101	333.5
3493.99	314.5
3496.878	306.5
3499.763	291.5
3502.646	289.5
3505.527	274.5
3508.405	264.5
3511.281	255.5
3514.155	237.5
3517.027	226.5
3519.897	219.5
3522.764	209.5
3525.629	204.5
3528.492	194.5
3531.352	175.5
3534.211	176.5
3537.067	158.5
3539.921	148.5
3542.773	145.5
3545.622	135.5
3548.469	124.5
3551.315	113.5
3554.157	114.5
3556.998	108.5
3559.837	98.5
3562.673	84.5
3565.507	85.5
3568.339	84.5
3571.169	72.5
3573.996	66.5
3576.822	65.5
3579.645	56.5
3582.466	47.5
3585.285	41.5
3588.101	36.5
3590.916	38.5
3593.728	33.5
3596.538	27.5
3599.346	25.5
3602.152	18.5
3604.956	15.5
3607.757	7.5
3610.556	0.5
3613.354	-5.5
3616.149	-2.5
3618.942	-9.5
3621.732	-12.5
3624.521	-15.5
3627.307	-13.5
3630.092	-20.5
3632.874	-20.5
3635.654	-24.5
3638.432	-21.5
3641.208	-26.5
3643.982	-31.5
3646.753	-30.5
3649.523	-35.5
3652.29	-37.5
3655.055	-41.5
3657.818	-48.5
3660.579	-48.5
3663.338	-51.5
3666.095	-51.5
3668.849	-48.5
3671.602	-50.5
3674.352	-56.5
3677.101	-56.5
3679.847	-60.5
3682.591	-59.5
3685.333	-65.5
3688.073	-68.5
3690.811	-67.5
3693.547	-72.5
3696.281	-74.5
3699.013	-73.5
3701.742	-73.5
3704.47	-73.5
3707.195	-76.5
3709.919	-77.5
3712.64	-74.5
3715.359	-77.5
3718.076	-82.5
3720.792	-81.5
3723.505	-82.5
3726.216	-82.5
3728.925	-82.5
3731.632	-82.5
3734.336	-86.5
3737.039	-84.5
3739.74	-84.5
3742.439	-87.5
3745.136	-87.5
3747.83	-91.5
3750.523	-86.5
3753.213	-86.5
3755.902	-88.5
3758.589	-93.5
3761.273	-90.5
3763.956	-90.5
3766.636	-92.5
3769.315	-92.5
3771.991	-90.5
3774.665	-90.5
3777.338	-91.5
3780.008	-92.5
3782.677	-94.5
3785.343	-92.5
3788.007	-95.5
3790.67	-97.5
3793.33	-95.5
3795.989	-98.5
3798.645	-93.5
3801.299	-95.5
3803.952	-99.5
3806.602	-100.5
3809.251	-98.5
3811.897	-95.5
3814.542	-96.5
3817.184	-95.5
3819.825	-100.5
3822.463	-93.5
3825.1	-97.5
3827.735	-97.5
3830.367	-100.5
3832.998	-105.5
3835.627	-101.5
3838.253	-97.5
3840.878	-101.5
3843.501	-98.5
3846.122	-100.5
3848.741	-102.5
3851.358	-98.5
3853.973	-99.5
3856.586	-98.5
3859.197	-95.5
3861.806	-102.5
3864.414	-104.5
3867.019	-103.5
3869.622	-102.5
3872.224	-104.5
3874.823	-97.5
3877.421	-94.5
3880.016	-91.5
3882.61	-89.5
3885.202	-93.5
3887.792	-92.5
3890.38	-98.5
3892.966	-98.5
3895.55	-102.5
3898.132	-100.5
3900.713	-104.5
3903.291	-104.5
3905.868	-101.5
3908.442	-103.5
3911.015	-103.5
3913.586	-104.5
3916.155	-104.5
3918.722	-104.5
3921.287	-101.5
3923.85	-105.5
3926.411	-103.5
3928.971	-103.5
3931.528	-106.5
3934.084	-106.5
3936.638	-105.5
3939.19	-107.5
3941.74	-104.5
3944.288	-107.5
3946.834	-104.5
3949.378	-103.5
3951.921	-102.5
3954.462	-107.5
3957	-103.5
3959.537	-104.5
3962.072	-104.5
3964.606	-103.5
3967.137	-103.5
3969.667	-100.5
3972.194	-104.5
3974.72	-105.5
3977.244	-105.5
3979.766	-106.5
3982.286	-102.5
3984.805	-103.5
3987.321	-101.5
3989.836	-102.5
3992.349	-102.5
3994.86	-103.5
3997.369	-102.5
3999.877	-102.5
4002.382	-101.5
4004.886	-102.5
4007.388	-98.5
4009.888	-103.5
4012.386	-101.5
4014.883	-107.5
4017.377	-107.5
4019.87	-101.5
4022.361	-102.5
4024.85	-104.5
4027.338	-102.5
4029.823	-102.5
4032.307	-100.5
4034.789	-104.5
4037.269	-103.5
4039.747	-103.5
4042.224	-109.5
4044.699	-108.5
4047.172	-106.5
4049.643	-104.5
4052.112	-104.5
4054.58	-104.5
4057.046	-105.5
4059.51	-102.5
4061.972	-105.5
4064.432	-105.5
4066.891	-100.5
4069.348	-104.5
4071.803	-104.5
4074.256	-102.5
4076.708	-101.5
4079.158	-104.5
4081.606	-105.5
4084.052	-110.5
4086.497	-101.5
4088.939	-100.5
4091.38	-104.5
4093.819	-105.5
4096.257	-105.5
4098.693	-106.5
4101.127	-109.5
4103.559	-109.5
4105.989	-75.5
4108.418	-71.5
4110.845	-65.5
4113.27	-56.5
4115.694	-51.5
4118.115	-47.5
4120.535	-102.5
4122.954	-101.5
4125.37	-103.5
4127.785	-104.5
4130.198	-104.5
4132.609	-104.5
4135.019	-108.5
4137.427	-110.5
4139.833	-106.5
4142.237	-107.5
