Data from 100000000CFU2_B_RamanShift_1.txt Node
Date: Mon Jan 23 14:57:57 IST 2017
User: aro
Spectrometer: QEPB0276
Trigger mode: 0
Integration Time (sec): 5.000000E0
Scans to average: 1
Electric dark correction enabled: true
Nonlinearity correction enabled: false
Boxcar width: 0
XAxis mode: Raman Shifts
Number of Pixels in Spectrum: 1044
>>>>>Begin Spectral Data<<<<<
160.701	-21.12
166.742	1.88
172.777	65.88
178.805	281.88
184.826	766.88
190.841	1571.88
196.849	2464.88
202.85	3040.88
208.845	3156.88
214.833	3042.88
220.815	2949.88
226.789	2864.88
232.758	2781.88
238.719	2720.88
244.674	2609.88
250.623	2507.88
256.565	2368.88
262.5	2280.88
268.429	2194.88
274.351	2090.88
280.267	2014.88
286.176	1942.88
292.079	1889.88
297.975	1815.88
303.865	1785.88
309.748	1719.88
315.625	1693.88
321.495	1640.88
327.359	1637.88
333.217	1593.88
339.068	1619.88
344.912	1591.88
350.751	1575.88
356.583	1582.88
362.408	1566.88
368.227	1587.88
374.04	1566.88
379.847	1588.88
385.647	1609.88
391.44	1622.88
397.228	1630.88
403.009	1640.88
408.784	1647.88
414.553	1630.88
420.315	1656.88
426.071	1652.88
431.821	1651.88
437.565	1654.88
443.302	1652.88
449.033	1637.88
454.758	1656.88
460.477	1633.88
466.189	1625.88
471.896	1623.88
477.596	1608.88
483.29	1590.88
488.978	1589.88
494.66	1586.88
500.335	1542.88
506.005	1524.88
511.668	1507.88
517.325	1472.88
522.977	1451.88
528.622	1424.88
534.261	1424.88
539.894	1413.88
545.521	1396.88
551.141	1383.88
556.756	1365.88
562.365	1370.88
567.968	1366.88
573.565	1349.88
579.155	1346.88
584.74	1343.88
590.319	1331.88
595.892	1326.88
601.459	1311.88
607.02	1312.88
612.575	1290.88
618.124	1263.88
623.667	1248.88
629.204	1249.88
634.735	1243.88
640.261	1241.88
645.781	1236.88
651.294	1228.88
656.802	1213.88
662.304	1210.88
667.8	1219.88
673.29	1216.88
678.775	1201.88
684.254	1195.88
689.726	1189.88
695.193	1183.88
700.655	1188.88
706.11	1187.88
711.56	1173.88
717.004	1172.88
722.442	1151.88
727.874	1137.88
733.301	1147.88
738.722	1132.88
744.137	1138.88
749.547	1124.88
754.951	1122.88
760.349	1123.88
765.741	1116.88
771.128	1134.88
776.509	1122.88
781.885	1133.88
787.254	1129.88
792.618	1116.88
797.977	1105.88
803.33	1114.88
808.677	1092.88
814.019	1087.88
819.355	1080.88
824.686	1061.88
830.011	1065.88
835.33	1060.88
840.644	1036.88
845.952	1041.88
851.255	1046.88
856.552	1035.88
861.844	1022.88
867.13	1031.88
872.41	1020.88
877.686	1023.88
882.955	1020.88
888.219	999.88
893.478	986.88
898.731	960.88
903.979	934.88
909.221	933.88
914.458	911.88
919.69	907.88
924.916	926.88
930.136	915.88
935.351	913.88
940.561	917.88
945.766	910.88
950.965	903.88
956.158	903.88
961.347	877.88
966.529	866.88
971.707	866.88
976.879	844.88
982.046	839.88
987.208	839.88
992.364	850.88
997.515	827.88
1002.66	850.88
1007.801	853.88
1012.936	866.88
1018.066	871.88
1023.19	878.88
1028.309	877.88
1033.423	877.88
1038.532	875.88
1043.636	873.88
1048.734	853.88
1053.827	855.88
1058.915	838.88
1063.998	829.88
1069.075	826.88
1074.147	847.88
1079.214	853.88
1084.276	851.88
1089.333	856.88
1094.385	862.88
1099.431	860.88
1104.472	867.88
1109.509	860.88
1114.54	840.88
1119.565	824.88
1124.586	835.88
1129.602	822.88
1134.613	805.88
1139.618	798.88
1144.619	812.88
1149.614	815.88
1154.604	824.88
1159.589	817.88
1164.57	822.88
1169.545	824.88
1174.515	837.88
1179.48	817.88
1184.44	809.88
1189.395	817.88
1194.345	799.88
1199.29	808.88
1204.23	805.88
1209.165	800.88
1214.095	813.88
1219.021	815.88
1223.941	826.88
1228.856	841.88
1233.766	838.88
1238.672	837.88
1243.572	821.88
1248.467	830.88
1253.358	820.88
1258.244	799.88
1263.124	803.88
1268	796.88
1272.871	779.88
1277.737	776.88
1282.599	776.88
1287.455	781.88
1292.306	769.88
1297.153	772.88
1301.995	775.88
1306.832	794.88
1311.664	776.88
1316.491	787.88
1321.314	779.88
1326.132	785.88
1330.945	782.88
1335.753	775.88
1340.556	756.88
1345.354	753.88
1350.148	739.88
1354.937	730.88
1359.722	741.88
1364.501	727.88
1369.276	724.88
1374.046	715.88
1378.811	725.88
1383.572	725.88
1388.327	721.88
1393.079	709.88
1397.825	710.88
1402.567	690.88
1407.304	694.88
1412.036	718.88
1416.764	699.88
1421.487	699.88
1426.205	699.88
1430.919	705.88
1435.628	703.88
1440.333	715.88
1445.032	727.88
1449.727	731.88
1454.418	752.88
1459.104	732.88
1463.785	747.88
1468.462	731.88
1473.134	721.88
1477.802	718.88
1482.465	703.88
1487.123	707.88
1491.777	712.88
1496.426	707.88
1501.071	704.88
1505.711	711.88
1510.347	728.88
1514.978	725.88
1519.604	736.88
1524.226	750.88
1528.844	753.88
1533.457	751.88
1538.065	742.88
1542.669	736.88
1547.269	726.88
1551.864	734.88
1556.454	739.88
1561.041	741.88
1565.622	753.88
1570.199	762.88
1574.772	778.88
1579.34	771.88
1583.904	797.88
1588.464	817.88
1593.019	819.88
1597.569	845.88
1602.115	836.88
1606.657	844.88
1611.195	869.88
1615.728	861.88
1620.256	867.88
1624.78	872.88
1629.3	893.88
1633.816	918.88
1638.327	924.88
1642.834	953.88
1647.336	942.88
1651.834	956.88
1656.328	954.88
1660.817	930.88
1665.302	927.88
1669.783	894.88
1674.259	879.88
1678.732	856.88
1683.199	822.88
1687.663	811.88
1692.122	784.88
1696.577	754.88
1701.028	721.88
1705.474	687.88
1709.917	675.88
1714.355	659.88
1718.788	651.88
1723.218	636.88
1727.643	624.88
1732.064	612.88
1736.481	583.88
1740.893	571.88
1745.301	561.88
1749.705	553.88
1754.105	526.88
1758.501	514.88
1762.893	514.88
1767.28	500.88
1771.663	500.88
1776.042	512.88
1780.417	498.88
1784.787	510.88
1789.154	508.88
1793.516	505.88
1797.874	504.88
1802.228	500.88
1806.578	494.88
1810.924	478.88
1815.266	478.88
1819.603	465.88
1823.937	463.88
1828.266	450.88
1832.591	448.88
1836.913	454.88
1841.23	448.88
1845.543	443.88
1849.852	444.88
1854.156	443.88
1858.457	440.88
1862.754	456.88
1867.047	466.88
1871.335	460.88
1875.62	462.88
1879.9	463.88
1884.177	453.88
1888.449	456.88
1892.718	448.88
1896.982	455.88
1901.243	450.88
1905.499	457.88
1909.752	449.88
1914	454.88
1918.245	451.88
1922.485	450.88
1926.722	464.88
1930.954	463.88
1935.183	455.88
1939.408	454.88
1943.628	459.88
1947.845	459.88
1952.058	454.88
1956.267	460.88
1960.472	443.88
1964.673	448.88
1968.87	443.88
1973.063	438.88
1977.252	434.88
1981.438	437.88
1985.619	427.88
1989.797	424.88
1993.971	430.88
1998.14	427.88
2002.306	439.88
2006.469	440.88
2010.627	448.88
2014.781	439.88
2018.932	441.88
2023.078	432.88
2027.221	436.88
2031.36	430.88
2035.495	422.88
2039.627	427.88
2043.754	424.88
2047.878	426.88
2051.998	424.88
2056.114	421.88
2060.226	422.88
2064.334	434.88
2068.439	434.88
2072.54	438.88
2076.637	440.88
2080.73	444.88
2084.82	441.88
2088.906	444.88
2092.988	443.88
2097.066	443.88
2101.14	437.88
2105.211	429.88
2109.278	432.88
2113.342	431.88
2117.401	420.88
2121.457	425.88
2125.509	421.88
2129.558	420.88
2133.602	414.88
2137.643	414.88
2141.681	418.88
2145.714	403.88
2149.744	421.88
2153.77	409.88
2157.793	407.88
2161.812	398.88
2165.827	382.88
2169.838	388.88
2173.846	390.88
2177.851	387.88
2181.851	373.88
2185.848	368.88
2189.841	364.88
2193.831	360.88
2197.817	362.88
2201.799	356.88
2205.778	357.88
2209.753	352.88
2213.725	357.88
2217.693	360.88
2221.657	356.88
2225.618	352.88
2229.575	353.88
2233.529	353.88
2237.479	349.88
2241.425	339.88
2245.368	345.88
2249.307	328.88
2253.243	338.88
2257.175	327.88
2261.104	314.88
2265.029	315.88
2268.95	316.88
2272.868	303.88
2276.783	299.88
2280.694	295.88
2284.601	294.88
2288.505	291.88
2292.405	286.88
2296.302	287.88
2300.195	284.88
2304.085	275.88
2307.971	277.88
2311.854	267.88
2315.734	255.88
2319.609	260.88
2323.482	251.88
2327.351	247.88
2331.216	249.88
2335.078	250.88
2338.937	248.88
2342.792	243.88
2346.643	252.88
2350.492	237.88
2354.336	235.88
2358.178	246.88
2362.015	237.88
2365.85	242.88
2369.681	240.88
2373.508	243.88
2377.333	247.88
2381.153	247.88
2384.971	241.88
2388.785	235.88
2392.595	237.88
2396.402	240.88
2400.206	232.88
2404.007	228.88
2407.804	231.88
2411.597	227.88
2415.388	226.88
2419.174	230.88
2422.958	224.88
2426.738	225.88
2430.515	224.88
2434.289	227.88
2438.059	222.88
2441.825	225.88
2445.589	224.88
2449.349	216.88
2453.106	217.88
2456.859	222.88
2460.61	213.88
2464.356	214.88
2468.1	203.88
2471.84	208.88
2475.577	204.88
2479.311	201.88
2483.041	204.88
2486.768	204.88
2490.492	201.88
2494.213	205.88
2497.93	207.88
2501.644	208.88
2505.355	213.88
2509.062	200.88
2512.766	205.88
2516.467	194.88
2520.165	203.88
2523.859	199.88
2527.551	197.88
2531.239	199.88
2534.923	194.88
2538.605	191.88
2542.283	193.88
2545.958	194.88
2549.63	195.88
2553.299	188.88
2556.964	184.88
2560.626	191.88
2564.285	174.88
2567.941	185.88
2571.594	188.88
2575.243	177.88
2578.89	184.88
2582.533	174.88
2586.173	176.88
2589.809	181.88
2593.443	177.88
2597.073	176.88
2600.701	174.88
2604.325	173.88
2607.946	173.88
2611.564	168.88
2615.178	167.88
2618.79	169.88
2622.398	169.88
2626.004	162.88
2629.606	160.88
2633.205	157.88
2636.801	167.88
2640.394	158.88
2643.983	156.88
2647.57	164.88
2651.153	155.88
2654.734	156.88
2658.311	153.88
2661.885	148.88
2665.456	144.88
2669.025	145.88
2672.589	148.88
2676.151	137.88
2679.71	144.88
2683.266	150.88
2686.819	140.88
2690.368	141.88
2693.915	143.88
2697.458	138.88
2700.999	135.88
2704.536	132.88
2708.071	128.88
2711.602	126.88
2715.13	126.88
2718.656	132.88
2722.178	133.88
2725.697	136.88
2729.214	134.88
2732.727	132.88
2736.237	137.88
2739.744	134.88
2743.249	136.88
2746.75	141.88
2750.248	140.88
2753.743	138.88
2757.236	131.88
2760.725	134.88
2764.211	127.88
2767.695	132.88
2771.175	129.88
2774.652	132.88
2778.127	128.88
2781.598	121.88
2785.067	124.88
2788.532	124.88
2791.995	130.88
2795.455	121.88
2798.911	133.88
2802.365	133.88
2805.816	135.88
2809.264	135.88
2812.709	135.88
2816.151	132.88
2819.59	137.88
2823.026	126.88
2826.46	136.88
2829.89	141.88
2833.318	141.88
2836.742	135.88
2840.164	134.88
2843.583	139.88
2846.999	143.88
2850.412	139.88
2853.822	146.88
2857.229	143.88
2860.634	148.88
2864.035	150.88
2867.434	160.88
2870.83	162.88
2874.223	160.88
2877.613	171.88
2881	171.88
2884.385	167.88
2887.766	168.88
2891.145	168.88
2894.521	162.88
2897.894	161.88
2901.264	168.88
2904.631	173.88
2907.996	179.88
2911.358	178.88
2914.717	178.88
2918.073	173.88
2921.426	187.88
2924.777	180.88
2928.124	188.88
2931.469	195.88
2934.811	200.88
2938.15	197.88
2941.487	208.88
2944.821	211.88
2948.152	210.88
2951.48	207.88
2954.805	209.88
2958.128	221.88
2961.447	224.88
2964.765	225.88
2968.079	228.88
2971.39	228.88
2974.699	229.88
2978.005	240.88
2981.308	245.88
2984.609	255.88
2987.907	270.88
2991.202	272.88
2994.494	279.88
2997.784	274.88
3001.07	298.88
3004.355	298.88
3007.636	302.88
3010.915	305.88
3014.191	316.88
3017.464	314.88
3020.734	324.88
3024.002	335.88
3027.267	336.88
3030.53	344.88
3033.789	342.88
3037.046	350.88
3040.301	359.88
3043.552	371.88
3046.801	384.88
3050.048	392.88
3053.291	399.88
3056.532	422.88
3059.771	433.88
3063.006	435.88
3066.239	458.88
3069.469	468.88
3072.697	483.88
3075.922	491.88
3079.144	507.88
3082.364	522.88
3085.581	536.88
3088.795	553.88
3092.007	555.88
3095.216	571.88
3098.423	595.88
3101.627	593.88
3104.828	606.88
3108.026	621.88
3111.222	620.88
3114.416	642.88
3117.607	659.88
3120.795	682.88
3123.98	702.88
3127.163	711.88
3130.344	745.88
3133.521	747.88
3136.696	760.88
3139.869	765.88
3143.039	775.88
3146.206	793.88
3149.371	817.88
3152.533	820.88
3155.693	831.88
3158.85	825.88
3162.005	826.88
3165.157	831.88
3168.306	832.88
3171.453	851.88
3174.597	845.88
3177.739	840.88
3180.878	849.88
3184.014	858.88
3187.149	858.88
3190.28	855.88
3193.409	852.88
3196.536	857.88
3199.659	859.88
3202.781	852.88
3205.9	863.88
3209.016	864.88
3212.13	868.88
3215.241	863.88
3218.35	859.88
3221.456	845.88
3224.56	839.88
3227.661	831.88
3230.76	812.88
3233.856	819.88
3236.95	825.88
3240.041	808.88
3243.13	804.88
3246.216	793.88
3249.3	778.88
3252.382	780.88
3255.46	778.88
3258.537	782.88
3261.611	771.88
3264.682	768.88
3267.751	779.88
3270.818	750.88
3273.882	752.88
3276.943	735.88
3280.002	752.88
3283.059	743.88
3286.113	732.88
3289.165	726.88
3292.214	714.88
3295.261	696.88
3298.306	687.88
3301.348	682.88
3304.387	674.88
3307.425	660.88
3310.459	648.88
3313.492	643.88
3316.521	621.88
3319.549	630.88
3322.574	615.88
3325.597	616.88
3328.617	611.88
3331.635	606.88
3334.65	604.88
3337.663	595.88
3340.674	590.88
3343.682	581.88
3346.688	580.88
3349.691	586.88
3352.692	580.88
3355.691	577.88
3358.687	575.88
3361.681	574.88
3364.673	563.88
3367.662	551.88
3370.649	548.88
3373.633	542.88
3376.615	543.88
3379.595	520.88
3382.572	515.88
3385.547	504.88
3388.52	499.88
3391.49	495.88
3394.458	493.88
3397.424	485.88
3400.387	482.88
3403.348	475.88
3406.307	469.88
3409.263	472.88
3412.217	453.88
3415.168	458.88
3418.118	443.88
3421.065	436.88
3424.009	434.88
3426.951	429.88
3429.891	414.88
3432.829	416.88
3435.764	410.88
3438.697	412.88
3441.628	393.88
3444.557	379.88
3447.483	362.88
3450.407	361.88
3453.328	353.88
3456.247	343.88
3459.164	335.88
3462.079	321.88
3464.991	306.88
3467.902	297.88
3470.809	285.88
3473.715	286.88
3476.618	272.88
3479.519	271.88
3482.418	259.88
3485.315	245.88
3488.209	246.88
3491.101	233.88
3493.99	232.88
3496.878	225.88
3499.763	218.88
3502.646	214.88
3505.527	209.88
3508.405	198.88
3511.281	187.88
3514.155	174.88
3517.027	174.88
3519.897	160.88
3522.764	150.88
3525.629	145.88
3528.492	146.88
3531.352	130.88
3534.211	127.88
3537.067	117.88
3539.921	109.88
3542.773	110.88
3545.622	98.88
3548.469	91.88
3551.315	83.88
3554.157	83.88
3556.998	78.88
3559.837	71.88
3562.673	57.88
3565.507	61.88
3568.339	62.88
3571.169	49.88
3573.996	48.88
3576.822	49.88
3579.645	43.88
3582.466	38.88
3585.285	28.88
3588.101	29.88
3590.916	22.88
3593.728	22.88
3596.538	22.88
3599.346	14.88
3602.152	14.88
3604.956	12.88
3607.757	5.88
3610.556	4.88
3613.354	-5.12
3616.149	-0.12
3618.942	-10.12
3621.732	-11.12
3624.521	-10.12
3627.307	-13.12
3630.092	-16.12
3632.874	-17.12
3635.654	-20.12
3638.432	-18.12
3641.208	-18.12
3643.982	-21.12
3646.753	-18.12
3649.523	-22.12
3652.29	-26.12
3655.055	-34.12
3657.818	-36.12
3660.579	-39.12
3663.338	-37.12
3666.095	-41.12
3668.849	-43.12
3671.602	-45.12
3674.352	-46.12
3677.101	-48.12
3679.847	-45.12
3682.591	-52.12
3685.333	-49.12
3688.073	-50.12
3690.811	-51.12
3693.547	-55.12
3696.281	-54.12
3699.013	-57.12
3701.742	-60.12
3704.47	-58.12
3707.195	-60.12
3709.919	-59.12
3712.64	-58.12
3715.359	-61.12
3718.076	-58.12
3720.792	-62.12
3723.505	-60.12
3726.216	-59.12
3728.925	-59.12
3731.632	-63.12
3734.336	-64.12
3737.039	-63.12
3739.74	-68.12
3742.439	-71.12
3745.136	-69.12
3747.83	-69.12
3750.523	-67.12
3753.213	-65.12
3755.902	-66.12
3758.589	-68.12
3761.273	-70.12
3763.956	-65.12
3766.636	-69.12
3769.315	-70.12
3771.991	-72.12
3774.665	-71.12
3777.338	-70.12
3780.008	-71.12
3782.677	-74.12
3785.343	-72.12
3788.007	-70.12
3790.67	-72.12
3793.33	-71.12
3795.989	-70.12
3798.645	-69.12
3801.299	-68.12
3803.952	-71.12
3806.602	-76.12
3809.251	-74.12
3811.897	-72.12
3814.542	-75.12
3817.184	-71.12
3819.825	-77.12
3822.463	-75.12
3825.1	-75.12
3827.735	-78.12
3830.367	-73.12
3832.998	-76.12
3835.627	-74.12
3838.253	-73.12
3840.878	-74.12
3843.501	-74.12
3846.122	-76.12
3848.741	-81.12
3851.358	-79.12
3853.973	-77.12
3856.586	-81.12
3859.197	-75.12
3861.806	-75.12
3864.414	-76.12
3867.019	-76.12
3869.622	-76.12
3872.224	-76.12
3874.823	-73.12
3877.421	-71.12
3880.016	-68.12
3882.61	-72.12
3885.202	-69.12
3887.792	-75.12
3890.38	-74.12
3892.966	-75.12
3895.55	-77.12
3898.132	-75.12
3900.713	-75.12
3903.291	-76.12
3905.868	-74.12
3908.442	-77.12
3911.015	-79.12
3913.586	-79.12
3916.155	-82.12
3918.722	-81.12
3921.287	-80.12
3923.85	-81.12
3926.411	-82.12
3928.971	-80.12
3931.528	-82.12
3934.084	-75.12
3936.638	-79.12
3939.19	-80.12
3941.74	-78.12
3944.288	-77.12
3946.834	-78.12
3949.378	-78.12
3951.921	-79.12
3954.462	-84.12
3957	-82.12
3959.537	-80.12
3962.072	-82.12
3964.606	-79.12
3967.137	-79.12
3969.667	-76.12
3972.194	-76.12
3974.72	-79.12
3977.244	-78.12
3979.766	-77.12
3982.286	-76.12
3984.805	-76.12
3987.321	-79.12
3989.836	-78.12
3992.349	-80.12
3994.86	-82.12
3997.369	-79.12
3999.877	-77.12
4002.382	-74.12
4004.886	-74.12
4007.388	-74.12
4009.888	-78.12
4012.386	-76.12
4014.883	-77.12
4017.377	-83.12
4019.87	-76.12
4022.361	-81.12
4024.85	-78.12
4027.338	-77.12
4029.823	-78.12
4032.307	-78.12
4034.789	-77.12
4037.269	-79.12
4039.747	-76.12
4042.224	-78.12
4044.699	-82.12
4047.172	-78.12
4049.643	-80.12
4052.112	-82.12
4054.58	-80.12
4057.046	-79.12
4059.51	-81.12
4061.972	-82.12
4064.432	-80.12
4066.891	-75.12
4069.348	-74.12
4071.803	-78.12
4074.256	-75.12
4076.708	-74.12
4079.158	-75.12
4081.606	-80.12
4084.052	-84.12
4086.497	-79.12
4088.939	-81.12
4091.38	-78.12
4093.819	-79.12
4096.257	-87.12
4098.693	-78.12
4101.127	-82.12
4103.559	-81.12
4105.989	-55.12
4108.418	-50.12
4110.845	-48.12
4113.27	-47.12
4115.694	-37.12
4118.115	-34.12
4120.535	-77.12
4122.954	-74.12
4125.37	-80.12
4127.785	-79.12
4130.198	-80.12
4132.609	-75.12
4135.019	-83.12
4137.427	-83.12
4139.833	-80.12
4142.237	-82.12
