Data from 10CFU3_B_RamanShift_1.txt Node
Date: Mon Jan 23 14:03:57 IST 2017
User: aro
Spectrometer: QEPB0276
Trigger mode: 0
Integration Time (sec): 5.000000E0
Scans to average: 1
Electric dark correction enabled: true
Nonlinearity correction enabled: false
Boxcar width: 0
XAxis mode: Raman Shifts
Number of Pixels in Spectrum: 1044
>>>>>Begin Spectral Data<<<<<
160.701	-28.38
166.742	3.62
172.777	83.62
178.805	354.62
184.826	994.62
190.841	2045.62
196.849	3249.62
202.85	4033.62
208.845	4221.62
214.833	4122.62
220.815	3960.62
226.789	3855.62
232.758	3752.62
238.719	3630.62
244.674	3509.62
250.623	3369.62
256.565	3231.62
262.5	3050.62
268.429	2951.62
274.351	2818.62
280.267	2686.62
286.176	2600.62
292.079	2515.62
297.975	2467.62
303.865	2369.62
309.748	2332.62
315.625	2265.62
321.495	2207.62
327.359	2184.62
333.217	2160.62
339.068	2136.62
344.912	2111.62
350.751	2098.62
356.583	2107.62
362.408	2103.62
368.227	2108.62
374.04	2109.62
379.847	2124.62
385.647	2131.62
391.44	2144.62
397.228	2143.62
403.009	2171.62
408.784	2175.62
414.553	2170.62
420.315	2187.62
426.071	2200.62
431.821	2178.62
437.565	2183.62
443.302	2189.62
449.033	2172.62
454.758	2166.62
460.477	2163.62
466.189	2136.62
471.896	2142.62
477.596	2127.62
483.29	2119.62
488.978	2109.62
494.66	2108.62
500.335	2110.62
506.005	2066.62
511.668	2018.62
517.325	1995.62
522.977	1948.62
528.622	1910.62
534.261	1910.62
539.894	1883.62
545.521	1881.62
551.141	1868.62
556.756	1862.62
562.365	1856.62
567.968	1843.62
573.565	1801.62
579.155	1819.62
584.74	1785.62
590.319	1795.62
595.892	1770.62
601.459	1773.62
607.02	1771.62
612.575	1748.62
618.124	1724.62
623.667	1709.62
629.204	1702.62
634.735	1690.62
640.261	1672.62
645.781	1663.62
651.294	1661.62
656.802	1637.62
662.304	1656.62
667.8	1650.62
673.29	1646.62
678.775	1637.62
684.254	1626.62
689.726	1616.62
695.193	1610.62
700.655	1597.62
706.11	1585.62
711.56	1590.62
717.004	1559.62
722.442	1557.62
727.874	1553.62
733.301	1565.62
738.722	1553.62
744.137	1540.62
749.547	1535.62
754.951	1527.62
760.349	1536.62
765.741	1534.62
771.128	1529.62
776.509	1526.62
781.885	1524.62
787.254	1523.62
792.618	1507.62
797.977	1505.62
803.33	1497.62
808.677	1506.62
814.019	1477.62
819.355	1457.62
824.686	1450.62
830.011	1434.62
835.33	1437.62
840.644	1432.62
845.952	1435.62
851.255	1421.62
856.552	1401.62
861.844	1420.62
867.13	1399.62
872.41	1402.62
877.686	1408.62
882.955	1382.62
888.219	1366.62
893.478	1343.62
898.731	1311.62
903.979	1303.62
909.221	1270.62
914.458	1266.62
919.69	1268.62
924.916	1264.62
930.136	1265.62
935.351	1256.62
940.561	1266.62
945.766	1277.62
950.965	1248.62
956.158	1233.62
961.347	1241.62
966.529	1216.62
971.707	1193.62
976.879	1179.62
982.046	1170.62
987.208	1171.62
992.364	1176.62
997.515	1167.62
1002.66	1190.62
1007.801	1197.62
1012.936	1184.62
1018.066	1240.62
1023.19	1216.62
1028.309	1221.62
1033.423	1222.62
1038.532	1204.62
1043.636	1206.62
1048.734	1205.62
1053.827	1180.62
1058.915	1171.62
1063.998	1160.62
1069.075	1169.62
1074.147	1162.62
1079.214	1170.62
1084.276	1188.62
1089.333	1205.62
1094.385	1189.62
1099.431	1197.62
1104.472	1214.62
1109.509	1197.62
1114.54	1182.62
1119.565	1169.62
1124.586	1152.62
1129.602	1151.62
1134.613	1140.62
1139.618	1131.62
1144.619	1143.62
1149.614	1141.62
1154.604	1154.62
1159.589	1149.62
1164.57	1155.62
1169.545	1162.62
1174.515	1157.62
1179.48	1146.62
1184.44	1150.62
1189.395	1148.62
1194.345	1149.62
1199.29	1128.62
1204.23	1134.62
1209.165	1143.62
1214.095	1151.62
1219.021	1154.62
1223.941	1173.62
1228.856	1176.62
1233.766	1186.62
1238.672	1176.62
1243.572	1176.62
1248.467	1180.62
1253.358	1157.62
1258.244	1134.62
1263.124	1119.62
1268	1107.62
1272.871	1105.62
1277.737	1095.62
1282.599	1076.62
1287.455	1103.62
1292.306	1111.62
1297.153	1107.62
1301.995	1119.62
1306.832	1114.62
1311.664	1115.62
1316.491	1127.62
1321.314	1134.62
1326.132	1116.62
1330.945	1120.62
1335.753	1113.62
1340.556	1090.62
1345.354	1087.62
1350.148	1078.62
1354.937	1072.62
1359.722	1059.62
1364.501	1035.62
1369.276	1022.62
1374.046	1017.62
1378.811	1002.62
1383.572	1000.62
1388.327	997.62
1393.079	993.62
1397.825	998.62
1402.567	994.62
1407.304	986.62
1412.036	981.62
1416.764	984.62
1421.487	1002.62
1426.205	1000.62
1430.919	998.62
1435.628	1024.62
1440.333	1033.62
1445.032	1033.62
1449.727	1054.62
1454.418	1052.62
1459.104	1062.62
1463.785	1057.62
1468.462	1043.62
1473.134	1029.62
1477.802	1026.62
1482.465	1012.62
1487.123	1004.62
1491.777	1030.62
1496.426	1024.62
1501.071	1030.62
1505.711	1031.62
1510.347	1039.62
1514.978	1049.62
1519.604	1058.62
1524.226	1055.62
1528.844	1061.62
1533.457	1054.62
1538.065	1034.62
1542.669	1032.62
1547.269	1037.62
1551.864	1021.62
1556.454	1043.62
1561.041	1060.62
1565.622	1048.62
1570.199	1078.62
1574.772	1096.62
1579.34	1123.62
1583.904	1145.62
1588.464	1150.62
1593.019	1168.62
1597.569	1172.62
1602.115	1199.62
1606.657	1184.62
1611.195	1214.62
1615.728	1221.62
1620.256	1232.62
1624.78	1237.62
1629.3	1279.62
1633.816	1288.62
1638.327	1295.62
1642.834	1326.62
1647.336	1326.62
1651.834	1352.62
1656.328	1329.62
1660.817	1310.62
1665.302	1302.62
1669.783	1296.62
1674.259	1255.62
1678.732	1220.62
1683.199	1203.62
1687.663	1159.62
1692.122	1120.62
1696.577	1060.62
1701.028	1013.62
1705.474	980.62
1709.917	933.62
1714.355	922.62
1718.788	910.62
1723.218	903.62
1727.643	891.62
1732.064	871.62
1736.481	856.62
1740.893	827.62
1745.301	823.62
1749.705	794.62
1754.105	783.62
1758.501	762.62
1762.893	753.62
1767.28	741.62
1771.663	732.62
1776.042	727.62
1780.417	738.62
1784.787	736.62
1789.154	753.62
1793.516	736.62
1797.874	727.62
1802.228	726.62
1806.578	706.62
1810.924	692.62
1815.266	677.62
1819.603	673.62
1823.937	665.62
1828.266	655.62
1832.591	674.62
1836.913	659.62
1841.23	656.62
1845.543	665.62
1849.852	659.62
1854.156	657.62
1858.457	673.62
1862.754	676.62
1867.047	686.62
1871.335	669.62
1875.62	678.62
1879.9	691.62
1884.177	696.62
1888.449	684.62
1892.718	677.62
1896.982	685.62
1901.243	664.62
1905.499	675.62
1909.752	683.62
1914	687.62
1918.245	679.62
1922.485	674.62
1926.722	672.62
1930.954	671.62
1935.183	679.62
1939.408	683.62
1943.628	686.62
1947.845	676.62
1952.058	675.62
1956.267	678.62
1960.472	667.62
1964.673	645.62
1968.87	645.62
1973.063	633.62
1977.252	638.62
1981.438	645.62
1985.619	638.62
1989.797	631.62
1993.971	638.62
1998.14	636.62
2002.306	635.62
2006.469	640.62
2010.627	636.62
2014.781	646.62
2018.932	640.62
2023.078	648.62
2027.221	646.62
2031.36	641.62
2035.495	639.62
2039.627	622.62
2043.754	630.62
2047.878	637.62
2051.998	631.62
2056.114	627.62
2060.226	628.62
2064.334	620.62
2068.439	633.62
2072.54	631.62
2076.637	636.62
2080.73	653.62
2084.82	660.62
2088.906	646.62
2092.988	650.62
2097.066	640.62
2101.14	636.62
2105.211	637.62
2109.278	623.62
2113.342	623.62
2117.401	616.62
2121.457	608.62
2125.509	619.62
2129.558	614.62
2133.602	601.62
2137.643	606.62
2141.681	600.62
2145.714	612.62
2149.744	594.62
2153.77	598.62
2157.793	591.62
2161.812	586.62
2165.827	591.62
2169.838	574.62
2173.846	559.62
2177.851	562.62
2181.851	553.62
2185.848	538.62
2189.841	540.62
2193.831	540.62
2197.817	537.62
2201.799	528.62
2205.778	531.62
2209.753	522.62
2213.725	531.62
2217.693	523.62
2221.657	522.62
2225.618	519.62
2229.575	518.62
2233.529	528.62
2237.479	516.62
2241.425	509.62
2245.368	506.62
2249.307	501.62
2253.243	482.62
2257.175	473.62
2261.104	482.62
2265.029	469.62
2268.95	463.62
2272.868	458.62
2276.783	458.62
2280.694	451.62
2284.601	443.62
2288.505	435.62
2292.405	428.62
2296.302	430.62
2300.195	428.62
2304.085	420.62
2307.971	405.62
2311.854	413.62
2315.734	394.62
2319.609	388.62
2323.482	394.62
2327.351	383.62
2331.216	377.62
2335.078	383.62
2338.937	380.62
2342.792	370.62
2346.643	364.62
2350.492	364.62
2354.336	369.62
2358.178	358.62
2362.015	365.62
2365.85	380.62
2369.681	376.62
2373.508	372.62
2377.333	374.62
2381.153	367.62
2384.971	367.62
2388.785	372.62
2392.595	361.62
2396.402	361.62
2400.206	368.62
2404.007	363.62
2407.804	362.62
2411.597	356.62
2415.388	358.62
2419.174	364.62
2422.958	355.62
2426.738	358.62
2430.515	355.62
2434.289	360.62
2438.059	350.62
2441.825	348.62
2445.589	342.62
2449.349	348.62
2453.106	339.62
2456.859	340.62
2460.61	335.62
2464.356	342.62
2468.1	330.62
2471.84	330.62
2475.577	332.62
2479.311	333.62
2483.041	326.62
2486.768	332.62
2490.492	327.62
2494.213	331.62
2497.93	328.62
2501.644	331.62
2505.355	323.62
2509.062	317.62
2512.766	334.62
2516.467	326.62
2520.165	333.62
2523.859	316.62
2527.551	316.62
2531.239	306.62
2534.923	312.62
2538.605	306.62
2542.283	310.62
2545.958	301.62
2549.63	308.62
2553.299	304.62
2556.964	306.62
2560.626	297.62
2564.285	302.62
2567.941	298.62
2571.594	298.62
2575.243	290.62
2578.89	291.62
2582.533	292.62
2586.173	284.62
2589.809	288.62
2593.443	282.62
2597.073	278.62
2600.701	278.62
2604.325	265.62
2607.946	287.62
2611.564	278.62
2615.178	267.62
2618.79	270.62
2622.398	271.62
2626.004	265.62
2629.606	268.62
2633.205	264.62
2636.801	257.62
2640.394	259.62
2643.983	250.62
2647.57	249.62
2651.153	241.62
2654.734	243.62
2658.311	245.62
2661.885	244.62
2665.456	247.62
2669.025	243.62
2672.589	243.62
2676.151	232.62
2679.71	235.62
2683.266	230.62
2686.819	224.62
2690.368	225.62
2693.915	231.62
2697.458	230.62
2700.999	223.62
2704.536	225.62
2708.071	219.62
2711.602	221.62
2715.13	216.62
2718.656	214.62
2722.178	227.62
2725.697	223.62
2729.214	221.62
2732.727	224.62
2736.237	210.62
2739.744	212.62
2743.249	216.62
2746.75	220.62
2750.248	220.62
2753.743	223.62
2757.236	214.62
2760.725	212.62
2764.211	212.62
2767.695	206.62
2771.175	195.62
2774.652	207.62
2778.127	203.62
2781.598	204.62
2785.067	201.62
2788.532	204.62
2791.995	197.62
2795.455	201.62
2798.911	211.62
2802.365	211.62
2805.816	209.62
2809.264	216.62
2812.709	212.62
2816.151	212.62
2819.59	214.62
2823.026	206.62
2826.46	208.62
2829.89	205.62
2833.318	214.62
2836.742	217.62
2840.164	214.62
2843.583	215.62
2846.999	221.62
2850.412	218.62
2853.822	226.62
2857.229	220.62
2860.634	225.62
2864.035	223.62
2867.434	234.62
2870.83	232.62
2874.223	242.62
2877.613	241.62
2881	244.62
2884.385	260.62
2887.766	234.62
2891.145	245.62
2894.521	240.62
2897.894	247.62
2901.264	241.62
2904.631	247.62
2907.996	247.62
2911.358	242.62
2914.717	250.62
2918.073	253.62
2921.426	260.62
2924.777	258.62
2928.124	269.62
2931.469	266.62
2934.811	286.62
2938.15	284.62
2941.487	289.62
2944.821	291.62
2948.152	293.62
2951.48	292.62
2954.805	294.62
2958.128	300.62
2961.447	307.62
2964.765	306.62
2968.079	314.62
2971.39	318.62
2974.699	333.62
2978.005	335.62
2981.308	329.62
2984.609	348.62
2987.907	357.62
2991.202	360.62
2994.494	379.62
2997.784	385.62
3001.07	395.62
3004.355	397.62
3007.636	411.62
3010.915	417.62
3014.191	424.62
3017.464	435.62
3020.734	424.62
3024.002	443.62
3027.267	451.62
3030.53	453.62
3033.789	467.62
3037.046	482.62
3040.301	480.62
3043.552	489.62
3046.801	515.62
3050.048	520.62
3053.291	539.62
3056.532	549.62
3059.771	567.62
3063.006	595.62
3066.239	619.62
3069.469	633.62
3072.697	642.62
3075.922	652.62
3079.144	662.62
3082.364	690.62
3085.581	702.62
3088.795	722.62
3092.007	740.62
3095.216	760.62
3098.423	769.62
3101.627	788.62
3104.828	795.62
3108.026	816.62
3111.222	830.62
3114.416	851.62
3117.607	874.62
3120.795	891.62
3123.98	905.62
3127.163	935.62
3130.344	958.62
3133.521	964.62
3136.696	996.62
3139.869	1004.62
3143.039	1028.62
3146.206	1038.62
3149.371	1039.62
3152.533	1061.62
3155.693	1073.62
3158.85	1083.62
3162.005	1061.62
3165.157	1083.62
3168.306	1092.62
3171.453	1087.62
3174.597	1096.62
3177.739	1101.62
3180.878	1106.62
3184.014	1113.62
3187.149	1115.62
3190.28	1121.62
3193.409	1106.62
3196.536	1109.62
3199.659	1120.62
3202.781	1129.62
3205.9	1128.62
3209.016	1145.62
3212.13	1128.62
3215.241	1117.62
3218.35	1115.62
3221.456	1109.62
3224.56	1104.62
3227.661	1084.62
3230.76	1069.62
3233.856	1069.62
3236.95	1051.62
3240.041	1044.62
3243.13	1027.62
3246.216	1027.62
3249.3	1009.62
3252.382	1012.62
3255.46	1008.62
3258.537	1011.62
3261.611	1008.62
3264.682	998.62
3267.751	998.62
3270.818	992.62
3273.882	988.62
3276.943	978.62
3280.002	969.62
3283.059	976.62
3286.113	952.62
3289.165	946.62
3292.214	919.62
3295.261	905.62
3298.306	896.62
3301.348	886.62
3304.387	875.62
3307.425	853.62
3310.459	833.62
3313.492	836.62
3316.521	822.62
3319.549	827.62
3322.574	818.62
3325.597	808.62
3328.617	807.62
3331.635	795.62
3334.65	794.62
3337.663	791.62
3340.674	777.62
3343.682	777.62
3346.688	776.62
3349.691	779.62
3352.692	759.62
3355.691	765.62
3358.687	767.62
3361.681	748.62
3364.673	745.62
3367.662	727.62
3370.649	721.62
3373.633	715.62
3376.615	697.62
3379.595	685.62
3382.572	677.62
3385.547	687.62
3388.52	660.62
3391.49	648.62
3394.458	649.62
3397.424	629.62
3400.387	629.62
3403.348	618.62
3406.307	627.62
3409.263	614.62
3412.217	610.62
3415.168	595.62
3418.118	598.62
3421.065	581.62
3424.009	581.62
3426.951	565.62
3429.891	556.62
3432.829	550.62
3435.764	541.62
3438.697	525.62
3441.628	513.62
3444.557	505.62
3447.483	489.62
3450.407	481.62
3453.328	462.62
3456.247	449.62
3459.164	435.62
3462.079	412.62
3464.991	408.62
3467.902	398.62
3470.809	378.62
3473.715	373.62
3476.618	363.62
3479.519	347.62
3482.418	342.62
3485.315	333.62
3488.209	323.62
3491.101	321.62
3493.99	311.62
3496.878	294.62
3499.763	289.62
3502.646	285.62
3505.527	271.62
3508.405	257.62
3511.281	246.62
3514.155	233.62
3517.027	225.62
3519.897	218.62
3522.764	204.62
3525.629	195.62
3528.492	187.62
3531.352	172.62
3534.211	171.62
3537.067	149.62
3539.921	142.62
3542.773	137.62
3545.622	129.62
3548.469	123.62
3551.315	111.62
3554.157	111.62
3556.998	108.62
3559.837	98.62
3562.673	87.62
3565.507	81.62
3568.339	78.62
3571.169	74.62
3573.996	66.62
3576.822	58.62
3579.645	54.62
3582.466	48.62
3585.285	43.62
3588.101	36.62
3590.916	33.62
3593.728	34.62
3596.538	29.62
3599.346	25.62
3602.152	22.62
3604.956	19.62
3607.757	8.62
3610.556	4.62
3613.354	0.62
3616.149	1.62
3618.942	-3.38
3621.732	-6.38
3624.521	-9.38
3627.307	-14.38
3630.092	-18.38
3632.874	-20.38
3635.654	-20.38
3638.432	-19.38
3641.208	-22.38
3643.982	-26.38
3646.753	-28.38
3649.523	-28.38
3652.29	-31.38
3655.055	-39.38
3657.818	-40.38
3660.579	-45.38
3663.338	-43.38
3666.095	-47.38
3668.849	-45.38
3671.602	-53.38
3674.352	-50.38
3677.101	-56.38
3679.847	-55.38
3682.591	-55.38
3685.333	-58.38
3688.073	-60.38
3690.811	-64.38
3693.547	-67.38
3696.281	-67.38
3699.013	-72.38
3701.742	-72.38
3704.47	-71.38
3707.195	-69.38
3709.919	-72.38
3712.64	-71.38
3715.359	-72.38
3718.076	-73.38
3720.792	-77.38
3723.505	-76.38
3726.216	-78.38
3728.925	-76.38
3731.632	-81.38
3734.336	-79.38
3737.039	-85.38
3739.74	-80.38
3742.439	-84.38
3745.136	-83.38
3747.83	-82.38
3750.523	-80.38
3753.213	-79.38
3755.902	-82.38
3758.589	-86.38
3761.273	-82.38
3763.956	-84.38
3766.636	-85.38
3769.315	-90.38
3771.991	-89.38
3774.665	-88.38
3777.338	-84.38
3780.008	-89.38
3782.677	-87.38
3785.343	-87.38
3788.007	-88.38
3790.67	-89.38
3793.33	-89.38
3795.989	-88.38
3798.645	-81.38
3801.299	-85.38
3803.952	-90.38
3806.602	-97.38
3809.251	-93.38
3811.897	-89.38
3814.542	-92.38
3817.184	-88.38
3819.825	-94.38
3822.463	-92.38
3825.1	-92.38
3827.735	-95.38
3830.367	-93.38
3832.998	-96.38
3835.627	-91.38
3838.253	-90.38
3840.878	-93.38
3843.501	-94.38
3846.122	-99.38
3848.741	-100.38
3851.358	-96.38
3853.973	-95.38
3856.586	-93.38
3859.197	-94.38
3861.806	-95.38
3864.414	-95.38
3867.019	-97.38
3869.622	-95.38
3872.224	-95.38
3874.823	-91.38
3877.421	-92.38
3880.016	-87.38
3882.61	-89.38
3885.202	-92.38
3887.792	-91.38
3890.38	-92.38
3892.966	-92.38
3895.55	-95.38
3898.132	-95.38
3900.713	-98.38
3903.291	-98.38
3905.868	-96.38
3908.442	-98.38
3911.015	-99.38
3913.586	-100.38
3916.155	-101.38
3918.722	-99.38
3921.287	-96.38
3923.85	-97.38
3926.411	-100.38
3928.971	-98.38
3931.528	-99.38
3934.084	-98.38
3936.638	-99.38
3939.19	-101.38
3941.74	-100.38
3944.288	-100.38
3946.834	-100.38
3949.378	-99.38
3951.921	-99.38
3954.462	-104.38
3957	-100.38
3959.537	-98.38
3962.072	-100.38
3964.606	-97.38
3967.137	-98.38
3969.667	-96.38
3972.194	-98.38
3974.72	-100.38
3977.244	-99.38
3979.766	-98.38
3982.286	-99.38
3984.805	-96.38
3987.321	-100.38
3989.836	-96.38
3992.349	-100.38
3994.86	-98.38
3997.369	-97.38
3999.877	-98.38
4002.382	-95.38
4004.886	-95.38
4007.388	-94.38
4009.888	-95.38
4012.386	-98.38
4014.883	-101.38
4017.377	-105.38
4019.87	-96.38
4022.361	-99.38
4024.85	-100.38
4027.338	-98.38
4029.823	-93.38
4032.307	-92.38
4034.789	-96.38
4037.269	-100.38
4039.747	-95.38
4042.224	-101.38
4044.699	-102.38
4047.172	-98.38
4049.643	-100.38
4052.112	-100.38
4054.58	-100.38
4057.046	-100.38
4059.51	-98.38
4061.972	-101.38
4064.432	-102.38
4066.891	-98.38
4069.348	-96.38
4071.803	-99.38
4074.256	-95.38
4076.708	-96.38
4079.158	-100.38
4081.606	-102.38
4084.052	-103.38
4086.497	-97.38
4088.939	-98.38
4091.38	-98.38
4093.819	-98.38
4096.257	-106.38
4098.693	-101.38
4101.127	-106.38
4103.559	-104.38
4105.989	-67.38
4108.418	-64.38
4110.845	-56.38
4113.27	-60.38
4115.694	-51.38
4118.115	-43.38
4120.535	-97.38
4122.954	-95.38
4125.37	-99.38
4127.785	-101.38
4130.198	-102.38
4132.609	-100.38
4135.019	-102.38
4137.427	-107.38
4139.833	-100.38
4142.237	-103.38
