Data from 1CFU2_A_RamanShift_1.txt Node
Date: Mon Jan 23 13:55:22 IST 2017
User: aro
Spectrometer: QEPB0276
Trigger mode: 0
Integration Time (sec): 5.000000E0
Scans to average: 1
Electric dark correction enabled: true
Nonlinearity correction enabled: false
Boxcar width: 0
XAxis mode: Raman Shifts
Number of Pixels in Spectrum: 1044
>>>>>Begin Spectral Data<<<<<
160.701	-27.5
166.742	1.5
172.777	84.5
178.805	347.5
184.826	969.5
190.841	2056.5
196.849	3210.5
202.85	4001.5
208.845	4223.5
214.833	4087.5
220.815	3915.5
226.789	3818.5
232.758	3703.5
238.719	3579.5
244.674	3449.5
250.623	3297.5
256.565	3139.5
262.5	2976.5
268.429	2861.5
274.351	2728.5
280.267	2627.5
286.176	2529.5
292.079	2435.5
297.975	2351.5
303.865	2288.5
309.748	2208.5
315.625	2177.5
321.495	2112.5
327.359	2106.5
333.217	2062.5
339.068	2049.5
344.912	2028.5
350.751	2013.5
356.583	2023.5
362.408	2025.5
368.227	2022.5
374.04	2043.5
379.847	2030.5
385.647	2038.5
391.44	2055.5
397.228	2067.5
403.009	2085.5
408.784	2080.5
414.553	2072.5
420.315	2087.5
426.071	2084.5
431.821	2091.5
437.565	2078.5
443.302	2102.5
449.033	2091.5
454.758	2062.5
460.477	2055.5
466.189	2064.5
471.896	2062.5
477.596	2054.5
483.29	2029.5
488.978	2009.5
494.66	2011.5
500.335	1983.5
506.005	1951.5
511.668	1920.5
517.325	1881.5
522.977	1860.5
528.622	1847.5
534.261	1801.5
539.894	1803.5
545.521	1782.5
551.141	1778.5
556.756	1759.5
562.365	1733.5
567.968	1736.5
573.565	1722.5
579.155	1712.5
584.74	1689.5
590.319	1682.5
595.892	1678.5
601.459	1667.5
607.02	1649.5
612.575	1658.5
618.124	1628.5
623.667	1615.5
629.204	1592.5
634.735	1596.5
640.261	1579.5
645.781	1559.5
651.294	1554.5
656.802	1563.5
662.304	1538.5
667.8	1534.5
673.29	1524.5
678.775	1528.5
684.254	1515.5
689.726	1507.5
695.193	1497.5
700.655	1493.5
706.11	1477.5
711.56	1462.5
717.004	1467.5
722.442	1447.5
727.874	1451.5
733.301	1441.5
738.722	1428.5
744.137	1414.5
749.547	1414.5
754.951	1420.5
760.349	1416.5
765.741	1422.5
771.128	1413.5
776.509	1417.5
781.885	1421.5
787.254	1414.5
792.618	1396.5
797.977	1392.5
803.33	1377.5
808.677	1363.5
814.019	1337.5
819.355	1342.5
824.686	1335.5
830.011	1318.5
835.33	1309.5
840.644	1315.5
845.952	1307.5
851.255	1283.5
856.552	1290.5
861.844	1270.5
867.13	1282.5
872.41	1253.5
877.686	1272.5
882.955	1240.5
888.219	1226.5
893.478	1202.5
898.731	1186.5
903.979	1169.5
909.221	1160.5
914.458	1137.5
919.69	1135.5
924.916	1143.5
930.136	1120.5
935.351	1122.5
940.561	1122.5
945.766	1129.5
950.965	1116.5
956.158	1113.5
961.347	1094.5
966.529	1086.5
971.707	1052.5
976.879	1053.5
982.046	1041.5
987.208	1031.5
992.364	1025.5
997.515	1043.5
1002.66	1051.5
1007.801	1058.5
1012.936	1066.5
1018.066	1080.5
1023.19	1074.5
1028.309	1069.5
1033.423	1068.5
1038.532	1077.5
1043.636	1061.5
1048.734	1051.5
1053.827	1026.5
1058.915	1030.5
1063.998	1031.5
1069.075	1033.5
1074.147	1024.5
1079.214	1034.5
1084.276	1047.5
1089.333	1050.5
1094.385	1050.5
1099.431	1056.5
1104.472	1060.5
1109.509	1051.5
1114.54	1042.5
1119.565	1019.5
1124.586	1026.5
1129.602	992.5
1134.613	992.5
1139.618	1000.5
1144.619	1002.5
1149.614	1009.5
1154.604	1000.5
1159.589	1012.5
1164.57	1009.5
1169.545	1014.5
1174.515	1010.5
1179.48	1001.5
1184.44	1007.5
1189.395	986.5
1194.345	999.5
1199.29	991.5
1204.23	1001.5
1209.165	1001.5
1214.095	1020.5
1219.021	1013.5
1223.941	1018.5
1228.856	1035.5
1233.766	1023.5
1238.672	1042.5
1243.572	1023.5
1248.467	1032.5
1253.358	1016.5
1258.244	1005.5
1263.124	973.5
1268	971.5
1272.871	952.5
1277.737	948.5
1282.599	966.5
1287.455	955.5
1292.306	958.5
1297.153	972.5
1301.995	966.5
1306.832	970.5
1311.664	982.5
1316.491	981.5
1321.314	979.5
1326.132	962.5
1330.945	968.5
1335.753	969.5
1340.556	942.5
1345.354	932.5
1350.148	924.5
1354.937	930.5
1359.722	918.5
1364.501	910.5
1369.276	900.5
1374.046	893.5
1378.811	887.5
1383.572	872.5
1388.327	861.5
1393.079	876.5
1397.825	872.5
1402.567	853.5
1407.304	850.5
1412.036	862.5
1416.764	858.5
1421.487	848.5
1426.205	855.5
1430.919	869.5
1435.628	872.5
1440.333	885.5
1445.032	899.5
1449.727	902.5
1454.418	907.5
1459.104	909.5
1463.785	903.5
1468.462	907.5
1473.134	881.5
1477.802	874.5
1482.465	882.5
1487.123	868.5
1491.777	877.5
1496.426	875.5
1501.071	875.5
1505.711	895.5
1510.347	904.5
1514.978	914.5
1519.604	907.5
1524.226	916.5
1528.844	923.5
1533.457	920.5
1538.065	889.5
1542.669	899.5
1547.269	906.5
1551.864	916.5
1556.454	910.5
1561.041	924.5
1565.622	935.5
1570.199	948.5
1574.772	963.5
1579.34	985.5
1583.904	1009.5
1588.464	1013.5
1593.019	1039.5
1597.569	1052.5
1602.115	1057.5
1606.657	1078.5
1611.195	1080.5
1615.728	1079.5
1620.256	1110.5
1624.78	1121.5
1629.3	1131.5
1633.816	1149.5
1638.327	1171.5
1642.834	1199.5
1647.336	1194.5
1651.834	1208.5
1656.328	1202.5
1660.817	1189.5
1665.302	1164.5
1669.783	1153.5
1674.259	1119.5
1678.732	1098.5
1683.199	1055.5
1687.663	1030.5
1692.122	993.5
1696.577	943.5
1701.028	899.5
1705.474	856.5
1709.917	818.5
1714.355	806.5
1718.788	793.5
1723.218	783.5
1727.643	771.5
1732.064	750.5
1736.481	733.5
1740.893	707.5
1745.301	687.5
1749.705	666.5
1754.105	655.5
1758.501	645.5
1762.893	634.5
1767.28	623.5
1771.663	619.5
1776.042	620.5
1780.417	615.5
1784.787	618.5
1789.154	618.5
1793.516	611.5
1797.874	616.5
1802.228	597.5
1806.578	594.5
1810.924	580.5
1815.266	561.5
1819.603	556.5
1823.937	549.5
1828.266	555.5
1832.591	544.5
1836.913	545.5
1841.23	535.5
1845.543	542.5
1849.852	533.5
1854.156	539.5
1858.457	539.5
1862.754	562.5
1867.047	554.5
1871.335	561.5
1875.62	564.5
1879.9	559.5
1884.177	562.5
1888.449	556.5
1892.718	555.5
1896.982	557.5
1901.243	555.5
1905.499	556.5
1909.752	556.5
1914	561.5
1918.245	558.5
1922.485	563.5
1926.722	566.5
1930.954	553.5
1935.183	570.5
1939.408	570.5
1943.628	565.5
1947.845	554.5
1952.058	552.5
1956.267	554.5
1960.472	547.5
1964.673	539.5
1968.87	545.5
1973.063	528.5
1977.252	528.5
1981.438	531.5
1985.619	527.5
1989.797	509.5
1993.971	518.5
1998.14	525.5
2002.306	522.5
2006.469	528.5
2010.627	533.5
2014.781	528.5
2018.932	535.5
2023.078	539.5
2027.221	533.5
2031.36	534.5
2035.495	529.5
2039.627	519.5
2043.754	522.5
2047.878	527.5
2051.998	525.5
2056.114	518.5
2060.226	527.5
2064.334	531.5
2068.439	541.5
2072.54	532.5
2076.637	538.5
2080.73	540.5
2084.82	545.5
2088.906	546.5
2092.988	537.5
2097.066	545.5
2101.14	535.5
2105.211	542.5
2109.278	531.5
2113.342	532.5
2117.401	524.5
2121.457	512.5
2125.509	518.5
2129.558	502.5
2133.602	501.5
2137.643	509.5
2141.681	507.5
2145.714	504.5
2149.744	503.5
2153.77	499.5
2157.793	483.5
2161.812	491.5
2165.827	482.5
2169.838	476.5
2173.846	473.5
2177.851	464.5
2181.851	462.5
2185.848	449.5
2189.841	438.5
2193.831	441.5
2197.817	436.5
2201.799	425.5
2205.778	435.5
2209.753	441.5
2213.725	439.5
2217.693	431.5
2221.657	441.5
2225.618	438.5
2229.575	425.5
2233.529	437.5
2237.479	419.5
2241.425	425.5
2245.368	413.5
2249.307	416.5
2253.243	402.5
2257.175	394.5
2261.104	388.5
2265.029	384.5
2268.95	384.5
2272.868	378.5
2276.783	374.5
2280.694	369.5
2284.601	360.5
2288.505	357.5
2292.405	354.5
2296.302	351.5
2300.195	342.5
2304.085	339.5
2307.971	334.5
2311.854	320.5
2315.734	312.5
2319.609	312.5
2323.482	307.5
2327.351	310.5
2331.216	302.5
2335.078	309.5
2338.937	306.5
2342.792	294.5
2346.643	290.5
2350.492	293.5
2354.336	293.5
2358.178	300.5
2362.015	300.5
2365.85	290.5
2369.681	298.5
2373.508	297.5
2377.333	292.5
2381.153	290.5
2384.971	290.5
2388.785	290.5
2392.595	297.5
2396.402	292.5
2400.206	294.5
2404.007	283.5
2407.804	283.5
2411.597	292.5
2415.388	291.5
2419.174	290.5
2422.958	280.5
2426.738	285.5
2430.515	286.5
2434.289	276.5
2438.059	278.5
2441.825	280.5
2445.589	267.5
2449.349	273.5
2453.106	273.5
2456.859	273.5
2460.61	269.5
2464.356	261.5
2468.1	263.5
2471.84	267.5
2475.577	262.5
2479.311	254.5
2483.041	258.5
2486.768	263.5
2490.492	260.5
2494.213	257.5
2497.93	260.5
2501.644	251.5
2505.355	259.5
2509.062	257.5
2512.766	259.5
2516.467	256.5
2520.165	250.5
2523.859	253.5
2527.551	252.5
2531.239	252.5
2534.923	239.5
2538.605	238.5
2542.283	250.5
2545.958	235.5
2549.63	235.5
2553.299	236.5
2556.964	230.5
2560.626	234.5
2564.285	226.5
2567.941	233.5
2571.594	229.5
2575.243	228.5
2578.89	227.5
2582.533	226.5
2586.173	215.5
2589.809	218.5
2593.443	223.5
2597.073	213.5
2600.701	213.5
2604.325	211.5
2607.946	215.5
2611.564	216.5
2615.178	205.5
2618.79	204.5
2622.398	203.5
2626.004	207.5
2629.606	201.5
2633.205	205.5
2636.801	205.5
2640.394	203.5
2643.983	192.5
2647.57	193.5
2651.153	187.5
2654.734	193.5
2658.311	189.5
2661.885	183.5
2665.456	180.5
2669.025	190.5
2672.589	185.5
2676.151	178.5
2679.71	177.5
2683.266	182.5
2686.819	177.5
2690.368	180.5
2693.915	176.5
2697.458	178.5
2700.999	168.5
2704.536	163.5
2708.071	168.5
2711.602	170.5
2715.13	157.5
2718.656	164.5
2722.178	172.5
2725.697	166.5
2729.214	169.5
2732.727	172.5
2736.237	163.5
2739.744	175.5
2743.249	172.5
2746.75	167.5
2750.248	163.5
2753.743	167.5
2757.236	169.5
2760.725	169.5
2764.211	157.5
2767.695	160.5
2771.175	156.5
2774.652	157.5
2778.127	155.5
2781.598	150.5
2785.067	151.5
2788.532	156.5
2791.995	162.5
2795.455	154.5
2798.911	158.5
2802.365	168.5
2805.816	161.5
2809.264	169.5
2812.709	165.5
2816.151	166.5
2819.59	170.5
2823.026	157.5
2826.46	167.5
2829.89	168.5
2833.318	165.5
2836.742	162.5
2840.164	170.5
2843.583	177.5
2846.999	180.5
2850.412	183.5
2853.822	177.5
2857.229	179.5
2860.634	182.5
2864.035	190.5
2867.434	191.5
2870.83	187.5
2874.223	205.5
2877.613	202.5
2881	197.5
2884.385	203.5
2887.766	200.5
2891.145	200.5
2894.521	200.5
2897.894	202.5
2901.264	197.5
2904.631	210.5
2907.996	204.5
2911.358	221.5
2914.717	215.5
2918.073	210.5
2921.426	220.5
2924.777	222.5
2928.124	225.5
2931.469	229.5
2934.811	239.5
2938.15	246.5
2941.487	237.5
2944.821	257.5
2948.152	249.5
2951.48	258.5
2954.805	256.5
2958.128	266.5
2961.447	277.5
2964.765	281.5
2968.079	290.5
2971.39	292.5
2974.699	300.5
2978.005	306.5
2981.308	310.5
2984.609	319.5
2987.907	333.5
2991.202	343.5
2994.494	344.5
2997.784	363.5
3001.07	371.5
3004.355	374.5
3007.636	384.5
3010.915	388.5
3014.191	395.5
3017.464	417.5
3020.734	416.5
3024.002	419.5
3027.267	424.5
3030.53	432.5
3033.789	443.5
3037.046	458.5
3040.301	463.5
3043.552	479.5
3046.801	486.5
3050.048	504.5
3053.291	515.5
3056.532	546.5
3059.771	558.5
3063.006	570.5
3066.239	597.5
3069.469	606.5
3072.697	629.5
3075.922	650.5
3079.144	647.5
3082.364	675.5
3085.581	689.5
3088.795	705.5
3092.007	724.5
3095.216	741.5
3098.423	752.5
3101.627	774.5
3104.828	791.5
3108.026	788.5
3111.222	828.5
3114.416	833.5
3117.607	868.5
3120.795	884.5
3123.98	895.5
3127.163	927.5
3130.344	949.5
3133.521	964.5
3136.696	986.5
3139.869	1000.5
3143.039	1017.5
3146.206	1029.5
3149.371	1040.5
3152.533	1053.5
3155.693	1066.5
3158.85	1063.5
3162.005	1069.5
3165.157	1097.5
3168.306	1085.5
3171.453	1084.5
3174.597	1097.5
3177.739	1098.5
3180.878	1098.5
3184.014	1100.5
3187.149	1110.5
3190.28	1102.5
3193.409	1121.5
3196.536	1109.5
3199.659	1115.5
3202.781	1130.5
3205.9	1114.5
3209.016	1126.5
3212.13	1139.5
3215.241	1115.5
3218.35	1108.5
3221.456	1098.5
3224.56	1095.5
3227.661	1079.5
3230.76	1072.5
3233.856	1058.5
3236.95	1062.5
3240.041	1030.5
3243.13	1039.5
3246.216	1040.5
3249.3	1027.5
3252.382	1007.5
3255.46	1007.5
3258.537	1025.5
3261.611	999.5
3264.682	1000.5
3267.751	990.5
3270.818	995.5
3273.882	980.5
3276.943	982.5
3280.002	970.5
3283.059	952.5
3286.113	937.5
3289.165	945.5
3292.214	922.5
3295.261	909.5
3298.306	910.5
3301.348	886.5
3304.387	883.5
3307.425	867.5
3310.459	857.5
3313.492	837.5
3316.521	836.5
3319.549	813.5
3322.574	819.5
3325.597	801.5
3328.617	800.5
3331.635	786.5
3334.65	793.5
3337.663	795.5
3340.674	777.5
3343.682	780.5
3346.688	768.5
3349.691	778.5
3352.692	769.5
3355.691	758.5
3358.687	762.5
3361.681	756.5
3364.673	740.5
3367.662	738.5
3370.649	714.5
3373.633	706.5
3376.615	706.5
3379.595	689.5
3382.572	700.5
3385.547	676.5
3388.52	672.5
3391.49	659.5
3394.458	653.5
3397.424	640.5
3400.387	634.5
3403.348	642.5
3406.307	633.5
3409.263	622.5
3412.217	601.5
3415.168	608.5
3418.118	592.5
3421.065	591.5
3424.009	577.5
3426.951	569.5
3429.891	571.5
3432.829	550.5
3435.764	548.5
3438.697	533.5
3441.628	511.5
3444.557	496.5
3447.483	489.5
3450.407	470.5
3453.328	461.5
3456.247	449.5
3459.164	440.5
3462.079	419.5
3464.991	416.5
3467.902	402.5
3470.809	388.5
3473.715	378.5
3476.618	368.5
3479.519	360.5
3482.418	349.5
3485.315	331.5
3488.209	324.5
3491.101	315.5
3493.99	303.5
3496.878	304.5
3499.763	275.5
3502.646	281.5
3505.527	265.5
3508.405	267.5
3511.281	241.5
3514.155	237.5
3517.027	232.5
3519.897	217.5
3522.764	210.5
3525.629	191.5
3528.492	182.5
3531.352	171.5
3534.211	156.5
3537.067	154.5
3539.921	148.5
3542.773	134.5
3545.622	133.5
3548.469	120.5
3551.315	113.5
3554.157	112.5
3556.998	110.5
3559.837	96.5
3562.673	79.5
3565.507	79.5
3568.339	77.5
3571.169	69.5
3573.996	68.5
3576.822	57.5
3579.645	58.5
3582.466	48.5
3585.285	43.5
3588.101	41.5
3590.916	34.5
3593.728	35.5
3596.538	29.5
3599.346	24.5
3602.152	26.5
3604.956	16.5
3607.757	11.5
3610.556	4.5
3613.354	1.5
3616.149	1.5
3618.942	-12.5
3621.732	-9.5
3624.521	-6.5
3627.307	-13.5
3630.092	-17.5
3632.874	-17.5
3635.654	-21.5
3638.432	-20.5
3641.208	-23.5
3643.982	-20.5
3646.753	-29.5
3649.523	-33.5
3652.29	-32.5
3655.055	-37.5
3657.818	-42.5
3660.579	-45.5
3663.338	-45.5
3666.095	-48.5
3668.849	-45.5
3671.602	-53.5
3674.352	-54.5
3677.101	-54.5
3679.847	-58.5
3682.591	-56.5
3685.333	-59.5
3688.073	-58.5
3690.811	-63.5
3693.547	-65.5
3696.281	-68.5
3699.013	-68.5
3701.742	-69.5
3704.47	-66.5
3707.195	-70.5
3709.919	-65.5
3712.64	-69.5
3715.359	-73.5
3718.076	-73.5
3720.792	-76.5
3723.505	-76.5
3726.216	-73.5
3728.925	-75.5
3731.632	-77.5
3734.336	-77.5
3737.039	-79.5
3739.74	-81.5
3742.439	-83.5
3745.136	-85.5
3747.83	-84.5
3750.523	-81.5
3753.213	-82.5
3755.902	-81.5
3758.589	-83.5
3761.273	-84.5
3763.956	-84.5
3766.636	-81.5
3769.315	-83.5
3771.991	-84.5
3774.665	-86.5
3777.338	-83.5
3780.008	-89.5
3782.677	-88.5
3785.343	-87.5
3788.007	-89.5
3790.67	-90.5
3793.33	-90.5
3795.989	-87.5
3798.645	-87.5
3801.299	-88.5
3803.952	-90.5
3806.602	-94.5
3809.251	-91.5
3811.897	-88.5
3814.542	-91.5
3817.184	-89.5
3819.825	-92.5
3822.463	-90.5
3825.1	-93.5
3827.735	-94.5
3830.367	-91.5
3832.998	-98.5
3835.627	-94.5
3838.253	-93.5
3840.878	-91.5
3843.501	-91.5
3846.122	-90.5
3848.741	-95.5
3851.358	-92.5
3853.973	-96.5
3856.586	-94.5
3859.197	-90.5
3861.806	-94.5
3864.414	-94.5
3867.019	-96.5
3869.622	-96.5
3872.224	-95.5
3874.823	-92.5
3877.421	-90.5
3880.016	-87.5
3882.61	-86.5
3885.202	-90.5
3887.792	-89.5
3890.38	-92.5
3892.966	-91.5
3895.55	-92.5
3898.132	-93.5
3900.713	-93.5
3903.291	-94.5
3905.868	-93.5
3908.442	-95.5
3911.015	-100.5
3913.586	-99.5
3916.155	-99.5
3918.722	-97.5
3921.287	-97.5
3923.85	-93.5
3926.411	-96.5
3928.971	-97.5
3931.528	-99.5
3934.084	-97.5
3936.638	-99.5
3939.19	-98.5
3941.74	-95.5
3944.288	-100.5
3946.834	-94.5
3949.378	-98.5
3951.921	-96.5
3954.462	-101.5
3957	-101.5
3959.537	-99.5
3962.072	-99.5
3964.606	-99.5
3967.137	-95.5
3969.667	-92.5
3972.194	-95.5
3974.72	-97.5
3977.244	-97.5
3979.766	-97.5
3982.286	-95.5
3984.805	-94.5
3987.321	-97.5
3989.836	-96.5
3992.349	-101.5
3994.86	-98.5
3997.369	-101.5
3999.877	-99.5
4002.382	-95.5
4004.886	-94.5
4007.388	-96.5
4009.888	-93.5
4012.386	-94.5
4014.883	-96.5
4017.377	-99.5
4019.87	-94.5
4022.361	-97.5
4024.85	-97.5
4027.338	-95.5
4029.823	-95.5
4032.307	-95.5
4034.789	-99.5
4037.269	-98.5
4039.747	-96.5
4042.224	-99.5
4044.699	-99.5
4047.172	-94.5
4049.643	-96.5
4052.112	-98.5
4054.58	-94.5
4057.046	-94.5
4059.51	-95.5
4061.972	-99.5
4064.432	-100.5
4066.891	-94.5
4069.348	-99.5
4071.803	-98.5
4074.256	-97.5
4076.708	-94.5
4079.158	-100.5
4081.606	-96.5
4084.052	-101.5
4086.497	-94.5
4088.939	-94.5
4091.38	-97.5
4093.819	-97.5
4096.257	-100.5
4098.693	-96.5
4101.127	-100.5
4103.559	-101.5
4105.989	-62.5
4108.418	-62.5
4110.845	-60.5
4113.27	-59.5
4115.694	-46.5
4118.115	-44.5
4120.535	-94.5
4122.954	-95.5
4125.37	-96.5
4127.785	-98.5
4130.198	-99.5
4132.609	-97.5
4135.019	-102.5
4137.427	-100.5
4139.833	-102.5
4142.237	-100.5
