Data from B.sub_water_1000CFUB1_RamanShift_1.txt Node
Date: Wed Mar 08 15:57:46 IST 2017
User: aro
Spectrometer: QEPB0276
Trigger mode: 0
Integration Time (sec): 5.000000E0
Scans to average: 1
Electric dark correction enabled: true
Nonlinearity correction enabled: false
Boxcar width: 0
XAxis mode: Raman Shifts
Number of Pixels in Spectrum: 1044
>>>>>Begin Spectral Data<<<<<
160.701	-31.25
166.742	-2.25
172.777	76.75
178.805	348.75
184.826	954.75
190.841	2008.75
196.849	3142.75
202.85	3856.75
208.845	4016.75
214.833	3882.75
220.815	3710.75
226.789	3579.75
232.758	3458.75
238.719	3367.75
244.674	3213.75
250.623	3042.75
256.565	2892.75
262.5	2736.75
268.429	2617.75
274.351	2496.75
280.267	2389.75
286.176	2293.75
292.079	2189.75
297.975	2104.75
303.865	2050.75
309.748	1982.75
315.625	1951.75
321.495	1896.75
327.359	1863.75
333.217	1852.75
339.068	1823.75
344.912	1801.75
350.751	1794.75
356.583	1815.75
362.408	1790.75
368.227	1790.75
374.04	1793.75
379.847	1810.75
385.647	1820.75
391.44	1823.75
397.228	1837.75
403.009	1847.75
408.784	1836.75
414.553	1867.75
420.315	1869.75
426.071	1847.75
431.821	1859.75
437.565	1864.75
443.302	1859.75
449.033	1834.75
454.758	1825.75
460.477	1810.75
466.189	1813.75
471.896	1791.75
477.596	1778.75
483.29	1754.75
488.978	1764.75
494.66	1747.75
500.335	1717.75
506.005	1671.75
511.668	1631.75
517.325	1596.75
522.977	1576.75
528.622	1535.75
534.261	1527.75
539.894	1485.75
545.521	1479.75
551.141	1485.75
556.756	1460.75
562.365	1435.75
567.968	1446.75
573.565	1431.75
579.155	1397.75
584.74	1399.75
590.319	1380.75
595.892	1365.75
601.459	1354.75
607.02	1335.75
612.575	1325.75
618.124	1315.75
623.667	1290.75
629.204	1281.75
634.735	1275.75
640.261	1254.75
645.781	1245.75
651.294	1238.75
656.802	1232.75
662.304	1214.75
667.8	1208.75
673.29	1189.75
678.775	1201.75
684.254	1183.75
689.726	1175.75
695.193	1153.75
700.655	1163.75
706.11	1144.75
711.56	1149.75
717.004	1123.75
722.442	1105.75
727.874	1104.75
733.301	1099.75
738.722	1084.75
744.137	1070.75
749.547	1075.75
754.951	1078.75
760.349	1063.75
765.741	1077.75
771.128	1060.75
776.509	1052.75
781.885	1049.75
787.254	1047.75
792.618	1025.75
797.977	1019.75
803.33	1018.75
808.677	1019.75
814.019	997.75
819.355	978.75
824.686	955.75
830.011	960.75
835.33	948.75
840.644	930.75
845.952	920.75
851.255	912.75
856.552	904.75
861.844	887.75
867.13	877.75
872.41	865.75
877.686	865.75
882.955	848.75
888.219	832.75
893.478	808.75
898.731	787.75
903.979	778.75
909.221	769.75
914.458	746.75
919.69	747.75
924.916	750.75
930.136	737.75
935.351	733.75
940.561	721.75
945.766	722.75
950.965	701.75
956.158	697.75
961.347	705.75
966.529	667.75
971.707	663.75
976.879	656.75
982.046	639.75
987.208	646.75
992.364	642.75
997.515	636.75
1002.66	638.75
1007.801	642.75
1012.936	654.75
1018.066	656.75
1023.19	661.75
1028.309	653.75
1033.423	652.75
1038.532	648.75
1043.636	647.75
1048.734	631.75
1053.827	633.75
1058.915	616.75
1063.998	620.75
1069.075	717.75
1074.147	668.75
1079.214	621.75
1084.276	626.75
1089.333	633.75
1094.385	643.75
1099.431	629.75
1104.472	628.75
1109.509	622.75
1114.54	600.75
1119.565	608.75
1124.586	593.75
1129.602	586.75
1134.613	592.75
1139.618	575.75
1144.619	580.75
1149.614	581.75
1154.604	584.75
1159.589	583.75
1164.57	570.75
1169.545	579.75
1174.515	582.75
1179.48	577.75
1184.44	582.75
1189.395	579.75
1194.345	569.75
1199.29	576.75
1204.23	565.75
1209.165	569.75
1214.095	567.75
1219.021	576.75
1223.941	585.75
1228.856	581.75
1233.766	587.75
1238.672	577.75
1243.572	584.75
1248.467	587.75
1253.358	572.75
1258.244	563.75
1263.124	542.75
1268	548.75
1272.871	530.75
1277.737	530.75
1282.599	529.75
1287.455	528.75
1292.306	541.75
1297.153	522.75
1301.995	529.75
1306.832	534.75
1311.664	537.75
1316.491	545.75
1321.314	539.75
1326.132	517.75
1330.945	516.75
1335.753	505.75
1340.556	489.75
1345.354	494.75
1350.148	476.75
1354.937	478.75
1359.722	487.75
1364.501	484.75
1369.276	493.75
1374.046	493.75
1378.811	496.75
1383.572	491.75
1388.327	488.75
1393.079	478.75
1397.825	466.75
1402.567	467.75
1407.304	463.75
1412.036	464.75
1416.764	449.75
1421.487	452.75
1426.205	439.75
1430.919	439.75
1435.628	458.75
1440.333	454.75
1445.032	469.75
1449.727	467.75
1454.418	468.75
1459.104	469.75
1463.785	455.75
1468.462	455.75
1473.134	451.75
1477.802	442.75
1482.465	445.75
1487.123	457.75
1491.777	449.75
1496.426	450.75
1501.071	474.75
1505.711	480.75
1510.347	491.75
1514.978	501.75
1519.604	521.75
1524.226	512.75
1528.844	518.75
1533.457	524.75
1538.065	515.75
1542.669	529.75
1547.269	517.75
1551.864	527.75
1556.454	538.75
1561.041	545.75
1565.622	551.75
1570.199	557.75
1574.772	563.75
1579.34	590.75
1583.904	595.75
1588.464	622.75
1593.019	636.75
1597.569	652.75
1602.115	658.75
1606.657	690.75
1611.195	696.75
1615.728	708.75
1620.256	724.75
1624.78	746.75
1629.3	768.75
1633.816	779.75
1638.327	786.75
1642.834	807.75
1647.336	813.75
1651.834	801.75
1656.328	805.75
1660.817	800.75
1665.302	792.75
1669.783	760.75
1674.259	731.75
1678.732	699.75
1683.199	658.75
1687.663	618.75
1692.122	584.75
1696.577	567.75
1701.028	530.75
1705.474	530.75
1709.917	498.75
1714.355	480.75
1718.788	445.75
1723.218	424.75
1727.643	401.75
1732.064	380.75
1736.481	365.75
1740.893	351.75
1745.301	332.75
1749.705	319.75
1754.105	305.75
1758.501	284.75
1762.893	276.75
1767.28	266.75
1771.663	261.75
1776.042	248.75
1780.417	249.75
1784.787	249.75
1789.154	253.75
1793.516	250.75
1797.874	254.75
1802.228	255.75
1806.578	253.75
1810.924	243.75
1815.266	240.75
1819.603	235.75
1823.937	224.75
1828.266	222.75
1832.591	204.75
1836.913	205.75
1841.23	214.75
1845.543	200.75
1849.852	201.75
1854.156	204.75
1858.457	203.75
1862.754	191.75
1867.047	198.75
1871.335	207.75
1875.62	204.75
1879.9	204.75
1884.177	207.75
1888.449	206.75
1892.718	207.75
1896.982	206.75
1901.243	196.75
1905.499	199.75
1909.752	198.75
1914	198.75
1918.245	204.75
1922.485	208.75
1926.722	208.75
1930.954	209.75
1935.183	225.75
1939.408	230.75
1943.628	221.75
1947.845	223.75
1952.058	221.75
1956.267	222.75
1960.472	217.75
1964.673	220.75
1968.87	212.75
1973.063	214.75
1977.252	221.75
1981.438	211.75
1985.619	196.75
1989.797	205.75
1993.971	208.75
1998.14	213.75
2002.306	214.75
2006.469	216.75
2010.627	219.75
2014.781	217.75
2018.932	230.75
2023.078	210.75
2027.221	226.75
2031.36	219.75
2035.495	214.75
2039.627	223.75
2043.754	213.75
2047.878	216.75
2051.998	213.75
2056.114	217.75
2060.226	219.75
2064.334	228.75
2068.439	231.75
2072.54	233.75
2076.637	242.75
2080.73	232.75
2084.82	244.75
2088.906	235.75
2092.988	243.75
2097.066	243.75
2101.14	246.75
2105.211	240.75
2109.278	236.75
2113.342	234.75
2117.401	226.75
2121.457	233.75
2125.509	226.75
2129.558	232.75
2133.602	220.75
2137.643	231.75
2141.681	219.75
2145.714	224.75
2149.744	217.75
2153.77	215.75
2157.793	211.75
2161.812	212.75
2165.827	197.75
2169.838	195.75
2173.846	187.75
2177.851	186.75
2181.851	185.75
2185.848	180.75
2189.841	175.75
2193.831	167.75
2197.817	172.75
2201.799	166.75
2205.778	169.75
2209.753	167.75
2213.725	161.75
2217.693	171.75
2221.657	160.75
2225.618	164.75
2229.575	154.75
2233.529	150.75
2237.479	155.75
2241.425	152.75
2245.368	141.75
2249.307	141.75
2253.243	139.75
2257.175	138.75
2261.104	136.75
2265.029	128.75
2268.95	127.75
2272.868	129.75
2276.783	122.75
2280.694	113.75
2284.601	113.75
2288.505	105.75
2292.405	109.75
2296.302	105.75
2300.195	107.75
2304.085	104.75
2307.971	98.75
2311.854	90.75
2315.734	89.75
2319.609	88.75
2323.482	85.75
2327.351	81.75
2331.216	92.75
2335.078	84.75
2338.937	87.75
2342.792	76.75
2346.643	71.75
2350.492	67.75
2354.336	69.75
2358.178	70.75
2362.015	70.75
2365.85	67.75
2369.681	69.75
2373.508	62.75
2377.333	72.75
2381.153	65.75
2384.971	74.75
2388.785	66.75
2392.595	61.75
2396.402	55.75
2400.206	62.75
2404.007	57.75
2407.804	52.75
2411.597	53.75
2415.388	58.75
2419.174	54.75
2422.958	49.75
2426.738	52.75
2430.515	49.75
2434.289	50.75
2438.059	52.75
2441.825	45.75
2445.589	48.75
2449.349	49.75
2453.106	47.75
2456.859	45.75
2460.61	38.75
2464.356	41.75
2468.1	33.75
2471.84	30.75
2475.577	37.75
2479.311	34.75
2483.041	36.75
2486.768	39.75
2490.492	36.75
2494.213	35.75
2497.93	41.75
2501.644	36.75
2505.355	38.75
2509.062	37.75
2512.766	34.75
2516.467	36.75
2520.165	32.75
2523.859	32.75
2527.551	38.75
2531.239	32.75
2534.923	27.75
2538.605	32.75
2542.283	29.75
2545.958	30.75
2549.63	32.75
2553.299	31.75
2556.964	27.75
2560.626	33.75
2564.285	24.75
2567.941	29.75
2571.594	27.75
2575.243	26.75
2578.89	22.75
2582.533	21.75
2586.173	20.75
2589.809	24.75
2593.443	16.75
2597.073	19.75
2600.701	17.75
2604.325	18.75
2607.946	20.75
2611.564	20.75
2615.178	22.75
2618.79	24.75
2622.398	17.75
2626.004	22.75
2629.606	16.75
2633.205	19.75
2636.801	21.75
2640.394	12.75
2643.983	9.75
2647.57	11.75
2651.153	10.75
2654.734	14.75
2658.311	6.75
2661.885	9.75
2665.456	10.75
2669.025	11.75
2672.589	8.75
2676.151	10.75
2679.71	14.75
2683.266	15.75
2686.819	7.75
2690.368	8.75
2693.915	9.75
2697.458	3.75
2700.999	4.75
2704.536	2.75
2708.071	6.75
2711.602	6.75
2715.13	7.75
2718.656	10.75
2722.178	6.75
2725.697	6.75
2729.214	6.75
2732.727	5.75
2736.237	9.75
2739.744	14.75
2743.249	13.75
2746.75	18.75
2750.248	16.75
2753.743	18.75
2757.236	20.75
2760.725	13.75
2764.211	14.75
2767.695	22.75
2771.175	15.75
2774.652	15.75
2778.127	18.75
2781.598	17.75
2785.067	23.75
2788.532	25.75
2791.995	20.75
2795.455	32.75
2798.911	29.75
2802.365	28.75
2805.816	31.75
2809.264	27.75
2812.709	35.75
2816.151	33.75
2819.59	39.75
2823.026	36.75
2826.46	37.75
2829.89	44.75
2833.318	40.75
2836.742	45.75
2840.164	48.75
2843.583	44.75
2846.999	42.75
2850.412	52.75
2853.822	56.75
2857.229	62.75
2860.634	64.75
2864.035	69.75
2867.434	73.75
2870.83	72.75
2874.223	80.75
2877.613	86.75
2881	85.75
2884.385	78.75
2887.766	79.75
2891.145	86.75
2894.521	84.75
2897.894	83.75
2901.264	89.75
2904.631	95.75
2907.996	106.75
2911.358	101.75
2914.717	107.75
2918.073	113.75
2921.426	120.75
2924.777	121.75
2928.124	125.75
2931.469	125.75
2934.811	136.75
2938.15	146.75
2941.487	145.75
2944.821	146.75
2948.152	157.75
2951.48	164.75
2954.805	163.75
2958.128	169.75
2961.447	178.75
2964.765	183.75
2968.079	189.75
2971.39	202.75
2974.699	212.75
2978.005	214.75
2981.308	222.75
2984.609	235.75
2987.907	243.75
2991.202	248.75
2994.494	266.75
2997.784	281.75
3001.07	285.75
3004.355	299.75
3007.636	313.75
3010.915	317.75
3014.191	327.75
3017.464	337.75
3020.734	341.75
3024.002	348.75
3027.267	364.75
3030.53	364.75
3033.789	382.75
3037.046	390.75
3040.301	405.75
3043.552	423.75
3046.801	423.75
3050.048	446.75
3053.291	462.75
3056.532	473.75
3059.771	493.75
3063.006	507.75
3066.239	530.75
3069.469	550.75
3072.697	562.75
3075.922	592.75
3079.144	605.75
3082.364	618.75
3085.581	642.75
3088.795	656.75
3092.007	672.75
3095.216	700.75
3098.423	705.75
3101.627	728.75
3104.828	749.75
3108.026	760.75
3111.222	785.75
3114.416	813.75
3117.607	817.75
3120.795	843.75
3123.98	873.75
3127.163	889.75
3130.344	914.75
3133.521	948.75
3136.696	972.75
3139.869	992.75
3143.039	1000.75
3146.206	1022.75
3149.371	1036.75
3152.533	1052.75
3155.693	1050.75
3158.85	1069.75
3162.005	1061.75
3165.157	1072.75
3168.306	1080.75
3171.453	1097.75
3174.597	1108.75
3177.739	1087.75
3180.878	1106.75
3184.014	1103.75
3187.149	1106.75
3190.28	1121.75
3193.409	1142.75
3196.536	1130.75
3199.659	1124.75
3202.781	1142.75
3205.9	1123.75
3209.016	1129.75
3212.13	1146.75
3215.241	1128.75
3218.35	1113.75
3221.456	1099.75
3224.56	1098.75
3227.661	1091.75
3230.76	1089.75
3233.856	1065.75
3236.95	1073.75
3240.041	1060.75
3243.13	1071.75
3246.216	1050.75
3249.3	1041.75
3252.382	1046.75
3255.46	1025.75
3258.537	1033.75
3261.611	1015.75
3264.682	1015.75
3267.751	1024.75
3270.818	1016.75
3273.882	1004.75
3276.943	1002.75
3280.002	981.75
3283.059	991.75
3286.113	965.75
3289.165	966.75
3292.214	945.75
3295.261	938.75
3298.306	922.75
3301.348	897.75
3304.387	894.75
3307.425	889.75
3310.459	865.75
3313.492	862.75
3316.521	852.75
3319.549	838.75
3322.574	826.75
3325.597	820.75
3328.617	822.75
3331.635	815.75
3334.65	799.75
3337.663	801.75
3340.674	801.75
3343.682	799.75
3346.688	789.75
3349.691	794.75
3352.692	791.75
3355.691	778.75
3358.687	776.75
3361.681	770.75
3364.673	753.75
3367.662	747.75
3370.649	744.75
3373.633	727.75
3376.615	718.75
3379.595	707.75
3382.572	697.75
3385.547	683.75
3388.52	686.75
3391.49	686.75
3394.458	668.75
3397.424	677.75
3400.387	646.75
3403.348	649.75
3406.307	631.75
3409.263	631.75
3412.217	624.75
3415.168	624.75
3418.118	609.75
3421.065	603.75
3424.009	598.75
3426.951	591.75
3429.891	583.75
3432.829	570.75
3435.764	561.75
3438.697	552.75
3441.628	532.75
3444.557	516.75
3447.483	514.75
3450.407	499.75
3453.328	492.75
3456.247	466.75
3459.164	454.75
3462.079	432.75
3464.991	425.75
3467.902	409.75
3470.809	402.75
3473.715	381.75
3476.618	386.75
3479.519	363.75
3482.418	348.75
3485.315	341.75
3488.209	345.75
3491.101	329.75
3493.99	322.75
3496.878	312.75
3499.763	298.75
3502.646	281.75
3505.527	269.75
3508.405	262.75
3511.281	250.75
3514.155	258.75
3517.027	235.75
3519.897	222.75
3522.764	208.75
3525.629	204.75
3528.492	198.75
3531.352	182.75
3534.211	161.75
3537.067	163.75
3539.921	149.75
3542.773	143.75
3545.622	134.75
3548.469	122.75
3551.315	115.75
3554.157	110.75
3556.998	97.75
3559.837	93.75
3562.673	87.75
3565.507	83.75
3568.339	79.75
3571.169	73.75
3573.996	66.75
3576.822	73.75
3579.645	63.75
3582.466	51.75
3585.285	43.75
3588.101	36.75
3590.916	33.75
3593.728	29.75
3596.538	23.75
3599.346	20.75
3602.152	18.75
3604.956	12.75
3607.757	6.75
3610.556	0.75
3613.354	3.75
3616.149	-3.25
3618.942	-5.25
3621.732	-9.25
3624.521	-14.25
3627.307	-13.25
3630.092	-11.25
3632.874	-14.25
3635.654	-24.25
3638.432	-23.25
3641.208	-31.25
3643.982	-31.25
3646.753	-33.25
3649.523	-33.25
3652.29	-39.25
3655.055	-38.25
3657.818	-40.25
3660.579	-37.25
3663.338	-46.25
3666.095	-48.25
3668.849	-51.25
3671.602	-57.25
3674.352	-57.25
3677.101	-59.25
3679.847	-61.25
3682.591	-59.25
3685.333	-58.25
3688.073	-63.25
3690.811	-65.25
3693.547	-70.25
3696.281	-63.25
3699.013	-70.25
3701.742	-68.25
3704.47	-68.25
3707.195	-68.25
3709.919	-70.25
3712.64	-71.25
3715.359	-72.25
3718.076	-75.25
3720.792	-73.25
3723.505	-75.25
3726.216	-78.25
3728.925	-81.25
3731.632	-76.25
3734.336	-80.25
3737.039	-78.25
3739.74	-79.25
3742.439	-75.25
3745.136	-79.25
3747.83	-81.25
3750.523	-83.25
3753.213	-82.25
3755.902	-86.25
3758.589	-83.25
3761.273	-85.25
3763.956	-84.25
3766.636	-87.25
3769.315	-89.25
3771.991	-86.25
3774.665	-88.25
3777.338	-88.25
3780.008	-88.25
3782.677	-85.25
3785.343	-84.25
3788.007	-84.25
3790.67	-84.25
3793.33	-85.25
3795.989	-88.25
3798.645	-90.25
3801.299	-86.25
3803.952	-88.25
3806.602	-90.25
3809.251	-93.25
3811.897	-90.25
3814.542	-86.25
3817.184	-92.25
3819.825	-88.25
3822.463	-88.25
3825.1	-92.25
3827.735	-87.25
3830.367	-93.25
3832.998	-90.25
3835.627	-89.25
3838.253	-92.25
3840.878	-90.25
3843.501	-89.25
3846.122	-92.25
3848.741	-91.25
3851.358	-92.25
3853.973	-92.25
3856.586	-92.25
3859.197	-94.25
3861.806	-91.25
3864.414	-92.25
3867.019	-89.25
3869.622	-89.25
3872.224	-90.25
3874.823	-86.25
3877.421	-84.25
3880.016	-87.25
3882.61	-80.25
3885.202	-84.25
3887.792	-88.25
3890.38	-92.25
3892.966	-91.25
3895.55	-94.25
3898.132	-92.25
3900.713	-89.25
3903.291	-92.25
3905.868	-95.25
3908.442	-94.25
3911.015	-92.25
3913.586	-95.25
3916.155	-93.25
3918.722	-94.25
3921.287	-90.25
3923.85	-90.25
3926.411	-91.25
3928.971	-95.25
3931.528	-92.25
3934.084	-96.25
3936.638	-99.25
3939.19	-97.25
3941.74	-94.25
3944.288	-97.25
3946.834	-98.25
3949.378	-95.25
3951.921	-96.25
3954.462	-93.25
3957	-91.25
3959.537	-94.25
3962.072	-94.25
3964.606	-94.25
3967.137	-95.25
3969.667	-95.25
3972.194	-96.25
3974.72	-93.25
3977.244	-93.25
3979.766	-94.25
3982.286	-93.25
3984.805	-97.25
3987.321	-92.25
3989.836	-93.25
3992.349	-92.25
3994.86	-97.25
3997.369	-97.25
3999.877	-96.25
4002.382	-94.25
4004.886	-93.25
4007.388	-90.25
4009.888	-91.25
4012.386	-94.25
4014.883	-93.25
4017.377	-97.25
4019.87	-93.25
4022.361	-95.25
4024.85	-90.25
4027.338	-96.25
4029.823	-95.25
4032.307	-97.25
4034.789	-95.25
4037.269	-95.25
4039.747	-95.25
4042.224	-92.25
4044.699	-91.25
4047.172	-94.25
4049.643	-96.25
4052.112	-95.25
4054.58	-94.25
4057.046	-93.25
4059.51	-93.25
4061.972	-97.25
4064.432	-92.25
4066.891	-96.25
4069.348	-94.25
4071.803	-98.25
4074.256	-96.25
4076.708	-97.25
4079.158	-95.25
4081.606	-93.25
4084.052	-93.25
4086.497	-92.25
4088.939	-91.25
4091.38	-90.25
4093.819	-90.25
4096.257	-96.25
4098.693	-99.25
4101.127	-96.25
4103.559	-97.25
4105.989	-61.25
4108.418	-54.25
4110.845	-56.25
4113.27	-49.25
4115.694	-50.25
4118.115	-45.25
4120.535	-94.25
4122.954	-95.25
4125.37	-97.25
4127.785	-102.25
4130.198	-94.25
4132.609	-95.25
4135.019	-98.25
4137.427	-97.25
4139.833	-101.25
4142.237	-95.25
