Data from B.sub_water_10CFUB1_RamanShift_1.txt Node
Date: Wed Mar 08 15:49:32 IST 2017
User: aro
Spectrometer: QEPB0276
Trigger mode: 0
Integration Time (sec): 5.000000E0
Scans to average: 1
Electric dark correction enabled: true
Nonlinearity correction enabled: false
Boxcar width: 0
XAxis mode: Raman Shifts
Number of Pixels in Spectrum: 1044
>>>>>Begin Spectral Data<<<<<
160.701	-30.88
166.742	0.12
172.777	81.12
178.805	313.12
184.826	895.12
190.841	1883.12
196.849	2935.12
202.85	3614.12
208.845	3744.12
214.833	3615.12
220.815	3453.12
226.789	3398.12
232.758	3291.12
238.719	3192.12
244.674	3082.12
250.623	2947.12
256.565	2789.12
262.5	2675.12
268.429	2557.12
274.351	2449.12
280.267	2336.12
286.176	2259.12
292.079	2197.12
297.975	2124.12
303.865	2069.12
309.748	2026.12
315.625	1995.12
321.495	1936.12
327.359	1915.12
333.217	1890.12
339.068	1867.12
344.912	1864.12
350.751	1871.12
356.583	1855.12
362.408	1842.12
368.227	1874.12
374.04	1860.12
379.847	1881.12
385.647	1882.12
391.44	1883.12
397.228	1895.12
403.009	1903.12
408.784	1908.12
414.553	1944.12
420.315	1913.12
426.071	1938.12
431.821	1918.12
437.565	1906.12
443.302	1923.12
449.033	1912.12
454.758	1901.12
460.477	1890.12
466.189	1887.12
471.896	1877.12
477.596	1864.12
483.29	1858.12
488.978	1845.12
494.66	1831.12
500.335	1797.12
506.005	1786.12
511.668	1716.12
517.325	1713.12
522.977	1687.12
528.622	1653.12
534.261	1612.12
539.894	1607.12
545.521	1601.12
551.141	1584.12
556.756	1576.12
562.365	1555.12
567.968	1556.12
573.565	1556.12
579.155	1539.12
584.74	1520.12
590.319	1520.12
595.892	1499.12
601.459	1479.12
607.02	1483.12
612.575	1462.12
618.124	1464.12
623.667	1432.12
629.204	1423.12
634.735	1405.12
640.261	1401.12
645.781	1394.12
651.294	1401.12
656.802	1366.12
662.304	1362.12
667.8	1365.12
673.29	1357.12
678.775	1345.12
684.254	1345.12
689.726	1327.12
695.193	1325.12
700.655	1321.12
706.11	1307.12
711.56	1292.12
717.004	1298.12
722.442	1289.12
727.874	1265.12
733.301	1263.12
738.722	1265.12
744.137	1246.12
749.547	1238.12
754.951	1243.12
760.349	1246.12
765.741	1226.12
771.128	1234.12
776.509	1239.12
781.885	1239.12
787.254	1227.12
792.618	1217.12
797.977	1218.12
803.33	1197.12
808.677	1189.12
814.019	1180.12
819.355	1181.12
824.686	1148.12
830.011	1136.12
835.33	1137.12
840.644	1128.12
845.952	1126.12
851.255	1111.12
856.552	1114.12
861.844	1117.12
867.13	1084.12
872.41	1099.12
877.686	1073.12
882.955	1058.12
888.219	1051.12
893.478	1024.12
898.731	1016.12
903.979	1002.12
909.221	989.12
914.458	997.12
919.69	967.12
924.916	971.12
930.136	971.12
935.351	963.12
940.561	980.12
945.766	968.12
950.965	965.12
956.158	948.12
961.347	926.12
966.529	904.12
971.707	899.12
976.879	893.12
982.046	892.12
987.208	875.12
992.364	885.12
997.515	878.12
1002.66	889.12
1007.801	896.12
1012.936	889.12
1018.066	911.12
1023.19	919.12
1028.309	921.12
1033.423	913.12
1038.532	908.12
1043.636	895.12
1048.734	892.12
1053.827	869.12
1058.915	868.12
1063.998	856.12
1069.075	864.12
1074.147	856.12
1079.214	868.12
1084.276	865.12
1089.333	881.12
1094.385	884.12
1099.431	880.12
1104.472	886.12
1109.509	894.12
1114.54	861.12
1119.565	856.12
1124.586	851.12
1129.602	838.12
1134.613	834.12
1139.618	836.12
1144.619	849.12
1149.614	834.12
1154.604	823.12
1159.589	837.12
1164.57	843.12
1169.545	837.12
1174.515	839.12
1179.48	848.12
1184.44	837.12
1189.395	823.12
1194.345	834.12
1199.29	826.12
1204.23	827.12
1209.165	830.12
1214.095	833.12
1219.021	827.12
1223.941	850.12
1228.856	852.12
1233.766	840.12
1238.672	852.12
1243.572	846.12
1248.467	847.12
1253.358	829.12
1258.244	829.12
1263.124	813.12
1268	796.12
1272.871	789.12
1277.737	781.12
1282.599	770.12
1287.455	772.12
1292.306	786.12
1297.153	775.12
1301.995	808.12
1306.832	797.12
1311.664	797.12
1316.491	814.12
1321.314	785.12
1326.132	786.12
1330.945	776.12
1335.753	757.12
1340.556	745.12
1345.354	727.12
1350.148	718.12
1354.937	713.12
1359.722	724.12
1364.501	725.12
1369.276	733.12
1374.046	754.12
1378.811	757.12
1383.572	754.12
1388.327	744.12
1393.079	738.12
1397.825	715.12
1402.567	713.12
1407.304	706.12
1412.036	699.12
1416.764	688.12
1421.487	692.12
1426.205	695.12
1430.919	688.12
1435.628	701.12
1440.333	717.12
1445.032	714.12
1449.727	722.12
1454.418	725.12
1459.104	709.12
1463.785	715.12
1468.462	702.12
1473.134	702.12
1477.802	682.12
1482.465	690.12
1487.123	695.12
1491.777	682.12
1496.426	697.12
1501.071	716.12
1505.711	728.12
1510.347	737.12
1514.978	747.12
1519.604	754.12
1524.226	773.12
1528.844	768.12
1533.457	758.12
1538.065	770.12
1542.669	760.12
1547.269	761.12
1551.864	765.12
1556.454	760.12
1561.041	783.12
1565.622	791.12
1570.199	783.12
1574.772	798.12
1579.34	817.12
1583.904	821.12
1588.464	847.12
1593.019	853.12
1597.569	864.12
1602.115	879.12
1606.657	889.12
1611.195	890.12
1615.728	900.12
1620.256	918.12
1624.78	924.12
1629.3	944.12
1633.816	961.12
1638.327	963.12
1642.834	983.12
1647.336	998.12
1651.834	1000.12
1656.328	999.12
1660.817	981.12
1665.302	977.12
1669.783	957.12
1674.259	913.12
1678.732	884.12
1683.199	853.12
1687.663	807.12
1692.122	769.12
1696.577	750.12
1701.028	738.12
1705.474	722.12
1709.917	719.12
1714.355	687.12
1718.788	672.12
1723.218	642.12
1727.643	637.12
1732.064	607.12
1736.481	584.12
1740.893	562.12
1745.301	555.12
1749.705	532.12
1754.105	511.12
1758.501	498.12
1762.893	494.12
1767.28	476.12
1771.663	474.12
1776.042	475.12
1780.417	457.12
1784.787	468.12
1789.154	469.12
1793.516	476.12
1797.874	480.12
1802.228	481.12
1806.578	476.12
1810.924	470.12
1815.266	469.12
1819.603	462.12
1823.937	444.12
1828.266	436.12
1832.591	429.12
1836.913	432.12
1841.23	422.12
1845.543	426.12
1849.852	425.12
1854.156	418.12
1858.457	425.12
1862.754	412.12
1867.047	424.12
1871.335	426.12
1875.62	423.12
1879.9	426.12
1884.177	415.12
1888.449	420.12
1892.718	417.12
1896.982	405.12
1901.243	419.12
1905.499	417.12
1909.752	409.12
1914	423.12
1918.245	415.12
1922.485	413.12
1926.722	421.12
1930.954	428.12
1935.183	427.12
1939.408	437.12
1943.628	430.12
1947.845	434.12
1952.058	431.12
1956.267	437.12
1960.472	427.12
1964.673	412.12
1968.87	416.12
1973.063	418.12
1977.252	424.12
1981.438	412.12
1985.619	405.12
1989.797	408.12
1993.971	405.12
1998.14	415.12
2002.306	419.12
2006.469	407.12
2010.627	416.12
2014.781	413.12
2018.932	419.12
2023.078	415.12
2027.221	407.12
2031.36	414.12
2035.495	397.12
2039.627	400.12
2043.754	397.12
2047.878	390.12
2051.998	403.12
2056.114	397.12
2060.226	416.12
2064.334	403.12
2068.439	413.12
2072.54	408.12
2076.637	416.12
2080.73	415.12
2084.82	416.12
2088.906	412.12
2092.988	421.12
2097.066	423.12
2101.14	409.12
2105.211	417.12
2109.278	406.12
2113.342	409.12
2117.401	405.12
2121.457	415.12
2125.509	398.12
2129.558	399.12
2133.602	401.12
2137.643	405.12
2141.681	397.12
2145.714	393.12
2149.744	389.12
2153.77	381.12
2157.793	381.12
2161.812	381.12
2165.827	360.12
2169.838	367.12
2173.846	367.12
2177.851	352.12
2181.851	352.12
2185.848	338.12
2189.841	345.12
2193.831	328.12
2197.817	335.12
2201.799	332.12
2205.778	325.12
2209.753	317.12
2213.725	320.12
2217.693	324.12
2221.657	333.12
2225.618	324.12
2229.575	316.12
2233.529	315.12
2237.479	314.12
2241.425	309.12
2245.368	300.12
2249.307	310.12
2253.243	302.12
2257.175	301.12
2261.104	289.12
2265.029	284.12
2268.95	276.12
2272.868	265.12
2276.783	263.12
2280.694	263.12
2284.601	261.12
2288.505	260.12
2292.405	260.12
2296.302	260.12
2300.195	257.12
2304.085	246.12
2307.971	244.12
2311.854	234.12
2315.734	227.12
2319.609	225.12
2323.482	213.12
2327.351	221.12
2331.216	213.12
2335.078	217.12
2338.937	212.12
2342.792	209.12
2346.643	205.12
2350.492	206.12
2354.336	210.12
2358.178	205.12
2362.015	202.12
2365.85	202.12
2369.681	207.12
2373.508	200.12
2377.333	207.12
2381.153	202.12
2384.971	198.12
2388.785	198.12
2392.595	188.12
2396.402	197.12
2400.206	193.12
2404.007	186.12
2407.804	185.12
2411.597	191.12
2415.388	192.12
2419.174	192.12
2422.958	190.12
2426.738	183.12
2430.515	181.12
2434.289	180.12
2438.059	177.12
2441.825	177.12
2445.589	176.12
2449.349	176.12
2453.106	169.12
2456.859	175.12
2460.61	169.12
2464.356	166.12
2468.1	159.12
2471.84	166.12
2475.577	165.12
2479.311	159.12
2483.041	157.12
2486.768	166.12
2490.492	158.12
2494.213	166.12
2497.93	159.12
2501.644	155.12
2505.355	156.12
2509.062	157.12
2512.766	158.12
2516.467	157.12
2520.165	155.12
2523.859	152.12
2527.551	160.12
2531.239	155.12
2534.923	147.12
2538.605	148.12
2542.283	146.12
2545.958	148.12
2549.63	149.12
2553.299	142.12
2556.964	148.12
2560.626	146.12
2564.285	145.12
2567.941	144.12
2571.594	142.12
2575.243	142.12
2578.89	138.12
2582.533	134.12
2586.173	134.12
2589.809	130.12
2593.443	141.12
2597.073	135.12
2600.701	127.12
2604.325	130.12
2607.946	122.12
2611.564	124.12
2615.178	127.12
2618.79	123.12
2622.398	123.12
2626.004	119.12
2629.606	124.12
2633.205	127.12
2636.801	120.12
2640.394	125.12
2643.983	121.12
2647.57	117.12
2651.153	121.12
2654.734	117.12
2658.311	109.12
2661.885	110.12
2665.456	114.12
2669.025	104.12
2672.589	108.12
2676.151	107.12
2679.71	107.12
2683.266	110.12
2686.819	101.12
2690.368	96.12
2693.915	99.12
2697.458	92.12
2700.999	91.12
2704.536	95.12
2708.071	92.12
2711.602	90.12
2715.13	95.12
2718.656	93.12
2722.178	94.12
2725.697	88.12
2729.214	94.12
2732.727	93.12
2736.237	94.12
2739.744	95.12
2743.249	95.12
2746.75	96.12
2750.248	100.12
2753.743	95.12
2757.236	99.12
2760.725	96.12
2764.211	101.12
2767.695	103.12
2771.175	108.12
2774.652	97.12
2778.127	103.12
2781.598	105.12
2785.067	102.12
2788.532	98.12
2791.995	101.12
2795.455	110.12
2798.911	104.12
2802.365	102.12
2805.816	94.12
2809.264	95.12
2812.709	105.12
2816.151	102.12
2819.59	105.12
2823.026	106.12
2826.46	110.12
2829.89	112.12
2833.318	108.12
2836.742	113.12
2840.164	108.12
2843.583	115.12
2846.999	114.12
2850.412	113.12
2853.822	119.12
2857.229	119.12
2860.634	121.12
2864.035	126.12
2867.434	130.12
2870.83	132.12
2874.223	130.12
2877.613	134.12
2881	138.12
2884.385	140.12
2887.766	139.12
2891.145	141.12
2894.521	140.12
2897.894	146.12
2901.264	141.12
2904.631	141.12
2907.996	146.12
2911.358	150.12
2914.717	144.12
2918.073	152.12
2921.426	156.12
2924.777	166.12
2928.124	164.12
2931.469	174.12
2934.811	177.12
2938.15	177.12
2941.487	182.12
2944.821	196.12
2948.152	190.12
2951.48	198.12
2954.805	195.12
2958.128	198.12
2961.447	202.12
2964.765	207.12
2968.079	211.12
2971.39	224.12
2974.699	236.12
2978.005	235.12
2981.308	245.12
2984.609	254.12
2987.907	259.12
2991.202	271.12
2994.494	281.12
2997.784	295.12
3001.07	301.12
3004.355	316.12
3007.636	319.12
3010.915	327.12
3014.191	329.12
3017.464	339.12
3020.734	344.12
3024.002	350.12
3027.267	363.12
3030.53	361.12
3033.789	374.12
3037.046	378.12
3040.301	390.12
3043.552	406.12
3046.801	416.12
3050.048	429.12
3053.291	438.12
3056.532	455.12
3059.771	477.12
3063.006	475.12
3066.239	493.12
3069.469	500.12
3072.697	532.12
3075.922	555.12
3079.144	559.12
3082.364	579.12
3085.581	590.12
3088.795	601.12
3092.007	627.12
3095.216	638.12
3098.423	654.12
3101.627	662.12
3104.828	696.12
3108.026	711.12
3111.222	730.12
3114.416	738.12
3117.607	748.12
3120.795	766.12
3123.98	788.12
3127.163	815.12
3130.344	829.12
3133.521	844.12
3136.696	883.12
3139.869	891.12
3143.039	902.12
3146.206	911.12
3149.371	934.12
3152.533	936.12
3155.693	947.12
3158.85	955.12
3162.005	958.12
3165.157	954.12
3168.306	971.12
3171.453	976.12
3174.597	977.12
3177.739	983.12
3180.878	986.12
3184.014	995.12
3187.149	985.12
3190.28	998.12
3193.409	1003.12
3196.536	1003.12
3199.659	1010.12
3202.781	1004.12
3205.9	1010.12
3209.016	1019.12
3212.13	1005.12
3215.241	1005.12
3218.35	1007.12
3221.456	978.12
3224.56	987.12
3227.661	980.12
3230.76	961.12
3233.856	970.12
3236.95	951.12
3240.041	935.12
3243.13	938.12
3246.216	940.12
3249.3	933.12
3252.382	932.12
3255.46	916.12
3258.537	915.12
3261.611	902.12
3264.682	910.12
3267.751	891.12
3270.818	901.12
3273.882	891.12
3276.943	884.12
3280.002	891.12
3283.059	868.12
3286.113	867.12
3289.165	849.12
3292.214	848.12
3295.261	818.12
3298.306	809.12
3301.348	808.12
3304.387	786.12
3307.425	789.12
3310.459	776.12
3313.492	758.12
3316.521	743.12
3319.549	743.12
3322.574	737.12
3325.597	730.12
3328.617	711.12
3331.635	722.12
3334.65	714.12
3337.663	713.12
3340.674	705.12
3343.682	706.12
3346.688	695.12
3349.691	707.12
3352.692	696.12
3355.691	679.12
3358.687	683.12
3361.681	679.12
3364.673	670.12
3367.662	661.12
3370.649	654.12
3373.633	657.12
3376.615	627.12
3379.595	632.12
3382.572	623.12
3385.547	609.12
3388.52	600.12
3391.49	612.12
3394.458	592.12
3397.424	587.12
3400.387	570.12
3403.348	579.12
3406.307	566.12
3409.263	558.12
3412.217	543.12
3415.168	540.12
3418.118	536.12
3421.065	522.12
3424.009	532.12
3426.951	516.12
3429.891	519.12
3432.829	500.12
3435.764	497.12
3438.697	482.12
3441.628	459.12
3444.557	455.12
3447.483	442.12
3450.407	435.12
3453.328	417.12
3456.247	407.12
3459.164	397.12
3462.079	390.12
3464.991	374.12
3467.902	370.12
3470.809	345.12
3473.715	338.12
3476.618	333.12
3479.519	320.12
3482.418	314.12
3485.315	299.12
3488.209	291.12
3491.101	286.12
3493.99	273.12
3496.878	266.12
3499.763	263.12
3502.646	237.12
3505.527	242.12
3508.405	228.12
3511.281	220.12
3514.155	217.12
3517.027	204.12
3519.897	194.12
3522.764	183.12
3525.629	174.12
3528.492	166.12
3531.352	152.12
3534.211	149.12
3537.067	132.12
3539.921	126.12
3542.773	121.12
3545.622	112.12
3548.469	100.12
3551.315	101.12
3554.157	92.12
3556.998	84.12
3559.837	78.12
3562.673	74.12
3565.507	75.12
3568.339	69.12
3571.169	62.12
3573.996	59.12
3576.822	55.12
3579.645	51.12
3582.466	42.12
3585.285	30.12
3588.101	27.12
3590.916	24.12
3593.728	24.12
3596.538	21.12
3599.346	17.12
3602.152	12.12
3604.956	10.12
3607.757	4.12
3610.556	4.12
3613.354	-2.88
3616.149	-5.88
3618.942	-8.88
3621.732	-10.88
3624.521	-18.88
3627.307	-19.88
3630.092	-16.88
3632.874	-18.88
3635.654	-27.88
3638.432	-24.88
3641.208	-29.88
3643.982	-26.88
3646.753	-35.88
3649.523	-30.88
3652.29	-33.88
3655.055	-38.88
3657.818	-32.88
3660.579	-40.88
3663.338	-44.88
3666.095	-53.88
3668.849	-48.88
3671.602	-54.88
3674.352	-54.88
3677.101	-54.88
3679.847	-58.88
3682.591	-53.88
3685.333	-58.88
3688.073	-62.88
3690.811	-61.88
3693.547	-61.88
3696.281	-63.88
3699.013	-63.88
3701.742	-65.88
3704.47	-63.88
3707.195	-64.88
3709.919	-66.88
3712.64	-68.88
3715.359	-71.88
3718.076	-69.88
3720.792	-72.88
3723.505	-73.88
3726.216	-75.88
3728.925	-71.88
3731.632	-72.88
3734.336	-76.88
3737.039	-71.88
3739.74	-73.88
3742.439	-72.88
3745.136	-76.88
3747.83	-77.88
3750.523	-78.88
3753.213	-79.88
3755.902	-79.88
3758.589	-79.88
3761.273	-76.88
3763.956	-80.88
3766.636	-78.88
3769.315	-84.88
3771.991	-73.88
3774.665	-81.88
3777.338	-81.88
3780.008	-84.88
3782.677	-82.88
3785.343	-83.88
3788.007	-83.88
3790.67	-82.88
3793.33	-81.88
3795.989	-85.88
3798.645	-88.88
3801.299	-80.88
3803.952	-84.88
3806.602	-86.88
3809.251	-84.88
3811.897	-87.88
3814.542	-81.88
3817.184	-82.88
3819.825	-81.88
3822.463	-85.88
3825.1	-83.88
3827.735	-86.88
3830.367	-87.88
3832.998	-90.88
3835.627	-85.88
3838.253	-87.88
3840.878	-87.88
3843.501	-87.88
3846.122	-84.88
3848.741	-83.88
3851.358	-84.88
3853.973	-85.88
3856.586	-85.88
3859.197	-89.88
3861.806	-86.88
3864.414	-85.88
3867.019	-85.88
3869.622	-84.88
3872.224	-86.88
3874.823	-84.88
3877.421	-82.88
3880.016	-85.88
3882.61	-79.88
3885.202	-82.88
3887.792	-82.88
3890.38	-85.88
3892.966	-81.88
3895.55	-88.88
3898.132	-86.88
3900.713	-85.88
3903.291	-83.88
3905.868	-90.88
3908.442	-89.88
3911.015	-87.88
3913.586	-90.88
3916.155	-89.88
3918.722	-91.88
3921.287	-89.88
3923.85	-89.88
3926.411	-89.88
3928.971	-91.88
3931.528	-87.88
3934.084	-89.88
3936.638	-94.88
3939.19	-88.88
3941.74	-86.88
3944.288	-90.88
3946.834	-90.88
3949.378	-86.88
3951.921	-90.88
3954.462	-87.88
3957	-91.88
3959.537	-90.88
3962.072	-90.88
3964.606	-94.88
3967.137	-93.88
3969.667	-88.88
3972.194	-92.88
3974.72	-88.88
3977.244	-90.88
3979.766	-88.88
3982.286	-86.88
3984.805	-92.88
3987.321	-87.88
3989.836	-86.88
3992.349	-88.88
3994.86	-90.88
3997.369	-92.88
3999.877	-92.88
4002.382	-90.88
4004.886	-85.88
4007.388	-87.88
4009.888	-87.88
4012.386	-90.88
4014.883	-88.88
4017.377	-90.88
4019.87	-88.88
4022.361	-86.88
4024.85	-87.88
4027.338	-89.88
4029.823	-86.88
4032.307	-89.88
4034.789	-86.88
4037.269	-91.88
4039.747	-90.88
4042.224	-93.88
4044.699	-92.88
4047.172	-94.88
4049.643	-93.88
4052.112	-91.88
4054.58	-89.88
4057.046	-86.88
4059.51	-90.88
4061.972	-90.88
4064.432	-85.88
4066.891	-84.88
4069.348	-87.88
4071.803	-90.88
4074.256	-91.88
4076.708	-93.88
4079.158	-90.88
4081.606	-88.88
4084.052	-90.88
4086.497	-87.88
4088.939	-86.88
4091.38	-88.88
4093.819	-87.88
4096.257	-92.88
4098.693	-94.88
4101.127	-97.88
4103.559	-93.88
4105.989	-64.88
4108.418	-53.88
4110.845	-52.88
4113.27	-47.88
4115.694	-47.88
4118.115	-36.88
4120.535	-90.88
4122.954	-92.88
4125.37	-89.88
4127.785	-92.88
4130.198	-89.88
4132.609	-87.88
4135.019	-89.88
4137.427	-91.88
4139.833	-90.88
4142.237	-90.88
