Data from B.sub_water_10CFUB2_RamanShift_1.txt Node
Date: Wed Mar 08 15:52:07 IST 2017
User: aro
Spectrometer: QEPB0276
Trigger mode: 0
Integration Time (sec): 5.000000E0
Scans to average: 1
Electric dark correction enabled: true
Nonlinearity correction enabled: false
Boxcar width: 0
XAxis mode: Raman Shifts
Number of Pixels in Spectrum: 1044
>>>>>Begin Spectral Data<<<<<
160.701	-28.5
166.742	-4.5
172.777	76.5
178.805	333.5
184.826	925.5
190.841	1925.5
196.849	3012.5
202.85	3728.5
208.845	3871.5
214.833	3733.5
220.815	3557.5
226.789	3461.5
232.758	3378.5
238.719	3258.5
244.674	3124.5
250.623	2994.5
256.565	2852.5
262.5	2704.5
268.429	2596.5
274.351	2477.5
280.267	2368.5
286.176	2282.5
292.079	2194.5
297.975	2112.5
303.865	2068.5
309.748	2020.5
315.625	1974.5
321.495	1901.5
327.359	1889.5
333.217	1869.5
339.068	1848.5
344.912	1855.5
350.751	1830.5
356.583	1824.5
362.408	1834.5
368.227	1829.5
374.04	1842.5
379.847	1854.5
385.647	1867.5
391.44	1865.5
397.228	1879.5
403.009	1891.5
408.784	1883.5
414.553	1896.5
420.315	1917.5
426.071	1888.5
431.821	1887.5
437.565	1911.5
443.302	1890.5
449.033	1864.5
454.758	1869.5
460.477	1852.5
466.189	1865.5
471.896	1842.5
477.596	1853.5
483.29	1824.5
488.978	1810.5
494.66	1787.5
500.335	1780.5
506.005	1737.5
511.668	1692.5
517.325	1669.5
522.977	1629.5
528.622	1587.5
534.261	1570.5
539.894	1556.5
545.521	1564.5
551.141	1531.5
556.756	1528.5
562.365	1523.5
567.968	1490.5
573.565	1487.5
579.155	1467.5
584.74	1469.5
590.319	1460.5
595.892	1446.5
601.459	1440.5
607.02	1409.5
612.575	1405.5
618.124	1385.5
623.667	1372.5
629.204	1365.5
634.735	1341.5
640.261	1336.5
645.781	1332.5
651.294	1312.5
656.802	1322.5
662.304	1295.5
667.8	1290.5
673.29	1299.5
678.775	1288.5
684.254	1271.5
689.726	1281.5
695.193	1259.5
700.655	1253.5
706.11	1239.5
711.56	1216.5
717.004	1222.5
722.442	1209.5
727.874	1197.5
733.301	1190.5
738.722	1175.5
744.137	1186.5
749.547	1164.5
754.951	1180.5
760.349	1168.5
765.741	1160.5
771.128	1156.5
776.509	1165.5
781.885	1157.5
787.254	1154.5
792.618	1154.5
797.977	1133.5
803.33	1124.5
808.677	1114.5
814.019	1101.5
819.355	1093.5
824.686	1067.5
830.011	1069.5
835.33	1053.5
840.644	1046.5
845.952	1034.5
851.255	1037.5
856.552	1020.5
861.844	1013.5
867.13	1026.5
872.41	995.5
877.686	974.5
882.955	975.5
888.219	965.5
893.478	930.5
898.731	911.5
903.979	895.5
909.221	888.5
914.458	884.5
919.69	879.5
924.916	883.5
930.136	868.5
935.351	869.5
940.561	870.5
945.766	862.5
950.965	846.5
956.158	845.5
961.347	833.5
966.529	805.5
971.707	803.5
976.879	801.5
982.046	787.5
987.208	767.5
992.364	779.5
997.515	779.5
1002.66	778.5
1007.801	786.5
1012.936	797.5
1018.066	801.5
1023.19	800.5
1028.309	800.5
1033.423	809.5
1038.532	807.5
1043.636	788.5
1048.734	782.5
1053.827	774.5
1058.915	758.5
1063.998	759.5
1069.075	758.5
1074.147	755.5
1079.214	754.5
1084.276	760.5
1089.333	781.5
1094.385	792.5
1099.431	779.5
1104.472	776.5
1109.509	763.5
1114.54	763.5
1119.565	756.5
1124.586	757.5
1129.602	729.5
1134.613	726.5
1139.618	731.5
1144.619	725.5
1149.614	739.5
1154.604	727.5
1159.589	730.5
1164.57	728.5
1169.545	731.5
1174.515	739.5
1179.48	729.5
1184.44	721.5
1189.395	734.5
1194.345	733.5
1199.29	721.5
1204.23	723.5
1209.165	726.5
1214.095	733.5
1219.021	739.5
1223.941	729.5
1228.856	740.5
1233.766	736.5
1238.672	746.5
1243.572	744.5
1248.467	721.5
1253.358	733.5
1258.244	709.5
1263.124	710.5
1268	697.5
1272.871	686.5
1277.737	680.5
1282.599	685.5
1287.455	680.5
1292.306	674.5
1297.153	701.5
1301.995	696.5
1306.832	699.5
1311.664	708.5
1316.491	705.5
1321.314	700.5
1326.132	675.5
1330.945	667.5
1335.753	654.5
1340.556	641.5
1345.354	620.5
1350.148	615.5
1354.937	610.5
1359.722	618.5
1364.501	625.5
1369.276	640.5
1374.046	647.5
1378.811	659.5
1383.572	652.5
1388.327	641.5
1393.079	646.5
1397.825	622.5
1402.567	615.5
1407.304	605.5
1412.036	613.5
1416.764	590.5
1421.487	588.5
1426.205	589.5
1430.919	597.5
1435.628	598.5
1440.333	601.5
1445.032	599.5
1449.727	620.5
1454.418	615.5
1459.104	620.5
1463.785	618.5
1468.462	606.5
1473.134	579.5
1477.802	583.5
1482.465	598.5
1487.123	601.5
1491.777	592.5
1496.426	595.5
1501.071	606.5
1505.711	629.5
1510.347	645.5
1514.978	648.5
1519.604	649.5
1524.226	659.5
1528.844	648.5
1533.457	672.5
1538.065	668.5
1542.669	663.5
1547.269	666.5
1551.864	673.5
1556.454	676.5
1561.041	704.5
1565.622	690.5
1570.199	701.5
1574.772	711.5
1579.34	723.5
1583.904	735.5
1588.464	752.5
1593.019	762.5
1597.569	773.5
1602.115	788.5
1606.657	795.5
1611.195	807.5
1615.728	828.5
1620.256	844.5
1624.78	848.5
1629.3	868.5
1633.816	884.5
1638.327	900.5
1642.834	905.5
1647.336	925.5
1651.834	925.5
1656.328	911.5
1660.817	911.5
1665.302	894.5
1669.783	864.5
1674.259	833.5
1678.732	804.5
1683.199	760.5
1687.663	746.5
1692.122	694.5
1696.577	679.5
1701.028	660.5
1705.474	646.5
1709.917	630.5
1714.355	613.5
1718.788	587.5
1723.218	563.5
1727.643	537.5
1732.064	514.5
1736.481	509.5
1740.893	472.5
1745.301	464.5
1749.705	452.5
1754.105	439.5
1758.501	426.5
1762.893	405.5
1767.28	389.5
1771.663	389.5
1776.042	388.5
1780.417	383.5
1784.787	383.5
1789.154	390.5
1793.516	387.5
1797.874	398.5
1802.228	384.5
1806.578	384.5
1810.924	381.5
1815.266	382.5
1819.603	373.5
1823.937	359.5
1828.266	353.5
1832.591	339.5
1836.913	348.5
1841.23	336.5
1845.543	338.5
1849.852	335.5
1854.156	343.5
1858.457	332.5
1862.754	341.5
1867.047	336.5
1871.335	328.5
1875.62	333.5
1879.9	347.5
1884.177	342.5
1888.449	338.5
1892.718	337.5
1896.982	331.5
1901.243	338.5
1905.499	332.5
1909.752	331.5
1914	337.5
1918.245	331.5
1922.485	337.5
1926.722	342.5
1930.954	351.5
1935.183	351.5
1939.408	347.5
1943.628	350.5
1947.845	353.5
1952.058	353.5
1956.267	352.5
1960.472	356.5
1964.673	344.5
1968.87	344.5
1973.063	341.5
1977.252	345.5
1981.438	337.5
1985.619	335.5
1989.797	333.5
1993.971	326.5
1998.14	330.5
2002.306	332.5
2006.469	339.5
2010.627	347.5
2014.781	338.5
2018.932	335.5
2023.078	342.5
2027.221	341.5
2031.36	334.5
2035.495	329.5
2039.627	327.5
2043.754	334.5
2047.878	327.5
2051.998	330.5
2056.114	327.5
2060.226	330.5
2064.334	342.5
2068.439	343.5
2072.54	342.5
2076.637	342.5
2080.73	335.5
2084.82	347.5
2088.906	349.5
2092.988	344.5
2097.066	356.5
2101.14	356.5
2105.211	346.5
2109.278	349.5
2113.342	330.5
2117.401	344.5
2121.457	335.5
2125.509	334.5
2129.558	336.5
2133.602	333.5
2137.643	333.5
2141.681	329.5
2145.714	321.5
2149.744	322.5
2153.77	323.5
2157.793	321.5
2161.812	309.5
2165.827	309.5
2169.838	300.5
2173.846	294.5
2177.851	285.5
2181.851	283.5
2185.848	282.5
2189.841	284.5
2193.831	272.5
2197.817	268.5
2201.799	264.5
2205.778	266.5
2209.753	265.5
2213.725	263.5
2217.693	257.5
2221.657	260.5
2225.618	259.5
2229.575	255.5
2233.529	257.5
2237.479	247.5
2241.425	248.5
2245.368	241.5
2249.307	237.5
2253.243	230.5
2257.175	227.5
2261.104	229.5
2265.029	222.5
2268.95	222.5
2272.868	217.5
2276.783	210.5
2280.694	207.5
2284.601	202.5
2288.505	202.5
2292.405	201.5
2296.302	202.5
2300.195	197.5
2304.085	188.5
2307.971	187.5
2311.854	186.5
2315.734	178.5
2319.609	170.5
2323.482	167.5
2327.351	165.5
2331.216	164.5
2335.078	168.5
2338.937	159.5
2342.792	156.5
2346.643	156.5
2350.492	149.5
2354.336	152.5
2358.178	149.5
2362.015	156.5
2365.85	150.5
2369.681	157.5
2373.508	151.5
2377.333	158.5
2381.153	147.5
2384.971	149.5
2388.785	148.5
2392.595	136.5
2396.402	140.5
2400.206	135.5
2404.007	139.5
2407.804	133.5
2411.597	134.5
2415.388	132.5
2419.174	134.5
2422.958	128.5
2426.738	132.5
2430.515	129.5
2434.289	128.5
2438.059	126.5
2441.825	122.5
2445.589	126.5
2449.349	128.5
2453.106	127.5
2456.859	126.5
2460.61	120.5
2464.356	114.5
2468.1	113.5
2471.84	114.5
2475.577	109.5
2479.311	111.5
2483.041	107.5
2486.768	116.5
2490.492	112.5
2494.213	109.5
2497.93	118.5
2501.644	114.5
2505.355	111.5
2509.062	114.5
2512.766	112.5
2516.467	110.5
2520.165	110.5
2523.859	107.5
2527.551	106.5
2531.239	102.5
2534.923	98.5
2538.605	108.5
2542.283	101.5
2545.958	104.5
2549.63	104.5
2553.299	102.5
2556.964	94.5
2560.626	99.5
2564.285	104.5
2567.941	95.5
2571.594	97.5
2575.243	99.5
2578.89	90.5
2582.533	89.5
2586.173	89.5
2589.809	95.5
2593.443	92.5
2597.073	91.5
2600.701	91.5
2604.325	89.5
2607.946	89.5
2611.564	85.5
2615.178	88.5
2618.79	80.5
2622.398	87.5
2626.004	85.5
2629.606	85.5
2633.205	86.5
2636.801	82.5
2640.394	84.5
2643.983	80.5
2647.57	79.5
2651.153	72.5
2654.734	72.5
2658.311	73.5
2661.885	66.5
2665.456	71.5
2669.025	64.5
2672.589	82.5
2676.151	73.5
2679.71	65.5
2683.266	67.5
2686.819	66.5
2690.368	70.5
2693.915	69.5
2697.458	62.5
2700.999	64.5
2704.536	62.5
2708.071	62.5
2711.602	59.5
2715.13	60.5
2718.656	58.5
2722.178	55.5
2725.697	61.5
2729.214	58.5
2732.727	59.5
2736.237	60.5
2739.744	64.5
2743.249	63.5
2746.75	67.5
2750.248	69.5
2753.743	68.5
2757.236	70.5
2760.725	68.5
2764.211	65.5
2767.695	66.5
2771.175	68.5
2774.652	67.5
2778.127	71.5
2781.598	69.5
2785.067	71.5
2788.532	75.5
2791.995	75.5
2795.455	74.5
2798.911	73.5
2802.365	74.5
2805.816	72.5
2809.264	75.5
2812.709	81.5
2816.151	78.5
2819.59	78.5
2823.026	76.5
2826.46	80.5
2829.89	85.5
2833.318	76.5
2836.742	85.5
2840.164	84.5
2843.583	85.5
2846.999	89.5
2850.412	91.5
2853.822	98.5
2857.229	109.5
2860.634	98.5
2864.035	103.5
2867.434	106.5
2870.83	107.5
2874.223	108.5
2877.613	112.5
2881	112.5
2884.385	113.5
2887.766	117.5
2891.145	118.5
2894.521	117.5
2897.894	122.5
2901.264	126.5
2904.631	134.5
2907.996	128.5
2911.358	138.5
2914.717	135.5
2918.073	134.5
2921.426	137.5
2924.777	141.5
2928.124	151.5
2931.469	153.5
2934.811	158.5
2938.15	154.5
2941.487	170.5
2944.821	173.5
2948.152	182.5
2951.48	180.5
2954.805	186.5
2958.128	190.5
2961.447	193.5
2964.765	198.5
2968.079	209.5
2971.39	213.5
2974.699	222.5
2978.005	225.5
2981.308	233.5
2984.609	241.5
2987.907	250.5
2991.202	267.5
2994.494	274.5
2997.784	292.5
3001.07	292.5
3004.355	309.5
3007.636	331.5
3010.915	323.5
3014.191	328.5
3017.464	339.5
3020.734	347.5
3024.002	352.5
3027.267	360.5
3030.53	359.5
3033.789	377.5
3037.046	390.5
3040.301	396.5
3043.552	419.5
3046.801	416.5
3050.048	427.5
3053.291	437.5
3056.532	466.5
3059.771	477.5
3063.006	490.5
3066.239	507.5
3069.469	537.5
3072.697	546.5
3075.922	552.5
3079.144	579.5
3082.364	586.5
3085.581	601.5
3088.795	615.5
3092.007	638.5
3095.216	655.5
3098.423	673.5
3101.627	686.5
3104.828	712.5
3108.026	725.5
3111.222	743.5
3114.416	766.5
3117.607	772.5
3120.795	793.5
3123.98	814.5
3127.163	826.5
3130.344	845.5
3133.521	884.5
3136.696	904.5
3139.869	927.5
3143.039	946.5
3146.206	945.5
3149.371	963.5
3152.533	978.5
3155.693	987.5
3158.85	1001.5
3162.005	999.5
3165.157	1003.5
3168.306	1023.5
3171.453	998.5
3174.597	1016.5
3177.739	1033.5
3180.878	1024.5
3184.014	1045.5
3187.149	1039.5
3190.28	1049.5
3193.409	1047.5
3196.536	1040.5
3199.659	1057.5
3202.781	1052.5
3205.9	1074.5
3209.016	1067.5
3212.13	1057.5
3215.241	1058.5
3218.35	1047.5
3221.456	1031.5
3224.56	1032.5
3227.661	1024.5
3230.76	1007.5
3233.856	993.5
3236.95	996.5
3240.041	994.5
3243.13	991.5
3246.216	977.5
3249.3	976.5
3252.382	966.5
3255.46	956.5
3258.537	961.5
3261.611	957.5
3264.682	953.5
3267.751	951.5
3270.818	949.5
3273.882	928.5
3276.943	938.5
3280.002	942.5
3283.059	927.5
3286.113	908.5
3289.165	901.5
3292.214	880.5
3295.261	875.5
3298.306	869.5
3301.348	852.5
3304.387	844.5
3307.425	817.5
3310.459	801.5
3313.492	797.5
3316.521	782.5
3319.549	775.5
3322.574	766.5
3325.597	766.5
3328.617	763.5
3331.635	756.5
3334.65	746.5
3337.663	757.5
3340.674	738.5
3343.682	748.5
3346.688	745.5
3349.691	729.5
3352.692	716.5
3355.691	715.5
3358.687	714.5
3361.681	718.5
3364.673	710.5
3367.662	695.5
3370.649	686.5
3373.633	685.5
3376.615	670.5
3379.595	657.5
3382.572	647.5
3385.547	641.5
3388.52	629.5
3391.49	624.5
3394.458	616.5
3397.424	605.5
3400.387	598.5
3403.348	603.5
3406.307	589.5
3409.263	592.5
3412.217	572.5
3415.168	575.5
3418.118	555.5
3421.065	559.5
3424.009	546.5
3426.951	549.5
3429.891	536.5
3432.829	529.5
3435.764	518.5
3438.697	518.5
3441.628	493.5
3444.557	483.5
3447.483	477.5
3450.407	459.5
3453.328	440.5
3456.247	434.5
3459.164	424.5
3462.079	405.5
3464.991	395.5
3467.902	380.5
3470.809	370.5
3473.715	352.5
3476.618	352.5
3479.519	346.5
3482.418	333.5
3485.315	318.5
3488.209	321.5
3491.101	303.5
3493.99	293.5
3496.878	284.5
3499.763	267.5
3502.646	270.5
3505.527	257.5
3508.405	253.5
3511.281	243.5
3514.155	229.5
3517.027	223.5
3519.897	205.5
3522.764	194.5
3525.629	190.5
3528.492	182.5
3531.352	158.5
3534.211	153.5
3537.067	144.5
3539.921	145.5
3542.773	135.5
3545.622	127.5
3548.469	117.5
3551.315	108.5
3554.157	102.5
3556.998	98.5
3559.837	84.5
3562.673	75.5
3565.507	75.5
3568.339	69.5
3571.169	64.5
3573.996	59.5
3576.822	53.5
3579.645	53.5
3582.466	48.5
3585.285	35.5
3588.101	36.5
3590.916	29.5
3593.728	28.5
3596.538	26.5
3599.346	22.5
3602.152	14.5
3604.956	8.5
3607.757	9.5
3610.556	0.5
3613.354	-3.5
3616.149	-7.5
3618.942	-2.5
3621.732	-8.5
3624.521	-13.5
3627.307	-15.5
3630.092	-17.5
3632.874	-16.5
3635.654	-15.5
3638.432	-21.5
3641.208	-29.5
3643.982	-28.5
3646.753	-30.5
3649.523	-36.5
3652.29	-33.5
3655.055	-36.5
3657.818	-40.5
3660.579	-45.5
3663.338	-45.5
3666.095	-49.5
3668.849	-51.5
3671.602	-53.5
3674.352	-56.5
3677.101	-53.5
3679.847	-54.5
3682.591	-55.5
3685.333	-58.5
3688.073	-58.5
3690.811	-64.5
3693.547	-66.5
3696.281	-67.5
3699.013	-65.5
3701.742	-69.5
3704.47	-67.5
3707.195	-68.5
3709.919	-68.5
3712.64	-68.5
3715.359	-73.5
3718.076	-71.5
3720.792	-71.5
3723.505	-71.5
3726.216	-75.5
3728.925	-75.5
3731.632	-73.5
3734.336	-78.5
3737.039	-72.5
3739.74	-76.5
3742.439	-72.5
3745.136	-78.5
3747.83	-77.5
3750.523	-81.5
3753.213	-83.5
3755.902	-84.5
3758.589	-81.5
3761.273	-81.5
3763.956	-82.5
3766.636	-83.5
3769.315	-79.5
3771.991	-76.5
3774.665	-84.5
3777.338	-84.5
3780.008	-85.5
3782.677	-84.5
3785.343	-83.5
3788.007	-83.5
3790.67	-84.5
3793.33	-84.5
3795.989	-84.5
3798.645	-85.5
3801.299	-84.5
3803.952	-85.5
3806.602	-84.5
3809.251	-87.5
3811.897	-87.5
3814.542	-85.5
3817.184	-84.5
3819.825	-83.5
3822.463	-86.5
3825.1	-88.5
3827.735	-86.5
3830.367	-92.5
3832.998	-90.5
3835.627	-89.5
3838.253	-90.5
3840.878	-90.5
3843.501	-89.5
3846.122	-86.5
3848.741	-88.5
3851.358	-88.5
3853.973	-87.5
3856.586	-86.5
3859.197	-91.5
3861.806	-88.5
3864.414	-88.5
3867.019	-91.5
3869.622	-86.5
3872.224	-89.5
3874.823	-85.5
3877.421	-86.5
3880.016	-84.5
3882.61	-82.5
3885.202	-81.5
3887.792	-86.5
3890.38	-85.5
3892.966	-86.5
3895.55	-90.5
3898.132	-88.5
3900.713	-87.5
3903.291	-87.5
3905.868	-91.5
3908.442	-89.5
3911.015	-88.5
3913.586	-90.5
3916.155	-92.5
3918.722	-92.5
3921.287	-91.5
3923.85	-89.5
3926.411	-91.5
3928.971	-95.5
3931.528	-91.5
3934.084	-92.5
3936.638	-92.5
3939.19	-90.5
3941.74	-90.5
3944.288	-91.5
3946.834	-94.5
3949.378	-92.5
3951.921	-90.5
3954.462	-89.5
3957	-91.5
3959.537	-94.5
3962.072	-89.5
3964.606	-95.5
3967.137	-94.5
3969.667	-92.5
3972.194	-91.5
3974.72	-89.5
3977.244	-88.5
3979.766	-86.5
3982.286	-89.5
3984.805	-90.5
3987.321	-89.5
3989.836	-88.5
3992.349	-89.5
3994.86	-92.5
3997.369	-93.5
3999.877	-95.5
4002.382	-94.5
4004.886	-91.5
4007.388	-90.5
4009.888	-87.5
4012.386	-93.5
4014.883	-88.5
4017.377	-92.5
4019.87	-92.5
4022.361	-88.5
4024.85	-91.5
4027.338	-91.5
4029.823	-91.5
4032.307	-92.5
4034.789	-93.5
4037.269	-94.5
4039.747	-94.5
4042.224	-94.5
4044.699	-93.5
4047.172	-97.5
4049.643	-92.5
4052.112	-90.5
4054.58	-88.5
4057.046	-89.5
4059.51	-90.5
4061.972	-91.5
4064.432	-87.5
4066.891	-89.5
4069.348	-92.5
4071.803	-92.5
4074.256	-94.5
4076.708	-97.5
4079.158	-93.5
4081.606	-90.5
4084.052	-93.5
4086.497	-87.5
4088.939	-86.5
4091.38	-89.5
4093.819	-92.5
4096.257	-93.5
4098.693	-96.5
4101.127	-94.5
4103.559	-93.5
4105.989	-60.5
4108.418	-54.5
4110.845	-51.5
4113.27	-48.5
4115.694	-49.5
4118.115	-36.5
4120.535	-91.5
4122.954	-90.5
4125.37	-92.5
4127.785	-93.5
4130.198	-92.5
4132.609	-89.5
4135.019	-93.5
4137.427	-93.5
4139.833	-94.5
4142.237	-95.5
