Data from B.sub_water_10CFUA3_RamanShift_2.txt Node
Date: Wed Mar 08 14:52:57 IST 2017
User: aro
Spectrometer: QEPB0276
Trigger mode: 0
Integration Time (sec): 5.000000E0
Scans to average: 1
Electric dark correction enabled: true
Nonlinearity correction enabled: false
Boxcar width: 0
XAxis mode: Raman Shifts
Number of Pixels in Spectrum: 1044
>>>>>Begin Spectral Data<<<<<
160.701	-33.25
166.742	-4.25
172.777	77.75
178.805	340.75
184.826	923.75
190.841	1908.75
196.849	2965.75
202.85	3646.75
208.845	3784.75
214.833	3659.75
220.815	3511.75
226.789	3397.75
232.758	3300.75
238.719	3232.75
244.674	3097.75
250.623	2961.75
256.565	2817.75
262.5	2682.75
268.429	2571.75
274.351	2471.75
280.267	2372.75
286.176	2307.75
292.079	2217.75
297.975	2155.75
303.865	2105.75
309.748	2031.75
315.625	1985.75
321.495	1950.75
327.359	1927.75
333.217	1908.75
339.068	1897.75
344.912	1870.75
350.751	1865.75
356.583	1866.75
362.408	1877.75
368.227	1873.75
374.04	1865.75
379.847	1891.75
385.647	1884.75
391.44	1892.75
397.228	1922.75
403.009	1900.75
408.784	1919.75
414.553	1933.75
420.315	1930.75
426.071	1926.75
431.821	1935.75
437.565	1939.75
443.302	1925.75
449.033	1896.75
454.758	1911.75
460.477	1893.75
466.189	1892.75
471.896	1857.75
477.596	1857.75
483.29	1838.75
488.978	1834.75
494.66	1820.75
500.335	1814.75
506.005	1782.75
511.668	1739.75
517.325	1719.75
522.977	1675.75
528.622	1644.75
534.261	1636.75
539.894	1612.75
545.521	1606.75
551.141	1598.75
556.756	1588.75
562.365	1570.75
567.968	1571.75
573.565	1556.75
579.155	1525.75
584.74	1518.75
590.319	1513.75
595.892	1490.75
601.459	1473.75
607.02	1478.75
612.575	1457.75
618.124	1458.75
623.667	1437.75
629.204	1430.75
634.735	1411.75
640.261	1398.75
645.781	1396.75
651.294	1388.75
656.802	1369.75
662.304	1365.75
667.8	1357.75
673.29	1335.75
678.775	1354.75
684.254	1346.75
689.726	1349.75
695.193	1328.75
700.655	1319.75
706.11	1309.75
711.56	1289.75
717.004	1296.75
722.442	1291.75
727.874	1256.75
733.301	1268.75
738.722	1249.75
744.137	1239.75
749.547	1248.75
754.951	1237.75
760.349	1222.75
765.741	1231.75
771.128	1242.75
776.509	1241.75
781.885	1241.75
787.254	1228.75
792.618	1225.75
797.977	1208.75
803.33	1198.75
808.677	1174.75
814.019	1165.75
819.355	1165.75
824.686	1130.75
830.011	1144.75
835.33	1137.75
840.644	1116.75
845.952	1118.75
851.255	1133.75
856.552	1110.75
861.844	1093.75
867.13	1086.75
872.41	1084.75
877.686	1070.75
882.955	1076.75
888.219	1046.75
893.478	1025.75
898.731	1005.75
903.979	987.75
909.221	979.75
914.458	988.75
919.69	960.75
924.916	956.75
930.136	969.75
935.351	960.75
940.561	960.75
945.766	948.75
950.965	941.75
956.158	925.75
961.347	912.75
966.529	912.75
971.707	899.75
976.879	882.75
982.046	879.75
987.208	877.75
992.364	868.75
997.515	864.75
1002.66	879.75
1007.801	878.75
1012.936	889.75
1018.066	901.75
1023.19	905.75
1028.309	899.75
1033.423	905.75
1038.532	901.75
1043.636	886.75
1048.734	872.75
1053.827	867.75
1058.915	869.75
1063.998	857.75
1069.075	854.75
1074.147	859.75
1079.214	859.75
1084.276	863.75
1089.333	868.75
1094.385	881.75
1099.431	879.75
1104.472	877.75
1109.509	868.75
1114.54	865.75
1119.565	850.75
1124.586	847.75
1129.602	828.75
1134.613	827.75
1139.618	828.75
1144.619	826.75
1149.614	821.75
1154.604	834.75
1159.589	834.75
1164.57	828.75
1169.545	831.75
1174.515	831.75
1179.48	824.75
1184.44	831.75
1189.395	812.75
1194.345	811.75
1199.29	812.75
1204.23	815.75
1209.165	822.75
1214.095	838.75
1219.021	819.75
1223.941	829.75
1228.856	830.75
1233.766	842.75
1238.672	838.75
1243.572	847.75
1248.467	837.75
1253.358	833.75
1258.244	808.75
1263.124	791.75
1268	789.75
1272.871	779.75
1277.737	771.75
1282.599	780.75
1287.455	766.75
1292.306	773.75
1297.153	774.75
1301.995	789.75
1306.832	785.75
1311.664	798.75
1316.491	800.75
1321.314	783.75
1326.132	767.75
1330.945	759.75
1335.753	744.75
1340.556	722.75
1345.354	717.75
1350.148	698.75
1354.937	685.75
1359.722	693.75
1364.501	701.75
1369.276	708.75
1374.046	725.75
1378.811	743.75
1383.572	740.75
1388.327	738.75
1393.079	735.75
1397.825	706.75
1402.567	704.75
1407.304	691.75
1412.036	676.75
1416.764	678.75
1421.487	680.75
1426.205	673.75
1430.919	681.75
1435.628	692.75
1440.333	696.75
1445.032	703.75
1449.727	693.75
1454.418	688.75
1459.104	699.75
1463.785	693.75
1468.462	685.75
1473.134	674.75
1477.802	679.75
1482.465	671.75
1487.123	675.75
1491.777	673.75
1496.426	692.75
1501.071	692.75
1505.711	710.75
1510.347	718.75
1514.978	726.75
1519.604	733.75
1524.226	740.75
1528.844	755.75
1533.457	746.75
1538.065	747.75
1542.669	753.75
1547.269	747.75
1551.864	752.75
1556.454	766.75
1561.041	765.75
1565.622	773.75
1570.199	774.75
1574.772	785.75
1579.34	793.75
1583.904	803.75
1588.464	825.75
1593.019	838.75
1597.569	846.75
1602.115	863.75
1606.657	867.75
1611.195	891.75
1615.728	894.75
1620.256	909.75
1624.78	923.75
1629.3	924.75
1633.816	943.75
1638.327	959.75
1642.834	963.75
1647.336	980.75
1651.834	991.75
1656.328	989.75
1660.817	976.75
1665.302	954.75
1669.783	929.75
1674.259	899.75
1678.732	865.75
1683.199	849.75
1687.663	800.75
1692.122	761.75
1696.577	748.75
1701.028	719.75
1705.474	719.75
1709.917	690.75
1714.355	676.75
1718.788	649.75
1723.218	631.75
1727.643	616.75
1732.064	591.75
1736.481	578.75
1740.893	563.75
1745.301	540.75
1749.705	519.75
1754.105	502.75
1758.501	481.75
1762.893	468.75
1767.28	465.75
1771.663	459.75
1776.042	456.75
1780.417	453.75
1784.787	456.75
1789.154	454.75
1793.516	457.75
1797.874	465.75
1802.228	463.75
1806.578	465.75
1810.924	462.75
1815.266	450.75
1819.603	438.75
1823.937	439.75
1828.266	426.75
1832.591	425.75
1836.913	415.75
1841.23	415.75
1845.543	417.75
1849.852	403.75
1854.156	411.75
1858.457	406.75
1862.754	403.75
1867.047	405.75
1871.335	406.75
1875.62	406.75
1879.9	414.75
1884.177	415.75
1888.449	403.75
1892.718	414.75
1896.982	395.75
1901.243	404.75
1905.499	402.75
1909.752	403.75
1914	406.75
1918.245	412.75
1922.485	405.75
1926.722	412.75
1930.954	419.75
1935.183	416.75
1939.408	418.75
1943.628	424.75
1947.845	421.75
1952.058	411.75
1956.267	419.75
1960.472	423.75
1964.673	420.75
1968.87	416.75
1973.063	410.75
1977.252	417.75
1981.438	406.75
1985.619	404.75
1989.797	395.75
1993.971	395.75
1998.14	402.75
2002.306	402.75
2006.469	406.75
2010.627	407.75
2014.781	398.75
2018.932	393.75
2023.078	411.75
2027.221	404.75
2031.36	391.75
2035.495	397.75
2039.627	392.75
2043.754	393.75
2047.878	382.75
2051.998	382.75
2056.114	390.75
2060.226	394.75
2064.334	393.75
2068.439	407.75
2072.54	401.75
2076.637	406.75
2080.73	409.75
2084.82	410.75
2088.906	399.75
2092.988	407.75
2097.066	410.75
2101.14	411.75
2105.211	407.75
2109.278	404.75
2113.342	395.75
2117.401	393.75
2121.457	388.75
2125.509	380.75
2129.558	398.75
2133.602	383.75
2137.643	394.75
2141.681	393.75
2145.714	383.75
2149.744	373.75
2153.77	377.75
2157.793	361.75
2161.812	362.75
2165.827	358.75
2169.838	357.75
2173.846	352.75
2177.851	337.75
2181.851	339.75
2185.848	329.75
2189.841	342.75
2193.831	323.75
2197.817	325.75
2201.799	319.75
2205.778	319.75
2209.753	311.75
2213.725	311.75
2217.693	322.75
2221.657	313.75
2225.618	305.75
2229.575	313.75
2233.529	312.75
2237.479	300.75
2241.425	301.75
2245.368	281.75
2249.307	290.75
2253.243	291.75
2257.175	281.75
2261.104	270.75
2265.029	267.75
2268.95	262.75
2272.868	259.75
2276.783	257.75
2280.694	257.75
2284.601	251.75
2288.505	244.75
2292.405	252.75
2296.302	242.75
2300.195	244.75
2304.085	241.75
2307.971	225.75
2311.854	221.75
2315.734	209.75
2319.609	212.75
2323.482	208.75
2327.351	206.75
2331.216	209.75
2335.078	210.75
2338.937	212.75
2342.792	205.75
2346.643	196.75
2350.492	197.75
2354.336	200.75
2358.178	193.75
2362.015	200.75
2365.85	197.75
2369.681	195.75
2373.508	197.75
2377.333	196.75
2381.153	198.75
2384.971	191.75
2388.785	196.75
2392.595	190.75
2396.402	187.75
2400.206	181.75
2404.007	177.75
2407.804	175.75
2411.597	184.75
2415.388	174.75
2419.174	174.75
2422.958	170.75
2426.738	171.75
2430.515	169.75
2434.289	173.75
2438.059	171.75
2441.825	167.75
2445.589	167.75
2449.349	163.75
2453.106	160.75
2456.859	162.75
2460.61	156.75
2464.356	148.75
2468.1	154.75
2471.84	150.75
2475.577	158.75
2479.311	158.75
2483.041	161.75
2486.768	152.75
2490.492	149.75
2494.213	158.75
2497.93	148.75
2501.644	150.75
2505.355	153.75
2509.062	149.75
2512.766	143.75
2516.467	147.75
2520.165	152.75
2523.859	147.75
2527.551	142.75
2531.239	144.75
2534.923	146.75
2538.605	145.75
2542.283	136.75
2545.958	142.75
2549.63	139.75
2553.299	138.75
2556.964	138.75
2560.626	144.75
2564.285	137.75
2567.941	126.75
2571.594	133.75
2575.243	131.75
2578.89	126.75
2582.533	130.75
2586.173	128.75
2589.809	128.75
2593.443	127.75
2597.073	132.75
2600.701	126.75
2604.325	126.75
2607.946	117.75
2611.564	125.75
2615.178	121.75
2618.79	120.75
2622.398	122.75
2626.004	119.75
2629.606	118.75
2633.205	116.75
2636.801	116.75
2640.394	117.75
2643.983	115.75
2647.57	109.75
2651.153	106.75
2654.734	112.75
2658.311	112.75
2661.885	105.75
2665.456	105.75
2669.025	102.75
2672.589	108.75
2676.151	100.75
2679.71	99.75
2683.266	104.75
2686.819	91.75
2690.368	89.75
2693.915	97.75
2697.458	89.75
2700.999	87.75
2704.536	82.75
2708.071	90.75
2711.602	91.75
2715.13	89.75
2718.656	91.75
2722.178	86.75
2725.697	80.75
2729.214	87.75
2732.727	86.75
2736.237	86.75
2739.744	82.75
2743.249	89.75
2746.75	91.75
2750.248	97.75
2753.743	93.75
2757.236	99.75
2760.725	89.75
2764.211	90.75
2767.695	96.75
2771.175	97.75
2774.652	91.75
2778.127	106.75
2781.598	94.75
2785.067	100.75
2788.532	102.75
2791.995	97.75
2795.455	98.75
2798.911	95.75
2802.365	95.75
2805.816	96.75
2809.264	96.75
2812.709	95.75
2816.151	103.75
2819.59	98.75
2823.026	106.75
2826.46	105.75
2829.89	107.75
2833.318	102.75
2836.742	100.75
2840.164	107.75
2843.583	102.75
2846.999	104.75
2850.412	108.75
2853.822	117.75
2857.229	123.75
2860.634	119.75
2864.035	126.75
2867.434	121.75
2870.83	134.75
2874.223	134.75
2877.613	130.75
2881	137.75
2884.385	140.75
2887.766	140.75
2891.145	143.75
2894.521	139.75
2897.894	137.75
2901.264	138.75
2904.631	149.75
2907.996	144.75
2911.358	150.75
2914.717	144.75
2918.073	147.75
2921.426	154.75
2924.777	165.75
2928.124	173.75
2931.469	174.75
2934.811	177.75
2938.15	177.75
2941.487	184.75
2944.821	188.75
2948.152	193.75
2951.48	192.75
2954.805	191.75
2958.128	202.75
2961.447	206.75
2964.765	205.75
2968.079	216.75
2971.39	227.75
2974.699	234.75
2978.005	234.75
2981.308	249.75
2984.609	248.75
2987.907	260.75
2991.202	271.75
2994.494	277.75
2997.784	292.75
3001.07	296.75
3004.355	306.75
3007.636	317.75
3010.915	334.75
3014.191	324.75
3017.464	331.75
3020.734	350.75
3024.002	357.75
3027.267	358.75
3030.53	364.75
3033.789	360.75
3037.046	390.75
3040.301	389.75
3043.552	411.75
3046.801	413.75
3050.048	422.75
3053.291	433.75
3056.532	453.75
3059.771	468.75
3063.006	492.75
3066.239	493.75
3069.469	507.75
3072.697	534.75
3075.922	551.75
3079.144	557.75
3082.364	580.75
3085.581	588.75
3088.795	617.75
3092.007	620.75
3095.216	618.75
3098.423	647.75
3101.627	653.75
3104.828	684.75
3108.026	693.75
3111.222	717.75
3114.416	725.75
3117.607	740.75
3120.795	767.75
3123.98	778.75
3127.163	813.75
3130.344	825.75
3133.521	847.75
3136.696	861.75
3139.869	895.75
3143.039	908.75
3146.206	913.75
3149.371	913.75
3152.533	948.75
3155.693	948.75
3158.85	944.75
3162.005	945.75
3165.157	949.75
3168.306	968.75
3171.453	967.75
3174.597	983.75
3177.739	980.75
3180.878	969.75
3184.014	988.75
3187.149	995.75
3190.28	993.75
3193.409	998.75
3196.536	1006.75
3199.659	1000.75
3202.781	1013.75
3205.9	1001.75
3209.016	1014.75
3212.13	1021.75
3215.241	1012.75
3218.35	1003.75
3221.456	993.75
3224.56	974.75
3227.661	983.75
3230.76	972.75
3233.856	954.75
3236.95	954.75
3240.041	950.75
3243.13	941.75
3246.216	938.75
3249.3	926.75
3252.382	915.75
3255.46	916.75
3258.537	913.75
3261.611	904.75
3264.682	912.75
3267.751	911.75
3270.818	903.75
3273.882	905.75
3276.943	895.75
3280.002	915.75
3283.059	873.75
3286.113	864.75
3289.165	842.75
3292.214	841.75
3295.261	829.75
3298.306	814.75
3301.348	799.75
3304.387	793.75
3307.425	786.75
3310.459	783.75
3313.492	763.75
3316.521	740.75
3319.549	736.75
3322.574	727.75
3325.597	732.75
3328.617	737.75
3331.635	711.75
3334.65	708.75
3337.663	718.75
3340.674	708.75
3343.682	702.75
3346.688	708.75
3349.691	700.75
3352.692	694.75
3355.691	686.75
3358.687	680.75
3361.681	675.75
3364.673	669.75
3367.662	663.75
3370.649	656.75
3373.633	651.75
3376.615	639.75
3379.595	628.75
3382.572	621.75
3385.547	617.75
3388.52	597.75
3391.49	603.75
3394.458	593.75
3397.424	581.75
3400.387	585.75
3403.348	572.75
3406.307	564.75
3409.263	561.75
3412.217	553.75
3415.168	545.75
3418.118	545.75
3421.065	532.75
3424.009	527.75
3426.951	520.75
3429.891	509.75
3432.829	505.75
3435.764	494.75
3438.697	494.75
3441.628	467.75
3444.557	471.75
3447.483	446.75
3450.407	431.75
3453.328	422.75
3456.247	418.75
3459.164	396.75
3462.079	388.75
3464.991	376.75
3467.902	361.75
3470.809	354.75
3473.715	342.75
3476.618	329.75
3479.519	320.75
3482.418	309.75
3485.315	301.75
3488.209	298.75
3491.101	280.75
3493.99	276.75
3496.878	262.75
3499.763	257.75
3502.646	248.75
3505.527	247.75
3508.405	233.75
3511.281	227.75
3514.155	221.75
3517.027	207.75
3519.897	196.75
3522.764	180.75
3525.629	177.75
3528.492	163.75
3531.352	149.75
3534.211	145.75
3537.067	140.75
3539.921	129.75
3542.773	124.75
3545.622	117.75
3548.469	108.75
3551.315	103.75
3554.157	96.75
3556.998	82.75
3559.837	84.75
3562.673	76.75
3565.507	70.75
3568.339	65.75
3571.169	63.75
3573.996	60.75
3576.822	58.75
3579.645	49.75
3582.466	39.75
3585.285	31.75
3588.101	31.75
3590.916	26.75
3593.728	19.75
3596.538	16.75
3599.346	12.75
3602.152	11.75
3604.956	6.75
3607.757	-0.25
3610.556	0.75
3613.354	-9.25
3616.149	-2.25
3618.942	-10.25
3621.732	-13.25
3624.521	-15.25
3627.307	-19.25
3630.092	-17.25
3632.874	-23.25
3635.654	-23.25
3638.432	-27.25
3641.208	-31.25
3643.982	-34.25
3646.753	-30.25
3649.523	-35.25
3652.29	-36.25
3655.055	-39.25
3657.818	-38.25
3660.579	-44.25
3663.338	-41.25
3666.095	-49.25
3668.849	-52.25
3671.602	-59.25
3674.352	-59.25
3677.101	-57.25
3679.847	-60.25
3682.591	-57.25
3685.333	-59.25
3688.073	-62.25
3690.811	-66.25
3693.547	-64.25
3696.281	-67.25
3699.013	-68.25
3701.742	-65.25
3704.47	-73.25
3707.195	-74.25
3709.919	-71.25
3712.64	-72.25
3715.359	-72.25
3718.076	-71.25
3720.792	-74.25
3723.505	-71.25
3726.216	-76.25
3728.925	-74.25
3731.632	-74.25
3734.336	-78.25
3737.039	-76.25
3739.74	-79.25
3742.439	-78.25
3745.136	-79.25
3747.83	-81.25
3750.523	-83.25
3753.213	-84.25
3755.902	-82.25
3758.589	-80.25
3761.273	-81.25
3763.956	-80.25
3766.636	-82.25
3769.315	-81.25
3771.991	-82.25
3774.665	-87.25
3777.338	-86.25
3780.008	-90.25
3782.677	-90.25
3785.343	-84.25
3788.007	-86.25
3790.67	-83.25
3793.33	-82.25
3795.989	-83.25
3798.645	-83.25
3801.299	-82.25
3803.952	-86.25
3806.602	-88.25
3809.251	-87.25
3811.897	-91.25
3814.542	-89.25
3817.184	-88.25
3819.825	-86.25
3822.463	-88.25
3825.1	-85.25
3827.735	-85.25
3830.367	-91.25
3832.998	-88.25
3835.627	-89.25
3838.253	-89.25
3840.878	-88.25
3843.501	-90.25
3846.122	-92.25
3848.741	-87.25
3851.358	-90.25
3853.973	-88.25
3856.586	-90.25
3859.197	-93.25
3861.806	-87.25
3864.414	-89.25
3867.019	-88.25
3869.622	-86.25
3872.224	-91.25
3874.823	-86.25
3877.421	-86.25
3880.016	-88.25
3882.61	-77.25
3885.202	-79.25
3887.792	-85.25
3890.38	-88.25
3892.966	-87.25
3895.55	-91.25
3898.132	-91.25
3900.713	-89.25
3903.291	-91.25
3905.868	-93.25
3908.442	-91.25
3911.015	-92.25
3913.586	-94.25
3916.155	-92.25
3918.722	-95.25
3921.287	-91.25
3923.85	-91.25
3926.411	-92.25
3928.971	-93.25
3931.528	-89.25
3934.084	-93.25
3936.638	-95.25
3939.19	-93.25
3941.74	-90.25
3944.288	-95.25
3946.834	-96.25
3949.378	-93.25
3951.921	-93.25
3954.462	-92.25
3957	-94.25
3959.537	-93.25
3962.072	-93.25
3964.606	-91.25
3967.137	-95.25
3969.667	-93.25
3972.194	-95.25
3974.72	-90.25
3977.244	-94.25
3979.766	-91.25
3982.286	-92.25
3984.805	-97.25
3987.321	-89.25
3989.836	-91.25
3992.349	-91.25
3994.86	-95.25
3997.369	-92.25
3999.877	-94.25
4002.382	-90.25
4004.886	-86.25
4007.388	-86.25
4009.888	-87.25
4012.386	-93.25
4014.883	-92.25
4017.377	-96.25
4019.87	-90.25
4022.361	-92.25
4024.85	-93.25
4027.338	-92.25
4029.823	-91.25
4032.307	-93.25
4034.789	-88.25
4037.269	-87.25
4039.747	-92.25
4042.224	-93.25
4044.699	-92.25
4047.172	-94.25
4049.643	-92.25
4052.112	-95.25
4054.58	-92.25
4057.046	-93.25
4059.51	-94.25
4061.972	-96.25
4064.432	-91.25
4066.891	-90.25
4069.348	-93.25
4071.803	-94.25
4074.256	-93.25
4076.708	-93.25
4079.158	-91.25
4081.606	-90.25
4084.052	-92.25
4086.497	-92.25
4088.939	-91.25
4091.38	-89.25
4093.819	-93.25
4096.257	-95.25
4098.693	-95.25
4101.127	-95.25
4103.559	-96.25
4105.989	-63.25
4108.418	-58.25
4110.845	-54.25
4113.27	-53.25
4115.694	-49.25
4118.115	-41.25
4120.535	-96.25
4122.954	-95.25
4125.37	-93.25
4127.785	-91.25
4130.198	-93.25
4132.609	-89.25
4135.019	-95.25
4137.427	-93.25
4139.833	-98.25
4142.237	-94.25
