Data from B.sub_water_0CFU2_RamanShift_1.txt Node
Date: Wed Mar 08 14:42:27 IST 2017
User: aro
Spectrometer: QEPB0276
Trigger mode: 0
Integration Time (sec): 5.000000E0
Scans to average: 1
Electric dark correction enabled: true
Nonlinearity correction enabled: false
Boxcar width: 0
XAxis mode: Raman Shifts
Number of Pixels in Spectrum: 1044
>>>>>Begin Spectral Data<<<<<
160.701	-38.5
166.742	-1.5
172.777	92.5
178.805	396.5
184.826	1083.5
190.841	2231.5
196.849	3470.5
202.85	4244.5
208.845	4394.5
214.833	4222.5
220.815	4041.5
226.789	3931.5
232.758	3808.5
238.719	3648.5
244.674	3532.5
250.623	3355.5
256.565	3166.5
262.5	3031.5
268.429	2898.5
274.351	2754.5
280.267	2639.5
286.176	2510.5
292.079	2426.5
297.975	2352.5
303.865	2260.5
309.748	2212.5
315.625	2167.5
321.495	2118.5
327.359	2084.5
333.217	2069.5
339.068	2041.5
344.912	2015.5
350.751	2027.5
356.583	2021.5
362.408	2008.5
368.227	2013.5
374.04	2027.5
379.847	2045.5
385.647	2049.5
391.44	2043.5
397.228	2065.5
403.009	2078.5
408.784	2065.5
414.553	2083.5
420.315	2112.5
426.071	2082.5
431.821	2096.5
437.565	2091.5
443.302	2082.5
449.033	2072.5
454.758	2061.5
460.477	2035.5
466.189	2032.5
471.896	2023.5
477.596	2017.5
483.29	1994.5
488.978	1992.5
494.66	1956.5
500.335	1937.5
506.005	1882.5
511.668	1835.5
517.325	1824.5
522.977	1778.5
528.622	1775.5
534.261	1720.5
539.894	1712.5
545.521	1687.5
551.141	1665.5
556.756	1661.5
562.365	1658.5
567.968	1620.5
573.565	1612.5
579.155	1609.5
584.74	1593.5
590.319	1591.5
595.892	1560.5
601.459	1552.5
607.02	1557.5
612.575	1540.5
618.124	1503.5
623.667	1479.5
629.204	1467.5
634.735	1474.5
640.261	1451.5
645.781	1441.5
651.294	1431.5
656.802	1415.5
662.304	1400.5
667.8	1392.5
673.29	1397.5
678.775	1396.5
684.254	1376.5
689.726	1366.5
695.193	1357.5
700.655	1336.5
706.11	1334.5
711.56	1326.5
717.004	1310.5
722.442	1298.5
727.874	1286.5
733.301	1281.5
738.722	1270.5
744.137	1268.5
749.547	1255.5
754.951	1239.5
760.349	1247.5
765.741	1228.5
771.128	1252.5
776.509	1247.5
781.885	1232.5
787.254	1224.5
792.618	1220.5
797.977	1211.5
803.33	1199.5
808.677	1184.5
814.019	1154.5
819.355	1151.5
824.686	1146.5
830.011	1144.5
835.33	1119.5
840.644	1101.5
845.952	1095.5
851.255	1113.5
856.552	1079.5
861.844	1075.5
867.13	1065.5
872.41	1044.5
877.686	1036.5
882.955	1032.5
888.219	987.5
893.478	976.5
898.731	957.5
903.979	929.5
909.221	923.5
914.458	917.5
919.69	915.5
924.916	910.5
930.136	906.5
935.351	904.5
940.561	881.5
945.766	883.5
950.965	874.5
956.158	863.5
961.347	852.5
966.529	846.5
971.707	822.5
976.879	814.5
982.046	810.5
987.208	791.5
992.364	804.5
997.515	796.5
1002.66	790.5
1007.801	796.5
1012.936	806.5
1018.066	822.5
1023.19	830.5
1028.309	830.5
1033.423	817.5
1038.532	806.5
1043.636	814.5
1048.734	798.5
1053.827	791.5
1058.915	780.5
1063.998	773.5
1069.075	769.5
1074.147	772.5
1079.214	779.5
1084.276	784.5
1089.333	789.5
1094.385	802.5
1099.431	788.5
1104.472	786.5
1109.509	778.5
1114.54	775.5
1119.565	762.5
1124.586	747.5
1129.602	736.5
1134.613	740.5
1139.618	746.5
1144.619	745.5
1149.614	740.5
1154.604	744.5
1159.589	751.5
1164.57	746.5
1169.545	744.5
1174.515	752.5
1179.48	738.5
1184.44	734.5
1189.395	735.5
1194.345	722.5
1199.29	722.5
1204.23	725.5
1209.165	732.5
1214.095	728.5
1219.021	731.5
1223.941	745.5
1228.856	755.5
1233.766	753.5
1238.672	743.5
1243.572	743.5
1248.467	750.5
1253.358	736.5
1258.244	728.5
1263.124	705.5
1268	699.5
1272.871	691.5
1277.737	689.5
1282.599	672.5
1287.455	671.5
1292.306	681.5
1297.153	688.5
1301.995	688.5
1306.832	696.5
1311.664	704.5
1316.491	692.5
1321.314	698.5
1326.132	668.5
1330.945	659.5
1335.753	641.5
1340.556	626.5
1345.354	618.5
1350.148	601.5
1354.937	618.5
1359.722	612.5
1364.501	619.5
1369.276	630.5
1374.046	645.5
1378.811	642.5
1383.572	645.5
1388.327	633.5
1393.079	635.5
1397.825	619.5
1402.567	607.5
1407.304	598.5
1412.036	595.5
1416.764	595.5
1421.487	594.5
1426.205	581.5
1430.919	590.5
1435.628	591.5
1440.333	605.5
1445.032	592.5
1449.727	601.5
1454.418	599.5
1459.104	601.5
1463.785	600.5
1468.462	597.5
1473.134	583.5
1477.802	571.5
1482.465	576.5
1487.123	575.5
1491.777	571.5
1496.426	586.5
1501.071	606.5
1505.711	616.5
1510.347	635.5
1514.978	645.5
1519.604	656.5
1524.226	661.5
1528.844	657.5
1533.457	656.5
1538.065	665.5
1542.669	662.5
1547.269	664.5
1551.864	663.5
1556.454	671.5
1561.041	687.5
1565.622	686.5
1570.199	697.5
1574.772	712.5
1579.34	723.5
1583.904	738.5
1588.464	768.5
1593.019	787.5
1597.569	795.5
1602.115	801.5
1606.657	824.5
1611.195	830.5
1615.728	846.5
1620.256	871.5
1624.78	896.5
1629.3	893.5
1633.816	911.5
1638.327	928.5
1642.834	957.5
1647.336	948.5
1651.834	946.5
1656.328	950.5
1660.817	953.5
1665.302	920.5
1669.783	897.5
1674.259	868.5
1678.732	843.5
1683.199	797.5
1687.663	744.5
1692.122	726.5
1696.577	678.5
1701.028	662.5
1705.474	650.5
1709.917	629.5
1714.355	602.5
1718.788	575.5
1723.218	545.5
1727.643	522.5
1732.064	507.5
1736.481	482.5
1740.893	459.5
1745.301	441.5
1749.705	423.5
1754.105	399.5
1758.501	392.5
1762.893	373.5
1767.28	364.5
1771.663	363.5
1776.042	353.5
1780.417	346.5
1784.787	350.5
1789.154	349.5
1793.516	359.5
1797.874	353.5
1802.228	365.5
1806.578	361.5
1810.924	346.5
1815.266	345.5
1819.603	337.5
1823.937	332.5
1828.266	320.5
1832.591	310.5
1836.913	315.5
1841.23	305.5
1845.543	305.5
1849.852	299.5
1854.156	295.5
1858.457	302.5
1862.754	300.5
1867.047	293.5
1871.335	304.5
1875.62	300.5
1879.9	301.5
1884.177	309.5
1888.449	300.5
1892.718	298.5
1896.982	287.5
1901.243	296.5
1905.499	293.5
1909.752	294.5
1914	307.5
1918.245	293.5
1922.485	306.5
1926.722	313.5
1930.954	310.5
1935.183	312.5
1939.408	313.5
1943.628	319.5
1947.845	315.5
1952.058	314.5
1956.267	320.5
1960.472	314.5
1964.673	318.5
1968.87	317.5
1973.063	309.5
1977.252	308.5
1981.438	303.5
1985.619	307.5
1989.797	289.5
1993.971	301.5
1998.14	305.5
2002.306	299.5
2006.469	302.5
2010.627	309.5
2014.781	304.5
2018.932	310.5
2023.078	308.5
2027.221	314.5
2031.36	304.5
2035.495	304.5
2039.627	297.5
2043.754	297.5
2047.878	297.5
2051.998	296.5
2056.114	304.5
2060.226	310.5
2064.334	312.5
2068.439	312.5
2072.54	313.5
2076.637	314.5
2080.73	324.5
2084.82	321.5
2088.906	313.5
2092.988	322.5
2097.066	321.5
2101.14	326.5
2105.211	323.5
2109.278	316.5
2113.342	323.5
2117.401	307.5
2121.457	315.5
2125.509	317.5
2129.558	301.5
2133.602	305.5
2137.643	305.5
2141.681	303.5
2145.714	300.5
2149.744	296.5
2153.77	284.5
2157.793	292.5
2161.812	290.5
2165.827	279.5
2169.838	282.5
2173.846	267.5
2177.851	263.5
2181.851	261.5
2185.848	252.5
2189.841	249.5
2193.831	248.5
2197.817	247.5
2201.799	242.5
2205.778	243.5
2209.753	235.5
2213.725	238.5
2217.693	231.5
2221.657	240.5
2225.618	234.5
2229.575	230.5
2233.529	226.5
2237.479	219.5
2241.425	216.5
2245.368	207.5
2249.307	207.5
2253.243	201.5
2257.175	208.5
2261.104	197.5
2265.029	191.5
2268.95	191.5
2272.868	191.5
2276.783	184.5
2280.694	174.5
2284.601	170.5
2288.505	172.5
2292.405	172.5
2296.302	167.5
2300.195	162.5
2304.085	166.5
2307.971	157.5
2311.854	152.5
2315.734	144.5
2319.609	137.5
2323.482	136.5
2327.351	129.5
2331.216	131.5
2335.078	130.5
2338.937	121.5
2342.792	124.5
2346.643	123.5
2350.492	123.5
2354.336	123.5
2358.178	119.5
2362.015	124.5
2365.85	116.5
2369.681	124.5
2373.508	105.5
2377.333	117.5
2381.153	108.5
2384.971	116.5
2388.785	117.5
2392.595	105.5
2396.402	112.5
2400.206	106.5
2404.007	111.5
2407.804	105.5
2411.597	105.5
2415.388	102.5
2419.174	110.5
2422.958	103.5
2426.738	96.5
2430.515	93.5
2434.289	94.5
2438.059	90.5
2441.825	94.5
2445.589	95.5
2449.349	97.5
2453.106	93.5
2456.859	91.5
2460.61	84.5
2464.356	81.5
2468.1	77.5
2471.84	78.5
2475.577	82.5
2479.311	77.5
2483.041	82.5
2486.768	77.5
2490.492	78.5
2494.213	82.5
2497.93	81.5
2501.644	81.5
2505.355	76.5
2509.062	81.5
2512.766	79.5
2516.467	74.5
2520.165	79.5
2523.859	77.5
2527.551	73.5
2531.239	73.5
2534.923	72.5
2538.605	72.5
2542.283	71.5
2545.958	64.5
2549.63	71.5
2553.299	73.5
2556.964	66.5
2560.626	68.5
2564.285	69.5
2567.941	64.5
2571.594	59.5
2575.243	56.5
2578.89	63.5
2582.533	61.5
2586.173	62.5
2589.809	59.5
2593.443	54.5
2597.073	62.5
2600.701	59.5
2604.325	56.5
2607.946	54.5
2611.564	49.5
2615.178	53.5
2618.79	52.5
2622.398	53.5
2626.004	53.5
2629.606	48.5
2633.205	53.5
2636.801	52.5
2640.394	57.5
2643.983	44.5
2647.57	48.5
2651.153	44.5
2654.734	46.5
2658.311	42.5
2661.885	49.5
2665.456	45.5
2669.025	44.5
2672.589	43.5
2676.151	35.5
2679.71	40.5
2683.266	37.5
2686.819	33.5
2690.368	33.5
2693.915	32.5
2697.458	26.5
2700.999	31.5
2704.536	36.5
2708.071	32.5
2711.602	32.5
2715.13	29.5
2718.656	29.5
2722.178	29.5
2725.697	24.5
2729.214	27.5
2732.727	26.5
2736.237	30.5
2739.744	32.5
2743.249	41.5
2746.75	43.5
2750.248	47.5
2753.743	39.5
2757.236	46.5
2760.725	39.5
2764.211	42.5
2767.695	43.5
2771.175	42.5
2774.652	42.5
2778.127	52.5
2781.598	43.5
2785.067	50.5
2788.532	50.5
2791.995	48.5
2795.455	44.5
2798.911	51.5
2802.365	50.5
2805.816	51.5
2809.264	49.5
2812.709	55.5
2816.151	55.5
2819.59	53.5
2823.026	62.5
2826.46	64.5
2829.89	67.5
2833.318	63.5
2836.742	66.5
2840.164	65.5
2843.583	63.5
2846.999	73.5
2850.412	77.5
2853.822	77.5
2857.229	81.5
2860.634	84.5
2864.035	89.5
2867.434	90.5
2870.83	95.5
2874.223	95.5
2877.613	103.5
2881	102.5
2884.385	108.5
2887.766	98.5
2891.145	105.5
2894.521	112.5
2897.894	113.5
2901.264	115.5
2904.631	131.5
2907.996	123.5
2911.358	128.5
2914.717	129.5
2918.073	132.5
2921.426	136.5
2924.777	141.5
2928.124	148.5
2931.469	147.5
2934.811	160.5
2938.15	164.5
2941.487	166.5
2944.821	175.5
2948.152	177.5
2951.48	186.5
2954.805	180.5
2958.128	192.5
2961.447	199.5
2964.765	205.5
2968.079	218.5
2971.39	224.5
2974.699	232.5
2978.005	243.5
2981.308	258.5
2984.609	253.5
2987.907	259.5
2991.202	280.5
2994.494	289.5
2997.784	298.5
3001.07	306.5
3004.355	318.5
3007.636	338.5
3010.915	344.5
3014.191	357.5
3017.464	374.5
3020.734	374.5
3024.002	382.5
3027.267	396.5
3030.53	396.5
3033.789	405.5
3037.046	417.5
3040.301	431.5
3043.552	457.5
3046.801	466.5
3050.048	485.5
3053.291	500.5
3056.532	510.5
3059.771	532.5
3063.006	553.5
3066.239	569.5
3069.469	596.5
3072.697	608.5
3075.922	628.5
3079.144	655.5
3082.364	666.5
3085.581	685.5
3088.795	696.5
3092.007	729.5
3095.216	743.5
3098.423	749.5
3101.627	783.5
3104.828	801.5
3108.026	810.5
3111.222	850.5
3114.416	863.5
3117.607	884.5
3120.795	913.5
3123.98	925.5
3127.163	949.5
3130.344	982.5
3133.521	1005.5
3136.696	1035.5
3139.869	1053.5
3143.039	1067.5
3146.206	1086.5
3149.371	1111.5
3152.533	1124.5
3155.693	1113.5
3158.85	1131.5
3162.005	1137.5
3165.157	1154.5
3168.306	1154.5
3171.453	1146.5
3174.597	1169.5
3177.739	1177.5
3180.878	1183.5
3184.014	1183.5
3187.149	1183.5
3190.28	1174.5
3193.409	1181.5
3196.536	1184.5
3199.659	1175.5
3202.781	1194.5
3205.9	1207.5
3209.016	1200.5
3212.13	1187.5
3215.241	1194.5
3218.35	1195.5
3221.456	1183.5
3224.56	1159.5
3227.661	1147.5
3230.76	1142.5
3233.856	1137.5
3236.95	1116.5
3240.041	1113.5
3243.13	1107.5
3246.216	1115.5
3249.3	1100.5
3252.382	1093.5
3255.46	1081.5
3258.537	1091.5
3261.611	1076.5
3264.682	1089.5
3267.751	1077.5
3270.818	1075.5
3273.882	1063.5
3276.943	1059.5
3280.002	1053.5
3283.059	1035.5
3286.113	1023.5
3289.165	1001.5
3292.214	977.5
3295.261	976.5
3298.306	963.5
3301.348	948.5
3304.387	944.5
3307.425	926.5
3310.459	894.5
3313.492	892.5
3316.521	892.5
3319.549	878.5
3322.574	870.5
3325.597	869.5
3328.617	855.5
3331.635	858.5
3334.65	850.5
3337.663	852.5
3340.674	849.5
3343.682	830.5
3346.688	834.5
3349.691	828.5
3352.692	827.5
3355.691	815.5
3358.687	816.5
3361.681	808.5
3364.673	807.5
3367.662	790.5
3370.649	783.5
3373.633	758.5
3376.615	763.5
3379.595	743.5
3382.572	727.5
3385.547	725.5
3388.52	714.5
3391.49	703.5
3394.458	698.5
3397.424	688.5
3400.387	683.5
3403.348	673.5
3406.307	664.5
3409.263	662.5
3412.217	645.5
3415.168	650.5
3418.118	630.5
3421.065	630.5
3424.009	628.5
3426.951	610.5
3429.891	600.5
3432.829	591.5
3435.764	587.5
3438.697	581.5
3441.628	546.5
3444.557	538.5
3447.483	531.5
3450.407	503.5
3453.328	501.5
3456.247	485.5
3459.164	473.5
3462.079	455.5
3464.991	447.5
3467.902	437.5
3470.809	413.5
3473.715	402.5
3476.618	385.5
3479.519	368.5
3482.418	360.5
3485.315	353.5
3488.209	348.5
3491.101	334.5
3493.99	326.5
3496.878	311.5
3499.763	299.5
3502.646	291.5
3505.527	287.5
3508.405	262.5
3511.281	264.5
3514.155	251.5
3517.027	241.5
3519.897	227.5
3522.764	208.5
3525.629	200.5
3528.492	186.5
3531.352	182.5
3534.211	169.5
3537.067	160.5
3539.921	144.5
3542.773	136.5
3545.622	133.5
3548.469	122.5
3551.315	114.5
3554.157	107.5
3556.998	100.5
3559.837	86.5
3562.673	80.5
3565.507	76.5
3568.339	70.5
3571.169	64.5
3573.996	65.5
3576.822	56.5
3579.645	48.5
3582.466	44.5
3585.285	34.5
3588.101	26.5
3590.916	23.5
3593.728	18.5
3596.538	19.5
3599.346	12.5
3602.152	12.5
3604.956	3.5
3607.757	-1.5
3610.556	-6.5
3613.354	-7.5
3616.149	-9.5
3618.942	-15.5
3621.732	-18.5
3624.521	-28.5
3627.307	-25.5
3630.092	-30.5
3632.874	-31.5
3635.654	-34.5
3638.432	-31.5
3641.208	-40.5
3643.982	-40.5
3646.753	-46.5
3649.523	-46.5
3652.29	-49.5
3655.055	-50.5
3657.818	-52.5
3660.579	-56.5
3663.338	-58.5
3666.095	-63.5
3668.849	-65.5
3671.602	-65.5
3674.352	-69.5
3677.101	-68.5
3679.847	-72.5
3682.591	-73.5
3685.333	-75.5
3688.073	-80.5
3690.811	-79.5
3693.547	-84.5
3696.281	-82.5
3699.013	-83.5
3701.742	-85.5
3704.47	-84.5
3707.195	-84.5
3709.919	-85.5
3712.64	-85.5
3715.359	-86.5
3718.076	-88.5
3720.792	-89.5
3723.505	-93.5
3726.216	-95.5
3728.925	-97.5
3731.632	-88.5
3734.336	-97.5
3737.039	-93.5
3739.74	-95.5
3742.439	-92.5
3745.136	-95.5
3747.83	-96.5
3750.523	-98.5
3753.213	-101.5
3755.902	-101.5
3758.589	-98.5
3761.273	-100.5
3763.956	-101.5
3766.636	-99.5
3769.315	-102.5
3771.991	-97.5
3774.665	-104.5
3777.338	-98.5
3780.008	-104.5
3782.677	-102.5
3785.343	-104.5
3788.007	-103.5
3790.67	-106.5
3793.33	-100.5
3795.989	-105.5
3798.645	-106.5
3801.299	-98.5
3803.952	-103.5
3806.602	-103.5
3809.251	-102.5
3811.897	-105.5
3814.542	-103.5
3817.184	-100.5
3819.825	-107.5
3822.463	-107.5
3825.1	-109.5
3827.735	-106.5
3830.367	-108.5
3832.998	-108.5
3835.627	-104.5
3838.253	-105.5
3840.878	-106.5
3843.501	-107.5
3846.122	-106.5
3848.741	-104.5
3851.358	-110.5
3853.973	-107.5
3856.586	-108.5
3859.197	-110.5
3861.806	-108.5
3864.414	-108.5
3867.019	-107.5
3869.622	-104.5
3872.224	-106.5
3874.823	-104.5
3877.421	-100.5
3880.016	-104.5
3882.61	-101.5
3885.202	-102.5
3887.792	-102.5
3890.38	-102.5
3892.966	-103.5
3895.55	-108.5
3898.132	-107.5
3900.713	-106.5
3903.291	-106.5
3905.868	-110.5
3908.442	-112.5
3911.015	-108.5
3913.586	-111.5
3916.155	-110.5
3918.722	-109.5
3921.287	-106.5
3923.85	-104.5
3926.411	-106.5
3928.971	-110.5
3931.528	-108.5
3934.084	-112.5
3936.638	-111.5
3939.19	-110.5
3941.74	-110.5
3944.288	-114.5
3946.834	-109.5
3949.378	-112.5
3951.921	-111.5
3954.462	-105.5
3957	-107.5
3959.537	-113.5
3962.072	-110.5
3964.606	-111.5
3967.137	-113.5
3969.667	-113.5
3972.194	-112.5
3974.72	-111.5
3977.244	-107.5
3979.766	-109.5
3982.286	-105.5
3984.805	-112.5
3987.321	-106.5
3989.836	-108.5
3992.349	-108.5
3994.86	-110.5
3997.369	-114.5
3999.877	-115.5
4002.382	-111.5
4004.886	-107.5
4007.388	-108.5
4009.888	-108.5
4012.386	-109.5
4014.883	-106.5
4017.377	-110.5
4019.87	-108.5
4022.361	-109.5
4024.85	-110.5
4027.338	-110.5
4029.823	-110.5
4032.307	-114.5
4034.789	-109.5
4037.269	-110.5
4039.747	-105.5
4042.224	-108.5
4044.699	-111.5
4047.172	-113.5
4049.643	-112.5
4052.112	-114.5
4054.58	-110.5
4057.046	-109.5
4059.51	-113.5
4061.972	-113.5
4064.432	-107.5
4066.891	-105.5
4069.348	-108.5
4071.803	-111.5
4074.256	-111.5
4076.708	-113.5
4079.158	-112.5
4081.606	-111.5
4084.052	-113.5
4086.497	-111.5
4088.939	-104.5
4091.38	-106.5
4093.819	-108.5
4096.257	-111.5
4098.693	-114.5
4101.127	-114.5
4103.559	-114.5
4105.989	-78.5
4108.418	-68.5
4110.845	-70.5
4113.27	-71.5
4115.694	-64.5
4118.115	-49.5
4120.535	-109.5
4122.954	-111.5
4125.37	-112.5
4127.785	-114.5
4130.198	-110.5
4132.609	-112.5
4135.019	-114.5
4137.427	-111.5
4139.833	-111.5
4142.237	-111.5
