Data from B.sub_water_1000000CFUB3_RamanShift_1.txt Node
Date: Wed Mar 08 16:07:51 IST 2017
User: aro
Spectrometer: QEPB0276
Trigger mode: 0
Integration Time (sec): 5.000000E0
Scans to average: 1
Electric dark correction enabled: true
Nonlinearity correction enabled: false
Boxcar width: 0
XAxis mode: Raman Shifts
Number of Pixels in Spectrum: 1044
>>>>>Begin Spectral Data<<<<<
160.701	-27.5
166.742	-1.5
172.777	71.5
178.805	300.5
184.826	818.5
190.841	1703.5
196.849	2684.5
202.85	3295.5
208.845	3428.5
214.833	3299.5
220.815	3191.5
226.789	3111.5
232.758	3007.5
238.719	2917.5
244.674	2828.5
250.623	2669.5
256.565	2554.5
262.5	2432.5
268.429	2330.5
274.351	2227.5
280.267	2120.5
286.176	2071.5
292.079	1981.5
297.975	1937.5
303.865	1863.5
309.748	1830.5
315.625	1774.5
321.495	1751.5
327.359	1714.5
333.217	1709.5
339.068	1692.5
344.912	1685.5
350.751	1683.5
356.583	1683.5
362.408	1668.5
368.227	1669.5
374.04	1678.5
379.847	1708.5
385.647	1686.5
391.44	1704.5
397.228	1718.5
403.009	1712.5
408.784	1727.5
414.553	1751.5
420.315	1744.5
426.071	1741.5
431.821	1752.5
437.565	1736.5
443.302	1736.5
449.033	1724.5
454.758	1720.5
460.477	1719.5
466.189	1708.5
471.896	1673.5
477.596	1664.5
483.29	1667.5
488.978	1651.5
494.66	1634.5
500.335	1626.5
506.005	1590.5
511.668	1559.5
517.325	1528.5
522.977	1485.5
528.622	1458.5
534.261	1462.5
539.894	1427.5
545.521	1423.5
551.141	1408.5
556.756	1401.5
562.365	1396.5
567.968	1363.5
573.565	1358.5
579.155	1367.5
584.74	1338.5
590.319	1334.5
595.892	1329.5
601.459	1299.5
607.02	1306.5
612.575	1294.5
618.124	1293.5
623.667	1262.5
629.204	1255.5
634.735	1262.5
640.261	1228.5
645.781	1227.5
651.294	1202.5
656.802	1199.5
662.304	1202.5
667.8	1198.5
673.29	1191.5
678.775	1169.5
684.254	1182.5
689.726	1151.5
695.193	1147.5
700.655	1150.5
706.11	1140.5
711.56	1125.5
717.004	1125.5
722.442	1140.5
727.874	1111.5
733.301	1085.5
738.722	1091.5
744.137	1091.5
749.547	1101.5
754.951	1075.5
760.349	1086.5
765.741	1076.5
771.128	1078.5
776.509	1070.5
781.885	1068.5
787.254	1065.5
792.618	1070.5
797.977	1059.5
803.33	1045.5
808.677	1023.5
814.019	1029.5
819.355	1022.5
824.686	993.5
830.011	993.5
835.33	989.5
840.644	976.5
845.952	977.5
851.255	979.5
856.552	947.5
861.844	958.5
867.13	951.5
872.41	935.5
877.686	931.5
882.955	901.5
888.219	890.5
893.478	873.5
898.731	858.5
903.979	847.5
909.221	837.5
914.458	831.5
919.69	824.5
924.916	821.5
930.136	808.5
935.351	806.5
940.561	815.5
945.766	795.5
950.965	796.5
956.158	789.5
961.347	785.5
966.529	766.5
971.707	757.5
976.879	736.5
982.046	723.5
987.208	746.5
992.364	733.5
997.515	728.5
1002.66	737.5
1007.801	742.5
1012.936	748.5
1018.066	776.5
1023.19	769.5
1028.309	760.5
1033.423	774.5
1038.532	753.5
1043.636	752.5
1048.734	729.5
1053.827	729.5
1058.915	720.5
1063.998	718.5
1069.075	712.5
1074.147	709.5
1079.214	727.5
1084.276	730.5
1089.333	732.5
1094.385	733.5
1099.431	741.5
1104.472	730.5
1109.509	725.5
1114.54	715.5
1119.565	708.5
1124.586	695.5
1129.602	683.5
1134.613	678.5
1139.618	676.5
1144.619	684.5
1149.614	686.5
1154.604	677.5
1159.589	696.5
1164.57	674.5
1169.545	688.5
1174.515	689.5
1179.48	703.5
1184.44	674.5
1189.395	685.5
1194.345	675.5
1199.29	665.5
1204.23	680.5
1209.165	674.5
1214.095	685.5
1219.021	680.5
1223.941	684.5
1228.856	686.5
1233.766	696.5
1238.672	692.5
1243.572	683.5
1248.467	686.5
1253.358	666.5
1258.244	674.5
1263.124	655.5
1268	656.5
1272.871	643.5
1277.737	636.5
1282.599	632.5
1287.455	628.5
1292.306	643.5
1297.153	627.5
1301.995	644.5
1306.832	638.5
1311.664	645.5
1316.491	645.5
1321.314	641.5
1326.132	633.5
1330.945	617.5
1335.753	604.5
1340.556	599.5
1345.354	577.5
1350.148	563.5
1354.937	566.5
1359.722	571.5
1364.501	585.5
1369.276	586.5
1374.046	601.5
1378.811	606.5
1383.572	603.5
1388.327	595.5
1393.079	572.5
1397.825	571.5
1402.567	560.5
1407.304	569.5
1412.036	558.5
1416.764	559.5
1421.487	555.5
1426.205	538.5
1430.919	545.5
1435.628	551.5
1440.333	563.5
1445.032	564.5
1449.727	566.5
1454.418	577.5
1459.104	576.5
1463.785	546.5
1468.462	554.5
1473.134	542.5
1477.802	538.5
1482.465	550.5
1487.123	539.5
1491.777	555.5
1496.426	551.5
1501.071	565.5
1505.711	563.5
1510.347	579.5
1514.978	591.5
1519.604	599.5
1524.226	597.5
1528.844	620.5
1533.457	610.5
1538.065	601.5
1542.669	598.5
1547.269	603.5
1551.864	622.5
1556.454	618.5
1561.041	617.5
1565.622	629.5
1570.199	631.5
1574.772	649.5
1579.34	660.5
1583.904	670.5
1588.464	682.5
1593.019	696.5
1597.569	708.5
1602.115	717.5
1606.657	730.5
1611.195	740.5
1615.728	731.5
1620.256	749.5
1624.78	764.5
1629.3	786.5
1633.816	804.5
1638.327	811.5
1642.834	822.5
1647.336	832.5
1651.834	831.5
1656.328	812.5
1660.817	819.5
1665.302	796.5
1669.783	770.5
1674.259	765.5
1678.732	725.5
1683.199	693.5
1687.663	650.5
1692.122	634.5
1696.577	604.5
1701.028	590.5
1705.474	583.5
1709.917	570.5
1714.355	546.5
1718.788	525.5
1723.218	510.5
1727.643	484.5
1732.064	467.5
1736.481	454.5
1740.893	427.5
1745.301	422.5
1749.705	403.5
1754.105	393.5
1758.501	375.5
1762.893	363.5
1767.28	349.5
1771.663	346.5
1776.042	349.5
1780.417	342.5
1784.787	352.5
1789.154	361.5
1793.516	351.5
1797.874	350.5
1802.228	354.5
1806.578	346.5
1810.924	344.5
1815.266	343.5
1819.603	334.5
1823.937	320.5
1828.266	318.5
1832.591	314.5
1836.913	310.5
1841.23	307.5
1845.543	307.5
1849.852	305.5
1854.156	302.5
1858.457	302.5
1862.754	296.5
1867.047	300.5
1871.335	302.5
1875.62	304.5
1879.9	307.5
1884.177	302.5
1888.449	298.5
1892.718	310.5
1896.982	292.5
1901.243	298.5
1905.499	300.5
1909.752	297.5
1914	303.5
1918.245	295.5
1922.485	304.5
1926.722	310.5
1930.954	315.5
1935.183	307.5
1939.408	308.5
1943.628	308.5
1947.845	314.5
1952.058	314.5
1956.267	312.5
1960.472	316.5
1964.673	301.5
1968.87	300.5
1973.063	299.5
1977.252	297.5
1981.438	290.5
1985.619	291.5
1989.797	290.5
1993.971	293.5
1998.14	304.5
2002.306	300.5
2006.469	296.5
2010.627	299.5
2014.781	300.5
2018.932	298.5
2023.078	297.5
2027.221	302.5
2031.36	287.5
2035.495	291.5
2039.627	292.5
2043.754	291.5
2047.878	285.5
2051.998	286.5
2056.114	293.5
2060.226	296.5
2064.334	308.5
2068.439	304.5
2072.54	302.5
2076.637	296.5
2080.73	301.5
2084.82	304.5
2088.906	311.5
2092.988	304.5
2097.066	307.5
2101.14	308.5
2105.211	304.5
2109.278	306.5
2113.342	298.5
2117.401	302.5
2121.457	293.5
2125.509	295.5
2129.558	304.5
2133.602	298.5
2137.643	295.5
2141.681	298.5
2145.714	286.5
2149.744	283.5
2153.77	280.5
2157.793	272.5
2161.812	270.5
2165.827	267.5
2169.838	262.5
2173.846	255.5
2177.851	244.5
2181.851	256.5
2185.848	241.5
2189.841	244.5
2193.831	237.5
2197.817	237.5
2201.799	235.5
2205.778	235.5
2209.753	231.5
2213.725	229.5
2217.693	230.5
2221.657	228.5
2225.618	229.5
2229.575	222.5
2233.529	229.5
2237.479	224.5
2241.425	221.5
2245.368	208.5
2249.307	205.5
2253.243	205.5
2257.175	205.5
2261.104	200.5
2265.029	194.5
2268.95	195.5
2272.868	195.5
2276.783	189.5
2280.694	178.5
2284.601	179.5
2288.505	171.5
2292.405	174.5
2296.302	172.5
2300.195	170.5
2304.085	170.5
2307.971	160.5
2311.854	162.5
2315.734	154.5
2319.609	152.5
2323.482	144.5
2327.351	143.5
2331.216	146.5
2335.078	146.5
2338.937	149.5
2342.792	132.5
2346.643	137.5
2350.492	135.5
2354.336	133.5
2358.178	128.5
2362.015	128.5
2365.85	131.5
2369.681	131.5
2373.508	131.5
2377.333	125.5
2381.153	130.5
2384.971	127.5
2388.785	126.5
2392.595	123.5
2396.402	119.5
2400.206	113.5
2404.007	118.5
2407.804	120.5
2411.597	119.5
2415.388	123.5
2419.174	119.5
2422.958	117.5
2426.738	116.5
2430.515	115.5
2434.289	108.5
2438.059	108.5
2441.825	110.5
2445.589	107.5
2449.349	109.5
2453.106	103.5
2456.859	100.5
2460.61	103.5
2464.356	97.5
2468.1	102.5
2471.84	96.5
2475.577	98.5
2479.311	95.5
2483.041	95.5
2486.768	103.5
2490.492	98.5
2494.213	94.5
2497.93	92.5
2501.644	93.5
2505.355	90.5
2509.062	95.5
2512.766	91.5
2516.467	92.5
2520.165	87.5
2523.859	90.5
2527.551	90.5
2531.239	85.5
2534.923	90.5
2538.605	90.5
2542.283	83.5
2545.958	88.5
2549.63	83.5
2553.299	81.5
2556.964	86.5
2560.626	81.5
2564.285	86.5
2567.941	77.5
2571.594	81.5
2575.243	81.5
2578.89	75.5
2582.533	79.5
2586.173	80.5
2589.809	79.5
2593.443	78.5
2597.073	81.5
2600.701	81.5
2604.325	81.5
2607.946	80.5
2611.564	70.5
2615.178	71.5
2618.79	71.5
2622.398	70.5
2626.004	66.5
2629.606	70.5
2633.205	70.5
2636.801	71.5
2640.394	67.5
2643.983	61.5
2647.57	63.5
2651.153	63.5
2654.734	62.5
2658.311	61.5
2661.885	58.5
2665.456	63.5
2669.025	58.5
2672.589	62.5
2676.151	52.5
2679.71	55.5
2683.266	53.5
2686.819	51.5
2690.368	52.5
2693.915	49.5
2697.458	46.5
2700.999	45.5
2704.536	49.5
2708.071	53.5
2711.602	49.5
2715.13	49.5
2718.656	43.5
2722.178	50.5
2725.697	44.5
2729.214	43.5
2732.727	46.5
2736.237	47.5
2739.744	49.5
2743.249	53.5
2746.75	51.5
2750.248	57.5
2753.743	55.5
2757.236	55.5
2760.725	47.5
2764.211	42.5
2767.695	55.5
2771.175	53.5
2774.652	56.5
2778.127	63.5
2781.598	60.5
2785.067	58.5
2788.532	66.5
2791.995	62.5
2795.455	62.5
2798.911	63.5
2802.365	50.5
2805.816	56.5
2809.264	64.5
2812.709	64.5
2816.151	57.5
2819.59	62.5
2823.026	68.5
2826.46	65.5
2829.89	71.5
2833.318	69.5
2836.742	65.5
2840.164	74.5
2843.583	75.5
2846.999	77.5
2850.412	77.5
2853.822	82.5
2857.229	83.5
2860.634	84.5
2864.035	86.5
2867.434	90.5
2870.83	90.5
2874.223	91.5
2877.613	106.5
2881	105.5
2884.385	94.5
2887.766	103.5
2891.145	104.5
2894.521	101.5
2897.894	105.5
2901.264	108.5
2904.631	117.5
2907.996	113.5
2911.358	125.5
2914.717	112.5
2918.073	121.5
2921.426	128.5
2924.777	132.5
2928.124	135.5
2931.469	141.5
2934.811	143.5
2938.15	144.5
2941.487	153.5
2944.821	151.5
2948.152	158.5
2951.48	165.5
2954.805	160.5
2958.128	168.5
2961.447	174.5
2964.765	181.5
2968.079	185.5
2971.39	186.5
2974.699	184.5
2978.005	204.5
2981.308	216.5
2984.609	208.5
2987.907	229.5
2991.202	234.5
2994.494	241.5
2997.784	255.5
3001.07	266.5
3004.355	271.5
3007.636	275.5
3010.915	287.5
3014.191	287.5
3017.464	304.5
3020.734	307.5
3024.002	308.5
3027.267	316.5
3030.53	327.5
3033.789	329.5
3037.046	338.5
3040.301	359.5
3043.552	363.5
3046.801	381.5
3050.048	386.5
3053.291	396.5
3056.532	415.5
3059.771	423.5
3063.006	432.5
3066.239	455.5
3069.469	469.5
3072.697	483.5
3075.922	500.5
3079.144	511.5
3082.364	524.5
3085.581	537.5
3088.795	563.5
3092.007	564.5
3095.216	570.5
3098.423	597.5
3101.627	618.5
3104.828	638.5
3108.026	636.5
3111.222	678.5
3114.416	679.5
3117.607	690.5
3120.795	710.5
3123.98	732.5
3127.163	745.5
3130.344	765.5
3133.521	774.5
3136.696	798.5
3139.869	833.5
3143.039	846.5
3146.206	843.5
3149.371	863.5
3152.533	878.5
3155.693	886.5
3158.85	896.5
3162.005	894.5
3165.157	896.5
3168.306	906.5
3171.453	892.5
3174.597	900.5
3177.739	904.5
3180.878	917.5
3184.014	913.5
3187.149	924.5
3190.28	925.5
3193.409	933.5
3196.536	941.5
3199.659	932.5
3202.781	949.5
3205.9	953.5
3209.016	940.5
3212.13	939.5
3215.241	942.5
3218.35	935.5
3221.456	920.5
3224.56	917.5
3227.661	911.5
3230.76	902.5
3233.856	899.5
3236.95	892.5
3240.041	879.5
3243.13	867.5
3246.216	864.5
3249.3	872.5
3252.382	864.5
3255.46	859.5
3258.537	850.5
3261.611	856.5
3264.682	845.5
3267.751	846.5
3270.818	844.5
3273.882	837.5
3276.943	842.5
3280.002	824.5
3283.059	815.5
3286.113	812.5
3289.165	799.5
3292.214	795.5
3295.261	770.5
3298.306	762.5
3301.348	741.5
3304.387	738.5
3307.425	739.5
3310.459	708.5
3313.492	706.5
3316.521	702.5
3319.549	697.5
3322.574	685.5
3325.597	675.5
3328.617	677.5
3331.635	667.5
3334.65	676.5
3337.663	662.5
3340.674	670.5
3343.682	667.5
3346.688	657.5
3349.691	654.5
3352.692	653.5
3355.691	633.5
3358.687	643.5
3361.681	638.5
3364.673	628.5
3367.662	622.5
3370.649	629.5
3373.633	603.5
3376.615	599.5
3379.595	585.5
3382.572	583.5
3385.547	573.5
3388.52	554.5
3391.49	560.5
3394.458	552.5
3397.424	551.5
3400.387	549.5
3403.348	534.5
3406.307	532.5
3409.263	517.5
3412.217	520.5
3415.168	509.5
3418.118	505.5
3421.065	504.5
3424.009	491.5
3426.951	481.5
3429.891	482.5
3432.829	471.5
3435.764	459.5
3438.697	452.5
3441.628	431.5
3444.557	425.5
3447.483	413.5
3450.407	403.5
3453.328	401.5
3456.247	394.5
3459.164	371.5
3462.079	365.5
3464.991	357.5
3467.902	342.5
3470.809	325.5
3473.715	312.5
3476.618	318.5
3479.519	304.5
3482.418	285.5
3485.315	273.5
3488.209	277.5
3491.101	275.5
3493.99	259.5
3496.878	243.5
3499.763	239.5
3502.646	232.5
3505.527	228.5
3508.405	215.5
3511.281	212.5
3514.155	198.5
3517.027	190.5
3519.897	181.5
3522.764	172.5
3525.629	159.5
3528.492	154.5
3531.352	142.5
3534.211	138.5
3537.067	130.5
3539.921	123.5
3542.773	114.5
3545.622	109.5
3548.469	101.5
3551.315	94.5
3554.157	93.5
3556.998	81.5
3559.837	70.5
3562.673	74.5
3565.507	65.5
3568.339	63.5
3571.169	59.5
3573.996	50.5
3576.822	51.5
3579.645	44.5
3582.466	40.5
3585.285	34.5
3588.101	28.5
3590.916	23.5
3593.728	23.5
3596.538	17.5
3599.346	17.5
3602.152	12.5
3604.956	8.5
3607.757	-1.5
3610.556	-2.5
3613.354	-3.5
3616.149	-8.5
3618.942	-12.5
3621.732	-8.5
3624.521	-16.5
3627.307	-12.5
3630.092	-18.5
3632.874	-21.5
3635.654	-19.5
3638.432	-23.5
3641.208	-27.5
3643.982	-27.5
3646.753	-28.5
3649.523	-32.5
3652.29	-30.5
3655.055	-31.5
3657.818	-35.5
3660.579	-34.5
3663.338	-38.5
3666.095	-46.5
3668.849	-47.5
3671.602	-52.5
3674.352	-50.5
3677.101	-51.5
3679.847	-53.5
3682.591	-54.5
3685.333	-56.5
3688.073	-59.5
3690.811	-58.5
3693.547	-59.5
3696.281	-54.5
3699.013	-59.5
3701.742	-58.5
3704.47	-62.5
3707.195	-56.5
3709.919	-59.5
3712.64	-61.5
3715.359	-63.5
3718.076	-65.5
3720.792	-66.5
3723.505	-70.5
3726.216	-72.5
3728.925	-68.5
3731.632	-70.5
3734.336	-66.5
3737.039	-67.5
3739.74	-70.5
3742.439	-68.5
3745.136	-72.5
3747.83	-70.5
3750.523	-72.5
3753.213	-72.5
3755.902	-73.5
3758.589	-76.5
3761.273	-74.5
3763.956	-76.5
3766.636	-72.5
3769.315	-75.5
3771.991	-73.5
3774.665	-76.5
3777.338	-76.5
3780.008	-77.5
3782.677	-74.5
3785.343	-74.5
3788.007	-73.5
3790.67	-72.5
3793.33	-73.5
3795.989	-77.5
3798.645	-78.5
3801.299	-75.5
3803.952	-76.5
3806.602	-80.5
3809.251	-82.5
3811.897	-84.5
3814.542	-80.5
3817.184	-77.5
3819.825	-76.5
3822.463	-80.5
3825.1	-76.5
3827.735	-79.5
3830.367	-80.5
3832.998	-83.5
3835.627	-78.5
3838.253	-80.5
3840.878	-80.5
3843.501	-79.5
3846.122	-76.5
3848.741	-80.5
3851.358	-79.5
3853.973	-79.5
3856.586	-80.5
3859.197	-82.5
3861.806	-82.5
3864.414	-83.5
3867.019	-84.5
3869.622	-79.5
3872.224	-81.5
3874.823	-77.5
3877.421	-73.5
3880.016	-77.5
3882.61	-71.5
3885.202	-71.5
3887.792	-74.5
3890.38	-81.5
3892.966	-77.5
3895.55	-80.5
3898.132	-79.5
3900.713	-82.5
3903.291	-80.5
3905.868	-85.5
3908.442	-84.5
3911.015	-84.5
3913.586	-87.5
3916.155	-85.5
3918.722	-83.5
3921.287	-80.5
3923.85	-80.5
3926.411	-80.5
3928.971	-84.5
3931.528	-80.5
3934.084	-84.5
3936.638	-82.5
3939.19	-79.5
3941.74	-82.5
3944.288	-83.5
3946.834	-86.5
3949.378	-84.5
3951.921	-83.5
3954.462	-85.5
3957	-84.5
3959.537	-86.5
3962.072	-82.5
3964.606	-85.5
3967.137	-86.5
3969.667	-80.5
3972.194	-84.5
3974.72	-80.5
3977.244	-80.5
3979.766	-78.5
3982.286	-79.5
3984.805	-85.5
3987.321	-82.5
3989.836	-78.5
3992.349	-84.5
3994.86	-86.5
3997.369	-85.5
3999.877	-86.5
4002.382	-82.5
4004.886	-82.5
4007.388	-81.5
4009.888	-78.5
4012.386	-83.5
4014.883	-80.5
4017.377	-83.5
4019.87	-82.5
4022.361	-82.5
4024.85	-83.5
4027.338	-85.5
4029.823	-83.5
4032.307	-84.5
4034.789	-81.5
4037.269	-84.5
4039.747	-85.5
4042.224	-83.5
4044.699	-80.5
4047.172	-86.5
4049.643	-82.5
4052.112	-83.5
4054.58	-79.5
4057.046	-82.5
4059.51	-82.5
4061.972	-85.5
4064.432	-79.5
4066.891	-79.5
4069.348	-84.5
4071.803	-88.5
4074.256	-85.5
4076.708	-84.5
4079.158	-84.5
4081.606	-83.5
4084.052	-84.5
4086.497	-82.5
4088.939	-78.5
4091.38	-81.5
4093.819	-80.5
4096.257	-85.5
4098.693	-86.5
4101.127	-87.5
4103.559	-89.5
4105.989	-58.5
4108.418	-50.5
4110.845	-48.5
4113.27	-46.5
4115.694	-43.5
4118.115	-34.5
4120.535	-83.5
4122.954	-84.5
4125.37	-85.5
4127.785	-85.5
4130.198	-82.5
4132.609	-79.5
4135.019	-84.5
4137.427	-84.5
4139.833	-87.5
4142.237	-86.5
