Data from 10000CFU3_C_ramanshift_RamanShift_15-26-17-544.txt Node
Date: Sun Dec 25 15:26:17 IST 2016
User: aro
Spectrometer: QEPB0276
Trigger mode: 0
Integration Time (sec): 5.000000E0
Scans to average: 1
Electric dark correction enabled: true
Nonlinearity correction enabled: false
Boxcar width: 0
XAxis mode: Raman Shifts
Number of Pixels in Spectrum: 1044
>>>>>Begin Spectral Data<<<<<
160.701	3.75
166.742	20.75
172.777	70.75
178.805	209.75
184.826	627.75
190.841	1489.75
196.849	2772.75
202.85	3971.75
208.845	4564.75
214.833	4582.75
220.815	4400.75
226.789	4245.75
232.758	4155.75
238.719	4017.75
244.674	3901.75
250.623	3718.75
256.565	3570.75
262.5	3409.75
268.429	3246.75
274.351	3118.75
280.267	2989.75
286.176	2879.75
292.079	2772.75
297.975	2654.75
303.865	2564.75
309.748	2493.75
315.625	2425.75
321.495	2361.75
327.359	2311.75
333.217	2289.75
339.068	2236.75
344.912	2248.75
350.751	2226.75
356.583	2218.75
362.408	2209.75
368.227	2210.75
374.04	2218.75
379.847	2229.75
385.647	2247.75
391.44	2244.75
397.228	2269.75
403.009	2271.75
408.784	2299.75
414.553	2298.75
420.315	2288.75
426.071	2298.75
431.821	2300.75
437.565	2294.75
443.302	2315.75
449.033	2294.75
454.758	2299.75
460.477	2287.75
466.189	2268.75
471.896	2258.75
477.596	2254.75
483.29	2236.75
488.978	2228.75
494.66	2238.75
500.335	2208.75
506.005	2174.75
511.668	2170.75
517.325	2105.75
522.977	2054.75
528.622	2050.75
534.261	2019.75
539.894	2001.75
545.521	1991.75
551.141	1962.75
556.756	1948.75
562.365	1950.75
567.968	1926.75
573.565	1927.75
579.155	1910.75
584.74	1895.75
590.319	1895.75
595.892	1890.75
601.459	1870.75
607.02	1860.75
612.575	1837.75
618.124	1831.75
623.667	1819.75
629.204	1799.75
634.735	1795.75
640.261	1752.75
645.781	1750.75
651.294	1735.75
656.802	1734.75
662.304	1733.75
667.8	1704.75
673.29	1703.75
678.775	1694.75
684.254	1707.75
689.726	1696.75
695.193	1699.75
700.655	1672.75
706.11	1670.75
711.56	1645.75
717.004	1645.75
722.442	1651.75
727.874	1637.75
733.301	1616.75
738.722	1627.75
744.137	1624.75
749.547	1582.75
754.951	1610.75
760.349	1586.75
765.741	1594.75
771.128	1584.75
776.509	1590.75
781.885	1601.75
787.254	1597.75
792.618	1586.75
797.977	1585.75
803.33	1557.75
808.677	1571.75
814.019	1537.75
819.355	1538.75
824.686	1508.75
830.011	1515.75
835.33	1500.75
840.644	1495.75
845.952	1499.75
851.255	1484.75
856.552	1475.75
861.844	1452.75
867.13	1445.75
872.41	1456.75
877.686	1461.75
882.955	1465.75
888.219	1442.75
893.478	1419.75
898.731	1381.75
903.979	1364.75
909.221	1330.75
914.458	1310.75
919.69	1310.75
924.916	1310.75
930.136	1308.75
935.351	1295.75
940.561	1302.75
945.766	1297.75
950.965	1283.75
956.158	1281.75
961.347	1267.75
966.529	1244.75
971.707	1230.75
976.879	1229.75
982.046	1215.75
987.208	1216.75
992.364	1201.75
997.515	1207.75
1002.66	1214.75
1007.801	1211.75
1012.936	1231.75
1018.066	1238.75
1023.19	1260.75
1028.309	1243.75
1033.423	1248.75
1038.532	1259.75
1043.636	1241.75
1048.734	1236.75
1053.827	1238.75
1058.915	1226.75
1063.998	1215.75
1069.075	1187.75
1074.147	1182.75
1079.214	1198.75
1084.276	1216.75
1089.333	1201.75
1094.385	1221.75
1099.431	1231.75
1104.472	1239.75
1109.509	1231.75
1114.54	1231.75
1119.565	1218.75
1124.586	1175.75
1129.602	1191.75
1134.613	1160.75
1139.618	1157.75
1144.619	1153.75
1149.614	1182.75
1154.604	1164.75
1159.589	1178.75
1164.57	1171.75
1169.545	1187.75
1174.515	1178.75
1179.48	1193.75
1184.44	1176.75
1189.395	1168.75
1194.345	1165.75
1199.29	1162.75
1204.23	1169.75
1209.165	1146.75
1214.095	1175.75
1219.021	1180.75
1223.941	1177.75
1228.856	1200.75
1233.766	1195.75
1238.672	1201.75
1243.572	1201.75
1248.467	1211.75
1253.358	1190.75
1258.244	1187.75
1263.124	1158.75
1268	1132.75
1272.871	1139.75
1277.737	1131.75
1282.599	1120.75
1287.455	1131.75
1292.306	1109.75
1297.153	1137.75
1301.995	1134.75
1306.832	1152.75
1311.664	1146.75
1316.491	1157.75
1321.314	1141.75
1326.132	1154.75
1330.945	1146.75
1335.753	1119.75
1340.556	1105.75
1345.354	1105.75
1350.148	1083.75
1354.937	1083.75
1359.722	1073.75
1364.501	1059.75
1369.276	1056.75
1374.046	1056.75
1378.811	1042.75
1383.572	1025.75
1388.327	1032.75
1393.079	1055.75
1397.825	1039.75
1402.567	1029.75
1407.304	1018.75
1412.036	1020.75
1416.764	1023.75
1421.487	1022.75
1426.205	1016.75
1430.919	1026.75
1435.628	1030.75
1440.333	1049.75
1445.032	1059.75
1449.727	1059.75
1454.418	1071.75
1459.104	1079.75
1463.785	1090.75
1468.462	1066.75
1473.134	1057.75
1477.802	1049.75
1482.465	1036.75
1487.123	1027.75
1491.777	1028.75
1496.426	1031.75
1501.071	1032.75
1505.711	1015.75
1510.347	1034.75
1514.978	1062.75
1519.604	1076.75
1524.226	1070.75
1528.844	1071.75
1533.457	1089.75
1538.065	1082.75
1542.669	1061.75
1547.269	1067.75
1551.864	1066.75
1556.454	1065.75
1561.041	1086.75
1565.622	1086.75
1570.199	1104.75
1574.772	1116.75
1579.34	1142.75
1583.904	1142.75
1588.464	1174.75
1593.019	1200.75
1597.569	1215.75
1602.115	1216.75
1606.657	1233.75
1611.195	1245.75
1615.728	1261.75
1620.256	1262.75
1624.78	1274.75
1629.3	1306.75
1633.816	1301.75
1638.327	1330.75
1642.834	1352.75
1647.336	1375.75
1651.834	1360.75
1656.328	1368.75
1660.817	1352.75
1665.302	1363.75
1669.783	1320.75
1674.259	1311.75
1678.732	1274.75
1683.199	1241.75
1687.663	1199.75
1692.122	1176.75
1696.577	1129.75
1701.028	1077.75
1705.474	1033.75
1709.917	992.75
1714.355	953.75
1718.788	959.75
1723.218	940.75
1727.643	930.75
1732.064	908.75
1736.481	864.75
1740.893	861.75
1745.301	849.75
1749.705	824.75
1754.105	805.75
1758.501	787.75
1762.893	768.75
1767.28	759.75
1771.663	757.75
1776.042	738.75
1780.417	746.75
1784.787	733.75
1789.154	735.75
1793.516	733.75
1797.874	744.75
1802.228	741.75
1806.578	728.75
1810.924	698.75
1815.266	697.75
1819.603	696.75
1823.937	697.75
1828.266	681.75
1832.591	673.75
1836.913	661.75
1841.23	681.75
1845.543	673.75
1849.852	664.75
1854.156	668.75
1858.457	667.75
1862.754	682.75
1867.047	668.75
1871.335	674.75
1875.62	684.75
1879.9	691.75
1884.177	682.75
1888.449	685.75
1892.718	675.75
1896.982	677.75
1901.243	670.75
1905.499	669.75
1909.752	676.75
1914	670.75
1918.245	668.75
1922.485	671.75
1926.722	683.75
1930.954	674.75
1935.183	667.75
1939.408	680.75
1943.628	682.75
1947.845	682.75
1952.058	679.75
1956.267	678.75
1960.472	669.75
1964.673	655.75
1968.87	658.75
1973.063	651.75
1977.252	656.75
1981.438	639.75
1985.619	632.75
1989.797	641.75
1993.971	647.75
1998.14	649.75
2002.306	648.75
2006.469	661.75
2010.627	659.75
2014.781	657.75
2018.932	665.75
2023.078	662.75
2027.221	654.75
2031.36	661.75
2035.495	651.75
2039.627	641.75
2043.754	647.75
2047.878	655.75
2051.998	645.75
2056.114	639.75
2060.226	641.75
2064.334	640.75
2068.439	654.75
2072.54	654.75
2076.637	662.75
2080.73	655.75
2084.82	657.75
2088.906	660.75
2092.988	670.75
2097.066	673.75
2101.14	651.75
2105.211	643.75
2109.278	636.75
2113.342	638.75
2117.401	646.75
2121.457	633.75
2125.509	644.75
2129.558	642.75
2133.602	630.75
2137.643	625.75
2141.681	635.75
2145.714	631.75
2149.744	618.75
2153.77	617.75
2157.793	641.75
2161.812	620.75
2165.827	612.75
2169.838	600.75
2173.846	587.75
2177.851	579.75
2181.851	577.75
2185.848	570.75
2189.841	563.75
2193.831	569.75
2197.817	565.75
2201.799	539.75
2205.778	551.75
2209.753	545.75
2213.725	551.75
2217.693	547.75
2221.657	547.75
2225.618	547.75
2229.575	546.75
2233.529	558.75
2237.479	545.75
2241.425	546.75
2245.368	539.75
2249.307	524.75
2253.243	519.75
2257.175	519.75
2261.104	514.75
2265.029	498.75
2268.95	495.75
2272.868	501.75
2276.783	494.75
2280.694	485.75
2284.601	481.75
2288.505	470.75
2292.405	478.75
2296.302	464.75
2300.195	455.75
2304.085	447.75
2307.971	445.75
2311.854	433.75
2315.734	432.75
2319.609	416.75
2323.482	420.75
2327.351	430.75
2331.216	422.75
2335.078	409.75
2338.937	408.75
2342.792	401.75
2346.643	403.75
2350.492	393.75
2354.336	409.75
2358.178	414.75
2362.015	405.75
2365.85	406.75
2369.681	403.75
2373.508	404.75
2377.333	410.75
2381.153	406.75
2384.971	408.75
2388.785	396.75
2392.595	411.75
2396.402	392.75
2400.206	399.75
2404.007	399.75
2407.804	392.75
2411.597	403.75
2415.388	396.75
2419.174	395.75
2422.958	387.75
2426.738	389.75
2430.515	390.75
2434.289	385.75
2438.059	380.75
2441.825	372.75
2445.589	368.75
2449.349	375.75
2453.106	368.75
2456.859	377.75
2460.61	381.75
2464.356	369.75
2468.1	365.75
2471.84	353.75
2475.577	354.75
2479.311	356.75
2483.041	351.75
2486.768	359.75
2490.492	364.75
2494.213	363.75
2497.93	360.75
2501.644	357.75
2505.355	349.75
2509.062	349.75
2512.766	347.75
2516.467	353.75
2520.165	355.75
2523.859	343.75
2527.551	342.75
2531.239	336.75
2534.923	336.75
2538.605	341.75
2542.283	331.75
2545.958	331.75
2549.63	333.75
2553.299	318.75
2556.964	320.75
2560.626	323.75
2564.285	318.75
2567.941	322.75
2571.594	314.75
2575.243	311.75
2578.89	310.75
2582.533	316.75
2586.173	308.75
2589.809	306.75
2593.443	305.75
2597.073	305.75
2600.701	301.75
2604.325	295.75
2607.946	295.75
2611.564	298.75
2615.178	308.75
2618.79	299.75
2622.398	295.75
2626.004	294.75
2629.606	286.75
2633.205	292.75
2636.801	281.75
2640.394	289.75
2643.983	288.75
2647.57	278.75
2651.153	280.75
2654.734	270.75
2658.311	274.75
2661.885	266.75
2665.456	263.75
2669.025	271.75
2672.589	266.75
2676.151	257.75
2679.71	259.75
2683.266	257.75
2686.819	250.75
2690.368	260.75
2693.915	255.75
2697.458	246.75
2700.999	246.75
2704.536	241.75
2708.071	238.75
2711.602	239.75
2715.13	240.75
2718.656	239.75
2722.178	247.75
2725.697	229.75
2729.214	231.75
2732.727	232.75
2736.237	251.75
2739.744	239.75
2743.249	243.75
2746.75	239.75
2750.248	238.75
2753.743	238.75
2757.236	234.75
2760.725	237.75
2764.211	234.75
2767.695	225.75
2771.175	231.75
2774.652	227.75
2778.127	215.75
2781.598	233.75
2785.067	220.75
2788.532	224.75
2791.995	226.75
2795.455	228.75
2798.911	236.75
2802.365	224.75
2805.816	232.75
2809.264	242.75
2812.709	231.75
2816.151	233.75
2819.59	232.75
2823.026	233.75
2826.46	225.75
2829.89	236.75
2833.318	239.75
2836.742	241.75
2840.164	237.75
2843.583	234.75
2846.999	237.75
2850.412	243.75
2853.822	251.75
2857.229	249.75
2860.634	259.75
2864.035	255.75
2867.434	253.75
2870.83	260.75
2874.223	270.75
2877.613	271.75
2881	274.75
2884.385	279.75
2887.766	276.75
2891.145	282.75
2894.521	272.75
2897.894	272.75
2901.264	277.75
2904.631	285.75
2907.996	288.75
2911.358	286.75
2914.717	284.75
2918.073	287.75
2921.426	292.75
2924.777	297.75
2928.124	314.75
2931.469	303.75
2934.811	322.75
2938.15	320.75
2941.487	333.75
2944.821	330.75
2948.152	331.75
2951.48	335.75
2954.805	340.75
2958.128	339.75
2961.447	346.75
2964.765	347.75
2968.079	350.75
2971.39	364.75
2974.699	381.75
2978.005	378.75
2981.308	385.75
2984.609	393.75
2987.907	402.75
2991.202	407.75
2994.494	421.75
2997.784	427.75
3001.07	441.75
3004.355	456.75
3007.636	462.75
3010.915	466.75
3014.191	477.75
3017.464	486.75
3020.734	489.75
3024.002	509.75
3027.267	502.75
3030.53	518.75
3033.789	519.75
3037.046	538.75
3040.301	545.75
3043.552	560.75
3046.801	584.75
3050.048	593.75
3053.291	598.75
3056.532	611.75
3059.771	642.75
3063.006	661.75
3066.239	671.75
3069.469	697.75
3072.697	708.75
3075.922	735.75
3079.144	743.75
3082.364	773.75
3085.581	791.75
3088.795	812.75
3092.007	825.75
3095.216	844.75
3098.423	861.75
3101.627	884.75
3104.828	908.75
3108.026	917.75
3111.222	935.75
3114.416	953.75
3117.607	974.75
3120.795	997.75
3123.98	1030.75
3127.163	1036.75
3130.344	1068.75
3133.521	1094.75
3136.696	1112.75
3139.869	1135.75
3143.039	1143.75
3146.206	1166.75
3149.371	1175.75
3152.533	1186.75
3155.693	1195.75
3158.85	1214.75
3162.005	1229.75
3165.157	1208.75
3168.306	1232.75
3171.453	1227.75
3174.597	1243.75
3177.739	1249.75
3180.878	1246.75
3184.014	1262.75
3187.149	1237.75
3190.28	1236.75
3193.409	1257.75
3196.536	1246.75
3199.659	1265.75
3202.781	1259.75
3205.9	1256.75
3209.016	1270.75
3212.13	1271.75
3215.241	1257.75
3218.35	1241.75
3221.456	1241.75
3224.56	1227.75
3227.661	1214.75
3230.76	1191.75
3233.856	1197.75
3236.95	1174.75
3240.041	1161.75
3243.13	1156.75
3246.216	1147.75
3249.3	1137.75
3252.382	1140.75
3255.46	1132.75
3258.537	1122.75
3261.611	1111.75
3264.682	1093.75
3267.751	1115.75
3270.818	1103.75
3273.882	1099.75
3276.943	1103.75
3280.002	1072.75
3283.059	1060.75
3286.113	1058.75
3289.165	1044.75
3292.214	1025.75
3295.261	1024.75
3298.306	1005.75
3301.348	974.75
3304.387	975.75
3307.425	954.75
3310.459	939.75
3313.492	932.75
3316.521	922.75
3319.549	904.75
3322.574	900.75
3325.597	896.75
3328.617	887.75
3331.635	882.75
3334.65	877.75
3337.663	873.75
3340.674	865.75
3343.682	859.75
3346.688	859.75
3349.691	854.75
3352.692	848.75
3355.691	846.75
3358.687	847.75
3361.681	840.75
3364.673	818.75
3367.662	816.75
3370.649	809.75
3373.633	805.75
3376.615	774.75
3379.595	771.75
3382.572	770.75
3385.547	747.75
3388.52	733.75
3391.49	720.75
3394.458	722.75
3397.424	715.75
3400.387	707.75
3403.348	703.75
3406.307	688.75
3409.263	675.75
3412.217	673.75
3415.168	665.75
3418.118	664.75
3421.065	665.75
3424.009	646.75
3426.951	643.75
3429.891	624.75
3432.829	611.75
3435.764	613.75
3438.697	600.75
3441.628	587.75
3444.557	570.75
3447.483	553.75
3450.407	545.75
3453.328	528.75
3456.247	516.75
3459.164	498.75
3462.079	492.75
3464.991	473.75
3467.902	457.75
3470.809	430.75
3473.715	418.75
3476.618	414.75
3479.519	407.75
3482.418	391.75
3485.315	390.75
3488.209	369.75
3491.101	364.75
3493.99	353.75
3496.878	347.75
3499.763	332.75
3502.646	318.75
3505.527	316.75
3508.405	291.75
3511.281	288.75
3514.155	275.75
3517.027	265.75
3519.897	254.75
3522.764	251.75
3525.629	244.75
3528.492	230.75
3531.352	217.75
3534.211	203.75
3537.067	182.75
3539.921	180.75
3542.773	168.75
3545.622	163.75
3548.469	152.75
3551.315	149.75
3554.157	139.75
3556.998	127.75
3559.837	121.75
3562.673	116.75
3565.507	110.75
3568.339	111.75
3571.169	100.75
3573.996	97.75
3576.822	94.75
3579.645	81.75
3582.466	82.75
3585.285	78.75
3588.101	68.75
3590.916	65.75
3593.728	60.75
3596.538	54.75
3599.346	52.75
3602.152	46.75
3604.956	45.75
3607.757	39.75
3610.556	31.75
3613.354	29.75
3616.149	21.75
3618.942	26.75
3621.732	24.75
3624.521	18.75
3627.307	17.75
3630.092	6.75
3632.874	6.75
3635.654	3.75
3638.432	5.75
3641.208	3.75
3643.982	1.75
3646.753	-2.25
3649.523	1.75
3652.29	-2.25
3655.055	-11.25
3657.818	-14.25
3660.579	-17.25
3663.338	-18.25
3666.095	-19.25
3668.849	-20.25
3671.602	-22.25
3674.352	-28.25
3677.101	-31.25
3679.847	-31.25
3682.591	-35.25
3685.333	-38.25
3688.073	-36.25
3690.811	-35.25
3693.547	-35.25
3696.281	-40.25
3699.013	-44.25
3701.742	-40.25
3704.47	-44.25
3707.195	-40.25
3709.919	-47.25
3712.64	-50.25
3715.359	-46.25
3718.076	-49.25
3720.792	-49.25
3723.505	-50.25
3726.216	-53.25
3728.925	-54.25
3731.632	-57.25
3734.336	-52.25
3737.039	-55.25
3739.74	-52.25
3742.439	-49.25
3745.136	-55.25
3747.83	-56.25
3750.523	-56.25
3753.213	-57.25
3755.902	-59.25
3758.589	-56.25
3761.273	-57.25
3763.956	-56.25
3766.636	-57.25
3769.315	-58.25
3771.991	-63.25
3774.665	-62.25
3777.338	-64.25
3780.008	-62.25
3782.677	-61.25
3785.343	-61.25
3788.007	-62.25
3790.67	-59.25
3793.33	-64.25
3795.989	-66.25
3798.645	-66.25
3801.299	-65.25
3803.952	-65.25
3806.602	-63.25
3809.251	-64.25
3811.897	-65.25
3814.542	-65.25
3817.184	-62.25
3819.825	-65.25
3822.463	-66.25
3825.1	-70.25
3827.735	-67.25
3830.367	-68.25
3832.998	-66.25
3835.627	-67.25
3838.253	-66.25
3840.878	-65.25
3843.501	-69.25
3846.122	-69.25
3848.741	-71.25
3851.358	-70.25
3853.973	-70.25
3856.586	-66.25
3859.197	-70.25
3861.806	-67.25
3864.414	-72.25
3867.019	-71.25
3869.622	-66.25
3872.224	-69.25
3874.823	-71.25
3877.421	-66.25
3880.016	-68.25
3882.61	-67.25
3885.202	-63.25
3887.792	-66.25
3890.38	-68.25
3892.966	-70.25
3895.55	-71.25
3898.132	-71.25
3900.713	-73.25
3903.291	-73.25
3905.868	-68.25
3908.442	-71.25
3911.015	-74.25
3913.586	-74.25
3916.155	-72.25
3918.722	-72.25
3921.287	-69.25
3923.85	-73.25
3926.411	-69.25
3928.971	-69.25
3931.528	-76.25
3934.084	-72.25
3936.638	-79.25
3939.19	-75.25
3941.74	-76.25
3944.288	-77.25
3946.834	-72.25
3949.378	-72.25
3951.921	-74.25
3954.462	-73.25
3957	-73.25
3959.537	-72.25
3962.072	-72.25
3964.606	-73.25
3967.137	-74.25
3969.667	-72.25
3972.194	-71.25
3974.72	-75.25
3977.244	-69.25
3979.766	-75.25
3982.286	-72.25
3984.805	-74.25
3987.321	-74.25
3989.836	-74.25
3992.349	-70.25
3994.86	-68.25
3997.369	-67.25
3999.877	-71.25
4002.382	-72.25
4004.886	-74.25
4007.388	-77.25
4009.888	-72.25
4012.386	-71.25
4014.883	-72.25
4017.377	-71.25
4019.87	-69.25
4022.361	-70.25
4024.85	-71.25
4027.338	-70.25
4029.823	-68.25
4032.307	-68.25
4034.789	-70.25
4037.269	-74.25
4039.747	-73.25
4042.224	-74.25
4044.699	-72.25
4047.172	-74.25
4049.643	-71.25
4052.112	-69.25
4054.58	-74.25
4057.046	-69.25
4059.51	-73.25
4061.972	-68.25
4064.432	-73.25
4066.891	-75.25
4069.348	-76.25
4071.803	-73.25
4074.256	-77.25
4076.708	-75.25
4079.158	-73.25
4081.606	-70.25
4084.052	-73.25
4086.497	-72.25
4088.939	-74.25
4091.38	-76.25
4093.819	-72.25
4096.257	-77.25
4098.693	-77.25
4101.127	-77.25
4103.559	-75.25
4105.989	-20.25
4108.418	-16.25
4110.845	-18.25
4113.27	-15.25
4115.694	-13.25
4118.115	-7.25
4120.535	-72.25
4122.954	-72.25
4125.37	-70.25
4127.785	-76.25
4130.198	-74.25
4132.609	-75.25
4135.019	-79.25
4137.427	-76.25
4139.833	-74.25
4142.237	-75.25
