Data from 100000000CFU3_C_ramanshift_RamanShift_15-38-57-471.txt Node
Date: Sun Dec 25 15:38:57 IST 2016
User: aro
Spectrometer: QEPB0276
Trigger mode: 0
Integration Time (sec): 5.000000E0
Scans to average: 1
Electric dark correction enabled: true
Nonlinearity correction enabled: false
Boxcar width: 0
XAxis mode: Raman Shifts
Number of Pixels in Spectrum: 1044
>>>>>Begin Spectral Data<<<<<
160.701	3.88
166.742	14.88
172.777	53.88
178.805	146.88
184.826	442.88
190.841	1045.88
196.849	1925.88
202.85	2750.88
208.845	3142.88
214.833	3141.88
220.815	3032.88
226.789	2917.88
232.758	2847.88
238.719	2775.88
244.674	2676.88
250.623	2580.88
256.565	2459.88
262.5	2340.88
268.429	2242.88
274.351	2149.88
280.267	2055.88
286.176	1973.88
292.079	1914.88
297.975	1856.88
303.865	1787.88
309.748	1737.88
315.625	1676.88
321.495	1633.88
327.359	1621.88
333.217	1604.88
339.068	1576.88
344.912	1563.88
350.751	1561.88
356.583	1557.88
362.408	1543.88
368.227	1555.88
374.04	1565.88
379.847	1560.88
385.647	1565.88
391.44	1570.88
397.228	1584.88
403.009	1603.88
408.784	1595.88
414.553	1615.88
420.315	1608.88
426.071	1616.88
431.821	1605.88
437.565	1603.88
443.302	1623.88
449.033	1619.88
454.758	1604.88
460.477	1603.88
466.189	1596.88
471.896	1590.88
477.596	1556.88
483.29	1574.88
488.978	1560.88
494.66	1563.88
500.335	1564.88
506.005	1532.88
511.668	1500.88
517.325	1462.88
522.977	1440.88
528.622	1422.88
534.261	1390.88
539.894	1389.88
545.521	1372.88
551.141	1359.88
556.756	1363.88
562.365	1345.88
567.968	1323.88
573.565	1318.88
579.155	1305.88
584.74	1309.88
590.319	1305.88
595.892	1291.88
601.459	1284.88
607.02	1290.88
612.575	1275.88
618.124	1256.88
623.667	1263.88
629.204	1244.88
634.735	1225.88
640.261	1210.88
645.781	1220.88
651.294	1221.88
656.802	1206.88
662.304	1190.88
667.8	1195.88
673.29	1190.88
678.775	1175.88
684.254	1172.88
689.726	1174.88
695.193	1169.88
700.655	1146.88
706.11	1155.88
711.56	1139.88
717.004	1143.88
722.442	1137.88
727.874	1133.88
733.301	1111.88
738.722	1116.88
744.137	1111.88
749.547	1101.88
754.951	1099.88
760.349	1103.88
765.741	1106.88
771.128	1115.88
776.509	1096.88
781.885	1108.88
787.254	1108.88
792.618	1092.88
797.977	1089.88
803.33	1083.88
808.677	1073.88
814.019	1072.88
819.355	1064.88
824.686	1046.88
830.011	1041.88
835.33	1042.88
840.644	1042.88
845.952	1039.88
851.255	1029.88
856.552	1017.88
861.844	1018.88
867.13	1012.88
872.41	996.88
877.686	995.88
882.955	1009.88
888.219	992.88
893.478	980.88
898.731	949.88
903.979	938.88
909.221	915.88
914.458	922.88
919.69	904.88
924.916	904.88
930.136	908.88
935.351	914.88
940.561	906.88
945.766	902.88
950.965	899.88
956.158	895.88
961.347	875.88
966.529	867.88
971.707	854.88
976.879	847.88
982.046	831.88
987.208	838.88
992.364	808.88
997.515	831.88
1002.66	810.88
1007.801	833.88
1012.936	832.88
1018.066	848.88
1023.19	864.88
1028.309	859.88
1033.423	856.88
1038.532	873.88
1043.636	838.88
1048.734	857.88
1053.827	843.88
1058.915	846.88
1063.998	820.88
1069.075	823.88
1074.147	820.88
1079.214	834.88
1084.276	833.88
1089.333	842.88
1094.385	853.88
1099.431	842.88
1104.472	854.88
1109.509	845.88
1114.54	831.88
1119.565	836.88
1124.586	828.88
1129.602	810.88
1134.613	805.88
1139.618	796.88
1144.619	816.88
1149.614	803.88
1154.604	799.88
1159.589	811.88
1164.57	810.88
1169.545	822.88
1174.515	806.88
1179.48	824.88
1184.44	811.88
1189.395	818.88
1194.345	793.88
1199.29	792.88
1204.23	798.88
1209.165	794.88
1214.095	799.88
1219.021	807.88
1223.941	825.88
1228.856	821.88
1233.766	822.88
1238.672	826.88
1243.572	829.88
1248.467	799.88
1253.358	821.88
1258.244	816.88
1263.124	798.88
1268	781.88
1272.871	769.88
1277.737	766.88
1282.599	773.88
1287.455	767.88
1292.306	771.88
1297.153	783.88
1301.995	781.88
1306.832	782.88
1311.664	777.88
1316.491	793.88
1321.314	782.88
1326.132	772.88
1330.945	788.88
1335.753	773.88
1340.556	758.88
1345.354	740.88
1350.148	741.88
1354.937	743.88
1359.722	735.88
1364.501	728.88
1369.276	728.88
1374.046	731.88
1378.811	723.88
1383.572	735.88
1388.327	723.88
1393.079	726.88
1397.825	712.88
1402.567	699.88
1407.304	704.88
1412.036	699.88
1416.764	704.88
1421.487	700.88
1426.205	686.88
1430.919	691.88
1435.628	710.88
1440.333	713.88
1445.032	715.88
1449.727	719.88
1454.418	725.88
1459.104	738.88
1463.785	734.88
1468.462	713.88
1473.134	718.88
1477.802	715.88
1482.465	698.88
1487.123	693.88
1491.777	698.88
1496.426	703.88
1501.071	704.88
1505.711	706.88
1510.347	717.88
1514.978	727.88
1519.604	745.88
1524.226	740.88
1528.844	736.88
1533.457	743.88
1538.065	749.88
1542.669	735.88
1547.269	739.88
1551.864	749.88
1556.454	742.88
1561.041	741.88
1565.622	748.88
1570.199	755.88
1574.772	757.88
1579.34	778.88
1583.904	786.88
1588.464	806.88
1593.019	809.88
1597.569	829.88
1602.115	828.88
1606.657	831.88
1611.195	837.88
1615.728	853.88
1620.256	868.88
1624.78	875.88
1629.3	888.88
1633.816	884.88
1638.327	906.88
1642.834	914.88
1647.336	938.88
1651.834	932.88
1656.328	927.88
1660.817	928.88
1665.302	927.88
1669.783	912.88
1674.259	894.88
1678.732	854.88
1683.199	836.88
1687.663	814.88
1692.122	792.88
1696.577	765.88
1701.028	740.88
1705.474	705.88
1709.917	676.88
1714.355	672.88
1718.788	656.88
1723.218	651.88
1727.643	643.88
1732.064	611.88
1736.481	603.88
1740.893	595.88
1745.301	576.88
1749.705	559.88
1754.105	541.88
1758.501	538.88
1762.893	533.88
1767.28	513.88
1771.663	511.88
1776.042	505.88
1780.417	504.88
1784.787	499.88
1789.154	502.88
1793.516	498.88
1797.874	496.88
1802.228	508.88
1806.578	500.88
1810.924	491.88
1815.266	488.88
1819.603	484.88
1823.937	472.88
1828.266	465.88
1832.591	466.88
1836.913	450.88
1841.23	452.88
1845.543	457.88
1849.852	448.88
1854.156	460.88
1858.457	461.88
1862.754	451.88
1867.047	465.88
1871.335	458.88
1875.62	470.88
1879.9	463.88
1884.177	460.88
1888.449	457.88
1892.718	451.88
1896.982	458.88
1901.243	453.88
1905.499	455.88
1909.752	458.88
1914	456.88
1918.245	451.88
1922.485	451.88
1926.722	458.88
1930.954	459.88
1935.183	454.88
1939.408	457.88
1943.628	476.88
1947.845	465.88
1952.058	465.88
1956.267	466.88
1960.472	455.88
1964.673	458.88
1968.87	452.88
1973.063	445.88
1977.252	451.88
1981.438	426.88
1985.619	438.88
1989.797	436.88
1993.971	446.88
1998.14	439.88
2002.306	439.88
2006.469	442.88
2010.627	439.88
2014.781	449.88
2018.932	445.88
2023.078	438.88
2027.221	449.88
2031.36	445.88
2035.495	445.88
2039.627	438.88
2043.754	434.88
2047.878	433.88
2051.998	429.88
2056.114	432.88
2060.226	436.88
2064.334	434.88
2068.439	446.88
2072.54	449.88
2076.637	443.88
2080.73	440.88
2084.82	445.88
2088.906	440.88
2092.988	442.88
2097.066	440.88
2101.14	444.88
2105.211	441.88
2109.278	445.88
2113.342	438.88
2117.401	431.88
2121.457	435.88
2125.509	429.88
2129.558	427.88
2133.602	430.88
2137.643	435.88
2141.681	425.88
2145.714	424.88
2149.744	427.88
2153.77	431.88
2157.793	421.88
2161.812	415.88
2165.827	418.88
2169.838	399.88
2173.846	401.88
2177.851	390.88
2181.851	391.88
2185.848	390.88
2189.841	385.88
2193.831	377.88
2197.817	365.88
2201.799	365.88
2205.778	373.88
2209.753	375.88
2213.725	370.88
2217.693	375.88
2221.657	368.88
2225.618	368.88
2229.575	364.88
2233.529	369.88
2237.479	368.88
2241.425	366.88
2245.368	361.88
2249.307	355.88
2253.243	334.88
2257.175	350.88
2261.104	336.88
2265.029	341.88
2268.95	330.88
2272.868	330.88
2276.783	324.88
2280.694	324.88
2284.601	317.88
2288.505	313.88
2292.405	303.88
2296.302	309.88
2300.195	299.88
2304.085	307.88
2307.971	296.88
2311.854	291.88
2315.734	293.88
2319.609	285.88
2323.482	282.88
2327.351	272.88
2331.216	273.88
2335.078	280.88
2338.937	268.88
2342.792	273.88
2346.643	272.88
2350.492	263.88
2354.336	263.88
2358.178	258.88
2362.015	262.88
2365.85	268.88
2369.681	262.88
2373.508	266.88
2377.333	267.88
2381.153	260.88
2384.971	261.88
2388.785	252.88
2392.595	259.88
2396.402	263.88
2400.206	251.88
2404.007	259.88
2407.804	257.88
2411.597	254.88
2415.388	245.88
2419.174	254.88
2422.958	243.88
2426.738	250.88
2430.515	255.88
2434.289	247.88
2438.059	257.88
2441.825	240.88
2445.589	239.88
2449.349	237.88
2453.106	237.88
2456.859	240.88
2460.61	243.88
2464.356	238.88
2468.1	231.88
2471.84	228.88
2475.577	228.88
2479.311	233.88
2483.041	230.88
2486.768	230.88
2490.492	237.88
2494.213	234.88
2497.93	235.88
2501.644	223.88
2505.355	227.88
2509.062	225.88
2512.766	223.88
2516.467	224.88
2520.165	225.88
2523.859	227.88
2527.551	217.88
2531.239	214.88
2534.923	216.88
2538.605	218.88
2542.283	219.88
2545.958	206.88
2549.63	217.88
2553.299	214.88
2556.964	213.88
2560.626	214.88
2564.285	213.88
2567.941	207.88
2571.594	209.88
2575.243	213.88
2578.89	201.88
2582.533	203.88
2586.173	199.88
2589.809	203.88
2593.443	196.88
2597.073	196.88
2600.701	194.88
2604.325	196.88
2607.946	189.88
2611.564	184.88
2615.178	185.88
2618.79	192.88
2622.398	200.88
2626.004	195.88
2629.606	188.88
2633.205	189.88
2636.801	188.88
2640.394	186.88
2643.983	185.88
2647.57	173.88
2651.153	175.88
2654.734	175.88
2658.311	180.88
2661.885	171.88
2665.456	177.88
2669.025	175.88
2672.589	170.88
2676.151	172.88
2679.71	168.88
2683.266	167.88
2686.819	170.88
2690.368	163.88
2693.915	170.88
2697.458	164.88
2700.999	160.88
2704.536	155.88
2708.071	154.88
2711.602	165.88
2715.13	157.88
2718.656	156.88
2722.178	152.88
2725.697	152.88
2729.214	158.88
2732.727	153.88
2736.237	157.88
2739.744	163.88
2743.249	155.88
2746.75	163.88
2750.248	156.88
2753.743	160.88
2757.236	156.88
2760.725	160.88
2764.211	155.88
2767.695	150.88
2771.175	150.88
2774.652	154.88
2778.127	155.88
2781.598	156.88
2785.067	150.88
2788.532	152.88
2791.995	156.88
2795.455	152.88
2798.911	150.88
2802.365	154.88
2805.816	158.88
2809.264	163.88
2812.709	160.88
2816.151	156.88
2819.59	153.88
2823.026	155.88
2826.46	154.88
2829.89	156.88
2833.318	161.88
2836.742	170.88
2840.164	165.88
2843.583	161.88
2846.999	165.88
2850.412	154.88
2853.822	166.88
2857.229	170.88
2860.634	173.88
2864.035	167.88
2867.434	180.88
2870.83	176.88
2874.223	177.88
2877.613	182.88
2881	188.88
2884.385	185.88
2887.766	185.88
2891.145	187.88
2894.521	188.88
2897.894	188.88
2901.264	192.88
2904.631	191.88
2907.996	198.88
2911.358	189.88
2914.717	183.88
2918.073	198.88
2921.426	203.88
2924.777	204.88
2928.124	210.88
2931.469	211.88
2934.811	210.88
2938.15	219.88
2941.487	218.88
2944.821	221.88
2948.152	224.88
2951.48	231.88
2954.805	244.88
2958.128	239.88
2961.447	233.88
2964.765	237.88
2968.079	247.88
2971.39	243.88
2974.699	251.88
2978.005	261.88
2981.308	266.88
2984.609	266.88
2987.907	276.88
2991.202	277.88
2994.494	294.88
2997.784	303.88
3001.07	307.88
3004.355	314.88
3007.636	322.88
3010.915	329.88
3014.191	340.88
3017.464	344.88
3020.734	340.88
3024.002	351.88
3027.267	354.88
3030.53	357.88
3033.789	368.88
3037.046	370.88
3040.301	378.88
3043.552	389.88
3046.801	388.88
3050.048	407.88
3053.291	423.88
3056.532	432.88
3059.771	446.88
3063.006	452.88
3066.239	476.88
3069.469	490.88
3072.697	495.88
3075.922	516.88
3079.144	518.88
3082.364	540.88
3085.581	554.88
3088.795	565.88
3092.007	572.88
3095.216	588.88
3098.423	607.88
3101.627	609.88
3104.828	618.88
3108.026	639.88
3111.222	640.88
3114.416	672.88
3117.607	685.88
3120.795	700.88
3123.98	705.88
3127.163	727.88
3130.344	755.88
3133.521	770.88
3136.696	767.88
3139.869	783.88
3143.039	812.88
3146.206	823.88
3149.371	831.88
3152.533	841.88
3155.693	843.88
3158.85	852.88
3162.005	855.88
3165.157	867.88
3168.306	871.88
3171.453	870.88
3174.597	861.88
3177.739	873.88
3180.878	870.88
3184.014	886.88
3187.149	867.88
3190.28	877.88
3193.409	885.88
3196.536	876.88
3199.659	880.88
3202.781	890.88
3205.9	905.88
3209.016	891.88
3212.13	891.88
3215.241	882.88
3218.35	879.88
3221.456	862.88
3224.56	871.88
3227.661	862.88
3230.76	854.88
3233.856	831.88
3236.95	822.88
3240.041	811.88
3243.13	797.88
3246.216	807.88
3249.3	816.88
3252.382	805.88
3255.46	799.88
3258.537	791.88
3261.611	780.88
3264.682	785.88
3267.751	785.88
3270.818	780.88
3273.882	775.88
3276.943	771.88
3280.002	763.88
3283.059	756.88
3286.113	749.88
3289.165	735.88
3292.214	730.88
3295.261	726.88
3298.306	716.88
3301.348	702.88
3304.387	690.88
3307.425	674.88
3310.459	670.88
3313.492	666.88
3316.521	648.88
3319.549	651.88
3322.574	632.88
3325.597	626.88
3328.617	629.88
3331.635	623.88
3334.65	613.88
3337.663	613.88
3340.674	624.88
3343.682	613.88
3346.688	607.88
3349.691	596.88
3352.692	605.88
3355.691	602.88
3358.687	599.88
3361.681	594.88
3364.673	581.88
3367.662	587.88
3370.649	565.88
3373.633	568.88
3376.615	562.88
3379.595	545.88
3382.572	530.88
3385.547	531.88
3388.52	527.88
3391.49	528.88
3394.458	513.88
3397.424	509.88
3400.387	502.88
3403.348	484.88
3406.307	483.88
3409.263	483.88
3412.217	481.88
3415.168	482.88
3418.118	478.88
3421.065	460.88
3424.009	459.88
3426.951	456.88
3429.891	451.88
3432.829	435.88
3435.764	426.88
3438.697	434.88
3441.628	415.88
3444.557	404.88
3447.483	399.88
3450.407	384.88
3453.328	366.88
3456.247	367.88
3459.164	354.88
3462.079	346.88
3464.991	336.88
3467.902	328.88
3470.809	316.88
3473.715	305.88
3476.618	297.88
3479.519	286.88
3482.418	278.88
3485.315	276.88
3488.209	268.88
3491.101	271.88
3493.99	250.88
3496.878	245.88
3499.763	243.88
3502.646	238.88
3505.527	222.88
3508.405	221.88
3511.281	214.88
3514.155	200.88
3517.027	192.88
3519.897	185.88
3522.764	182.88
3525.629	177.88
3528.492	164.88
3531.352	153.88
3534.211	146.88
3537.067	140.88
3539.921	132.88
3542.773	129.88
3545.622	120.88
3548.469	115.88
3551.315	108.88
3554.157	102.88
3556.998	96.88
3559.837	88.88
3562.673	87.88
3565.507	82.88
3568.339	86.88
3571.169	79.88
3573.996	69.88
3576.822	67.88
3579.645	60.88
3582.466	55.88
3585.285	64.88
3588.101	53.88
3590.916	43.88
3593.728	43.88
3596.538	42.88
3599.346	34.88
3602.152	34.88
3604.956	27.88
3607.757	32.88
3610.556	28.88
3613.354	25.88
3616.149	13.88
3618.942	17.88
3621.732	14.88
3624.521	14.88
3627.307	11.88
3630.092	9.88
3632.874	14.88
3635.654	7.88
3638.432	5.88
3641.208	-2.12
3643.982	1.88
3646.753	-0.12
3649.523	-0.12
3652.29	-2.12
3655.055	-7.12
3657.818	-11.12
3660.579	-7.12
3663.338	-12.12
3666.095	-11.12
3668.849	-15.12
3671.602	-17.12
3674.352	-22.12
3677.101	-21.12
3679.847	-22.12
3682.591	-25.12
3685.333	-23.12
3688.073	-22.12
3690.811	-24.12
3693.547	-26.12
3696.281	-32.12
3699.013	-30.12
3701.742	-27.12
3704.47	-30.12
3707.195	-28.12
3709.919	-31.12
3712.64	-34.12
3715.359	-29.12
3718.076	-37.12
3720.792	-38.12
3723.505	-35.12
3726.216	-36.12
3728.925	-37.12
3731.632	-39.12
3734.336	-35.12
3737.039	-36.12
3739.74	-40.12
3742.439	-37.12
3745.136	-38.12
3747.83	-39.12
3750.523	-41.12
3753.213	-38.12
3755.902	-41.12
3758.589	-41.12
3761.273	-41.12
3763.956	-38.12
3766.636	-41.12
3769.315	-43.12
3771.991	-45.12
3774.665	-42.12
3777.338	-43.12
3780.008	-39.12
3782.677	-42.12
3785.343	-42.12
3788.007	-45.12
3790.67	-47.12
3793.33	-43.12
3795.989	-45.12
3798.645	-44.12
3801.299	-44.12
3803.952	-40.12
3806.602	-40.12
3809.251	-43.12
3811.897	-52.12
3814.542	-50.12
3817.184	-44.12
3819.825	-46.12
3822.463	-44.12
3825.1	-47.12
3827.735	-47.12
3830.367	-52.12
3832.998	-47.12
3835.627	-49.12
3838.253	-49.12
3840.878	-48.12
3843.501	-45.12
3846.122	-46.12
3848.741	-48.12
3851.358	-53.12
3853.973	-45.12
3856.586	-45.12
3859.197	-50.12
3861.806	-49.12
3864.414	-48.12
3867.019	-50.12
3869.622	-46.12
3872.224	-47.12
3874.823	-48.12
3877.421	-42.12
3880.016	-52.12
3882.61	-46.12
3885.202	-46.12
3887.792	-43.12
3890.38	-44.12
3892.966	-44.12
3895.55	-49.12
3898.132	-51.12
3900.713	-51.12
3903.291	-54.12
3905.868	-52.12
3908.442	-48.12
3911.015	-52.12
3913.586	-49.12
3916.155	-50.12
3918.722	-49.12
3921.287	-49.12
3923.85	-54.12
3926.411	-49.12
3928.971	-52.12
3931.528	-52.12
3934.084	-50.12
3936.638	-53.12
3939.19	-49.12
3941.74	-50.12
3944.288	-53.12
3946.834	-56.12
3949.378	-53.12
3951.921	-52.12
3954.462	-52.12
3957	-51.12
3959.537	-48.12
3962.072	-49.12
3964.606	-48.12
3967.137	-56.12
3969.667	-54.12
3972.194	-54.12
3974.72	-54.12
3977.244	-46.12
3979.766	-51.12
3982.286	-45.12
3984.805	-51.12
3987.321	-51.12
3989.836	-53.12
3992.349	-52.12
3994.86	-47.12
3997.369	-46.12
3999.877	-49.12
4002.382	-48.12
4004.886	-49.12
4007.388	-53.12
4009.888	-49.12
4012.386	-49.12
4014.883	-51.12
4017.377	-53.12
4019.87	-48.12
4022.361	-52.12
4024.85	-51.12
4027.338	-50.12
4029.823	-46.12
4032.307	-47.12
4034.789	-51.12
4037.269	-54.12
4039.747	-53.12
4042.224	-54.12
4044.699	-48.12
4047.172	-52.12
4049.643	-49.12
4052.112	-51.12
4054.58	-54.12
4057.046	-52.12
4059.51	-52.12
4061.972	-47.12
4064.432	-49.12
4066.891	-51.12
4069.348	-51.12
4071.803	-51.12
4074.256	-55.12
4076.708	-56.12
4079.158	-52.12
4081.606	-49.12
4084.052	-48.12
4086.497	-50.12
4088.939	-51.12
4091.38	-53.12
4093.819	-53.12
4096.257	-49.12
4098.693	-49.12
4101.127	-53.12
4103.559	-51.12
4105.989	-15.12
4108.418	-13.12
4110.845	-7.12
4113.27	-5.12
4115.694	-1.12
4118.115	-2.12
4120.535	-53.12
4122.954	-50.12
4125.37	-47.12
4127.785	-51.12
4130.198	-51.12
4132.609	-53.12
4135.019	-55.12
4137.427	-54.12
4139.833	-54.12
4142.237	-56.12
