Data from 10000000CFU2_B_ramanshift_RamanShift_15-08-22-647.txt Node
Date: Sun Dec 25 15:08:22 IST 2016
User: aro
Spectrometer: QEPB0276
Trigger mode: 0
Integration Time (sec): 5.000000E0
Scans to average: 1
Electric dark correction enabled: true
Nonlinearity correction enabled: false
Boxcar width: 0
XAxis mode: Raman Shifts
Number of Pixels in Spectrum: 1044
>>>>>Begin Spectral Data<<<<<
160.701	6.62
166.742	17.62
172.777	66.62
178.805	204.62
184.826	619.62
190.841	1485.62
196.849	2699.62
202.85	3846.62
208.845	4459.62
214.833	4451.62
220.815	4270.62
226.789	4114.62
232.758	4006.62
238.719	3890.62
244.674	3772.62
250.623	3639.62
256.565	3479.62
262.5	3299.62
268.429	3143.62
274.351	2998.62
280.267	2901.62
286.176	2790.62
292.079	2676.62
297.975	2582.62
303.865	2485.62
309.748	2424.62
315.625	2341.62
321.495	2307.62
327.359	2239.62
333.217	2199.62
339.068	2186.62
344.912	2160.62
350.751	2140.62
356.583	2159.62
362.408	2140.62
368.227	2142.62
374.04	2156.62
379.847	2163.62
385.647	2172.62
391.44	2163.62
397.228	2173.62
403.009	2202.62
408.784	2199.62
414.553	2219.62
420.315	2215.62
426.071	2234.62
431.821	2243.62
437.565	2221.62
443.302	2241.62
449.033	2217.62
454.758	2218.62
460.477	2235.62
466.189	2201.62
471.896	2207.62
477.596	2163.62
483.29	2175.62
488.978	2171.62
494.66	2150.62
500.335	2151.62
506.005	2098.62
511.668	2092.62
517.325	2048.62
522.977	2023.62
528.622	2002.62
534.261	1971.62
539.894	1965.62
545.521	1963.62
551.141	1913.62
556.756	1903.62
562.365	1904.62
567.968	1908.62
573.565	1882.62
579.155	1880.62
584.74	1850.62
590.319	1851.62
595.892	1840.62
601.459	1826.62
607.02	1817.62
612.575	1810.62
618.124	1795.62
623.667	1774.62
629.204	1765.62
634.735	1748.62
640.261	1727.62
645.781	1713.62
651.294	1706.62
656.802	1712.62
662.304	1708.62
667.8	1684.62
673.29	1680.62
678.775	1690.62
684.254	1676.62
689.726	1692.62
695.193	1662.62
700.655	1653.62
706.11	1647.62
711.56	1635.62
717.004	1631.62
722.442	1608.62
727.874	1605.62
733.301	1603.62
738.722	1597.62
744.137	1579.62
749.547	1579.62
754.951	1590.62
760.349	1592.62
765.741	1586.62
771.128	1581.62
776.509	1572.62
781.885	1572.62
787.254	1566.62
792.618	1582.62
797.977	1562.62
803.33	1550.62
808.677	1529.62
814.019	1524.62
819.355	1507.62
824.686	1495.62
830.011	1507.62
835.33	1474.62
840.644	1462.62
845.952	1461.62
851.255	1475.62
856.552	1453.62
861.844	1457.62
867.13	1441.62
872.41	1419.62
877.686	1423.62
882.955	1415.62
888.219	1403.62
893.478	1377.62
898.731	1357.62
903.979	1343.62
909.221	1323.62
914.458	1326.62
919.69	1306.62
924.916	1297.62
930.136	1292.62
935.351	1297.62
940.561	1306.62
945.766	1295.62
950.965	1284.62
956.158	1266.62
961.347	1259.62
966.529	1251.62
971.707	1227.62
976.879	1223.62
982.046	1209.62
987.208	1202.62
992.364	1187.62
997.515	1201.62
1002.66	1200.62
1007.801	1204.62
1012.936	1213.62
1018.066	1230.62
1023.19	1235.62
1028.309	1248.62
1033.423	1227.62
1038.532	1247.62
1043.636	1250.62
1048.734	1237.62
1053.827	1204.62
1058.915	1194.62
1063.998	1188.62
1069.075	1182.62
1074.147	1166.62
1079.214	1192.62
1084.276	1195.62
1089.333	1205.62
1094.385	1213.62
1099.431	1214.62
1104.472	1219.62
1109.509	1220.62
1114.54	1214.62
1119.565	1219.62
1124.586	1203.62
1129.602	1188.62
1134.613	1169.62
1139.618	1160.62
1144.619	1155.62
1149.614	1162.62
1154.604	1173.62
1159.589	1180.62
1164.57	1174.62
1169.545	1179.62
1174.515	1182.62
1179.48	1194.62
1184.44	1191.62
1189.395	1176.62
1194.345	1161.62
1199.29	1174.62
1204.23	1159.62
1209.165	1177.62
1214.095	1155.62
1219.021	1171.62
1223.941	1192.62
1228.856	1201.62
1233.766	1184.62
1238.672	1198.62
1243.572	1200.62
1248.467	1205.62
1253.358	1195.62
1258.244	1181.62
1263.124	1176.62
1268	1133.62
1272.871	1134.62
1277.737	1130.62
1282.599	1130.62
1287.455	1117.62
1292.306	1108.62
1297.153	1135.62
1301.995	1139.62
1306.832	1151.62
1311.664	1138.62
1316.491	1141.62
1321.314	1155.62
1326.132	1159.62
1330.945	1146.62
1335.753	1130.62
1340.556	1109.62
1345.354	1115.62
1350.148	1116.62
1354.937	1081.62
1359.722	1088.62
1364.501	1072.62
1369.276	1075.62
1374.046	1057.62
1378.811	1056.62
1383.572	1046.62
1388.327	1032.62
1393.079	1049.62
1397.825	1041.62
1402.567	1032.62
1407.304	1027.62
1412.036	1012.62
1416.764	1013.62
1421.487	1011.62
1426.205	1019.62
1430.919	1029.62
1435.628	1047.62
1440.333	1050.62
1445.032	1050.62
1449.727	1058.62
1454.418	1068.62
1459.104	1079.62
1463.785	1057.62
1468.462	1059.62
1473.134	1056.62
1477.802	1045.62
1482.465	1028.62
1487.123	1035.62
1491.777	1016.62
1496.426	1026.62
1501.071	1025.62
1505.711	1048.62
1510.347	1055.62
1514.978	1073.62
1519.604	1063.62
1524.226	1071.62
1528.844	1080.62
1533.457	1068.62
1538.065	1091.62
1542.669	1068.62
1547.269	1064.62
1551.864	1064.62
1556.454	1079.62
1561.041	1092.62
1565.622	1094.62
1570.199	1106.62
1574.772	1120.62
1579.34	1142.62
1583.904	1157.62
1588.464	1160.62
1593.019	1202.62
1597.569	1205.62
1602.115	1224.62
1606.657	1218.62
1611.195	1236.62
1615.728	1235.62
1620.256	1255.62
1624.78	1282.62
1629.3	1294.62
1633.816	1297.62
1638.327	1338.62
1642.834	1345.62
1647.336	1360.62
1651.834	1355.62
1656.328	1368.62
1660.817	1360.62
1665.302	1334.62
1669.783	1318.62
1674.259	1275.62
1678.732	1260.62
1683.199	1233.62
1687.663	1189.62
1692.122	1187.62
1696.577	1119.62
1701.028	1078.62
1705.474	1031.62
1709.917	997.62
1714.355	969.62
1718.788	955.62
1723.218	935.62
1727.643	933.62
1732.064	912.62
1736.481	888.62
1740.893	858.62
1745.301	843.62
1749.705	833.62
1754.105	810.62
1758.501	797.62
1762.893	767.62
1767.28	755.62
1771.663	757.62
1776.042	750.62
1780.417	751.62
1784.787	746.62
1789.154	751.62
1793.516	750.62
1797.874	752.62
1802.228	746.62
1806.578	731.62
1810.924	716.62
1815.266	717.62
1819.603	697.62
1823.937	696.62
1828.266	696.62
1832.591	691.62
1836.913	682.62
1841.23	672.62
1845.543	683.62
1849.852	680.62
1854.156	682.62
1858.457	683.62
1862.754	678.62
1867.047	682.62
1871.335	684.62
1875.62	684.62
1879.9	688.62
1884.177	700.62
1888.449	698.62
1892.718	689.62
1896.982	687.62
1901.243	676.62
1905.499	679.62
1909.752	670.62
1914	679.62
1918.245	669.62
1922.485	674.62
1926.722	673.62
1930.954	678.62
1935.183	673.62
1939.408	694.62
1943.628	695.62
1947.845	687.62
1952.058	688.62
1956.267	676.62
1960.472	666.62
1964.673	667.62
1968.87	665.62
1973.063	659.62
1977.252	650.62
1981.438	659.62
1985.619	641.62
1989.797	640.62
1993.971	649.62
1998.14	650.62
2002.306	644.62
2006.469	660.62
2010.627	655.62
2014.781	660.62
2018.932	673.62
2023.078	660.62
2027.221	652.62
2031.36	652.62
2035.495	650.62
2039.627	650.62
2043.754	651.62
2047.878	645.62
2051.998	642.62
2056.114	637.62
2060.226	647.62
2064.334	642.62
2068.439	642.62
2072.54	649.62
2076.637	647.62
2080.73	657.62
2084.82	653.62
2088.906	655.62
2092.988	658.62
2097.066	666.62
2101.14	648.62
2105.211	661.62
2109.278	656.62
2113.342	639.62
2117.401	628.62
2121.457	632.62
2125.509	639.62
2129.558	638.62
2133.602	636.62
2137.643	635.62
2141.681	627.62
2145.714	625.62
2149.744	623.62
2153.77	619.62
2157.793	621.62
2161.812	618.62
2165.827	615.62
2169.838	598.62
2173.846	588.62
2177.851	591.62
2181.851	575.62
2185.848	574.62
2189.841	557.62
2193.831	560.62
2197.817	553.62
2201.799	552.62
2205.778	543.62
2209.753	556.62
2213.725	558.62
2217.693	554.62
2221.657	537.62
2225.618	546.62
2229.575	534.62
2233.529	547.62
2237.479	538.62
2241.425	535.62
2245.368	518.62
2249.307	528.62
2253.243	513.62
2257.175	515.62
2261.104	502.62
2265.029	498.62
2268.95	493.62
2272.868	483.62
2276.783	466.62
2280.694	473.62
2284.601	470.62
2288.505	459.62
2292.405	458.62
2296.302	460.62
2300.195	455.62
2304.085	446.62
2307.971	427.62
2311.854	425.62
2315.734	428.62
2319.609	416.62
2323.482	415.62
2327.351	408.62
2331.216	401.62
2335.078	403.62
2338.937	403.62
2342.792	393.62
2346.643	380.62
2350.492	389.62
2354.336	394.62
2358.178	392.62
2362.015	400.62
2365.85	392.62
2369.681	392.62
2373.508	393.62
2377.333	400.62
2381.153	396.62
2384.971	388.62
2388.785	399.62
2392.595	392.62
2396.402	386.62
2400.206	383.62
2404.007	391.62
2407.804	385.62
2411.597	378.62
2415.388	380.62
2419.174	373.62
2422.958	380.62
2426.738	387.62
2430.515	379.62
2434.289	379.62
2438.059	369.62
2441.825	369.62
2445.589	361.62
2449.349	363.62
2453.106	361.62
2456.859	363.62
2460.61	358.62
2464.356	353.62
2468.1	362.62
2471.84	353.62
2475.577	352.62
2479.311	344.62
2483.041	350.62
2486.768	352.62
2490.492	350.62
2494.213	355.62
2497.93	351.62
2501.644	352.62
2505.355	346.62
2509.062	345.62
2512.766	350.62
2516.467	349.62
2520.165	339.62
2523.859	340.62
2527.551	331.62
2531.239	332.62
2534.923	328.62
2538.605	330.62
2542.283	329.62
2545.958	316.62
2549.63	317.62
2553.299	313.62
2556.964	326.62
2560.626	323.62
2564.285	316.62
2567.941	311.62
2571.594	314.62
2575.243	312.62
2578.89	311.62
2582.533	303.62
2586.173	295.62
2589.809	308.62
2593.443	301.62
2597.073	302.62
2600.701	291.62
2604.325	297.62
2607.946	291.62
2611.564	301.62
2615.178	294.62
2618.79	298.62
2622.398	294.62
2626.004	280.62
2629.606	279.62
2633.205	279.62
2636.801	278.62
2640.394	283.62
2643.983	279.62
2647.57	272.62
2651.153	262.62
2654.734	275.62
2658.311	267.62
2661.885	265.62
2665.456	269.62
2669.025	256.62
2672.589	264.62
2676.151	254.62
2679.71	258.62
2683.266	257.62
2686.819	246.62
2690.368	252.62
2693.915	247.62
2697.458	244.62
2700.999	239.62
2704.536	242.62
2708.071	231.62
2711.602	238.62
2715.13	238.62
2718.656	239.62
2722.178	235.62
2725.697	233.62
2729.214	230.62
2732.727	232.62
2736.237	239.62
2739.744	241.62
2743.249	240.62
2746.75	241.62
2750.248	236.62
2753.743	236.62
2757.236	233.62
2760.725	236.62
2764.211	239.62
2767.695	236.62
2771.175	225.62
2774.652	232.62
2778.127	230.62
2781.598	222.62
2785.067	230.62
2788.532	216.62
2791.995	228.62
2795.455	225.62
2798.911	219.62
2802.365	233.62
2805.816	237.62
2809.264	235.62
2812.709	232.62
2816.151	223.62
2819.59	229.62
2823.026	238.62
2826.46	229.62
2829.89	237.62
2833.318	236.62
2836.742	234.62
2840.164	230.62
2843.583	228.62
2846.999	230.62
2850.412	231.62
2853.822	244.62
2857.229	246.62
2860.634	246.62
2864.035	248.62
2867.434	252.62
2870.83	252.62
2874.223	253.62
2877.613	260.62
2881	256.62
2884.385	278.62
2887.766	269.62
2891.145	266.62
2894.521	260.62
2897.894	263.62
2901.264	268.62
2904.631	267.62
2907.996	272.62
2911.358	276.62
2914.717	272.62
2918.073	285.62
2921.426	280.62
2924.777	290.62
2928.124	290.62
2931.469	286.62
2934.811	300.62
2938.15	301.62
2941.487	308.62
2944.821	309.62
2948.152	319.62
2951.48	320.62
2954.805	326.62
2958.128	323.62
2961.447	330.62
2964.765	328.62
2968.079	336.62
2971.39	354.62
2974.699	359.62
2978.005	356.62
2981.308	356.62
2984.609	370.62
2987.907	390.62
2991.202	403.62
2994.494	406.62
2997.784	423.62
3001.07	424.62
3004.355	437.62
3007.636	445.62
3010.915	460.62
3014.191	473.62
3017.464	477.62
3020.734	478.62
3024.002	485.62
3027.267	482.62
3030.53	496.62
3033.789	518.62
3037.046	522.62
3040.301	527.62
3043.552	538.62
3046.801	551.62
3050.048	564.62
3053.291	579.62
3056.532	593.62
3059.771	616.62
3063.006	638.62
3066.239	648.62
3069.469	677.62
3072.697	685.62
3075.922	719.62
3079.144	721.62
3082.364	738.62
3085.581	769.62
3088.795	780.62
3092.007	802.62
3095.216	809.62
3098.423	830.62
3101.627	834.62
3104.828	859.62
3108.026	895.62
3111.222	907.62
3114.416	913.62
3117.607	935.62
3120.795	956.62
3123.98	978.62
3127.163	999.62
3130.344	1029.62
3133.521	1043.62
3136.696	1070.62
3139.869	1082.62
3143.039	1106.62
3146.206	1120.62
3149.371	1146.62
3152.533	1144.62
3155.693	1169.62
3158.85	1173.62
3162.005	1182.62
3165.157	1179.62
3168.306	1183.62
3171.453	1181.62
3174.597	1206.62
3177.739	1213.62
3180.878	1210.62
3184.014	1201.62
3187.149	1199.62
3190.28	1196.62
3193.409	1212.62
3196.536	1231.62
3199.659	1214.62
3202.781	1223.62
3205.9	1223.62
3209.016	1203.62
3212.13	1214.62
3215.241	1211.62
3218.35	1204.62
3221.456	1199.62
3224.56	1197.62
3227.661	1181.62
3230.76	1152.62
3233.856	1158.62
3236.95	1145.62
3240.041	1120.62
3243.13	1113.62
3246.216	1105.62
3249.3	1104.62
3252.382	1111.62
3255.46	1094.62
3258.537	1082.62
3261.611	1080.62
3264.682	1075.62
3267.751	1066.62
3270.818	1076.62
3273.882	1056.62
3276.943	1064.62
3280.002	1045.62
3283.059	1037.62
3286.113	1032.62
3289.165	1001.62
3292.214	989.62
3295.261	973.62
3298.306	968.62
3301.348	965.62
3304.387	945.62
3307.425	921.62
3310.459	920.62
3313.492	912.62
3316.521	900.62
3319.549	880.62
3322.574	878.62
3325.597	867.62
3328.617	858.62
3331.635	859.62
3334.65	861.62
3337.663	844.62
3340.674	840.62
3343.682	836.62
3346.688	831.62
3349.691	827.62
3352.692	826.62
3355.691	820.62
3358.687	820.62
3361.681	794.62
3364.673	803.62
3367.662	791.62
3370.649	779.62
3373.633	765.62
3376.615	762.62
3379.595	737.62
3382.572	737.62
3385.547	729.62
3388.52	719.62
3391.49	716.62
3394.458	709.62
3397.424	692.62
3400.387	686.62
3403.348	667.62
3406.307	665.62
3409.263	667.62
3412.217	661.62
3415.168	648.62
3418.118	649.62
3421.065	641.62
3424.009	611.62
3426.951	617.62
3429.891	610.62
3432.829	593.62
3435.764	586.62
3438.697	583.62
3441.628	566.62
3444.557	555.62
3447.483	534.62
3450.407	526.62
3453.328	497.62
3456.247	486.62
3459.164	482.62
3462.079	473.62
3464.991	456.62
3467.902	448.62
3470.809	427.62
3473.715	411.62
3476.618	398.62
3479.519	397.62
3482.418	387.62
3485.315	384.62
3488.209	360.62
3491.101	358.62
3493.99	339.62
3496.878	332.62
3499.763	327.62
3502.646	316.62
3505.527	313.62
3508.405	296.62
3511.281	288.62
3514.155	271.62
3517.027	260.62
3519.897	254.62
3522.764	242.62
3525.629	236.62
3528.492	218.62
3531.352	208.62
3534.211	198.62
3537.067	190.62
3539.921	180.62
3542.773	173.62
3545.622	159.62
3548.469	151.62
3551.315	148.62
3554.157	136.62
3556.998	129.62
3559.837	124.62
3562.673	124.62
3565.507	115.62
3568.339	109.62
3571.169	102.62
3573.996	97.62
3576.822	90.62
3579.645	88.62
3582.466	79.62
3585.285	80.62
3588.101	71.62
3590.916	67.62
3593.728	57.62
3596.538	55.62
3599.346	48.62
3602.152	45.62
3604.956	47.62
3607.757	42.62
3610.556	34.62
3613.354	34.62
3616.149	25.62
3618.942	25.62
3621.732	20.62
3624.521	17.62
3627.307	19.62
3630.092	18.62
3632.874	16.62
3635.654	7.62
3638.432	9.62
3641.208	2.62
3643.982	0.62
3646.753	-6.38
3649.523	2.62
3652.29	-2.38
3655.055	-6.38
3657.818	-5.38
3660.579	-9.38
3663.338	-13.38
3666.095	-14.38
3668.849	-19.38
3671.602	-24.38
3674.352	-32.38
3677.101	-27.38
3679.847	-29.38
3682.591	-29.38
3685.333	-27.38
3688.073	-29.38
3690.811	-33.38
3693.547	-35.38
3696.281	-38.38
3699.013	-40.38
3701.742	-39.38
3704.47	-36.38
3707.195	-35.38
3709.919	-39.38
3712.64	-45.38
3715.359	-40.38
3718.076	-43.38
3720.792	-45.38
3723.505	-48.38
3726.216	-46.38
3728.925	-50.38
3731.632	-51.38
3734.336	-42.38
3737.039	-49.38
3739.74	-49.38
3742.439	-50.38
3745.136	-51.38
3747.83	-53.38
3750.523	-54.38
3753.213	-53.38
3755.902	-52.38
3758.589	-49.38
3761.273	-54.38
3763.956	-53.38
3766.636	-55.38
3769.315	-58.38
3771.991	-61.38
3774.665	-59.38
3777.338	-55.38
3780.008	-54.38
3782.677	-55.38
3785.343	-57.38
3788.007	-63.38
3790.67	-59.38
3793.33	-62.38
3795.989	-60.38
3798.645	-56.38
3801.299	-55.38
3803.952	-56.38
3806.602	-60.38
3809.251	-59.38
3811.897	-60.38
3814.542	-64.38
3817.184	-63.38
3819.825	-64.38
3822.463	-63.38
3825.1	-65.38
3827.735	-59.38
3830.367	-66.38
3832.998	-60.38
3835.627	-64.38
3838.253	-64.38
3840.878	-64.38
3843.501	-63.38
3846.122	-60.38
3848.741	-66.38
3851.358	-68.38
3853.973	-61.38
3856.586	-60.38
3859.197	-65.38
3861.806	-66.38
3864.414	-65.38
3867.019	-64.38
3869.622	-59.38
3872.224	-65.38
3874.823	-65.38
3877.421	-63.38
3880.016	-67.38
3882.61	-64.38
3885.202	-61.38
3887.792	-61.38
3890.38	-62.38
3892.966	-61.38
3895.55	-64.38
3898.132	-66.38
3900.713	-67.38
3903.291	-71.38
3905.868	-66.38
3908.442	-68.38
3911.015	-68.38
3913.586	-69.38
3916.155	-67.38
3918.722	-69.38
3921.287	-71.38
3923.85	-72.38
3926.411	-67.38
3928.971	-68.38
3931.528	-68.38
3934.084	-69.38
3936.638	-69.38
3939.19	-69.38
3941.74	-70.38
3944.288	-70.38
3946.834	-70.38
3949.378	-72.38
3951.921	-68.38
3954.462	-64.38
3957	-65.38
3959.537	-69.38
3962.072	-67.38
3964.606	-70.38
3967.137	-70.38
3969.667	-68.38
3972.194	-67.38
3974.72	-71.38
3977.244	-66.38
3979.766	-67.38
3982.286	-64.38
3984.805	-73.38
3987.321	-69.38
3989.836	-73.38
3992.349	-68.38
3994.86	-64.38
3997.369	-64.38
3999.877	-65.38
4002.382	-64.38
4004.886	-67.38
4007.388	-69.38
4009.888	-66.38
4012.386	-66.38
4014.883	-69.38
4017.377	-70.38
4019.87	-66.38
4022.361	-69.38
4024.85	-66.38
4027.338	-67.38
4029.823	-65.38
4032.307	-65.38
4034.789	-68.38
4037.269	-70.38
4039.747	-69.38
4042.224	-72.38
4044.699	-68.38
4047.172	-69.38
4049.643	-65.38
4052.112	-72.38
4054.58	-72.38
4057.046	-67.38
4059.51	-69.38
4061.972	-64.38
4064.432	-67.38
4066.891	-67.38
4069.348	-69.38
4071.803	-70.38
4074.256	-73.38
4076.708	-70.38
4079.158	-73.38
4081.606	-63.38
4084.052	-69.38
4086.497	-69.38
4088.939	-67.38
4091.38	-72.38
4093.819	-71.38
4096.257	-70.38
4098.693	-71.38
4101.127	-74.38
4103.559	-72.38
4105.989	-20.38
4108.418	-21.38
4110.845	-10.38
4113.27	-17.38
4115.694	-10.38
4118.115	-6.38
4120.535	-71.38
4122.954	-68.38
4125.37	-69.38
4127.785	-66.38
4130.198	-66.38
4132.609	-70.38
4135.019	-74.38
4137.427	-72.38
4139.833	-73.38
4142.237	-75.38
