Data from 10000000CFU3_C_ramanshift_RamanShift_15-35-27-491.txt Node
Date: Sun Dec 25 15:35:27 IST 2016
User: aro
Spectrometer: QEPB0276
Trigger mode: 0
Integration Time (sec): 5.000000E0
Scans to average: 1
Electric dark correction enabled: true
Nonlinearity correction enabled: false
Boxcar width: 0
XAxis mode: Raman Shifts
Number of Pixels in Spectrum: 1044
>>>>>Begin Spectral Data<<<<<
160.701	0.38
166.742	18.38
172.777	58.38
178.805	194.38
184.826	554.38
190.841	1295.38
196.849	2332.38
202.85	3302.38
208.845	3778.38
214.833	3777.38
220.815	3648.38
226.789	3519.38
232.758	3436.38
238.719	3351.38
244.674	3255.38
250.623	3137.38
256.565	2992.38
262.5	2861.38
268.429	2744.38
274.351	2639.38
280.267	2545.38
286.176	2469.38
292.079	2390.38
297.975	2302.38
303.865	2223.38
309.748	2168.38
315.625	2111.38
321.495	2059.38
327.359	2050.38
333.217	1982.38
339.068	1977.38
344.912	1967.38
350.751	1959.38
356.583	1943.38
362.408	1938.38
368.227	1956.38
374.04	1951.38
379.847	1956.38
385.647	1966.38
391.44	1975.38
397.228	1997.38
403.009	1992.38
408.784	2005.38
414.553	2014.38
420.315	2010.38
426.071	2053.38
431.821	2015.38
437.565	2033.38
443.302	2028.38
449.033	2010.38
454.758	2038.38
460.477	2007.38
466.189	2013.38
471.896	1993.38
477.596	1982.38
483.29	1979.38
488.978	1979.38
494.66	1971.38
500.335	1961.38
506.005	1925.38
511.668	1892.38
517.325	1873.38
522.977	1837.38
528.622	1804.38
534.261	1789.38
539.894	1755.38
545.521	1760.38
551.141	1747.38
556.756	1739.38
562.365	1720.38
567.968	1717.38
573.565	1707.38
579.155	1697.38
584.74	1680.38
590.319	1668.38
595.892	1675.38
601.459	1668.38
607.02	1653.38
612.575	1661.38
618.124	1635.38
623.667	1633.38
629.204	1606.38
634.735	1599.38
640.261	1596.38
645.781	1581.38
651.294	1566.38
656.802	1553.38
662.304	1552.38
667.8	1537.38
673.29	1546.38
678.775	1539.38
684.254	1554.38
689.726	1524.38
695.193	1531.38
700.655	1529.38
706.11	1499.38
711.56	1487.38
717.004	1502.38
722.442	1494.38
727.874	1466.38
733.301	1493.38
738.722	1476.38
744.137	1461.38
749.547	1471.38
754.951	1473.38
760.349	1454.38
765.741	1461.38
771.128	1465.38
776.509	1474.38
781.885	1475.38
787.254	1454.38
792.618	1463.38
797.977	1461.38
803.33	1434.38
808.677	1439.38
814.019	1450.38
819.355	1407.38
824.686	1413.38
830.011	1412.38
835.33	1392.38
840.644	1383.38
845.952	1374.38
851.255	1390.38
856.552	1381.38
861.844	1379.38
867.13	1381.38
872.41	1378.38
877.686	1351.38
882.955	1373.38
888.219	1338.38
893.478	1315.38
898.731	1307.38
903.979	1275.38
909.221	1263.38
914.458	1252.38
919.69	1244.38
924.916	1246.38
930.136	1236.38
935.351	1250.38
940.561	1243.38
945.766	1235.38
950.965	1239.38
956.158	1238.38
961.347	1215.38
966.529	1194.38
971.707	1190.38
976.879	1182.38
982.046	1162.38
987.208	1163.38
992.364	1155.38
997.515	1155.38
1002.66	1161.38
1007.801	1174.38
1012.936	1184.38
1018.066	1204.38
1023.19	1205.38
1028.309	1208.38
1033.423	1206.38
1038.532	1221.38
1043.636	1214.38
1048.734	1208.38
1053.827	1177.38
1058.915	1163.38
1063.998	1170.38
1069.075	1158.38
1074.147	1166.38
1079.214	1165.38
1084.276	1169.38
1089.333	1190.38
1094.385	1189.38
1099.431	1197.38
1104.472	1187.38
1109.509	1188.38
1114.54	1180.38
1119.565	1175.38
1124.586	1168.38
1129.602	1159.38
1134.613	1145.38
1139.618	1132.38
1144.619	1129.38
1149.614	1130.38
1154.604	1136.38
1159.589	1145.38
1164.57	1155.38
1169.545	1162.38
1174.515	1162.38
1179.48	1162.38
1184.44	1156.38
1189.395	1150.38
1194.345	1138.38
1199.29	1134.38
1204.23	1133.38
1209.165	1146.38
1214.095	1152.38
1219.021	1159.38
1223.941	1190.38
1228.856	1171.38
1233.766	1171.38
1238.672	1171.38
1243.572	1173.38
1248.467	1179.38
1253.358	1163.38
1258.244	1149.38
1263.124	1145.38
1268	1120.38
1272.871	1114.38
1277.737	1098.38
1282.599	1093.38
1287.455	1094.38
1292.306	1087.38
1297.153	1103.38
1301.995	1101.38
1306.832	1118.38
1311.664	1117.38
1316.491	1130.38
1321.314	1101.38
1326.132	1102.38
1330.945	1083.38
1335.753	1064.38
1340.556	1022.38
1345.354	1000.38
1350.148	965.38
1354.937	940.38
1359.722	953.38
1364.501	968.38
1369.276	1004.38
1374.046	1039.38
1378.811	1074.38
1383.572	1100.38
1388.327	1110.38
1393.079	1106.38
1397.825	1088.38
1402.567	1065.38
1407.304	1049.38
1412.036	1027.38
1416.764	1001.38
1421.487	1000.38
1426.205	1004.38
1430.919	1005.38
1435.628	1005.38
1440.333	1006.38
1445.032	997.38
1449.727	1021.38
1454.418	1009.38
1459.104	1016.38
1463.785	1000.38
1468.462	986.38
1473.134	971.38
1477.802	945.38
1482.465	942.38
1487.123	942.38
1491.777	947.38
1496.426	948.38
1501.071	966.38
1505.711	995.38
1510.347	1016.38
1514.978	1039.38
1519.604	1052.38
1524.226	1068.38
1528.844	1076.38
1533.457	1083.38
1538.065	1098.38
1542.669	1070.38
1547.269	1071.38
1551.864	1067.38
1556.454	1070.38
1561.041	1085.38
1565.622	1084.38
1570.199	1082.38
1574.772	1086.38
1579.34	1113.38
1583.904	1113.38
1588.464	1119.38
1593.019	1136.38
1597.569	1151.38
1602.115	1150.38
1606.657	1137.38
1611.195	1147.38
1615.728	1149.38
1620.256	1149.38
1624.78	1154.38
1629.3	1178.38
1633.816	1194.38
1638.327	1204.38
1642.834	1211.38
1647.336	1215.38
1651.834	1229.38
1656.328	1225.38
1660.817	1226.38
1665.302	1216.38
1669.783	1189.38
1674.259	1167.38
1678.732	1141.38
1683.199	1103.38
1687.663	1048.38
1692.122	994.38
1696.577	966.38
1701.028	963.38
1705.474	980.38
1709.917	1012.38
1714.355	1019.38
1718.788	987.38
1723.218	968.38
1727.643	927.38
1732.064	907.38
1736.481	897.38
1740.893	869.38
1745.301	842.38
1749.705	819.38
1754.105	800.38
1758.501	776.38
1762.893	756.38
1767.28	722.38
1771.663	722.38
1776.042	695.38
1780.417	694.38
1784.787	690.38
1789.154	701.38
1793.516	714.38
1797.874	731.38
1802.228	750.38
1806.578	772.38
1810.924	757.38
1815.266	775.38
1819.603	750.38
1823.937	737.38
1828.266	731.38
1832.591	726.38
1836.913	698.38
1841.23	708.38
1845.543	699.38
1849.852	682.38
1854.156	677.38
1858.457	687.38
1862.754	692.38
1867.047	685.38
1871.335	684.38
1875.62	676.38
1879.9	681.38
1884.177	690.38
1888.449	680.38
1892.718	662.38
1896.982	669.38
1901.243	658.38
1905.499	655.38
1909.752	668.38
1914	665.38
1918.245	651.38
1922.485	666.38
1926.722	671.38
1930.954	681.38
1935.183	690.38
1939.408	697.38
1943.628	710.38
1947.845	700.38
1952.058	707.38
1956.267	708.38
1960.472	694.38
1964.673	692.38
1968.87	683.38
1973.063	686.38
1977.252	680.38
1981.438	671.38
1985.619	665.38
1989.797	678.38
1993.971	676.38
1998.14	665.38
2002.306	675.38
2006.469	673.38
2010.627	662.38
2014.781	660.38
2018.932	672.38
2023.078	651.38
2027.221	662.38
2031.36	651.38
2035.495	651.38
2039.627	625.38
2043.754	621.38
2047.878	629.38
2051.998	623.38
2056.114	614.38
2060.226	622.38
2064.334	634.38
2068.439	634.38
2072.54	636.38
2076.637	643.38
2080.73	644.38
2084.82	636.38
2088.906	638.38
2092.988	646.38
2097.066	657.38
2101.14	643.38
2105.211	652.38
2109.278	645.38
2113.342	646.38
2117.401	644.38
2121.457	642.38
2125.509	630.38
2129.558	637.38
2133.602	638.38
2137.643	627.38
2141.681	639.38
2145.714	638.38
2149.744	631.38
2153.77	631.38
2157.793	618.38
2161.812	607.38
2165.827	619.38
2169.838	596.38
2173.846	603.38
2177.851	597.38
2181.851	575.38
2185.848	574.38
2189.841	559.38
2193.831	552.38
2197.817	561.38
2201.799	542.38
2205.778	546.38
2209.753	555.38
2213.725	545.38
2217.693	542.38
2221.657	551.38
2225.618	539.38
2229.575	528.38
2233.529	544.38
2237.479	541.38
2241.425	538.38
2245.368	534.38
2249.307	525.38
2253.243	516.38
2257.175	505.38
2261.104	504.38
2265.029	496.38
2268.95	496.38
2272.868	491.38
2276.783	490.38
2280.694	481.38
2284.601	482.38
2288.505	473.38
2292.405	471.38
2296.302	472.38
2300.195	469.38
2304.085	457.38
2307.971	455.38
2311.854	457.38
2315.734	457.38
2319.609	434.38
2323.482	425.38
2327.351	421.38
2331.216	421.38
2335.078	423.38
2338.937	426.38
2342.792	414.38
2346.643	422.38
2350.492	416.38
2354.336	412.38
2358.178	405.38
2362.015	417.38
2365.85	412.38
2369.681	419.38
2373.508	419.38
2377.333	412.38
2381.153	412.38
2384.971	412.38
2388.785	399.38
2392.595	397.38
2396.402	403.38
2400.206	398.38
2404.007	391.38
2407.804	393.38
2411.597	403.38
2415.388	386.38
2419.174	390.38
2422.958	391.38
2426.738	385.38
2430.515	390.38
2434.289	382.38
2438.059	378.38
2441.825	369.38
2445.589	381.38
2449.349	368.38
2453.106	373.38
2456.859	368.38
2460.61	365.38
2464.356	362.38
2468.1	356.38
2471.84	358.38
2475.577	348.38
2479.311	344.38
2483.041	349.38
2486.768	354.38
2490.492	352.38
2494.213	349.38
2497.93	336.38
2501.644	345.38
2505.355	345.38
2509.062	343.38
2512.766	342.38
2516.467	354.38
2520.165	341.38
2523.859	339.38
2527.551	329.38
2531.239	334.38
2534.923	333.38
2538.605	332.38
2542.283	335.38
2545.958	327.38
2549.63	334.38
2553.299	326.38
2556.964	336.38
2560.626	334.38
2564.285	327.38
2567.941	329.38
2571.594	327.38
2575.243	334.38
2578.89	324.38
2582.533	319.38
2586.173	312.38
2589.809	318.38
2593.443	313.38
2597.073	311.38
2600.701	313.38
2604.325	312.38
2607.946	310.38
2611.564	309.38
2615.178	316.38
2618.79	300.38
2622.398	300.38
2626.004	300.38
2629.606	300.38
2633.205	297.38
2636.801	300.38
2640.394	302.38
2643.983	289.38
2647.57	285.38
2651.153	286.38
2654.734	276.38
2658.311	285.38
2661.885	275.38
2665.456	276.38
2669.025	276.38
2672.589	270.38
2676.151	260.38
2679.71	260.38
2683.266	266.38
2686.819	256.38
2690.368	255.38
2693.915	253.38
2697.458	245.38
2700.999	243.38
2704.536	236.38
2708.071	226.38
2711.602	233.38
2715.13	232.38
2718.656	223.38
2722.178	227.38
2725.697	212.38
2729.214	222.38
2732.727	222.38
2736.237	230.38
2739.744	223.38
2743.249	221.38
2746.75	232.38
2750.248	228.38
2753.743	229.38
2757.236	233.38
2760.725	231.38
2764.211	235.38
2767.695	233.38
2771.175	231.38
2774.652	235.38
2778.127	233.38
2781.598	241.38
2785.067	241.38
2788.532	236.38
2791.995	240.38
2795.455	243.38
2798.911	234.38
2802.365	235.38
2805.816	236.38
2809.264	246.38
2812.709	243.38
2816.151	235.38
2819.59	236.38
2823.026	235.38
2826.46	228.38
2829.89	233.38
2833.318	226.38
2836.742	233.38
2840.164	238.38
2843.583	240.38
2846.999	236.38
2850.412	238.38
2853.822	244.38
2857.229	245.38
2860.634	246.38
2864.035	240.38
2867.434	247.38
2870.83	246.38
2874.223	250.38
2877.613	245.38
2881	256.38
2884.385	253.38
2887.766	253.38
2891.145	255.38
2894.521	249.38
2897.894	257.38
2901.264	254.38
2904.631	252.38
2907.996	262.38
2911.358	256.38
2914.717	251.38
2918.073	258.38
2921.426	266.38
2924.777	262.38
2928.124	275.38
2931.469	273.38
2934.811	272.38
2938.15	278.38
2941.487	279.38
2944.821	269.38
2948.152	284.38
2951.48	282.38
2954.805	285.38
2958.128	278.38
2961.447	288.38
2964.765	287.38
2968.079	294.38
2971.39	300.38
2974.699	309.38
2978.005	308.38
2981.308	312.38
2984.609	319.38
2987.907	327.38
2991.202	338.38
2994.494	353.38
2997.784	361.38
3001.07	369.38
3004.355	375.38
3007.636	386.38
3010.915	390.38
3014.191	412.38
3017.464	411.38
3020.734	410.38
3024.002	423.38
3027.267	421.38
3030.53	428.38
3033.789	434.38
3037.046	444.38
3040.301	452.38
3043.552	458.38
3046.801	465.38
3050.048	479.38
3053.291	486.38
3056.532	489.38
3059.771	516.38
3063.006	526.38
3066.239	537.38
3069.469	558.38
3072.697	565.38
3075.922	580.38
3079.144	594.38
3082.364	610.38
3085.581	613.38
3088.795	627.38
3092.007	648.38
3095.216	666.38
3098.423	674.38
3101.627	682.38
3104.828	703.38
3108.026	712.38
3111.222	735.38
3114.416	746.38
3117.607	759.38
3120.795	775.38
3123.98	796.38
3127.163	813.38
3130.344	829.38
3133.521	861.38
3136.696	870.38
3139.869	889.38
3143.039	892.38
3146.206	911.38
3149.371	922.38
3152.533	935.38
3155.693	934.38
3158.85	949.38
3162.005	945.38
3165.157	950.38
3168.306	950.38
3171.453	964.38
3174.597	959.38
3177.739	965.38
3180.878	961.38
3184.014	972.38
3187.149	964.38
3190.28	965.38
3193.409	962.38
3196.536	960.38
3199.659	968.38
3202.781	946.38
3205.9	974.38
3209.016	968.38
3212.13	974.38
3215.241	963.38
3218.35	952.38
3221.456	940.38
3224.56	949.38
3227.661	943.38
3230.76	914.38
3233.856	904.38
3236.95	907.38
3240.041	898.38
3243.13	885.38
3246.216	871.38
3249.3	870.38
3252.382	871.38
3255.46	876.38
3258.537	859.38
3261.611	857.38
3264.682	862.38
3267.751	867.38
3270.818	857.38
3273.882	864.38
3276.943	840.38
3280.002	839.38
3283.059	846.38
3286.113	816.38
3289.165	808.38
3292.214	812.38
3295.261	781.38
3298.306	778.38
3301.348	760.38
3304.387	743.38
3307.425	738.38
3310.459	729.38
3313.492	732.38
3316.521	715.38
3319.549	701.38
3322.574	689.38
3325.597	692.38
3328.617	683.38
3331.635	666.38
3334.65	684.38
3337.663	668.38
3340.674	672.38
3343.682	667.38
3346.688	655.38
3349.691	656.38
3352.692	657.38
3355.691	648.38
3358.687	638.38
3361.681	641.38
3364.673	630.38
3367.662	627.38
3370.649	599.38
3373.633	599.38
3376.615	602.38
3379.595	587.38
3382.572	572.38
3385.547	571.38
3388.52	564.38
3391.49	567.38
3394.458	547.38
3397.424	547.38
3400.387	543.38
3403.348	529.38
3406.307	527.38
3409.263	517.38
3412.217	520.38
3415.168	512.38
3418.118	504.38
3421.065	502.38
3424.009	499.38
3426.951	490.38
3429.891	470.38
3432.829	456.38
3435.764	460.38
3438.697	451.38
3441.628	442.38
3444.557	431.38
3447.483	419.38
3450.407	405.38
3453.328	399.38
3456.247	381.38
3459.164	377.38
3462.079	371.38
3464.991	360.38
3467.902	356.38
3470.809	331.38
3473.715	324.38
3476.618	321.38
3479.519	301.38
3482.418	301.38
3485.315	291.38
3488.209	287.38
3491.101	280.38
3493.99	275.38
3496.878	268.38
3499.763	252.38
3502.646	244.38
3505.527	249.38
3508.405	227.38
3511.281	224.38
3514.155	213.38
3517.027	208.38
3519.897	193.38
3522.764	190.38
3525.629	182.38
3528.492	177.38
3531.352	166.38
3534.211	153.38
3537.067	149.38
3539.921	134.38
3542.773	131.38
3545.622	128.38
3548.469	116.38
3551.315	110.38
3554.157	106.38
3556.998	96.38
3559.837	94.38
3562.673	92.38
3565.507	83.38
3568.339	87.38
3571.169	79.38
3573.996	66.38
3576.822	65.38
3579.645	68.38
3582.466	61.38
3585.285	56.38
3588.101	50.38
3590.916	45.38
3593.728	43.38
3596.538	37.38
3599.346	31.38
3602.152	35.38
3604.956	28.38
3607.757	26.38
3610.556	23.38
3613.354	20.38
3616.149	11.38
3618.942	12.38
3621.732	8.38
3624.521	12.38
3627.307	12.38
3630.092	5.38
3632.874	4.38
3635.654	-4.62
3638.432	-4.62
3641.208	-4.62
3643.982	-5.62
3646.753	-3.62
3649.523	-3.62
3652.29	-11.62
3655.055	-15.62
3657.818	-13.62
3660.579	-14.62
3663.338	-19.62
3666.095	-19.62
3668.849	-21.62
3671.602	-25.62
3674.352	-30.62
3677.101	-31.62
3679.847	-31.62
3682.591	-27.62
3685.333	-33.62
3688.073	-35.62
3690.811	-33.62
3693.547	-34.62
3696.281	-38.62
3699.013	-37.62
3701.742	-37.62
3704.47	-40.62
3707.195	-37.62
3709.919	-42.62
3712.64	-44.62
3715.359	-43.62
3718.076	-45.62
3720.792	-49.62
3723.505	-43.62
3726.216	-50.62
3728.925	-48.62
3731.632	-48.62
3734.336	-48.62
3737.039	-49.62
3739.74	-46.62
3742.439	-47.62
3745.136	-50.62
3747.83	-50.62
3750.523	-52.62
3753.213	-52.62
3755.902	-51.62
3758.589	-54.62
3761.273	-54.62
3763.956	-50.62
3766.636	-49.62
3769.315	-51.62
3771.991	-53.62
3774.665	-55.62
3777.338	-54.62
3780.008	-51.62
3782.677	-56.62
3785.343	-56.62
3788.007	-59.62
3790.67	-54.62
3793.33	-53.62
3795.989	-56.62
3798.645	-53.62
3801.299	-56.62
3803.952	-55.62
3806.602	-60.62
3809.251	-58.62
3811.897	-60.62
3814.542	-60.62
3817.184	-56.62
3819.825	-57.62
3822.463	-54.62
3825.1	-62.62
3827.735	-57.62
3830.367	-65.62
3832.998	-60.62
3835.627	-60.62
3838.253	-60.62
3840.878	-60.62
3843.501	-57.62
3846.122	-59.62
3848.741	-64.62
3851.358	-68.62
3853.973	-60.62
3856.586	-59.62
3859.197	-62.62
3861.806	-59.62
3864.414	-60.62
3867.019	-60.62
3869.622	-59.62
3872.224	-64.62
3874.823	-65.62
3877.421	-61.62
3880.016	-63.62
3882.61	-56.62
3885.202	-52.62
3887.792	-54.62
3890.38	-59.62
3892.966	-56.62
3895.55	-62.62
3898.132	-65.62
3900.713	-64.62
3903.291	-65.62
3905.868	-60.62
3908.442	-61.62
3911.015	-65.62
3913.586	-63.62
3916.155	-62.62
3918.722	-64.62
3921.287	-64.62
3923.85	-65.62
3926.411	-61.62
3928.971	-63.62
3931.528	-64.62
3934.084	-68.62
3936.638	-67.62
3939.19	-68.62
3941.74	-66.62
3944.288	-67.62
3946.834	-66.62
3949.378	-63.62
3951.921	-63.62
3954.462	-66.62
3957	-65.62
3959.537	-65.62
3962.072	-68.62
3964.606	-64.62
3967.137	-63.62
3969.667	-62.62
3972.194	-65.62
3974.72	-68.62
3977.244	-60.62
3979.766	-64.62
3982.286	-60.62
3984.805	-66.62
3987.321	-64.62
3989.836	-64.62
3992.349	-61.62
3994.86	-57.62
3997.369	-58.62
3999.877	-64.62
4002.382	-65.62
4004.886	-64.62
4007.388	-66.62
4009.888	-60.62
4012.386	-60.62
4014.883	-60.62
4017.377	-65.62
4019.87	-65.62
4022.361	-63.62
4024.85	-66.62
4027.338	-64.62
4029.823	-57.62
4032.307	-60.62
4034.789	-63.62
4037.269	-65.62
4039.747	-66.62
4042.224	-67.62
4044.699	-62.62
4047.172	-65.62
4049.643	-60.62
4052.112	-62.62
4054.58	-64.62
4057.046	-67.62
4059.51	-65.62
4061.972	-61.62
4064.432	-63.62
4066.891	-63.62
4069.348	-65.62
4071.803	-64.62
4074.256	-63.62
4076.708	-66.62
4079.158	-64.62
4081.606	-65.62
4084.052	-66.62
4086.497	-66.62
4088.939	-65.62
4091.38	-67.62
4093.819	-64.62
4096.257	-65.62
4098.693	-65.62
4101.127	-69.62
4103.559	-68.62
4105.989	-21.62
4108.418	-19.62
4110.845	-11.62
4113.27	-8.62
4115.694	-10.62
4118.115	-4.62
4120.535	-63.62
4122.954	-62.62
4125.37	-64.62
4127.785	-63.62
4130.198	-66.62
4132.609	-69.62
4135.019	-70.62
4137.427	-67.62
4139.833	-67.62
4142.237	-65.62
