Data from 10000000CFU2_C_ramanshift_RamanShift_15-34-32-496.txt Node
Date: Sun Dec 25 15:34:32 IST 2016
User: aro
Spectrometer: QEPB0276
Trigger mode: 0
Integration Time (sec): 5.000000E0
Scans to average: 1
Electric dark correction enabled: true
Nonlinearity correction enabled: false
Boxcar width: 0
XAxis mode: Raman Shifts
Number of Pixels in Spectrum: 1044
>>>>>Begin Spectral Data<<<<<
160.701	0.75
166.742	18.75
172.777	65.75
178.805	208.75
184.826	616.75
190.841	1487.75
196.849	2748.75
202.85	3927.75
208.845	4517.75
214.833	4515.75
220.815	4368.75
226.789	4201.75
232.758	4079.75
238.719	3942.75
244.674	3853.75
250.623	3677.75
256.565	3511.75
262.5	3363.75
268.429	3176.75
274.351	3056.75
280.267	2943.75
286.176	2831.75
292.079	2719.75
297.975	2615.75
303.865	2515.75
309.748	2457.75
315.625	2382.75
321.495	2340.75
327.359	2264.75
333.217	2227.75
339.068	2222.75
344.912	2187.75
350.751	2193.75
356.583	2150.75
362.408	2167.75
368.227	2176.75
374.04	2153.75
379.847	2171.75
385.647	2181.75
391.44	2184.75
397.228	2201.75
403.009	2216.75
408.784	2233.75
414.553	2244.75
420.315	2249.75
426.071	2254.75
431.821	2235.75
437.565	2265.75
443.302	2257.75
449.033	2261.75
454.758	2245.75
460.477	2228.75
466.189	2223.75
471.896	2210.75
477.596	2201.75
483.29	2194.75
488.978	2196.75
494.66	2186.75
500.335	2190.75
506.005	2131.75
511.668	2090.75
517.325	2071.75
522.977	2022.75
528.622	1997.75
534.261	1977.75
539.894	1971.75
545.521	1931.75
551.141	1926.75
556.756	1930.75
562.365	1902.75
567.968	1895.75
573.565	1868.75
579.155	1863.75
584.74	1861.75
590.319	1834.75
595.892	1824.75
601.459	1823.75
607.02	1814.75
612.575	1801.75
618.124	1771.75
623.667	1781.75
629.204	1760.75
634.735	1738.75
640.261	1727.75
645.781	1710.75
651.294	1701.75
656.802	1692.75
662.304	1702.75
667.8	1683.75
673.29	1688.75
678.775	1682.75
684.254	1670.75
689.726	1681.75
695.193	1651.75
700.655	1664.75
706.11	1646.75
711.56	1635.75
717.004	1610.75
722.442	1606.75
727.874	1601.75
733.301	1589.75
738.722	1576.75
744.137	1572.75
749.547	1560.75
754.951	1568.75
760.349	1566.75
765.741	1559.75
771.128	1559.75
776.509	1567.75
781.885	1547.75
787.254	1545.75
792.618	1553.75
797.977	1556.75
803.33	1524.75
808.677	1518.75
814.019	1496.75
819.355	1504.75
824.686	1483.75
830.011	1477.75
835.33	1475.75
840.644	1455.75
845.952	1445.75
851.255	1456.75
856.552	1442.75
861.844	1443.75
867.13	1421.75
872.41	1440.75
877.686	1421.75
882.955	1435.75
888.219	1397.75
893.478	1380.75
898.731	1352.75
903.979	1321.75
909.221	1317.75
914.458	1306.75
919.69	1276.75
924.916	1273.75
930.136	1289.75
935.351	1267.75
940.561	1269.75
945.766	1279.75
950.965	1259.75
956.158	1269.75
961.347	1238.75
966.529	1242.75
971.707	1208.75
976.879	1196.75
982.046	1190.75
987.208	1162.75
992.364	1159.75
997.515	1186.75
1002.66	1173.75
1007.801	1188.75
1012.936	1203.75
1018.066	1209.75
1023.19	1232.75
1028.309	1240.75
1033.423	1211.75
1038.532	1235.75
1043.636	1211.75
1048.734	1217.75
1053.827	1195.75
1058.915	1189.75
1063.998	1176.75
1069.075	1167.75
1074.147	1150.75
1079.214	1174.75
1084.276	1186.75
1089.333	1193.75
1094.385	1183.75
1099.431	1219.75
1104.472	1202.75
1109.509	1195.75
1114.54	1198.75
1119.565	1171.75
1124.586	1162.75
1129.602	1149.75
1134.613	1146.75
1139.618	1137.75
1144.619	1119.75
1149.614	1124.75
1154.604	1150.75
1159.589	1149.75
1164.57	1157.75
1169.545	1176.75
1174.515	1158.75
1179.48	1162.75
1184.44	1159.75
1189.395	1147.75
1194.345	1148.75
1199.29	1126.75
1204.23	1134.75
1209.165	1144.75
1214.095	1148.75
1219.021	1151.75
1223.941	1156.75
1228.856	1160.75
1233.766	1181.75
1238.672	1180.75
1243.572	1193.75
1248.467	1166.75
1253.358	1171.75
1258.244	1148.75
1263.124	1139.75
1268	1128.75
1272.871	1098.75
1277.737	1094.75
1282.599	1096.75
1287.455	1097.75
1292.306	1092.75
1297.153	1100.75
1301.995	1109.75
1306.832	1109.75
1311.664	1123.75
1316.491	1121.75
1321.314	1115.75
1326.132	1112.75
1330.945	1124.75
1335.753	1089.75
1340.556	1094.75
1345.354	1091.75
1350.148	1075.75
1354.937	1063.75
1359.722	1041.75
1364.501	1026.75
1369.276	1036.75
1374.046	1018.75
1378.811	1003.75
1383.572	1013.75
1388.327	992.75
1393.079	1022.75
1397.825	995.75
1402.567	986.75
1407.304	985.75
1412.036	985.75
1416.764	974.75
1421.487	990.75
1426.205	995.75
1430.919	1010.75
1435.628	1003.75
1440.333	1014.75
1445.032	1024.75
1449.727	1023.75
1454.418	1032.75
1459.104	1056.75
1463.785	1039.75
1468.462	1030.75
1473.134	1030.75
1477.802	1001.75
1482.465	1010.75
1487.123	983.75
1491.777	989.75
1496.426	988.75
1501.071	987.75
1505.711	1004.75
1510.347	1013.75
1514.978	1014.75
1519.604	1036.75
1524.226	1037.75
1528.844	1044.75
1533.457	1020.75
1538.065	1038.75
1542.669	1028.75
1547.269	1026.75
1551.864	1039.75
1556.454	1045.75
1561.041	1060.75
1565.622	1053.75
1570.199	1068.75
1574.772	1084.75
1579.34	1105.75
1583.904	1126.75
1588.464	1141.75
1593.019	1156.75
1597.569	1177.75
1602.115	1175.75
1606.657	1192.75
1611.195	1193.75
1615.728	1216.75
1620.256	1220.75
1624.78	1246.75
1629.3	1254.75
1633.816	1293.75
1638.327	1297.75
1642.834	1304.75
1647.336	1323.75
1651.834	1317.75
1656.328	1335.75
1660.817	1323.75
1665.302	1320.75
1669.783	1284.75
1674.259	1259.75
1678.732	1235.75
1683.199	1190.75
1687.663	1147.75
1692.122	1125.75
1696.577	1078.75
1701.028	1040.75
1705.474	973.75
1709.917	948.75
1714.355	918.75
1718.788	910.75
1723.218	891.75
1727.643	873.75
1732.064	861.75
1736.481	840.75
1740.893	830.75
1745.301	805.75
1749.705	789.75
1754.105	762.75
1758.501	757.75
1762.893	738.75
1767.28	722.75
1771.663	707.75
1776.042	716.75
1780.417	713.75
1784.787	710.75
1789.154	706.75
1793.516	699.75
1797.874	695.75
1802.228	704.75
1806.578	679.75
1810.924	682.75
1815.266	666.75
1819.603	655.75
1823.937	657.75
1828.266	644.75
1832.591	642.75
1836.913	651.75
1841.23	649.75
1845.543	639.75
1849.852	637.75
1854.156	641.75
1858.457	656.75
1862.754	645.75
1867.047	648.75
1871.335	645.75
1875.62	657.75
1879.9	659.75
1884.177	665.75
1888.449	660.75
1892.718	649.75
1896.982	643.75
1901.243	654.75
1905.499	639.75
1909.752	639.75
1914	634.75
1918.245	628.75
1922.485	645.75
1926.722	624.75
1930.954	646.75
1935.183	631.75
1939.408	647.75
1943.628	648.75
1947.845	644.75
1952.058	647.75
1956.267	638.75
1960.472	633.75
1964.673	619.75
1968.87	625.75
1973.063	619.75
1977.252	623.75
1981.438	600.75
1985.619	613.75
1989.797	609.75
1993.971	610.75
1998.14	625.75
2002.306	628.75
2006.469	620.75
2010.627	628.75
2014.781	628.75
2018.932	630.75
2023.078	623.75
2027.221	624.75
2031.36	629.75
2035.495	626.75
2039.627	612.75
2043.754	617.75
2047.878	612.75
2051.998	599.75
2056.114	612.75
2060.226	605.75
2064.334	619.75
2068.439	627.75
2072.54	613.75
2076.637	627.75
2080.73	620.75
2084.82	615.75
2088.906	621.75
2092.988	631.75
2097.066	628.75
2101.14	626.75
2105.211	623.75
2109.278	623.75
2113.342	605.75
2117.401	607.75
2121.457	613.75
2125.509	608.75
2129.558	614.75
2133.602	599.75
2137.643	600.75
2141.681	603.75
2145.714	600.75
2149.744	603.75
2153.77	586.75
2157.793	583.75
2161.812	590.75
2165.827	585.75
2169.838	577.75
2173.846	562.75
2177.851	548.75
2181.851	544.75
2185.848	540.75
2189.841	534.75
2193.831	532.75
2197.817	528.75
2201.799	533.75
2205.778	518.75
2209.753	520.75
2213.725	528.75
2217.693	520.75
2221.657	516.75
2225.618	523.75
2229.575	516.75
2233.529	520.75
2237.479	520.75
2241.425	507.75
2245.368	504.75
2249.307	490.75
2253.243	495.75
2257.175	493.75
2261.104	478.75
2265.029	474.75
2268.95	474.75
2272.868	464.75
2276.783	456.75
2280.694	455.75
2284.601	445.75
2288.505	440.75
2292.405	438.75
2296.302	435.75
2300.195	429.75
2304.085	432.75
2307.971	423.75
2311.854	412.75
2315.734	410.75
2319.609	401.75
2323.482	393.75
2327.351	403.75
2331.216	392.75
2335.078	400.75
2338.937	384.75
2342.792	373.75
2346.643	386.75
2350.492	372.75
2354.336	373.75
2358.178	377.75
2362.015	373.75
2365.85	382.75
2369.681	377.75
2373.508	380.75
2377.333	384.75
2381.153	380.75
2384.971	377.75
2388.785	375.75
2392.595	373.75
2396.402	369.75
2400.206	376.75
2404.007	371.75
2407.804	364.75
2411.597	374.75
2415.388	362.75
2419.174	363.75
2422.958	368.75
2426.738	360.75
2430.515	359.75
2434.289	361.75
2438.059	359.75
2441.825	359.75
2445.589	351.75
2449.349	352.75
2453.106	344.75
2456.859	350.75
2460.61	351.75
2464.356	344.75
2468.1	347.75
2471.84	342.75
2475.577	327.75
2479.311	329.75
2483.041	335.75
2486.768	339.75
2490.492	338.75
2494.213	336.75
2497.93	330.75
2501.644	335.75
2505.355	335.75
2509.062	327.75
2512.766	334.75
2516.467	325.75
2520.165	324.75
2523.859	326.75
2527.551	321.75
2531.239	323.75
2534.923	308.75
2538.605	313.75
2542.283	316.75
2545.958	303.75
2549.63	315.75
2553.299	306.75
2556.964	304.75
2560.626	310.75
2564.285	303.75
2567.941	303.75
2571.594	296.75
2575.243	300.75
2578.89	293.75
2582.533	297.75
2586.173	294.75
2589.809	293.75
2593.443	286.75
2597.073	286.75
2600.701	280.75
2604.325	286.75
2607.946	279.75
2611.564	275.75
2615.178	276.75
2618.79	287.75
2622.398	278.75
2626.004	278.75
2629.606	274.75
2633.205	262.75
2636.801	270.75
2640.394	267.75
2643.983	262.75
2647.57	266.75
2651.153	262.75
2654.734	263.75
2658.311	254.75
2661.885	247.75
2665.456	254.75
2669.025	249.75
2672.589	244.75
2676.151	247.75
2679.71	252.75
2683.266	248.75
2686.819	247.75
2690.368	247.75
2693.915	237.75
2697.458	243.75
2700.999	229.75
2704.536	221.75
2708.071	234.75
2711.602	240.75
2715.13	222.75
2718.656	222.75
2722.178	223.75
2725.697	228.75
2729.214	223.75
2732.727	229.75
2736.237	225.75
2739.744	241.75
2743.249	230.75
2746.75	232.75
2750.248	225.75
2753.743	228.75
2757.236	219.75
2760.725	233.75
2764.211	222.75
2767.695	222.75
2771.175	209.75
2774.652	219.75
2778.127	209.75
2781.598	212.75
2785.067	216.75
2788.532	216.75
2791.995	211.75
2795.455	221.75
2798.911	219.75
2802.365	215.75
2805.816	218.75
2809.264	223.75
2812.709	221.75
2816.151	221.75
2819.59	217.75
2823.026	223.75
2826.46	231.75
2829.89	233.75
2833.318	227.75
2836.742	232.75
2840.164	228.75
2843.583	228.75
2846.999	229.75
2850.412	228.75
2853.822	244.75
2857.229	246.75
2860.634	253.75
2864.035	253.75
2867.434	246.75
2870.83	245.75
2874.223	249.75
2877.613	254.75
2881	266.75
2884.385	262.75
2887.766	261.75
2891.145	267.75
2894.521	271.75
2897.894	272.75
2901.264	265.75
2904.631	269.75
2907.996	279.75
2911.358	278.75
2914.717	270.75
2918.073	282.75
2921.426	279.75
2924.777	290.75
2928.124	298.75
2931.469	288.75
2934.811	297.75
2938.15	302.75
2941.487	318.75
2944.821	319.75
2948.152	324.75
2951.48	327.75
2954.805	330.75
2958.128	332.75
2961.447	334.75
2964.765	333.75
2968.079	338.75
2971.39	344.75
2974.699	359.75
2978.005	359.75
2981.308	363.75
2984.609	378.75
2987.907	387.75
2991.202	398.75
2994.494	410.75
2997.784	424.75
3001.07	431.75
3004.355	438.75
3007.636	448.75
3010.915	458.75
3014.191	462.75
3017.464	486.75
3020.734	477.75
3024.002	479.75
3027.267	488.75
3030.53	505.75
3033.789	511.75
3037.046	521.75
3040.301	532.75
3043.552	544.75
3046.801	562.75
3050.048	571.75
3053.291	578.75
3056.532	608.75
3059.771	632.75
3063.006	645.75
3066.239	657.75
3069.469	680.75
3072.697	696.75
3075.922	706.75
3079.144	724.75
3082.364	745.75
3085.581	770.75
3088.795	796.75
3092.007	791.75
3095.216	812.75
3098.423	835.75
3101.627	847.75
3104.828	875.75
3108.026	884.75
3111.222	904.75
3114.416	933.75
3117.607	946.75
3120.795	960.75
3123.98	982.75
3127.163	1015.75
3130.344	1030.75
3133.521	1052.75
3136.696	1090.75
3139.869	1095.75
3143.039	1116.75
3146.206	1139.75
3149.371	1160.75
3152.533	1160.75
3155.693	1163.75
3158.85	1176.75
3162.005	1178.75
3165.157	1183.75
3168.306	1191.75
3171.453	1198.75
3174.597	1202.75
3177.739	1216.75
3180.878	1219.75
3184.014	1219.75
3187.149	1204.75
3190.28	1213.75
3193.409	1221.75
3196.536	1210.75
3199.659	1226.75
3202.781	1224.75
3205.9	1229.75
3209.016	1235.75
3212.13	1229.75
3215.241	1234.75
3218.35	1208.75
3221.456	1214.75
3224.56	1199.75
3227.661	1192.75
3230.76	1170.75
3233.856	1154.75
3236.95	1159.75
3240.041	1136.75
3243.13	1118.75
3246.216	1118.75
3249.3	1114.75
3252.382	1112.75
3255.46	1098.75
3258.537	1088.75
3261.611	1081.75
3264.682	1081.75
3267.751	1066.75
3270.818	1068.75
3273.882	1043.75
3276.943	1055.75
3280.002	1046.75
3283.059	1053.75
3286.113	1031.75
3289.165	1009.75
3292.214	998.75
3295.261	986.75
3298.306	977.75
3301.348	971.75
3304.387	939.75
3307.425	938.75
3310.459	918.75
3313.492	919.75
3316.521	894.75
3319.549	888.75
3322.574	876.75
3325.597	883.75
3328.617	865.75
3331.635	879.75
3334.65	863.75
3337.663	858.75
3340.674	841.75
3343.682	837.75
3346.688	836.75
3349.691	837.75
3352.692	838.75
3355.691	823.75
3358.687	831.75
3361.681	818.75
3364.673	801.75
3367.662	801.75
3370.649	774.75
3373.633	771.75
3376.615	763.75
3379.595	760.75
3382.572	742.75
3385.547	744.75
3388.52	734.75
3391.49	732.75
3394.458	709.75
3397.424	704.75
3400.387	683.75
3403.348	676.75
3406.307	676.75
3409.263	666.75
3412.217	658.75
3415.168	659.75
3418.118	644.75
3421.065	634.75
3424.009	644.75
3426.951	619.75
3429.891	610.75
3432.829	605.75
3435.764	601.75
3438.697	581.75
3441.628	566.75
3444.557	551.75
3447.483	542.75
3450.407	524.75
3453.328	509.75
3456.247	500.75
3459.164	495.75
3462.079	478.75
3464.991	456.75
3467.902	453.75
3470.809	423.75
3473.715	421.75
3476.618	404.75
3479.519	398.75
3482.418	385.75
3485.315	373.75
3488.209	360.75
3491.101	359.75
3493.99	336.75
3496.878	329.75
3499.763	319.75
3502.646	314.75
3505.527	310.75
3508.405	295.75
3511.281	291.75
3514.155	273.75
3517.027	259.75
3519.897	249.75
3522.764	240.75
3525.629	227.75
3528.492	221.75
3531.352	207.75
3534.211	197.75
3537.067	181.75
3539.921	174.75
3542.773	173.75
3545.622	158.75
3548.469	145.75
3551.315	144.75
3554.157	139.75
3556.998	127.75
3559.837	126.75
3562.673	120.75
3565.507	108.75
3568.339	110.75
3571.169	103.75
3573.996	98.75
3576.822	91.75
3579.645	86.75
3582.466	81.75
3585.285	77.75
3588.101	70.75
3590.916	58.75
3593.728	58.75
3596.538	51.75
3599.346	53.75
3602.152	49.75
3604.956	46.75
3607.757	40.75
3610.556	31.75
3613.354	30.75
3616.149	26.75
3618.942	23.75
3621.732	19.75
3624.521	19.75
3627.307	13.75
3630.092	11.75
3632.874	10.75
3635.654	2.75
3638.432	3.75
3641.208	1.75
3643.982	5.75
3646.753	3.75
3649.523	1.75
3652.29	-5.25
3655.055	-8.25
3657.818	-14.25
3660.579	-14.25
3663.338	-18.25
3666.095	-13.25
3668.849	-21.25
3671.602	-22.25
3674.352	-31.25
3677.101	-26.25
3679.847	-29.25
3682.591	-33.25
3685.333	-34.25
3688.073	-34.25
3690.811	-31.25
3693.547	-35.25
3696.281	-38.25
3699.013	-40.25
3701.742	-41.25
3704.47	-40.25
3707.195	-39.25
3709.919	-43.25
3712.64	-49.25
3715.359	-44.25
3718.076	-45.25
3720.792	-49.25
3723.505	-46.25
3726.216	-49.25
3728.925	-56.25
3731.632	-54.25
3734.336	-51.25
3737.039	-53.25
3739.74	-51.25
3742.439	-48.25
3745.136	-52.25
3747.83	-56.25
3750.523	-57.25
3753.213	-56.25
3755.902	-59.25
3758.589	-54.25
3761.273	-55.25
3763.956	-53.25
3766.636	-54.25
3769.315	-56.25
3771.991	-60.25
3774.665	-62.25
3777.338	-60.25
3780.008	-57.25
3782.677	-59.25
3785.343	-57.25
3788.007	-63.25
3790.67	-62.25
3793.33	-64.25
3795.989	-63.25
3798.645	-63.25
3801.299	-63.25
3803.952	-61.25
3806.602	-61.25
3809.251	-59.25
3811.897	-63.25
3814.542	-65.25
3817.184	-62.25
3819.825	-63.25
3822.463	-65.25
3825.1	-68.25
3827.735	-66.25
3830.367	-67.25
3832.998	-63.25
3835.627	-65.25
3838.253	-67.25
3840.878	-65.25
3843.501	-66.25
3846.122	-68.25
3848.741	-69.25
3851.358	-70.25
3853.973	-63.25
3856.586	-63.25
3859.197	-69.25
3861.806	-66.25
3864.414	-67.25
3867.019	-69.25
3869.622	-65.25
3872.224	-67.25
3874.823	-68.25
3877.421	-67.25
3880.016	-66.25
3882.61	-66.25
3885.202	-60.25
3887.792	-64.25
3890.38	-64.25
3892.966	-65.25
3895.55	-67.25
3898.132	-70.25
3900.713	-67.25
3903.291	-72.25
3905.868	-67.25
3908.442	-70.25
3911.015	-76.25
3913.586	-74.25
3916.155	-69.25
3918.722	-65.25
3921.287	-63.25
3923.85	-70.25
3926.411	-70.25
3928.971	-72.25
3931.528	-76.25
3934.084	-73.25
3936.638	-74.25
3939.19	-70.25
3941.74	-71.25
3944.288	-73.25
3946.834	-70.25
3949.378	-67.25
3951.921	-70.25
3954.462	-77.25
3957	-70.25
3959.537	-73.25
3962.072	-71.25
3964.606	-70.25
3967.137	-72.25
3969.667	-67.25
3972.194	-71.25
3974.72	-77.25
3977.244	-71.25
3979.766	-71.25
3982.286	-68.25
3984.805	-71.25
3987.321	-69.25
3989.836	-72.25
3992.349	-69.25
3994.86	-66.25
3997.369	-68.25
3999.877	-72.25
4002.382	-71.25
4004.886	-70.25
4007.388	-71.25
4009.888	-66.25
4012.386	-66.25
4014.883	-69.25
4017.377	-70.25
4019.87	-73.25
4022.361	-69.25
4024.85	-69.25
4027.338	-67.25
4029.823	-66.25
4032.307	-67.25
4034.789	-68.25
4037.269	-70.25
4039.747	-77.25
4042.224	-75.25
4044.699	-71.25
4047.172	-71.25
4049.643	-68.25
4052.112	-68.25
4054.58	-72.25
4057.046	-72.25
4059.51	-73.25
4061.972	-73.25
4064.432	-69.25
4066.891	-71.25
4069.348	-73.25
4071.803	-71.25
4074.256	-72.25
4076.708	-74.25
4079.158	-72.25
4081.606	-68.25
4084.052	-74.25
4086.497	-69.25
4088.939	-71.25
4091.38	-72.25
4093.819	-70.25
4096.257	-72.25
4098.693	-72.25
4101.127	-78.25
4103.559	-75.25
4105.989	-22.25
4108.418	-20.25
4110.845	-11.25
4113.27	-13.25
4115.694	-12.25
4118.115	-8.25
4120.535	-71.25
4122.954	-67.25
4125.37	-71.25
4127.785	-74.25
4130.198	-70.25
4132.609	-74.25
4135.019	-75.25
4137.427	-72.25
4139.833	-72.25
4142.237	-74.25
