Data from 10000000CFU1_A_ramanshift_RamanShift_14-27-35-415.txt Node
Date: Sun Dec 25 14:27:35 IST 2016
User: aro
Spectrometer: QEPB0276
Trigger mode: 0
Integration Time (sec): 5.000000E0
Scans to average: 1
Electric dark correction enabled: true
Nonlinearity correction enabled: false
Boxcar width: 0
XAxis mode: Raman Shifts
Number of Pixels in Spectrum: 1044
>>>>>Begin Spectral Data<<<<<
160.701	5.75
166.742	15.75
172.777	66.75
178.805	204.75
184.826	623.75
190.841	1489.75
196.849	2758.75
202.85	3943.75
208.845	4523.75
214.833	4540.75
220.815	4347.75
226.789	4200.75
232.758	4108.75
238.719	3977.75
244.674	3863.75
250.623	3722.75
256.565	3539.75
262.5	3394.75
268.429	3254.75
274.351	3113.75
280.267	2970.75
286.176	2857.75
292.079	2757.75
297.975	2656.75
303.865	2569.75
309.748	2483.75
315.625	2426.75
321.495	2368.75
327.359	2335.75
333.217	2296.75
339.068	2251.75
344.912	2239.75
350.751	2225.75
356.583	2209.75
362.408	2210.75
368.227	2223.75
374.04	2219.75
379.847	2219.75
385.647	2238.75
391.44	2247.75
397.228	2245.75
403.009	2263.75
408.784	2293.75
414.553	2286.75
420.315	2316.75
426.071	2307.75
431.821	2294.75
437.565	2289.75
443.302	2312.75
449.033	2318.75
454.758	2312.75
460.477	2274.75
466.189	2282.75
471.896	2278.75
477.596	2264.75
483.29	2258.75
488.978	2233.75
494.66	2247.75
500.335	2250.75
506.005	2188.75
511.668	2164.75
517.325	2119.75
522.977	2101.75
528.622	2062.75
534.261	2025.75
539.894	2008.75
545.521	2002.75
551.141	2005.75
556.756	1973.75
562.365	1967.75
567.968	1965.75
573.565	1934.75
579.155	1921.75
584.74	1926.75
590.319	1910.75
595.892	1906.75
601.459	1895.75
607.02	1874.75
612.575	1868.75
618.124	1869.75
623.667	1822.75
629.204	1828.75
634.735	1805.75
640.261	1791.75
645.781	1798.75
651.294	1792.75
656.802	1773.75
662.304	1754.75
667.8	1760.75
673.29	1739.75
678.775	1747.75
684.254	1741.75
689.726	1733.75
695.193	1717.75
700.655	1711.75
706.11	1699.75
711.56	1703.75
717.004	1670.75
722.442	1683.75
727.874	1678.75
733.301	1642.75
738.722	1644.75
744.137	1634.75
749.547	1642.75
754.951	1626.75
760.349	1635.75
765.741	1639.75
771.128	1624.75
776.509	1619.75
781.885	1636.75
787.254	1622.75
792.618	1636.75
797.977	1624.75
803.33	1611.75
808.677	1591.75
814.019	1584.75
819.355	1574.75
824.686	1555.75
830.011	1568.75
835.33	1533.75
840.644	1535.75
845.952	1530.75
851.255	1510.75
856.552	1516.75
861.844	1511.75
867.13	1493.75
872.41	1481.75
877.686	1476.75
882.955	1475.75
888.219	1475.75
893.478	1454.75
898.731	1430.75
903.979	1398.75
909.221	1375.75
914.458	1354.75
919.69	1354.75
924.916	1358.75
930.136	1349.75
935.351	1364.75
940.561	1341.75
945.766	1325.75
950.965	1340.75
956.158	1345.75
961.347	1333.75
966.529	1301.75
971.707	1283.75
976.879	1280.75
982.046	1254.75
987.208	1254.75
992.364	1244.75
997.515	1249.75
1002.66	1259.75
1007.801	1272.75
1012.936	1271.75
1018.066	1277.75
1023.19	1301.75
1028.309	1307.75
1033.423	1298.75
1038.532	1297.75
1043.636	1289.75
1048.734	1276.75
1053.827	1263.75
1058.915	1262.75
1063.998	1247.75
1069.075	1244.75
1074.147	1253.75
1079.214	1240.75
1084.276	1258.75
1089.333	1251.75
1094.385	1271.75
1099.431	1274.75
1104.472	1290.75
1109.509	1295.75
1114.54	1279.75
1119.565	1255.75
1124.586	1263.75
1129.602	1226.75
1134.613	1218.75
1139.618	1217.75
1144.619	1211.75
1149.614	1203.75
1154.604	1212.75
1159.589	1224.75
1164.57	1223.75
1169.545	1232.75
1174.515	1242.75
1179.48	1238.75
1184.44	1246.75
1189.395	1223.75
1194.345	1224.75
1199.29	1220.75
1204.23	1225.75
1209.165	1205.75
1214.095	1234.75
1219.021	1224.75
1223.941	1254.75
1228.856	1257.75
1233.766	1259.75
1238.672	1256.75
1243.572	1267.75
1248.467	1255.75
1253.358	1263.75
1258.244	1244.75
1263.124	1221.75
1268	1216.75
1272.871	1189.75
1277.737	1178.75
1282.599	1183.75
1287.455	1162.75
1292.306	1182.75
1297.153	1169.75
1301.995	1195.75
1306.832	1201.75
1311.664	1195.75
1316.491	1209.75
1321.314	1208.75
1326.132	1197.75
1330.945	1202.75
1335.753	1182.75
1340.556	1159.75
1345.354	1154.75
1350.148	1143.75
1354.937	1127.75
1359.722	1126.75
1364.501	1115.75
1369.276	1110.75
1374.046	1088.75
1378.811	1086.75
1383.572	1089.75
1388.327	1074.75
1393.079	1087.75
1397.825	1077.75
1402.567	1084.75
1407.304	1064.75
1412.036	1061.75
1416.764	1051.75
1421.487	1064.75
1426.205	1057.75
1430.919	1080.75
1435.628	1079.75
1440.333	1090.75
1445.032	1111.75
1449.727	1107.75
1454.418	1117.75
1459.104	1126.75
1463.785	1103.75
1468.462	1100.75
1473.134	1081.75
1477.802	1082.75
1482.465	1075.75
1487.123	1082.75
1491.777	1067.75
1496.426	1060.75
1501.071	1069.75
1505.711	1082.75
1510.347	1092.75
1514.978	1093.75
1519.604	1098.75
1524.226	1125.75
1528.844	1115.75
1533.457	1136.75
1538.065	1120.75
1542.669	1118.75
1547.269	1110.75
1551.864	1112.75
1556.454	1118.75
1561.041	1147.75
1565.622	1144.75
1570.199	1145.75
1574.772	1152.75
1579.34	1180.75
1583.904	1186.75
1588.464	1216.75
1593.019	1236.75
1597.569	1263.75
1602.115	1273.75
1606.657	1275.75
1611.195	1282.75
1615.728	1279.75
1620.256	1282.75
1624.78	1306.75
1629.3	1334.75
1633.816	1342.75
1638.327	1351.75
1642.834	1376.75
1647.336	1391.75
1651.834	1401.75
1656.328	1408.75
1660.817	1400.75
1665.302	1389.75
1669.783	1361.75
1674.259	1331.75
1678.732	1297.75
1683.199	1248.75
1687.663	1220.75
1692.122	1189.75
1696.577	1161.75
1701.028	1110.75
1705.474	1068.75
1709.917	1029.75
1714.355	994.75
1718.788	973.75
1723.218	985.75
1727.643	969.75
1732.064	941.75
1736.481	928.75
1740.893	892.75
1745.301	860.75
1749.705	857.75
1754.105	827.75
1758.501	819.75
1762.893	814.75
1767.28	790.75
1771.663	786.75
1776.042	776.75
1780.417	780.75
1784.787	790.75
1789.154	774.75
1793.516	777.75
1797.874	780.75
1802.228	763.75
1806.578	776.75
1810.924	753.75
1815.266	745.75
1819.603	741.75
1823.937	722.75
1828.266	721.75
1832.591	721.75
1836.913	708.75
1841.23	700.75
1845.543	720.75
1849.852	709.75
1854.156	712.75
1858.457	719.75
1862.754	710.75
1867.047	709.75
1871.335	718.75
1875.62	722.75
1879.9	720.75
1884.177	731.75
1888.449	731.75
1892.718	722.75
1896.982	702.75
1901.243	703.75
1905.499	714.75
1909.752	723.75
1914	706.75
1918.245	695.75
1922.485	709.75
1926.722	707.75
1930.954	702.75
1935.183	707.75
1939.408	719.75
1943.628	713.75
1947.845	708.75
1952.058	716.75
1956.267	713.75
1960.472	703.75
1964.673	709.75
1968.87	698.75
1973.063	692.75
1977.252	677.75
1981.438	674.75
1985.619	670.75
1989.797	679.75
1993.971	665.75
1998.14	680.75
2002.306	687.75
2006.469	687.75
2010.627	686.75
2014.781	689.75
2018.932	680.75
2023.078	691.75
2027.221	684.75
2031.36	675.75
2035.495	679.75
2039.627	675.75
2043.754	676.75
2047.878	669.75
2051.998	660.75
2056.114	658.75
2060.226	671.75
2064.334	664.75
2068.439	677.75
2072.54	680.75
2076.637	672.75
2080.73	683.75
2084.82	685.75
2088.906	688.75
2092.988	687.75
2097.066	679.75
2101.14	679.75
2105.211	676.75
2109.278	671.75
2113.342	666.75
2117.401	658.75
2121.457	671.75
2125.509	664.75
2129.558	660.75
2133.602	657.75
2137.643	649.75
2141.681	641.75
2145.714	649.75
2149.744	648.75
2153.77	639.75
2157.793	629.75
2161.812	631.75
2165.827	627.75
2169.838	627.75
2173.846	609.75
2177.851	610.75
2181.851	603.75
2185.848	594.75
2189.841	588.75
2193.831	581.75
2197.817	575.75
2201.799	582.75
2205.778	577.75
2209.753	571.75
2213.725	560.75
2217.693	565.75
2221.657	575.75
2225.618	571.75
2229.575	559.75
2233.529	561.75
2237.479	562.75
2241.425	567.75
2245.368	552.75
2249.307	547.75
2253.243	534.75
2257.175	528.75
2261.104	523.75
2265.029	503.75
2268.95	514.75
2272.868	515.75
2276.783	501.75
2280.694	502.75
2284.601	486.75
2288.505	495.75
2292.405	476.75
2296.302	483.75
2300.195	476.75
2304.085	470.75
2307.971	451.75
2311.854	457.75
2315.734	447.75
2319.609	438.75
2323.482	431.75
2327.351	429.75
2331.216	428.75
2335.078	424.75
2338.937	425.75
2342.792	419.75
2346.643	403.75
2350.492	410.75
2354.336	421.75
2358.178	416.75
2362.015	412.75
2365.85	418.75
2369.681	418.75
2373.508	422.75
2377.333	416.75
2381.153	415.75
2384.971	413.75
2388.785	411.75
2392.595	412.75
2396.402	408.75
2400.206	397.75
2404.007	403.75
2407.804	407.75
2411.597	410.75
2415.388	403.75
2419.174	400.75
2422.958	394.75
2426.738	397.75
2430.515	390.75
2434.289	395.75
2438.059	395.75
2441.825	382.75
2445.589	384.75
2449.349	383.75
2453.106	378.75
2456.859	383.75
2460.61	371.75
2464.356	377.75
2468.1	377.75
2471.84	375.75
2475.577	353.75
2479.311	365.75
2483.041	360.75
2486.768	360.75
2490.492	362.75
2494.213	361.75
2497.93	362.75
2501.644	369.75
2505.355	349.75
2509.062	359.75
2512.766	364.75
2516.467	361.75
2520.165	359.75
2523.859	357.75
2527.551	351.75
2531.239	350.75
2534.923	349.75
2538.605	347.75
2542.283	345.75
2545.958	342.75
2549.63	346.75
2553.299	336.75
2556.964	333.75
2560.626	338.75
2564.285	334.75
2567.941	331.75
2571.594	327.75
2575.243	336.75
2578.89	329.75
2582.533	333.75
2586.173	317.75
2589.809	323.75
2593.443	311.75
2597.073	315.75
2600.701	320.75
2604.325	306.75
2607.946	311.75
2611.564	310.75
2615.178	307.75
2618.79	307.75
2622.398	314.75
2626.004	297.75
2629.606	297.75
2633.205	295.75
2636.801	298.75
2640.394	306.75
2643.983	290.75
2647.57	285.75
2651.153	286.75
2654.734	286.75
2658.311	273.75
2661.885	277.75
2665.456	274.75
2669.025	271.75
2672.589	271.75
2676.151	274.75
2679.71	269.75
2683.266	271.75
2686.819	267.75
2690.368	265.75
2693.915	261.75
2697.458	260.75
2700.999	257.75
2704.536	254.75
2708.071	253.75
2711.602	258.75
2715.13	258.75
2718.656	251.75
2722.178	241.75
2725.697	244.75
2729.214	250.75
2732.727	242.75
2736.237	251.75
2739.744	253.75
2743.249	255.75
2746.75	247.75
2750.248	251.75
2753.743	249.75
2757.236	250.75
2760.725	251.75
2764.211	247.75
2767.695	245.75
2771.175	237.75
2774.652	241.75
2778.127	234.75
2781.598	237.75
2785.067	235.75
2788.532	239.75
2791.995	243.75
2795.455	242.75
2798.911	236.75
2802.365	231.75
2805.816	238.75
2809.264	247.75
2812.709	246.75
2816.151	245.75
2819.59	243.75
2823.026	245.75
2826.46	237.75
2829.89	243.75
2833.318	243.75
2836.742	248.75
2840.164	246.75
2843.583	245.75
2846.999	248.75
2850.412	252.75
2853.822	261.75
2857.229	252.75
2860.634	262.75
2864.035	261.75
2867.434	261.75
2870.83	261.75
2874.223	270.75
2877.613	284.75
2881	272.75
2884.385	274.75
2887.766	276.75
2891.145	274.75
2894.521	272.75
2897.894	274.75
2901.264	283.75
2904.631	282.75
2907.996	285.75
2911.358	285.75
2914.717	284.75
2918.073	295.75
2921.426	294.75
2924.777	290.75
2928.124	309.75
2931.469	304.75
2934.811	307.75
2938.15	310.75
2941.487	325.75
2944.821	319.75
2948.152	330.75
2951.48	328.75
2954.805	331.75
2958.128	333.75
2961.447	330.75
2964.765	346.75
2968.079	353.75
2971.39	363.75
2974.699	354.75
2978.005	366.75
2981.308	371.75
2984.609	380.75
2987.907	387.75
2991.202	400.75
2994.494	407.75
2997.784	423.75
3001.07	429.75
3004.355	441.75
3007.636	461.75
3010.915	459.75
3014.191	467.75
3017.464	489.75
3020.734	478.75
3024.002	497.75
3027.267	496.75
3030.53	500.75
3033.789	513.75
3037.046	537.75
3040.301	542.75
3043.552	547.75
3046.801	551.75
3050.048	573.75
3053.291	600.75
3056.532	597.75
3059.771	633.75
3063.006	648.75
3066.239	651.75
3069.469	679.75
3072.697	694.75
3075.922	716.75
3079.144	718.75
3082.364	748.75
3085.581	764.75
3088.795	776.75
3092.007	787.75
3095.216	807.75
3098.423	834.75
3101.627	841.75
3104.828	850.75
3108.026	878.75
3111.222	905.75
3114.416	914.75
3117.607	953.75
3120.795	956.75
3123.98	975.75
3127.163	1002.75
3130.344	1028.75
3133.521	1045.75
3136.696	1056.75
3139.869	1076.75
3143.039	1099.75
3146.206	1111.75
3149.371	1132.75
3152.533	1142.75
3155.693	1157.75
3158.85	1164.75
3162.005	1168.75
3165.157	1184.75
3168.306	1191.75
3171.453	1178.75
3174.597	1192.75
3177.739	1204.75
3180.878	1191.75
3184.014	1199.75
3187.149	1202.75
3190.28	1209.75
3193.409	1204.75
3196.536	1199.75
3199.659	1212.75
3202.781	1214.75
3205.9	1218.75
3209.016	1216.75
3212.13	1216.75
3215.241	1216.75
3218.35	1201.75
3221.456	1185.75
3224.56	1181.75
3227.661	1163.75
3230.76	1161.75
3233.856	1151.75
3236.95	1135.75
3240.041	1115.75
3243.13	1109.75
3246.216	1105.75
3249.3	1097.75
3252.382	1102.75
3255.46	1081.75
3258.537	1075.75
3261.611	1063.75
3264.682	1052.75
3267.751	1069.75
3270.818	1055.75
3273.882	1046.75
3276.943	1057.75
3280.002	1047.75
3283.059	1040.75
3286.113	1031.75
3289.165	998.75
3292.214	996.75
3295.261	990.75
3298.306	965.75
3301.348	949.75
3304.387	936.75
3307.425	935.75
3310.459	905.75
3313.492	901.75
3316.521	890.75
3319.549	879.75
3322.574	874.75
3325.597	863.75
3328.617	857.75
3331.635	851.75
3334.65	842.75
3337.663	857.75
3340.674	838.75
3343.682	839.75
3346.688	835.75
3349.691	831.75
3352.692	823.75
3355.691	816.75
3358.687	808.75
3361.681	805.75
3364.673	794.75
3367.662	780.75
3370.649	786.75
3373.633	773.75
3376.615	752.75
3379.595	754.75
3382.572	742.75
3385.547	728.75
3388.52	719.75
3391.49	702.75
3394.458	703.75
3397.424	694.75
3400.387	687.75
3403.348	679.75
3406.307	671.75
3409.263	659.75
3412.217	648.75
3415.168	646.75
3418.118	640.75
3421.065	645.75
3424.009	632.75
3426.951	615.75
3429.891	613.75
3432.829	607.75
3435.764	593.75
3438.697	586.75
3441.628	568.75
3444.557	553.75
3447.483	531.75
3450.407	515.75
3453.328	510.75
3456.247	499.75
3459.164	485.75
3462.079	474.75
3464.991	459.75
3467.902	434.75
3470.809	427.75
3473.715	414.75
3476.618	401.75
3479.519	393.75
3482.418	388.75
3485.315	378.75
3488.209	365.75
3491.101	356.75
3493.99	341.75
3496.878	330.75
3499.763	324.75
3502.646	307.75
3505.527	307.75
3508.405	300.75
3511.281	284.75
3514.155	268.75
3517.027	261.75
3519.897	251.75
3522.764	242.75
3525.629	231.75
3528.492	218.75
3531.352	209.75
3534.211	202.75
3537.067	180.75
3539.921	179.75
3542.773	172.75
3545.622	168.75
3548.469	153.75
3551.315	149.75
3554.157	140.75
3556.998	132.75
3559.837	120.75
3562.673	123.75
3565.507	111.75
3568.339	111.75
3571.169	100.75
3573.996	90.75
3576.822	92.75
3579.645	83.75
3582.466	84.75
3585.285	77.75
3588.101	71.75
3590.916	64.75
3593.728	58.75
3596.538	57.75
3599.346	50.75
3602.152	42.75
3604.956	44.75
3607.757	39.75
3610.556	34.75
3613.354	33.75
3616.149	24.75
3618.942	23.75
3621.732	21.75
3624.521	13.75
3627.307	16.75
3630.092	10.75
3632.874	9.75
3635.654	6.75
3638.432	6.75
3641.208	4.75
3643.982	-1.25
3646.753	0.75
3649.523	-2.25
3652.29	-8.25
3655.055	-13.25
3657.818	-12.25
3660.579	-12.25
3663.338	-17.25
3666.095	-15.25
3668.849	-19.25
3671.602	-25.25
3674.352	-33.25
3677.101	-31.25
3679.847	-35.25
3682.591	-30.25
3685.333	-31.25
3688.073	-33.25
3690.811	-34.25
3693.547	-38.25
3696.281	-40.25
3699.013	-44.25
3701.742	-41.25
3704.47	-44.25
3707.195	-40.25
3709.919	-40.25
3712.64	-44.25
3715.359	-45.25
3718.076	-46.25
3720.792	-51.25
3723.505	-48.25
3726.216	-55.25
3728.925	-54.25
3731.632	-54.25
3734.336	-49.25
3737.039	-53.25
3739.74	-51.25
3742.439	-48.25
3745.136	-56.25
3747.83	-52.25
3750.523	-57.25
3753.213	-58.25
3755.902	-57.25
3758.589	-57.25
3761.273	-53.25
3763.956	-55.25
3766.636	-55.25
3769.315	-59.25
3771.991	-61.25
3774.665	-60.25
3777.338	-61.25
3780.008	-60.25
3782.677	-57.25
3785.343	-58.25
3788.007	-58.25
3790.67	-60.25
3793.33	-64.25
3795.989	-63.25
3798.645	-61.25
3801.299	-62.25
3803.952	-62.25
3806.602	-62.25
3809.251	-60.25
3811.897	-66.25
3814.542	-68.25
3817.184	-63.25
3819.825	-68.25
3822.463	-63.25
3825.1	-69.25
3827.735	-64.25
3830.367	-68.25
3832.998	-65.25
3835.627	-66.25
3838.253	-67.25
3840.878	-69.25
3843.501	-68.25
3846.122	-65.25
3848.741	-67.25
3851.358	-69.25
3853.973	-66.25
3856.586	-66.25
3859.197	-73.25
3861.806	-68.25
3864.414	-72.25
3867.019	-70.25
3869.622	-66.25
3872.224	-65.25
3874.823	-68.25
3877.421	-66.25
3880.016	-68.25
3882.61	-68.25
3885.202	-61.25
3887.792	-65.25
3890.38	-65.25
3892.966	-66.25
3895.55	-68.25
3898.132	-70.25
3900.713	-68.25
3903.291	-72.25
3905.868	-69.25
3908.442	-69.25
3911.015	-74.25
3913.586	-72.25
3916.155	-69.25
3918.722	-69.25
3921.287	-71.25
3923.85	-71.25
3926.411	-69.25
3928.971	-73.25
3931.528	-73.25
3934.084	-76.25
3936.638	-77.25
3939.19	-72.25
3941.74	-72.25
3944.288	-70.25
3946.834	-70.25
3949.378	-70.25
3951.921	-71.25
3954.462	-73.25
3957	-73.25
3959.537	-70.25
3962.072	-69.25
3964.606	-71.25
3967.137	-72.25
3969.667	-70.25
3972.194	-71.25
3974.72	-76.25
3977.244	-70.25
3979.766	-70.25
3982.286	-68.25
3984.805	-68.25
3987.321	-73.25
3989.836	-71.25
3992.349	-71.25
3994.86	-69.25
3997.369	-68.25
3999.877	-71.25
4002.382	-70.25
4004.886	-72.25
4007.388	-71.25
4009.888	-68.25
4012.386	-69.25
4014.883	-71.25
4017.377	-73.25
4019.87	-75.25
4022.361	-69.25
4024.85	-68.25
4027.338	-68.25
4029.823	-64.25
4032.307	-66.25
4034.789	-69.25
4037.269	-74.25
4039.747	-77.25
4042.224	-77.25
4044.699	-70.25
4047.172	-70.25
4049.643	-69.25
4052.112	-69.25
4054.58	-74.25
4057.046	-71.25
4059.51	-74.25
4061.972	-72.25
4064.432	-68.25
4066.891	-71.25
4069.348	-74.25
4071.803	-72.25
4074.256	-74.25
4076.708	-75.25
4079.158	-70.25
4081.606	-70.25
4084.052	-72.25
4086.497	-72.25
4088.939	-72.25
4091.38	-73.25
4093.819	-72.25
4096.257	-72.25
4098.693	-72.25
4101.127	-71.25
4103.559	-74.25
4105.989	-26.25
4108.418	-21.25
4110.845	-19.25
4113.27	-19.25
4115.694	-10.25
4118.115	-11.25
4120.535	-71.25
4122.954	-72.25
4125.37	-71.25
4127.785	-75.25
4130.198	-71.25
4132.609	-74.25
4135.019	-76.25
4137.427	-71.25
4139.833	-72.25
4142.237	-73.25
