Data from 10000CFU3_B_ramanshift_RamanShift_15-00-02-695.txt Node
Date: Sun Dec 25 15:00:02 IST 2016
User: aro
Spectrometer: QEPB0276
Trigger mode: 0
Integration Time (sec): 5.000000E0
Scans to average: 1
Electric dark correction enabled: true
Nonlinearity correction enabled: false
Boxcar width: 0
XAxis mode: Raman Shifts
Number of Pixels in Spectrum: 1044
>>>>>Begin Spectral Data<<<<<
160.701	3.38
166.742	19.38
172.777	68.38
178.805	217.38
184.826	647.38
190.841	1547.38
196.849	2832.38
202.85	4024.38
208.845	4685.38
214.833	4652.38
220.815	4485.38
226.789	4368.38
232.758	4216.38
238.719	4104.38
244.674	4018.38
250.623	3812.38
256.565	3654.38
262.5	3498.38
268.429	3339.38
274.351	3208.38
280.267	3068.38
286.176	2959.38
292.079	2850.38
297.975	2771.38
303.865	2656.38
309.748	2580.38
315.625	2513.38
321.495	2439.38
327.359	2390.38
333.217	2361.38
339.068	2338.38
344.912	2323.38
350.751	2304.38
356.583	2270.38
362.408	2281.38
368.227	2299.38
374.04	2311.38
379.847	2301.38
385.647	2316.38
391.44	2346.38
397.228	2313.38
403.009	2335.38
408.784	2353.38
414.553	2372.38
420.315	2380.38
426.071	2388.38
431.821	2374.38
437.565	2382.38
443.302	2388.38
449.033	2375.38
454.758	2366.38
460.477	2362.38
466.189	2358.38
471.896	2345.38
477.596	2339.38
483.29	2326.38
488.978	2330.38
494.66	2311.38
500.335	2295.38
506.005	2246.38
511.668	2242.38
517.325	2183.38
522.977	2161.38
528.622	2140.38
534.261	2110.38
539.894	2089.38
545.521	2079.38
551.141	2058.38
556.756	2044.38
562.365	2034.38
567.968	2031.38
573.565	2003.38
579.155	2012.38
584.74	1994.38
590.319	1989.38
595.892	1977.38
601.459	1964.38
607.02	1951.38
612.575	1943.38
618.124	1916.38
623.667	1915.38
629.204	1889.38
634.735	1872.38
640.261	1874.38
645.781	1854.38
651.294	1857.38
656.802	1833.38
662.304	1830.38
667.8	1801.38
673.29	1811.38
678.775	1814.38
684.254	1796.38
689.726	1812.38
695.193	1795.38
700.655	1778.38
706.11	1782.38
711.56	1749.38
717.004	1753.38
722.442	1748.38
727.874	1747.38
733.301	1735.38
738.722	1714.38
744.137	1715.38
749.547	1697.38
754.951	1704.38
760.349	1691.38
765.741	1687.38
771.128	1685.38
776.509	1700.38
781.885	1702.38
787.254	1694.38
792.618	1702.38
797.977	1693.38
803.33	1665.38
808.677	1672.38
814.019	1639.38
819.355	1644.38
824.686	1617.38
830.011	1611.38
835.33	1594.38
840.644	1598.38
845.952	1595.38
851.255	1582.38
856.552	1580.38
861.844	1576.38
867.13	1572.38
872.41	1570.38
877.686	1544.38
882.955	1542.38
888.219	1533.38
893.478	1509.38
898.731	1468.38
903.979	1469.38
909.221	1442.38
914.458	1420.38
919.69	1420.38
924.916	1412.38
930.136	1425.38
935.351	1410.38
940.561	1402.38
945.766	1417.38
950.965	1416.38
956.158	1417.38
961.347	1385.38
966.529	1370.38
971.707	1344.38
976.879	1325.38
982.046	1306.38
987.208	1312.38
992.364	1304.38
997.515	1312.38
1002.66	1317.38
1007.801	1324.38
1012.936	1330.38
1018.066	1354.38
1023.19	1361.38
1028.309	1370.38
1033.423	1351.38
1038.532	1365.38
1043.636	1355.38
1048.734	1351.38
1053.827	1336.38
1058.915	1332.38
1063.998	1291.38
1069.075	1295.38
1074.147	1301.38
1079.214	1293.38
1084.276	1319.38
1089.333	1322.38
1094.385	1328.38
1099.431	1333.38
1104.472	1351.38
1109.509	1348.38
1114.54	1334.38
1119.565	1328.38
1124.586	1315.38
1129.602	1294.38
1134.613	1264.38
1139.618	1283.38
1144.619	1280.38
1149.614	1279.38
1154.604	1290.38
1159.589	1277.38
1164.57	1291.38
1169.545	1307.38
1174.515	1302.38
1179.48	1302.38
1184.44	1295.38
1189.395	1286.38
1194.345	1285.38
1199.29	1273.38
1204.23	1265.38
1209.165	1276.38
1214.095	1295.38
1219.021	1301.38
1223.941	1321.38
1228.856	1314.38
1233.766	1316.38
1238.672	1330.38
1243.572	1330.38
1248.467	1322.38
1253.358	1311.38
1258.244	1307.38
1263.124	1289.38
1268	1273.38
1272.871	1251.38
1277.737	1229.38
1282.599	1231.38
1287.455	1224.38
1292.306	1229.38
1297.153	1251.38
1301.995	1243.38
1306.832	1272.38
1311.664	1263.38
1316.491	1272.38
1321.314	1266.38
1326.132	1255.38
1330.945	1254.38
1335.753	1242.38
1340.556	1235.38
1345.354	1215.38
1350.148	1196.38
1354.937	1180.38
1359.722	1171.38
1364.501	1168.38
1369.276	1157.38
1374.046	1153.38
1378.811	1129.38
1383.572	1129.38
1388.327	1138.38
1393.079	1126.38
1397.825	1126.38
1402.567	1123.38
1407.304	1111.38
1412.036	1119.38
1416.764	1110.38
1421.487	1114.38
1426.205	1123.38
1430.919	1127.38
1435.628	1132.38
1440.333	1136.38
1445.032	1145.38
1449.727	1170.38
1454.418	1171.38
1459.104	1181.38
1463.785	1183.38
1468.462	1172.38
1473.134	1159.38
1477.802	1138.38
1482.465	1130.38
1487.123	1131.38
1491.777	1124.38
1496.426	1141.38
1501.071	1111.38
1505.711	1132.38
1510.347	1143.38
1514.978	1153.38
1519.604	1159.38
1524.226	1170.38
1528.844	1180.38
1533.457	1162.38
1538.065	1167.38
1542.669	1161.38
1547.269	1150.38
1551.864	1166.38
1556.454	1168.38
1561.041	1170.38
1565.622	1180.38
1570.199	1193.38
1574.772	1221.38
1579.34	1213.38
1583.904	1257.38
1588.464	1285.38
1593.019	1289.38
1597.569	1316.38
1602.115	1318.38
1606.657	1324.38
1611.195	1321.38
1615.728	1353.38
1620.256	1353.38
1624.78	1372.38
1629.3	1391.38
1633.816	1410.38
1638.327	1413.38
1642.834	1431.38
1647.336	1451.38
1651.834	1463.38
1656.328	1461.38
1660.817	1460.38
1665.302	1460.38
1669.783	1418.38
1674.259	1386.38
1678.732	1350.38
1683.199	1300.38
1687.663	1285.38
1692.122	1240.38
1696.577	1197.38
1701.028	1150.38
1705.474	1099.38
1709.917	1058.38
1714.355	1048.38
1718.788	1021.38
1723.218	1013.38
1727.643	1012.38
1732.064	986.38
1736.481	970.38
1740.893	941.38
1745.301	909.38
1749.705	915.38
1754.105	891.38
1758.501	860.38
1762.893	853.38
1767.28	837.38
1771.663	831.38
1776.042	832.38
1780.417	817.38
1784.787	819.38
1789.154	833.38
1793.516	826.38
1797.874	808.38
1802.228	822.38
1806.578	809.38
1810.924	803.38
1815.266	785.38
1819.603	777.38
1823.937	769.38
1828.266	758.38
1832.591	762.38
1836.913	754.38
1841.23	743.38
1845.543	747.38
1849.852	745.38
1854.156	752.38
1858.457	752.38
1862.754	738.38
1867.047	747.38
1871.335	762.38
1875.62	764.38
1879.9	759.38
1884.177	770.38
1888.449	765.38
1892.718	764.38
1896.982	747.38
1901.243	760.38
1905.499	743.38
1909.752	734.38
1914	747.38
1918.245	740.38
1922.485	753.38
1926.722	749.38
1930.954	746.38
1935.183	756.38
1939.408	767.38
1943.628	741.38
1947.845	753.38
1952.058	743.38
1956.267	748.38
1960.472	748.38
1964.673	747.38
1968.87	728.38
1973.063	727.38
1977.252	725.38
1981.438	708.38
1985.619	711.38
1989.797	708.38
1993.971	707.38
1998.14	714.38
2002.306	712.38
2006.469	720.38
2010.627	729.38
2014.781	727.38
2018.932	719.38
2023.078	725.38
2027.221	724.38
2031.36	723.38
2035.495	720.38
2039.627	717.38
2043.754	716.38
2047.878	711.38
2051.998	690.38
2056.114	696.38
2060.226	707.38
2064.334	713.38
2068.439	709.38
2072.54	718.38
2076.637	712.38
2080.73	717.38
2084.82	706.38
2088.906	722.38
2092.988	723.38
2097.066	725.38
2101.14	716.38
2105.211	722.38
2109.278	704.38
2113.342	703.38
2117.401	700.38
2121.457	699.38
2125.509	695.38
2129.558	696.38
2133.602	697.38
2137.643	695.38
2141.681	694.38
2145.714	689.38
2149.744	677.38
2153.77	680.38
2157.793	672.38
2161.812	677.38
2165.827	661.38
2169.838	655.38
2173.846	649.38
2177.851	632.38
2181.851	634.38
2185.848	624.38
2189.841	617.38
2193.831	614.38
2197.817	607.38
2201.799	608.38
2205.778	616.38
2209.753	611.38
2213.725	605.38
2217.693	618.38
2221.657	600.38
2225.618	609.38
2229.575	600.38
2233.529	601.38
2237.479	589.38
2241.425	597.38
2245.368	586.38
2249.307	579.38
2253.243	574.38
2257.175	555.38
2261.104	546.38
2265.029	541.38
2268.95	542.38
2272.868	535.38
2276.783	533.38
2280.694	525.38
2284.601	518.38
2288.505	509.38
2292.405	513.38
2296.302	502.38
2300.195	499.38
2304.085	497.38
2307.971	482.38
2311.854	495.38
2315.734	469.38
2319.609	476.38
2323.482	459.38
2327.351	461.38
2331.216	452.38
2335.078	455.38
2338.937	448.38
2342.792	453.38
2346.643	441.38
2350.492	446.38
2354.336	440.38
2358.178	435.38
2362.015	443.38
2365.85	444.38
2369.681	450.38
2373.508	443.38
2377.333	454.38
2381.153	452.38
2384.971	450.38
2388.785	442.38
2392.595	447.38
2396.402	437.38
2400.206	432.38
2404.007	433.38
2407.804	427.38
2411.597	429.38
2415.388	432.38
2419.174	434.38
2422.958	423.38
2426.738	427.38
2430.515	419.38
2434.289	419.38
2438.059	417.38
2441.825	411.38
2445.589	413.38
2449.349	414.38
2453.106	413.38
2456.859	412.38
2460.61	402.38
2464.356	406.38
2468.1	394.38
2471.84	397.38
2475.577	394.38
2479.311	391.38
2483.041	398.38
2486.768	402.38
2490.492	393.38
2494.213	393.38
2497.93	399.38
2501.644	393.38
2505.355	408.38
2509.062	394.38
2512.766	385.38
2516.467	396.38
2520.165	395.38
2523.859	386.38
2527.551	377.38
2531.239	381.38
2534.923	380.38
2538.605	381.38
2542.283	377.38
2545.958	362.38
2549.63	363.38
2553.299	360.38
2556.964	367.38
2560.626	353.38
2564.285	359.38
2567.941	351.38
2571.594	352.38
2575.243	348.38
2578.89	340.38
2582.533	349.38
2586.173	346.38
2589.809	338.38
2593.443	341.38
2597.073	341.38
2600.701	335.38
2604.325	336.38
2607.946	320.38
2611.564	335.38
2615.178	335.38
2618.79	330.38
2622.398	332.38
2626.004	321.38
2629.606	322.38
2633.205	310.38
2636.801	316.38
2640.394	316.38
2643.983	311.38
2647.57	314.38
2651.153	312.38
2654.734	301.38
2658.311	301.38
2661.885	300.38
2665.456	298.38
2669.025	292.38
2672.589	294.38
2676.151	291.38
2679.71	289.38
2683.266	287.38
2686.819	289.38
2690.368	287.38
2693.915	281.38
2697.458	284.38
2700.999	282.38
2704.536	272.38
2708.071	270.38
2711.602	271.38
2715.13	265.38
2718.656	268.38
2722.178	268.38
2725.697	274.38
2729.214	275.38
2732.727	267.38
2736.237	267.38
2739.744	275.38
2743.249	273.38
2746.75	270.38
2750.248	264.38
2753.743	265.38
2757.236	262.38
2760.725	267.38
2764.211	259.38
2767.695	263.38
2771.175	251.38
2774.652	257.38
2778.127	246.38
2781.598	246.38
2785.067	251.38
2788.532	257.38
2791.995	254.38
2795.455	263.38
2798.911	252.38
2802.365	251.38
2805.816	252.38
2809.264	259.38
2812.709	256.38
2816.151	264.38
2819.59	258.38
2823.026	262.38
2826.46	268.38
2829.89	264.38
2833.318	260.38
2836.742	258.38
2840.164	265.38
2843.583	268.38
2846.999	267.38
2850.412	261.38
2853.822	275.38
2857.229	275.38
2860.634	282.38
2864.035	268.38
2867.434	284.38
2870.83	274.38
2874.223	283.38
2877.613	293.38
2881	299.38
2884.385	291.38
2887.766	297.38
2891.145	291.38
2894.521	286.38
2897.894	285.38
2901.264	291.38
2904.631	296.38
2907.996	304.38
2911.358	299.38
2914.717	293.38
2918.073	303.38
2921.426	302.38
2924.777	307.38
2928.124	316.38
2931.469	317.38
2934.811	322.38
2938.15	328.38
2941.487	334.38
2944.821	335.38
2948.152	341.38
2951.48	342.38
2954.805	344.38
2958.128	351.38
2961.447	353.38
2964.765	359.38
2968.079	367.38
2971.39	379.38
2974.699	381.38
2978.005	381.38
2981.308	387.38
2984.609	390.38
2987.907	408.38
2991.202	414.38
2994.494	427.38
2997.784	444.38
3001.07	449.38
3004.355	463.38
3007.636	463.38
3010.915	481.38
3014.191	485.38
3017.464	499.38
3020.734	492.38
3024.002	507.38
3027.267	504.38
3030.53	517.38
3033.789	528.38
3037.046	558.38
3040.301	549.38
3043.552	570.38
3046.801	583.38
3050.048	593.38
3053.291	600.38
3056.532	616.38
3059.771	646.38
3063.006	662.38
3066.239	679.38
3069.469	700.38
3072.697	714.38
3075.922	734.38
3079.144	754.38
3082.364	764.38
3085.581	789.38
3088.795	817.38
3092.007	822.38
3095.216	838.38
3098.423	858.38
3101.627	879.38
3104.828	884.38
3108.026	926.38
3111.222	927.38
3114.416	945.38
3117.607	966.38
3120.795	977.38
3123.98	997.38
3127.163	1036.38
3130.344	1060.38
3133.521	1073.38
3136.696	1089.38
3139.869	1116.38
3143.039	1135.38
3146.206	1160.38
3149.371	1164.38
3152.533	1168.38
3155.693	1191.38
3158.85	1182.38
3162.005	1204.38
3165.157	1198.38
3168.306	1216.38
3171.453	1218.38
3174.597	1209.38
3177.739	1227.38
3180.878	1246.38
3184.014	1227.38
3187.149	1226.38
3190.28	1241.38
3193.409	1230.38
3196.536	1249.38
3199.659	1245.38
3202.781	1250.38
3205.9	1257.38
3209.016	1258.38
3212.13	1239.38
3215.241	1232.38
3218.35	1238.38
3221.456	1214.38
3224.56	1208.38
3227.661	1192.38
3230.76	1176.38
3233.856	1171.38
3236.95	1147.38
3240.041	1146.38
3243.13	1139.38
3246.216	1133.38
3249.3	1118.38
3252.382	1110.38
3255.46	1103.38
3258.537	1078.38
3261.611	1097.38
3264.682	1078.38
3267.751	1075.38
3270.818	1077.38
3273.882	1068.38
3276.943	1054.38
3280.002	1059.38
3283.059	1050.38
3286.113	1046.38
3289.165	1017.38
3292.214	1004.38
3295.261	997.38
3298.306	985.38
3301.348	977.38
3304.387	952.38
3307.425	952.38
3310.459	925.38
3313.492	916.38
3316.521	907.38
3319.549	897.38
3322.574	891.38
3325.597	886.38
3328.617	883.38
3331.635	878.38
3334.65	879.38
3337.663	868.38
3340.674	864.38
3343.682	852.38
3346.688	858.38
3349.691	858.38
3352.692	860.38
3355.691	847.38
3358.687	833.38
3361.681	821.38
3364.673	806.38
3367.662	800.38
3370.649	795.38
3373.633	792.38
3376.615	791.38
3379.595	770.38
3382.572	765.38
3385.547	734.38
3388.52	726.38
3391.49	721.38
3394.458	715.38
3397.424	699.38
3400.387	703.38
3403.348	690.38
3406.307	688.38
3409.263	677.38
3412.217	671.38
3415.168	661.38
3418.118	656.38
3421.065	644.38
3424.009	635.38
3426.951	616.38
3429.891	621.38
3432.829	609.38
3435.764	603.38
3438.697	588.38
3441.628	567.38
3444.557	560.38
3447.483	548.38
3450.407	522.38
3453.328	510.38
3456.247	506.38
3459.164	489.38
3462.079	476.38
3464.991	456.38
3467.902	444.38
3470.809	433.38
3473.715	426.38
3476.618	401.38
3479.519	403.38
3482.418	387.38
3485.315	386.38
3488.209	371.38
3491.101	354.38
3493.99	345.38
3496.878	335.38
3499.763	332.38
3502.646	326.38
3505.527	319.38
3508.405	299.38
3511.281	279.38
3514.155	271.38
3517.027	262.38
3519.897	254.38
3522.764	253.38
3525.629	233.38
3528.492	221.38
3531.352	213.38
3534.211	206.38
3537.067	187.38
3539.921	181.38
3542.773	171.38
3545.622	162.38
3548.469	155.38
3551.315	147.38
3554.157	136.38
3556.998	133.38
3559.837	125.38
3562.673	119.38
3565.507	120.38
3568.339	102.38
3571.169	105.38
3573.996	102.38
3576.822	92.38
3579.645	80.38
3582.466	85.38
3585.285	77.38
3588.101	72.38
3590.916	71.38
3593.728	62.38
3596.538	54.38
3599.346	57.38
3602.152	51.38
3604.956	46.38
3607.757	41.38
3610.556	38.38
3613.354	29.38
3616.149	23.38
3618.942	21.38
3621.732	21.38
3624.521	19.38
3627.307	16.38
3630.092	15.38
3632.874	12.38
3635.654	5.38
3638.432	10.38
3641.208	2.38
3643.982	-3.62
3646.753	0.38
3649.523	5.38
3652.29	-4.62
3655.055	-9.62
3657.818	-12.62
3660.579	-12.62
3663.338	-13.62
3666.095	-17.62
3668.849	-22.62
3671.602	-23.62
3674.352	-29.62
3677.101	-25.62
3679.847	-27.62
3682.591	-27.62
3685.333	-29.62
3688.073	-30.62
3690.811	-35.62
3693.547	-34.62
3696.281	-37.62
3699.013	-39.62
3701.742	-39.62
3704.47	-39.62
3707.195	-40.62
3709.919	-42.62
3712.64	-48.62
3715.359	-47.62
3718.076	-51.62
3720.792	-50.62
3723.505	-43.62
3726.216	-49.62
3728.925	-49.62
3731.632	-51.62
3734.336	-50.62
3737.039	-54.62
3739.74	-55.62
3742.439	-51.62
3745.136	-57.62
3747.83	-51.62
3750.523	-56.62
3753.213	-56.62
3755.902	-54.62
3758.589	-55.62
3761.273	-59.62
3763.956	-55.62
3766.636	-56.62
3769.315	-57.62
3771.991	-61.62
3774.665	-57.62
3777.338	-58.62
3780.008	-56.62
3782.677	-64.62
3785.343	-59.62
3788.007	-60.62
3790.67	-62.62
3793.33	-63.62
3795.989	-59.62
3798.645	-60.62
3801.299	-60.62
3803.952	-63.62
3806.602	-62.62
3809.251	-62.62
3811.897	-67.62
3814.542	-67.62
3817.184	-61.62
3819.825	-63.62
3822.463	-61.62
3825.1	-66.62
3827.735	-65.62
3830.367	-70.62
3832.998	-66.62
3835.627	-66.62
3838.253	-66.62
3840.878	-67.62
3843.501	-65.62
3846.122	-65.62
3848.741	-68.62
3851.358	-71.62
3853.973	-69.62
3856.586	-65.62
3859.197	-67.62
3861.806	-67.62
3864.414	-69.62
3867.019	-67.62
3869.622	-64.62
3872.224	-69.62
3874.823	-69.62
3877.421	-69.62
3880.016	-68.62
3882.61	-65.62
3885.202	-64.62
3887.792	-63.62
3890.38	-63.62
3892.966	-67.62
3895.55	-68.62
3898.132	-70.62
3900.713	-71.62
3903.291	-72.62
3905.868	-68.62
3908.442	-68.62
3911.015	-74.62
3913.586	-72.62
3916.155	-68.62
3918.722	-72.62
3921.287	-70.62
3923.85	-72.62
3926.411	-69.62
3928.971	-69.62
3931.528	-71.62
3934.084	-72.62
3936.638	-74.62
3939.19	-75.62
3941.74	-72.62
3944.288	-74.62
3946.834	-74.62
3949.378	-71.62
3951.921	-68.62
3954.462	-69.62
3957	-68.62
3959.537	-71.62
3962.072	-70.62
3964.606	-73.62
3967.137	-75.62
3969.667	-70.62
3972.194	-71.62
3974.72	-74.62
3977.244	-68.62
3979.766	-69.62
3982.286	-68.62
3984.805	-72.62
3987.321	-71.62
3989.836	-73.62
3992.349	-70.62
3994.86	-66.62
3997.369	-64.62
3999.877	-69.62
4002.382	-69.62
4004.886	-73.62
4007.388	-72.62
4009.888	-71.62
4012.386	-66.62
4014.883	-68.62
4017.377	-69.62
4019.87	-75.62
4022.361	-69.62
4024.85	-69.62
4027.338	-75.62
4029.823	-67.62
4032.307	-67.62
4034.789	-68.62
4037.269	-71.62
4039.747	-73.62
4042.224	-74.62
4044.699	-71.62
4047.172	-73.62
4049.643	-71.62
4052.112	-72.62
4054.58	-72.62
4057.046	-71.62
4059.51	-74.62
4061.972	-70.62
4064.432	-69.62
4066.891	-71.62
4069.348	-75.62
4071.803	-74.62
4074.256	-71.62
4076.708	-74.62
4079.158	-69.62
4081.606	-66.62
4084.052	-71.62
4086.497	-71.62
4088.939	-73.62
4091.38	-75.62
4093.819	-71.62
4096.257	-73.62
4098.693	-74.62
4101.127	-78.62
4103.559	-75.62
4105.989	-25.62
4108.418	-19.62
4110.845	-19.62
4113.27	-15.62
4115.694	-8.62
4118.115	-10.62
4120.535	-72.62
4122.954	-70.62
4125.37	-68.62
4127.785	-71.62
4130.198	-71.62
4132.609	-73.62
4135.019	-77.62
4137.427	-77.62
4139.833	-74.62
4142.237	-78.62
