Data from 10000CFU1_B_ramanshift_RamanShift_14-58-22-705.txt Node
Date: Sun Dec 25 14:58:22 IST 2016
User: aro
Spectrometer: QEPB0276
Trigger mode: 0
Integration Time (sec): 5.000000E0
Scans to average: 1
Electric dark correction enabled: true
Nonlinearity correction enabled: false
Boxcar width: 0
XAxis mode: Raman Shifts
Number of Pixels in Spectrum: 1044
>>>>>Begin Spectral Data<<<<<
160.701	3.88
166.742	19.88
172.777	77.88
178.805	231.88
184.826	676.88
190.841	1622.88
196.849	3003.88
202.85	4262.88
208.845	4906.88
214.833	4917.88
220.815	4737.88
226.789	4559.88
232.758	4456.88
238.719	4322.88
244.674	4168.88
250.623	4000.88
256.565	3841.88
262.5	3662.88
268.429	3500.88
274.351	3342.88
280.267	3230.88
286.176	3097.88
292.079	2979.88
297.975	2865.88
303.865	2791.88
309.748	2695.88
315.625	2608.88
321.495	2558.88
327.359	2494.88
333.217	2455.88
339.068	2435.88
344.912	2424.88
350.751	2397.88
356.583	2393.88
362.408	2403.88
368.227	2389.88
374.04	2402.88
379.847	2382.88
385.647	2411.88
391.44	2447.88
397.228	2429.88
403.009	2450.88
408.784	2473.88
414.553	2458.88
420.315	2479.88
426.071	2477.88
431.821	2489.88
437.565	2477.88
443.302	2511.88
449.033	2489.88
454.758	2466.88
460.477	2464.88
466.189	2462.88
471.896	2438.88
477.596	2433.88
483.29	2432.88
488.978	2412.88
494.66	2408.88
500.335	2384.88
506.005	2371.88
511.668	2334.88
517.325	2291.88
522.977	2241.88
528.622	2237.88
534.261	2185.88
539.894	2167.88
545.521	2166.88
551.141	2148.88
556.756	2153.88
562.365	2119.88
567.968	2122.88
573.565	2103.88
579.155	2091.88
584.74	2053.88
590.319	2057.88
595.892	2063.88
601.459	2041.88
607.02	2026.88
612.575	2009.88
618.124	1990.88
623.667	1975.88
629.204	1970.88
634.735	1940.88
640.261	1934.88
645.781	1922.88
651.294	1895.88
656.802	1886.88
662.304	1885.88
667.8	1893.88
673.29	1875.88
678.775	1869.88
684.254	1865.88
689.726	1867.88
695.193	1861.88
700.655	1853.88
706.11	1834.88
711.56	1806.88
717.004	1817.88
722.442	1802.88
727.874	1784.88
733.301	1769.88
738.722	1774.88
744.137	1752.88
749.547	1748.88
754.951	1729.88
760.349	1736.88
765.741	1747.88
771.128	1746.88
776.509	1753.88
781.885	1752.88
787.254	1742.88
792.618	1746.88
797.977	1737.88
803.33	1728.88
808.677	1706.88
814.019	1697.88
819.355	1692.88
824.686	1675.88
830.011	1647.88
835.33	1635.88
840.644	1626.88
845.952	1641.88
851.255	1633.88
856.552	1613.88
861.844	1617.88
867.13	1605.88
872.41	1625.88
877.686	1603.88
882.955	1596.88
888.219	1560.88
893.478	1544.88
898.731	1519.88
903.979	1489.88
909.221	1460.88
914.458	1460.88
919.69	1448.88
924.916	1442.88
930.136	1427.88
935.351	1443.88
940.561	1442.88
945.766	1446.88
950.965	1427.88
956.158	1421.88
961.347	1404.88
966.529	1390.88
971.707	1361.88
976.879	1347.88
982.046	1339.88
987.208	1320.88
992.364	1320.88
997.515	1327.88
1002.66	1334.88
1007.801	1337.88
1012.936	1384.88
1018.066	1378.88
1023.19	1370.88
1028.309	1374.88
1033.423	1388.88
1038.532	1359.88
1043.636	1378.88
1048.734	1364.88
1053.827	1352.88
1058.915	1351.88
1063.998	1336.88
1069.075	1320.88
1074.147	1314.88
1079.214	1311.88
1084.276	1337.88
1089.333	1342.88
1094.385	1360.88
1099.431	1349.88
1104.472	1365.88
1109.509	1356.88
1114.54	1321.88
1119.565	1338.88
1124.586	1324.88
1129.602	1303.88
1134.613	1307.88
1139.618	1290.88
1144.619	1304.88
1149.614	1299.88
1154.604	1299.88
1159.589	1296.88
1164.57	1305.88
1169.545	1319.88
1174.515	1325.88
1179.48	1309.88
1184.44	1306.88
1189.395	1299.88
1194.345	1302.88
1199.29	1285.88
1204.23	1293.88
1209.165	1275.88
1214.095	1285.88
1219.021	1309.88
1223.941	1320.88
1228.856	1316.88
1233.766	1331.88
1238.672	1336.88
1243.572	1333.88
1248.467	1326.88
1253.358	1313.88
1258.244	1306.88
1263.124	1281.88
1268	1273.88
1272.871	1257.88
1277.737	1240.88
1282.599	1224.88
1287.455	1235.88
1292.306	1241.88
1297.153	1234.88
1301.995	1250.88
1306.832	1277.88
1311.664	1271.88
1316.491	1264.88
1321.314	1265.88
1326.132	1270.88
1330.945	1256.88
1335.753	1254.88
1340.556	1230.88
1345.354	1217.88
1350.148	1213.88
1354.937	1196.88
1359.722	1184.88
1364.501	1189.88
1369.276	1176.88
1374.046	1157.88
1378.811	1159.88
1383.572	1149.88
1388.327	1147.88
1393.079	1147.88
1397.825	1159.88
1402.567	1132.88
1407.304	1129.88
1412.036	1114.88
1416.764	1129.88
1421.487	1117.88
1426.205	1115.88
1430.919	1140.88
1435.628	1139.88
1440.333	1154.88
1445.032	1155.88
1449.727	1173.88
1454.418	1168.88
1459.104	1177.88
1463.785	1174.88
1468.462	1167.88
1473.134	1166.88
1477.802	1137.88
1482.465	1131.88
1487.123	1127.88
1491.777	1147.88
1496.426	1129.88
1501.071	1143.88
1505.711	1145.88
1510.347	1146.88
1514.978	1172.88
1519.604	1172.88
1524.226	1188.88
1528.844	1202.88
1533.457	1185.88
1538.065	1173.88
1542.669	1179.88
1547.269	1174.88
1551.864	1176.88
1556.454	1180.88
1561.041	1207.88
1565.622	1210.88
1570.199	1204.88
1574.772	1220.88
1579.34	1244.88
1583.904	1265.88
1588.464	1291.88
1593.019	1309.88
1597.569	1327.88
1602.115	1350.88
1606.657	1337.88
1611.195	1340.88
1615.728	1365.88
1620.256	1363.88
1624.78	1388.88
1629.3	1422.88
1633.816	1412.88
1638.327	1445.88
1642.834	1463.88
1647.336	1485.88
1651.834	1490.88
1656.328	1487.88
1660.817	1474.88
1665.302	1474.88
1669.783	1447.88
1674.259	1423.88
1678.732	1381.88
1683.199	1351.88
1687.663	1307.88
1692.122	1266.88
1696.577	1222.88
1701.028	1164.88
1705.474	1119.88
1709.917	1081.88
1714.355	1055.88
1718.788	1043.88
1723.218	1029.88
1727.643	1015.88
1732.064	1010.88
1736.481	975.88
1740.893	947.88
1745.301	922.88
1749.705	900.88
1754.105	883.88
1758.501	866.88
1762.893	857.88
1767.28	830.88
1771.663	824.88
1776.042	816.88
1780.417	813.88
1784.787	810.88
1789.154	812.88
1793.516	821.88
1797.874	816.88
1802.228	812.88
1806.578	791.88
1810.924	796.88
1815.266	778.88
1819.603	769.88
1823.937	768.88
1828.266	754.88
1832.591	751.88
1836.913	735.88
1841.23	741.88
1845.543	741.88
1849.852	739.88
1854.156	742.88
1858.457	751.88
1862.754	746.88
1867.047	736.88
1871.335	740.88
1875.62	750.88
1879.9	753.88
1884.177	754.88
1888.449	757.88
1892.718	747.88
1896.982	735.88
1901.243	741.88
1905.499	737.88
1909.752	745.88
1914	735.88
1918.245	734.88
1922.485	737.88
1926.722	735.88
1930.954	738.88
1935.183	735.88
1939.408	745.88
1943.628	756.88
1947.845	740.88
1952.058	742.88
1956.267	737.88
1960.472	742.88
1964.673	715.88
1968.87	734.88
1973.063	721.88
1977.252	710.88
1981.438	715.88
1985.619	702.88
1989.797	706.88
1993.971	702.88
1998.14	713.88
2002.306	710.88
2006.469	708.88
2010.627	729.88
2014.781	725.88
2018.932	724.88
2023.078	706.88
2027.221	720.88
2031.36	708.88
2035.495	711.88
2039.627	715.88
2043.754	688.88
2047.878	698.88
2051.998	702.88
2056.114	702.88
2060.226	691.88
2064.334	697.88
2068.439	706.88
2072.54	699.88
2076.637	713.88
2080.73	717.88
2084.82	718.88
2088.906	732.88
2092.988	723.88
2097.066	729.88
2101.14	699.88
2105.211	712.88
2109.278	707.88
2113.342	703.88
2117.401	691.88
2121.457	710.88
2125.509	700.88
2129.558	693.88
2133.602	674.88
2137.643	673.88
2141.681	679.88
2145.714	683.88
2149.744	684.88
2153.77	669.88
2157.793	675.88
2161.812	664.88
2165.827	665.88
2169.838	661.88
2173.846	632.88
2177.851	628.88
2181.851	637.88
2185.848	627.88
2189.841	611.88
2193.831	591.88
2197.817	591.88
2201.799	610.88
2205.778	593.88
2209.753	605.88
2213.725	594.88
2217.693	594.88
2221.657	596.88
2225.618	592.88
2229.575	592.88
2233.529	592.88
2237.479	583.88
2241.425	583.88
2245.368	568.88
2249.307	572.88
2253.243	558.88
2257.175	547.88
2261.104	540.88
2265.029	538.88
2268.95	530.88
2272.868	520.88
2276.783	528.88
2280.694	514.88
2284.601	503.88
2288.505	503.88
2292.405	503.88
2296.302	491.88
2300.195	490.88
2304.085	482.88
2307.971	470.88
2311.854	474.88
2315.734	453.88
2319.609	450.88
2323.482	438.88
2327.351	435.88
2331.216	441.88
2335.078	444.88
2338.937	435.88
2342.792	438.88
2346.643	426.88
2350.492	423.88
2354.336	419.88
2358.178	426.88
2362.015	435.88
2365.85	429.88
2369.681	423.88
2373.508	423.88
2377.333	427.88
2381.153	431.88
2384.971	430.88
2388.785	420.88
2392.595	429.88
2396.402	430.88
2400.206	419.88
2404.007	413.88
2407.804	418.88
2411.597	409.88
2415.388	413.88
2419.174	412.88
2422.958	402.88
2426.738	409.88
2430.515	408.88
2434.289	411.88
2438.059	403.88
2441.825	399.88
2445.589	398.88
2449.349	396.88
2453.106	396.88
2456.859	396.88
2460.61	395.88
2464.356	394.88
2468.1	386.88
2471.84	385.88
2475.577	372.88
2479.311	374.88
2483.041	369.88
2486.768	374.88
2490.492	382.88
2494.213	376.88
2497.93	371.88
2501.644	373.88
2505.355	372.88
2509.062	371.88
2512.766	373.88
2516.467	372.88
2520.165	366.88
2523.859	369.88
2527.551	360.88
2531.239	369.88
2534.923	352.88
2538.605	357.88
2542.283	353.88
2545.958	349.88
2549.63	344.88
2553.299	349.88
2556.964	341.88
2560.626	345.88
2564.285	345.88
2567.941	336.88
2571.594	341.88
2575.243	346.88
2578.89	333.88
2582.533	336.88
2586.173	323.88
2589.809	320.88
2593.443	329.88
2597.073	323.88
2600.701	313.88
2604.325	322.88
2607.946	318.88
2611.564	314.88
2615.178	315.88
2618.79	320.88
2622.398	313.88
2626.004	312.88
2629.606	300.88
2633.205	298.88
2636.801	297.88
2640.394	311.88
2643.983	295.88
2647.57	297.88
2651.153	291.88
2654.734	289.88
2658.311	283.88
2661.885	284.88
2665.456	282.88
2669.025	277.88
2672.589	275.88
2676.151	280.88
2679.71	274.88
2683.266	279.88
2686.819	271.88
2690.368	269.88
2693.915	263.88
2697.458	263.88
2700.999	259.88
2704.536	268.88
2708.071	262.88
2711.602	259.88
2715.13	250.88
2718.656	252.88
2722.178	246.88
2725.697	251.88
2729.214	255.88
2732.727	253.88
2736.237	255.88
2739.744	261.88
2743.249	258.88
2746.75	252.88
2750.248	251.88
2753.743	255.88
2757.236	251.88
2760.725	262.88
2764.211	253.88
2767.695	250.88
2771.175	240.88
2774.652	248.88
2778.127	240.88
2781.598	234.88
2785.067	245.88
2788.532	246.88
2791.995	248.88
2795.455	244.88
2798.911	244.88
2802.365	246.88
2805.816	253.88
2809.264	257.88
2812.709	242.88
2816.151	243.88
2819.59	252.88
2823.026	246.88
2826.46	249.88
2829.89	256.88
2833.318	253.88
2836.742	255.88
2840.164	257.88
2843.583	262.88
2846.999	258.88
2850.412	252.88
2853.822	267.88
2857.229	276.88
2860.634	271.88
2864.035	270.88
2867.434	272.88
2870.83	277.88
2874.223	282.88
2877.613	285.88
2881	300.88
2884.385	295.88
2887.766	286.88
2891.145	282.88
2894.521	284.88
2897.894	293.88
2901.264	291.88
2904.631	290.88
2907.996	303.88
2911.358	299.88
2914.717	291.88
2918.073	306.88
2921.426	308.88
2924.777	308.88
2928.124	319.88
2931.469	322.88
2934.811	334.88
2938.15	336.88
2941.487	351.88
2944.821	342.88
2948.152	353.88
2951.48	356.88
2954.805	355.88
2958.128	362.88
2961.447	363.88
2964.765	365.88
2968.079	377.88
2971.39	387.88
2974.699	387.88
2978.005	404.88
2981.308	400.88
2984.609	410.88
2987.907	422.88
2991.202	430.88
2994.494	446.88
2997.784	459.88
3001.07	472.88
3004.355	485.88
3007.636	489.88
3010.915	497.88
3014.191	516.88
3017.464	512.88
3020.734	517.88
3024.002	534.88
3027.267	539.88
3030.53	547.88
3033.789	556.88
3037.046	571.88
3040.301	582.88
3043.552	596.88
3046.801	606.88
3050.048	616.88
3053.291	638.88
3056.532	655.88
3059.771	664.88
3063.006	695.88
3066.239	713.88
3069.469	736.88
3072.697	752.88
3075.922	780.88
3079.144	795.88
3082.364	826.88
3085.581	833.88
3088.795	846.88
3092.007	868.88
3095.216	883.88
3098.423	903.88
3101.627	933.88
3104.828	947.88
3108.026	970.88
3111.222	983.88
3114.416	994.88
3117.607	1030.88
3120.795	1061.88
3123.98	1073.88
3127.163	1096.88
3130.344	1131.88
3133.521	1152.88
3136.696	1159.88
3139.869	1198.88
3143.039	1229.88
3146.206	1236.88
3149.371	1251.88
3152.533	1266.88
3155.693	1274.88
3158.85	1283.88
3162.005	1283.88
3165.157	1291.88
3168.306	1293.88
3171.453	1288.88
3174.597	1313.88
3177.739	1300.88
3180.878	1328.88
3184.014	1316.88
3187.149	1321.88
3190.28	1312.88
3193.409	1322.88
3196.536	1314.88
3199.659	1321.88
3202.781	1336.88
3205.9	1347.88
3209.016	1347.88
3212.13	1331.88
3215.241	1320.88
3218.35	1317.88
3221.456	1304.88
3224.56	1298.88
3227.661	1283.88
3230.76	1281.88
3233.856	1266.88
3236.95	1251.88
3240.041	1228.88
3243.13	1218.88
3246.216	1218.88
3249.3	1221.88
3252.382	1203.88
3255.46	1186.88
3258.537	1188.88
3261.611	1168.88
3264.682	1170.88
3267.751	1172.88
3270.818	1169.88
3273.882	1146.88
3276.943	1163.88
3280.002	1140.88
3283.059	1140.88
3286.113	1102.88
3289.165	1112.88
3292.214	1100.88
3295.261	1064.88
3298.306	1062.88
3301.348	1057.88
3304.387	1033.88
3307.425	1014.88
3310.459	996.88
3313.492	989.88
3316.521	971.88
3319.549	966.88
3322.574	952.88
3325.597	938.88
3328.617	950.88
3331.635	934.88
3334.65	931.88
3337.663	930.88
3340.674	915.88
3343.682	919.88
3346.688	909.88
3349.691	905.88
3352.692	910.88
3355.691	904.88
3358.687	891.88
3361.681	890.88
3364.673	874.88
3367.662	853.88
3370.649	848.88
3373.633	833.88
3376.615	826.88
3379.595	818.88
3382.572	817.88
3385.547	791.88
3388.52	789.88
3391.49	773.88
3394.458	763.88
3397.424	756.88
3400.387	741.88
3403.348	739.88
3406.307	732.88
3409.263	723.88
3412.217	712.88
3415.168	722.88
3418.118	700.88
3421.065	700.88
3424.009	677.88
3426.951	680.88
3429.891	671.88
3432.829	658.88
3435.764	649.88
3438.697	630.88
3441.628	605.88
3444.557	599.88
3447.483	576.88
3450.407	567.88
3453.328	560.88
3456.247	547.88
3459.164	531.88
3462.079	518.88
3464.991	499.88
3467.902	486.88
3470.809	464.88
3473.715	448.88
3476.618	439.88
3479.519	424.88
3482.418	419.88
3485.315	413.88
3488.209	396.88
3491.101	386.88
3493.99	387.88
3496.878	363.88
3499.763	344.88
3502.646	349.88
3505.527	335.88
3508.405	315.88
3511.281	315.88
3514.155	294.88
3517.027	281.88
3519.897	275.88
3522.764	263.88
3525.629	246.88
3528.492	238.88
3531.352	223.88
3534.211	210.88
3537.067	207.88
3539.921	190.88
3542.773	184.88
3545.622	170.88
3548.469	164.88
3551.315	159.88
3554.157	152.88
3556.998	135.88
3559.837	134.88
3562.673	126.88
3565.507	124.88
3568.339	115.88
3571.169	108.88
3573.996	99.88
3576.822	98.88
3579.645	87.88
3582.466	88.88
3585.285	83.88
3588.101	77.88
3590.916	67.88
3593.728	66.88
3596.538	58.88
3599.346	51.88
3602.152	47.88
3604.956	49.88
3607.757	41.88
3610.556	40.88
3613.354	32.88
3616.149	25.88
3618.942	22.88
3621.732	17.88
3624.521	19.88
3627.307	21.88
3630.092	14.88
3632.874	10.88
3635.654	10.88
3638.432	6.88
3641.208	-1.12
3643.982	0.88
3646.753	-10.12
3649.523	-3.12
3652.29	-7.12
3655.055	-13.12
3657.818	-15.12
3660.579	-16.12
3663.338	-19.12
3666.095	-24.12
3668.849	-26.12
3671.602	-27.12
3674.352	-32.12
3677.101	-32.12
3679.847	-32.12
3682.591	-35.12
3685.333	-31.12
3688.073	-33.12
3690.811	-37.12
3693.547	-43.12
3696.281	-43.12
3699.013	-40.12
3701.742	-43.12
3704.47	-44.12
3707.195	-47.12
3709.919	-47.12
3712.64	-54.12
3715.359	-52.12
3718.076	-53.12
3720.792	-56.12
3723.505	-54.12
3726.216	-56.12
3728.925	-57.12
3731.632	-58.12
3734.336	-55.12
3737.039	-57.12
3739.74	-61.12
3742.439	-56.12
3745.136	-59.12
3747.83	-62.12
3750.523	-60.12
3753.213	-59.12
3755.902	-60.12
3758.589	-58.12
3761.273	-63.12
3763.956	-63.12
3766.636	-63.12
3769.315	-63.12
3771.991	-68.12
3774.665	-63.12
3777.338	-64.12
3780.008	-62.12
3782.677	-65.12
3785.343	-65.12
3788.007	-70.12
3790.67	-67.12
3793.33	-69.12
3795.989	-67.12
3798.645	-68.12
3801.299	-67.12
3803.952	-69.12
3806.602	-67.12
3809.251	-71.12
3811.897	-74.12
3814.542	-72.12
3817.184	-66.12
3819.825	-70.12
3822.463	-71.12
3825.1	-76.12
3827.735	-71.12
3830.367	-74.12
3832.998	-71.12
3835.627	-72.12
3838.253	-73.12
3840.878	-72.12
3843.501	-70.12
3846.122	-69.12
3848.741	-73.12
3851.358	-81.12
3853.973	-74.12
3856.586	-73.12
3859.197	-74.12
3861.806	-74.12
3864.414	-73.12
3867.019	-76.12
3869.622	-69.12
3872.224	-74.12
3874.823	-76.12
3877.421	-74.12
3880.016	-77.12
3882.61	-71.12
3885.202	-65.12
3887.792	-69.12
3890.38	-69.12
3892.966	-74.12
3895.55	-76.12
3898.132	-79.12
3900.713	-77.12
3903.291	-80.12
3905.868	-75.12
3908.442	-75.12
3911.015	-82.12
3913.586	-76.12
3916.155	-77.12
3918.722	-78.12
3921.287	-76.12
3923.85	-78.12
3926.411	-78.12
3928.971	-76.12
3931.528	-77.12
3934.084	-78.12
3936.638	-82.12
3939.19	-79.12
3941.74	-79.12
3944.288	-83.12
3946.834	-79.12
3949.378	-77.12
3951.921	-74.12
3954.462	-79.12
3957	-77.12
3959.537	-81.12
3962.072	-78.12
3964.606	-79.12
3967.137	-79.12
3969.667	-76.12
3972.194	-77.12
3974.72	-79.12
3977.244	-77.12
3979.766	-81.12
3982.286	-76.12
3984.805	-80.12
3987.321	-77.12
3989.836	-80.12
3992.349	-80.12
3994.86	-73.12
3997.369	-72.12
3999.877	-75.12
4002.382	-78.12
4004.886	-79.12
4007.388	-77.12
4009.888	-77.12
4012.386	-74.12
4014.883	-76.12
4017.377	-76.12
4019.87	-76.12
4022.361	-75.12
4024.85	-78.12
4027.338	-76.12
4029.823	-72.12
4032.307	-74.12
4034.789	-77.12
4037.269	-80.12
4039.747	-81.12
4042.224	-78.12
4044.699	-76.12
4047.172	-80.12
4049.643	-76.12
4052.112	-78.12
4054.58	-80.12
4057.046	-75.12
4059.51	-77.12
4061.972	-76.12
4064.432	-78.12
4066.891	-76.12
4069.348	-80.12
4071.803	-80.12
4074.256	-83.12
4076.708	-84.12
4079.158	-78.12
4081.606	-76.12
4084.052	-77.12
4086.497	-77.12
4088.939	-80.12
4091.38	-81.12
4093.819	-80.12
4096.257	-80.12
4098.693	-81.12
4101.127	-83.12
4103.559	-81.12
4105.989	-29.12
4108.418	-24.12
4110.845	-21.12
4113.27	-17.12
4115.694	-14.12
4118.115	-12.12
4120.535	-82.12
4122.954	-78.12
4125.37	-77.12
4127.785	-78.12
4130.198	-75.12
4132.609	-81.12
4135.019	-83.12
4137.427	-83.12
4139.833	-85.12
4142.237	-82.12
