Data from 1000CFU2_C_ramanshift_RamanShift_15-22-37-565.txt Node
Date: Sun Dec 25 15:22:37 IST 2016
User: aro
Spectrometer: QEPB0276
Trigger mode: 0
Integration Time (sec): 5.000000E0
Scans to average: 1
Electric dark correction enabled: true
Nonlinearity correction enabled: false
Boxcar width: 0
XAxis mode: Raman Shifts
Number of Pixels in Spectrum: 1044
>>>>>Begin Spectral Data<<<<<
160.701	5.38
166.742	20.38
172.777	72.38
178.805	224.38
184.826	663.38
190.841	1603.38
196.849	2969.38
202.85	4183.38
208.845	4844.38
214.833	4901.38
220.815	4698.38
226.789	4497.38
232.758	4398.38
238.719	4251.38
244.674	4089.38
250.623	3921.38
256.565	3754.38
262.5	3575.38
268.429	3407.38
274.351	3261.38
280.267	3121.38
286.176	3013.38
292.079	2885.38
297.975	2805.38
303.865	2688.38
309.748	2593.38
315.625	2505.38
321.495	2454.38
327.359	2407.38
333.217	2347.38
339.068	2358.38
344.912	2332.38
350.751	2306.38
356.583	2296.38
362.408	2286.38
368.227	2290.38
374.04	2288.38
379.847	2317.38
385.647	2319.38
391.44	2339.38
397.228	2346.38
403.009	2370.38
408.784	2353.38
414.553	2380.38
420.315	2382.38
426.071	2390.38
431.821	2384.38
437.565	2388.38
443.302	2381.38
449.033	2371.38
454.758	2382.38
460.477	2365.38
466.189	2366.38
471.896	2364.38
477.596	2370.38
483.29	2332.38
488.978	2330.38
494.66	2325.38
500.335	2324.38
506.005	2272.38
511.668	2212.38
517.325	2199.38
522.977	2164.38
528.622	2137.38
534.261	2080.38
539.894	2078.38
545.521	2046.38
551.141	2048.38
556.756	2035.38
562.365	2028.38
567.968	2013.38
573.565	2016.38
579.155	2001.38
584.74	1974.38
590.319	1949.38
595.892	1945.38
601.459	1938.38
607.02	1944.38
612.575	1916.38
618.124	1900.38
623.667	1856.38
629.204	1860.38
634.735	1850.38
640.261	1827.38
645.781	1819.38
651.294	1804.38
656.802	1797.38
662.304	1786.38
667.8	1777.38
673.29	1801.38
678.775	1784.38
684.254	1760.38
689.726	1753.38
695.193	1760.38
700.655	1750.38
706.11	1721.38
711.56	1699.38
717.004	1714.38
722.442	1712.38
727.874	1688.38
733.301	1673.38
738.722	1695.38
744.137	1654.38
749.547	1657.38
754.951	1653.38
760.349	1648.38
765.741	1651.38
771.128	1639.38
776.509	1650.38
781.885	1648.38
787.254	1644.38
792.618	1652.38
797.977	1633.38
803.33	1629.38
808.677	1602.38
814.019	1592.38
819.355	1572.38
824.686	1541.38
830.011	1540.38
835.33	1543.38
840.644	1540.38
845.952	1548.38
851.255	1531.38
856.552	1513.38
861.844	1495.38
867.13	1513.38
872.41	1502.38
877.686	1475.38
882.955	1463.38
888.219	1459.38
893.478	1421.38
898.731	1422.38
903.979	1381.38
909.221	1376.38
914.458	1360.38
919.69	1357.38
924.916	1347.38
930.136	1344.38
935.351	1337.38
940.561	1347.38
945.766	1307.38
950.965	1324.38
956.158	1309.38
961.347	1307.38
966.529	1290.38
971.707	1258.38
976.879	1263.38
982.046	1239.38
987.208	1225.38
992.364	1223.38
997.515	1228.38
1002.66	1229.38
1007.801	1240.38
1012.936	1240.38
1018.066	1255.38
1023.19	1281.38
1028.309	1280.38
1033.423	1285.38
1038.532	1277.38
1043.636	1267.38
1048.734	1262.38
1053.827	1252.38
1058.915	1237.38
1063.998	1219.38
1069.075	1217.38
1074.147	1217.38
1079.214	1236.38
1084.276	1220.38
1089.333	1217.38
1094.385	1248.38
1099.431	1241.38
1104.472	1246.38
1109.509	1248.38
1114.54	1234.38
1119.565	1223.38
1124.586	1209.38
1129.602	1206.38
1134.613	1187.38
1139.618	1179.38
1144.619	1182.38
1149.614	1195.38
1154.604	1181.38
1159.589	1202.38
1164.57	1200.38
1169.545	1204.38
1174.515	1211.38
1179.48	1221.38
1184.44	1203.38
1189.395	1199.38
1194.345	1191.38
1199.29	1179.38
1204.23	1191.38
1209.165	1181.38
1214.095	1185.38
1219.021	1205.38
1223.941	1214.38
1228.856	1226.38
1233.766	1202.38
1238.672	1233.38
1243.572	1219.38
1248.467	1214.38
1253.358	1212.38
1258.244	1198.38
1263.124	1193.38
1268	1160.38
1272.871	1156.38
1277.737	1140.38
1282.599	1129.38
1287.455	1144.38
1292.306	1140.38
1297.153	1140.38
1301.995	1154.38
1306.832	1170.38
1311.664	1160.38
1316.491	1170.38
1321.314	1163.38
1326.132	1160.38
1330.945	1164.38
1335.753	1153.38
1340.556	1118.38
1345.354	1111.38
1350.148	1095.38
1354.937	1089.38
1359.722	1089.38
1364.501	1051.38
1369.276	1060.38
1374.046	1061.38
1378.811	1038.38
1383.572	1054.38
1388.327	1043.38
1393.079	1038.38
1397.825	1034.38
1402.567	1040.38
1407.304	1036.38
1412.036	1028.38
1416.764	1023.38
1421.487	1014.38
1426.205	1020.38
1430.919	1034.38
1435.628	1042.38
1440.333	1049.38
1445.032	1069.38
1449.727	1066.38
1454.418	1057.38
1459.104	1087.38
1463.785	1060.38
1468.462	1067.38
1473.134	1057.38
1477.802	1039.38
1482.465	1021.38
1487.123	1034.38
1491.777	1023.38
1496.426	1022.38
1501.071	1030.38
1505.711	1023.38
1510.347	1059.38
1514.978	1057.38
1519.604	1055.38
1524.226	1072.38
1528.844	1085.38
1533.457	1096.38
1538.065	1089.38
1542.669	1080.38
1547.269	1073.38
1551.864	1072.38
1556.454	1077.38
1561.041	1080.38
1565.622	1101.38
1570.199	1112.38
1574.772	1129.38
1579.34	1156.38
1583.904	1176.38
1588.464	1200.38
1593.019	1190.38
1597.569	1230.38
1602.115	1232.38
1606.657	1247.38
1611.195	1244.38
1615.728	1268.38
1620.256	1288.38
1624.78	1310.38
1629.3	1313.38
1633.816	1339.38
1638.327	1342.38
1642.834	1373.38
1647.336	1388.38
1651.834	1396.38
1656.328	1399.38
1660.817	1394.38
1665.302	1360.38
1669.783	1351.38
1674.259	1333.38
1678.732	1279.38
1683.199	1240.38
1687.663	1198.38
1692.122	1171.38
1696.577	1118.38
1701.028	1073.38
1705.474	1032.38
1709.917	989.38
1714.355	972.38
1718.788	934.38
1723.218	931.38
1727.643	928.38
1732.064	897.38
1736.481	893.38
1740.893	859.38
1745.301	841.38
1749.705	811.38
1754.105	795.38
1758.501	775.38
1762.893	760.38
1767.28	757.38
1771.663	738.38
1776.042	732.38
1780.417	730.38
1784.787	713.38
1789.154	722.38
1793.516	717.38
1797.874	723.38
1802.228	733.38
1806.578	714.38
1810.924	704.38
1815.266	691.38
1819.603	687.38
1823.937	675.38
1828.266	675.38
1832.591	671.38
1836.913	648.38
1841.23	665.38
1845.543	659.38
1849.852	670.38
1854.156	659.38
1858.457	661.38
1862.754	655.38
1867.047	663.38
1871.335	659.38
1875.62	668.38
1879.9	674.38
1884.177	681.38
1888.449	674.38
1892.718	665.38
1896.982	653.38
1901.243	657.38
1905.499	656.38
1909.752	660.38
1914	661.38
1918.245	649.38
1922.485	665.38
1926.722	653.38
1930.954	662.38
1935.183	657.38
1939.408	665.38
1943.628	680.38
1947.845	664.38
1952.058	667.38
1956.267	661.38
1960.472	664.38
1964.673	652.38
1968.87	653.38
1973.063	644.38
1977.252	648.38
1981.438	630.38
1985.619	629.38
1989.797	622.38
1993.971	626.38
1998.14	628.38
2002.306	625.38
2006.469	625.38
2010.627	657.38
2014.781	645.38
2018.932	658.38
2023.078	636.38
2027.221	649.38
2031.36	641.38
2035.495	626.38
2039.627	635.38
2043.754	623.38
2047.878	624.38
2051.998	625.38
2056.114	627.38
2060.226	633.38
2064.334	634.38
2068.439	636.38
2072.54	637.38
2076.637	637.38
2080.73	639.38
2084.82	639.38
2088.906	637.38
2092.988	645.38
2097.066	650.38
2101.14	642.38
2105.211	630.38
2109.278	634.38
2113.342	618.38
2117.401	620.38
2121.457	629.38
2125.509	621.38
2129.558	624.38
2133.602	613.38
2137.643	624.38
2141.681	623.38
2145.714	615.38
2149.744	613.38
2153.77	606.38
2157.793	616.38
2161.812	609.38
2165.827	600.38
2169.838	589.38
2173.846	581.38
2177.851	566.38
2181.851	566.38
2185.848	564.38
2189.841	555.38
2193.831	539.38
2197.817	536.38
2201.799	536.38
2205.778	546.38
2209.753	534.38
2213.725	541.38
2217.693	535.38
2221.657	531.38
2225.618	534.38
2229.575	521.38
2233.529	530.38
2237.479	515.38
2241.425	535.38
2245.368	526.38
2249.307	509.38
2253.243	501.38
2257.175	493.38
2261.104	478.38
2265.029	479.38
2268.95	475.38
2272.868	467.38
2276.783	463.38
2280.694	462.38
2284.601	454.38
2288.505	441.38
2292.405	452.38
2296.302	440.38
2300.195	441.38
2304.085	431.38
2307.971	430.38
2311.854	412.38
2315.734	405.38
2319.609	409.38
2323.482	402.38
2327.351	391.38
2331.216	405.38
2335.078	392.38
2338.937	380.38
2342.792	382.38
2346.643	377.38
2350.492	385.38
2354.336	382.38
2358.178	377.38
2362.015	387.38
2365.85	382.38
2369.681	380.38
2373.508	379.38
2377.333	390.38
2381.153	386.38
2384.971	388.38
2388.785	389.38
2392.595	377.38
2396.402	374.38
2400.206	373.38
2404.007	377.38
2407.804	372.38
2411.597	370.38
2415.388	363.38
2419.174	366.38
2422.958	361.38
2426.738	369.38
2430.515	360.38
2434.289	364.38
2438.059	362.38
2441.825	354.38
2445.589	350.38
2449.349	356.38
2453.106	347.38
2456.859	349.38
2460.61	348.38
2464.356	341.38
2468.1	340.38
2471.84	337.38
2475.577	329.38
2479.311	331.38
2483.041	330.38
2486.768	335.38
2490.492	338.38
2494.213	334.38
2497.93	331.38
2501.644	325.38
2505.355	331.38
2509.062	329.38
2512.766	327.38
2516.467	329.38
2520.165	337.38
2523.859	316.38
2527.551	321.38
2531.239	316.38
2534.923	320.38
2538.605	313.38
2542.283	322.38
2545.958	302.38
2549.63	313.38
2553.299	305.38
2556.964	315.38
2560.626	296.38
2564.285	295.38
2567.941	303.38
2571.594	300.38
2575.243	283.38
2578.89	292.38
2582.533	290.38
2586.173	294.38
2589.809	291.38
2593.443	287.38
2597.073	289.38
2600.701	285.38
2604.325	276.38
2607.946	279.38
2611.564	278.38
2615.178	275.38
2618.79	281.38
2622.398	279.38
2626.004	278.38
2629.606	271.38
2633.205	273.38
2636.801	269.38
2640.394	269.38
2643.983	270.38
2647.57	255.38
2651.153	257.38
2654.734	259.38
2658.311	260.38
2661.885	254.38
2665.456	253.38
2669.025	254.38
2672.589	244.38
2676.151	247.38
2679.71	238.38
2683.266	245.38
2686.819	233.38
2690.368	238.38
2693.915	240.38
2697.458	234.38
2700.999	234.38
2704.536	233.38
2708.071	232.38
2711.602	224.38
2715.13	228.38
2718.656	217.38
2722.178	222.38
2725.697	226.38
2729.214	223.38
2732.727	222.38
2736.237	227.38
2739.744	233.38
2743.249	231.38
2746.75	237.38
2750.248	229.38
2753.743	226.38
2757.236	224.38
2760.725	235.38
2764.211	217.38
2767.695	217.38
2771.175	219.38
2774.652	215.38
2778.127	219.38
2781.598	222.38
2785.067	216.38
2788.532	215.38
2791.995	221.38
2795.455	220.38
2798.911	221.38
2802.365	226.38
2805.816	223.38
2809.264	229.38
2812.709	229.38
2816.151	216.38
2819.59	222.38
2823.026	230.38
2826.46	220.38
2829.89	230.38
2833.318	227.38
2836.742	232.38
2840.164	235.38
2843.583	232.38
2846.999	226.38
2850.412	234.38
2853.822	241.38
2857.229	238.38
2860.634	249.38
2864.035	249.38
2867.434	241.38
2870.83	250.38
2874.223	255.38
2877.613	259.38
2881	259.38
2884.385	273.38
2887.766	264.38
2891.145	257.38
2894.521	262.38
2897.894	271.38
2901.264	275.38
2904.631	265.38
2907.996	277.38
2911.358	271.38
2914.717	280.38
2918.073	284.38
2921.426	278.38
2924.777	293.38
2928.124	297.38
2931.469	296.38
2934.811	304.38
2938.15	300.38
2941.487	314.38
2944.821	318.38
2948.152	330.38
2951.48	333.38
2954.805	338.38
2958.128	333.38
2961.447	331.38
2964.765	345.38
2968.079	356.38
2971.39	356.38
2974.699	367.38
2978.005	368.38
2981.308	381.38
2984.609	394.38
2987.907	401.38
2991.202	405.38
2994.494	419.38
2997.784	438.38
3001.07	459.38
3004.355	456.38
3007.636	466.38
3010.915	470.38
3014.191	489.38
3017.464	502.38
3020.734	497.38
3024.002	513.38
3027.267	519.38
3030.53	540.38
3033.789	541.38
3037.046	542.38
3040.301	563.38
3043.552	572.38
3046.801	583.38
3050.048	612.38
3053.291	626.38
3056.532	640.38
3059.771	663.38
3063.006	673.38
3066.239	698.38
3069.469	719.38
3072.697	735.38
3075.922	754.38
3079.144	775.38
3082.364	793.38
3085.581	823.38
3088.795	832.38
3092.007	852.38
3095.216	873.38
3098.423	886.38
3101.627	898.38
3104.828	927.38
3108.026	945.38
3111.222	963.38
3114.416	998.38
3117.607	1011.38
3120.795	1022.38
3123.98	1054.38
3127.163	1075.38
3130.344	1100.38
3133.521	1127.38
3136.696	1138.38
3139.869	1166.38
3143.039	1202.38
3146.206	1214.38
3149.371	1236.38
3152.533	1233.38
3155.693	1236.38
3158.85	1253.38
3162.005	1270.38
3165.157	1268.38
3168.306	1275.38
3171.453	1281.38
3174.597	1292.38
3177.739	1287.38
3180.878	1308.38
3184.014	1288.38
3187.149	1274.38
3190.28	1301.38
3193.409	1304.38
3196.536	1299.38
3199.659	1309.38
3202.781	1310.38
3205.9	1324.38
3209.016	1315.38
3212.13	1312.38
3215.241	1301.38
3218.35	1290.38
3221.456	1303.38
3224.56	1280.38
3227.661	1273.38
3230.76	1250.38
3233.856	1238.38
3236.95	1227.38
3240.041	1216.38
3243.13	1204.38
3246.216	1193.38
3249.3	1182.38
3252.382	1189.38
3255.46	1180.38
3258.537	1156.38
3261.611	1154.38
3264.682	1141.38
3267.751	1143.38
3270.818	1142.38
3273.882	1138.38
3276.943	1140.38
3280.002	1116.38
3283.059	1108.38
3286.113	1103.38
3289.165	1096.38
3292.214	1062.38
3295.261	1061.38
3298.306	1045.38
3301.348	1029.38
3304.387	1022.38
3307.425	998.38
3310.459	980.38
3313.492	984.38
3316.521	954.38
3319.549	957.38
3322.574	946.38
3325.597	934.38
3328.617	924.38
3331.635	931.38
3334.65	920.38
3337.663	915.38
3340.674	918.38
3343.682	908.38
3346.688	901.38
3349.691	890.38
3352.692	896.38
3355.691	896.38
3358.687	888.38
3361.681	881.38
3364.673	867.38
3367.662	856.38
3370.649	852.38
3373.633	843.38
3376.615	812.38
3379.595	808.38
3382.572	803.38
3385.547	788.38
3388.52	790.38
3391.49	768.38
3394.458	746.38
3397.424	745.38
3400.387	737.38
3403.348	744.38
3406.307	723.38
3409.263	727.38
3412.217	714.38
3415.168	698.38
3418.118	686.38
3421.065	682.38
3424.009	669.38
3426.951	677.38
3429.891	662.38
3432.829	651.38
3435.764	641.38
3438.697	621.38
3441.628	605.38
3444.557	608.38
3447.483	584.38
3450.407	558.38
3453.328	546.38
3456.247	537.38
3459.164	524.38
3462.079	512.38
3464.991	488.38
3467.902	472.38
3470.809	460.38
3473.715	441.38
3476.618	430.38
3479.519	427.38
3482.418	412.38
3485.315	411.38
3488.209	388.38
3491.101	386.38
3493.99	371.38
3496.878	367.38
3499.763	360.38
3502.646	344.38
3505.527	328.38
3508.405	320.38
3511.281	305.38
3514.155	284.38
3517.027	276.38
3519.897	261.38
3522.764	256.38
3525.629	250.38
3528.492	236.38
3531.352	228.38
3534.211	213.38
3537.067	200.38
3539.921	189.38
3542.773	186.38
3545.622	173.38
3548.469	160.38
3551.315	155.38
3554.157	152.38
3556.998	144.38
3559.837	129.38
3562.673	129.38
3565.507	128.38
3568.339	117.38
3571.169	110.38
3573.996	102.38
3576.822	100.38
3579.645	86.38
3582.466	90.38
3585.285	84.38
3588.101	79.38
3590.916	73.38
3593.728	64.38
3596.538	63.38
3599.346	54.38
3602.152	48.38
3604.956	47.38
3607.757	44.38
3610.556	37.38
3613.354	36.38
3616.149	29.38
3618.942	25.38
3621.732	16.38
3624.521	24.38
3627.307	13.38
3630.092	17.38
3632.874	16.38
3635.654	10.38
3638.432	3.38
3641.208	4.38
3643.982	-2.62
3646.753	1.38
3649.523	4.38
3652.29	-1.62
3655.055	-9.62
3657.818	-13.62
3660.579	-11.62
3663.338	-16.62
3666.095	-17.62
3668.849	-21.62
3671.602	-22.62
3674.352	-29.62
3677.101	-26.62
3679.847	-31.62
3682.591	-36.62
3685.333	-35.62
3688.073	-37.62
3690.811	-37.62
3693.547	-39.62
3696.281	-42.62
3699.013	-43.62
3701.742	-40.62
3704.47	-43.62
3707.195	-44.62
3709.919	-44.62
3712.64	-52.62
3715.359	-49.62
3718.076	-51.62
3720.792	-53.62
3723.505	-51.62
3726.216	-51.62
3728.925	-53.62
3731.632	-56.62
3734.336	-51.62
3737.039	-58.62
3739.74	-57.62
3742.439	-54.62
3745.136	-55.62
3747.83	-56.62
3750.523	-59.62
3753.213	-61.62
3755.902	-61.62
3758.589	-61.62
3761.273	-64.62
3763.956	-61.62
3766.636	-60.62
3769.315	-63.62
3771.991	-63.62
3774.665	-64.62
3777.338	-66.62
3780.008	-62.62
3782.677	-65.62
3785.343	-65.62
3788.007	-68.62
3790.67	-67.62
3793.33	-63.62
3795.989	-66.62
3798.645	-66.62
3801.299	-66.62
3803.952	-67.62
3806.602	-70.62
3809.251	-67.62
3811.897	-71.62
3814.542	-72.62
3817.184	-64.62
3819.825	-65.62
3822.463	-68.62
3825.1	-69.62
3827.735	-68.62
3830.367	-74.62
3832.998	-74.62
3835.627	-71.62
3838.253	-72.62
3840.878	-71.62
3843.501	-68.62
3846.122	-69.62
3848.741	-75.62
3851.358	-71.62
3853.973	-71.62
3856.586	-71.62
3859.197	-71.62
3861.806	-69.62
3864.414	-77.62
3867.019	-72.62
3869.622	-72.62
3872.224	-71.62
3874.823	-74.62
3877.421	-73.62
3880.016	-74.62
3882.61	-74.62
3885.202	-64.62
3887.792	-66.62
3890.38	-68.62
3892.966	-69.62
3895.55	-73.62
3898.132	-76.62
3900.713	-77.62
3903.291	-77.62
3905.868	-76.62
3908.442	-75.62
3911.015	-77.62
3913.586	-77.62
3916.155	-74.62
3918.722	-76.62
3921.287	-78.62
3923.85	-77.62
3926.411	-75.62
3928.971	-71.62
3931.528	-76.62
3934.084	-75.62
3936.638	-78.62
3939.19	-75.62
3941.74	-78.62
3944.288	-79.62
3946.834	-75.62
3949.378	-74.62
3951.921	-73.62
3954.462	-74.62
3957	-74.62
3959.537	-74.62
3962.072	-76.62
3964.606	-77.62
3967.137	-78.62
3969.667	-74.62
3972.194	-75.62
3974.72	-75.62
3977.244	-71.62
3979.766	-73.62
3982.286	-75.62
3984.805	-75.62
3987.321	-78.62
3989.836	-80.62
3992.349	-72.62
3994.86	-68.62
3997.369	-71.62
3999.877	-73.62
4002.382	-72.62
4004.886	-76.62
4007.388	-79.62
4009.888	-72.62
4012.386	-73.62
4014.883	-74.62
4017.377	-75.62
4019.87	-75.62
4022.361	-72.62
4024.85	-75.62
4027.338	-76.62
4029.823	-73.62
4032.307	-73.62
4034.789	-72.62
4037.269	-76.62
4039.747	-76.62
4042.224	-79.62
4044.699	-73.62
4047.172	-75.62
4049.643	-75.62
4052.112	-75.62
4054.58	-73.62
4057.046	-76.62
4059.51	-75.62
4061.972	-74.62
4064.432	-73.62
4066.891	-75.62
4069.348	-79.62
4071.803	-79.62
4074.256	-79.62
4076.708	-77.62
4079.158	-74.62
4081.606	-70.62
4084.052	-77.62
4086.497	-77.62
4088.939	-74.62
4091.38	-78.62
4093.819	-75.62
4096.257	-75.62
4098.693	-76.62
4101.127	-81.62
4103.559	-79.62
4105.989	-24.62
4108.418	-19.62
4110.845	-23.62
4113.27	-19.62
4115.694	-14.62
4118.115	-1.62
4120.535	-77.62
4122.954	-74.62
4125.37	-74.62
4127.785	-74.62
4130.198	-75.62
4132.609	-78.62
4135.019	-82.62
4137.427	-78.62
4139.833	-81.62
4142.237	-79.62
