Data from 100000000CFU3_A_ramanshift_RamanShift_14-32-10-407.txt Node
Date: Sun Dec 25 14:32:10 IST 2016
User: aro
Spectrometer: QEPB0276
Trigger mode: 0
Integration Time (sec): 5.000000E0
Scans to average: 1
Electric dark correction enabled: true
Nonlinearity correction enabled: false
Boxcar width: 0
XAxis mode: Raman Shifts
Number of Pixels in Spectrum: 1044
>>>>>Begin Spectral Data<<<<<
160.701	3.5
166.742	21.5
172.777	50.5
178.805	145.5
184.826	442.5
190.841	1025.5
196.849	1860.5
202.85	2654.5
208.845	3057.5
214.833	3078.5
220.815	2958.5
226.789	2857.5
232.758	2787.5
238.719	2713.5
244.674	2621.5
250.623	2522.5
256.565	2408.5
262.5	2315.5
268.429	2189.5
274.351	2102.5
280.267	2023.5
286.176	1953.5
292.079	1892.5
297.975	1822.5
303.865	1767.5
309.748	1726.5
315.625	1693.5
321.495	1635.5
327.359	1608.5
333.217	1592.5
339.068	1580.5
344.912	1564.5
350.751	1559.5
356.583	1557.5
362.408	1558.5
368.227	1568.5
374.04	1546.5
379.847	1561.5
385.647	1569.5
391.44	1588.5
397.228	1589.5
403.009	1605.5
408.784	1611.5
414.553	1609.5
420.315	1619.5
426.071	1619.5
431.821	1598.5
437.565	1606.5
443.302	1615.5
449.033	1618.5
454.758	1613.5
460.477	1610.5
466.189	1600.5
471.896	1588.5
477.596	1579.5
483.29	1574.5
488.978	1570.5
494.66	1573.5
500.335	1554.5
506.005	1546.5
511.668	1488.5
517.325	1460.5
522.977	1451.5
528.622	1429.5
534.261	1392.5
539.894	1384.5
545.521	1373.5
551.141	1378.5
556.756	1368.5
562.365	1351.5
567.968	1353.5
573.565	1336.5
579.155	1326.5
584.74	1308.5
590.319	1325.5
595.892	1287.5
601.459	1293.5
607.02	1287.5
612.575	1290.5
618.124	1273.5
623.667	1250.5
629.204	1250.5
634.735	1246.5
640.261	1228.5
645.781	1228.5
651.294	1207.5
656.802	1220.5
662.304	1199.5
667.8	1211.5
673.29	1185.5
678.775	1195.5
684.254	1182.5
689.726	1197.5
695.193	1174.5
700.655	1170.5
706.11	1158.5
711.56	1150.5
717.004	1145.5
722.442	1146.5
727.874	1133.5
733.301	1125.5
738.722	1123.5
744.137	1127.5
749.547	1119.5
754.951	1115.5
760.349	1110.5
765.741	1110.5
771.128	1115.5
776.509	1104.5
781.885	1112.5
787.254	1109.5
792.618	1110.5
797.977	1107.5
803.33	1101.5
808.677	1096.5
814.019	1079.5
819.355	1075.5
824.686	1058.5
830.011	1054.5
835.33	1042.5
840.644	1037.5
845.952	1035.5
851.255	1021.5
856.552	1028.5
861.844	1020.5
867.13	1017.5
872.41	1005.5
877.686	1001.5
882.955	1017.5
888.219	993.5
893.478	964.5
898.731	959.5
903.979	944.5
909.221	931.5
914.458	917.5
919.69	908.5
924.916	904.5
930.136	906.5
935.351	906.5
940.561	910.5
945.766	909.5
950.965	908.5
956.158	901.5
961.347	894.5
966.529	856.5
971.707	851.5
976.879	861.5
982.046	835.5
987.208	833.5
992.364	835.5
997.515	842.5
1002.66	833.5
1007.801	836.5
1012.936	846.5
1018.066	852.5
1023.19	870.5
1028.309	874.5
1033.423	869.5
1038.532	865.5
1043.636	856.5
1048.734	842.5
1053.827	852.5
1058.915	841.5
1063.998	840.5
1069.075	830.5
1074.147	825.5
1079.214	828.5
1084.276	833.5
1089.333	837.5
1094.385	837.5
1099.431	854.5
1104.472	853.5
1109.509	856.5
1114.54	839.5
1119.565	827.5
1124.586	826.5
1129.602	810.5
1134.613	790.5
1139.618	794.5
1144.619	800.5
1149.614	806.5
1154.604	812.5
1159.589	813.5
1164.57	814.5
1169.545	812.5
1174.515	818.5
1179.48	820.5
1184.44	815.5
1189.395	811.5
1194.345	798.5
1199.29	802.5
1204.23	798.5
1209.165	789.5
1214.095	813.5
1219.021	814.5
1223.941	821.5
1228.856	831.5
1233.766	826.5
1238.672	829.5
1243.572	828.5
1248.467	810.5
1253.358	833.5
1258.244	819.5
1263.124	808.5
1268	780.5
1272.871	768.5
1277.737	754.5
1282.599	758.5
1287.455	758.5
1292.306	764.5
1297.153	763.5
1301.995	762.5
1306.832	772.5
1311.664	785.5
1316.491	789.5
1321.314	778.5
1326.132	774.5
1330.945	769.5
1335.753	763.5
1340.556	737.5
1345.354	743.5
1350.148	721.5
1354.937	716.5
1359.722	715.5
1364.501	709.5
1369.276	721.5
1374.046	732.5
1378.811	735.5
1383.572	736.5
1388.327	733.5
1393.079	729.5
1397.825	724.5
1402.567	709.5
1407.304	707.5
1412.036	685.5
1416.764	671.5
1421.487	693.5
1426.205	696.5
1430.919	700.5
1435.628	703.5
1440.333	712.5
1445.032	703.5
1449.727	717.5
1454.418	718.5
1459.104	726.5
1463.785	720.5
1468.462	708.5
1473.134	693.5
1477.802	699.5
1482.465	679.5
1487.123	692.5
1491.777	686.5
1496.426	691.5
1501.071	698.5
1505.711	704.5
1510.347	709.5
1514.978	710.5
1519.604	735.5
1524.226	732.5
1528.844	737.5
1533.457	733.5
1538.065	756.5
1542.669	740.5
1547.269	737.5
1551.864	740.5
1556.454	732.5
1561.041	758.5
1565.622	754.5
1570.199	760.5
1574.772	762.5
1579.34	774.5
1583.904	777.5
1588.464	799.5
1593.019	804.5
1597.569	831.5
1602.115	815.5
1606.657	832.5
1611.195	821.5
1615.728	840.5
1620.256	840.5
1624.78	870.5
1629.3	869.5
1633.816	878.5
1638.327	897.5
1642.834	890.5
1647.336	914.5
1651.834	907.5
1656.328	918.5
1660.817	915.5
1665.302	910.5
1669.783	899.5
1674.259	867.5
1678.732	841.5
1683.199	810.5
1687.663	791.5
1692.122	767.5
1696.577	745.5
1701.028	713.5
1705.474	702.5
1709.917	674.5
1714.355	675.5
1718.788	661.5
1723.218	642.5
1727.643	633.5
1732.064	626.5
1736.481	600.5
1740.893	590.5
1745.301	565.5
1749.705	560.5
1754.105	538.5
1758.501	517.5
1762.893	516.5
1767.28	503.5
1771.663	497.5
1776.042	496.5
1780.417	491.5
1784.787	494.5
1789.154	497.5
1793.516	499.5
1797.874	492.5
1802.228	505.5
1806.578	496.5
1810.924	497.5
1815.266	496.5
1819.603	490.5
1823.937	467.5
1828.266	483.5
1832.591	457.5
1836.913	460.5
1841.23	446.5
1845.543	452.5
1849.852	451.5
1854.156	452.5
1858.457	448.5
1862.754	452.5
1867.047	444.5
1871.335	451.5
1875.62	450.5
1879.9	463.5
1884.177	451.5
1888.449	464.5
1892.718	451.5
1896.982	440.5
1901.243	447.5
1905.499	445.5
1909.752	442.5
1914	438.5
1918.245	449.5
1922.485	444.5
1926.722	444.5
1930.954	457.5
1935.183	451.5
1939.408	458.5
1943.628	457.5
1947.845	460.5
1952.058	453.5
1956.267	473.5
1960.472	448.5
1964.673	446.5
1968.87	448.5
1973.063	447.5
1977.252	439.5
1981.438	436.5
1985.619	431.5
1989.797	433.5
1993.971	431.5
1998.14	429.5
2002.306	430.5
2006.469	437.5
2010.627	444.5
2014.781	441.5
2018.932	432.5
2023.078	430.5
2027.221	442.5
2031.36	433.5
2035.495	439.5
2039.627	432.5
2043.754	417.5
2047.878	421.5
2051.998	421.5
2056.114	417.5
2060.226	422.5
2064.334	419.5
2068.439	430.5
2072.54	439.5
2076.637	436.5
2080.73	432.5
2084.82	425.5
2088.906	431.5
2092.988	445.5
2097.066	448.5
2101.14	443.5
2105.211	441.5
2109.278	430.5
2113.342	434.5
2117.401	421.5
2121.457	431.5
2125.509	429.5
2129.558	426.5
2133.602	420.5
2137.643	420.5
2141.681	409.5
2145.714	419.5
2149.744	419.5
2153.77	409.5
2157.793	416.5
2161.812	404.5
2165.827	402.5
2169.838	405.5
2173.846	396.5
2177.851	383.5
2181.851	381.5
2185.848	376.5
2189.841	366.5
2193.831	368.5
2197.817	363.5
2201.799	359.5
2205.778	354.5
2209.753	354.5
2213.725	361.5
2217.693	358.5
2221.657	360.5
2225.618	356.5
2229.575	351.5
2233.529	362.5
2237.479	357.5
2241.425	353.5
2245.368	343.5
2249.307	332.5
2253.243	335.5
2257.175	329.5
2261.104	321.5
2265.029	319.5
2268.95	315.5
2272.868	320.5
2276.783	319.5
2280.694	305.5
2284.601	297.5
2288.505	304.5
2292.405	301.5
2296.302	293.5
2300.195	298.5
2304.085	293.5
2307.971	281.5
2311.854	278.5
2315.734	274.5
2319.609	268.5
2323.482	258.5
2327.351	264.5
2331.216	259.5
2335.078	260.5
2338.937	263.5
2342.792	253.5
2346.643	261.5
2350.492	251.5
2354.336	247.5
2358.178	251.5
2362.015	246.5
2365.85	249.5
2369.681	250.5
2373.508	256.5
2377.333	252.5
2381.153	253.5
2384.971	250.5
2388.785	247.5
2392.595	241.5
2396.402	245.5
2400.206	238.5
2404.007	243.5
2407.804	236.5
2411.597	243.5
2415.388	240.5
2419.174	233.5
2422.958	230.5
2426.738	238.5
2430.515	232.5
2434.289	232.5
2438.059	229.5
2441.825	232.5
2445.589	229.5
2449.349	219.5
2453.106	219.5
2456.859	221.5
2460.61	225.5
2464.356	226.5
2468.1	221.5
2471.84	218.5
2475.577	207.5
2479.311	219.5
2483.041	209.5
2486.768	209.5
2490.492	217.5
2494.213	214.5
2497.93	215.5
2501.644	209.5
2505.355	208.5
2509.062	221.5
2512.766	212.5
2516.467	214.5
2520.165	207.5
2523.859	212.5
2527.551	204.5
2531.239	204.5
2534.923	206.5
2538.605	208.5
2542.283	204.5
2545.958	204.5
2549.63	200.5
2553.299	193.5
2556.964	198.5
2560.626	195.5
2564.285	200.5
2567.941	191.5
2571.594	187.5
2575.243	189.5
2578.89	185.5
2582.533	183.5
2586.173	184.5
2589.809	194.5
2593.443	186.5
2597.073	187.5
2600.701	181.5
2604.325	189.5
2607.946	175.5
2611.564	180.5
2615.178	186.5
2618.79	179.5
2622.398	181.5
2626.004	176.5
2629.606	179.5
2633.205	172.5
2636.801	171.5
2640.394	174.5
2643.983	167.5
2647.57	168.5
2651.153	166.5
2654.734	168.5
2658.311	166.5
2661.885	163.5
2665.456	167.5
2669.025	164.5
2672.589	163.5
2676.151	161.5
2679.71	152.5
2683.266	158.5
2686.819	153.5
2690.368	150.5
2693.915	151.5
2697.458	158.5
2700.999	145.5
2704.536	140.5
2708.071	140.5
2711.602	147.5
2715.13	142.5
2718.656	145.5
2722.178	142.5
2725.697	136.5
2729.214	134.5
2732.727	140.5
2736.237	142.5
2739.744	140.5
2743.249	143.5
2746.75	143.5
2750.248	137.5
2753.743	146.5
2757.236	141.5
2760.725	148.5
2764.211	145.5
2767.695	144.5
2771.175	147.5
2774.652	140.5
2778.127	140.5
2781.598	146.5
2785.067	146.5
2788.532	149.5
2791.995	138.5
2795.455	141.5
2798.911	143.5
2802.365	140.5
2805.816	138.5
2809.264	149.5
2812.709	145.5
2816.151	147.5
2819.59	143.5
2823.026	145.5
2826.46	145.5
2829.89	145.5
2833.318	143.5
2836.742	145.5
2840.164	145.5
2843.583	146.5
2846.999	151.5
2850.412	150.5
2853.822	159.5
2857.229	158.5
2860.634	162.5
2864.035	147.5
2867.434	157.5
2870.83	168.5
2874.223	173.5
2877.613	171.5
2881	168.5
2884.385	172.5
2887.766	169.5
2891.145	163.5
2894.521	168.5
2897.894	172.5
2901.264	175.5
2904.631	179.5
2907.996	181.5
2911.358	175.5
2914.717	169.5
2918.073	175.5
2921.426	185.5
2924.777	183.5
2928.124	192.5
2931.469	193.5
2934.811	200.5
2938.15	200.5
2941.487	201.5
2944.821	205.5
2948.152	208.5
2951.48	206.5
2954.805	211.5
2958.128	215.5
2961.447	216.5
2964.765	226.5
2968.079	226.5
2971.39	241.5
2974.699	238.5
2978.005	237.5
2981.308	246.5
2984.609	257.5
2987.907	260.5
2991.202	267.5
2994.494	275.5
2997.784	280.5
3001.07	294.5
3004.355	295.5
3007.636	304.5
3010.915	321.5
3014.191	324.5
3017.464	329.5
3020.734	335.5
3024.002	339.5
3027.267	337.5
3030.53	354.5
3033.789	349.5
3037.046	356.5
3040.301	377.5
3043.552	373.5
3046.801	386.5
3050.048	390.5
3053.291	407.5
3056.532	419.5
3059.771	429.5
3063.006	446.5
3066.239	449.5
3069.469	472.5
3072.697	476.5
3075.922	483.5
3079.144	501.5
3082.364	517.5
3085.581	530.5
3088.795	550.5
3092.007	547.5
3095.216	572.5
3098.423	580.5
3101.627	593.5
3104.828	602.5
3108.026	623.5
3111.222	631.5
3114.416	653.5
3117.607	660.5
3120.795	660.5
3123.98	683.5
3127.163	713.5
3130.344	713.5
3133.521	740.5
3136.696	754.5
3139.869	776.5
3143.039	778.5
3146.206	802.5
3149.371	810.5
3152.533	811.5
3155.693	829.5
3158.85	830.5
3162.005	842.5
3165.157	846.5
3168.306	842.5
3171.453	836.5
3174.597	843.5
3177.739	851.5
3180.878	847.5
3184.014	845.5
3187.149	843.5
3190.28	857.5
3193.409	865.5
3196.536	870.5
3199.659	862.5
3202.781	870.5
3205.9	878.5
3209.016	883.5
3212.13	875.5
3215.241	879.5
3218.35	867.5
3221.456	865.5
3224.56	845.5
3227.661	844.5
3230.76	825.5
3233.856	821.5
3236.95	814.5
3240.041	806.5
3243.13	799.5
3246.216	799.5
3249.3	795.5
3252.382	797.5
3255.46	769.5
3258.537	766.5
3261.611	764.5
3264.682	770.5
3267.751	768.5
3270.818	769.5
3273.882	767.5
3276.943	758.5
3280.002	754.5
3283.059	745.5
3286.113	736.5
3289.165	733.5
3292.214	716.5
3295.261	707.5
3298.306	701.5
3301.348	693.5
3304.387	675.5
3307.425	662.5
3310.459	645.5
3313.492	643.5
3316.521	639.5
3319.549	632.5
3322.574	631.5
3325.597	618.5
3328.617	618.5
3331.635	607.5
3334.65	614.5
3337.663	602.5
3340.674	596.5
3343.682	603.5
3346.688	606.5
3349.691	601.5
3352.692	593.5
3355.691	590.5
3358.687	579.5
3361.681	573.5
3364.673	573.5
3367.662	566.5
3370.649	553.5
3373.633	556.5
3376.615	543.5
3379.595	536.5
3382.572	522.5
3385.547	517.5
3388.52	516.5
3391.49	499.5
3394.458	504.5
3397.424	487.5
3400.387	495.5
3403.348	487.5
3406.307	481.5
3409.263	469.5
3412.217	470.5
3415.168	466.5
3418.118	465.5
3421.065	446.5
3424.009	443.5
3426.951	444.5
3429.891	436.5
3432.829	427.5
3435.764	418.5
3438.697	409.5
3441.628	403.5
3444.557	390.5
3447.483	381.5
3450.407	376.5
3453.328	368.5
3456.247	358.5
3459.164	343.5
3462.079	338.5
3464.991	324.5
3467.902	320.5
3470.809	307.5
3473.715	299.5
3476.618	292.5
3479.519	278.5
3482.418	276.5
3485.315	267.5
3488.209	262.5
3491.101	251.5
3493.99	242.5
3496.878	240.5
3499.763	230.5
3502.646	233.5
3505.527	222.5
3508.405	216.5
3511.281	205.5
3514.155	193.5
3517.027	183.5
3519.897	188.5
3522.764	177.5
3525.629	167.5
3528.492	162.5
3531.352	157.5
3534.211	147.5
3537.067	136.5
3539.921	123.5
3542.773	125.5
3545.622	119.5
3548.469	111.5
3551.315	103.5
3554.157	105.5
3556.998	95.5
3559.837	91.5
3562.673	85.5
3565.507	84.5
3568.339	77.5
3571.169	77.5
3573.996	66.5
3576.822	67.5
3579.645	58.5
3582.466	59.5
3585.285	62.5
3588.101	47.5
3590.916	43.5
3593.728	40.5
3596.538	38.5
3599.346	38.5
3602.152	34.5
3604.956	33.5
3607.757	29.5
3610.556	26.5
3613.354	20.5
3616.149	13.5
3618.942	13.5
3621.732	13.5
3624.521	14.5
3627.307	15.5
3630.092	8.5
3632.874	7.5
3635.654	4.5
3638.432	4.5
3641.208	-1.5
3643.982	-3.5
3646.753	-0.5
3649.523	-0.5
3652.29	-2.5
3655.055	-7.5
3657.818	-12.5
3660.579	-11.5
3663.338	-17.5
3666.095	-13.5
3668.849	-18.5
3671.602	-14.5
3674.352	-24.5
3677.101	-23.5
3679.847	-22.5
3682.591	-20.5
3685.333	-27.5
3688.073	-22.5
3690.811	-25.5
3693.547	-26.5
3696.281	-29.5
3699.013	-33.5
3701.742	-29.5
3704.47	-28.5
3707.195	-33.5
3709.919	-32.5
3712.64	-35.5
3715.359	-33.5
3718.076	-38.5
3720.792	-36.5
3723.505	-36.5
3726.216	-38.5
3728.925	-40.5
3731.632	-42.5
3734.336	-39.5
3737.039	-38.5
3739.74	-40.5
3742.439	-33.5
3745.136	-40.5
3747.83	-40.5
3750.523	-42.5
3753.213	-44.5
3755.902	-43.5
3758.589	-43.5
3761.273	-42.5
3763.956	-39.5
3766.636	-36.5
3769.315	-40.5
3771.991	-44.5
3774.665	-45.5
3777.338	-45.5
3780.008	-45.5
3782.677	-45.5
3785.343	-41.5
3788.007	-45.5
3790.67	-44.5
3793.33	-47.5
3795.989	-45.5
3798.645	-50.5
3801.299	-45.5
3803.952	-47.5
3806.602	-47.5
3809.251	-44.5
3811.897	-48.5
3814.542	-47.5
3817.184	-45.5
3819.825	-48.5
3822.463	-46.5
3825.1	-53.5
3827.735	-46.5
3830.367	-57.5
3832.998	-47.5
3835.627	-48.5
3838.253	-46.5
3840.878	-50.5
3843.501	-46.5
3846.122	-49.5
3848.741	-54.5
3851.358	-54.5
3853.973	-50.5
3856.586	-47.5
3859.197	-50.5
3861.806	-49.5
3864.414	-50.5
3867.019	-51.5
3869.622	-46.5
3872.224	-50.5
3874.823	-52.5
3877.421	-47.5
3880.016	-45.5
3882.61	-46.5
3885.202	-41.5
3887.792	-41.5
3890.38	-44.5
3892.966	-50.5
3895.55	-53.5
3898.132	-54.5
3900.713	-53.5
3903.291	-50.5
3905.868	-49.5
3908.442	-51.5
3911.015	-49.5
3913.586	-52.5
3916.155	-49.5
3918.722	-53.5
3921.287	-51.5
3923.85	-55.5
3926.411	-49.5
3928.971	-53.5
3931.528	-53.5
3934.084	-54.5
3936.638	-56.5
3939.19	-52.5
3941.74	-57.5
3944.288	-56.5
3946.834	-53.5
3949.378	-50.5
3951.921	-49.5
3954.462	-50.5
3957	-51.5
3959.537	-54.5
3962.072	-51.5
3964.606	-51.5
3967.137	-53.5
3969.667	-53.5
3972.194	-51.5
3974.72	-52.5
3977.244	-49.5
3979.766	-53.5
3982.286	-49.5
3984.805	-54.5
3987.321	-55.5
3989.836	-53.5
3992.349	-51.5
3994.86	-51.5
3997.369	-45.5
3999.877	-52.5
4002.382	-51.5
4004.886	-50.5
4007.388	-54.5
4009.888	-50.5
4012.386	-48.5
4014.883	-49.5
4017.377	-52.5
4019.87	-49.5
4022.361	-51.5
4024.85	-49.5
4027.338	-50.5
4029.823	-50.5
4032.307	-49.5
4034.789	-51.5
4037.269	-50.5
4039.747	-54.5
4042.224	-53.5
4044.699	-50.5
4047.172	-52.5
4049.643	-50.5
4052.112	-52.5
4054.58	-54.5
4057.046	-54.5
4059.51	-55.5
4061.972	-48.5
4064.432	-52.5
4066.891	-50.5
4069.348	-53.5
4071.803	-51.5
4074.256	-55.5
4076.708	-57.5
4079.158	-54.5
4081.606	-52.5
4084.052	-52.5
4086.497	-50.5
4088.939	-54.5
4091.38	-55.5
4093.819	-52.5
4096.257	-54.5
4098.693	-55.5
4101.127	-54.5
4103.559	-53.5
4105.989	-10.5
4108.418	-9.5
4110.845	-7.5
4113.27	-7.5
4115.694	-4.5
4118.115	-7.5
4120.535	-55.5
4122.954	-52.5
4125.37	-52.5
4127.785	-49.5
4130.198	-49.5
4132.609	-54.5
4135.019	-55.5
4137.427	-53.5
4139.833	-56.5
4142.237	-55.5
