Data from 10000CFU2_FROM15TH_ramanshift_RamanShift_13-36-20-710.txt Node
Date: Sun Dec 25 13:36:20 IST 2016
User: aro
Spectrometer: QEPB0276
Trigger mode: 0
Integration Time (sec): 5.000000E0
Scans to average: 1
Electric dark correction enabled: true
Nonlinearity correction enabled: false
Boxcar width: 0
XAxis mode: Raman Shifts
Number of Pixels in Spectrum: 1044
>>>>>Begin Spectral Data<<<<<
160.701	2.62
166.742	21.62
172.777	68.62
178.805	203.62
184.826	616.62
190.841	1484.62
196.849	2696.62
202.85	3840.62
208.845	4411.62
214.833	4406.62
220.815	4255.62
226.789	4083.62
232.758	3981.62
238.719	3889.62
244.674	3725.62
250.623	3576.62
256.565	3446.62
262.5	3280.62
268.429	3119.62
274.351	2966.62
280.267	2863.62
286.176	2738.62
292.079	2670.62
297.975	2581.62
303.865	2504.62
309.748	2407.62
315.625	2375.62
321.495	2275.62
327.359	2278.62
333.217	2223.62
339.068	2193.62
344.912	2166.62
350.751	2170.62
356.583	2145.62
362.408	2147.62
368.227	2148.62
374.04	2152.62
379.847	2154.62
385.647	2171.62
391.44	2176.62
397.228	2178.62
403.009	2218.62
408.784	2222.62
414.553	2234.62
420.315	2222.62
426.071	2245.62
431.821	2236.62
437.565	2226.62
443.302	2247.62
449.033	2235.62
454.758	2230.62
460.477	2227.62
466.189	2208.62
471.896	2190.62
477.596	2195.62
483.29	2173.62
488.978	2178.62
494.66	2172.62
500.335	2140.62
506.005	2136.62
511.668	2091.62
517.325	2049.62
522.977	2020.62
528.622	1994.62
534.261	1978.62
539.894	1948.62
545.521	1940.62
551.141	1922.62
556.756	1916.62
562.365	1914.62
567.968	1912.62
573.565	1882.62
579.155	1877.62
584.74	1857.62
590.319	1848.62
595.892	1836.62
601.459	1815.62
607.02	1819.62
612.575	1803.62
618.124	1812.62
623.667	1782.62
629.204	1765.62
634.735	1760.62
640.261	1750.62
645.781	1725.62
651.294	1725.62
656.802	1701.62
662.304	1700.62
667.8	1705.62
673.29	1688.62
678.775	1672.62
684.254	1685.62
689.726	1675.62
695.193	1674.62
700.655	1651.62
706.11	1652.62
711.56	1657.62
717.004	1629.62
722.442	1616.62
727.874	1608.62
733.301	1609.62
738.722	1598.62
744.137	1590.62
749.547	1594.62
754.951	1580.62
760.349	1558.62
765.741	1567.62
771.128	1583.62
776.509	1568.62
781.885	1578.62
787.254	1566.62
792.618	1581.62
797.977	1562.62
803.33	1557.62
808.677	1549.62
814.019	1538.62
819.355	1514.62
824.686	1497.62
830.011	1488.62
835.33	1485.62
840.644	1473.62
845.952	1474.62
851.255	1471.62
856.552	1465.62
861.844	1465.62
867.13	1455.62
872.41	1469.62
877.686	1438.62
882.955	1435.62
888.219	1423.62
893.478	1387.62
898.731	1387.62
903.979	1368.62
909.221	1336.62
914.458	1314.62
919.69	1304.62
924.916	1301.62
930.136	1316.62
935.351	1305.62
940.561	1310.62
945.766	1295.62
950.965	1297.62
956.158	1285.62
961.347	1276.62
966.529	1262.62
971.707	1245.62
976.879	1236.62
982.046	1205.62
987.208	1200.62
992.364	1202.62
997.515	1204.62
1002.66	1205.62
1007.801	1220.62
1012.936	1225.62
1018.066	1248.62
1023.19	1252.62
1028.309	1249.62
1033.423	1251.62
1038.532	1255.62
1043.636	1239.62
1048.734	1237.62
1053.827	1238.62
1058.915	1209.62
1063.998	1200.62
1069.075	1203.62
1074.147	1183.62
1079.214	1201.62
1084.276	1213.62
1089.333	1217.62
1094.385	1231.62
1099.431	1223.62
1104.472	1233.62
1109.509	1227.62
1114.54	1229.62
1119.565	1199.62
1124.586	1203.62
1129.602	1190.62
1134.613	1171.62
1139.618	1170.62
1144.619	1166.62
1149.614	1177.62
1154.604	1167.62
1159.589	1175.62
1164.57	1177.62
1169.545	1190.62
1174.515	1189.62
1179.48	1183.62
1184.44	1187.62
1189.395	1187.62
1194.345	1178.62
1199.29	1161.62
1204.23	1153.62
1209.165	1162.62
1214.095	1182.62
1219.021	1183.62
1223.941	1192.62
1228.856	1199.62
1233.766	1210.62
1238.672	1205.62
1243.572	1207.62
1248.467	1205.62
1253.358	1191.62
1258.244	1185.62
1263.124	1166.62
1268	1156.62
1272.871	1123.62
1277.737	1139.62
1282.599	1119.62
1287.455	1121.62
1292.306	1127.62
1297.153	1139.62
1301.995	1134.62
1306.832	1156.62
1311.664	1154.62
1316.491	1148.62
1321.314	1151.62
1326.132	1138.62
1330.945	1128.62
1335.753	1120.62
1340.556	1121.62
1345.354	1098.62
1350.148	1077.62
1354.937	1069.62
1359.722	1063.62
1364.501	1070.62
1369.276	1058.62
1374.046	1058.62
1378.811	1061.62
1383.572	1064.62
1388.327	1065.62
1393.079	1056.62
1397.825	1046.62
1402.567	1030.62
1407.304	1031.62
1412.036	1027.62
1416.764	1026.62
1421.487	1018.62
1426.205	1019.62
1430.919	1024.62
1435.628	1052.62
1440.333	1048.62
1445.032	1043.62
1449.727	1060.62
1454.418	1073.62
1459.104	1074.62
1463.785	1058.62
1468.462	1062.62
1473.134	1036.62
1477.802	1031.62
1482.465	1025.62
1487.123	1019.62
1491.777	1018.62
1496.426	1029.62
1501.071	1016.62
1505.711	1044.62
1510.347	1031.62
1514.978	1046.62
1519.604	1070.62
1524.226	1072.62
1528.844	1082.62
1533.457	1078.62
1538.065	1084.62
1542.669	1080.62
1547.269	1077.62
1551.864	1070.62
1556.454	1091.62
1561.041	1093.62
1565.622	1097.62
1570.199	1101.62
1574.772	1118.62
1579.34	1130.62
1583.904	1152.62
1588.464	1165.62
1593.019	1185.62
1597.569	1210.62
1602.115	1208.62
1606.657	1228.62
1611.195	1216.62
1615.728	1226.62
1620.256	1256.62
1624.78	1255.62
1629.3	1266.62
1633.816	1296.62
1638.327	1291.62
1642.834	1326.62
1647.336	1339.62
1651.834	1337.62
1656.328	1342.62
1660.817	1343.62
1665.302	1319.62
1669.783	1310.62
1674.259	1282.62
1678.732	1231.62
1683.199	1202.62
1687.663	1168.62
1692.122	1128.62
1696.577	1096.62
1701.028	1046.62
1705.474	1011.62
1709.917	979.62
1714.355	974.62
1718.788	947.62
1723.218	940.62
1727.643	921.62
1732.064	901.62
1736.481	882.62
1740.893	855.62
1745.301	848.62
1749.705	817.62
1754.105	808.62
1758.501	783.62
1762.893	765.62
1767.28	761.62
1771.663	742.62
1776.042	734.62
1780.417	738.62
1784.787	738.62
1789.154	725.62
1793.516	743.62
1797.874	729.62
1802.228	744.62
1806.578	730.62
1810.924	722.62
1815.266	720.62
1819.603	702.62
1823.937	706.62
1828.266	688.62
1832.591	686.62
1836.913	676.62
1841.23	663.62
1845.543	682.62
1849.852	670.62
1854.156	680.62
1858.457	679.62
1862.754	678.62
1867.047	678.62
1871.335	680.62
1875.62	678.62
1879.9	685.62
1884.177	695.62
1888.449	676.62
1892.718	674.62
1896.982	669.62
1901.243	663.62
1905.499	660.62
1909.752	670.62
1914	673.62
1918.245	669.62
1922.485	656.62
1926.722	669.62
1930.954	653.62
1935.183	662.62
1939.408	667.62
1943.628	691.62
1947.845	672.62
1952.058	675.62
1956.267	682.62
1960.472	674.62
1964.673	668.62
1968.87	659.62
1973.063	653.62
1977.252	645.62
1981.438	640.62
1985.619	645.62
1989.797	654.62
1993.971	650.62
1998.14	642.62
2002.306	642.62
2006.469	653.62
2010.627	657.62
2014.781	649.62
2018.932	651.62
2023.078	658.62
2027.221	652.62
2031.36	645.62
2035.495	657.62
2039.627	633.62
2043.754	639.62
2047.878	635.62
2051.998	631.62
2056.114	632.62
2060.226	645.62
2064.334	629.62
2068.439	635.62
2072.54	646.62
2076.637	643.62
2080.73	640.62
2084.82	645.62
2088.906	644.62
2092.988	652.62
2097.066	640.62
2101.14	653.62
2105.211	639.62
2109.278	637.62
2113.342	631.62
2117.401	633.62
2121.457	625.62
2125.509	629.62
2129.558	632.62
2133.602	623.62
2137.643	622.62
2141.681	621.62
2145.714	635.62
2149.744	624.62
2153.77	604.62
2157.793	606.62
2161.812	606.62
2165.827	605.62
2169.838	594.62
2173.846	594.62
2177.851	577.62
2181.851	569.62
2185.848	567.62
2189.841	559.62
2193.831	549.62
2197.817	547.62
2201.799	550.62
2205.778	554.62
2209.753	551.62
2213.725	546.62
2217.693	546.62
2221.657	541.62
2225.618	535.62
2229.575	537.62
2233.529	538.62
2237.479	530.62
2241.425	527.62
2245.368	536.62
2249.307	516.62
2253.243	500.62
2257.175	513.62
2261.104	493.62
2265.029	485.62
2268.95	492.62
2272.868	473.62
2276.783	486.62
2280.694	464.62
2284.601	459.62
2288.505	455.62
2292.405	457.62
2296.302	449.62
2300.195	451.62
2304.085	447.62
2307.971	438.62
2311.854	434.62
2315.734	419.62
2319.609	425.62
2323.482	419.62
2327.351	414.62
2331.216	408.62
2335.078	400.62
2338.937	399.62
2342.792	390.62
2346.643	394.62
2350.492	392.62
2354.336	400.62
2358.178	381.62
2362.015	390.62
2365.85	381.62
2369.681	401.62
2373.508	393.62
2377.333	397.62
2381.153	397.62
2384.971	391.62
2388.785	383.62
2392.595	387.62
2396.402	387.62
2400.206	381.62
2404.007	381.62
2407.804	376.62
2411.597	384.62
2415.388	377.62
2419.174	378.62
2422.958	367.62
2426.738	378.62
2430.515	378.62
2434.289	374.62
2438.059	360.62
2441.825	362.62
2445.589	374.62
2449.349	369.62
2453.106	353.62
2456.859	369.62
2460.61	352.62
2464.356	352.62
2468.1	345.62
2471.84	351.62
2475.577	340.62
2479.311	345.62
2483.041	351.62
2486.768	351.62
2490.492	340.62
2494.213	345.62
2497.93	338.62
2501.644	345.62
2505.355	337.62
2509.062	343.62
2512.766	337.62
2516.467	345.62
2520.165	340.62
2523.859	331.62
2527.551	335.62
2531.239	325.62
2534.923	327.62
2538.605	324.62
2542.283	320.62
2545.958	320.62
2549.63	314.62
2553.299	311.62
2556.964	313.62
2560.626	307.62
2564.285	307.62
2567.941	309.62
2571.594	304.62
2575.243	306.62
2578.89	299.62
2582.533	303.62
2586.173	288.62
2589.809	295.62
2593.443	291.62
2597.073	298.62
2600.701	292.62
2604.325	291.62
2607.946	286.62
2611.564	286.62
2615.178	293.62
2618.79	293.62
2622.398	284.62
2626.004	285.62
2629.606	282.62
2633.205	283.62
2636.801	285.62
2640.394	275.62
2643.983	263.62
2647.57	268.62
2651.153	261.62
2654.734	267.62
2658.311	268.62
2661.885	261.62
2665.456	266.62
2669.025	262.62
2672.589	258.62
2676.151	259.62
2679.71	252.62
2683.266	252.62
2686.819	251.62
2690.368	255.62
2693.915	250.62
2697.458	243.62
2700.999	243.62
2704.536	241.62
2708.071	235.62
2711.602	240.62
2715.13	235.62
2718.656	228.62
2722.178	230.62
2725.697	231.62
2729.214	230.62
2732.727	231.62
2736.237	232.62
2739.744	230.62
2743.249	228.62
2746.75	228.62
2750.248	229.62
2753.743	231.62
2757.236	230.62
2760.725	231.62
2764.211	226.62
2767.695	219.62
2771.175	229.62
2774.652	222.62
2778.127	216.62
2781.598	229.62
2785.067	228.62
2788.532	226.62
2791.995	228.62
2795.455	220.62
2798.911	222.62
2802.365	219.62
2805.816	220.62
2809.264	228.62
2812.709	229.62
2816.151	231.62
2819.59	234.62
2823.026	228.62
2826.46	229.62
2829.89	231.62
2833.318	230.62
2836.742	228.62
2840.164	228.62
2843.583	234.62
2846.999	233.62
2850.412	231.62
2853.822	248.62
2857.229	243.62
2860.634	248.62
2864.035	245.62
2867.434	249.62
2870.83	248.62
2874.223	261.62
2877.613	259.62
2881	263.62
2884.385	270.62
2887.766	264.62
2891.145	261.62
2894.521	257.62
2897.894	266.62
2901.264	265.62
2904.631	271.62
2907.996	282.62
2911.358	266.62
2914.717	270.62
2918.073	271.62
2921.426	275.62
2924.777	276.62
2928.124	286.62
2931.469	290.62
2934.811	294.62
2938.15	307.62
2941.487	308.62
2944.821	301.62
2948.152	315.62
2951.48	307.62
2954.805	309.62
2958.128	318.62
2961.447	316.62
2964.765	318.62
2968.079	328.62
2971.39	337.62
2974.699	347.62
2978.005	345.62
2981.308	356.62
2984.609	364.62
2987.907	363.62
2991.202	383.62
2994.494	389.62
2997.784	406.62
3001.07	410.62
3004.355	412.62
3007.636	429.62
3010.915	441.62
3014.191	447.62
3017.464	463.62
3020.734	467.62
3024.002	464.62
3027.267	474.62
3030.53	485.62
3033.789	494.62
3037.046	498.62
3040.301	514.62
3043.552	533.62
3046.801	541.62
3050.048	551.62
3053.291	559.62
3056.532	574.62
3059.771	591.62
3063.006	612.62
3066.239	639.62
3069.469	650.62
3072.697	667.62
3075.922	683.62
3079.144	697.62
3082.364	705.62
3085.581	732.62
3088.795	754.62
3092.007	756.62
3095.216	775.62
3098.423	789.62
3101.627	795.62
3104.828	816.62
3108.026	855.62
3111.222	866.62
3114.416	873.62
3117.607	895.62
3120.795	931.62
3123.98	927.62
3127.163	947.62
3130.344	982.62
3133.521	1002.62
3136.696	1016.62
3139.869	1045.62
3143.039	1069.62
3146.206	1080.62
3149.371	1079.62
3152.533	1103.62
3155.693	1106.62
3158.85	1102.62
3162.005	1122.62
3165.157	1117.62
3168.306	1133.62
3171.453	1125.62
3174.597	1143.62
3177.739	1136.62
3180.878	1140.62
3184.014	1146.62
3187.149	1141.62
3190.28	1150.62
3193.409	1139.62
3196.536	1161.62
3199.659	1168.62
3202.781	1156.62
3205.9	1175.62
3209.016	1169.62
3212.13	1168.62
3215.241	1157.62
3218.35	1157.62
3221.456	1158.62
3224.56	1139.62
3227.661	1143.62
3230.76	1108.62
3233.856	1102.62
3236.95	1098.62
3240.041	1082.62
3243.13	1071.62
3246.216	1073.62
3249.3	1066.62
3252.382	1064.62
3255.46	1046.62
3258.537	1038.62
3261.611	1023.62
3264.682	1026.62
3267.751	1031.62
3270.818	1021.62
3273.882	1034.62
3276.943	1019.62
3280.002	1006.62
3283.059	996.62
3286.113	981.62
3289.165	964.62
3292.214	969.62
3295.261	951.62
3298.306	932.62
3301.348	916.62
3304.387	925.62
3307.425	888.62
3310.459	876.62
3313.492	878.62
3316.521	862.62
3319.549	847.62
3322.574	842.62
3325.597	830.62
3328.617	820.62
3331.635	820.62
3334.65	816.62
3337.663	813.62
3340.674	822.62
3343.682	804.62
3346.688	803.62
3349.691	804.62
3352.692	789.62
3355.691	787.62
3358.687	786.62
3361.681	785.62
3364.673	769.62
3367.662	758.62
3370.649	762.62
3373.633	750.62
3376.615	734.62
3379.595	728.62
3382.572	712.62
3385.547	697.62
3388.52	693.62
3391.49	691.62
3394.458	674.62
3397.424	665.62
3400.387	655.62
3403.348	654.62
3406.307	644.62
3409.263	636.62
3412.217	635.62
3415.168	631.62
3418.118	625.62
3421.065	614.62
3424.009	604.62
3426.951	595.62
3429.891	589.62
3432.829	591.62
3435.764	576.62
3438.697	561.62
3441.628	555.62
3444.557	542.62
3447.483	525.62
3450.407	502.62
3453.328	484.62
3456.247	478.62
3459.164	464.62
3462.079	439.62
3464.991	446.62
3467.902	430.62
3470.809	413.62
3473.715	406.62
3476.618	391.62
3479.519	385.62
3482.418	373.62
3485.315	361.62
3488.209	343.62
3491.101	349.62
3493.99	327.62
3496.878	325.62
3499.763	316.62
3502.646	313.62
3505.527	295.62
3508.405	286.62
3511.281	282.62
3514.155	262.62
3517.027	259.62
3519.897	237.62
3522.764	234.62
3525.629	227.62
3528.492	213.62
3531.352	203.62
3534.211	185.62
3537.067	183.62
3539.921	173.62
3542.773	164.62
3545.622	161.62
3548.469	149.62
3551.315	143.62
3554.157	133.62
3556.998	120.62
3559.837	116.62
3562.673	111.62
3565.507	111.62
3568.339	107.62
3571.169	100.62
3573.996	91.62
3576.822	84.62
3579.645	83.62
3582.466	74.62
3585.285	69.62
3588.101	68.62
3590.916	61.62
3593.728	61.62
3596.538	58.62
3599.346	51.62
3602.152	44.62
3604.956	39.62
3607.757	32.62
3610.556	33.62
3613.354	22.62
3616.149	24.62
3618.942	26.62
3621.732	22.62
3624.521	14.62
3627.307	11.62
3630.092	7.62
3632.874	13.62
3635.654	5.62
3638.432	4.62
3641.208	2.62
3643.982	1.62
3646.753	-3.38
3649.523	-2.38
3652.29	-3.38
3655.055	-10.38
3657.818	-13.38
3660.579	-12.38
3663.338	-17.38
3666.095	-16.38
3668.849	-21.38
3671.602	-23.38
3674.352	-29.38
3677.101	-28.38
3679.847	-31.38
3682.591	-31.38
3685.333	-31.38
3688.073	-34.38
3690.811	-34.38
3693.547	-35.38
3696.281	-40.38
3699.013	-42.38
3701.742	-42.38
3704.47	-45.38
3707.195	-38.38
3709.919	-41.38
3712.64	-45.38
3715.359	-42.38
3718.076	-46.38
3720.792	-49.38
3723.505	-52.38
3726.216	-54.38
3728.925	-55.38
3731.632	-55.38
3734.336	-48.38
3737.039	-53.38
3739.74	-54.38
3742.439	-53.38
3745.136	-54.38
3747.83	-57.38
3750.523	-59.38
3753.213	-57.38
3755.902	-58.38
3758.589	-58.38
3761.273	-51.38
3763.956	-56.38
3766.636	-56.38
3769.315	-56.38
3771.991	-64.38
3774.665	-59.38
3777.338	-64.38
3780.008	-56.38
3782.677	-59.38
3785.343	-59.38
3788.007	-63.38
3790.67	-59.38
3793.33	-63.38
3795.989	-65.38
3798.645	-63.38
3801.299	-60.38
3803.952	-61.38
3806.602	-61.38
3809.251	-60.38
3811.897	-64.38
3814.542	-67.38
3817.184	-61.38
3819.825	-63.38
3822.463	-62.38
3825.1	-67.38
3827.735	-61.38
3830.367	-64.38
3832.998	-65.38
3835.627	-67.38
3838.253	-67.38
3840.878	-70.38
3843.501	-62.38
3846.122	-68.38
3848.741	-68.38
3851.358	-69.38
3853.973	-65.38
3856.586	-62.38
3859.197	-70.38
3861.806	-71.38
3864.414	-70.38
3867.019	-69.38
3869.622	-65.38
3872.224	-66.38
3874.823	-67.38
3877.421	-67.38
3880.016	-67.38
3882.61	-66.38
3885.202	-61.38
3887.792	-64.38
3890.38	-65.38
3892.966	-67.38
3895.55	-68.38
3898.132	-70.38
3900.713	-69.38
3903.291	-74.38
3905.868	-71.38
3908.442	-71.38
3911.015	-71.38
3913.586	-71.38
3916.155	-68.38
3918.722	-69.38
3921.287	-71.38
3923.85	-74.38
3926.411	-71.38
3928.971	-74.38
3931.528	-74.38
3934.084	-72.38
3936.638	-73.38
3939.19	-70.38
3941.74	-74.38
3944.288	-73.38
3946.834	-73.38
3949.378	-70.38
3951.921	-71.38
3954.462	-72.38
3957	-68.38
3959.537	-73.38
3962.072	-68.38
3964.606	-69.38
3967.137	-71.38
3969.667	-72.38
3972.194	-72.38
3974.72	-74.38
3977.244	-68.38
3979.766	-71.38
3982.286	-67.38
3984.805	-70.38
3987.321	-70.38
3989.836	-71.38
3992.349	-71.38
3994.86	-69.38
3997.369	-66.38
3999.877	-70.38
4002.382	-69.38
4004.886	-71.38
4007.388	-69.38
4009.888	-70.38
4012.386	-65.38
4014.883	-70.38
4017.377	-73.38
4019.87	-73.38
4022.361	-70.38
4024.85	-68.38
4027.338	-68.38
4029.823	-66.38
4032.307	-64.38
4034.789	-67.38
4037.269	-73.38
4039.747	-74.38
4042.224	-72.38
4044.699	-68.38
4047.172	-69.38
4049.643	-67.38
4052.112	-70.38
4054.58	-71.38
4057.046	-72.38
4059.51	-74.38
4061.972	-68.38
4064.432	-72.38
4066.891	-71.38
4069.348	-72.38
4071.803	-70.38
4074.256	-73.38
4076.708	-76.38
4079.158	-72.38
4081.606	-67.38
4084.052	-73.38
4086.497	-71.38
4088.939	-71.38
4091.38	-71.38
4093.819	-71.38
4096.257	-73.38
4098.693	-77.38
4101.127	-76.38
4103.559	-75.38
4105.989	-22.38
4108.418	-18.38
4110.845	-15.38
4113.27	-16.38
4115.694	-10.38
4118.115	-9.38
4120.535	-72.38
4122.954	-71.38
4125.37	-72.38
4127.785	-74.38
4130.198	-73.38
4132.609	-73.38
4135.019	-75.38
4137.427	-72.38
4139.833	-73.38
4142.237	-75.38
