Data from 1000000CFU3_C_ramanshift_RamanShift_15-32-32-509.txt Node
Date: Sun Dec 25 15:32:32 IST 2016
User: aro
Spectrometer: QEPB0276
Trigger mode: 0
Integration Time (sec): 5.000000E0
Scans to average: 1
Electric dark correction enabled: true
Nonlinearity correction enabled: false
Boxcar width: 0
XAxis mode: Raman Shifts
Number of Pixels in Spectrum: 1044
>>>>>Begin Spectral Data<<<<<
160.701	-0.62
166.742	22.38
172.777	69.38
178.805	217.38
184.826	655.38
190.841	1563.38
196.849	2859.38
202.85	4127.38
208.845	4737.38
214.833	4741.38
220.815	4535.38
226.789	4396.38
232.758	4281.38
238.719	4137.38
244.674	4030.38
250.623	3853.38
256.565	3664.38
262.5	3496.38
268.429	3329.38
274.351	3187.38
280.267	3050.38
286.176	2942.38
292.079	2818.38
297.975	2721.38
303.865	2622.38
309.748	2535.38
315.625	2453.38
321.495	2426.38
327.359	2368.38
333.217	2331.38
339.068	2295.38
344.912	2270.38
350.751	2263.38
356.583	2245.38
362.408	2248.38
368.227	2243.38
374.04	2246.38
379.847	2245.38
385.647	2256.38
391.44	2282.38
397.228	2277.38
403.009	2304.38
408.784	2298.38
414.553	2316.38
420.315	2305.38
426.071	2332.38
431.821	2325.38
437.565	2354.38
443.302	2325.38
449.033	2329.38
454.758	2340.38
460.477	2333.38
466.189	2296.38
471.896	2286.38
477.596	2282.38
483.29	2280.38
488.978	2269.38
494.66	2248.38
500.335	2222.38
506.005	2208.38
511.668	2174.38
517.325	2138.38
522.977	2120.38
528.622	2107.38
534.261	2059.38
539.894	2036.38
545.521	2024.38
551.141	2021.38
556.756	1989.38
562.365	1993.38
567.968	1978.38
573.565	1964.38
579.155	1949.38
584.74	1933.38
590.319	1924.38
595.892	1904.38
601.459	1906.38
607.02	1890.38
612.575	1877.38
618.124	1846.38
623.667	1831.38
629.204	1833.38
634.735	1819.38
640.261	1804.38
645.781	1791.38
651.294	1771.38
656.802	1781.38
662.304	1758.38
667.8	1746.38
673.29	1743.38
678.775	1748.38
684.254	1728.38
689.726	1738.38
695.193	1724.38
700.655	1737.38
706.11	1694.38
711.56	1690.38
717.004	1689.38
722.442	1679.38
727.874	1666.38
733.301	1648.38
738.722	1648.38
744.137	1644.38
749.547	1620.38
754.951	1623.38
760.349	1622.38
765.741	1629.38
771.128	1634.38
776.509	1636.38
781.885	1630.38
787.254	1616.38
792.618	1616.38
797.977	1622.38
803.33	1607.38
808.677	1599.38
814.019	1561.38
819.355	1567.38
824.686	1542.38
830.011	1550.38
835.33	1522.38
840.644	1520.38
845.952	1513.38
851.255	1495.38
856.552	1511.38
861.844	1492.38
867.13	1493.38
872.41	1482.38
877.686	1461.38
882.955	1471.38
888.219	1435.38
893.478	1421.38
898.731	1396.38
903.979	1375.38
909.221	1369.38
914.458	1356.38
919.69	1327.38
924.916	1327.38
930.136	1330.38
935.351	1339.38
940.561	1339.38
945.766	1320.38
950.965	1316.38
956.158	1321.38
961.347	1300.38
966.529	1293.38
971.707	1254.38
976.879	1254.38
982.046	1234.38
987.208	1226.38
992.364	1209.38
997.515	1209.38
1002.66	1229.38
1007.801	1233.38
1012.936	1238.38
1018.066	1248.38
1023.19	1265.38
1028.309	1274.38
1033.423	1266.38
1038.532	1267.38
1043.636	1259.38
1048.734	1252.38
1053.827	1248.38
1058.915	1234.38
1063.998	1217.38
1069.075	1215.38
1074.147	1217.38
1079.214	1219.38
1084.276	1232.38
1089.333	1226.38
1094.385	1244.38
1099.431	1237.38
1104.472	1255.38
1109.509	1244.38
1114.54	1239.38
1119.565	1230.38
1124.586	1214.38
1129.602	1201.38
1134.613	1180.38
1139.618	1183.38
1144.619	1193.38
1149.614	1177.38
1154.604	1191.38
1159.589	1199.38
1164.57	1222.38
1169.545	1210.38
1174.515	1222.38
1179.48	1204.38
1184.44	1204.38
1189.395	1195.38
1194.345	1182.38
1199.29	1172.38
1204.23	1184.38
1209.165	1183.38
1214.095	1197.38
1219.021	1206.38
1223.941	1217.38
1228.856	1235.38
1233.766	1226.38
1238.672	1232.38
1243.572	1229.38
1248.467	1217.38
1253.358	1215.38
1258.244	1213.38
1263.124	1189.38
1268	1160.38
1272.871	1156.38
1277.737	1137.38
1282.599	1133.38
1287.455	1137.38
1292.306	1143.38
1297.153	1157.38
1301.995	1152.38
1306.832	1174.38
1311.664	1181.38
1316.491	1169.38
1321.314	1161.38
1326.132	1166.38
1330.945	1157.38
1335.753	1159.38
1340.556	1144.38
1345.354	1122.38
1350.148	1117.38
1354.937	1102.38
1359.722	1105.38
1364.501	1078.38
1369.276	1087.38
1374.046	1081.38
1378.811	1060.38
1383.572	1072.38
1388.327	1070.38
1393.079	1062.38
1397.825	1044.38
1402.567	1059.38
1407.304	1029.38
1412.036	1044.38
1416.764	1019.38
1421.487	1027.38
1426.205	1034.38
1430.919	1043.38
1435.628	1043.38
1440.333	1069.38
1445.032	1075.38
1449.727	1078.38
1454.418	1075.38
1459.104	1081.38
1463.785	1079.38
1468.462	1073.38
1473.134	1062.38
1477.802	1055.38
1482.465	1056.38
1487.123	1051.38
1491.777	1049.38
1496.426	1048.38
1501.071	1059.38
1505.711	1042.38
1510.347	1075.38
1514.978	1083.38
1519.604	1092.38
1524.226	1095.38
1528.844	1102.38
1533.457	1113.38
1538.065	1101.38
1542.669	1090.38
1547.269	1087.38
1551.864	1080.38
1556.454	1085.38
1561.041	1110.38
1565.622	1115.38
1570.199	1142.38
1574.772	1142.38
1579.34	1155.38
1583.904	1179.38
1588.464	1199.38
1593.019	1220.38
1597.569	1234.38
1602.115	1239.38
1606.657	1252.38
1611.195	1278.38
1615.728	1276.38
1620.256	1298.38
1624.78	1304.38
1629.3	1337.38
1633.816	1352.38
1638.327	1370.38
1642.834	1366.38
1647.336	1398.38
1651.834	1403.38
1656.328	1407.38
1660.817	1403.38
1665.302	1375.38
1669.783	1359.38
1674.259	1325.38
1678.732	1303.38
1683.199	1257.38
1687.663	1229.38
1692.122	1190.38
1696.577	1138.38
1701.028	1109.38
1705.474	1052.38
1709.917	1008.38
1714.355	978.38
1718.788	957.38
1723.218	961.38
1727.643	941.38
1732.064	916.38
1736.481	898.38
1740.893	877.38
1745.301	858.38
1749.705	837.38
1754.105	815.38
1758.501	796.38
1762.893	785.38
1767.28	764.38
1771.663	759.38
1776.042	746.38
1780.417	743.38
1784.787	753.38
1789.154	750.38
1793.516	759.38
1797.874	743.38
1802.228	753.38
1806.578	751.38
1810.924	740.38
1815.266	713.38
1819.603	700.38
1823.937	690.38
1828.266	686.38
1832.591	687.38
1836.913	690.38
1841.23	679.38
1845.543	682.38
1849.852	675.38
1854.156	681.38
1858.457	676.38
1862.754	678.38
1867.047	688.38
1871.335	685.38
1875.62	694.38
1879.9	700.38
1884.177	690.38
1888.449	690.38
1892.718	687.38
1896.982	689.38
1901.243	681.38
1905.499	685.38
1909.752	689.38
1914	681.38
1918.245	669.38
1922.485	680.38
1926.722	673.38
1930.954	670.38
1935.183	678.38
1939.408	673.38
1943.628	691.38
1947.845	693.38
1952.058	683.38
1956.267	687.38
1960.472	675.38
1964.673	682.38
1968.87	665.38
1973.063	659.38
1977.252	663.38
1981.438	654.38
1985.619	660.38
1989.797	647.38
1993.971	652.38
1998.14	648.38
2002.306	657.38
2006.469	657.38
2010.627	660.38
2014.781	662.38
2018.932	667.38
2023.078	667.38
2027.221	665.38
2031.36	660.38
2035.495	650.38
2039.627	645.38
2043.754	647.38
2047.878	655.38
2051.998	643.38
2056.114	636.38
2060.226	657.38
2064.334	654.38
2068.439	649.38
2072.54	648.38
2076.637	664.38
2080.73	664.38
2084.82	660.38
2088.906	660.38
2092.988	668.38
2097.066	661.38
2101.14	663.38
2105.211	660.38
2109.278	659.38
2113.342	651.38
2117.401	634.38
2121.457	654.38
2125.509	645.38
2129.558	626.38
2133.602	646.38
2137.643	630.38
2141.681	632.38
2145.714	632.38
2149.744	631.38
2153.77	626.38
2157.793	620.38
2161.812	617.38
2165.827	613.38
2169.838	607.38
2173.846	580.38
2177.851	582.38
2181.851	579.38
2185.848	571.38
2189.841	572.38
2193.831	576.38
2197.817	552.38
2201.799	555.38
2205.778	557.38
2209.753	550.38
2213.725	548.38
2217.693	552.38
2221.657	543.38
2225.618	539.38
2229.575	553.38
2233.529	560.38
2237.479	539.38
2241.425	540.38
2245.368	536.38
2249.307	525.38
2253.243	519.38
2257.175	512.38
2261.104	502.38
2265.029	495.38
2268.95	504.38
2272.868	496.38
2276.783	485.38
2280.694	473.38
2284.601	467.38
2288.505	458.38
2292.405	465.38
2296.302	459.38
2300.195	455.38
2304.085	441.38
2307.971	435.38
2311.854	435.38
2315.734	416.38
2319.609	428.38
2323.482	416.38
2327.351	412.38
2331.216	407.38
2335.078	399.38
2338.937	405.38
2342.792	401.38
2346.643	392.38
2350.492	400.38
2354.336	393.38
2358.178	393.38
2362.015	403.38
2365.85	400.38
2369.681	393.38
2373.508	395.38
2377.333	390.38
2381.153	398.38
2384.971	392.38
2388.785	384.38
2392.595	377.38
2396.402	382.38
2400.206	390.38
2404.007	388.38
2407.804	381.38
2411.597	380.38
2415.388	374.38
2419.174	380.38
2422.958	375.38
2426.738	377.38
2430.515	373.38
2434.289	370.38
2438.059	375.38
2441.825	364.38
2445.589	362.38
2449.349	358.38
2453.106	354.38
2456.859	362.38
2460.61	358.38
2464.356	360.38
2468.1	343.38
2471.84	355.38
2475.577	347.38
2479.311	353.38
2483.041	352.38
2486.768	350.38
2490.492	352.38
2494.213	352.38
2497.93	348.38
2501.644	350.38
2505.355	345.38
2509.062	347.38
2512.766	342.38
2516.467	343.38
2520.165	343.38
2523.859	331.38
2527.551	327.38
2531.239	327.38
2534.923	325.38
2538.605	334.38
2542.283	326.38
2545.958	323.38
2549.63	319.38
2553.299	318.38
2556.964	322.38
2560.626	318.38
2564.285	303.38
2567.941	311.38
2571.594	313.38
2575.243	307.38
2578.89	302.38
2582.533	312.38
2586.173	295.38
2589.809	297.38
2593.443	301.38
2597.073	300.38
2600.701	296.38
2604.325	293.38
2607.946	282.38
2611.564	288.38
2615.178	293.38
2618.79	298.38
2622.398	285.38
2626.004	290.38
2629.606	288.38
2633.205	282.38
2636.801	276.38
2640.394	283.38
2643.983	271.38
2647.57	280.38
2651.153	267.38
2654.734	267.38
2658.311	271.38
2661.885	260.38
2665.456	262.38
2669.025	263.38
2672.589	257.38
2676.151	254.38
2679.71	246.38
2683.266	254.38
2686.819	258.38
2690.368	245.38
2693.915	244.38
2697.458	247.38
2700.999	236.38
2704.536	240.38
2708.071	237.38
2711.602	239.38
2715.13	226.38
2718.656	236.38
2722.178	232.38
2725.697	228.38
2729.214	229.38
2732.727	230.38
2736.237	236.38
2739.744	245.38
2743.249	237.38
2746.75	230.38
2750.248	233.38
2753.743	236.38
2757.236	231.38
2760.725	243.38
2764.211	231.38
2767.695	230.38
2771.175	218.38
2774.652	224.38
2778.127	227.38
2781.598	230.38
2785.067	223.38
2788.532	228.38
2791.995	220.38
2795.455	222.38
2798.911	225.38
2802.365	232.38
2805.816	236.38
2809.264	230.38
2812.709	231.38
2816.151	231.38
2819.59	234.38
2823.026	231.38
2826.46	241.38
2829.89	232.38
2833.318	232.38
2836.742	240.38
2840.164	235.38
2843.583	242.38
2846.999	236.38
2850.412	243.38
2853.822	247.38
2857.229	257.38
2860.634	252.38
2864.035	249.38
2867.434	258.38
2870.83	264.38
2874.223	262.38
2877.613	257.38
2881	263.38
2884.385	271.38
2887.766	266.38
2891.145	263.38
2894.521	265.38
2897.894	271.38
2901.264	264.38
2904.631	268.38
2907.996	287.38
2911.358	275.38
2914.717	278.38
2918.073	280.38
2921.426	292.38
2924.777	287.38
2928.124	301.38
2931.469	305.38
2934.811	299.38
2938.15	312.38
2941.487	313.38
2944.821	319.38
2948.152	330.38
2951.48	330.38
2954.805	342.38
2958.128	348.38
2961.447	328.38
2964.765	350.38
2968.079	353.38
2971.39	354.38
2974.699	366.38
2978.005	376.38
2981.308	384.38
2984.609	389.38
2987.907	403.38
2991.202	412.38
2994.494	418.38
2997.784	433.38
3001.07	455.38
3004.355	456.38
3007.636	466.38
3010.915	480.38
3014.191	490.38
3017.464	493.38
3020.734	493.38
3024.002	513.38
3027.267	519.38
3030.53	528.38
3033.789	538.38
3037.046	555.38
3040.301	571.38
3043.552	578.38
3046.801	590.38
3050.048	596.38
3053.291	620.38
3056.532	638.38
3059.771	655.38
3063.006	678.38
3066.239	686.38
3069.469	717.38
3072.697	730.38
3075.922	754.38
3079.144	773.38
3082.364	785.38
3085.581	804.38
3088.795	831.38
3092.007	841.38
3095.216	861.38
3098.423	868.38
3101.627	911.38
3104.828	923.38
3108.026	950.38
3111.222	961.38
3114.416	990.38
3117.607	1011.38
3120.795	1029.38
3123.98	1062.38
3127.163	1076.38
3130.344	1084.38
3133.521	1127.38
3136.696	1140.38
3139.869	1166.38
3143.039	1194.38
3146.206	1215.38
3149.371	1215.38
3152.533	1236.38
3155.693	1256.38
3158.85	1241.38
3162.005	1260.38
3165.157	1266.38
3168.306	1265.38
3171.453	1268.38
3174.597	1279.38
3177.739	1274.38
3180.878	1290.38
3184.014	1306.38
3187.149	1298.38
3190.28	1291.38
3193.409	1281.38
3196.536	1300.38
3199.659	1293.38
3202.781	1288.38
3205.9	1312.38
3209.016	1300.38
3212.13	1300.38
3215.241	1302.38
3218.35	1297.38
3221.456	1276.38
3224.56	1279.38
3227.661	1249.38
3230.76	1246.38
3233.856	1227.38
3236.95	1214.38
3240.041	1211.38
3243.13	1204.38
3246.216	1193.38
3249.3	1170.38
3252.382	1184.38
3255.46	1155.38
3258.537	1161.38
3261.611	1148.38
3264.682	1143.38
3267.751	1147.38
3270.818	1138.38
3273.882	1132.38
3276.943	1142.38
3280.002	1115.38
3283.059	1112.38
3286.113	1089.38
3289.165	1091.38
3292.214	1083.38
3295.261	1049.38
3298.306	1036.38
3301.348	1026.38
3304.387	1013.38
3307.425	994.38
3310.459	965.38
3313.492	967.38
3316.521	949.38
3319.549	932.38
3322.574	929.38
3325.597	914.38
3328.617	910.38
3331.635	923.38
3334.65	908.38
3337.663	906.38
3340.674	900.38
3343.682	895.38
3346.688	892.38
3349.691	877.38
3352.692	891.38
3355.691	885.38
3358.687	870.38
3361.681	869.38
3364.673	839.38
3367.662	845.38
3370.649	820.38
3373.633	823.38
3376.615	813.38
3379.595	809.38
3382.572	794.38
3385.547	789.38
3388.52	757.38
3391.49	761.38
3394.458	752.38
3397.424	731.38
3400.387	740.38
3403.348	724.38
3406.307	707.38
3409.263	704.38
3412.217	704.38
3415.168	696.38
3418.118	687.38
3421.065	689.38
3424.009	663.38
3426.951	668.38
3429.891	649.38
3432.829	630.38
3435.764	632.38
3438.697	620.38
3441.628	609.38
3444.557	588.38
3447.483	572.38
3450.407	561.38
3453.328	541.38
3456.247	535.38
3459.164	518.38
3462.079	504.38
3464.991	494.38
3467.902	472.38
3470.809	463.38
3473.715	448.38
3476.618	440.38
3479.519	420.38
3482.418	409.38
3485.315	395.38
3488.209	383.38
3491.101	378.38
3493.99	358.38
3496.878	361.38
3499.763	347.38
3502.646	335.38
3505.527	329.38
3508.405	321.38
3511.281	303.38
3514.155	289.38
3517.027	284.38
3519.897	267.38
3522.764	261.38
3525.629	250.38
3528.492	236.38
3531.352	227.38
3534.211	206.38
3537.067	206.38
3539.921	190.38
3542.773	191.38
3545.622	174.38
3548.469	168.38
3551.315	154.38
3554.157	150.38
3556.998	140.38
3559.837	130.38
3562.673	132.38
3565.507	120.38
3568.339	121.38
3571.169	114.38
3573.996	94.38
3576.822	96.38
3579.645	92.38
3582.466	83.38
3585.285	80.38
3588.101	73.38
3590.916	64.38
3593.728	68.38
3596.538	57.38
3599.346	54.38
3602.152	50.38
3604.956	48.38
3607.757	38.38
3610.556	43.38
3613.354	36.38
3616.149	30.38
3618.942	24.38
3621.732	23.38
3624.521	21.38
3627.307	20.38
3630.092	14.38
3632.874	13.38
3635.654	7.38
3638.432	5.38
3641.208	2.38
3643.982	1.38
3646.753	-3.62
3649.523	-2.62
3652.29	-1.62
3655.055	-11.62
3657.818	-9.62
3660.579	-14.62
3663.338	-19.62
3666.095	-16.62
3668.849	-21.62
3671.602	-23.62
3674.352	-27.62
3677.101	-26.62
3679.847	-31.62
3682.591	-33.62
3685.333	-33.62
3688.073	-36.62
3690.811	-36.62
3693.547	-34.62
3696.281	-35.62
3699.013	-40.62
3701.742	-40.62
3704.47	-42.62
3707.195	-41.62
3709.919	-45.62
3712.64	-49.62
3715.359	-41.62
3718.076	-47.62
3720.792	-51.62
3723.505	-51.62
3726.216	-50.62
3728.925	-49.62
3731.632	-52.62
3734.336	-54.62
3737.039	-57.62
3739.74	-50.62
3742.439	-50.62
3745.136	-55.62
3747.83	-57.62
3750.523	-55.62
3753.213	-57.62
3755.902	-60.62
3758.589	-59.62
3761.273	-59.62
3763.956	-55.62
3766.636	-56.62
3769.315	-56.62
3771.991	-62.62
3774.665	-62.62
3777.338	-60.62
3780.008	-64.62
3782.677	-64.62
3785.343	-65.62
3788.007	-62.62
3790.67	-61.62
3793.33	-62.62
3795.989	-66.62
3798.645	-65.62
3801.299	-64.62
3803.952	-64.62
3806.602	-65.62
3809.251	-63.62
3811.897	-66.62
3814.542	-66.62
3817.184	-62.62
3819.825	-68.62
3822.463	-63.62
3825.1	-68.62
3827.735	-68.62
3830.367	-72.62
3832.998	-65.62
3835.627	-67.62
3838.253	-66.62
3840.878	-69.62
3843.501	-64.62
3846.122	-73.62
3848.741	-72.62
3851.358	-74.62
3853.973	-66.62
3856.586	-66.62
3859.197	-70.62
3861.806	-70.62
3864.414	-71.62
3867.019	-70.62
3869.622	-63.62
3872.224	-70.62
3874.823	-72.62
3877.421	-68.62
3880.016	-70.62
3882.61	-65.62
3885.202	-62.62
3887.792	-63.62
3890.38	-63.62
3892.966	-69.62
3895.55	-73.62
3898.132	-73.62
3900.713	-76.62
3903.291	-75.62
3905.868	-69.62
3908.442	-72.62
3911.015	-74.62
3913.586	-75.62
3916.155	-71.62
3918.722	-76.62
3921.287	-74.62
3923.85	-75.62
3926.411	-73.62
3928.971	-71.62
3931.528	-74.62
3934.084	-78.62
3936.638	-77.62
3939.19	-75.62
3941.74	-76.62
3944.288	-75.62
3946.834	-73.62
3949.378	-72.62
3951.921	-72.62
3954.462	-75.62
3957	-70.62
3959.537	-75.62
3962.072	-73.62
3964.606	-76.62
3967.137	-76.62
3969.667	-73.62
3972.194	-74.62
3974.72	-75.62
3977.244	-71.62
3979.766	-74.62
3982.286	-71.62
3984.805	-77.62
3987.321	-75.62
3989.836	-74.62
3992.349	-74.62
3994.86	-69.62
3997.369	-67.62
3999.877	-71.62
4002.382	-73.62
4004.886	-73.62
4007.388	-73.62
4009.888	-69.62
4012.386	-69.62
4014.883	-71.62
4017.377	-76.62
4019.87	-74.62
4022.361	-72.62
4024.85	-74.62
4027.338	-75.62
4029.823	-68.62
4032.307	-67.62
4034.789	-69.62
4037.269	-71.62
4039.747	-76.62
4042.224	-77.62
4044.699	-74.62
4047.172	-74.62
4049.643	-73.62
4052.112	-73.62
4054.58	-71.62
4057.046	-70.62
4059.51	-72.62
4061.972	-69.62
4064.432	-70.62
4066.891	-74.62
4069.348	-75.62
4071.803	-75.62
4074.256	-74.62
4076.708	-78.62
4079.158	-72.62
4081.606	-71.62
4084.052	-75.62
4086.497	-73.62
4088.939	-77.62
4091.38	-79.62
4093.819	-75.62
4096.257	-75.62
4098.693	-75.62
4101.127	-79.62
4103.559	-79.62
4105.989	-23.62
4108.418	-19.62
4110.845	-15.62
4113.27	-14.62
4115.694	-12.62
4118.115	-9.62
4120.535	-74.62
4122.954	-74.62
4125.37	-73.62
4127.785	-73.62
4130.198	-70.62
4132.609	-79.62
4135.019	-80.62
4137.427	-77.62
4139.833	-75.62
4142.237	-74.62
