Data from 1000000CFU2_B_ramanshift_RamanShift_15-05-32-663.txt Node
Date: Sun Dec 25 15:05:32 IST 2016
User: aro
Spectrometer: QEPB0276
Trigger mode: 0
Integration Time (sec): 5.000000E0
Scans to average: 1
Electric dark correction enabled: true
Nonlinearity correction enabled: false
Boxcar width: 0
XAxis mode: Raman Shifts
Number of Pixels in Spectrum: 1044
>>>>>Begin Spectral Data<<<<<
160.701	2.38
166.742	16.38
172.777	68.38
178.805	222.38
184.826	633.38
190.841	1519.38
196.849	2814.38
202.85	4022.38
208.845	4640.38
214.833	4653.38
220.815	4480.38
226.789	4322.38
232.758	4205.38
238.719	4062.38
244.674	3957.38
250.623	3786.38
256.565	3602.38
262.5	3439.38
268.429	3301.38
274.351	3151.38
280.267	3021.38
286.176	2913.38
292.079	2820.38
297.975	2712.38
303.865	2598.38
309.748	2551.38
315.625	2439.38
321.495	2378.38
327.359	2339.38
333.217	2306.38
339.068	2286.38
344.912	2271.38
350.751	2236.38
356.583	2240.38
362.408	2234.38
368.227	2225.38
374.04	2250.38
379.847	2249.38
385.647	2252.38
391.44	2278.38
397.228	2286.38
403.009	2291.38
408.784	2313.38
414.553	2289.38
420.315	2317.38
426.071	2319.38
431.821	2328.38
437.565	2334.38
443.302	2336.38
449.033	2343.38
454.758	2328.38
460.477	2298.38
466.189	2298.38
471.896	2279.38
477.596	2279.38
483.29	2260.38
488.978	2265.38
494.66	2273.38
500.335	2243.38
506.005	2212.38
511.668	2182.38
517.325	2134.38
522.977	2100.38
528.622	2084.38
534.261	2057.38
539.894	2028.38
545.521	2010.38
551.141	2008.38
556.756	1987.38
562.365	1997.38
567.968	1966.38
573.565	1954.38
579.155	1958.38
584.74	1955.38
590.319	1913.38
595.892	1925.38
601.459	1899.38
607.02	1900.38
612.575	1875.38
618.124	1853.38
623.667	1837.38
629.204	1842.38
634.735	1818.38
640.261	1813.38
645.781	1793.38
651.294	1772.38
656.802	1780.38
662.304	1769.38
667.8	1754.38
673.29	1749.38
678.775	1743.38
684.254	1754.38
689.726	1731.38
695.193	1728.38
700.655	1721.38
706.11	1737.38
711.56	1698.38
717.004	1696.38
722.442	1690.38
727.874	1666.38
733.301	1671.38
738.722	1662.38
744.137	1660.38
749.547	1638.38
754.951	1633.38
760.349	1640.38
765.741	1638.38
771.128	1626.38
776.509	1637.38
781.885	1622.38
787.254	1635.38
792.618	1627.38
797.977	1621.38
803.33	1604.38
808.677	1605.38
814.019	1583.38
819.355	1565.38
824.686	1541.38
830.011	1542.38
835.33	1538.38
840.644	1505.38
845.952	1532.38
851.255	1521.38
856.552	1496.38
861.844	1501.38
867.13	1497.38
872.41	1472.38
877.686	1473.38
882.955	1466.38
888.219	1450.38
893.478	1432.38
898.731	1402.38
903.979	1401.38
909.221	1371.38
914.458	1361.38
919.69	1351.38
924.916	1334.38
930.136	1347.38
935.351	1359.38
940.561	1348.38
945.766	1338.38
950.965	1345.38
956.158	1334.38
961.347	1328.38
966.529	1289.38
971.707	1259.38
976.879	1265.38
982.046	1248.38
987.208	1251.38
992.364	1242.38
997.515	1244.38
1002.66	1232.38
1007.801	1245.38
1012.936	1274.38
1018.066	1262.38
1023.19	1289.38
1028.309	1287.38
1033.423	1295.38
1038.532	1286.38
1043.636	1267.38
1048.734	1288.38
1053.827	1252.38
1058.915	1240.38
1063.998	1229.38
1069.075	1230.38
1074.147	1244.38
1079.214	1240.38
1084.276	1240.38
1089.333	1244.38
1094.385	1244.38
1099.431	1272.38
1104.472	1272.38
1109.509	1258.38
1114.54	1253.38
1119.565	1251.38
1124.586	1227.38
1129.602	1219.38
1134.613	1208.38
1139.618	1193.38
1144.619	1194.38
1149.614	1218.38
1154.604	1210.38
1159.589	1215.38
1164.57	1206.38
1169.545	1217.38
1174.515	1226.38
1179.48	1234.38
1184.44	1212.38
1189.395	1220.38
1194.345	1207.38
1199.29	1199.38
1204.23	1198.38
1209.165	1201.38
1214.095	1206.38
1219.021	1222.38
1223.941	1223.38
1228.856	1228.38
1233.766	1229.38
1238.672	1258.38
1243.572	1246.38
1248.467	1231.38
1253.358	1241.38
1258.244	1222.38
1263.124	1193.38
1268	1201.38
1272.871	1161.38
1277.737	1169.38
1282.599	1151.38
1287.455	1157.38
1292.306	1165.38
1297.153	1173.38
1301.995	1173.38
1306.832	1191.38
1311.664	1178.38
1316.491	1191.38
1321.314	1196.38
1326.132	1172.38
1330.945	1184.38
1335.753	1166.38
1340.556	1150.38
1345.354	1149.38
1350.148	1121.38
1354.937	1135.38
1359.722	1128.38
1364.501	1108.38
1369.276	1105.38
1374.046	1100.38
1378.811	1075.38
1383.572	1080.38
1388.327	1074.38
1393.079	1069.38
1397.825	1091.38
1402.567	1060.38
1407.304	1045.38
1412.036	1065.38
1416.764	1044.38
1421.487	1048.38
1426.205	1064.38
1430.919	1059.38
1435.628	1066.38
1440.333	1080.38
1445.032	1068.38
1449.727	1091.38
1454.418	1105.38
1459.104	1108.38
1463.785	1108.38
1468.462	1093.38
1473.134	1092.38
1477.802	1082.38
1482.465	1077.38
1487.123	1055.38
1491.777	1066.38
1496.426	1080.38
1501.071	1063.38
1505.711	1077.38
1510.347	1090.38
1514.978	1096.38
1519.604	1111.38
1524.226	1112.38
1528.844	1113.38
1533.457	1112.38
1538.065	1110.38
1542.669	1098.38
1547.269	1101.38
1551.864	1104.38
1556.454	1117.38
1561.041	1111.38
1565.622	1124.38
1570.199	1151.38
1574.772	1142.38
1579.34	1175.38
1583.904	1201.38
1588.464	1216.38
1593.019	1237.38
1597.569	1249.38
1602.115	1267.38
1606.657	1269.38
1611.195	1281.38
1615.728	1283.38
1620.256	1292.38
1624.78	1313.38
1629.3	1329.38
1633.816	1345.38
1638.327	1377.38
1642.834	1381.38
1647.336	1395.38
1651.834	1424.38
1656.328	1400.38
1660.817	1416.38
1665.302	1397.38
1669.783	1360.38
1674.259	1350.38
1678.732	1288.38
1683.199	1264.38
1687.663	1236.38
1692.122	1208.38
1696.577	1166.38
1701.028	1117.38
1705.474	1058.38
1709.917	1023.38
1714.355	982.38
1718.788	983.38
1723.218	964.38
1727.643	947.38
1732.064	936.38
1736.481	923.38
1740.893	873.38
1745.301	866.38
1749.705	846.38
1754.105	827.38
1758.501	814.38
1762.893	795.38
1767.28	782.38
1771.663	774.38
1776.042	758.38
1780.417	772.38
1784.787	768.38
1789.154	769.38
1793.516	773.38
1797.874	757.38
1802.228	767.38
1806.578	752.38
1810.924	733.38
1815.266	730.38
1819.603	726.38
1823.937	712.38
1828.266	696.38
1832.591	703.38
1836.913	696.38
1841.23	695.38
1845.543	700.38
1849.852	691.38
1854.156	693.38
1858.457	703.38
1862.754	696.38
1867.047	710.38
1871.335	701.38
1875.62	704.38
1879.9	716.38
1884.177	714.38
1888.449	706.38
1892.718	696.38
1896.982	704.38
1901.243	696.38
1905.499	706.38
1909.752	698.38
1914	696.38
1918.245	688.38
1922.485	698.38
1926.722	689.38
1930.954	709.38
1935.183	699.38
1939.408	695.38
1943.628	703.38
1947.845	703.38
1952.058	697.38
1956.267	705.38
1960.472	691.38
1964.673	679.38
1968.87	678.38
1973.063	673.38
1977.252	672.38
1981.438	663.38
1985.619	672.38
1989.797	665.38
1993.971	669.38
1998.14	673.38
2002.306	667.38
2006.469	672.38
2010.627	670.38
2014.781	679.38
2018.932	674.38
2023.078	678.38
2027.221	670.38
2031.36	683.38
2035.495	667.38
2039.627	674.38
2043.754	653.38
2047.878	660.38
2051.998	657.38
2056.114	653.38
2060.226	662.38
2064.334	669.38
2068.439	680.38
2072.54	674.38
2076.637	670.38
2080.73	676.38
2084.82	662.38
2088.906	687.38
2092.988	682.38
2097.066	677.38
2101.14	686.38
2105.211	668.38
2109.278	666.38
2113.342	655.38
2117.401	658.38
2121.457	660.38
2125.509	648.38
2129.558	657.38
2133.602	649.38
2137.643	639.38
2141.681	646.38
2145.714	648.38
2149.744	632.38
2153.77	639.38
2157.793	636.38
2161.812	631.38
2165.827	624.38
2169.838	611.38
2173.846	610.38
2177.851	598.38
2181.851	595.38
2185.848	591.38
2189.841	585.38
2193.831	565.38
2197.817	574.38
2201.799	563.38
2205.778	565.38
2209.753	564.38
2213.725	563.38
2217.693	565.38
2221.657	566.38
2225.618	566.38
2229.575	552.38
2233.529	567.38
2237.479	551.38
2241.425	551.38
2245.368	540.38
2249.307	530.38
2253.243	525.38
2257.175	525.38
2261.104	514.38
2265.029	515.38
2268.95	510.38
2272.868	494.38
2276.783	492.38
2280.694	476.38
2284.601	479.38
2288.505	481.38
2292.405	474.38
2296.302	469.38
2300.195	458.38
2304.085	471.38
2307.971	443.38
2311.854	436.38
2315.734	430.38
2319.609	425.38
2323.482	430.38
2327.351	420.38
2331.216	412.38
2335.078	415.38
2338.937	410.38
2342.792	407.38
2346.643	399.38
2350.492	410.38
2354.336	409.38
2358.178	409.38
2362.015	401.38
2365.85	402.38
2369.681	398.38
2373.508	395.38
2377.333	401.38
2381.153	404.38
2384.971	407.38
2388.785	404.38
2392.595	403.38
2396.402	403.38
2400.206	390.38
2404.007	402.38
2407.804	391.38
2411.597	390.38
2415.388	388.38
2419.174	387.38
2422.958	396.38
2426.738	390.38
2430.515	391.38
2434.289	385.38
2438.059	386.38
2441.825	379.38
2445.589	382.38
2449.349	382.38
2453.106	373.38
2456.859	375.38
2460.61	377.38
2464.356	371.38
2468.1	368.38
2471.84	358.38
2475.577	357.38
2479.311	356.38
2483.041	353.38
2486.768	360.38
2490.492	367.38
2494.213	355.38
2497.93	356.38
2501.644	354.38
2505.355	350.38
2509.062	353.38
2512.766	353.38
2516.467	346.38
2520.165	353.38
2523.859	351.38
2527.551	343.38
2531.239	341.38
2534.923	341.38
2538.605	336.38
2542.283	334.38
2545.958	333.38
2549.63	343.38
2553.299	326.38
2556.964	329.38
2560.626	324.38
2564.285	330.38
2567.941	322.38
2571.594	325.38
2575.243	324.38
2578.89	305.38
2582.533	310.38
2586.173	312.38
2589.809	312.38
2593.443	307.38
2597.073	307.38
2600.701	303.38
2604.325	309.38
2607.946	298.38
2611.564	295.38
2615.178	301.38
2618.79	303.38
2622.398	304.38
2626.004	294.38
2629.606	299.38
2633.205	290.38
2636.801	294.38
2640.394	291.38
2643.983	290.38
2647.57	287.38
2651.153	276.38
2654.734	281.38
2658.311	268.38
2661.885	273.38
2665.456	273.38
2669.025	265.38
2672.589	263.38
2676.151	268.38
2679.71	261.38
2683.266	256.38
2686.819	259.38
2690.368	254.38
2693.915	255.38
2697.458	255.38
2700.999	265.38
2704.536	255.38
2708.071	248.38
2711.602	240.38
2715.13	241.38
2718.656	242.38
2722.178	242.38
2725.697	244.38
2729.214	238.38
2732.727	239.38
2736.237	248.38
2739.744	245.38
2743.249	245.38
2746.75	252.38
2750.248	239.38
2753.743	241.38
2757.236	238.38
2760.725	247.38
2764.211	247.38
2767.695	234.38
2771.175	233.38
2774.652	233.38
2778.127	224.38
2781.598	229.38
2785.067	235.38
2788.532	231.38
2791.995	233.38
2795.455	234.38
2798.911	237.38
2802.365	221.38
2805.816	238.38
2809.264	240.38
2812.709	238.38
2816.151	240.38
2819.59	243.38
2823.026	237.38
2826.46	240.38
2829.89	238.38
2833.318	235.38
2836.742	244.38
2840.164	244.38
2843.583	241.38
2846.999	249.38
2850.412	254.38
2853.822	255.38
2857.229	254.38
2860.634	262.38
2864.035	256.38
2867.434	258.38
2870.83	260.38
2874.223	274.38
2877.613	272.38
2881	284.38
2884.385	278.38
2887.766	273.38
2891.145	273.38
2894.521	270.38
2897.894	279.38
2901.264	278.38
2904.631	285.38
2907.996	294.38
2911.358	295.38
2914.717	280.38
2918.073	298.38
2921.426	290.38
2924.777	296.38
2928.124	306.38
2931.469	311.38
2934.811	313.38
2938.15	326.38
2941.487	323.38
2944.821	327.38
2948.152	333.38
2951.48	340.38
2954.805	329.38
2958.128	337.38
2961.447	342.38
2964.765	355.38
2968.079	365.38
2971.39	370.38
2974.699	375.38
2978.005	370.38
2981.308	388.38
2984.609	403.38
2987.907	407.38
2991.202	416.38
2994.494	434.38
2997.784	445.38
3001.07	456.38
3004.355	446.38
3007.636	472.38
3010.915	485.38
3014.191	481.38
3017.464	500.38
3020.734	502.38
3024.002	517.38
3027.267	524.38
3030.53	534.38
3033.789	527.38
3037.046	547.38
3040.301	556.38
3043.552	580.38
3046.801	581.38
3050.048	595.38
3053.291	618.38
3056.532	624.38
3059.771	658.38
3063.006	663.38
3066.239	683.38
3069.469	709.38
3072.697	732.38
3075.922	739.38
3079.144	769.38
3082.364	781.38
3085.581	792.38
3088.795	819.38
3092.007	837.38
3095.216	850.38
3098.423	873.38
3101.627	881.38
3104.828	906.38
3108.026	936.38
3111.222	946.38
3114.416	976.38
3117.607	981.38
3120.795	1014.38
3123.98	1028.38
3127.163	1056.38
3130.344	1070.38
3133.521	1103.38
3136.696	1129.38
3139.869	1150.38
3143.039	1162.38
3146.206	1187.38
3149.371	1203.38
3152.533	1223.38
3155.693	1219.38
3158.85	1242.38
3162.005	1236.38
3165.157	1245.38
3168.306	1247.38
3171.453	1245.38
3174.597	1262.38
3177.739	1271.38
3180.878	1262.38
3184.014	1274.38
3187.149	1276.38
3190.28	1259.38
3193.409	1272.38
3196.536	1261.38
3199.659	1286.38
3202.781	1288.38
3205.9	1290.38
3209.016	1276.38
3212.13	1284.38
3215.241	1293.38
3218.35	1271.38
3221.456	1278.38
3224.56	1254.38
3227.661	1232.38
3230.76	1221.38
3233.856	1222.38
3236.95	1203.38
3240.041	1194.38
3243.13	1174.38
3246.216	1180.38
3249.3	1154.38
3252.382	1155.38
3255.46	1153.38
3258.537	1143.38
3261.611	1130.38
3264.682	1124.38
3267.751	1130.38
3270.818	1133.38
3273.882	1121.38
3276.943	1128.38
3280.002	1099.38
3283.059	1086.38
3286.113	1079.38
3289.165	1067.38
3292.214	1044.38
3295.261	1045.38
3298.306	1022.38
3301.348	1009.38
3304.387	993.38
3307.425	980.38
3310.459	960.38
3313.492	956.38
3316.521	933.38
3319.549	933.38
3322.574	921.38
3325.597	929.38
3328.617	897.38
3331.635	898.38
3334.65	878.38
3337.663	901.38
3340.674	887.38
3343.682	879.38
3346.688	884.38
3349.691	892.38
3352.692	868.38
3355.691	872.38
3358.687	873.38
3361.681	861.38
3364.673	832.38
3367.662	839.38
3370.649	825.38
3373.633	827.38
3376.615	799.38
3379.595	791.38
3382.572	781.38
3385.547	762.38
3388.52	762.38
3391.49	748.38
3394.458	745.38
3397.424	725.38
3400.387	732.38
3403.348	712.38
3406.307	696.38
3409.263	699.38
3412.217	695.38
3415.168	683.38
3418.118	677.38
3421.065	671.38
3424.009	662.38
3426.951	655.38
3429.891	641.38
3432.829	627.38
3435.764	613.38
3438.697	608.38
3441.628	593.38
3444.557	581.38
3447.483	566.38
3450.407	555.38
3453.328	541.38
3456.247	527.38
3459.164	510.38
3462.079	507.38
3464.991	480.38
3467.902	463.38
3470.809	451.38
3473.715	433.38
3476.618	432.38
3479.519	419.38
3482.418	404.38
3485.315	395.38
3488.209	383.38
3491.101	375.38
3493.99	362.38
3496.878	355.38
3499.763	346.38
3502.646	334.38
3505.527	326.38
3508.405	312.38
3511.281	299.38
3514.155	276.38
3517.027	276.38
3519.897	260.38
3522.764	255.38
3525.629	252.38
3528.492	234.38
3531.352	229.38
3534.211	210.38
3537.067	195.38
3539.921	182.38
3542.773	183.38
3545.622	172.38
3548.469	163.38
3551.315	151.38
3554.157	141.38
3556.998	139.38
3559.837	132.38
3562.673	123.38
3565.507	115.38
3568.339	110.38
3571.169	111.38
3573.996	95.38
3576.822	95.38
3579.645	92.38
3582.466	92.38
3585.285	78.38
3588.101	73.38
3590.916	59.38
3593.728	65.38
3596.538	59.38
3599.346	53.38
3602.152	49.38
3604.956	49.38
3607.757	41.38
3610.556	40.38
3613.354	28.38
3616.149	23.38
3618.942	22.38
3621.732	27.38
3624.521	19.38
3627.307	19.38
3630.092	14.38
3632.874	16.38
3635.654	6.38
3638.432	8.38
3641.208	-1.62
3643.982	1.38
3646.753	-3.62
3649.523	-0.62
3652.29	-6.62
3655.055	-10.62
3657.818	-15.62
3660.579	-17.62
3663.338	-18.62
3666.095	-15.62
3668.849	-26.62
3671.602	-22.62
3674.352	-28.62
3677.101	-23.62
3679.847	-27.62
3682.591	-28.62
3685.333	-38.62
3688.073	-34.62
3690.811	-36.62
3693.547	-33.62
3696.281	-40.62
3699.013	-39.62
3701.742	-42.62
3704.47	-45.62
3707.195	-45.62
3709.919	-43.62
3712.64	-48.62
3715.359	-46.62
3718.076	-46.62
3720.792	-49.62
3723.505	-47.62
3726.216	-50.62
3728.925	-53.62
3731.632	-54.62
3734.336	-51.62
3737.039	-55.62
3739.74	-53.62
3742.439	-49.62
3745.136	-53.62
3747.83	-57.62
3750.523	-58.62
3753.213	-59.62
3755.902	-58.62
3758.589	-58.62
3761.273	-58.62
3763.956	-57.62
3766.636	-54.62
3769.315	-56.62
3771.991	-63.62
3774.665	-60.62
3777.338	-65.62
3780.008	-59.62
3782.677	-63.62
3785.343	-59.62
3788.007	-61.62
3790.67	-62.62
3793.33	-62.62
3795.989	-66.62
3798.645	-65.62
3801.299	-65.62
3803.952	-63.62
3806.602	-63.62
3809.251	-61.62
3811.897	-67.62
3814.542	-68.62
3817.184	-65.62
3819.825	-67.62
3822.463	-67.62
3825.1	-70.62
3827.735	-67.62
3830.367	-69.62
3832.998	-65.62
3835.627	-67.62
3838.253	-63.62
3840.878	-71.62
3843.501	-68.62
3846.122	-71.62
3848.741	-73.62
3851.358	-71.62
3853.973	-65.62
3856.586	-63.62
3859.197	-71.62
3861.806	-70.62
3864.414	-70.62
3867.019	-73.62
3869.622	-67.62
3872.224	-70.62
3874.823	-69.62
3877.421	-65.62
3880.016	-68.62
3882.61	-68.62
3885.202	-66.62
3887.792	-65.62
3890.38	-68.62
3892.966	-71.62
3895.55	-70.62
3898.132	-71.62
3900.713	-70.62
3903.291	-74.62
3905.868	-70.62
3908.442	-73.62
3911.015	-76.62
3913.586	-73.62
3916.155	-70.62
3918.722	-76.62
3921.287	-70.62
3923.85	-73.62
3926.411	-73.62
3928.971	-74.62
3931.528	-74.62
3934.084	-76.62
3936.638	-77.62
3939.19	-74.62
3941.74	-72.62
3944.288	-76.62
3946.834	-72.62
3949.378	-72.62
3951.921	-73.62
3954.462	-78.62
3957	-73.62
3959.537	-75.62
3962.072	-71.62
3964.606	-71.62
3967.137	-73.62
3969.667	-71.62
3972.194	-75.62
3974.72	-77.62
3977.244	-73.62
3979.766	-75.62
3982.286	-69.62
3984.805	-75.62
3987.321	-71.62
3989.836	-72.62
3992.349	-73.62
3994.86	-69.62
3997.369	-69.62
3999.877	-76.62
4002.382	-72.62
4004.886	-73.62
4007.388	-73.62
4009.888	-70.62
4012.386	-69.62
4014.883	-73.62
4017.377	-75.62
4019.87	-76.62
4022.361	-73.62
4024.85	-73.62
4027.338	-71.62
4029.823	-67.62
4032.307	-68.62
4034.789	-72.62
4037.269	-71.62
4039.747	-79.62
4042.224	-79.62
4044.699	-73.62
4047.172	-74.62
4049.643	-71.62
4052.112	-71.62
4054.58	-75.62
4057.046	-74.62
4059.51	-78.62
4061.972	-73.62
4064.432	-73.62
4066.891	-74.62
4069.348	-73.62
4071.803	-72.62
4074.256	-75.62
4076.708	-76.62
4079.158	-73.62
4081.606	-69.62
4084.052	-77.62
4086.497	-77.62
4088.939	-75.62
4091.38	-77.62
4093.819	-72.62
4096.257	-75.62
4098.693	-75.62
4101.127	-79.62
4103.559	-79.62
4105.989	-29.62
4108.418	-20.62
4110.845	-20.62
4113.27	-17.62
4115.694	-10.62
4118.115	-10.62
4120.535	-75.62
4122.954	-71.62
4125.37	-74.62
4127.785	-76.62
4130.198	-76.62
4132.609	-77.62
4135.019	-79.62
4137.427	-76.62
4139.833	-76.62
4142.237	-76.62
