Data from 10000CFU1_A_ramanshift_RamanShift_14-14-15-485.txt Node
Date: Sun Dec 25 14:14:15 IST 2016
User: aro
Spectrometer: QEPB0276
Trigger mode: 0
Integration Time (sec): 5.000000E0
Scans to average: 1
Electric dark correction enabled: true
Nonlinearity correction enabled: false
Boxcar width: 0
XAxis mode: Raman Shifts
Number of Pixels in Spectrum: 1044
>>>>>Begin Spectral Data<<<<<
160.701	3.38
166.742	22.38
172.777	64.38
178.805	206.38
184.826	613.38
190.841	1485.38
196.849	2736.38
202.85	3934.38
208.845	4533.38
214.833	4561.38
220.815	4352.38
226.789	4232.38
232.758	4142.38
238.719	4004.38
244.674	3889.38
250.623	3753.38
256.565	3589.38
262.5	3429.38
268.429	3286.38
274.351	3177.38
280.267	3027.38
286.176	2932.38
292.079	2819.38
297.975	2733.38
303.865	2662.38
309.748	2570.38
315.625	2507.38
321.495	2438.38
327.359	2405.38
333.217	2367.38
339.068	2351.38
344.912	2329.38
350.751	2307.38
356.583	2295.38
362.408	2280.38
368.227	2298.38
374.04	2308.38
379.847	2322.38
385.647	2317.38
391.44	2321.38
397.228	2357.38
403.009	2350.38
408.784	2362.38
414.553	2381.38
420.315	2361.38
426.071	2396.38
431.821	2394.38
437.565	2389.38
443.302	2383.38
449.033	2389.38
454.758	2386.38
460.477	2396.38
466.189	2387.38
471.896	2350.38
477.596	2348.38
483.29	2333.38
488.978	2345.38
494.66	2332.38
500.335	2310.38
506.005	2288.38
511.668	2246.38
517.325	2213.38
522.977	2189.38
528.622	2170.38
534.261	2135.38
539.894	2104.38
545.521	2117.38
551.141	2076.38
556.756	2075.38
562.365	2073.38
567.968	2068.38
573.565	2062.38
579.155	2035.38
584.74	2025.38
590.319	2015.38
595.892	1999.38
601.459	1991.38
607.02	1983.38
612.575	1990.38
618.124	1941.38
623.667	1935.38
629.204	1932.38
634.735	1904.38
640.261	1889.38
645.781	1916.38
651.294	1876.38
656.802	1891.38
662.304	1870.38
667.8	1841.38
673.29	1846.38
678.775	1836.38
684.254	1836.38
689.726	1837.38
695.193	1820.38
700.655	1829.38
706.11	1810.38
711.56	1799.38
717.004	1776.38
722.442	1778.38
727.874	1774.38
733.301	1763.38
738.722	1757.38
744.137	1760.38
749.547	1747.38
754.951	1728.38
760.349	1729.38
765.741	1728.38
771.128	1724.38
776.509	1755.38
781.885	1738.38
787.254	1739.38
792.618	1743.38
797.977	1726.38
803.33	1723.38
808.677	1703.38
814.019	1687.38
819.355	1668.38
824.686	1663.38
830.011	1647.38
835.33	1632.38
840.644	1639.38
845.952	1655.38
851.255	1635.38
856.552	1613.38
861.844	1620.38
867.13	1617.38
872.41	1611.38
877.686	1606.38
882.955	1594.38
888.219	1570.38
893.478	1568.38
898.731	1527.38
903.979	1517.38
909.221	1500.38
914.458	1474.38
919.69	1465.38
924.916	1475.38
930.136	1483.38
935.351	1474.38
940.561	1449.38
945.766	1482.38
950.965	1464.38
956.158	1460.38
961.347	1451.38
966.529	1437.38
971.707	1406.38
976.879	1393.38
982.046	1382.38
987.208	1384.38
992.364	1356.38
997.515	1363.38
1002.66	1371.38
1007.801	1388.38
1012.936	1390.38
1018.066	1408.38
1023.19	1427.38
1028.309	1430.38
1033.423	1429.38
1038.532	1431.38
1043.636	1396.38
1048.734	1406.38
1053.827	1394.38
1058.915	1394.38
1063.998	1380.38
1069.075	1363.38
1074.147	1354.38
1079.214	1368.38
1084.276	1378.38
1089.333	1379.38
1094.385	1405.38
1099.431	1406.38
1104.472	1411.38
1109.509	1390.38
1114.54	1376.38
1119.565	1388.38
1124.586	1374.38
1129.602	1360.38
1134.613	1326.38
1139.618	1325.38
1144.619	1330.38
1149.614	1330.38
1154.604	1338.38
1159.589	1356.38
1164.57	1351.38
1169.545	1356.38
1174.515	1377.38
1179.48	1373.38
1184.44	1367.38
1189.395	1359.38
1194.345	1354.38
1199.29	1323.38
1204.23	1335.38
1209.165	1340.38
1214.095	1343.38
1219.021	1347.38
1223.941	1373.38
1228.856	1395.38
1233.766	1398.38
1238.672	1375.38
1243.572	1372.38
1248.467	1373.38
1253.358	1373.38
1258.244	1361.38
1263.124	1341.38
1268	1321.38
1272.871	1294.38
1277.737	1293.38
1282.599	1289.38
1287.455	1301.38
1292.306	1284.38
1297.153	1301.38
1301.995	1329.38
1306.832	1310.38
1311.664	1331.38
1316.491	1337.38
1321.314	1326.38
1326.132	1319.38
1330.945	1308.38
1335.753	1314.38
1340.556	1280.38
1345.354	1282.38
1350.148	1255.38
1354.937	1255.38
1359.722	1244.38
1364.501	1236.38
1369.276	1212.38
1374.046	1206.38
1378.811	1208.38
1383.572	1191.38
1388.327	1190.38
1393.079	1207.38
1397.825	1190.38
1402.567	1195.38
1407.304	1174.38
1412.036	1173.38
1416.764	1185.38
1421.487	1160.38
1426.205	1182.38
1430.919	1189.38
1435.628	1206.38
1440.333	1199.38
1445.032	1216.38
1449.727	1240.38
1454.418	1257.38
1459.104	1247.38
1463.785	1243.38
1468.462	1234.38
1473.134	1229.38
1477.802	1197.38
1482.465	1190.38
1487.123	1181.38
1491.777	1206.38
1496.426	1189.38
1501.071	1182.38
1505.711	1201.38
1510.347	1213.38
1514.978	1225.38
1519.604	1235.38
1524.226	1241.38
1528.844	1226.38
1533.457	1241.38
1538.065	1227.38
1542.669	1242.38
1547.269	1223.38
1551.864	1248.38
1556.454	1228.38
1561.041	1257.38
1565.622	1259.38
1570.199	1245.38
1574.772	1276.38
1579.34	1302.38
1583.904	1312.38
1588.464	1326.38
1593.019	1343.38
1597.569	1381.38
1602.115	1385.38
1606.657	1375.38
1611.195	1381.38
1615.728	1390.38
1620.256	1400.38
1624.78	1415.38
1629.3	1442.38
1633.816	1462.38
1638.327	1467.38
1642.834	1494.38
1647.336	1495.38
1651.834	1513.38
1656.328	1528.38
1660.817	1513.38
1665.302	1483.38
1669.783	1480.38
1674.259	1448.38
1678.732	1405.38
1683.199	1378.38
1687.663	1333.38
1692.122	1315.38
1696.577	1264.38
1701.028	1206.38
1705.474	1164.38
1709.917	1128.38
1714.355	1116.38
1718.788	1087.38
1723.218	1086.38
1727.643	1069.38
1732.064	1070.38
1736.481	1034.38
1740.893	1011.38
1745.301	993.38
1749.705	974.38
1754.105	951.38
1758.501	951.38
1762.893	917.38
1767.28	901.38
1771.663	900.38
1776.042	886.38
1780.417	878.38
1784.787	881.38
1789.154	889.38
1793.516	897.38
1797.874	891.38
1802.228	889.38
1806.578	873.38
1810.924	855.38
1815.266	851.38
1819.603	849.38
1823.937	837.38
1828.266	839.38
1832.591	831.38
1836.913	827.38
1841.23	810.38
1845.543	825.38
1849.852	815.38
1854.156	828.38
1858.457	823.38
1862.754	828.38
1867.047	846.38
1871.335	841.38
1875.62	836.38
1879.9	839.38
1884.177	841.38
1888.449	821.38
1892.718	838.38
1896.982	828.38
1901.243	815.38
1905.499	818.38
1909.752	836.38
1914	826.38
1918.245	812.38
1922.485	826.38
1926.722	808.38
1930.954	815.38
1935.183	829.38
1939.408	831.38
1943.628	826.38
1947.845	820.38
1952.058	825.38
1956.267	823.38
1960.472	818.38
1964.673	814.38
1968.87	806.38
1973.063	792.38
1977.252	790.38
1981.438	777.38
1985.619	786.38
1989.797	780.38
1993.971	771.38
1998.14	796.38
2002.306	776.38
2006.469	789.38
2010.627	776.38
2014.781	789.38
2018.932	797.38
2023.078	801.38
2027.221	786.38
2031.36	794.38
2035.495	784.38
2039.627	766.38
2043.754	780.38
2047.878	773.38
2051.998	770.38
2056.114	756.38
2060.226	771.38
2064.334	781.38
2068.439	778.38
2072.54	783.38
2076.637	785.38
2080.73	785.38
2084.82	791.38
2088.906	794.38
2092.988	781.38
2097.066	789.38
2101.14	779.38
2105.211	784.38
2109.278	784.38
2113.342	768.38
2117.401	770.38
2121.457	763.38
2125.509	755.38
2129.558	756.38
2133.602	759.38
2137.643	756.38
2141.681	737.38
2145.714	754.38
2149.744	745.38
2153.77	743.38
2157.793	742.38
2161.812	737.38
2165.827	727.38
2169.838	711.38
2173.846	716.38
2177.851	699.38
2181.851	700.38
2185.848	686.38
2189.841	682.38
2193.831	674.38
2197.817	669.38
2201.799	667.38
2205.778	661.38
2209.753	663.38
2213.725	656.38
2217.693	655.38
2221.657	673.38
2225.618	668.38
2229.575	647.38
2233.529	656.38
2237.479	649.38
2241.425	650.38
2245.368	642.38
2249.307	630.38
2253.243	628.38
2257.175	618.38
2261.104	615.38
2265.029	604.38
2268.95	605.38
2272.868	600.38
2276.783	588.38
2280.694	576.38
2284.601	578.38
2288.505	565.38
2292.405	577.38
2296.302	567.38
2300.195	551.38
2304.085	539.38
2307.971	537.38
2311.854	525.38
2315.734	524.38
2319.609	528.38
2323.482	513.38
2327.351	518.38
2331.216	512.38
2335.078	499.38
2338.937	503.38
2342.792	503.38
2346.643	486.38
2350.492	497.38
2354.336	502.38
2358.178	493.38
2362.015	493.38
2365.85	490.38
2369.681	495.38
2373.508	496.38
2377.333	503.38
2381.153	495.38
2384.971	499.38
2388.785	500.38
2392.595	492.38
2396.402	495.38
2400.206	483.38
2404.007	485.38
2407.804	479.38
2411.597	485.38
2415.388	471.38
2419.174	488.38
2422.958	476.38
2426.738	482.38
2430.515	476.38
2434.289	472.38
2438.059	470.38
2441.825	465.38
2445.589	465.38
2449.349	459.38
2453.106	454.38
2456.859	453.38
2460.61	455.38
2464.356	452.38
2468.1	437.38
2471.84	433.38
2475.577	430.38
2479.311	445.38
2483.041	435.38
2486.768	447.38
2490.492	447.38
2494.213	434.38
2497.93	439.38
2501.644	436.38
2505.355	436.38
2509.062	435.38
2512.766	432.38
2516.467	439.38
2520.165	430.38
2523.859	433.38
2527.551	424.38
2531.239	419.38
2534.923	423.38
2538.605	410.38
2542.283	424.38
2545.958	400.38
2549.63	404.38
2553.299	402.38
2556.964	401.38
2560.626	399.38
2564.285	390.38
2567.941	390.38
2571.594	389.38
2575.243	390.38
2578.89	386.38
2582.533	392.38
2586.173	387.38
2589.809	387.38
2593.443	379.38
2597.073	377.38
2600.701	374.38
2604.325	365.38
2607.946	379.38
2611.564	374.38
2615.178	369.38
2618.79	368.38
2622.398	378.38
2626.004	375.38
2629.606	361.38
2633.205	365.38
2636.801	362.38
2640.394	357.38
2643.983	349.38
2647.57	352.38
2651.153	343.38
2654.734	337.38
2658.311	336.38
2661.885	331.38
2665.456	334.38
2669.025	331.38
2672.589	325.38
2676.151	325.38
2679.71	325.38
2683.266	327.38
2686.819	320.38
2690.368	321.38
2693.915	313.38
2697.458	309.38
2700.999	313.38
2704.536	308.38
2708.071	309.38
2711.602	310.38
2715.13	303.38
2718.656	308.38
2722.178	296.38
2725.697	295.38
2729.214	292.38
2732.727	300.38
2736.237	294.38
2739.744	303.38
2743.249	294.38
2746.75	296.38
2750.248	294.38
2753.743	297.38
2757.236	289.38
2760.725	295.38
2764.211	286.38
2767.695	289.38
2771.175	283.38
2774.652	288.38
2778.127	280.38
2781.598	281.38
2785.067	279.38
2788.532	279.38
2791.995	291.38
2795.455	283.38
2798.911	276.38
2802.365	285.38
2805.816	276.38
2809.264	287.38
2812.709	284.38
2816.151	279.38
2819.59	284.38
2823.026	282.38
2826.46	277.38
2829.89	290.38
2833.318	300.38
2836.742	283.38
2840.164	288.38
2843.583	284.38
2846.999	290.38
2850.412	280.38
2853.822	293.38
2857.229	293.38
2860.634	294.38
2864.035	291.38
2867.434	300.38
2870.83	308.38
2874.223	305.38
2877.613	306.38
2881	313.38
2884.385	304.38
2887.766	309.38
2891.145	308.38
2894.521	300.38
2897.894	308.38
2901.264	318.38
2904.631	312.38
2907.996	325.38
2911.358	307.38
2914.717	305.38
2918.073	313.38
2921.426	314.38
2924.777	328.38
2928.124	328.38
2931.469	341.38
2934.811	332.38
2938.15	339.38
2941.487	339.38
2944.821	347.38
2948.152	356.38
2951.48	356.38
2954.805	359.38
2958.128	371.38
2961.447	367.38
2964.765	372.38
2968.079	372.38
2971.39	381.38
2974.699	393.38
2978.005	394.38
2981.308	402.38
2984.609	411.38
2987.907	408.38
2991.202	423.38
2994.494	431.38
2997.784	451.38
3001.07	443.38
3004.355	461.38
3007.636	474.38
3010.915	474.38
3014.191	489.38
3017.464	507.38
3020.734	496.38
3024.002	514.38
3027.267	517.38
3030.53	525.38
3033.789	537.38
3037.046	542.38
3040.301	553.38
3043.552	560.38
3046.801	571.38
3050.048	591.38
3053.291	598.38
3056.532	601.38
3059.771	630.38
3063.006	659.38
3066.239	669.38
3069.469	687.38
3072.697	708.38
3075.922	720.38
3079.144	741.38
3082.364	754.38
3085.581	765.38
3088.795	805.38
3092.007	803.38
3095.216	828.38
3098.423	838.38
3101.627	862.38
3104.828	868.38
3108.026	886.38
3111.222	898.38
3114.416	916.38
3117.607	939.38
3120.795	961.38
3123.98	976.38
3127.163	996.38
3130.344	1024.38
3133.521	1040.38
3136.696	1056.38
3139.869	1084.38
3143.039	1110.38
3146.206	1104.38
3149.371	1147.38
3152.533	1136.38
3155.693	1167.38
3158.85	1150.38
3162.005	1170.38
3165.157	1162.38
3168.306	1164.38
3171.453	1170.38
3174.597	1188.38
3177.739	1177.38
3180.878	1186.38
3184.014	1192.38
3187.149	1174.38
3190.28	1182.38
3193.409	1197.38
3196.536	1208.38
3199.659	1210.38
3202.781	1209.38
3205.9	1216.38
3209.016	1205.38
3212.13	1208.38
3215.241	1202.38
3218.35	1192.38
3221.456	1175.38
3224.56	1184.38
3227.661	1161.38
3230.76	1151.38
3233.856	1144.38
3236.95	1125.38
3240.041	1120.38
3243.13	1109.38
3246.216	1105.38
3249.3	1094.38
3252.382	1085.38
3255.46	1081.38
3258.537	1076.38
3261.611	1052.38
3264.682	1062.38
3267.751	1061.38
3270.818	1049.38
3273.882	1047.38
3276.943	1028.38
3280.002	1037.38
3283.059	1036.38
3286.113	1020.38
3289.165	995.38
3292.214	987.38
3295.261	973.38
3298.306	954.38
3301.348	953.38
3304.387	932.38
3307.425	923.38
3310.459	892.38
3313.492	897.38
3316.521	892.38
3319.549	880.38
3322.574	864.38
3325.597	860.38
3328.617	860.38
3331.635	853.38
3334.65	842.38
3337.663	847.38
3340.674	842.38
3343.682	839.38
3346.688	825.38
3349.691	821.38
3352.692	828.38
3355.691	818.38
3358.687	807.38
3361.681	805.38
3364.673	795.38
3367.662	771.38
3370.649	773.38
3373.633	763.38
3376.615	750.38
3379.595	737.38
3382.572	729.38
3385.547	725.38
3388.52	715.38
3391.49	698.38
3394.458	693.38
3397.424	676.38
3400.387	685.38
3403.348	673.38
3406.307	655.38
3409.263	658.38
3412.217	654.38
3415.168	639.38
3418.118	637.38
3421.065	645.38
3424.009	622.38
3426.951	618.38
3429.891	601.38
3432.829	590.38
3435.764	594.38
3438.697	580.38
3441.628	563.38
3444.557	548.38
3447.483	534.38
3450.407	516.38
3453.328	508.38
3456.247	489.38
3459.164	485.38
3462.079	471.38
3464.991	449.38
3467.902	437.38
3470.809	433.38
3473.715	406.38
3476.618	404.38
3479.519	394.38
3482.418	380.38
3485.315	380.38
3488.209	367.38
3491.101	351.38
3493.99	342.38
3496.878	333.38
3499.763	329.38
3502.646	309.38
3505.527	304.38
3508.405	289.38
3511.281	278.38
3514.155	269.38
3517.027	260.38
3519.897	241.38
3522.764	247.38
3525.629	232.38
3528.492	219.38
3531.352	207.38
3534.211	195.38
3537.067	189.38
3539.921	180.38
3542.773	173.38
3545.622	157.38
3548.469	151.38
3551.315	149.38
3554.157	139.38
3556.998	128.38
3559.837	123.38
3562.673	120.38
3565.507	120.38
3568.339	112.38
3571.169	109.38
3573.996	94.38
3576.822	92.38
3579.645	91.38
3582.466	81.38
3585.285	81.38
3588.101	68.38
3590.916	63.38
3593.728	61.38
3596.538	60.38
3599.346	50.38
3602.152	50.38
3604.956	43.38
3607.757	40.38
3610.556	33.38
3613.354	34.38
3616.149	28.38
3618.942	26.38
3621.732	26.38
3624.521	22.38
3627.307	16.38
3630.092	16.38
3632.874	16.38
3635.654	6.38
3638.432	8.38
3641.208	6.38
3643.982	12.38
3646.753	1.38
3649.523	1.38
3652.29	-5.62
3655.055	-12.62
3657.818	-9.62
3660.579	-13.62
3663.338	-16.62
3666.095	-10.62
3668.849	-17.62
3671.602	-20.62
3674.352	-25.62
3677.101	-30.62
3679.847	-27.62
3682.591	-26.62
3685.333	-29.62
3688.073	-26.62
3690.811	-33.62
3693.547	-30.62
3696.281	-40.62
3699.013	-39.62
3701.742	-38.62
3704.47	-39.62
3707.195	-36.62
3709.919	-39.62
3712.64	-43.62
3715.359	-44.62
3718.076	-45.62
3720.792	-46.62
3723.505	-47.62
3726.216	-50.62
3728.925	-48.62
3731.632	-50.62
3734.336	-44.62
3737.039	-49.62
3739.74	-48.62
3742.439	-46.62
3745.136	-50.62
3747.83	-50.62
3750.523	-54.62
3753.213	-54.62
3755.902	-53.62
3758.589	-50.62
3761.273	-53.62
3763.956	-53.62
3766.636	-52.62
3769.315	-57.62
3771.991	-60.62
3774.665	-61.62
3777.338	-57.62
3780.008	-55.62
3782.677	-56.62
3785.343	-54.62
3788.007	-57.62
3790.67	-57.62
3793.33	-59.62
3795.989	-63.62
3798.645	-59.62
3801.299	-59.62
3803.952	-59.62
3806.602	-60.62
3809.251	-58.62
3811.897	-63.62
3814.542	-63.62
3817.184	-60.62
3819.825	-63.62
3822.463	-64.62
3825.1	-66.62
3827.735	-60.62
3830.367	-64.62
3832.998	-64.62
3835.627	-65.62
3838.253	-65.62
3840.878	-69.62
3843.501	-64.62
3846.122	-64.62
3848.741	-70.62
3851.358	-65.62
3853.973	-61.62
3856.586	-63.62
3859.197	-66.62
3861.806	-66.62
3864.414	-72.62
3867.019	-70.62
3869.622	-63.62
3872.224	-64.62
3874.823	-65.62
3877.421	-62.62
3880.016	-67.62
3882.61	-63.62
3885.202	-63.62
3887.792	-61.62
3890.38	-61.62
3892.966	-65.62
3895.55	-67.62
3898.132	-68.62
3900.713	-68.62
3903.291	-68.62
3905.868	-65.62
3908.442	-71.62
3911.015	-71.62
3913.586	-69.62
3916.155	-65.62
3918.722	-67.62
3921.287	-66.62
3923.85	-67.62
3926.411	-68.62
3928.971	-69.62
3931.528	-70.62
3934.084	-70.62
3936.638	-74.62
3939.19	-71.62
3941.74	-71.62
3944.288	-68.62
3946.834	-67.62
3949.378	-71.62
3951.921	-67.62
3954.462	-69.62
3957	-71.62
3959.537	-69.62
3962.072	-70.62
3964.606	-69.62
3967.137	-70.62
3969.667	-69.62
3972.194	-70.62
3974.72	-71.62
3977.244	-68.62
3979.766	-73.62
3982.286	-67.62
3984.805	-71.62
3987.321	-72.62
3989.836	-69.62
3992.349	-69.62
3994.86	-65.62
3997.369	-63.62
3999.877	-68.62
4002.382	-70.62
4004.886	-69.62
4007.388	-71.62
4009.888	-66.62
4012.386	-63.62
4014.883	-68.62
4017.377	-69.62
4019.87	-66.62
4022.361	-68.62
4024.85	-67.62
4027.338	-66.62
4029.823	-66.62
4032.307	-66.62
4034.789	-66.62
4037.269	-70.62
4039.747	-70.62
4042.224	-71.62
4044.699	-66.62
4047.172	-71.62
4049.643	-68.62
4052.112	-71.62
4054.58	-69.62
4057.046	-68.62
4059.51	-71.62
4061.972	-64.62
4064.432	-67.62
4066.891	-68.62
4069.348	-71.62
4071.803	-68.62
4074.256	-72.62
4076.708	-71.62
4079.158	-68.62
4081.606	-64.62
4084.052	-68.62
4086.497	-71.62
4088.939	-69.62
4091.38	-71.62
4093.819	-71.62
4096.257	-73.62
4098.693	-75.62
4101.127	-74.62
4103.559	-73.62
4105.989	-19.62
4108.418	-17.62
4110.845	-12.62
4113.27	-13.62
4115.694	-12.62
4118.115	-7.62
4120.535	-71.62
4122.954	-66.62
4125.37	-67.62
4127.785	-67.62
4130.198	-68.62
4132.609	-72.62
4135.019	-76.62
4137.427	-73.62
4139.833	-72.62
4142.237	-73.62
