Data from 10000000CFU1_FROM15TH_ramanshift_RamanShift_13-45-40-648.txt Node
Date: Sun Dec 25 13:45:40 IST 2016
User: aro
Spectrometer: QEPB0276
Trigger mode: 0
Integration Time (sec): 5.000000E0
Scans to average: 1
Electric dark correction enabled: true
Nonlinearity correction enabled: false
Boxcar width: 0
XAxis mode: Raman Shifts
Number of Pixels in Spectrum: 1044
>>>>>Begin Spectral Data<<<<<
160.701	2.88
166.742	21.88
172.777	66.88
178.805	204.88
184.826	609.88
190.841	1435.88
196.849	2656.88
202.85	3783.88
208.845	4364.88
214.833	4404.88
220.815	4235.88
226.789	4075.88
232.758	3974.88
238.719	3887.88
244.674	3768.88
250.623	3655.88
256.565	3509.88
262.5	3354.88
268.429	3198.88
274.351	3090.88
280.267	2973.88
286.176	2879.88
292.079	2774.88
297.975	2683.88
303.865	2627.88
309.748	2545.88
315.625	2505.88
321.495	2427.88
327.359	2395.88
333.217	2385.88
339.068	2341.88
344.912	2324.88
350.751	2319.88
356.583	2301.88
362.408	2299.88
368.227	2294.88
374.04	2291.88
379.847	2323.88
385.647	2306.88
391.44	2333.88
397.228	2342.88
403.009	2365.88
408.784	2355.88
414.553	2383.88
420.315	2365.88
426.071	2378.88
431.821	2400.88
437.565	2397.88
443.302	2393.88
449.033	2376.88
454.758	2388.88
460.477	2374.88
466.189	2377.88
471.896	2351.88
477.596	2369.88
483.29	2341.88
488.978	2329.88
494.66	2319.88
500.335	2321.88
506.005	2299.88
511.668	2248.88
517.325	2218.88
522.977	2194.88
528.622	2169.88
534.261	2157.88
539.894	2143.88
545.521	2112.88
551.141	2093.88
556.756	2089.88
562.365	2091.88
567.968	2077.88
573.565	2059.88
579.155	2067.88
584.74	2033.88
590.319	2029.88
595.892	2037.88
601.459	2014.88
607.02	2007.88
612.575	2008.88
618.124	1960.88
623.667	1957.88
629.204	1957.88
634.735	1915.88
640.261	1925.88
645.781	1919.88
651.294	1908.88
656.802	1892.88
662.304	1889.88
667.8	1871.88
673.29	1883.88
678.775	1870.88
684.254	1867.88
689.726	1877.88
695.193	1871.88
700.655	1831.88
706.11	1831.88
711.56	1834.88
717.004	1803.88
722.442	1815.88
727.874	1808.88
733.301	1804.88
738.722	1802.88
744.137	1775.88
749.547	1761.88
754.951	1778.88
760.349	1756.88
765.741	1743.88
771.128	1776.88
776.509	1783.88
781.885	1778.88
787.254	1780.88
792.618	1778.88
797.977	1771.88
803.33	1769.88
808.677	1739.88
814.019	1733.88
819.355	1716.88
824.686	1695.88
830.011	1694.88
835.33	1697.88
840.644	1696.88
845.952	1678.88
851.255	1669.88
856.552	1673.88
861.844	1656.88
867.13	1651.88
872.41	1662.88
877.686	1652.88
882.955	1640.88
888.219	1622.88
893.478	1599.88
898.731	1563.88
903.979	1563.88
909.221	1551.88
914.458	1519.88
919.69	1533.88
924.916	1518.88
930.136	1519.88
935.351	1522.88
940.561	1524.88
945.766	1525.88
950.965	1508.88
956.158	1499.88
961.347	1502.88
966.529	1490.88
971.707	1459.88
976.879	1454.88
982.046	1435.88
987.208	1413.88
992.364	1406.88
997.515	1420.88
1002.66	1412.88
1007.801	1428.88
1012.936	1441.88
1018.066	1451.88
1023.19	1472.88
1028.309	1483.88
1033.423	1476.88
1038.532	1472.88
1043.636	1467.88
1048.734	1460.88
1053.827	1443.88
1058.915	1436.88
1063.998	1424.88
1069.075	1408.88
1074.147	1411.88
1079.214	1410.88
1084.276	1426.88
1089.333	1428.88
1094.385	1446.88
1099.431	1468.88
1104.472	1457.88
1109.509	1449.88
1114.54	1444.88
1119.565	1427.88
1124.586	1430.88
1129.602	1406.88
1134.613	1394.88
1139.618	1390.88
1144.619	1390.88
1149.614	1387.88
1154.604	1392.88
1159.589	1389.88
1164.57	1419.88
1169.545	1433.88
1174.515	1410.88
1179.48	1402.88
1184.44	1406.88
1189.395	1408.88
1194.345	1396.88
1199.29	1388.88
1204.23	1386.88
1209.165	1373.88
1214.095	1389.88
1219.021	1414.88
1223.941	1417.88
1228.856	1434.88
1233.766	1433.88
1238.672	1448.88
1243.572	1439.88
1248.467	1412.88
1253.358	1426.88
1258.244	1405.88
1263.124	1387.88
1268	1376.88
1272.871	1360.88
1277.737	1356.88
1282.599	1333.88
1287.455	1333.88
1292.306	1326.88
1297.153	1350.88
1301.995	1353.88
1306.832	1369.88
1311.664	1367.88
1316.491	1387.88
1321.314	1370.88
1326.132	1362.88
1330.945	1352.88
1335.753	1353.88
1340.556	1315.88
1345.354	1321.88
1350.148	1313.88
1354.937	1286.88
1359.722	1288.88
1364.501	1265.88
1369.276	1275.88
1374.046	1260.88
1378.811	1269.88
1383.572	1259.88
1388.327	1248.88
1393.079	1268.88
1397.825	1257.88
1402.567	1248.88
1407.304	1230.88
1412.036	1218.88
1416.764	1222.88
1421.487	1212.88
1426.205	1222.88
1430.919	1231.88
1435.628	1221.88
1440.333	1246.88
1445.032	1256.88
1449.727	1262.88
1454.418	1273.88
1459.104	1281.88
1463.785	1271.88
1468.462	1266.88
1473.134	1233.88
1477.802	1248.88
1482.465	1205.88
1487.123	1217.88
1491.777	1218.88
1496.426	1229.88
1501.071	1231.88
1505.711	1239.88
1510.347	1238.88
1514.978	1251.88
1519.604	1271.88
1524.226	1267.88
1528.844	1270.88
1533.457	1278.88
1538.065	1273.88
1542.669	1263.88
1547.269	1266.88
1551.864	1260.88
1556.454	1251.88
1561.041	1271.88
1565.622	1283.88
1570.199	1305.88
1574.772	1303.88
1579.34	1319.88
1583.904	1347.88
1588.464	1361.88
1593.019	1353.88
1597.569	1393.88
1602.115	1383.88
1606.657	1401.88
1611.195	1388.88
1615.728	1405.88
1620.256	1423.88
1624.78	1440.88
1629.3	1436.88
1633.816	1449.88
1638.327	1462.88
1642.834	1491.88
1647.336	1502.88
1651.834	1525.88
1656.328	1526.88
1660.817	1499.88
1665.302	1486.88
1669.783	1482.88
1674.259	1445.88
1678.732	1409.88
1683.199	1377.88
1687.663	1338.88
1692.122	1296.88
1696.577	1264.88
1701.028	1208.88
1705.474	1171.88
1709.917	1145.88
1714.355	1141.88
1718.788	1095.88
1723.218	1106.88
1727.643	1081.88
1732.064	1079.88
1736.481	1041.88
1740.893	1036.88
1745.301	977.88
1749.705	982.88
1754.105	955.88
1758.501	946.88
1762.893	921.88
1767.28	912.88
1771.663	900.88
1776.042	891.88
1780.417	893.88
1784.787	894.88
1789.154	891.88
1793.516	896.88
1797.874	897.88
1802.228	899.88
1806.578	877.88
1810.924	884.88
1815.266	866.88
1819.603	856.88
1823.937	847.88
1828.266	845.88
1832.591	841.88
1836.913	837.88
1841.23	830.88
1845.543	822.88
1849.852	821.88
1854.156	828.88
1858.457	842.88
1862.754	824.88
1867.047	819.88
1871.335	823.88
1875.62	831.88
1879.9	841.88
1884.177	844.88
1888.449	845.88
1892.718	826.88
1896.982	810.88
1901.243	826.88
1905.499	822.88
1909.752	832.88
1914	827.88
1918.245	816.88
1922.485	810.88
1926.722	803.88
1930.954	810.88
1935.183	815.88
1939.408	826.88
1943.628	831.88
1947.845	816.88
1952.058	827.88
1956.267	817.88
1960.472	816.88
1964.673	801.88
1968.87	798.88
1973.063	791.88
1977.252	784.88
1981.438	780.88
1985.619	787.88
1989.797	787.88
1993.971	786.88
1998.14	782.88
2002.306	785.88
2006.469	783.88
2010.627	784.88
2014.781	796.88
2018.932	782.88
2023.078	785.88
2027.221	793.88
2031.36	782.88
2035.495	776.88
2039.627	769.88
2043.754	756.88
2047.878	769.88
2051.998	756.88
2056.114	746.88
2060.226	758.88
2064.334	760.88
2068.439	760.88
2072.54	766.88
2076.637	766.88
2080.73	769.88
2084.82	763.88
2088.906	777.88
2092.988	771.88
2097.066	762.88
2101.14	767.88
2105.211	749.88
2109.278	758.88
2113.342	761.88
2117.401	745.88
2121.457	749.88
2125.509	748.88
2129.558	742.88
2133.602	740.88
2137.643	743.88
2141.681	725.88
2145.714	726.88
2149.744	736.88
2153.77	738.88
2157.793	736.88
2161.812	709.88
2165.827	713.88
2169.838	711.88
2173.846	687.88
2177.851	685.88
2181.851	684.88
2185.848	681.88
2189.841	665.88
2193.831	665.88
2197.817	650.88
2201.799	649.88
2205.778	641.88
2209.753	653.88
2213.725	643.88
2217.693	639.88
2221.657	647.88
2225.618	638.88
2229.575	643.88
2233.529	638.88
2237.479	639.88
2241.425	625.88
2245.368	620.88
2249.307	619.88
2253.243	603.88
2257.175	602.88
2261.104	596.88
2265.029	580.88
2268.95	572.88
2272.868	576.88
2276.783	573.88
2280.694	565.88
2284.601	551.88
2288.505	557.88
2292.405	554.88
2296.302	552.88
2300.195	544.88
2304.085	530.88
2307.971	513.88
2311.854	505.88
2315.734	501.88
2319.609	497.88
2323.482	497.88
2327.351	492.88
2331.216	490.88
2335.078	483.88
2338.937	482.88
2342.792	472.88
2346.643	467.88
2350.492	468.88
2354.336	469.88
2358.178	465.88
2362.015	472.88
2365.85	472.88
2369.681	474.88
2373.508	478.88
2377.333	472.88
2381.153	480.88
2384.971	470.88
2388.785	475.88
2392.595	468.88
2396.402	471.88
2400.206	461.88
2404.007	465.88
2407.804	460.88
2411.597	457.88
2415.388	455.88
2419.174	452.88
2422.958	452.88
2426.738	452.88
2430.515	447.88
2434.289	458.88
2438.059	448.88
2441.825	449.88
2445.589	436.88
2449.349	434.88
2453.106	432.88
2456.859	439.88
2460.61	434.88
2464.356	430.88
2468.1	427.88
2471.84	415.88
2475.577	420.88
2479.311	413.88
2483.041	418.88
2486.768	429.88
2490.492	423.88
2494.213	413.88
2497.93	417.88
2501.644	415.88
2505.355	408.88
2509.062	411.88
2512.766	415.88
2516.467	405.88
2520.165	400.88
2523.859	409.88
2527.551	405.88
2531.239	402.88
2534.923	394.88
2538.605	391.88
2542.283	393.88
2545.958	384.88
2549.63	378.88
2553.299	384.88
2556.964	385.88
2560.626	383.88
2564.285	388.88
2567.941	372.88
2571.594	374.88
2575.243	378.88
2578.89	360.88
2582.533	362.88
2586.173	360.88
2589.809	368.88
2593.443	372.88
2597.073	358.88
2600.701	359.88
2604.325	353.88
2607.946	349.88
2611.564	357.88
2615.178	352.88
2618.79	353.88
2622.398	348.88
2626.004	356.88
2629.606	347.88
2633.205	350.88
2636.801	343.88
2640.394	337.88
2643.983	333.88
2647.57	330.88
2651.153	317.88
2654.734	332.88
2658.311	317.88
2661.885	325.88
2665.456	322.88
2669.025	315.88
2672.589	309.88
2676.151	302.88
2679.71	308.88
2683.266	312.88
2686.819	300.88
2690.368	300.88
2693.915	307.88
2697.458	294.88
2700.999	284.88
2704.536	283.88
2708.071	288.88
2711.602	281.88
2715.13	283.88
2718.656	282.88
2722.178	276.88
2725.697	281.88
2729.214	275.88
2732.727	275.88
2736.237	292.88
2739.744	288.88
2743.249	280.88
2746.75	276.88
2750.248	271.88
2753.743	277.88
2757.236	273.88
2760.725	282.88
2764.211	280.88
2767.695	267.88
2771.175	265.88
2774.652	272.88
2778.127	262.88
2781.598	269.88
2785.067	260.88
2788.532	256.88
2791.995	269.88
2795.455	270.88
2798.911	260.88
2802.365	257.88
2805.816	261.88
2809.264	276.88
2812.709	270.88
2816.151	265.88
2819.59	261.88
2823.026	258.88
2826.46	271.88
2829.89	268.88
2833.318	266.88
2836.742	263.88
2840.164	263.88
2843.583	264.88
2846.999	272.88
2850.412	269.88
2853.822	279.88
2857.229	276.88
2860.634	279.88
2864.035	274.88
2867.434	280.88
2870.83	280.88
2874.223	293.88
2877.613	290.88
2881	291.88
2884.385	296.88
2887.766	291.88
2891.145	286.88
2894.521	287.88
2897.894	290.88
2901.264	296.88
2904.631	295.88
2907.996	299.88
2911.358	292.88
2914.717	287.88
2918.073	295.88
2921.426	302.88
2924.777	309.88
2928.124	306.88
2931.469	312.88
2934.811	315.88
2938.15	317.88
2941.487	323.88
2944.821	322.88
2948.152	329.88
2951.48	335.88
2954.805	345.88
2958.128	339.88
2961.447	344.88
2964.765	341.88
2968.079	340.88
2971.39	352.88
2974.699	355.88
2978.005	369.88
2981.308	372.88
2984.609	385.88
2987.907	387.88
2991.202	406.88
2994.494	407.88
2997.784	415.88
3001.07	425.88
3004.355	441.88
3007.636	447.88
3010.915	460.88
3014.191	463.88
3017.464	477.88
3020.734	479.88
3024.002	491.88
3027.267	483.88
3030.53	500.88
3033.789	497.88
3037.046	515.88
3040.301	521.88
3043.552	524.88
3046.801	540.88
3050.048	546.88
3053.291	559.88
3056.532	575.88
3059.771	584.88
3063.006	615.88
3066.239	629.88
3069.469	652.88
3072.697	658.88
3075.922	678.88
3079.144	689.88
3082.364	712.88
3085.581	719.88
3088.795	750.88
3092.007	758.88
3095.216	772.88
3098.423	783.88
3101.627	793.88
3104.828	817.88
3108.026	846.88
3111.222	854.88
3114.416	879.88
3117.607	899.88
3120.795	907.88
3123.98	930.88
3127.163	945.88
3130.344	975.88
3133.521	982.88
3136.696	1014.88
3139.869	1021.88
3143.039	1043.88
3146.206	1054.88
3149.371	1075.88
3152.533	1082.88
3155.693	1085.88
3158.85	1104.88
3162.005	1097.88
3165.157	1104.88
3168.306	1110.88
3171.453	1114.88
3174.597	1117.88
3177.739	1113.88
3180.878	1134.88
3184.014	1135.88
3187.149	1127.88
3190.28	1127.88
3193.409	1136.88
3196.536	1131.88
3199.659	1138.88
3202.781	1148.88
3205.9	1132.88
3209.016	1147.88
3212.13	1149.88
3215.241	1143.88
3218.35	1120.88
3221.456	1119.88
3224.56	1108.88
3227.661	1116.88
3230.76	1099.88
3233.856	1086.88
3236.95	1059.88
3240.041	1064.88
3243.13	1045.88
3246.216	1046.88
3249.3	1035.88
3252.382	1029.88
3255.46	1024.88
3258.537	1015.88
3261.611	999.88
3264.682	1003.88
3267.751	1004.88
3270.818	1009.88
3273.882	998.88
3276.943	998.88
3280.002	969.88
3283.059	976.88
3286.113	956.88
3289.165	952.88
3292.214	935.88
3295.261	929.88
3298.306	916.88
3301.348	889.88
3304.387	898.88
3307.425	868.88
3310.459	868.88
3313.492	858.88
3316.521	834.88
3319.549	823.88
3322.574	829.88
3325.597	820.88
3328.617	805.88
3331.635	807.88
3334.65	787.88
3337.663	803.88
3340.674	789.88
3343.682	780.88
3346.688	774.88
3349.691	782.88
3352.692	776.88
3355.691	761.88
3358.687	769.88
3361.681	768.88
3364.673	753.88
3367.662	733.88
3370.649	724.88
3373.633	720.88
3376.615	726.88
3379.595	709.88
3382.572	693.88
3385.547	693.88
3388.52	671.88
3391.49	666.88
3394.458	658.88
3397.424	650.88
3400.387	635.88
3403.348	628.88
3406.307	617.88
3409.263	629.88
3412.217	610.88
3415.168	618.88
3418.118	602.88
3421.065	606.88
3424.009	594.88
3426.951	581.88
3429.891	566.88
3432.829	559.88
3435.764	551.88
3438.697	545.88
3441.628	536.88
3444.557	519.88
3447.483	497.88
3450.407	489.88
3453.328	482.88
3456.247	454.88
3459.164	446.88
3462.079	448.88
3464.991	426.88
3467.902	414.88
3470.809	405.88
3473.715	391.88
3476.618	380.88
3479.519	360.88
3482.418	357.88
3485.315	358.88
3488.209	347.88
3491.101	332.88
3493.99	324.88
3496.878	322.88
3499.763	308.88
3502.646	298.88
3505.527	284.88
3508.405	277.88
3511.281	264.88
3514.155	247.88
3517.027	242.88
3519.897	231.88
3522.764	228.88
3525.629	210.88
3528.492	205.88
3531.352	197.88
3534.211	180.88
3537.067	167.88
3539.921	168.88
3542.773	166.88
3545.622	158.88
3548.469	141.88
3551.315	135.88
3554.157	129.88
3556.998	114.88
3559.837	117.88
3562.673	106.88
3565.507	105.88
3568.339	97.88
3571.169	94.88
3573.996	86.88
3576.822	84.88
3579.645	76.88
3582.466	73.88
3585.285	73.88
3588.101	62.88
3590.916	64.88
3593.728	57.88
3596.538	53.88
3599.346	40.88
3602.152	36.88
3604.956	42.88
3607.757	39.88
3610.556	29.88
3613.354	24.88
3616.149	21.88
3618.942	24.88
3621.732	19.88
3624.521	7.88
3627.307	12.88
3630.092	8.88
3632.874	12.88
3635.654	4.88
3638.432	3.88
3641.208	2.88
3643.982	-1.12
3646.753	-5.12
3649.523	-1.12
3652.29	-7.12
3655.055	-15.12
3657.818	-13.12
3660.579	-18.12
3663.338	-16.12
3666.095	-17.12
3668.849	-22.12
3671.602	-23.12
3674.352	-36.12
3677.101	-28.12
3679.847	-26.12
3682.591	-29.12
3685.333	-33.12
3688.073	-29.12
3690.811	-34.12
3693.547	-37.12
3696.281	-38.12
3699.013	-42.12
3701.742	-43.12
3704.47	-39.12
3707.195	-39.12
3709.919	-41.12
3712.64	-49.12
3715.359	-42.12
3718.076	-47.12
3720.792	-49.12
3723.505	-50.12
3726.216	-50.12
3728.925	-52.12
3731.632	-53.12
3734.336	-48.12
3737.039	-49.12
3739.74	-51.12
3742.439	-52.12
3745.136	-55.12
3747.83	-53.12
3750.523	-57.12
3753.213	-56.12
3755.902	-56.12
3758.589	-54.12
3761.273	-52.12
3763.956	-54.12
3766.636	-57.12
3769.315	-55.12
3771.991	-60.12
3774.665	-61.12
3777.338	-59.12
3780.008	-56.12
3782.677	-57.12
3785.343	-58.12
3788.007	-58.12
3790.67	-58.12
3793.33	-58.12
3795.989	-62.12
3798.645	-64.12
3801.299	-62.12
3803.952	-59.12
3806.602	-60.12
3809.251	-60.12
3811.897	-63.12
3814.542	-64.12
3817.184	-60.12
3819.825	-64.12
3822.463	-61.12
3825.1	-68.12
3827.735	-64.12
3830.367	-65.12
3832.998	-62.12
3835.627	-63.12
3838.253	-64.12
3840.878	-68.12
3843.501	-66.12
3846.122	-63.12
3848.741	-69.12
3851.358	-68.12
3853.973	-60.12
3856.586	-59.12
3859.197	-69.12
3861.806	-69.12
3864.414	-70.12
3867.019	-68.12
3869.622	-64.12
3872.224	-64.12
3874.823	-62.12
3877.421	-64.12
3880.016	-66.12
3882.61	-65.12
3885.202	-63.12
3887.792	-63.12
3890.38	-64.12
3892.966	-63.12
3895.55	-63.12
3898.132	-68.12
3900.713	-70.12
3903.291	-72.12
3905.868	-66.12
3908.442	-71.12
3911.015	-73.12
3913.586	-69.12
3916.155	-66.12
3918.722	-69.12
3921.287	-66.12
3923.85	-70.12
3926.411	-68.12
3928.971	-72.12
3931.528	-74.12
3934.084	-72.12
3936.638	-72.12
3939.19	-69.12
3941.74	-69.12
3944.288	-73.12
3946.834	-71.12
3949.378	-70.12
3951.921	-69.12
3954.462	-71.12
3957	-68.12
3959.537	-70.12
3962.072	-66.12
3964.606	-69.12
3967.137	-71.12
3969.667	-70.12
3972.194	-71.12
3974.72	-76.12
3977.244	-71.12
3979.766	-71.12
3982.286	-67.12
3984.805	-70.12
3987.321	-69.12
3989.836	-71.12
3992.349	-71.12
3994.86	-69.12
3997.369	-64.12
3999.877	-69.12
4002.382	-66.12
4004.886	-70.12
4007.388	-70.12
4009.888	-64.12
4012.386	-64.12
4014.883	-69.12
4017.377	-73.12
4019.87	-70.12
4022.361	-71.12
4024.85	-68.12
4027.338	-68.12
4029.823	-65.12
4032.307	-65.12
4034.789	-72.12
4037.269	-74.12
4039.747	-76.12
4042.224	-72.12
4044.699	-67.12
4047.172	-67.12
4049.643	-68.12
4052.112	-69.12
4054.58	-72.12
4057.046	-72.12
4059.51	-75.12
4061.972	-69.12
4064.432	-68.12
4066.891	-68.12
4069.348	-69.12
4071.803	-69.12
4074.256	-70.12
4076.708	-73.12
4079.158	-73.12
4081.606	-71.12
4084.052	-72.12
4086.497	-70.12
4088.939	-74.12
4091.38	-72.12
4093.819	-72.12
4096.257	-72.12
4098.693	-71.12
4101.127	-74.12
4103.559	-73.12
4105.989	-20.12
4108.418	-17.12
4110.845	-14.12
4113.27	-5.12
4115.694	-10.12
4118.115	-5.12
4120.535	-69.12
4122.954	-71.12
4125.37	-71.12
4127.785	-70.12
4130.198	-71.12
4132.609	-72.12
4135.019	-76.12
4137.427	-73.12
4139.833	-72.12
4142.237	-75.12
