Data from 1000CFU3_B_ramanshift_RamanShift_14-57-27-709.txt Node
Date: Sun Dec 25 14:57:27 IST 2016
User: aro
Spectrometer: QEPB0276
Trigger mode: 0
Integration Time (sec): 5.000000E0
Scans to average: 1
Electric dark correction enabled: true
Nonlinearity correction enabled: false
Boxcar width: 0
XAxis mode: Raman Shifts
Number of Pixels in Spectrum: 1044
>>>>>Begin Spectral Data<<<<<
160.701	3.88
166.742	20.88
172.777	65.88
178.805	207.88
184.826	622.88
190.841	1509.88
196.849	2761.88
202.85	3959.88
208.845	4544.88
214.833	4570.88
220.815	4396.88
226.789	4246.88
232.758	4138.88
238.719	4043.88
244.674	3915.88
250.623	3741.88
256.565	3563.88
262.5	3400.88
268.429	3277.88
274.351	3151.88
280.267	3028.88
286.176	2915.88
292.079	2818.88
297.975	2734.88
303.865	2619.88
309.748	2553.88
315.625	2477.88
321.495	2407.88
327.359	2363.88
333.217	2324.88
339.068	2318.88
344.912	2285.88
350.751	2270.88
356.583	2255.88
362.408	2271.88
368.227	2240.88
374.04	2272.88
379.847	2293.88
385.647	2283.88
391.44	2287.88
397.228	2284.88
403.009	2337.88
408.784	2343.88
414.553	2330.88
420.315	2352.88
426.071	2356.88
431.821	2364.88
437.565	2375.88
443.302	2349.88
449.033	2349.88
454.758	2354.88
460.477	2334.88
466.189	2328.88
471.896	2319.88
477.596	2313.88
483.29	2322.88
488.978	2286.88
494.66	2287.88
500.335	2284.88
506.005	2238.88
511.668	2229.88
517.325	2175.88
522.977	2170.88
528.622	2129.88
534.261	2095.88
539.894	2084.88
545.521	2069.88
551.141	2053.88
556.756	2045.88
562.365	2025.88
567.968	2021.88
573.565	2013.88
579.155	2013.88
584.74	1996.88
590.319	1966.88
595.892	1965.88
601.459	1949.88
607.02	1944.88
612.575	1931.88
618.124	1907.88
623.667	1904.88
629.204	1885.88
634.735	1869.88
640.261	1858.88
645.781	1854.88
651.294	1836.88
656.802	1833.88
662.304	1835.88
667.8	1822.88
673.29	1827.88
678.775	1801.88
684.254	1819.88
689.726	1790.88
695.193	1783.88
700.655	1779.88
706.11	1774.88
711.56	1751.88
717.004	1741.88
722.442	1754.88
727.874	1742.88
733.301	1722.88
738.722	1720.88
744.137	1712.88
749.547	1716.88
754.951	1706.88
760.349	1702.88
765.741	1700.88
771.128	1710.88
776.509	1703.88
781.885	1689.88
787.254	1685.88
792.618	1680.88
797.977	1694.88
803.33	1678.88
808.677	1667.88
814.019	1661.88
819.355	1642.88
824.686	1608.88
830.011	1616.88
835.33	1602.88
840.644	1617.88
845.952	1600.88
851.255	1587.88
856.552	1588.88
861.844	1578.88
867.13	1560.88
872.41	1562.88
877.686	1563.88
882.955	1554.88
888.219	1546.88
893.478	1508.88
898.731	1488.88
903.979	1472.88
909.221	1451.88
914.458	1443.88
919.69	1445.88
924.916	1429.88
930.136	1415.88
935.351	1424.88
940.561	1417.88
945.766	1425.88
950.965	1428.88
956.158	1407.88
961.347	1385.88
966.529	1380.88
971.707	1372.88
976.879	1335.88
982.046	1334.88
987.208	1323.88
992.364	1324.88
997.515	1333.88
1002.66	1332.88
1007.801	1336.88
1012.936	1357.88
1018.066	1370.88
1023.19	1370.88
1028.309	1365.88
1033.423	1374.88
1038.532	1380.88
1043.636	1380.88
1048.734	1355.88
1053.827	1367.88
1058.915	1329.88
1063.998	1325.88
1069.075	1323.88
1074.147	1308.88
1079.214	1328.88
1084.276	1332.88
1089.333	1338.88
1094.385	1347.88
1099.431	1353.88
1104.472	1367.88
1109.509	1344.88
1114.54	1346.88
1119.565	1320.88
1124.586	1307.88
1129.602	1284.88
1134.613	1302.88
1139.618	1290.88
1144.619	1284.88
1149.614	1290.88
1154.604	1297.88
1159.589	1311.88
1164.57	1298.88
1169.545	1316.88
1174.515	1311.88
1179.48	1302.88
1184.44	1303.88
1189.395	1298.88
1194.345	1302.88
1199.29	1301.88
1204.23	1282.88
1209.165	1287.88
1214.095	1303.88
1219.021	1317.88
1223.941	1317.88
1228.856	1339.88
1233.766	1340.88
1238.672	1320.88
1243.572	1330.88
1248.467	1342.88
1253.358	1313.88
1258.244	1299.88
1263.124	1285.88
1268	1271.88
1272.871	1259.88
1277.737	1259.88
1282.599	1245.88
1287.455	1244.88
1292.306	1248.88
1297.153	1250.88
1301.995	1260.88
1306.832	1265.88
1311.664	1274.88
1316.491	1283.88
1321.314	1289.88
1326.132	1274.88
1330.945	1266.88
1335.753	1245.88
1340.556	1227.88
1345.354	1234.88
1350.148	1221.88
1354.937	1194.88
1359.722	1213.88
1364.501	1200.88
1369.276	1185.88
1374.046	1182.88
1378.811	1146.88
1383.572	1151.88
1388.327	1150.88
1393.079	1171.88
1397.825	1159.88
1402.567	1143.88
1407.304	1138.88
1412.036	1138.88
1416.764	1123.88
1421.487	1135.88
1426.205	1131.88
1430.919	1147.88
1435.628	1158.88
1440.333	1165.88
1445.032	1177.88
1449.727	1183.88
1454.418	1188.88
1459.104	1192.88
1463.785	1186.88
1468.462	1178.88
1473.134	1170.88
1477.802	1165.88
1482.465	1147.88
1487.123	1137.88
1491.777	1146.88
1496.426	1151.88
1501.071	1152.88
1505.711	1171.88
1510.347	1178.88
1514.978	1173.88
1519.604	1193.88
1524.226	1207.88
1528.844	1186.88
1533.457	1196.88
1538.065	1202.88
1542.669	1172.88
1547.269	1179.88
1551.864	1180.88
1556.454	1183.88
1561.041	1192.88
1565.622	1206.88
1570.199	1225.88
1574.772	1229.88
1579.34	1252.88
1583.904	1265.88
1588.464	1295.88
1593.019	1309.88
1597.569	1314.88
1602.115	1325.88
1606.657	1341.88
1611.195	1331.88
1615.728	1351.88
1620.256	1357.88
1624.78	1384.88
1629.3	1390.88
1633.816	1422.88
1638.327	1423.88
1642.834	1437.88
1647.336	1453.88
1651.834	1482.88
1656.328	1457.88
1660.817	1470.88
1665.302	1448.88
1669.783	1434.88
1674.259	1403.88
1678.732	1373.88
1683.199	1332.88
1687.663	1297.88
1692.122	1253.88
1696.577	1219.88
1701.028	1176.88
1705.474	1116.88
1709.917	1090.88
1714.355	1060.88
1718.788	1044.88
1723.218	1037.88
1727.643	1022.88
1732.064	1004.88
1736.481	989.88
1740.893	951.88
1745.301	940.88
1749.705	929.88
1754.105	893.88
1758.501	884.88
1762.893	884.88
1767.28	846.88
1771.663	847.88
1776.042	829.88
1780.417	839.88
1784.787	820.88
1789.154	835.88
1793.516	840.88
1797.874	835.88
1802.228	832.88
1806.578	830.88
1810.924	794.88
1815.266	792.88
1819.603	793.88
1823.937	775.88
1828.266	768.88
1832.591	771.88
1836.913	760.88
1841.23	748.88
1845.543	759.88
1849.852	755.88
1854.156	756.88
1858.457	757.88
1862.754	754.88
1867.047	764.88
1871.335	776.88
1875.62	774.88
1879.9	782.88
1884.177	780.88
1888.449	781.88
1892.718	771.88
1896.982	761.88
1901.243	764.88
1905.499	755.88
1909.752	760.88
1914	763.88
1918.245	764.88
1922.485	754.88
1926.722	748.88
1930.954	758.88
1935.183	757.88
1939.408	763.88
1943.628	768.88
1947.845	759.88
1952.058	763.88
1956.267	753.88
1960.472	750.88
1964.673	750.88
1968.87	740.88
1973.063	746.88
1977.252	734.88
1981.438	720.88
1985.619	720.88
1989.797	712.88
1993.971	724.88
1998.14	723.88
2002.306	717.88
2006.469	726.88
2010.627	738.88
2014.781	736.88
2018.932	722.88
2023.078	739.88
2027.221	734.88
2031.36	718.88
2035.495	725.88
2039.627	715.88
2043.754	724.88
2047.878	721.88
2051.998	712.88
2056.114	704.88
2060.226	702.88
2064.334	708.88
2068.439	724.88
2072.54	709.88
2076.637	727.88
2080.73	729.88
2084.82	718.88
2088.906	736.88
2092.988	729.88
2097.066	739.88
2101.14	727.88
2105.211	711.88
2109.278	710.88
2113.342	712.88
2117.401	706.88
2121.457	708.88
2125.509	709.88
2129.558	701.88
2133.602	696.88
2137.643	696.88
2141.681	691.88
2145.714	704.88
2149.744	683.88
2153.77	676.88
2157.793	680.88
2161.812	675.88
2165.827	677.88
2169.838	667.88
2173.846	649.88
2177.851	632.88
2181.851	634.88
2185.848	624.88
2189.841	628.88
2193.831	612.88
2197.817	624.88
2201.799	612.88
2205.778	613.88
2209.753	608.88
2213.725	604.88
2217.693	596.88
2221.657	603.88
2225.618	603.88
2229.575	600.88
2233.529	618.88
2237.479	594.88
2241.425	592.88
2245.368	582.88
2249.307	585.88
2253.243	568.88
2257.175	563.88
2261.104	543.88
2265.029	549.88
2268.95	547.88
2272.868	543.88
2276.783	528.88
2280.694	531.88
2284.601	522.88
2288.505	515.88
2292.405	510.88
2296.302	500.88
2300.195	500.88
2304.085	502.88
2307.971	493.88
2311.854	479.88
2315.734	469.88
2319.609	461.88
2323.482	458.88
2327.351	456.88
2331.216	459.88
2335.078	456.88
2338.937	448.88
2342.792	442.88
2346.643	443.88
2350.492	431.88
2354.336	443.88
2358.178	442.88
2362.015	441.88
2365.85	455.88
2369.681	446.88
2373.508	448.88
2377.333	451.88
2381.153	444.88
2384.971	444.88
2388.785	434.88
2392.595	440.88
2396.402	436.88
2400.206	440.88
2404.007	440.88
2407.804	427.88
2411.597	439.88
2415.388	430.88
2419.174	429.88
2422.958	424.88
2426.738	429.88
2430.515	427.88
2434.289	421.88
2438.059	431.88
2441.825	422.88
2445.589	411.88
2449.349	407.88
2453.106	413.88
2456.859	414.88
2460.61	407.88
2464.356	410.88
2468.1	399.88
2471.84	402.88
2475.577	397.88
2479.311	399.88
2483.041	399.88
2486.768	390.88
2490.492	397.88
2494.213	391.88
2497.93	383.88
2501.644	401.88
2505.355	383.88
2509.062	399.88
2512.766	392.88
2516.467	387.88
2520.165	374.88
2523.859	386.88
2527.551	383.88
2531.239	381.88
2534.923	369.88
2538.605	370.88
2542.283	379.88
2545.958	371.88
2549.63	366.88
2553.299	364.88
2556.964	363.88
2560.626	357.88
2564.285	360.88
2567.941	362.88
2571.594	351.88
2575.243	350.88
2578.89	350.88
2582.533	342.88
2586.173	346.88
2589.809	340.88
2593.443	336.88
2597.073	343.88
2600.701	339.88
2604.325	331.88
2607.946	329.88
2611.564	326.88
2615.178	333.88
2618.79	331.88
2622.398	335.88
2626.004	331.88
2629.606	328.88
2633.205	319.88
2636.801	322.88
2640.394	315.88
2643.983	308.88
2647.57	310.88
2651.153	305.88
2654.734	310.88
2658.311	301.88
2661.885	303.88
2665.456	313.88
2669.025	294.88
2672.589	293.88
2676.151	288.88
2679.71	286.88
2683.266	294.88
2686.819	291.88
2690.368	285.88
2693.915	286.88
2697.458	281.88
2700.999	271.88
2704.536	267.88
2708.071	270.88
2711.602	263.88
2715.13	271.88
2718.656	268.88
2722.178	271.88
2725.697	265.88
2729.214	267.88
2732.727	264.88
2736.237	275.88
2739.744	274.88
2743.249	270.88
2746.75	255.88
2750.248	273.88
2753.743	269.88
2757.236	266.88
2760.725	261.88
2764.211	264.88
2767.695	253.88
2771.175	255.88
2774.652	263.88
2778.127	250.88
2781.598	249.88
2785.067	256.88
2788.532	256.88
2791.995	252.88
2795.455	254.88
2798.911	243.88
2802.365	255.88
2805.816	254.88
2809.264	258.88
2812.709	257.88
2816.151	257.88
2819.59	257.88
2823.026	258.88
2826.46	262.88
2829.89	260.88
2833.318	252.88
2836.742	263.88
2840.164	254.88
2843.583	261.88
2846.999	267.88
2850.412	266.88
2853.822	273.88
2857.229	270.88
2860.634	278.88
2864.035	270.88
2867.434	287.88
2870.83	282.88
2874.223	283.88
2877.613	295.88
2881	294.88
2884.385	295.88
2887.766	283.88
2891.145	287.88
2894.521	292.88
2897.894	288.88
2901.264	293.88
2904.631	293.88
2907.996	302.88
2911.358	295.88
2914.717	288.88
2918.073	298.88
2921.426	303.88
2924.777	318.88
2928.124	311.88
2931.469	318.88
2934.811	322.88
2938.15	328.88
2941.487	329.88
2944.821	339.88
2948.152	335.88
2951.48	346.88
2954.805	346.88
2958.128	348.88
2961.447	360.88
2964.765	354.88
2968.079	372.88
2971.39	360.88
2974.699	372.88
2978.005	379.88
2981.308	389.88
2984.609	403.88
2987.907	408.88
2991.202	412.88
2994.494	426.88
2997.784	439.88
3001.07	443.88
3004.355	450.88
3007.636	462.88
3010.915	471.88
3014.191	487.88
3017.464	504.88
3020.734	498.88
3024.002	506.88
3027.267	498.88
3030.53	506.88
3033.789	523.88
3037.046	541.88
3040.301	544.88
3043.552	551.88
3046.801	572.88
3050.048	597.88
3053.291	600.88
3056.532	618.88
3059.771	641.88
3063.006	648.88
3066.239	667.88
3069.469	708.88
3072.697	708.88
3075.922	729.88
3079.144	742.88
3082.364	755.88
3085.581	784.88
3088.795	792.88
3092.007	811.88
3095.216	827.88
3098.423	844.88
3101.627	860.88
3104.828	878.88
3108.026	899.88
3111.222	917.88
3114.416	941.88
3117.607	954.88
3120.795	981.88
3123.98	1009.88
3127.163	1031.88
3130.344	1052.88
3133.521	1055.88
3136.696	1085.88
3139.869	1091.88
3143.039	1122.88
3146.206	1139.88
3149.371	1156.88
3152.533	1168.88
3155.693	1172.88
3158.85	1176.88
3162.005	1193.88
3165.157	1198.88
3168.306	1185.88
3171.453	1195.88
3174.597	1213.88
3177.739	1203.88
3180.878	1212.88
3184.014	1228.88
3187.149	1233.88
3190.28	1220.88
3193.409	1226.88
3196.536	1223.88
3199.659	1247.88
3202.781	1229.88
3205.9	1244.88
3209.016	1252.88
3212.13	1255.88
3215.241	1228.88
3218.35	1203.88
3221.456	1204.88
3224.56	1207.88
3227.661	1185.88
3230.76	1179.88
3233.856	1182.88
3236.95	1145.88
3240.041	1151.88
3243.13	1130.88
3246.216	1122.88
3249.3	1111.88
3252.382	1112.88
3255.46	1111.88
3258.537	1087.88
3261.611	1079.88
3264.682	1086.88
3267.751	1089.88
3270.818	1064.88
3273.882	1077.88
3276.943	1060.88
3280.002	1044.88
3283.059	1046.88
3286.113	1033.88
3289.165	1027.88
3292.214	1000.88
3295.261	986.88
3298.306	972.88
3301.348	966.88
3304.387	940.88
3307.425	926.88
3310.459	933.88
3313.492	916.88
3316.521	908.88
3319.549	902.88
3322.574	869.88
3325.597	856.88
3328.617	854.88
3331.635	859.88
3334.65	866.88
3337.663	851.88
3340.674	855.88
3343.682	840.88
3346.688	829.88
3349.691	832.88
3352.692	831.88
3355.691	821.88
3358.687	827.88
3361.681	811.88
3364.673	804.88
3367.662	805.88
3370.649	789.88
3373.633	762.88
3376.615	767.88
3379.595	762.88
3382.572	748.88
3385.547	729.88
3388.52	721.88
3391.49	723.88
3394.458	706.88
3397.424	704.88
3400.387	693.88
3403.348	679.88
3406.307	676.88
3409.263	662.88
3412.217	664.88
3415.168	653.88
3418.118	648.88
3421.065	635.88
3424.009	636.88
3426.951	620.88
3429.891	619.88
3432.829	607.88
3435.764	584.88
3438.697	571.88
3441.628	572.88
3444.557	557.88
3447.483	551.88
3450.407	526.88
3453.328	516.88
3456.247	499.88
3459.164	484.88
3462.079	464.88
3464.991	460.88
3467.902	443.88
3470.809	431.88
3473.715	421.88
3476.618	408.88
3479.519	396.88
3482.418	394.88
3485.315	373.88
3488.209	363.88
3491.101	356.88
3493.99	342.88
3496.878	333.88
3499.763	334.88
3502.646	323.88
3505.527	307.88
3508.405	298.88
3511.281	285.88
3514.155	270.88
3517.027	268.88
3519.897	248.88
3522.764	238.88
3525.629	237.88
3528.492	234.88
3531.352	208.88
3534.211	201.88
3537.067	188.88
3539.921	186.88
3542.773	179.88
3545.622	163.88
3548.469	149.88
3551.315	148.88
3554.157	142.88
3556.998	132.88
3559.837	114.88
3562.673	115.88
3565.507	108.88
3568.339	112.88
3571.169	106.88
3573.996	101.88
3576.822	83.88
3579.645	90.88
3582.466	78.88
3585.285	77.88
3588.101	67.88
3590.916	62.88
3593.728	60.88
3596.538	57.88
3599.346	50.88
3602.152	50.88
3604.956	43.88
3607.757	38.88
3610.556	39.88
3613.354	30.88
3616.149	28.88
3618.942	28.88
3621.732	20.88
3624.521	23.88
3627.307	18.88
3630.092	10.88
3632.874	10.88
3635.654	5.88
3638.432	4.88
3641.208	8.88
3643.982	0.88
3646.753	2.88
3649.523	-2.12
3652.29	-2.12
3655.055	-11.12
3657.818	-12.12
3660.579	-14.12
3663.338	-19.12
3666.095	-15.12
3668.849	-20.12
3671.602	-20.12
3674.352	-31.12
3677.101	-31.12
3679.847	-32.12
3682.591	-33.12
3685.333	-34.12
3688.073	-32.12
3690.811	-33.12
3693.547	-36.12
3696.281	-36.12
3699.013	-37.12
3701.742	-39.12
3704.47	-43.12
3707.195	-38.12
3709.919	-44.12
3712.64	-46.12
3715.359	-45.12
3718.076	-45.12
3720.792	-50.12
3723.505	-47.12
3726.216	-54.12
3728.925	-52.12
3731.632	-52.12
3734.336	-50.12
3737.039	-51.12
3739.74	-50.12
3742.439	-51.12
3745.136	-54.12
3747.83	-57.12
3750.523	-62.12
3753.213	-55.12
3755.902	-54.12
3758.589	-55.12
3761.273	-54.12
3763.956	-54.12
3766.636	-54.12
3769.315	-59.12
3771.991	-60.12
3774.665	-61.12
3777.338	-61.12
3780.008	-59.12
3782.677	-56.12
3785.343	-58.12
3788.007	-60.12
3790.67	-61.12
3793.33	-66.12
3795.989	-64.12
3798.645	-60.12
3801.299	-59.12
3803.952	-59.12
3806.602	-59.12
3809.251	-60.12
3811.897	-65.12
3814.542	-66.12
3817.184	-61.12
3819.825	-65.12
3822.463	-63.12
3825.1	-64.12
3827.735	-61.12
3830.367	-66.12
3832.998	-64.12
3835.627	-67.12
3838.253	-65.12
3840.878	-70.12
3843.501	-68.12
3846.122	-67.12
3848.741	-68.12
3851.358	-68.12
3853.973	-65.12
3856.586	-63.12
3859.197	-70.12
3861.806	-70.12
3864.414	-70.12
3867.019	-71.12
3869.622	-66.12
3872.224	-64.12
3874.823	-67.12
3877.421	-64.12
3880.016	-67.12
3882.61	-65.12
3885.202	-64.12
3887.792	-67.12
3890.38	-63.12
3892.966	-65.12
3895.55	-69.12
3898.132	-68.12
3900.713	-70.12
3903.291	-73.12
3905.868	-70.12
3908.442	-70.12
3911.015	-75.12
3913.586	-74.12
3916.155	-67.12
3918.722	-71.12
3921.287	-68.12
3923.85	-73.12
3926.411	-71.12
3928.971	-70.12
3931.528	-72.12
3934.084	-76.12
3936.638	-73.12
3939.19	-72.12
3941.74	-70.12
3944.288	-73.12
3946.834	-70.12
3949.378	-72.12
3951.921	-74.12
3954.462	-70.12
3957	-71.12
3959.537	-73.12
3962.072	-69.12
3964.606	-69.12
3967.137	-72.12
3969.667	-71.12
3972.194	-73.12
3974.72	-75.12
3977.244	-72.12
3979.766	-72.12
3982.286	-68.12
3984.805	-71.12
3987.321	-69.12
3989.836	-72.12
3992.349	-70.12
3994.86	-68.12
3997.369	-69.12
3999.877	-72.12
4002.382	-71.12
4004.886	-75.12
4007.388	-71.12
4009.888	-69.12
4012.386	-67.12
4014.883	-70.12
4017.377	-75.12
4019.87	-72.12
4022.361	-74.12
4024.85	-72.12
4027.338	-66.12
4029.823	-65.12
4032.307	-66.12
4034.789	-69.12
4037.269	-71.12
4039.747	-73.12
4042.224	-76.12
4044.699	-72.12
4047.172	-72.12
4049.643	-68.12
4052.112	-67.12
4054.58	-69.12
4057.046	-71.12
4059.51	-73.12
4061.972	-71.12
4064.432	-72.12
4066.891	-71.12
4069.348	-72.12
4071.803	-70.12
4074.256	-73.12
4076.708	-74.12
4079.158	-73.12
4081.606	-68.12
4084.052	-73.12
4086.497	-71.12
4088.939	-70.12
4091.38	-72.12
4093.819	-72.12
4096.257	-73.12
4098.693	-73.12
4101.127	-74.12
4103.559	-73.12
4105.989	-24.12
4108.418	-21.12
4110.845	-21.12
4113.27	-18.12
4115.694	-9.12
4118.115	-5.12
4120.535	-70.12
4122.954	-69.12
4125.37	-71.12
4127.785	-75.12
4130.198	-74.12
4132.609	-73.12
4135.019	-76.12
4137.427	-74.12
4139.833	-71.12
4142.237	-77.12
