Data from 100000CFU2_A_ramanshift_RamanShift_14-20-20-457.txt Node
Date: Sun Dec 25 14:20:20 IST 2016
User: aro
Spectrometer: QEPB0276
Trigger mode: 0
Integration Time (sec): 5.000000E0
Scans to average: 1
Electric dark correction enabled: true
Nonlinearity correction enabled: false
Boxcar width: 0
XAxis mode: Raman Shifts
Number of Pixels in Spectrum: 1044
>>>>>Begin Spectral Data<<<<<
160.701	2.75
166.742	22.75
172.777	71.75
178.805	221.75
184.826	663.75
190.841	1566.75
196.849	2898.75
202.85	4177.75
208.845	4835.75
214.833	4839.75
220.815	4658.75
226.789	4515.75
232.758	4393.75
238.719	4264.75
244.674	4146.75
250.623	3954.75
256.565	3800.75
262.5	3617.75
268.429	3466.75
274.351	3314.75
280.267	3202.75
286.176	3079.75
292.079	2962.75
297.975	2866.75
303.865	2775.75
309.748	2686.75
315.625	2627.75
321.495	2543.75
327.359	2500.75
333.217	2475.75
339.068	2470.75
344.912	2420.75
350.751	2406.75
356.583	2398.75
362.408	2377.75
368.227	2394.75
374.04	2412.75
379.847	2404.75
385.647	2407.75
391.44	2432.75
397.228	2442.75
403.009	2458.75
408.784	2463.75
414.553	2487.75
420.315	2484.75
426.071	2501.75
431.821	2514.75
437.565	2506.75
443.302	2506.75
449.033	2489.75
454.758	2495.75
460.477	2465.75
466.189	2472.75
471.896	2467.75
477.596	2465.75
483.29	2454.75
488.978	2424.75
494.66	2433.75
500.335	2407.75
506.005	2364.75
511.668	2344.75
517.325	2307.75
522.977	2287.75
528.622	2241.75
534.261	2213.75
539.894	2188.75
545.521	2184.75
551.141	2171.75
556.756	2159.75
562.365	2154.75
567.968	2122.75
573.565	2114.75
579.155	2094.75
584.74	2089.75
590.319	2066.75
595.892	2074.75
601.459	2034.75
607.02	2037.75
612.575	2018.75
618.124	2015.75
623.667	1995.75
629.204	1985.75
634.735	1968.75
640.261	1948.75
645.781	1939.75
651.294	1936.75
656.802	1918.75
662.304	1936.75
667.8	1907.75
673.29	1882.75
678.775	1878.75
684.254	1885.75
689.726	1893.75
695.193	1878.75
700.655	1869.75
706.11	1847.75
711.56	1830.75
717.004	1832.75
722.442	1828.75
727.874	1814.75
733.301	1804.75
738.722	1775.75
744.137	1777.75
749.547	1783.75
754.951	1763.75
760.349	1778.75
765.741	1776.75
771.128	1780.75
776.509	1771.75
781.885	1757.75
787.254	1769.75
792.618	1756.75
797.977	1758.75
803.33	1749.75
808.677	1738.75
814.019	1710.75
819.355	1713.75
824.686	1697.75
830.011	1686.75
835.33	1692.75
840.644	1665.75
845.952	1663.75
851.255	1644.75
856.552	1637.75
861.844	1641.75
867.13	1626.75
872.41	1626.75
877.686	1617.75
882.955	1630.75
888.219	1609.75
893.478	1588.75
898.731	1538.75
903.979	1524.75
909.221	1514.75
914.458	1489.75
919.69	1481.75
924.916	1464.75
930.136	1464.75
935.351	1470.75
940.561	1475.75
945.766	1474.75
950.965	1456.75
956.158	1457.75
961.347	1458.75
966.529	1429.75
971.707	1399.75
976.879	1390.75
982.046	1376.75
987.208	1357.75
992.364	1351.75
997.515	1362.75
1002.66	1365.75
1007.801	1384.75
1012.936	1396.75
1018.066	1397.75
1023.19	1408.75
1028.309	1414.75
1033.423	1421.75
1038.532	1412.75
1043.636	1410.75
1048.734	1405.75
1053.827	1395.75
1058.915	1380.75
1063.998	1369.75
1069.075	1364.75
1074.147	1338.75
1079.214	1350.75
1084.276	1368.75
1089.333	1368.75
1094.385	1393.75
1099.431	1396.75
1104.472	1392.75
1109.509	1398.75
1114.54	1382.75
1119.565	1375.75
1124.586	1354.75
1129.602	1336.75
1134.613	1333.75
1139.618	1315.75
1144.619	1328.75
1149.614	1321.75
1154.604	1326.75
1159.589	1321.75
1164.57	1331.75
1169.545	1352.75
1174.515	1339.75
1179.48	1345.75
1184.44	1339.75
1189.395	1330.75
1194.345	1327.75
1199.29	1304.75
1204.23	1308.75
1209.165	1316.75
1214.095	1315.75
1219.021	1328.75
1223.941	1353.75
1228.856	1353.75
1233.766	1368.75
1238.672	1356.75
1243.572	1350.75
1248.467	1362.75
1253.358	1341.75
1258.244	1330.75
1263.124	1311.75
1268	1310.75
1272.871	1270.75
1277.737	1275.75
1282.599	1256.75
1287.455	1270.75
1292.306	1274.75
1297.153	1288.75
1301.995	1281.75
1306.832	1301.75
1311.664	1299.75
1316.491	1316.75
1321.314	1299.75
1326.132	1288.75
1330.945	1294.75
1335.753	1273.75
1340.556	1255.75
1345.354	1244.75
1350.148	1233.75
1354.937	1231.75
1359.722	1210.75
1364.501	1197.75
1369.276	1189.75
1374.046	1180.75
1378.811	1188.75
1383.572	1183.75
1388.327	1169.75
1393.079	1177.75
1397.825	1169.75
1402.567	1169.75
1407.304	1141.75
1412.036	1156.75
1416.764	1148.75
1421.487	1129.75
1426.205	1147.75
1430.919	1170.75
1435.628	1163.75
1440.333	1189.75
1445.032	1191.75
1449.727	1197.75
1454.418	1199.75
1459.104	1224.75
1463.785	1197.75
1468.462	1215.75
1473.134	1190.75
1477.802	1155.75
1482.465	1157.75
1487.123	1152.75
1491.777	1161.75
1496.426	1149.75
1501.071	1171.75
1505.711	1178.75
1510.347	1185.75
1514.978	1193.75
1519.604	1197.75
1524.226	1206.75
1528.844	1206.75
1533.457	1207.75
1538.065	1205.75
1542.669	1202.75
1547.269	1202.75
1551.864	1196.75
1556.454	1191.75
1561.041	1209.75
1565.622	1228.75
1570.199	1221.75
1574.772	1241.75
1579.34	1261.75
1583.904	1288.75
1588.464	1309.75
1593.019	1316.75
1597.569	1352.75
1602.115	1354.75
1606.657	1352.75
1611.195	1369.75
1615.728	1382.75
1620.256	1383.75
1624.78	1407.75
1629.3	1439.75
1633.816	1449.75
1638.327	1469.75
1642.834	1474.75
1647.336	1479.75
1651.834	1507.75
1656.328	1499.75
1660.817	1498.75
1665.302	1496.75
1669.783	1473.75
1674.259	1441.75
1678.732	1393.75
1683.199	1367.75
1687.663	1324.75
1692.122	1276.75
1696.577	1236.75
1701.028	1185.75
1705.474	1138.75
1709.917	1093.75
1714.355	1046.75
1718.788	1056.75
1723.218	1054.75
1727.643	1022.75
1732.064	1018.75
1736.481	989.75
1740.893	958.75
1745.301	943.75
1749.705	921.75
1754.105	904.75
1758.501	881.75
1762.893	857.75
1767.28	851.75
1771.663	844.75
1776.042	825.75
1780.417	830.75
1784.787	816.75
1789.154	838.75
1793.516	839.75
1797.874	831.75
1802.228	821.75
1806.578	819.75
1810.924	807.75
1815.266	798.75
1819.603	787.75
1823.937	779.75
1828.266	769.75
1832.591	765.75
1836.913	765.75
1841.23	759.75
1845.543	771.75
1849.852	749.75
1854.156	756.75
1858.457	749.75
1862.754	769.75
1867.047	764.75
1871.335	765.75
1875.62	772.75
1879.9	777.75
1884.177	773.75
1888.449	771.75
1892.718	758.75
1896.982	759.75
1901.243	764.75
1905.499	757.75
1909.752	769.75
1914	763.75
1918.245	758.75
1922.485	751.75
1926.722	754.75
1930.954	759.75
1935.183	762.75
1939.408	770.75
1943.628	765.75
1947.845	771.75
1952.058	754.75
1956.267	759.75
1960.472	748.75
1964.673	743.75
1968.87	736.75
1973.063	733.75
1977.252	720.75
1981.438	733.75
1985.619	716.75
1989.797	727.75
1993.971	719.75
1998.14	711.75
2002.306	720.75
2006.469	728.75
2010.627	738.75
2014.781	733.75
2018.932	738.75
2023.078	731.75
2027.221	724.75
2031.36	730.75
2035.495	722.75
2039.627	721.75
2043.754	717.75
2047.878	703.75
2051.998	707.75
2056.114	707.75
2060.226	707.75
2064.334	705.75
2068.439	719.75
2072.54	723.75
2076.637	730.75
2080.73	732.75
2084.82	726.75
2088.906	740.75
2092.988	737.75
2097.066	732.75
2101.14	718.75
2105.211	713.75
2109.278	718.75
2113.342	720.75
2117.401	716.75
2121.457	706.75
2125.509	696.75
2129.558	703.75
2133.602	685.75
2137.643	695.75
2141.681	698.75
2145.714	690.75
2149.744	688.75
2153.77	685.75
2157.793	691.75
2161.812	680.75
2165.827	657.75
2169.838	656.75
2173.846	658.75
2177.851	645.75
2181.851	638.75
2185.848	628.75
2189.841	626.75
2193.831	615.75
2197.817	618.75
2201.799	619.75
2205.778	602.75
2209.753	610.75
2213.725	613.75
2217.693	595.75
2221.657	605.75
2225.618	596.75
2229.575	603.75
2233.529	602.75
2237.479	598.75
2241.425	587.75
2245.368	584.75
2249.307	582.75
2253.243	569.75
2257.175	567.75
2261.104	549.75
2265.029	539.75
2268.95	552.75
2272.868	535.75
2276.783	532.75
2280.694	536.75
2284.601	517.75
2288.505	514.75
2292.405	512.75
2296.302	503.75
2300.195	495.75
2304.085	490.75
2307.971	475.75
2311.854	476.75
2315.734	476.75
2319.609	472.75
2323.482	458.75
2327.351	456.75
2331.216	452.75
2335.078	445.75
2338.937	446.75
2342.792	446.75
2346.643	440.75
2350.492	446.75
2354.336	440.75
2358.178	441.75
2362.015	435.75
2365.85	438.75
2369.681	437.75
2373.508	452.75
2377.333	450.75
2381.153	446.75
2384.971	439.75
2388.785	441.75
2392.595	431.75
2396.402	433.75
2400.206	432.75
2404.007	426.75
2407.804	430.75
2411.597	429.75
2415.388	419.75
2419.174	417.75
2422.958	421.75
2426.738	416.75
2430.515	421.75
2434.289	417.75
2438.059	413.75
2441.825	406.75
2445.589	411.75
2449.349	406.75
2453.106	405.75
2456.859	397.75
2460.61	402.75
2464.356	401.75
2468.1	391.75
2471.84	383.75
2475.577	396.75
2479.311	397.75
2483.041	396.75
2486.768	388.75
2490.492	382.75
2494.213	386.75
2497.93	385.75
2501.644	387.75
2505.355	383.75
2509.062	383.75
2512.766	383.75
2516.467	384.75
2520.165	382.75
2523.859	369.75
2527.551	375.75
2531.239	368.75
2534.923	380.75
2538.605	367.75
2542.283	372.75
2545.958	365.75
2549.63	357.75
2553.299	357.75
2556.964	354.75
2560.626	351.75
2564.285	360.75
2567.941	347.75
2571.594	353.75
2575.243	352.75
2578.89	334.75
2582.533	333.75
2586.173	333.75
2589.809	335.75
2593.443	332.75
2597.073	327.75
2600.701	328.75
2604.325	325.75
2607.946	321.75
2611.564	323.75
2615.178	326.75
2618.79	324.75
2622.398	323.75
2626.004	318.75
2629.606	316.75
2633.205	313.75
2636.801	318.75
2640.394	311.75
2643.983	309.75
2647.57	299.75
2651.153	293.75
2654.734	300.75
2658.311	294.75
2661.885	300.75
2665.456	300.75
2669.025	296.75
2672.589	291.75
2676.151	289.75
2679.71	292.75
2683.266	286.75
2686.819	275.75
2690.368	279.75
2693.915	279.75
2697.458	283.75
2700.999	277.75
2704.536	263.75
2708.071	255.75
2711.602	261.75
2715.13	260.75
2718.656	255.75
2722.178	263.75
2725.697	261.75
2729.214	268.75
2732.727	263.75
2736.237	267.75
2739.744	265.75
2743.249	254.75
2746.75	267.75
2750.248	268.75
2753.743	255.75
2757.236	258.75
2760.725	262.75
2764.211	260.75
2767.695	254.75
2771.175	247.75
2774.652	248.75
2778.127	247.75
2781.598	247.75
2785.067	245.75
2788.532	249.75
2791.995	247.75
2795.455	251.75
2798.911	243.75
2802.365	250.75
2805.816	252.75
2809.264	250.75
2812.709	250.75
2816.151	261.75
2819.59	262.75
2823.026	256.75
2826.46	251.75
2829.89	251.75
2833.318	261.75
2836.742	257.75
2840.164	266.75
2843.583	260.75
2846.999	259.75
2850.412	263.75
2853.822	270.75
2857.229	274.75
2860.634	282.75
2864.035	276.75
2867.434	284.75
2870.83	283.75
2874.223	285.75
2877.613	285.75
2881	294.75
2884.385	294.75
2887.766	294.75
2891.145	299.75
2894.521	306.75
2897.894	308.75
2901.264	304.75
2904.631	299.75
2907.996	305.75
2911.358	303.75
2914.717	306.75
2918.073	311.75
2921.426	319.75
2924.777	316.75
2928.124	321.75
2931.469	330.75
2934.811	334.75
2938.15	334.75
2941.487	349.75
2944.821	347.75
2948.152	347.75
2951.48	357.75
2954.805	365.75
2958.128	372.75
2961.447	365.75
2964.765	370.75
2968.079	371.75
2971.39	377.75
2974.699	382.75
2978.005	396.75
2981.308	410.75
2984.609	407.75
2987.907	419.75
2991.202	417.75
2994.494	446.75
2997.784	451.75
3001.07	461.75
3004.355	480.75
3007.636	487.75
3010.915	499.75
3014.191	508.75
3017.464	515.75
3020.734	511.75
3024.002	525.75
3027.267	534.75
3030.53	532.75
3033.789	542.75
3037.046	560.75
3040.301	568.75
3043.552	586.75
3046.801	597.75
3050.048	610.75
3053.291	621.75
3056.532	642.75
3059.771	666.75
3063.006	676.75
3066.239	704.75
3069.469	729.75
3072.697	750.75
3075.922	746.75
3079.144	784.75
3082.364	815.75
3085.581	816.75
3088.795	836.75
3092.007	841.75
3095.216	875.75
3098.423	876.75
3101.627	910.75
3104.828	926.75
3108.026	959.75
3111.222	970.75
3114.416	987.75
3117.607	994.75
3120.795	1014.75
3123.98	1055.75
3127.163	1082.75
3130.344	1116.75
3133.521	1109.75
3136.696	1152.75
3139.869	1182.75
3143.039	1187.75
3146.206	1220.75
3149.371	1208.75
3152.533	1222.75
3155.693	1236.75
3158.85	1259.75
3162.005	1270.75
3165.157	1260.75
3168.306	1268.75
3171.453	1276.75
3174.597	1276.75
3177.739	1279.75
3180.878	1298.75
3184.014	1288.75
3187.149	1276.75
3190.28	1301.75
3193.409	1302.75
3196.536	1301.75
3199.659	1298.75
3202.781	1307.75
3205.9	1311.75
3209.016	1319.75
3212.13	1310.75
3215.241	1309.75
3218.35	1290.75
3221.456	1282.75
3224.56	1276.75
3227.661	1259.75
3230.76	1252.75
3233.856	1239.75
3236.95	1206.75
3240.041	1216.75
3243.13	1205.75
3246.216	1184.75
3249.3	1180.75
3252.382	1188.75
3255.46	1156.75
3258.537	1160.75
3261.611	1146.75
3264.682	1161.75
3267.751	1142.75
3270.818	1145.75
3273.882	1130.75
3276.943	1133.75
3280.002	1119.75
3283.059	1110.75
3286.113	1094.75
3289.165	1089.75
3292.214	1076.75
3295.261	1060.75
3298.306	1040.75
3301.348	1026.75
3304.387	1015.75
3307.425	988.75
3310.459	986.75
3313.492	976.75
3316.521	964.75
3319.549	958.75
3322.574	944.75
3325.597	937.75
3328.617	917.75
3331.635	917.75
3334.65	902.75
3337.663	912.75
3340.674	902.75
3343.682	899.75
3346.688	893.75
3349.691	905.75
3352.692	895.75
3355.691	883.75
3358.687	881.75
3361.681	875.75
3364.673	852.75
3367.662	842.75
3370.649	828.75
3373.633	828.75
3376.615	803.75
3379.595	799.75
3382.572	797.75
3385.547	784.75
3388.52	772.75
3391.49	751.75
3394.458	750.75
3397.424	747.75
3400.387	735.75
3403.348	741.75
3406.307	714.75
3409.263	715.75
3412.217	705.75
3415.168	699.75
3418.118	693.75
3421.065	690.75
3424.009	678.75
3426.951	680.75
3429.891	657.75
3432.829	638.75
3435.764	636.75
3438.697	617.75
3441.628	599.75
3444.557	594.75
3447.483	582.75
3450.407	560.75
3453.328	543.75
3456.247	539.75
3459.164	523.75
3462.079	509.75
3464.991	486.75
3467.902	483.75
3470.809	455.75
3473.715	450.75
3476.618	432.75
3479.519	424.75
3482.418	416.75
3485.315	396.75
3488.209	397.75
3491.101	380.75
3493.99	365.75
3496.878	369.75
3499.763	351.75
3502.646	341.75
3505.527	341.75
3508.405	315.75
3511.281	308.75
3514.155	293.75
3517.027	279.75
3519.897	258.75
3522.764	263.75
3525.629	247.75
3528.492	235.75
3531.352	221.75
3534.211	216.75
3537.067	192.75
3539.921	189.75
3542.773	190.75
3545.622	170.75
3548.469	159.75
3551.315	158.75
3554.157	149.75
3556.998	142.75
3559.837	135.75
3562.673	124.75
3565.507	118.75
3568.339	116.75
3571.169	108.75
3573.996	99.75
3576.822	100.75
3579.645	94.75
3582.466	81.75
3585.285	84.75
3588.101	73.75
3590.916	63.75
3593.728	57.75
3596.538	53.75
3599.346	56.75
3602.152	51.75
3604.956	50.75
3607.757	42.75
3610.556	37.75
3613.354	31.75
3616.149	25.75
3618.942	21.75
3621.732	21.75
3624.521	18.75
3627.307	15.75
3630.092	12.75
3632.874	12.75
3635.654	5.75
3638.432	5.75
3641.208	2.75
3643.982	-0.25
3646.753	-4.25
3649.523	-1.25
3652.29	-5.25
3655.055	-13.25
3657.818	-11.25
3660.579	-14.25
3663.338	-18.25
3666.095	-18.25
3668.849	-30.25
3671.602	-26.25
3674.352	-33.25
3677.101	-26.25
3679.847	-35.25
3682.591	-29.25
3685.333	-33.25
3688.073	-38.25
3690.811	-40.25
3693.547	-39.25
3696.281	-45.25
3699.013	-42.25
3701.742	-41.25
3704.47	-41.25
3707.195	-42.25
3709.919	-46.25
3712.64	-51.25
3715.359	-50.25
3718.076	-50.25
3720.792	-54.25
3723.505	-49.25
3726.216	-52.25
3728.925	-55.25
3731.632	-56.25
3734.336	-54.25
3737.039	-57.25
3739.74	-58.25
3742.439	-57.25
3745.136	-62.25
3747.83	-59.25
3750.523	-61.25
3753.213	-60.25
3755.902	-59.25
3758.589	-59.25
3761.273	-59.25
3763.956	-61.25
3766.636	-60.25
3769.315	-62.25
3771.991	-68.25
3774.665	-64.25
3777.338	-64.25
3780.008	-61.25
3782.677	-63.25
3785.343	-63.25
3788.007	-65.25
3790.67	-65.25
3793.33	-67.25
3795.989	-70.25
3798.645	-68.25
3801.299	-63.25
3803.952	-64.25
3806.602	-66.25
3809.251	-66.25
3811.897	-69.25
3814.542	-74.25
3817.184	-67.25
3819.825	-72.25
3822.463	-67.25
3825.1	-72.25
3827.735	-69.25
3830.367	-74.25
3832.998	-69.25
3835.627	-73.25
3838.253	-71.25
3840.878	-73.25
3843.501	-72.25
3846.122	-72.25
3848.741	-73.25
3851.358	-77.25
3853.973	-70.25
3856.586	-72.25
3859.197	-76.25
3861.806	-77.25
3864.414	-74.25
3867.019	-74.25
3869.622	-69.25
3872.224	-70.25
3874.823	-73.25
3877.421	-71.25
3880.016	-73.25
3882.61	-72.25
3885.202	-69.25
3887.792	-68.25
3890.38	-69.25
3892.966	-71.25
3895.55	-70.25
3898.132	-76.25
3900.713	-76.25
3903.291	-79.25
3905.868	-75.25
3908.442	-78.25
3911.015	-79.25
3913.586	-78.25
3916.155	-76.25
3918.722	-77.25
3921.287	-77.25
3923.85	-77.25
3926.411	-77.25
3928.971	-76.25
3931.528	-79.25
3934.084	-80.25
3936.638	-79.25
3939.19	-78.25
3941.74	-74.25
3944.288	-80.25
3946.834	-77.25
3949.378	-79.25
3951.921	-80.25
3954.462	-78.25
3957	-75.25
3959.537	-75.25
3962.072	-72.25
3964.606	-76.25
3967.137	-76.25
3969.667	-78.25
3972.194	-78.25
3974.72	-83.25
3977.244	-74.25
3979.766	-75.25
3982.286	-73.25
3984.805	-76.25
3987.321	-78.25
3989.836	-77.25
3992.349	-76.25
3994.86	-74.25
3997.369	-72.25
3999.877	-74.25
4002.382	-76.25
4004.886	-78.25
4007.388	-77.25
4009.888	-75.25
4012.386	-74.25
4014.883	-77.25
4017.377	-79.25
4019.87	-76.25
4022.361	-77.25
4024.85	-77.25
4027.338	-74.25
4029.823	-70.25
4032.307	-73.25
4034.789	-77.25
4037.269	-78.25
4039.747	-84.25
4042.224	-79.25
4044.699	-76.25
4047.172	-74.25
4049.643	-74.25
4052.112	-76.25
4054.58	-77.25
4057.046	-75.25
4059.51	-79.25
4061.972	-77.25
4064.432	-76.25
4066.891	-72.25
4069.348	-77.25
4071.803	-75.25
4074.256	-78.25
4076.708	-79.25
4079.158	-76.25
4081.606	-75.25
4084.052	-80.25
4086.497	-76.25
4088.939	-75.25
4091.38	-76.25
4093.819	-77.25
4096.257	-80.25
4098.693	-83.25
4101.127	-81.25
4103.559	-78.25
4105.989	-25.25
4108.418	-20.25
4110.845	-20.25
4113.27	-21.25
4115.694	-14.25
4118.115	-10.25
4120.535	-77.25
4122.954	-73.25
4125.37	-75.25
4127.785	-77.25
4130.198	-77.25
4132.609	-77.25
4135.019	-81.25
4137.427	-80.25
4139.833	-77.25
4142.237	-80.25
