Data from 1000CFU1_B_ramanshift_RamanShift_14-55-47-719.txt Node
Date: Sun Dec 25 14:55:47 IST 2016
User: aro
Spectrometer: QEPB0276
Trigger mode: 0
Integration Time (sec): 5.000000E0
Scans to average: 1
Electric dark correction enabled: true
Nonlinearity correction enabled: false
Boxcar width: 0
XAxis mode: Raman Shifts
Number of Pixels in Spectrum: 1044
>>>>>Begin Spectral Data<<<<<
160.701	-0.62
166.742	23.38
172.777	68.38
178.805	223.38
184.826	641.38
190.841	1536.38
196.849	2850.38
202.85	4078.38
208.845	4702.38
214.833	4722.38
220.815	4557.38
226.789	4397.38
232.758	4283.38
238.719	4153.38
244.674	4016.38
250.623	3892.38
256.565	3708.38
262.5	3561.38
268.429	3391.38
274.351	3251.38
280.267	3123.38
286.176	2985.38
292.079	2890.38
297.975	2787.38
303.865	2691.38
309.748	2639.38
315.625	2576.38
321.495	2509.38
327.359	2460.38
333.217	2439.38
339.068	2383.38
344.912	2386.38
350.751	2363.38
356.583	2356.38
362.408	2353.38
368.227	2352.38
374.04	2359.38
379.847	2371.38
385.647	2368.38
391.44	2377.38
397.228	2396.38
403.009	2408.38
408.784	2418.38
414.553	2448.38
420.315	2449.38
426.071	2458.38
431.821	2462.38
437.565	2452.38
443.302	2449.38
449.033	2422.38
454.758	2435.38
460.477	2443.38
466.189	2417.38
471.896	2424.38
477.596	2391.38
483.29	2384.38
488.978	2382.38
494.66	2379.38
500.335	2368.38
506.005	2343.38
511.668	2283.38
517.325	2245.38
522.977	2231.38
528.622	2182.38
534.261	2176.38
539.894	2155.38
545.521	2136.38
551.141	2118.38
556.756	2114.38
562.365	2107.38
567.968	2097.38
573.565	2093.38
579.155	2067.38
584.74	2058.38
590.319	2042.38
595.892	2027.38
601.459	2025.38
607.02	2023.38
612.575	2017.38
618.124	1990.38
623.667	1963.38
629.204	1949.38
634.735	1944.38
640.261	1915.38
645.781	1903.38
651.294	1910.38
656.802	1879.38
662.304	1875.38
667.8	1891.38
673.29	1875.38
678.775	1860.38
684.254	1866.38
689.726	1830.38
695.193	1833.38
700.655	1844.38
706.11	1829.38
711.56	1822.38
717.004	1790.38
722.442	1792.38
727.874	1782.38
733.301	1777.38
738.722	1789.38
744.137	1760.38
749.547	1744.38
754.951	1740.38
760.349	1745.38
765.741	1747.38
771.128	1744.38
776.509	1739.38
781.885	1750.38
787.254	1744.38
792.618	1733.38
797.977	1745.38
803.33	1722.38
808.677	1733.38
814.019	1704.38
819.355	1669.38
824.686	1665.38
830.011	1647.38
835.33	1641.38
840.644	1650.38
845.952	1653.38
851.255	1638.38
856.552	1656.38
861.844	1617.38
867.13	1607.38
872.41	1616.38
877.686	1620.38
882.955	1644.38
888.219	1627.38
893.478	1584.38
898.731	1525.38
903.979	1531.38
909.221	1495.38
914.458	1485.38
919.69	1460.38
924.916	1452.38
930.136	1461.38
935.351	1456.38
940.561	1460.38
945.766	1440.38
950.965	1444.38
956.158	1457.38
961.347	1429.38
966.529	1402.38
971.707	1400.38
976.879	1380.38
982.046	1359.38
987.208	1349.38
992.364	1349.38
997.515	1342.38
1002.66	1353.38
1007.801	1351.38
1012.936	1388.38
1018.066	1389.38
1023.19	1414.38
1028.309	1405.38
1033.423	1407.38
1038.532	1413.38
1043.636	1395.38
1048.734	1398.38
1053.827	1368.38
1058.915	1357.38
1063.998	1361.38
1069.075	1351.38
1074.147	1361.38
1079.214	1347.38
1084.276	1360.38
1089.333	1384.38
1094.385	1394.38
1099.431	1384.38
1104.472	1391.38
1109.509	1395.38
1114.54	1371.38
1119.565	1353.38
1124.586	1360.38
1129.602	1327.38
1134.613	1315.38
1139.618	1306.38
1144.619	1303.38
1149.614	1314.38
1154.604	1332.38
1159.589	1321.38
1164.57	1345.38
1169.545	1332.38
1174.515	1339.38
1179.48	1346.38
1184.44	1333.38
1189.395	1322.38
1194.345	1308.38
1199.29	1317.38
1204.23	1305.38
1209.165	1311.38
1214.095	1321.38
1219.021	1337.38
1223.941	1345.38
1228.856	1349.38
1233.766	1359.38
1238.672	1359.38
1243.572	1351.38
1248.467	1358.38
1253.358	1339.38
1258.244	1322.38
1263.124	1314.38
1268	1309.38
1272.871	1280.38
1277.737	1274.38
1282.599	1254.38
1287.455	1275.38
1292.306	1259.38
1297.153	1257.38
1301.995	1283.38
1306.832	1301.38
1311.664	1290.38
1316.491	1289.38
1321.314	1282.38
1326.132	1298.38
1330.945	1293.38
1335.753	1269.38
1340.556	1242.38
1345.354	1238.38
1350.148	1228.38
1354.937	1226.38
1359.722	1220.38
1364.501	1200.38
1369.276	1187.38
1374.046	1183.38
1378.811	1159.38
1383.572	1155.38
1388.327	1142.38
1393.079	1164.38
1397.825	1161.38
1402.567	1164.38
1407.304	1158.38
1412.036	1135.38
1416.764	1137.38
1421.487	1135.38
1426.205	1142.38
1430.919	1150.38
1435.628	1161.38
1440.333	1176.38
1445.032	1175.38
1449.727	1196.38
1454.418	1220.38
1459.104	1212.38
1463.785	1210.38
1468.462	1206.38
1473.134	1156.38
1477.802	1161.38
1482.465	1153.38
1487.123	1135.38
1491.777	1165.38
1496.426	1142.38
1501.071	1159.38
1505.711	1157.38
1510.347	1164.38
1514.978	1188.38
1519.604	1175.38
1524.226	1195.38
1528.844	1186.38
1533.457	1198.38
1538.065	1186.38
1542.669	1190.38
1547.269	1176.38
1551.864	1182.38
1556.454	1184.38
1561.041	1203.38
1565.622	1211.38
1570.199	1220.38
1574.772	1236.38
1579.34	1245.38
1583.904	1257.38
1588.464	1286.38
1593.019	1311.38
1597.569	1328.38
1602.115	1337.38
1606.657	1345.38
1611.195	1358.38
1615.728	1354.38
1620.256	1358.38
1624.78	1383.38
1629.3	1400.38
1633.816	1408.38
1638.327	1442.38
1642.834	1450.38
1647.336	1470.38
1651.834	1487.38
1656.328	1496.38
1660.817	1505.38
1665.302	1455.38
1669.783	1449.38
1674.259	1419.38
1678.732	1378.38
1683.199	1355.38
1687.663	1306.38
1692.122	1267.38
1696.577	1225.38
1701.028	1173.38
1705.474	1117.38
1709.917	1074.38
1714.355	1064.38
1718.788	1037.38
1723.218	1022.38
1727.643	1022.38
1732.064	999.38
1736.481	988.38
1740.893	964.38
1745.301	929.38
1749.705	913.38
1754.105	897.38
1758.501	876.38
1762.893	849.38
1767.28	853.38
1771.663	837.38
1776.042	835.38
1780.417	834.38
1784.787	832.38
1789.154	831.38
1793.516	837.38
1797.874	841.38
1802.228	837.38
1806.578	822.38
1810.924	801.38
1815.266	803.38
1819.603	783.38
1823.937	764.38
1828.266	774.38
1832.591	770.38
1836.913	755.38
1841.23	760.38
1845.543	758.38
1849.852	752.38
1854.156	758.38
1858.457	768.38
1862.754	750.38
1867.047	752.38
1871.335	775.38
1875.62	767.38
1879.9	777.38
1884.177	777.38
1888.449	776.38
1892.718	777.38
1896.982	764.38
1901.243	753.38
1905.499	759.38
1909.752	762.38
1914	759.38
1918.245	746.38
1922.485	749.38
1926.722	739.38
1930.954	751.38
1935.183	757.38
1939.408	765.38
1943.628	764.38
1947.845	759.38
1952.058	762.38
1956.267	756.38
1960.472	743.38
1964.673	741.38
1968.87	729.38
1973.063	728.38
1977.252	727.38
1981.438	723.38
1985.619	721.38
1989.797	716.38
1993.971	719.38
1998.14	725.38
2002.306	722.38
2006.469	723.38
2010.627	742.38
2014.781	735.38
2018.932	740.38
2023.078	732.38
2027.221	720.38
2031.36	727.38
2035.495	729.38
2039.627	719.38
2043.754	717.38
2047.878	711.38
2051.998	699.38
2056.114	698.38
2060.226	707.38
2064.334	719.38
2068.439	708.38
2072.54	721.38
2076.637	715.38
2080.73	719.38
2084.82	730.38
2088.906	729.38
2092.988	720.38
2097.066	731.38
2101.14	715.38
2105.211	722.38
2109.278	725.38
2113.342	709.38
2117.401	694.38
2121.457	701.38
2125.509	713.38
2129.558	706.38
2133.602	695.38
2137.643	688.38
2141.681	681.38
2145.714	678.38
2149.744	685.38
2153.77	678.38
2157.793	688.38
2161.812	676.38
2165.827	661.38
2169.838	658.38
2173.846	650.38
2177.851	644.38
2181.851	640.38
2185.848	630.38
2189.841	618.38
2193.831	625.38
2197.817	625.38
2201.799	607.38
2205.778	616.38
2209.753	597.38
2213.725	612.38
2217.693	605.38
2221.657	613.38
2225.618	615.38
2229.575	602.38
2233.529	601.38
2237.479	595.38
2241.425	598.38
2245.368	601.38
2249.307	573.38
2253.243	565.38
2257.175	572.38
2261.104	560.38
2265.029	551.38
2268.95	551.38
2272.868	539.38
2276.783	550.38
2280.694	527.38
2284.601	520.38
2288.505	515.38
2292.405	511.38
2296.302	517.38
2300.195	501.38
2304.085	506.38
2307.971	487.38
2311.854	482.38
2315.734	476.38
2319.609	473.38
2323.482	464.38
2327.351	463.38
2331.216	448.38
2335.078	457.38
2338.937	445.38
2342.792	446.38
2346.643	445.38
2350.492	440.38
2354.336	444.38
2358.178	442.38
2362.015	449.38
2365.85	451.38
2369.681	438.38
2373.508	450.38
2377.333	434.38
2381.153	447.38
2384.971	448.38
2388.785	439.38
2392.595	439.38
2396.402	451.38
2400.206	431.38
2404.007	432.38
2407.804	442.38
2411.597	431.38
2415.388	425.38
2419.174	429.38
2422.958	426.38
2426.738	421.38
2430.515	427.38
2434.289	431.38
2438.059	424.38
2441.825	416.38
2445.589	423.38
2449.349	410.38
2453.106	405.38
2456.859	410.38
2460.61	412.38
2464.356	398.38
2468.1	391.38
2471.84	402.38
2475.577	401.38
2479.311	390.38
2483.041	386.38
2486.768	392.38
2490.492	395.38
2494.213	395.38
2497.93	390.38
2501.644	389.38
2505.355	389.38
2509.062	388.38
2512.766	393.38
2516.467	390.38
2520.165	387.38
2523.859	383.38
2527.551	378.38
2531.239	378.38
2534.923	366.38
2538.605	378.38
2542.283	374.38
2545.958	366.38
2549.63	372.38
2553.299	361.38
2556.964	363.38
2560.626	362.38
2564.285	361.38
2567.941	359.38
2571.594	354.38
2575.243	351.38
2578.89	346.38
2582.533	344.38
2586.173	350.38
2589.809	339.38
2593.443	337.38
2597.073	342.38
2600.701	337.38
2604.325	340.38
2607.946	331.38
2611.564	328.38
2615.178	330.38
2618.79	333.38
2622.398	337.38
2626.004	321.38
2629.606	315.38
2633.205	323.38
2636.801	317.38
2640.394	314.38
2643.983	315.38
2647.57	307.38
2651.153	301.38
2654.734	303.38
2658.311	311.38
2661.885	302.38
2665.456	297.38
2669.025	304.38
2672.589	296.38
2676.151	288.38
2679.71	289.38
2683.266	280.38
2686.819	289.38
2690.368	286.38
2693.915	284.38
2697.458	288.38
2700.999	278.38
2704.536	266.38
2708.071	274.38
2711.602	273.38
2715.13	269.38
2718.656	266.38
2722.178	270.38
2725.697	256.38
2729.214	265.38
2732.727	269.38
2736.237	268.38
2739.744	270.38
2743.249	265.38
2746.75	260.38
2750.248	271.38
2753.743	274.38
2757.236	269.38
2760.725	269.38
2764.211	263.38
2767.695	258.38
2771.175	248.38
2774.652	253.38
2778.127	250.38
2781.598	259.38
2785.067	260.38
2788.532	257.38
2791.995	255.38
2795.455	258.38
2798.911	261.38
2802.365	258.38
2805.816	259.38
2809.264	257.38
2812.709	263.38
2816.151	257.38
2819.59	264.38
2823.026	257.38
2826.46	255.38
2829.89	263.38
2833.318	261.38
2836.742	267.38
2840.164	262.38
2843.583	262.38
2846.999	261.38
2850.412	268.38
2853.822	270.38
2857.229	278.38
2860.634	280.38
2864.035	272.38
2867.434	286.38
2870.83	290.38
2874.223	295.38
2877.613	290.38
2881	292.38
2884.385	300.38
2887.766	297.38
2891.145	304.38
2894.521	305.38
2897.894	307.38
2901.264	301.38
2904.631	302.38
2907.996	317.38
2911.358	304.38
2914.717	312.38
2918.073	311.38
2921.426	313.38
2924.777	322.38
2928.124	323.38
2931.469	323.38
2934.811	334.38
2938.15	337.38
2941.487	352.38
2944.821	349.38
2948.152	357.38
2951.48	360.38
2954.805	360.38
2958.128	363.38
2961.447	361.38
2964.765	357.38
2968.079	362.38
2971.39	374.38
2974.699	384.38
2978.005	397.38
2981.308	401.38
2984.609	404.38
2987.907	420.38
2991.202	432.38
2994.494	442.38
2997.784	454.38
3001.07	453.38
3004.355	461.38
3007.636	475.38
3010.915	485.38
3014.191	491.38
3017.464	507.38
3020.734	511.38
3024.002	516.38
3027.267	520.38
3030.53	530.38
3033.789	532.38
3037.046	549.38
3040.301	563.38
3043.552	573.38
3046.801	579.38
3050.048	592.38
3053.291	606.38
3056.532	619.38
3059.771	645.38
3063.006	665.38
3066.239	690.38
3069.469	715.38
3072.697	722.38
3075.922	728.38
3079.144	751.38
3082.364	779.38
3085.581	783.38
3088.795	811.38
3092.007	825.38
3095.216	851.38
3098.423	851.38
3101.627	888.38
3104.828	888.38
3108.026	912.38
3111.222	958.38
3114.416	951.38
3117.607	968.38
3120.795	1003.38
3123.98	1016.38
3127.163	1046.38
3130.344	1070.38
3133.521	1085.38
3136.696	1111.38
3139.869	1118.38
3143.039	1152.38
3146.206	1165.38
3149.371	1190.38
3152.533	1187.38
3155.693	1192.38
3158.85	1213.38
3162.005	1213.38
3165.157	1224.38
3168.306	1224.38
3171.453	1207.38
3174.597	1225.38
3177.739	1244.38
3180.878	1256.38
3184.014	1249.38
3187.149	1242.38
3190.28	1248.38
3193.409	1254.38
3196.536	1252.38
3199.659	1259.38
3202.781	1254.38
3205.9	1272.38
3209.016	1269.38
3212.13	1261.38
3215.241	1266.38
3218.35	1240.38
3221.456	1236.38
3224.56	1229.38
3227.661	1220.38
3230.76	1199.38
3233.856	1183.38
3236.95	1173.38
3240.041	1154.38
3243.13	1152.38
3246.216	1143.38
3249.3	1130.38
3252.382	1126.38
3255.46	1127.38
3258.537	1104.38
3261.611	1099.38
3264.682	1113.38
3267.751	1095.38
3270.818	1082.38
3273.882	1086.38
3276.943	1074.38
3280.002	1074.38
3283.059	1075.38
3286.113	1063.38
3289.165	1038.38
3292.214	1030.38
3295.261	1025.38
3298.306	1010.38
3301.348	991.38
3304.387	968.38
3307.425	947.38
3310.459	941.38
3313.492	948.38
3316.521	923.38
3319.549	914.38
3322.574	902.38
3325.597	898.38
3328.617	882.38
3331.635	883.38
3334.65	880.38
3337.663	872.38
3340.674	859.38
3343.682	865.38
3346.688	854.38
3349.691	866.38
3352.692	856.38
3355.691	842.38
3358.687	843.38
3361.681	838.38
3364.673	824.38
3367.662	826.38
3370.649	804.38
3373.633	802.38
3376.615	788.38
3379.595	774.38
3382.572	768.38
3385.547	750.38
3388.52	744.38
3391.49	739.38
3394.458	724.38
3397.424	699.38
3400.387	705.38
3403.348	693.38
3406.307	687.38
3409.263	677.38
3412.217	681.38
3415.168	671.38
3418.118	661.38
3421.065	654.38
3424.009	652.38
3426.951	642.38
3429.891	625.38
3432.829	610.38
3435.764	610.38
3438.697	589.38
3441.628	581.38
3444.557	558.38
3447.483	543.38
3450.407	532.38
3453.328	533.38
3456.247	515.38
3459.164	497.38
3462.079	489.38
3464.991	474.38
3467.902	463.38
3470.809	444.38
3473.715	431.38
3476.618	425.38
3479.519	402.38
3482.418	387.38
3485.315	383.38
3488.209	367.38
3491.101	366.38
3493.99	356.38
3496.878	350.38
3499.763	333.38
3502.646	320.38
3505.527	314.38
3508.405	301.38
3511.281	282.38
3514.155	279.38
3517.027	274.38
3519.897	259.38
3522.764	245.38
3525.629	237.38
3528.492	220.38
3531.352	211.38
3534.211	209.38
3537.067	190.38
3539.921	185.38
3542.773	174.38
3545.622	168.38
3548.469	153.38
3551.315	149.38
3554.157	141.38
3556.998	133.38
3559.837	124.38
3562.673	118.38
3565.507	118.38
3568.339	109.38
3571.169	111.38
3573.996	95.38
3576.822	93.38
3579.645	89.38
3582.466	79.38
3585.285	78.38
3588.101	73.38
3590.916	69.38
3593.728	64.38
3596.538	55.38
3599.346	48.38
3602.152	46.38
3604.956	41.38
3607.757	38.38
3610.556	32.38
3613.354	36.38
3616.149	23.38
3618.942	26.38
3621.732	19.38
3624.521	18.38
3627.307	15.38
3630.092	10.38
3632.874	13.38
3635.654	6.38
3638.432	11.38
3641.208	2.38
3643.982	-0.62
3646.753	1.38
3649.523	-1.62
3652.29	-4.62
3655.055	-12.62
3657.818	-17.62
3660.579	-18.62
3663.338	-14.62
3666.095	-17.62
3668.849	-22.62
3671.602	-25.62
3674.352	-30.62
3677.101	-35.62
3679.847	-29.62
3682.591	-35.62
3685.333	-34.62
3688.073	-33.62
3690.811	-37.62
3693.547	-37.62
3696.281	-42.62
3699.013	-43.62
3701.742	-42.62
3704.47	-43.62
3707.195	-43.62
3709.919	-46.62
3712.64	-48.62
3715.359	-48.62
3718.076	-45.62
3720.792	-53.62
3723.505	-49.62
3726.216	-53.62
3728.925	-54.62
3731.632	-57.62
3734.336	-52.62
3737.039	-55.62
3739.74	-53.62
3742.439	-51.62
3745.136	-58.62
3747.83	-59.62
3750.523	-59.62
3753.213	-61.62
3755.902	-60.62
3758.589	-59.62
3761.273	-57.62
3763.956	-56.62
3766.636	-56.62
3769.315	-60.62
3771.991	-65.62
3774.665	-63.62
3777.338	-65.62
3780.008	-59.62
3782.677	-62.62
3785.343	-62.62
3788.007	-65.62
3790.67	-62.62
3793.33	-66.62
3795.989	-66.62
3798.645	-67.62
3801.299	-65.62
3803.952	-64.62
3806.602	-65.62
3809.251	-64.62
3811.897	-63.62
3814.542	-68.62
3817.184	-65.62
3819.825	-67.62
3822.463	-70.62
3825.1	-73.62
3827.735	-68.62
3830.367	-68.62
3832.998	-65.62
3835.627	-66.62
3838.253	-63.62
3840.878	-71.62
3843.501	-70.62
3846.122	-74.62
3848.741	-77.62
3851.358	-72.62
3853.973	-65.62
3856.586	-66.62
3859.197	-69.62
3861.806	-69.62
3864.414	-74.62
3867.019	-70.62
3869.622	-68.62
3872.224	-72.62
3874.823	-70.62
3877.421	-66.62
3880.016	-70.62
3882.61	-66.62
3885.202	-65.62
3887.792	-64.62
3890.38	-71.62
3892.966	-68.62
3895.55	-71.62
3898.132	-71.62
3900.713	-72.62
3903.291	-74.62
3905.868	-71.62
3908.442	-74.62
3911.015	-79.62
3913.586	-74.62
3916.155	-71.62
3918.722	-72.62
3921.287	-70.62
3923.85	-74.62
3926.411	-70.62
3928.971	-77.62
3931.528	-76.62
3934.084	-79.62
3936.638	-79.62
3939.19	-76.62
3941.74	-73.62
3944.288	-75.62
3946.834	-75.62
3949.378	-73.62
3951.921	-75.62
3954.462	-76.62
3957	-75.62
3959.537	-73.62
3962.072	-77.62
3964.606	-72.62
3967.137	-72.62
3969.667	-75.62
3972.194	-78.62
3974.72	-76.62
3977.244	-71.62
3979.766	-75.62
3982.286	-71.62
3984.805	-75.62
3987.321	-72.62
3989.836	-74.62
3992.349	-73.62
3994.86	-71.62
3997.369	-69.62
3999.877	-73.62
4002.382	-76.62
4004.886	-75.62
4007.388	-73.62
4009.888	-67.62
4012.386	-67.62
4014.883	-70.62
4017.377	-77.62
4019.87	-75.62
4022.361	-76.62
4024.85	-76.62
4027.338	-71.62
4029.823	-69.62
4032.307	-69.62
4034.789	-69.62
4037.269	-76.62
4039.747	-77.62
4042.224	-79.62
4044.699	-74.62
4047.172	-73.62
4049.643	-73.62
4052.112	-74.62
4054.58	-73.62
4057.046	-74.62
4059.51	-75.62
4061.972	-77.62
4064.432	-73.62
4066.891	-74.62
4069.348	-74.62
4071.803	-72.62
4074.256	-76.62
4076.708	-74.62
4079.158	-76.62
4081.606	-71.62
4084.052	-76.62
4086.497	-75.62
4088.939	-74.62
4091.38	-74.62
4093.819	-74.62
4096.257	-75.62
4098.693	-78.62
4101.127	-77.62
4103.559	-77.62
4105.989	-23.62
4108.418	-18.62
4110.845	-17.62
4113.27	-18.62
4115.694	-15.62
4118.115	-10.62
4120.535	-75.62
4122.954	-74.62
4125.37	-76.62
4127.785	-76.62
4130.198	-78.62
4132.609	-75.62
4135.019	-82.62
4137.427	-77.62
4139.833	-76.62
4142.237	-77.62
