Data from 10CFU1_A_ramanshift_RamanShift_14-03-45-551.txt Node
Date: Sun Dec 25 14:03:45 IST 2016
User: aro
Spectrometer: QEPB0276
Trigger mode: 0
Integration Time (sec): 5.000000E0
Scans to average: 1
Electric dark correction enabled: true
Nonlinearity correction enabled: false
Boxcar width: 0
XAxis mode: Raman Shifts
Number of Pixels in Spectrum: 1044
>>>>>Begin Spectral Data<<<<<
160.701	4.88
166.742	23.88
172.777	67.88
178.805	207.88
184.826	625.88
190.841	1496.88
196.849	2737.88
202.85	3922.88
208.845	4533.88
214.833	4558.88
220.815	4387.88
226.789	4254.88
232.758	4131.88
238.719	4030.88
244.674	3927.88
250.623	3778.88
256.565	3625.88
262.5	3460.88
268.429	3319.88
274.351	3189.88
280.267	3096.88
286.176	2985.88
292.079	2886.88
297.975	2801.88
303.865	2709.88
309.748	2642.88
315.625	2558.88
321.495	2517.88
327.359	2466.88
333.217	2442.88
339.068	2426.88
344.912	2382.88
350.751	2377.88
356.583	2364.88
362.408	2385.88
368.227	2384.88
374.04	2384.88
379.847	2386.88
385.647	2404.88
391.44	2401.88
397.228	2400.88
403.009	2446.88
408.784	2433.88
414.553	2472.88
420.315	2474.88
426.071	2478.88
431.821	2467.88
437.565	2478.88
443.302	2460.88
449.033	2457.88
454.758	2461.88
460.477	2449.88
466.189	2450.88
471.896	2446.88
477.596	2434.88
483.29	2410.88
488.978	2414.88
494.66	2425.88
500.335	2411.88
506.005	2367.88
511.668	2332.88
517.325	2316.88
522.977	2265.88
528.622	2237.88
534.261	2213.88
539.894	2200.88
545.521	2192.88
551.141	2169.88
556.756	2166.88
562.365	2149.88
567.968	2156.88
573.565	2140.88
579.155	2122.88
584.74	2119.88
590.319	2093.88
595.892	2079.88
601.459	2090.88
607.02	2070.88
612.575	2052.88
618.124	2026.88
623.667	2018.88
629.204	1995.88
634.735	1989.88
640.261	1958.88
645.781	1964.88
651.294	1981.88
656.802	1948.88
662.304	1947.88
667.8	1928.88
673.29	1927.88
678.775	1930.88
684.254	1922.88
689.726	1923.88
695.193	1895.88
700.655	1911.88
706.11	1884.88
711.56	1875.88
717.004	1870.88
722.442	1875.88
727.874	1852.88
733.301	1856.88
738.722	1846.88
744.137	1831.88
749.547	1830.88
754.951	1832.88
760.349	1816.88
765.741	1827.88
771.128	1820.88
776.509	1818.88
781.885	1833.88
787.254	1823.88
792.618	1816.88
797.977	1818.88
803.33	1787.88
808.677	1791.88
814.019	1755.88
819.355	1760.88
824.686	1728.88
830.011	1742.88
835.33	1724.88
840.644	1741.88
845.952	1721.88
851.255	1710.88
856.552	1694.88
861.844	1710.88
867.13	1705.88
872.41	1701.88
877.686	1692.88
882.955	1693.88
888.219	1674.88
893.478	1649.88
898.731	1629.88
903.979	1609.88
909.221	1581.88
914.458	1566.88
919.69	1558.88
924.916	1547.88
930.136	1527.88
935.351	1567.88
940.561	1556.88
945.766	1550.88
950.965	1545.88
956.158	1526.88
961.347	1512.88
966.529	1499.88
971.707	1501.88
976.879	1464.88
982.046	1460.88
987.208	1420.88
992.364	1440.88
997.515	1434.88
1002.66	1437.88
1007.801	1445.88
1012.936	1465.88
1018.066	1491.88
1023.19	1503.88
1028.309	1497.88
1033.423	1505.88
1038.532	1491.88
1043.636	1492.88
1048.734	1500.88
1053.827	1493.88
1058.915	1467.88
1063.998	1438.88
1069.075	1454.88
1074.147	1432.88
1079.214	1434.88
1084.276	1465.88
1089.333	1469.88
1094.385	1487.88
1099.431	1483.88
1104.472	1503.88
1109.509	1470.88
1114.54	1457.88
1119.565	1463.88
1124.586	1434.88
1129.602	1437.88
1134.613	1418.88
1139.618	1410.88
1144.619	1396.88
1149.614	1410.88
1154.604	1409.88
1159.589	1411.88
1164.57	1413.88
1169.545	1426.88
1174.515	1425.88
1179.48	1439.88
1184.44	1436.88
1189.395	1412.88
1194.345	1395.88
1199.29	1392.88
1204.23	1418.88
1209.165	1400.88
1214.095	1413.88
1219.021	1420.88
1223.941	1429.88
1228.856	1439.88
1233.766	1438.88
1238.672	1446.88
1243.572	1442.88
1248.467	1436.88
1253.358	1432.88
1258.244	1415.88
1263.124	1405.88
1268	1376.88
1272.871	1375.88
1277.737	1347.88
1282.599	1352.88
1287.455	1341.88
1292.306	1333.88
1297.153	1349.88
1301.995	1372.88
1306.832	1392.88
1311.664	1355.88
1316.491	1379.88
1321.314	1385.88
1326.132	1383.88
1330.945	1365.88
1335.753	1357.88
1340.556	1321.88
1345.354	1311.88
1350.148	1317.88
1354.937	1311.88
1359.722	1286.88
1364.501	1292.88
1369.276	1265.88
1374.046	1247.88
1378.811	1242.88
1383.572	1254.88
1388.327	1257.88
1393.079	1246.88
1397.825	1233.88
1402.567	1232.88
1407.304	1224.88
1412.036	1218.88
1416.764	1221.88
1421.487	1220.88
1426.205	1214.88
1430.919	1228.88
1435.628	1240.88
1440.333	1256.88
1445.032	1257.88
1449.727	1266.88
1454.418	1275.88
1459.104	1296.88
1463.785	1273.88
1468.462	1274.88
1473.134	1252.88
1477.802	1242.88
1482.465	1232.88
1487.123	1220.88
1491.777	1214.88
1496.426	1206.88
1501.071	1220.88
1505.711	1222.88
1510.347	1224.88
1514.978	1242.88
1519.604	1264.88
1524.226	1264.88
1528.844	1287.88
1533.457	1278.88
1538.065	1286.88
1542.669	1265.88
1547.269	1265.88
1551.864	1264.88
1556.454	1271.88
1561.041	1283.88
1565.622	1255.88
1570.199	1272.88
1574.772	1299.88
1579.34	1313.88
1583.904	1334.88
1588.464	1356.88
1593.019	1379.88
1597.569	1386.88
1602.115	1389.88
1606.657	1388.88
1611.195	1405.88
1615.728	1408.88
1620.256	1423.88
1624.78	1433.88
1629.3	1437.88
1633.816	1474.88
1638.327	1480.88
1642.834	1508.88
1647.336	1506.88
1651.834	1528.88
1656.328	1519.88
1660.817	1525.88
1665.302	1516.88
1669.783	1488.88
1674.259	1470.88
1678.732	1431.88
1683.199	1380.88
1687.663	1350.88
1692.122	1318.88
1696.577	1270.88
1701.028	1225.88
1705.474	1168.88
1709.917	1138.88
1714.355	1132.88
1718.788	1116.88
1723.218	1104.88
1727.643	1088.88
1732.064	1074.88
1736.481	1048.88
1740.893	1006.88
1745.301	998.88
1749.705	976.88
1754.105	955.88
1758.501	938.88
1762.893	928.88
1767.28	916.88
1771.663	905.88
1776.042	898.88
1780.417	888.88
1784.787	901.88
1789.154	897.88
1793.516	890.88
1797.874	899.88
1802.228	903.88
1806.578	886.88
1810.924	880.88
1815.266	852.88
1819.603	853.88
1823.937	840.88
1828.266	846.88
1832.591	837.88
1836.913	834.88
1841.23	831.88
1845.543	830.88
1849.852	815.88
1854.156	819.88
1858.457	822.88
1862.754	834.88
1867.047	825.88
1871.335	839.88
1875.62	837.88
1879.9	840.88
1884.177	850.88
1888.449	845.88
1892.718	838.88
1896.982	819.88
1901.243	827.88
1905.499	821.88
1909.752	820.88
1914	824.88
1918.245	823.88
1922.485	820.88
1926.722	805.88
1930.954	819.88
1935.183	806.88
1939.408	823.88
1943.628	824.88
1947.845	820.88
1952.058	824.88
1956.267	825.88
1960.472	805.88
1964.673	803.88
1968.87	807.88
1973.063	787.88
1977.252	785.88
1981.438	783.88
1985.619	773.88
1989.797	775.88
1993.971	780.88
1998.14	788.88
2002.306	796.88
2006.469	799.88
2010.627	795.88
2014.781	787.88
2018.932	795.88
2023.078	800.88
2027.221	797.88
2031.36	777.88
2035.495	778.88
2039.627	770.88
2043.754	771.88
2047.878	758.88
2051.998	755.88
2056.114	754.88
2060.226	769.88
2064.334	753.88
2068.439	781.88
2072.54	772.88
2076.637	770.88
2080.73	780.88
2084.82	778.88
2088.906	774.88
2092.988	786.88
2097.066	784.88
2101.14	774.88
2105.211	766.88
2109.278	765.88
2113.342	763.88
2117.401	750.88
2121.457	762.88
2125.509	746.88
2129.558	748.88
2133.602	737.88
2137.643	740.88
2141.681	741.88
2145.714	747.88
2149.744	728.88
2153.77	723.88
2157.793	726.88
2161.812	729.88
2165.827	710.88
2169.838	713.88
2173.846	707.88
2177.851	688.88
2181.851	683.88
2185.848	674.88
2189.841	678.88
2193.831	675.88
2197.817	655.88
2201.799	651.88
2205.778	661.88
2209.753	650.88
2213.725	646.88
2217.693	657.88
2221.657	656.88
2225.618	658.88
2229.575	641.88
2233.529	654.88
2237.479	645.88
2241.425	646.88
2245.368	632.88
2249.307	618.88
2253.243	610.88
2257.175	608.88
2261.104	594.88
2265.029	590.88
2268.95	590.88
2272.868	588.88
2276.783	578.88
2280.694	573.88
2284.601	563.88
2288.505	553.88
2292.405	551.88
2296.302	553.88
2300.195	544.88
2304.085	540.88
2307.971	526.88
2311.854	514.88
2315.734	515.88
2319.609	514.88
2323.482	501.88
2327.351	489.88
2331.216	489.88
2335.078	494.88
2338.937	490.88
2342.792	477.88
2346.643	470.88
2350.492	473.88
2354.336	477.88
2358.178	483.88
2362.015	481.88
2365.85	488.88
2369.681	484.88
2373.508	496.88
2377.333	479.88
2381.153	485.88
2384.971	478.88
2388.785	480.88
2392.595	484.88
2396.402	480.88
2400.206	476.88
2404.007	468.88
2407.804	467.88
2411.597	465.88
2415.388	463.88
2419.174	459.88
2422.958	456.88
2426.738	462.88
2430.515	455.88
2434.289	452.88
2438.059	457.88
2441.825	458.88
2445.589	449.88
2449.349	445.88
2453.106	446.88
2456.859	447.88
2460.61	435.88
2464.356	431.88
2468.1	432.88
2471.84	432.88
2475.577	424.88
2479.311	426.88
2483.041	424.88
2486.768	425.88
2490.492	418.88
2494.213	427.88
2497.93	429.88
2501.644	429.88
2505.355	416.88
2509.062	422.88
2512.766	425.88
2516.467	430.88
2520.165	413.88
2523.859	422.88
2527.551	409.88
2531.239	407.88
2534.923	397.88
2538.605	401.88
2542.283	401.88
2545.958	394.88
2549.63	391.88
2553.299	389.88
2556.964	381.88
2560.626	383.88
2564.285	387.88
2567.941	385.88
2571.594	378.88
2575.243	377.88
2578.89	375.88
2582.533	366.88
2586.173	364.88
2589.809	360.88
2593.443	374.88
2597.073	358.88
2600.701	359.88
2604.325	356.88
2607.946	360.88
2611.564	362.88
2615.178	361.88
2618.79	360.88
2622.398	348.88
2626.004	353.88
2629.606	343.88
2633.205	338.88
2636.801	339.88
2640.394	346.88
2643.983	343.88
2647.57	328.88
2651.153	332.88
2654.734	338.88
2658.311	326.88
2661.885	333.88
2665.456	327.88
2669.025	318.88
2672.589	323.88
2676.151	314.88
2679.71	312.88
2683.266	317.88
2686.819	320.88
2690.368	311.88
2693.915	304.88
2697.458	303.88
2700.999	295.88
2704.536	292.88
2708.071	294.88
2711.602	291.88
2715.13	291.88
2718.656	291.88
2722.178	290.88
2725.697	280.88
2729.214	282.88
2732.727	290.88
2736.237	294.88
2739.744	288.88
2743.249	289.88
2746.75	292.88
2750.248	286.88
2753.743	294.88
2757.236	283.88
2760.725	287.88
2764.211	277.88
2767.695	279.88
2771.175	272.88
2774.652	277.88
2778.127	280.88
2781.598	284.88
2785.067	273.88
2788.532	275.88
2791.995	276.88
2795.455	272.88
2798.911	274.88
2802.365	270.88
2805.816	284.88
2809.264	276.88
2812.709	280.88
2816.151	280.88
2819.59	272.88
2823.026	269.88
2826.46	270.88
2829.89	268.88
2833.318	275.88
2836.742	276.88
2840.164	284.88
2843.583	278.88
2846.999	282.88
2850.412	278.88
2853.822	288.88
2857.229	296.88
2860.634	287.88
2864.035	282.88
2867.434	286.88
2870.83	302.88
2874.223	305.88
2877.613	298.88
2881	310.88
2884.385	304.88
2887.766	301.88
2891.145	310.88
2894.521	311.88
2897.894	304.88
2901.264	311.88
2904.631	313.88
2907.996	320.88
2911.358	310.88
2914.717	312.88
2918.073	318.88
2921.426	320.88
2924.777	315.88
2928.124	336.88
2931.469	333.88
2934.811	336.88
2938.15	351.88
2941.487	350.88
2944.821	351.88
2948.152	354.88
2951.48	361.88
2954.805	364.88
2958.128	357.88
2961.447	357.88
2964.765	354.88
2968.079	371.88
2971.39	366.88
2974.699	376.88
2978.005	380.88
2981.308	389.88
2984.609	401.88
2987.907	404.88
2991.202	419.88
2994.494	432.88
2997.784	431.88
3001.07	445.88
3004.355	442.88
3007.636	463.88
3010.915	475.88
3014.191	481.88
3017.464	496.88
3020.734	500.88
3024.002	497.88
3027.267	512.88
3030.53	504.88
3033.789	515.88
3037.046	522.88
3040.301	539.88
3043.552	559.88
3046.801	560.88
3050.048	570.88
3053.291	595.88
3056.532	600.88
3059.771	617.88
3063.006	622.88
3066.239	659.88
3069.469	687.88
3072.697	696.88
3075.922	704.88
3079.144	723.88
3082.364	742.88
3085.581	757.88
3088.795	768.88
3092.007	779.88
3095.216	810.88
3098.423	809.88
3101.627	831.88
3104.828	851.88
3108.026	877.88
3111.222	886.88
3114.416	895.88
3117.607	940.88
3120.795	933.88
3123.98	961.88
3127.163	987.88
3130.344	995.88
3133.521	1018.88
3136.696	1040.88
3139.869	1070.88
3143.039	1082.88
3146.206	1087.88
3149.371	1117.88
3152.533	1119.88
3155.693	1134.88
3158.85	1139.88
3162.005	1150.88
3165.157	1152.88
3168.306	1150.88
3171.453	1150.88
3174.597	1160.88
3177.739	1164.88
3180.878	1171.88
3184.014	1162.88
3187.149	1178.88
3190.28	1170.88
3193.409	1166.88
3196.536	1181.88
3199.659	1184.88
3202.781	1181.88
3205.9	1198.88
3209.016	1184.88
3212.13	1193.88
3215.241	1192.88
3218.35	1164.88
3221.456	1168.88
3224.56	1149.88
3227.661	1147.88
3230.76	1138.88
3233.856	1116.88
3236.95	1110.88
3240.041	1092.88
3243.13	1102.88
3246.216	1081.88
3249.3	1069.88
3252.382	1070.88
3255.46	1053.88
3258.537	1055.88
3261.611	1059.88
3264.682	1040.88
3267.751	1045.88
3270.818	1034.88
3273.882	1027.88
3276.943	1039.88
3280.002	1010.88
3283.059	1011.88
3286.113	998.88
3289.165	977.88
3292.214	976.88
3295.261	963.88
3298.306	940.88
3301.348	936.88
3304.387	920.88
3307.425	905.88
3310.459	892.88
3313.492	885.88
3316.521	866.88
3319.549	867.88
3322.574	862.88
3325.597	849.88
3328.617	836.88
3331.635	827.88
3334.65	827.88
3337.663	829.88
3340.674	827.88
3343.682	822.88
3346.688	817.88
3349.691	804.88
3352.692	815.88
3355.691	808.88
3358.687	790.88
3361.681	792.88
3364.673	770.88
3367.662	772.88
3370.649	765.88
3373.633	741.88
3376.615	743.88
3379.595	731.88
3382.572	726.88
3385.547	704.88
3388.52	691.88
3391.49	693.88
3394.458	672.88
3397.424	672.88
3400.387	676.88
3403.348	658.88
3406.307	655.88
3409.263	651.88
3412.217	647.88
3415.168	640.88
3418.118	627.88
3421.065	623.88
3424.009	624.88
3426.951	604.88
3429.891	590.88
3432.829	581.88
3435.764	578.88
3438.697	569.88
3441.628	563.88
3444.557	536.88
3447.483	520.88
3450.407	502.88
3453.328	493.88
3456.247	490.88
3459.164	473.88
3462.079	449.88
3464.991	443.88
3467.902	433.88
3470.809	419.88
3473.715	403.88
3476.618	395.88
3479.519	378.88
3482.418	377.88
3485.315	366.88
3488.209	356.88
3491.101	342.88
3493.99	328.88
3496.878	330.88
3499.763	318.88
3502.646	314.88
3505.527	303.88
3508.405	291.88
3511.281	268.88
3514.155	269.88
3517.027	261.88
3519.897	245.88
3522.764	247.88
3525.629	224.88
3528.492	224.88
3531.352	204.88
3534.211	201.88
3537.067	183.88
3539.921	179.88
3542.773	167.88
3545.622	160.88
3548.469	149.88
3551.315	140.88
3554.157	134.88
3556.998	130.88
3559.837	120.88
3562.673	113.88
3565.507	111.88
3568.339	108.88
3571.169	106.88
3573.996	94.88
3576.822	90.88
3579.645	83.88
3582.466	81.88
3585.285	76.88
3588.101	66.88
3590.916	56.88
3593.728	54.88
3596.538	57.88
3599.346	55.88
3602.152	48.88
3604.956	43.88
3607.757	37.88
3610.556	32.88
3613.354	29.88
3616.149	23.88
3618.942	23.88
3621.732	23.88
3624.521	19.88
3627.307	19.88
3630.092	17.88
3632.874	15.88
3635.654	7.88
3638.432	2.88
3641.208	2.88
3643.982	-0.12
3646.753	-0.12
3649.523	-1.12
3652.29	-5.12
3655.055	-7.12
3657.818	-12.12
3660.579	-14.12
3663.338	-13.12
3666.095	-18.12
3668.849	-18.12
3671.602	-23.12
3674.352	-24.12
3677.101	-27.12
3679.847	-29.12
3682.591	-30.12
3685.333	-31.12
3688.073	-33.12
3690.811	-33.12
3693.547	-37.12
3696.281	-39.12
3699.013	-39.12
3701.742	-39.12
3704.47	-41.12
3707.195	-42.12
3709.919	-43.12
3712.64	-49.12
3715.359	-43.12
3718.076	-47.12
3720.792	-50.12
3723.505	-46.12
3726.216	-48.12
3728.925	-50.12
3731.632	-56.12
3734.336	-47.12
3737.039	-58.12
3739.74	-50.12
3742.439	-51.12
3745.136	-52.12
3747.83	-51.12
3750.523	-58.12
3753.213	-56.12
3755.902	-55.12
3758.589	-55.12
3761.273	-58.12
3763.956	-55.12
3766.636	-54.12
3769.315	-57.12
3771.991	-59.12
3774.665	-58.12
3777.338	-57.12
3780.008	-59.12
3782.677	-58.12
3785.343	-60.12
3788.007	-63.12
3790.67	-59.12
3793.33	-59.12
3795.989	-61.12
3798.645	-60.12
3801.299	-60.12
3803.952	-63.12
3806.602	-62.12
3809.251	-66.12
3811.897	-65.12
3814.542	-66.12
3817.184	-59.12
3819.825	-64.12
3822.463	-63.12
3825.1	-65.12
3827.735	-62.12
3830.367	-70.12
3832.998	-66.12
3835.627	-65.12
3838.253	-64.12
3840.878	-66.12
3843.501	-64.12
3846.122	-65.12
3848.741	-69.12
3851.358	-71.12
3853.973	-67.12
3856.586	-65.12
3859.197	-68.12
3861.806	-66.12
3864.414	-70.12
3867.019	-67.12
3869.622	-63.12
3872.224	-64.12
3874.823	-69.12
3877.421	-67.12
3880.016	-69.12
3882.61	-65.12
3885.202	-60.12
3887.792	-64.12
3890.38	-65.12
3892.966	-65.12
3895.55	-70.12
3898.132	-73.12
3900.713	-72.12
3903.291	-72.12
3905.868	-68.12
3908.442	-70.12
3911.015	-71.12
3913.586	-71.12
3916.155	-67.12
3918.722	-73.12
3921.287	-69.12
3923.85	-72.12
3926.411	-69.12
3928.971	-73.12
3931.528	-69.12
3934.084	-74.12
3936.638	-71.12
3939.19	-71.12
3941.74	-72.12
3944.288	-74.12
3946.834	-73.12
3949.378	-72.12
3951.921	-69.12
3954.462	-71.12
3957	-70.12
3959.537	-70.12
3962.072	-71.12
3964.606	-72.12
3967.137	-72.12
3969.667	-70.12
3972.194	-72.12
3974.72	-72.12
3977.244	-68.12
3979.766	-72.12
3982.286	-67.12
3984.805	-74.12
3987.321	-73.12
3989.836	-71.12
3992.349	-71.12
3994.86	-69.12
3997.369	-63.12
3999.877	-66.12
4002.382	-70.12
4004.886	-72.12
4007.388	-73.12
4009.888	-70.12
4012.386	-66.12
4014.883	-67.12
4017.377	-70.12
4019.87	-68.12
4022.361	-68.12
4024.85	-69.12
4027.338	-72.12
4029.823	-65.12
4032.307	-68.12
4034.789	-69.12
4037.269	-71.12
4039.747	-72.12
4042.224	-70.12
4044.699	-71.12
4047.172	-70.12
4049.643	-70.12
4052.112	-73.12
4054.58	-73.12
4057.046	-71.12
4059.51	-71.12
4061.972	-66.12
4064.432	-69.12
4066.891	-70.12
4069.348	-72.12
4071.803	-73.12
4074.256	-75.12
4076.708	-74.12
4079.158	-71.12
4081.606	-68.12
4084.052	-70.12
4086.497	-71.12
4088.939	-70.12
4091.38	-73.12
4093.819	-72.12
4096.257	-75.12
4098.693	-76.12
4101.127	-76.12
4103.559	-73.12
4105.989	-23.12
4108.418	-19.12
4110.845	-17.12
4113.27	-17.12
4115.694	-13.12
4118.115	-6.12
4120.535	-73.12
4122.954	-71.12
4125.37	-68.12
4127.785	-71.12
4130.198	-71.12
4132.609	-71.12
4135.019	-76.12
4137.427	-76.12
4139.833	-76.12
4142.237	-76.12
