Data from 10CFU2_B_ramanshift_RamanShift_14-50-12-751.txt Node
Date: Sun Dec 25 14:50:12 IST 2016
User: aro
Spectrometer: QEPB0276
Trigger mode: 0
Integration Time (sec): 5.000000E0
Scans to average: 1
Electric dark correction enabled: true
Nonlinearity correction enabled: false
Boxcar width: 0
XAxis mode: Raman Shifts
Number of Pixels in Spectrum: 1044
>>>>>Begin Spectral Data<<<<<
160.701	6.88
166.742	18.88
172.777	65.88
178.805	213.88
184.826	633.88
190.841	1526.88
196.849	2797.88
202.85	4048.88
208.845	4632.88
214.833	4665.88
220.815	4490.88
226.789	4355.88
232.758	4235.88
238.719	4091.88
244.674	3981.88
250.623	3830.88
256.565	3646.88
262.5	3516.88
268.429	3351.88
274.351	3236.88
280.267	3071.88
286.176	2990.88
292.079	2875.88
297.975	2784.88
303.865	2699.88
309.748	2610.88
315.625	2535.88
321.495	2473.88
327.359	2450.88
333.217	2395.88
339.068	2369.88
344.912	2359.88
350.751	2329.88
356.583	2348.88
362.408	2326.88
368.227	2328.88
374.04	2324.88
379.847	2332.88
385.647	2353.88
391.44	2370.88
397.228	2396.88
403.009	2391.88
408.784	2402.88
414.553	2409.88
420.315	2424.88
426.071	2410.88
431.821	2424.88
437.565	2412.88
443.302	2430.88
449.033	2407.88
454.758	2413.88
460.477	2404.88
466.189	2405.88
471.896	2397.88
477.596	2370.88
483.29	2354.88
488.978	2358.88
494.66	2362.88
500.335	2339.88
506.005	2303.88
511.668	2267.88
517.325	2243.88
522.977	2207.88
528.622	2183.88
534.261	2157.88
539.894	2138.88
545.521	2121.88
551.141	2111.88
556.756	2077.88
562.365	2064.88
567.968	2059.88
573.565	2084.88
579.155	2043.88
584.74	2034.88
590.319	2038.88
595.892	2016.88
601.459	2013.88
607.02	2007.88
612.575	1971.88
618.124	1957.88
623.667	1950.88
629.204	1933.88
634.735	1946.88
640.261	1902.88
645.781	1901.88
651.294	1883.88
656.802	1904.88
662.304	1879.88
667.8	1860.88
673.29	1861.88
678.775	1839.88
684.254	1853.88
689.726	1858.88
695.193	1827.88
700.655	1831.88
706.11	1820.88
711.56	1802.88
717.004	1809.88
722.442	1790.88
727.874	1781.88
733.301	1767.88
738.722	1759.88
744.137	1747.88
749.547	1747.88
754.951	1744.88
760.349	1745.88
765.741	1745.88
771.128	1740.88
776.509	1746.88
781.885	1732.88
787.254	1750.88
792.618	1729.88
797.977	1727.88
803.33	1718.88
808.677	1701.88
814.019	1686.88
819.355	1676.88
824.686	1678.88
830.011	1666.88
835.33	1642.88
840.644	1645.88
845.952	1642.88
851.255	1624.88
856.552	1629.88
861.844	1635.88
867.13	1604.88
872.41	1596.88
877.686	1583.88
882.955	1585.88
888.219	1566.88
893.478	1542.88
898.731	1525.88
903.979	1519.88
909.221	1486.88
914.458	1474.88
919.69	1459.88
924.916	1454.88
930.136	1462.88
935.351	1464.88
940.561	1442.88
945.766	1450.88
950.965	1447.88
956.158	1459.88
961.347	1442.88
966.529	1423.88
971.707	1394.88
976.879	1378.88
982.046	1359.88
987.208	1352.88
992.364	1349.88
997.515	1369.88
1002.66	1360.88
1007.801	1363.88
1012.936	1382.88
1018.066	1405.88
1023.19	1416.88
1028.309	1411.88
1033.423	1427.88
1038.532	1416.88
1043.636	1396.88
1048.734	1403.88
1053.827	1384.88
1058.915	1366.88
1063.998	1350.88
1069.075	1342.88
1074.147	1345.88
1079.214	1356.88
1084.276	1359.88
1089.333	1366.88
1094.385	1369.88
1099.431	1394.88
1104.472	1398.88
1109.509	1387.88
1114.54	1361.88
1119.565	1356.88
1124.586	1355.88
1129.602	1328.88
1134.613	1316.88
1139.618	1318.88
1144.619	1308.88
1149.614	1318.88
1154.604	1301.88
1159.589	1335.88
1164.57	1336.88
1169.545	1347.88
1174.515	1348.88
1179.48	1339.88
1184.44	1353.88
1189.395	1355.88
1194.345	1327.88
1199.29	1331.88
1204.23	1322.88
1209.165	1322.88
1214.095	1322.88
1219.021	1332.88
1223.941	1350.88
1228.856	1357.88
1233.766	1371.88
1238.672	1368.88
1243.572	1358.88
1248.467	1353.88
1253.358	1356.88
1258.244	1344.88
1263.124	1328.88
1268	1299.88
1272.871	1294.88
1277.737	1273.88
1282.599	1277.88
1287.455	1277.88
1292.306	1282.88
1297.153	1284.88
1301.995	1297.88
1306.832	1303.88
1311.664	1322.88
1316.491	1319.88
1321.314	1322.88
1326.132	1320.88
1330.945	1315.88
1335.753	1290.88
1340.556	1260.88
1345.354	1248.88
1350.148	1246.88
1354.937	1247.88
1359.722	1241.88
1364.501	1225.88
1369.276	1211.88
1374.046	1194.88
1378.811	1183.88
1383.572	1185.88
1388.327	1183.88
1393.079	1182.88
1397.825	1181.88
1402.567	1175.88
1407.304	1165.88
1412.036	1166.88
1416.764	1148.88
1421.487	1159.88
1426.205	1156.88
1430.919	1165.88
1435.628	1171.88
1440.333	1202.88
1445.032	1200.88
1449.727	1214.88
1454.418	1217.88
1459.104	1221.88
1463.785	1220.88
1468.462	1195.88
1473.134	1194.88
1477.802	1189.88
1482.465	1186.88
1487.123	1174.88
1491.777	1179.88
1496.426	1170.88
1501.071	1180.88
1505.711	1183.88
1510.347	1188.88
1514.978	1218.88
1519.604	1208.88
1524.226	1247.88
1528.844	1231.88
1533.457	1234.88
1538.065	1232.88
1542.669	1225.88
1547.269	1214.88
1551.864	1214.88
1556.454	1229.88
1561.041	1237.88
1565.622	1252.88
1570.199	1247.88
1574.772	1265.88
1579.34	1284.88
1583.904	1304.88
1588.464	1307.88
1593.019	1338.88
1597.569	1352.88
1602.115	1369.88
1606.657	1378.88
1611.195	1369.88
1615.728	1382.88
1620.256	1395.88
1624.78	1417.88
1629.3	1428.88
1633.816	1442.88
1638.327	1447.88
1642.834	1485.88
1647.336	1490.88
1651.834	1506.88
1656.328	1499.88
1660.817	1507.88
1665.302	1496.88
1669.783	1476.88
1674.259	1431.88
1678.732	1407.88
1683.199	1368.88
1687.663	1346.88
1692.122	1301.88
1696.577	1264.88
1701.028	1223.88
1705.474	1170.88
1709.917	1108.88
1714.355	1092.88
1718.788	1065.88
1723.218	1066.88
1727.643	1049.88
1732.064	1040.88
1736.481	1015.88
1740.893	986.88
1745.301	956.88
1749.705	944.88
1754.105	923.88
1758.501	919.88
1762.893	895.88
1767.28	886.88
1771.663	881.88
1776.042	863.88
1780.417	877.88
1784.787	857.88
1789.154	870.88
1793.516	882.88
1797.874	873.88
1802.228	861.88
1806.578	858.88
1810.924	846.88
1815.266	833.88
1819.603	802.88
1823.937	807.88
1828.266	809.88
1832.591	798.88
1836.913	791.88
1841.23	786.88
1845.543	790.88
1849.852	792.88
1854.156	800.88
1858.457	793.88
1862.754	789.88
1867.047	808.88
1871.335	807.88
1875.62	799.88
1879.9	808.88
1884.177	807.88
1888.449	802.88
1892.718	801.88
1896.982	802.88
1901.243	788.88
1905.499	801.88
1909.752	799.88
1914	793.88
1918.245	792.88
1922.485	789.88
1926.722	781.88
1930.954	808.88
1935.183	794.88
1939.408	799.88
1943.628	800.88
1947.845	801.88
1952.058	800.88
1956.267	792.88
1960.472	798.88
1964.673	784.88
1968.87	770.88
1973.063	765.88
1977.252	756.88
1981.438	758.88
1985.619	746.88
1989.797	755.88
1993.971	750.88
1998.14	765.88
2002.306	758.88
2006.469	762.88
2010.627	770.88
2014.781	771.88
2018.932	772.88
2023.078	768.88
2027.221	771.88
2031.36	762.88
2035.495	764.88
2039.627	748.88
2043.754	744.88
2047.878	749.88
2051.998	742.88
2056.114	746.88
2060.226	737.88
2064.334	743.88
2068.439	759.88
2072.54	762.88
2076.637	762.88
2080.73	756.88
2084.82	755.88
2088.906	759.88
2092.988	758.88
2097.066	762.88
2101.14	760.88
2105.211	758.88
2109.278	741.88
2113.342	742.88
2117.401	739.88
2121.457	742.88
2125.509	726.88
2129.558	726.88
2133.602	740.88
2137.643	722.88
2141.681	721.88
2145.714	722.88
2149.744	721.88
2153.77	713.88
2157.793	721.88
2161.812	718.88
2165.827	694.88
2169.838	697.88
2173.846	678.88
2177.851	670.88
2181.851	667.88
2185.848	667.88
2189.841	652.88
2193.831	646.88
2197.817	638.88
2201.799	640.88
2205.778	643.88
2209.753	634.88
2213.725	641.88
2217.693	630.88
2221.657	626.88
2225.618	634.88
2229.575	628.88
2233.529	641.88
2237.479	618.88
2241.425	623.88
2245.368	615.88
2249.307	592.88
2253.243	603.88
2257.175	597.88
2261.104	592.88
2265.029	579.88
2268.95	571.88
2272.868	563.88
2276.783	556.88
2280.694	553.88
2284.601	548.88
2288.505	544.88
2292.405	534.88
2296.302	535.88
2300.195	534.88
2304.085	519.88
2307.971	518.88
2311.854	502.88
2315.734	489.88
2319.609	487.88
2323.482	488.88
2327.351	485.88
2331.216	474.88
2335.078	482.88
2338.937	474.88
2342.792	472.88
2346.643	458.88
2350.492	459.88
2354.336	456.88
2358.178	464.88
2362.015	472.88
2365.85	473.88
2369.681	475.88
2373.508	471.88
2377.333	472.88
2381.153	469.88
2384.971	459.88
2388.785	450.88
2392.595	455.88
2396.402	456.88
2400.206	468.88
2404.007	451.88
2407.804	452.88
2411.597	459.88
2415.388	449.88
2419.174	445.88
2422.958	441.88
2426.738	447.88
2430.515	444.88
2434.289	452.88
2438.059	452.88
2441.825	433.88
2445.589	438.88
2449.349	428.88
2453.106	426.88
2456.859	434.88
2460.61	428.88
2464.356	440.88
2468.1	420.88
2471.84	413.88
2475.577	418.88
2479.311	418.88
2483.041	422.88
2486.768	417.88
2490.492	416.88
2494.213	408.88
2497.93	412.88
2501.644	424.88
2505.355	415.88
2509.062	411.88
2512.766	417.88
2516.467	408.88
2520.165	412.88
2523.859	405.88
2527.551	397.88
2531.239	399.88
2534.923	395.88
2538.605	400.88
2542.283	395.88
2545.958	388.88
2549.63	385.88
2553.299	380.88
2556.964	393.88
2560.626	383.88
2564.285	380.88
2567.941	382.88
2571.594	373.88
2575.243	377.88
2578.89	360.88
2582.533	365.88
2586.173	360.88
2589.809	361.88
2593.443	359.88
2597.073	354.88
2600.701	357.88
2604.325	354.88
2607.946	354.88
2611.564	352.88
2615.178	345.88
2618.79	350.88
2622.398	344.88
2626.004	346.88
2629.606	347.88
2633.205	333.88
2636.801	344.88
2640.394	334.88
2643.983	326.88
2647.57	335.88
2651.153	328.88
2654.734	324.88
2658.311	326.88
2661.885	319.88
2665.456	315.88
2669.025	307.88
2672.589	309.88
2676.151	308.88
2679.71	304.88
2683.266	304.88
2686.819	302.88
2690.368	305.88
2693.915	300.88
2697.458	296.88
2700.999	295.88
2704.536	289.88
2708.071	281.88
2711.602	298.88
2715.13	289.88
2718.656	278.88
2722.178	286.88
2725.697	277.88
2729.214	279.88
2732.727	280.88
2736.237	282.88
2739.744	283.88
2743.249	285.88
2746.75	286.88
2750.248	279.88
2753.743	285.88
2757.236	274.88
2760.725	288.88
2764.211	280.88
2767.695	270.88
2771.175	263.88
2774.652	269.88
2778.127	265.88
2781.598	267.88
2785.067	270.88
2788.532	267.88
2791.995	261.88
2795.455	268.88
2798.911	259.88
2802.365	266.88
2805.816	269.88
2809.264	273.88
2812.709	270.88
2816.151	270.88
2819.59	271.88
2823.026	270.88
2826.46	269.88
2829.89	271.88
2833.318	277.88
2836.742	274.88
2840.164	272.88
2843.583	275.88
2846.999	273.88
2850.412	272.88
2853.822	286.88
2857.229	292.88
2860.634	287.88
2864.035	288.88
2867.434	291.88
2870.83	303.88
2874.223	305.88
2877.613	301.88
2881	300.88
2884.385	303.88
2887.766	296.88
2891.145	299.88
2894.521	308.88
2897.894	319.88
2901.264	309.88
2904.631	305.88
2907.996	312.88
2911.358	306.88
2914.717	314.88
2918.073	308.88
2921.426	318.88
2924.777	325.88
2928.124	329.88
2931.469	327.88
2934.811	330.88
2938.15	343.88
2941.487	345.88
2944.821	342.88
2948.152	344.88
2951.48	354.88
2954.805	363.88
2958.128	360.88
2961.447	360.88
2964.765	374.88
2968.079	371.88
2971.39	382.88
2974.699	384.88
2978.005	397.88
2981.308	398.88
2984.609	410.88
2987.907	420.88
2991.202	423.88
2994.494	427.88
2997.784	446.88
3001.07	458.88
3004.355	463.88
3007.636	488.88
3010.915	500.88
3014.191	498.88
3017.464	508.88
3020.734	509.88
3024.002	513.88
3027.267	521.88
3030.53	532.88
3033.789	537.88
3037.046	553.88
3040.301	548.88
3043.552	577.88
3046.801	586.88
3050.048	606.88
3053.291	620.88
3056.532	628.88
3059.771	648.88
3063.006	676.88
3066.239	673.88
3069.469	709.88
3072.697	725.88
3075.922	744.88
3079.144	743.88
3082.364	782.88
3085.581	797.88
3088.795	810.88
3092.007	821.88
3095.216	849.88
3098.423	867.88
3101.627	886.88
3104.828	897.88
3108.026	925.88
3111.222	930.88
3114.416	963.88
3117.607	977.88
3120.795	993.88
3123.98	1022.88
3127.163	1052.88
3130.344	1075.88
3133.521	1091.88
3136.696	1127.88
3139.869	1139.88
3143.039	1153.88
3146.206	1153.88
3149.371	1183.88
3152.533	1200.88
3155.693	1205.88
3158.85	1222.88
3162.005	1222.88
3165.157	1216.88
3168.306	1229.88
3171.453	1227.88
3174.597	1219.88
3177.739	1237.88
3180.878	1246.88
3184.014	1226.88
3187.149	1248.88
3190.28	1240.88
3193.409	1243.88
3196.536	1247.88
3199.659	1249.88
3202.781	1261.88
3205.9	1253.88
3209.016	1257.88
3212.13	1259.88
3215.241	1262.88
3218.35	1245.88
3221.456	1239.88
3224.56	1225.88
3227.661	1214.88
3230.76	1207.88
3233.856	1175.88
3236.95	1166.88
3240.041	1149.88
3243.13	1152.88
3246.216	1154.88
3249.3	1140.88
3252.382	1124.88
3255.46	1122.88
3258.537	1114.88
3261.611	1117.88
3264.682	1105.88
3267.751	1097.88
3270.818	1101.88
3273.882	1107.88
3276.943	1094.88
3280.002	1083.88
3283.059	1059.88
3286.113	1065.88
3289.165	1044.88
3292.214	1022.88
3295.261	1004.88
3298.306	1011.88
3301.348	987.88
3304.387	968.88
3307.425	954.88
3310.459	939.88
3313.492	944.88
3316.521	917.88
3319.549	915.88
3322.574	911.88
3325.597	899.88
3328.617	878.88
3331.635	894.88
3334.65	887.88
3337.663	873.88
3340.674	877.88
3343.682	864.88
3346.688	851.88
3349.691	855.88
3352.692	849.88
3355.691	852.88
3358.687	830.88
3361.681	825.88
3364.673	822.88
3367.662	810.88
3370.649	812.88
3373.633	796.88
3376.615	779.88
3379.595	774.88
3382.572	768.88
3385.547	751.88
3388.52	738.88
3391.49	735.88
3394.458	724.88
3397.424	723.88
3400.387	707.88
3403.348	702.88
3406.307	688.88
3409.263	676.88
3412.217	671.88
3415.168	670.88
3418.118	659.88
3421.065	662.88
3424.009	653.88
3426.951	642.88
3429.891	625.88
3432.829	622.88
3435.764	602.88
3438.697	608.88
3441.628	586.88
3444.557	561.88
3447.483	558.88
3450.407	539.88
3453.328	526.88
3456.247	515.88
3459.164	498.88
3462.079	486.88
3464.991	469.88
3467.902	455.88
3470.809	442.88
3473.715	436.88
3476.618	421.88
3479.519	399.88
3482.418	391.88
3485.315	388.88
3488.209	377.88
3491.101	371.88
3493.99	356.88
3496.878	349.88
3499.763	339.88
3502.646	337.88
3505.527	306.88
3508.405	306.88
3511.281	293.88
3514.155	282.88
3517.027	272.88
3519.897	262.88
3522.764	252.88
3525.629	240.88
3528.492	224.88
3531.352	218.88
3534.211	209.88
3537.067	188.88
3539.921	183.88
3542.773	178.88
3545.622	172.88
3548.469	164.88
3551.315	151.88
3554.157	148.88
3556.998	139.88
3559.837	124.88
3562.673	123.88
3565.507	116.88
3568.339	115.88
3571.169	110.88
3573.996	99.88
3576.822	90.88
3579.645	90.88
3582.466	85.88
3585.285	83.88
3588.101	75.88
3590.916	65.88
3593.728	59.88
3596.538	60.88
3599.346	55.88
3602.152	48.88
3604.956	46.88
3607.757	43.88
3610.556	35.88
3613.354	30.88
3616.149	27.88
3618.942	28.88
3621.732	22.88
3624.521	21.88
3627.307	22.88
3630.092	10.88
3632.874	17.88
3635.654	2.88
3638.432	9.88
3641.208	2.88
3643.982	3.88
3646.753	-0.12
3649.523	-2.12
3652.29	-5.12
3655.055	-8.12
3657.818	-9.12
3660.579	-16.12
3663.338	-19.12
3666.095	-12.12
3668.849	-18.12
3671.602	-23.12
3674.352	-25.12
3677.101	-30.12
3679.847	-32.12
3682.591	-31.12
3685.333	-34.12
3688.073	-33.12
3690.811	-38.12
3693.547	-36.12
3696.281	-38.12
3699.013	-43.12
3701.742	-38.12
3704.47	-41.12
3707.195	-42.12
3709.919	-48.12
3712.64	-48.12
3715.359	-45.12
3718.076	-46.12
3720.792	-50.12
3723.505	-50.12
3726.216	-52.12
3728.925	-54.12
3731.632	-56.12
3734.336	-52.12
3737.039	-56.12
3739.74	-52.12
3742.439	-47.12
3745.136	-56.12
3747.83	-57.12
3750.523	-58.12
3753.213	-56.12
3755.902	-59.12
3758.589	-58.12
3761.273	-55.12
3763.956	-58.12
3766.636	-54.12
3769.315	-56.12
3771.991	-61.12
3774.665	-62.12
3777.338	-62.12
3780.008	-60.12
3782.677	-61.12
3785.343	-58.12
3788.007	-61.12
3790.67	-61.12
3793.33	-63.12
3795.989	-61.12
3798.645	-63.12
3801.299	-65.12
3803.952	-62.12
3806.602	-66.12
3809.251	-63.12
3811.897	-64.12
3814.542	-66.12
3817.184	-62.12
3819.825	-64.12
3822.463	-65.12
3825.1	-72.12
3827.735	-67.12
3830.367	-69.12
3832.998	-64.12
3835.627	-65.12
3838.253	-67.12
3840.878	-70.12
3843.501	-68.12
3846.122	-69.12
3848.741	-76.12
3851.358	-71.12
3853.973	-68.12
3856.586	-66.12
3859.197	-65.12
3861.806	-70.12
3864.414	-72.12
3867.019	-70.12
3869.622	-67.12
3872.224	-71.12
3874.823	-68.12
3877.421	-67.12
3880.016	-67.12
3882.61	-66.12
3885.202	-65.12
3887.792	-65.12
3890.38	-69.12
3892.966	-69.12
3895.55	-71.12
3898.132	-70.12
3900.713	-70.12
3903.291	-72.12
3905.868	-68.12
3908.442	-69.12
3911.015	-75.12
3913.586	-74.12
3916.155	-73.12
3918.722	-73.12
3921.287	-71.12
3923.85	-76.12
3926.411	-70.12
3928.971	-72.12
3931.528	-72.12
3934.084	-77.12
3936.638	-81.12
3939.19	-74.12
3941.74	-72.12
3944.288	-75.12
3946.834	-70.12
3949.378	-71.12
3951.921	-73.12
3954.462	-74.12
3957	-73.12
3959.537	-75.12
3962.072	-72.12
3964.606	-73.12
3967.137	-73.12
3969.667	-72.12
3972.194	-72.12
3974.72	-75.12
3977.244	-75.12
3979.766	-75.12
3982.286	-70.12
3984.805	-75.12
3987.321	-70.12
3989.836	-73.12
3992.349	-73.12
3994.86	-68.12
3997.369	-66.12
3999.877	-74.12
4002.382	-75.12
4004.886	-73.12
4007.388	-72.12
4009.888	-70.12
4012.386	-68.12
4014.883	-70.12
4017.377	-72.12
4019.87	-74.12
4022.361	-74.12
4024.85	-76.12
4027.338	-75.12
4029.823	-69.12
4032.307	-65.12
4034.789	-67.12
4037.269	-71.12
4039.747	-76.12
4042.224	-77.12
4044.699	-73.12
4047.172	-73.12
4049.643	-72.12
4052.112	-72.12
4054.58	-73.12
4057.046	-74.12
4059.51	-75.12
4061.972	-72.12
4064.432	-74.12
4066.891	-75.12
4069.348	-72.12
4071.803	-73.12
4074.256	-76.12
4076.708	-76.12
4079.158	-71.12
4081.606	-70.12
4084.052	-72.12
4086.497	-75.12
4088.939	-74.12
4091.38	-74.12
4093.819	-73.12
4096.257	-75.12
4098.693	-77.12
4101.127	-79.12
4103.559	-77.12
4105.989	-24.12
4108.418	-19.12
4110.845	-17.12
4113.27	-15.12
4115.694	-12.12
4118.115	-8.12
4120.535	-71.12
4122.954	-69.12
4125.37	-73.12
4127.785	-75.12
4130.198	-76.12
4132.609	-77.12
4135.019	-77.12
4137.427	-76.12
4139.833	-76.12
4142.237	-76.12
