Data from 10CFU3_B_ramanshift_RamanShift_14-51-22-745.txt Node
Date: Sun Dec 25 14:51:22 IST 2016
User: aro
Spectrometer: QEPB0276
Trigger mode: 0
Integration Time (sec): 5.000000E0
Scans to average: 1
Electric dark correction enabled: true
Nonlinearity correction enabled: false
Boxcar width: 0
XAxis mode: Raman Shifts
Number of Pixels in Spectrum: 1044
>>>>>Begin Spectral Data<<<<<
160.701	3.88
166.742	18.88
172.777	62.88
178.805	221.88
184.826	627.88
190.841	1507.88
196.849	2797.88
202.85	3977.88
208.845	4633.88
214.833	4634.88
220.815	4444.88
226.789	4303.88
232.758	4170.88
238.719	4058.88
244.674	3910.88
250.623	3772.88
256.565	3607.88
262.5	3448.88
268.429	3276.88
274.351	3138.88
280.267	3011.88
286.176	2894.88
292.079	2805.88
297.975	2683.88
303.865	2610.88
309.748	2531.88
315.625	2453.88
321.495	2397.88
327.359	2336.88
333.217	2308.88
339.068	2281.88
344.912	2261.88
350.751	2256.88
356.583	2231.88
362.408	2232.88
368.227	2230.88
374.04	2240.88
379.847	2254.88
385.647	2251.88
391.44	2280.88
397.228	2285.88
403.009	2299.88
408.784	2319.88
414.553	2314.88
420.315	2316.88
426.071	2315.88
431.821	2341.88
437.565	2316.88
443.302	2317.88
449.033	2322.88
454.758	2334.88
460.477	2317.88
466.189	2293.88
471.896	2295.88
477.596	2271.88
483.29	2259.88
488.978	2244.88
494.66	2249.88
500.335	2235.88
506.005	2208.88
511.668	2161.88
517.325	2134.88
522.977	2112.88
528.622	2092.88
534.261	2057.88
539.894	2030.88
545.521	2029.88
551.141	2027.88
556.756	2003.88
562.365	1980.88
567.968	1968.88
573.565	1954.88
579.155	1939.88
584.74	1933.88
590.319	1935.88
595.892	1921.88
601.459	1913.88
607.02	1901.88
612.575	1884.88
618.124	1862.88
623.667	1857.88
629.204	1812.88
634.735	1813.88
640.261	1798.88
645.781	1797.88
651.294	1802.88
656.802	1776.88
662.304	1772.88
667.8	1756.88
673.29	1753.88
678.775	1743.88
684.254	1756.88
689.726	1741.88
695.193	1738.88
700.655	1736.88
706.11	1706.88
711.56	1704.88
717.004	1697.88
722.442	1691.88
727.874	1676.88
733.301	1662.88
738.722	1661.88
744.137	1635.88
749.547	1639.88
754.951	1632.88
760.349	1625.88
765.741	1634.88
771.128	1654.88
776.509	1642.88
781.885	1646.88
787.254	1629.88
792.618	1627.88
797.977	1626.88
803.33	1621.88
808.677	1599.88
814.019	1598.88
819.355	1563.88
824.686	1547.88
830.011	1555.88
835.33	1539.88
840.644	1529.88
845.952	1524.88
851.255	1506.88
856.552	1512.88
861.844	1513.88
867.13	1499.88
872.41	1500.88
877.686	1480.88
882.955	1484.88
888.219	1458.88
893.478	1450.88
898.731	1416.88
903.979	1403.88
909.221	1366.88
914.458	1366.88
919.69	1342.88
924.916	1348.88
930.136	1352.88
935.351	1347.88
940.561	1341.88
945.766	1343.88
950.965	1339.88
956.158	1331.88
961.347	1305.88
966.529	1295.88
971.707	1279.88
976.879	1265.88
982.046	1255.88
987.208	1242.88
992.364	1222.88
997.515	1236.88
1002.66	1241.88
1007.801	1254.88
1012.936	1249.88
1018.066	1289.88
1023.19	1289.88
1028.309	1299.88
1033.423	1291.88
1038.532	1293.88
1043.636	1279.88
1048.734	1277.88
1053.827	1251.88
1058.915	1255.88
1063.998	1254.88
1069.075	1235.88
1074.147	1228.88
1079.214	1220.88
1084.276	1240.88
1089.333	1252.88
1094.385	1253.88
1099.431	1260.88
1104.472	1278.88
1109.509	1267.88
1114.54	1258.88
1119.565	1244.88
1124.586	1232.88
1129.602	1225.88
1134.613	1207.88
1139.618	1190.88
1144.619	1197.88
1149.614	1202.88
1154.604	1207.88
1159.589	1219.88
1164.57	1215.88
1169.545	1221.88
1174.515	1232.88
1179.48	1226.88
1184.44	1210.88
1189.395	1219.88
1194.345	1210.88
1199.29	1197.88
1204.23	1211.88
1209.165	1193.88
1214.095	1215.88
1219.021	1214.88
1223.941	1237.88
1228.856	1236.88
1233.766	1230.88
1238.672	1242.88
1243.572	1234.88
1248.467	1229.88
1253.358	1239.88
1258.244	1219.88
1263.124	1207.88
1268	1189.88
1272.871	1161.88
1277.737	1160.88
1282.599	1154.88
1287.455	1151.88
1292.306	1154.88
1297.153	1166.88
1301.995	1166.88
1306.832	1186.88
1311.664	1184.88
1316.491	1197.88
1321.314	1199.88
1326.132	1197.88
1330.945	1171.88
1335.753	1163.88
1340.556	1144.88
1345.354	1131.88
1350.148	1125.88
1354.937	1126.88
1359.722	1104.88
1364.501	1111.88
1369.276	1079.88
1374.046	1085.88
1378.811	1065.88
1383.572	1078.88
1388.327	1060.88
1393.079	1058.88
1397.825	1077.88
1402.567	1057.88
1407.304	1043.88
1412.036	1058.88
1416.764	1050.88
1421.487	1053.88
1426.205	1042.88
1430.919	1049.88
1435.628	1072.88
1440.333	1076.88
1445.032	1083.88
1449.727	1090.88
1454.418	1089.88
1459.104	1101.88
1463.785	1110.88
1468.462	1097.88
1473.134	1087.88
1477.802	1061.88
1482.465	1064.88
1487.123	1057.88
1491.777	1055.88
1496.426	1054.88
1501.071	1060.88
1505.711	1048.88
1510.347	1072.88
1514.978	1090.88
1519.604	1109.88
1524.226	1105.88
1528.844	1105.88
1533.457	1086.88
1538.065	1101.88
1542.669	1099.88
1547.269	1091.88
1551.864	1107.88
1556.454	1099.88
1561.041	1111.88
1565.622	1125.88
1570.199	1116.88
1574.772	1144.88
1579.34	1174.88
1583.904	1184.88
1588.464	1205.88
1593.019	1215.88
1597.569	1231.88
1602.115	1249.88
1606.657	1252.88
1611.195	1259.88
1615.728	1276.88
1620.256	1281.88
1624.78	1299.88
1629.3	1323.88
1633.816	1352.88
1638.327	1361.88
1642.834	1367.88
1647.336	1397.88
1651.834	1389.88
1656.328	1388.88
1660.817	1400.88
1665.302	1379.88
1669.783	1340.88
1674.259	1329.88
1678.732	1295.88
1683.199	1263.88
1687.663	1231.88
1692.122	1195.88
1696.577	1143.88
1701.028	1091.88
1705.474	1036.88
1709.917	1009.88
1714.355	974.88
1718.788	961.88
1723.218	961.88
1727.643	940.88
1732.064	936.88
1736.481	898.88
1740.893	884.88
1745.301	861.88
1749.705	842.88
1754.105	821.88
1758.501	813.88
1762.893	790.88
1767.28	786.88
1771.663	760.88
1776.042	757.88
1780.417	748.88
1784.787	755.88
1789.154	760.88
1793.516	757.88
1797.874	760.88
1802.228	766.88
1806.578	745.88
1810.924	740.88
1815.266	722.88
1819.603	715.88
1823.937	707.88
1828.266	706.88
1832.591	698.88
1836.913	686.88
1841.23	677.88
1845.543	692.88
1849.852	701.88
1854.156	686.88
1858.457	683.88
1862.754	689.88
1867.047	685.88
1871.335	692.88
1875.62	711.88
1879.9	716.88
1884.177	701.88
1888.449	705.88
1892.718	698.88
1896.982	703.88
1901.243	691.88
1905.499	676.88
1909.752	680.88
1914	688.88
1918.245	676.88
1922.485	682.88
1926.722	682.88
1930.954	687.88
1935.183	690.88
1939.408	696.88
1943.628	693.88
1947.845	696.88
1952.058	698.88
1956.267	678.88
1960.472	683.88
1964.673	673.88
1968.87	665.88
1973.063	664.88
1977.252	671.88
1981.438	662.88
1985.619	651.88
1989.797	663.88
1993.971	657.88
1998.14	657.88
2002.306	659.88
2006.469	663.88
2010.627	667.88
2014.781	669.88
2018.932	671.88
2023.078	671.88
2027.221	669.88
2031.36	673.88
2035.495	669.88
2039.627	663.88
2043.754	656.88
2047.878	653.88
2051.998	650.88
2056.114	637.88
2060.226	658.88
2064.334	647.88
2068.439	646.88
2072.54	672.88
2076.637	666.88
2080.73	662.88
2084.82	668.88
2088.906	666.88
2092.988	665.88
2097.066	667.88
2101.14	655.88
2105.211	652.88
2109.278	667.88
2113.342	643.88
2117.401	643.88
2121.457	652.88
2125.509	639.88
2129.558	642.88
2133.602	641.88
2137.643	632.88
2141.681	637.88
2145.714	627.88
2149.744	626.88
2153.77	629.88
2157.793	630.88
2161.812	615.88
2165.827	615.88
2169.838	603.88
2173.846	608.88
2177.851	586.88
2181.851	583.88
2185.848	583.88
2189.841	584.88
2193.831	568.88
2197.817	558.88
2201.799	570.88
2205.778	563.88
2209.753	569.88
2213.725	557.88
2217.693	562.88
2221.657	563.88
2225.618	546.88
2229.575	542.88
2233.529	548.88
2237.479	543.88
2241.425	545.88
2245.368	537.88
2249.307	520.88
2253.243	520.88
2257.175	505.88
2261.104	499.88
2265.029	508.88
2268.95	492.88
2272.868	502.88
2276.783	500.88
2280.694	487.88
2284.601	479.88
2288.505	460.88
2292.405	464.88
2296.302	452.88
2300.195	458.88
2304.085	452.88
2307.971	444.88
2311.854	441.88
2315.734	434.88
2319.609	425.88
2323.482	422.88
2327.351	411.88
2331.216	414.88
2335.078	412.88
2338.937	407.88
2342.792	408.88
2346.643	399.88
2350.492	401.88
2354.336	403.88
2358.178	392.88
2362.015	406.88
2365.85	394.88
2369.681	398.88
2373.508	400.88
2377.333	409.88
2381.153	411.88
2384.971	404.88
2388.785	403.88
2392.595	393.88
2396.402	392.88
2400.206	400.88
2404.007	397.88
2407.804	394.88
2411.597	393.88
2415.388	388.88
2419.174	380.88
2422.958	384.88
2426.738	377.88
2430.515	388.88
2434.289	377.88
2438.059	378.88
2441.825	374.88
2445.589	374.88
2449.349	378.88
2453.106	367.88
2456.859	377.88
2460.61	358.88
2464.356	359.88
2468.1	364.88
2471.84	355.88
2475.577	357.88
2479.311	354.88
2483.041	353.88
2486.768	355.88
2490.492	353.88
2494.213	360.88
2497.93	368.88
2501.644	360.88
2505.355	352.88
2509.062	366.88
2512.766	357.88
2516.467	358.88
2520.165	350.88
2523.859	343.88
2527.551	346.88
2531.239	334.88
2534.923	339.88
2538.605	338.88
2542.283	340.88
2545.958	326.88
2549.63	326.88
2553.299	328.88
2556.964	320.88
2560.626	325.88
2564.285	319.88
2567.941	324.88
2571.594	323.88
2575.243	329.88
2578.89	310.88
2582.533	311.88
2586.173	308.88
2589.809	304.88
2593.443	307.88
2597.073	306.88
2600.701	304.88
2604.325	302.88
2607.946	298.88
2611.564	302.88
2615.178	300.88
2618.79	299.88
2622.398	295.88
2626.004	294.88
2629.606	296.88
2633.205	281.88
2636.801	284.88
2640.394	281.88
2643.983	286.88
2647.57	267.88
2651.153	276.88
2654.734	269.88
2658.311	271.88
2661.885	270.88
2665.456	273.88
2669.025	274.88
2672.589	249.88
2676.151	258.88
2679.71	259.88
2683.266	263.88
2686.819	262.88
2690.368	261.88
2693.915	252.88
2697.458	260.88
2700.999	244.88
2704.536	255.88
2708.071	243.88
2711.602	245.88
2715.13	249.88
2718.656	236.88
2722.178	245.88
2725.697	235.88
2729.214	242.88
2732.727	241.88
2736.237	245.88
2739.744	241.88
2743.249	242.88
2746.75	243.88
2750.248	232.88
2753.743	239.88
2757.236	241.88
2760.725	244.88
2764.211	235.88
2767.695	238.88
2771.175	225.88
2774.652	229.88
2778.127	219.88
2781.598	226.88
2785.067	226.88
2788.532	234.88
2791.995	230.88
2795.455	227.88
2798.911	220.88
2802.365	235.88
2805.816	230.88
2809.264	240.88
2812.709	237.88
2816.151	236.88
2819.59	229.88
2823.026	231.88
2826.46	234.88
2829.89	238.88
2833.318	234.88
2836.742	234.88
2840.164	250.88
2843.583	233.88
2846.999	246.88
2850.412	244.88
2853.822	247.88
2857.229	258.88
2860.634	257.88
2864.035	249.88
2867.434	253.88
2870.83	259.88
2874.223	260.88
2877.613	261.88
2881	270.88
2884.385	275.88
2887.766	265.88
2891.145	267.88
2894.521	260.88
2897.894	272.88
2901.264	270.88
2904.631	275.88
2907.996	281.88
2911.358	280.88
2914.717	279.88
2918.073	287.88
2921.426	290.88
2924.777	289.88
2928.124	299.88
2931.469	311.88
2934.811	303.88
2938.15	305.88
2941.487	321.88
2944.821	317.88
2948.152	325.88
2951.48	326.88
2954.805	324.88
2958.128	339.88
2961.447	336.88
2964.765	345.88
2968.079	345.88
2971.39	345.88
2974.699	358.88
2978.005	364.88
2981.308	366.88
2984.609	381.88
2987.907	390.88
2991.202	409.88
2994.494	423.88
2997.784	423.88
3001.07	430.88
3004.355	441.88
3007.636	452.88
3010.915	460.88
3014.191	465.88
3017.464	492.88
3020.734	476.88
3024.002	501.88
3027.267	495.88
3030.53	502.88
3033.789	511.88
3037.046	532.88
3040.301	540.88
3043.552	562.88
3046.801	570.88
3050.048	571.88
3053.291	594.88
3056.532	609.88
3059.771	636.88
3063.006	639.88
3066.239	656.88
3069.469	694.88
3072.697	702.88
3075.922	723.88
3079.144	738.88
3082.364	762.88
3085.581	784.88
3088.795	802.88
3092.007	806.88
3095.216	825.88
3098.423	851.88
3101.627	871.88
3104.828	884.88
3108.026	891.88
3111.222	921.88
3114.416	927.88
3117.607	955.88
3120.795	978.88
3123.98	994.88
3127.163	1022.88
3130.344	1038.88
3133.521	1064.88
3136.696	1079.88
3139.869	1108.88
3143.039	1120.88
3146.206	1144.88
3149.371	1143.88
3152.533	1167.88
3155.693	1182.88
3158.85	1200.88
3162.005	1185.88
3165.157	1204.88
3168.306	1202.88
3171.453	1188.88
3174.597	1206.88
3177.739	1219.88
3180.878	1207.88
3184.014	1224.88
3187.149	1222.88
3190.28	1211.88
3193.409	1224.88
3196.536	1219.88
3199.659	1237.88
3202.781	1229.88
3205.9	1224.88
3209.016	1235.88
3212.13	1234.88
3215.241	1232.88
3218.35	1231.88
3221.456	1210.88
3224.56	1208.88
3227.661	1189.88
3230.76	1183.88
3233.856	1154.88
3236.95	1157.88
3240.041	1149.88
3243.13	1138.88
3246.216	1137.88
3249.3	1109.88
3252.382	1110.88
3255.46	1088.88
3258.537	1100.88
3261.611	1086.88
3264.682	1084.88
3267.751	1082.88
3270.818	1076.88
3273.882	1071.88
3276.943	1065.88
3280.002	1050.88
3283.059	1054.88
3286.113	1038.88
3289.165	1030.88
3292.214	1031.88
3295.261	993.88
3298.306	989.88
3301.348	972.88
3304.387	956.88
3307.425	938.88
3310.459	927.88
3313.492	919.88
3316.521	903.88
3319.549	907.88
3322.574	894.88
3325.597	875.88
3328.617	861.88
3331.635	860.88
3334.65	863.88
3337.663	854.88
3340.674	855.88
3343.682	850.88
3346.688	853.88
3349.691	850.88
3352.692	852.88
3355.691	830.88
3358.687	818.88
3361.681	824.88
3364.673	819.88
3367.662	781.88
3370.649	796.88
3373.633	796.88
3376.615	786.88
3379.595	765.88
3382.572	749.88
3385.547	738.88
3388.52	733.88
3391.49	712.88
3394.458	711.88
3397.424	705.88
3400.387	700.88
3403.348	694.88
3406.307	682.88
3409.263	675.88
3412.217	658.88
3415.168	670.88
3418.118	654.88
3421.065	645.88
3424.009	632.88
3426.951	632.88
3429.891	623.88
3432.829	611.88
3435.764	601.88
3438.697	586.88
3441.628	568.88
3444.557	564.88
3447.483	550.88
3450.407	538.88
3453.328	513.88
3456.247	496.88
3459.164	488.88
3462.079	484.88
3464.991	466.88
3467.902	459.88
3470.809	436.88
3473.715	426.88
3476.618	409.88
3479.519	405.88
3482.418	406.88
3485.315	384.88
3488.209	369.88
3491.101	359.88
3493.99	352.88
3496.878	341.88
3499.763	328.88
3502.646	329.88
3505.527	314.88
3508.405	304.88
3511.281	277.88
3514.155	271.88
3517.027	268.88
3519.897	259.88
3522.764	246.88
3525.629	236.88
3528.492	226.88
3531.352	210.88
3534.211	197.88
3537.067	190.88
3539.921	180.88
3542.773	176.88
3545.622	162.88
3548.469	154.88
3551.315	145.88
3554.157	138.88
3556.998	123.88
3559.837	123.88
3562.673	120.88
3565.507	115.88
3568.339	106.88
3571.169	102.88
3573.996	95.88
3576.822	96.88
3579.645	89.88
3582.466	80.88
3585.285	77.88
3588.101	69.88
3590.916	62.88
3593.728	58.88
3596.538	57.88
3599.346	55.88
3602.152	42.88
3604.956	44.88
3607.757	43.88
3610.556	37.88
3613.354	26.88
3616.149	18.88
3618.942	24.88
3621.732	24.88
3624.521	19.88
3627.307	20.88
3630.092	13.88
3632.874	13.88
3635.654	7.88
3638.432	4.88
3641.208	0.88
3643.982	-0.12
3646.753	-7.12
3649.523	2.88
3652.29	-2.12
3655.055	-7.12
3657.818	-15.12
3660.579	-13.12
3663.338	-14.12
3666.095	-16.12
3668.849	-23.12
3671.602	-22.12
3674.352	-30.12
3677.101	-28.12
3679.847	-32.12
3682.591	-34.12
3685.333	-37.12
3688.073	-35.12
3690.811	-33.12
3693.547	-37.12
3696.281	-37.12
3699.013	-37.12
3701.742	-40.12
3704.47	-42.12
3707.195	-44.12
3709.919	-44.12
3712.64	-47.12
3715.359	-45.12
3718.076	-49.12
3720.792	-47.12
3723.505	-50.12
3726.216	-52.12
3728.925	-52.12
3731.632	-56.12
3734.336	-51.12
3737.039	-55.12
3739.74	-54.12
3742.439	-49.12
3745.136	-53.12
3747.83	-54.12
3750.523	-59.12
3753.213	-55.12
3755.902	-57.12
3758.589	-55.12
3761.273	-60.12
3763.956	-57.12
3766.636	-58.12
3769.315	-56.12
3771.991	-64.12
3774.665	-65.12
3777.338	-63.12
3780.008	-61.12
3782.677	-61.12
3785.343	-60.12
3788.007	-62.12
3790.67	-58.12
3793.33	-62.12
3795.989	-63.12
3798.645	-63.12
3801.299	-62.12
3803.952	-62.12
3806.602	-61.12
3809.251	-62.12
3811.897	-63.12
3814.542	-68.12
3817.184	-60.12
3819.825	-66.12
3822.463	-64.12
3825.1	-70.12
3827.735	-64.12
3830.367	-70.12
3832.998	-62.12
3835.627	-65.12
3838.253	-65.12
3840.878	-68.12
3843.501	-66.12
3846.122	-69.12
3848.741	-73.12
3851.358	-70.12
3853.973	-65.12
3856.586	-62.12
3859.197	-68.12
3861.806	-68.12
3864.414	-71.12
3867.019	-72.12
3869.622	-68.12
3872.224	-69.12
3874.823	-67.12
3877.421	-67.12
3880.016	-68.12
3882.61	-64.12
3885.202	-63.12
3887.792	-64.12
3890.38	-69.12
3892.966	-71.12
3895.55	-68.12
3898.132	-72.12
3900.713	-72.12
3903.291	-71.12
3905.868	-70.12
3908.442	-71.12
3911.015	-76.12
3913.586	-71.12
3916.155	-72.12
3918.722	-73.12
3921.287	-71.12
3923.85	-72.12
3926.411	-71.12
3928.971	-72.12
3931.528	-75.12
3934.084	-74.12
3936.638	-76.12
3939.19	-71.12
3941.74	-73.12
3944.288	-72.12
3946.834	-71.12
3949.378	-71.12
3951.921	-69.12
3954.462	-72.12
3957	-72.12
3959.537	-73.12
3962.072	-71.12
3964.606	-71.12
3967.137	-72.12
3969.667	-73.12
3972.194	-73.12
3974.72	-75.12
3977.244	-71.12
3979.766	-74.12
3982.286	-70.12
3984.805	-71.12
3987.321	-70.12
3989.836	-70.12
3992.349	-68.12
3994.86	-67.12
3997.369	-66.12
3999.877	-72.12
4002.382	-73.12
4004.886	-77.12
4007.388	-74.12
4009.888	-69.12
4012.386	-67.12
4014.883	-71.12
4017.377	-71.12
4019.87	-71.12
4022.361	-70.12
4024.85	-72.12
4027.338	-70.12
4029.823	-71.12
4032.307	-70.12
4034.789	-69.12
4037.269	-72.12
4039.747	-76.12
4042.224	-74.12
4044.699	-71.12
4047.172	-73.12
4049.643	-73.12
4052.112	-76.12
4054.58	-75.12
4057.046	-73.12
4059.51	-75.12
4061.972	-68.12
4064.432	-68.12
4066.891	-70.12
4069.348	-74.12
4071.803	-76.12
4074.256	-74.12
4076.708	-76.12
4079.158	-72.12
4081.606	-66.12
4084.052	-72.12
4086.497	-71.12
4088.939	-71.12
4091.38	-76.12
4093.819	-74.12
4096.257	-78.12
4098.693	-77.12
4101.127	-78.12
4103.559	-76.12
4105.989	-18.12
4108.418	-20.12
4110.845	-19.12
4113.27	-21.12
4115.694	-12.12
4118.115	-12.12
4120.535	-72.12
4122.954	-71.12
4125.37	-71.12
4127.785	-70.12
4130.198	-68.12
4132.609	-74.12
4135.019	-78.12
4137.427	-76.12
4139.833	-75.12
4142.237	-78.12
