Data from 1CFU3_B_ramanshift_RamanShift_14-47-52-765.txt Node
Date: Sun Dec 25 14:47:52 IST 2016
User: aro
Spectrometer: QEPB0276
Trigger mode: 0
Integration Time (sec): 5.000000E0
Scans to average: 1
Electric dark correction enabled: true
Nonlinearity correction enabled: false
Boxcar width: 0
XAxis mode: Raman Shifts
Number of Pixels in Spectrum: 1044
>>>>>Begin Spectral Data<<<<<
160.701	6.38
166.742	20.38
172.777	69.38
178.805	211.38
184.826	647.38
190.841	1512.38
196.849	2825.38
202.85	4034.38
208.845	4641.38
214.833	4634.38
220.815	4473.38
226.789	4299.38
232.758	4220.38
238.719	4088.38
244.674	3956.38
250.623	3781.38
256.565	3639.38
262.5	3464.38
268.429	3311.38
274.351	3135.38
280.267	3049.38
286.176	2912.38
292.079	2828.38
297.975	2723.38
303.865	2630.38
309.748	2560.38
315.625	2489.38
321.495	2436.38
327.359	2360.38
333.217	2322.38
339.068	2314.38
344.912	2312.38
350.751	2298.38
356.583	2281.38
362.408	2268.38
368.227	2270.38
374.04	2275.38
379.847	2282.38
385.647	2316.38
391.44	2294.38
397.228	2307.38
403.009	2347.38
408.784	2346.38
414.553	2375.38
420.315	2376.38
426.071	2352.38
431.821	2374.38
437.565	2361.38
443.302	2366.38
449.033	2372.38
454.758	2379.38
460.477	2354.38
466.189	2333.38
471.896	2339.38
477.596	2315.38
483.29	2314.38
488.978	2303.38
494.66	2296.38
500.335	2262.38
506.005	2247.38
511.668	2203.38
517.325	2152.38
522.977	2127.38
528.622	2123.38
534.261	2085.38
539.894	2060.38
545.521	2047.38
551.141	2028.38
556.756	2024.38
562.365	2006.38
567.968	2009.38
573.565	1984.38
579.155	1990.38
584.74	1982.38
590.319	1954.38
595.892	1947.38
601.459	1921.38
607.02	1935.38
612.575	1905.38
618.124	1888.38
623.667	1879.38
629.204	1868.38
634.735	1832.38
640.261	1817.38
645.781	1815.38
651.294	1814.38
656.802	1816.38
662.304	1803.38
667.8	1789.38
673.29	1779.38
678.775	1778.38
684.254	1761.38
689.726	1767.38
695.193	1752.38
700.655	1755.38
706.11	1735.38
711.56	1724.38
717.004	1728.38
722.442	1719.38
727.874	1697.38
733.301	1684.38
738.722	1679.38
744.137	1675.38
749.547	1658.38
754.951	1652.38
760.349	1649.38
765.741	1649.38
771.128	1654.38
776.509	1656.38
781.885	1649.38
787.254	1662.38
792.618	1644.38
797.977	1643.38
803.33	1630.38
808.677	1633.38
814.019	1585.38
819.355	1599.38
824.686	1568.38
830.011	1563.38
835.33	1545.38
840.644	1541.38
845.952	1534.38
851.255	1534.38
856.552	1533.38
861.844	1531.38
867.13	1527.38
872.41	1518.38
877.686	1504.38
882.955	1530.38
888.219	1523.38
893.478	1492.38
898.731	1449.38
903.979	1422.38
909.221	1414.38
914.458	1380.38
919.69	1371.38
924.916	1364.38
930.136	1357.38
935.351	1365.38
940.561	1354.38
945.766	1349.38
950.965	1357.38
956.158	1350.38
961.347	1335.38
966.529	1305.38
971.707	1287.38
976.879	1296.38
982.046	1244.38
987.208	1245.38
992.364	1249.38
997.515	1264.38
1002.66	1256.38
1007.801	1277.38
1012.936	1266.38
1018.066	1285.38
1023.19	1303.38
1028.309	1297.38
1033.423	1299.38
1038.532	1306.38
1043.636	1299.38
1048.734	1300.38
1053.827	1276.38
1058.915	1275.38
1063.998	1254.38
1069.075	1231.38
1074.147	1251.38
1079.214	1249.38
1084.276	1261.38
1089.333	1276.38
1094.385	1278.38
1099.431	1294.38
1104.472	1289.38
1109.509	1273.38
1114.54	1277.38
1119.565	1260.38
1124.586	1240.38
1129.602	1233.38
1134.613	1225.38
1139.618	1224.38
1144.619	1221.38
1149.614	1228.38
1154.604	1205.38
1159.589	1233.38
1164.57	1223.38
1169.545	1244.38
1174.515	1238.38
1179.48	1228.38
1184.44	1223.38
1189.395	1217.38
1194.345	1208.38
1199.29	1206.38
1204.23	1214.38
1209.165	1217.38
1214.095	1217.38
1219.021	1233.38
1223.941	1229.38
1228.856	1244.38
1233.766	1251.38
1238.672	1249.38
1243.572	1263.38
1248.467	1252.38
1253.358	1238.38
1258.244	1242.38
1263.124	1214.38
1268	1186.38
1272.871	1181.38
1277.737	1170.38
1282.599	1157.38
1287.455	1175.38
1292.306	1174.38
1297.153	1164.38
1301.995	1190.38
1306.832	1188.38
1311.664	1196.38
1316.491	1215.38
1321.314	1197.38
1326.132	1191.38
1330.945	1184.38
1335.753	1179.38
1340.556	1153.38
1345.354	1138.38
1350.148	1140.38
1354.937	1129.38
1359.722	1121.38
1364.501	1117.38
1369.276	1108.38
1374.046	1100.38
1378.811	1080.38
1383.572	1083.38
1388.327	1070.38
1393.079	1079.38
1397.825	1066.38
1402.567	1063.38
1407.304	1062.38
1412.036	1045.38
1416.764	1052.38
1421.487	1046.38
1426.205	1050.38
1430.919	1057.38
1435.628	1070.38
1440.333	1077.38
1445.032	1091.38
1449.727	1093.38
1454.418	1100.38
1459.104	1128.38
1463.785	1137.38
1468.462	1110.38
1473.134	1092.38
1477.802	1087.38
1482.465	1067.38
1487.123	1050.38
1491.777	1063.38
1496.426	1057.38
1501.071	1067.38
1505.711	1081.38
1510.347	1078.38
1514.978	1090.38
1519.604	1099.38
1524.226	1102.38
1528.844	1106.38
1533.457	1117.38
1538.065	1107.38
1542.669	1091.38
1547.269	1098.38
1551.864	1095.38
1556.454	1114.38
1561.041	1106.38
1565.622	1128.38
1570.199	1134.38
1574.772	1166.38
1579.34	1172.38
1583.904	1195.38
1588.464	1213.38
1593.019	1228.38
1597.569	1249.38
1602.115	1256.38
1606.657	1262.38
1611.195	1259.38
1615.728	1289.38
1620.256	1280.38
1624.78	1303.38
1629.3	1325.38
1633.816	1341.38
1638.327	1360.38
1642.834	1368.38
1647.336	1384.38
1651.834	1407.38
1656.328	1413.38
1660.817	1386.38
1665.302	1387.38
1669.783	1377.38
1674.259	1333.38
1678.732	1305.38
1683.199	1265.38
1687.663	1235.38
1692.122	1167.38
1696.577	1157.38
1701.028	1108.38
1705.474	1046.38
1709.917	1015.38
1714.355	978.38
1718.788	965.38
1723.218	961.38
1727.643	947.38
1732.064	927.38
1736.481	902.38
1740.893	879.38
1745.301	867.38
1749.705	841.38
1754.105	824.38
1758.501	810.38
1762.893	801.38
1767.28	780.38
1771.663	775.38
1776.042	766.38
1780.417	759.38
1784.787	767.38
1789.154	762.38
1793.516	768.38
1797.874	761.38
1802.228	752.38
1806.578	744.38
1810.924	727.38
1815.266	728.38
1819.603	719.38
1823.937	701.38
1828.266	687.38
1832.591	693.38
1836.913	682.38
1841.23	673.38
1845.543	674.38
1849.852	692.38
1854.156	694.38
1858.457	689.38
1862.754	695.38
1867.047	694.38
1871.335	692.38
1875.62	689.38
1879.9	707.38
1884.177	701.38
1888.449	704.38
1892.718	690.38
1896.982	685.38
1901.243	697.38
1905.499	697.38
1909.752	700.38
1914	690.38
1918.245	690.38
1922.485	682.38
1926.722	670.38
1930.954	681.38
1935.183	684.38
1939.408	703.38
1943.628	688.38
1947.845	683.38
1952.058	701.38
1956.267	693.38
1960.472	690.38
1964.673	683.38
1968.87	676.38
1973.063	669.38
1977.252	662.38
1981.438	659.38
1985.619	657.38
1989.797	650.38
1993.971	646.38
1998.14	665.38
2002.306	658.38
2006.469	676.38
2010.627	678.38
2014.781	679.38
2018.932	686.38
2023.078	660.38
2027.221	667.38
2031.36	666.38
2035.495	663.38
2039.627	658.38
2043.754	657.38
2047.878	650.38
2051.998	652.38
2056.114	650.38
2060.226	644.38
2064.334	651.38
2068.439	666.38
2072.54	670.38
2076.637	663.38
2080.73	666.38
2084.82	672.38
2088.906	662.38
2092.988	672.38
2097.066	673.38
2101.14	671.38
2105.211	679.38
2109.278	663.38
2113.342	647.38
2117.401	654.38
2121.457	647.38
2125.509	648.38
2129.558	642.38
2133.602	642.38
2137.643	648.38
2141.681	632.38
2145.714	630.38
2149.744	635.38
2153.77	636.38
2157.793	625.38
2161.812	619.38
2165.827	616.38
2169.838	605.38
2173.846	590.38
2177.851	587.38
2181.851	589.38
2185.848	573.38
2189.841	565.38
2193.831	577.38
2197.817	565.38
2201.799	554.38
2205.778	555.38
2209.753	559.38
2213.725	552.38
2217.693	551.38
2221.657	553.38
2225.618	572.38
2229.575	549.38
2233.529	551.38
2237.479	547.38
2241.425	552.38
2245.368	545.38
2249.307	539.38
2253.243	529.38
2257.175	524.38
2261.104	507.38
2265.029	503.38
2268.95	507.38
2272.868	498.38
2276.783	493.38
2280.694	482.38
2284.601	483.38
2288.505	468.38
2292.405	478.38
2296.302	466.38
2300.195	456.38
2304.085	458.38
2307.971	444.38
2311.854	435.38
2315.734	436.38
2319.609	427.38
2323.482	419.38
2327.351	424.38
2331.216	419.38
2335.078	411.38
2338.937	403.38
2342.792	401.38
2346.643	405.38
2350.492	408.38
2354.336	408.38
2358.178	406.38
2362.015	410.38
2365.85	399.38
2369.681	402.38
2373.508	409.38
2377.333	412.38
2381.153	407.38
2384.971	408.38
2388.785	400.38
2392.595	404.38
2396.402	396.38
2400.206	393.38
2404.007	398.38
2407.804	392.38
2411.597	386.38
2415.388	378.38
2419.174	391.38
2422.958	379.38
2426.738	379.38
2430.515	382.38
2434.289	382.38
2438.059	384.38
2441.825	381.38
2445.589	375.38
2449.349	371.38
2453.106	370.38
2456.859	366.38
2460.61	362.38
2464.356	369.38
2468.1	364.38
2471.84	360.38
2475.577	353.38
2479.311	357.38
2483.041	358.38
2486.768	349.38
2490.492	359.38
2494.213	353.38
2497.93	353.38
2501.644	353.38
2505.355	349.38
2509.062	353.38
2512.766	356.38
2516.467	346.38
2520.165	338.38
2523.859	340.38
2527.551	343.38
2531.239	335.38
2534.923	331.38
2538.605	331.38
2542.283	338.38
2545.958	324.38
2549.63	329.38
2553.299	319.38
2556.964	326.38
2560.626	328.38
2564.285	322.38
2567.941	322.38
2571.594	313.38
2575.243	316.38
2578.89	307.38
2582.533	312.38
2586.173	306.38
2589.809	312.38
2593.443	307.38
2597.073	307.38
2600.701	302.38
2604.325	290.38
2607.946	294.38
2611.564	300.38
2615.178	302.38
2618.79	303.38
2622.398	299.38
2626.004	286.38
2629.606	288.38
2633.205	285.38
2636.801	286.38
2640.394	292.38
2643.983	281.38
2647.57	277.38
2651.153	283.38
2654.734	275.38
2658.311	275.38
2661.885	269.38
2665.456	271.38
2669.025	268.38
2672.589	263.38
2676.151	258.38
2679.71	261.38
2683.266	259.38
2686.819	261.38
2690.368	254.38
2693.915	252.38
2697.458	251.38
2700.999	250.38
2704.536	250.38
2708.071	241.38
2711.602	249.38
2715.13	243.38
2718.656	244.38
2722.178	239.38
2725.697	241.38
2729.214	244.38
2732.727	243.38
2736.237	238.38
2739.744	243.38
2743.249	247.38
2746.75	245.38
2750.248	244.38
2753.743	240.38
2757.236	241.38
2760.725	239.38
2764.211	239.38
2767.695	236.38
2771.175	229.38
2774.652	230.38
2778.127	225.38
2781.598	236.38
2785.067	227.38
2788.532	227.38
2791.995	230.38
2795.455	231.38
2798.911	228.38
2802.365	235.38
2805.816	238.38
2809.264	241.38
2812.709	239.38
2816.151	233.38
2819.59	239.38
2823.026	237.38
2826.46	245.38
2829.89	235.38
2833.318	237.38
2836.742	249.38
2840.164	246.38
2843.583	245.38
2846.999	241.38
2850.412	246.38
2853.822	254.38
2857.229	260.38
2860.634	259.38
2864.035	256.38
2867.434	267.38
2870.83	264.38
2874.223	271.38
2877.613	281.38
2881	277.38
2884.385	281.38
2887.766	288.38
2891.145	281.38
2894.521	282.38
2897.894	285.38
2901.264	286.38
2904.631	283.38
2907.996	291.38
2911.358	295.38
2914.717	292.38
2918.073	296.38
2921.426	299.38
2924.777	305.38
2928.124	318.38
2931.469	315.38
2934.811	322.38
2938.15	327.38
2941.487	338.38
2944.821	331.38
2948.152	345.38
2951.48	349.38
2954.805	340.38
2958.128	341.38
2961.447	339.38
2964.765	358.38
2968.079	361.38
2971.39	363.38
2974.699	364.38
2978.005	379.38
2981.308	384.38
2984.609	400.38
2987.907	400.38
2991.202	414.38
2994.494	430.38
2997.784	430.38
3001.07	448.38
3004.355	456.38
3007.636	466.38
3010.915	470.38
3014.191	486.38
3017.464	495.38
3020.734	501.38
3024.002	503.38
3027.267	503.38
3030.53	516.38
3033.789	518.38
3037.046	532.38
3040.301	551.38
3043.552	563.38
3046.801	581.38
3050.048	589.38
3053.291	601.38
3056.532	611.38
3059.771	649.38
3063.006	654.38
3066.239	672.38
3069.469	700.38
3072.697	713.38
3075.922	729.38
3079.144	748.38
3082.364	766.38
3085.581	789.38
3088.795	798.38
3092.007	816.38
3095.216	838.38
3098.423	860.38
3101.627	876.38
3104.828	892.38
3108.026	891.38
3111.222	935.38
3114.416	945.38
3117.607	966.38
3120.795	966.38
3123.98	1010.38
3127.163	1042.38
3130.344	1050.38
3133.521	1071.38
3136.696	1107.38
3139.869	1116.38
3143.039	1127.38
3146.206	1162.38
3149.371	1172.38
3152.533	1175.38
3155.693	1189.38
3158.85	1203.38
3162.005	1203.38
3165.157	1214.38
3168.306	1212.38
3171.453	1208.38
3174.597	1224.38
3177.739	1240.38
3180.878	1231.38
3184.014	1242.38
3187.149	1252.38
3190.28	1247.38
3193.409	1220.38
3196.536	1237.38
3199.659	1257.38
3202.781	1260.38
3205.9	1256.38
3209.016	1260.38
3212.13	1252.38
3215.241	1238.38
3218.35	1245.38
3221.456	1222.38
3224.56	1218.38
3227.661	1203.38
3230.76	1193.38
3233.856	1191.38
3236.95	1163.38
3240.041	1169.38
3243.13	1144.38
3246.216	1139.38
3249.3	1130.38
3252.382	1116.38
3255.46	1116.38
3258.537	1116.38
3261.611	1096.38
3264.682	1093.38
3267.751	1107.38
3270.818	1094.38
3273.882	1076.38
3276.943	1075.38
3280.002	1076.38
3283.059	1061.38
3286.113	1056.38
3289.165	1036.38
3292.214	1039.38
3295.261	1027.38
3298.306	999.38
3301.348	982.38
3304.387	959.38
3307.425	952.38
3310.459	944.38
3313.492	929.38
3316.521	931.38
3319.549	914.38
3322.574	906.38
3325.597	886.38
3328.617	881.38
3331.635	879.38
3334.65	875.38
3337.663	873.38
3340.674	864.38
3343.682	868.38
3346.688	861.38
3349.691	859.38
3352.692	853.38
3355.691	847.38
3358.687	835.38
3361.681	831.38
3364.673	829.38
3367.662	816.38
3370.649	805.38
3373.633	801.38
3376.615	784.38
3379.595	778.38
3382.572	774.38
3385.547	747.38
3388.52	742.38
3391.49	735.38
3394.458	736.38
3397.424	713.38
3400.387	714.38
3403.348	701.38
3406.307	691.38
3409.263	689.38
3412.217	682.38
3415.168	685.38
3418.118	668.38
3421.065	663.38
3424.009	657.38
3426.951	641.38
3429.891	622.38
3432.829	618.38
3435.764	605.38
3438.697	605.38
3441.628	579.38
3444.557	576.38
3447.483	561.38
3450.407	540.38
3453.328	527.38
3456.247	513.38
3459.164	495.38
3462.079	488.38
3464.991	481.38
3467.902	463.38
3470.809	446.38
3473.715	435.38
3476.618	417.38
3479.519	416.38
3482.418	404.38
3485.315	393.38
3488.209	376.38
3491.101	367.38
3493.99	353.38
3496.878	341.38
3499.763	349.38
3502.646	332.38
3505.527	318.38
3508.405	306.38
3511.281	292.38
3514.155	272.38
3517.027	267.38
3519.897	262.38
3522.764	259.38
3525.629	245.38
3528.492	229.38
3531.352	215.38
3534.211	205.38
3537.067	190.38
3539.921	187.38
3542.773	182.38
3545.622	170.38
3548.469	158.38
3551.315	150.38
3554.157	141.38
3556.998	136.38
3559.837	129.38
3562.673	126.38
3565.507	122.38
3568.339	109.38
3571.169	111.38
3573.996	103.38
3576.822	89.38
3579.645	89.38
3582.466	83.38
3585.285	80.38
3588.101	74.38
3590.916	68.38
3593.728	61.38
3596.538	59.38
3599.346	55.38
3602.152	54.38
3604.956	50.38
3607.757	40.38
3610.556	38.38
3613.354	32.38
3616.149	27.38
3618.942	29.38
3621.732	21.38
3624.521	22.38
3627.307	17.38
3630.092	16.38
3632.874	11.38
3635.654	3.38
3638.432	6.38
3641.208	3.38
3643.982	3.38
3646.753	3.38
3649.523	1.38
3652.29	-1.62
3655.055	-11.62
3657.818	-9.62
3660.579	-14.62
3663.338	-16.62
3666.095	-16.62
3668.849	-23.62
3671.602	-21.62
3674.352	-29.62
3677.101	-29.62
3679.847	-31.62
3682.591	-31.62
3685.333	-39.62
3688.073	-33.62
3690.811	-32.62
3693.547	-31.62
3696.281	-37.62
3699.013	-38.62
3701.742	-41.62
3704.47	-42.62
3707.195	-44.62
3709.919	-44.62
3712.64	-48.62
3715.359	-43.62
3718.076	-46.62
3720.792	-48.62
3723.505	-46.62
3726.216	-51.62
3728.925	-52.62
3731.632	-54.62
3734.336	-52.62
3737.039	-54.62
3739.74	-51.62
3742.439	-49.62
3745.136	-53.62
3747.83	-54.62
3750.523	-56.62
3753.213	-58.62
3755.902	-58.62
3758.589	-58.62
3761.273	-58.62
3763.956	-57.62
3766.636	-55.62
3769.315	-53.62
3771.991	-64.62
3774.665	-61.62
3777.338	-64.62
3780.008	-59.62
3782.677	-61.62
3785.343	-56.62
3788.007	-62.62
3790.67	-60.62
3793.33	-64.62
3795.989	-64.62
3798.645	-63.62
3801.299	-61.62
3803.952	-67.62
3806.602	-65.62
3809.251	-66.62
3811.897	-65.62
3814.542	-68.62
3817.184	-62.62
3819.825	-65.62
3822.463	-65.62
3825.1	-70.62
3827.735	-65.62
3830.367	-72.62
3832.998	-65.62
3835.627	-67.62
3838.253	-66.62
3840.878	-67.62
3843.501	-66.62
3846.122	-72.62
3848.741	-75.62
3851.358	-74.62
3853.973	-69.62
3856.586	-63.62
3859.197	-70.62
3861.806	-67.62
3864.414	-69.62
3867.019	-71.62
3869.622	-67.62
3872.224	-69.62
3874.823	-65.62
3877.421	-66.62
3880.016	-67.62
3882.61	-67.62
3885.202	-62.62
3887.792	-65.62
3890.38	-65.62
3892.966	-69.62
3895.55	-71.62
3898.132	-73.62
3900.713	-70.62
3903.291	-73.62
3905.868	-72.62
3908.442	-70.62
3911.015	-76.62
3913.586	-73.62
3916.155	-71.62
3918.722	-75.62
3921.287	-68.62
3923.85	-72.62
3926.411	-69.62
3928.971	-71.62
3931.528	-71.62
3934.084	-73.62
3936.638	-76.62
3939.19	-75.62
3941.74	-75.62
3944.288	-73.62
3946.834	-70.62
3949.378	-71.62
3951.921	-70.62
3954.462	-71.62
3957	-73.62
3959.537	-73.62
3962.072	-71.62
3964.606	-76.62
3967.137	-73.62
3969.667	-73.62
3972.194	-72.62
3974.72	-74.62
3977.244	-70.62
3979.766	-73.62
3982.286	-69.62
3984.805	-74.62
3987.321	-74.62
3989.836	-72.62
3992.349	-68.62
3994.86	-67.62
3997.369	-65.62
3999.877	-72.62
4002.382	-73.62
4004.886	-73.62
4007.388	-74.62
4009.888	-74.62
4012.386	-69.62
4014.883	-70.62
4017.377	-72.62
4019.87	-70.62
4022.361	-71.62
4024.85	-71.62
4027.338	-70.62
4029.823	-70.62
4032.307	-69.62
4034.789	-71.62
4037.269	-71.62
4039.747	-75.62
4042.224	-75.62
4044.699	-70.62
4047.172	-72.62
4049.643	-70.62
4052.112	-75.62
4054.58	-74.62
4057.046	-74.62
4059.51	-75.62
4061.972	-68.62
4064.432	-69.62
4066.891	-69.62
4069.348	-74.62
4071.803	-74.62
4074.256	-74.62
4076.708	-77.62
4079.158	-72.62
4081.606	-69.62
4084.052	-72.62
4086.497	-72.62
4088.939	-75.62
4091.38	-73.62
4093.819	-73.62
4096.257	-74.62
4098.693	-77.62
4101.127	-74.62
4103.559	-75.62
4105.989	-21.62
4108.418	-16.62
4110.845	-16.62
4113.27	-15.62
4115.694	-14.62
4118.115	-8.62
4120.535	-73.62
4122.954	-72.62
4125.37	-73.62
4127.785	-72.62
4130.198	-70.62
4132.609	-75.62
4135.019	-77.62
4137.427	-74.62
4139.833	-75.62
4142.237	-79.62
