Data from 1CFU2_B_ramanshift_RamanShift_14-46-32-772.txt Node
Date: Sun Dec 25 14:46:32 IST 2016
User: aro
Spectrometer: QEPB0276
Trigger mode: 0
Integration Time (sec): 5.000000E0
Scans to average: 1
Electric dark correction enabled: true
Nonlinearity correction enabled: false
Boxcar width: 0
XAxis mode: Raman Shifts
Number of Pixels in Spectrum: 1044
>>>>>Begin Spectral Data<<<<<
160.701	4.5
166.742	18.5
172.777	71.5
178.805	228.5
184.826	674.5
190.841	1622.5
196.849	2965.5
202.85	4268.5
208.845	4915.5
214.833	4943.5
220.815	4769.5
226.789	4630.5
232.758	4494.5
238.719	4406.5
244.674	4285.5
250.623	4143.5
256.565	3986.5
262.5	3821.5
268.429	3654.5
274.351	3517.5
280.267	3395.5
286.176	3286.5
292.079	3195.5
297.975	3087.5
303.865	2966.5
309.748	2940.5
315.625	2855.5
321.495	2751.5
327.359	2745.5
333.217	2709.5
339.068	2683.5
344.912	2669.5
350.751	2644.5
356.583	2630.5
362.408	2644.5
368.227	2647.5
374.04	2639.5
379.847	2654.5
385.647	2655.5
391.44	2684.5
397.228	2677.5
403.009	2697.5
408.784	2706.5
414.553	2731.5
420.315	2723.5
426.071	2724.5
431.821	2743.5
437.565	2735.5
443.302	2727.5
449.033	2756.5
454.758	2732.5
460.477	2724.5
466.189	2723.5
471.896	2710.5
477.596	2689.5
483.29	2674.5
488.978	2674.5
494.66	2666.5
500.335	2685.5
506.005	2603.5
511.668	2564.5
517.325	2551.5
522.977	2520.5
528.622	2489.5
534.261	2476.5
539.894	2432.5
545.521	2430.5
551.141	2432.5
556.756	2413.5
562.365	2401.5
567.968	2378.5
573.565	2388.5
579.155	2366.5
584.74	2346.5
590.319	2343.5
595.892	2338.5
601.459	2322.5
607.02	2302.5
612.575	2294.5
618.124	2289.5
623.667	2247.5
629.204	2247.5
634.735	2242.5
640.261	2195.5
645.781	2203.5
651.294	2208.5
656.802	2186.5
662.304	2182.5
667.8	2196.5
673.29	2184.5
678.775	2183.5
684.254	2159.5
689.726	2144.5
695.193	2133.5
700.655	2146.5
706.11	2134.5
711.56	2105.5
717.004	2126.5
722.442	2105.5
727.874	2080.5
733.301	2081.5
738.722	2073.5
744.137	2048.5
749.547	2050.5
754.951	2038.5
760.349	2028.5
765.741	2056.5
771.128	2051.5
776.509	2051.5
781.885	2062.5
787.254	2044.5
792.618	2053.5
797.977	2047.5
803.33	2021.5
808.677	2017.5
814.019	2001.5
819.355	1962.5
824.686	1957.5
830.011	1939.5
835.33	1956.5
840.644	1965.5
845.952	1944.5
851.255	1928.5
856.552	1925.5
861.844	1928.5
867.13	1920.5
872.41	1937.5
877.686	1907.5
882.955	1903.5
888.219	1862.5
893.478	1864.5
898.731	1837.5
903.979	1811.5
909.221	1796.5
914.458	1761.5
919.69	1769.5
924.916	1743.5
930.136	1764.5
935.351	1761.5
940.561	1762.5
945.766	1763.5
950.965	1757.5
956.158	1754.5
961.347	1710.5
966.529	1706.5
971.707	1701.5
976.879	1692.5
982.046	1657.5
987.208	1648.5
992.364	1639.5
997.515	1631.5
1002.66	1662.5
1007.801	1687.5
1012.936	1688.5
1018.066	1701.5
1023.19	1709.5
1028.309	1735.5
1033.423	1724.5
1038.532	1704.5
1043.636	1700.5
1048.734	1698.5
1053.827	1677.5
1058.915	1671.5
1063.998	1657.5
1069.075	1621.5
1074.147	1649.5
1079.214	1649.5
1084.276	1654.5
1089.333	1664.5
1094.385	1686.5
1099.431	1689.5
1104.472	1697.5
1109.509	1697.5
1114.54	1685.5
1119.565	1652.5
1124.586	1663.5
1129.602	1630.5
1134.613	1626.5
1139.618	1626.5
1144.619	1599.5
1149.614	1612.5
1154.604	1613.5
1159.589	1631.5
1164.57	1635.5
1169.545	1630.5
1174.515	1629.5
1179.48	1645.5
1184.44	1628.5
1189.395	1623.5
1194.345	1602.5
1199.29	1605.5
1204.23	1602.5
1209.165	1615.5
1214.095	1608.5
1219.021	1623.5
1223.941	1642.5
1228.856	1654.5
1233.766	1653.5
1238.672	1669.5
1243.572	1674.5
1248.467	1674.5
1253.358	1651.5
1258.244	1637.5
1263.124	1614.5
1268	1581.5
1272.871	1590.5
1277.737	1566.5
1282.599	1553.5
1287.455	1542.5
1292.306	1551.5
1297.153	1572.5
1301.995	1571.5
1306.832	1584.5
1311.664	1594.5
1316.491	1626.5
1321.314	1608.5
1326.132	1591.5
1330.945	1587.5
1335.753	1559.5
1340.556	1566.5
1345.354	1540.5
1350.148	1515.5
1354.937	1514.5
1359.722	1497.5
1364.501	1479.5
1369.276	1451.5
1374.046	1420.5
1378.811	1434.5
1383.572	1428.5
1388.327	1415.5
1393.079	1448.5
1397.825	1417.5
1402.567	1412.5
1407.304	1407.5
1412.036	1403.5
1416.764	1415.5
1421.487	1403.5
1426.205	1405.5
1430.919	1410.5
1435.628	1437.5
1440.333	1451.5
1445.032	1461.5
1449.727	1469.5
1454.418	1475.5
1459.104	1488.5
1463.785	1477.5
1468.462	1457.5
1473.134	1453.5
1477.802	1421.5
1482.465	1405.5
1487.123	1426.5
1491.777	1415.5
1496.426	1426.5
1501.071	1411.5
1505.711	1421.5
1510.347	1433.5
1514.978	1441.5
1519.604	1443.5
1524.226	1459.5
1528.844	1448.5
1533.457	1451.5
1538.065	1459.5
1542.669	1450.5
1547.269	1444.5
1551.864	1445.5
1556.454	1431.5
1561.041	1455.5
1565.622	1471.5
1570.199	1474.5
1574.772	1503.5
1579.34	1520.5
1583.904	1534.5
1588.464	1549.5
1593.019	1555.5
1597.569	1584.5
1602.115	1596.5
1606.657	1592.5
1611.195	1600.5
1615.728	1604.5
1620.256	1621.5
1624.78	1637.5
1629.3	1656.5
1633.816	1667.5
1638.327	1693.5
1642.834	1722.5
1647.336	1729.5
1651.834	1717.5
1656.328	1746.5
1660.817	1735.5
1665.302	1694.5
1669.783	1693.5
1674.259	1653.5
1678.732	1616.5
1683.199	1580.5
1687.663	1547.5
1692.122	1508.5
1696.577	1473.5
1701.028	1396.5
1705.474	1342.5
1709.917	1290.5
1714.355	1270.5
1718.788	1247.5
1723.218	1238.5
1727.643	1247.5
1732.064	1229.5
1736.481	1204.5
1740.893	1189.5
1745.301	1147.5
1749.705	1149.5
1754.105	1109.5
1758.501	1114.5
1762.893	1067.5
1767.28	1062.5
1771.663	1048.5
1776.042	1052.5
1780.417	1040.5
1784.787	1042.5
1789.154	1033.5
1793.516	1054.5
1797.874	1038.5
1802.228	1034.5
1806.578	1012.5
1810.924	1004.5
1815.266	979.5
1819.603	985.5
1823.937	971.5
1828.266	978.5
1832.591	984.5
1836.913	955.5
1841.23	960.5
1845.543	950.5
1849.852	960.5
1854.156	974.5
1858.457	958.5
1862.754	974.5
1867.047	967.5
1871.335	971.5
1875.62	978.5
1879.9	984.5
1884.177	978.5
1888.449	970.5
1892.718	964.5
1896.982	971.5
1901.243	961.5
1905.499	964.5
1909.752	950.5
1914	945.5
1918.245	941.5
1922.485	952.5
1926.722	944.5
1930.954	951.5
1935.183	947.5
1939.408	967.5
1943.628	957.5
1947.845	953.5
1952.058	956.5
1956.267	950.5
1960.472	929.5
1964.673	927.5
1968.87	923.5
1973.063	915.5
1977.252	919.5
1981.438	903.5
1985.619	917.5
1989.797	904.5
1993.971	886.5
1998.14	896.5
2002.306	906.5
2006.469	911.5
2010.627	908.5
2014.781	917.5
2018.932	905.5
2023.078	910.5
2027.221	901.5
2031.36	877.5
2035.495	902.5
2039.627	883.5
2043.754	891.5
2047.878	888.5
2051.998	875.5
2056.114	869.5
2060.226	880.5
2064.334	881.5
2068.439	872.5
2072.54	883.5
2076.637	881.5
2080.73	890.5
2084.82	890.5
2088.906	902.5
2092.988	878.5
2097.066	891.5
2101.14	881.5
2105.211	872.5
2109.278	878.5
2113.342	876.5
2117.401	865.5
2121.457	865.5
2125.509	856.5
2129.558	837.5
2133.602	862.5
2137.643	839.5
2141.681	851.5
2145.714	852.5
2149.744	847.5
2153.77	833.5
2157.793	835.5
2161.812	828.5
2165.827	814.5
2169.838	812.5
2173.846	797.5
2177.851	785.5
2181.851	775.5
2185.848	778.5
2189.841	762.5
2193.831	767.5
2197.817	749.5
2201.799	757.5
2205.778	750.5
2209.753	741.5
2213.725	754.5
2217.693	745.5
2221.657	753.5
2225.618	753.5
2229.575	736.5
2233.529	749.5
2237.479	731.5
2241.425	734.5
2245.368	724.5
2249.307	714.5
2253.243	708.5
2257.175	703.5
2261.104	692.5
2265.029	674.5
2268.95	679.5
2272.868	661.5
2276.783	649.5
2280.694	652.5
2284.601	648.5
2288.505	637.5
2292.405	640.5
2296.302	624.5
2300.195	631.5
2304.085	614.5
2307.971	609.5
2311.854	607.5
2315.734	581.5
2319.609	585.5
2323.482	575.5
2327.351	574.5
2331.216	569.5
2335.078	564.5
2338.937	568.5
2342.792	561.5
2346.643	551.5
2350.492	551.5
2354.336	556.5
2358.178	551.5
2362.015	562.5
2365.85	560.5
2369.681	562.5
2373.508	567.5
2377.333	559.5
2381.153	555.5
2384.971	554.5
2388.785	550.5
2392.595	563.5
2396.402	549.5
2400.206	547.5
2404.007	549.5
2407.804	540.5
2411.597	537.5
2415.388	542.5
2419.174	537.5
2422.958	538.5
2426.738	537.5
2430.515	529.5
2434.289	531.5
2438.059	533.5
2441.825	529.5
2445.589	522.5
2449.349	513.5
2453.106	510.5
2456.859	506.5
2460.61	507.5
2464.356	498.5
2468.1	501.5
2471.84	493.5
2475.577	501.5
2479.311	492.5
2483.041	504.5
2486.768	492.5
2490.492	499.5
2494.213	493.5
2497.93	500.5
2501.644	497.5
2505.355	495.5
2509.062	498.5
2512.766	491.5
2516.467	493.5
2520.165	493.5
2523.859	482.5
2527.551	467.5
2531.239	479.5
2534.923	477.5
2538.605	468.5
2542.283	468.5
2545.958	460.5
2549.63	453.5
2553.299	454.5
2556.964	450.5
2560.626	449.5
2564.285	456.5
2567.941	445.5
2571.594	446.5
2575.243	441.5
2578.89	441.5
2582.533	434.5
2586.173	430.5
2589.809	423.5
2593.443	423.5
2597.073	424.5
2600.701	427.5
2604.325	416.5
2607.946	416.5
2611.564	413.5
2615.178	420.5
2618.79	416.5
2622.398	416.5
2626.004	404.5
2629.606	398.5
2633.205	401.5
2636.801	398.5
2640.394	403.5
2643.983	393.5
2647.57	391.5
2651.153	375.5
2654.734	380.5
2658.311	383.5
2661.885	372.5
2665.456	375.5
2669.025	365.5
2672.589	360.5
2676.151	366.5
2679.71	363.5
2683.266	363.5
2686.819	363.5
2690.368	370.5
2693.915	352.5
2697.458	360.5
2700.999	342.5
2704.536	338.5
2708.071	345.5
2711.602	335.5
2715.13	339.5
2718.656	332.5
2722.178	338.5
2725.697	332.5
2729.214	332.5
2732.727	343.5
2736.237	340.5
2739.744	335.5
2743.249	333.5
2746.75	327.5
2750.248	321.5
2753.743	335.5
2757.236	336.5
2760.725	326.5
2764.211	323.5
2767.695	320.5
2771.175	316.5
2774.652	316.5
2778.127	301.5
2781.598	311.5
2785.067	308.5
2788.532	311.5
2791.995	303.5
2795.455	314.5
2798.911	314.5
2802.365	307.5
2805.816	312.5
2809.264	320.5
2812.709	317.5
2816.151	317.5
2819.59	313.5
2823.026	303.5
2826.46	321.5
2829.89	317.5
2833.318	312.5
2836.742	311.5
2840.164	302.5
2843.583	311.5
2846.999	310.5
2850.412	322.5
2853.822	331.5
2857.229	331.5
2860.634	321.5
2864.035	335.5
2867.434	333.5
2870.83	338.5
2874.223	339.5
2877.613	346.5
2881	343.5
2884.385	352.5
2887.766	346.5
2891.145	341.5
2894.521	335.5
2897.894	341.5
2901.264	351.5
2904.631	349.5
2907.996	352.5
2911.358	345.5
2914.717	341.5
2918.073	339.5
2921.426	353.5
2924.777	353.5
2928.124	357.5
2931.469	369.5
2934.811	363.5
2938.15	381.5
2941.487	382.5
2944.821	383.5
2948.152	384.5
2951.48	388.5
2954.805	389.5
2958.128	398.5
2961.447	393.5
2964.765	399.5
2968.079	410.5
2971.39	411.5
2974.699	421.5
2978.005	420.5
2981.308	429.5
2984.609	435.5
2987.907	442.5
2991.202	453.5
2994.494	471.5
2997.784	483.5
3001.07	483.5
3004.355	484.5
3007.636	513.5
3010.915	516.5
3014.191	515.5
3017.464	533.5
3020.734	534.5
3024.002	537.5
3027.267	543.5
3030.53	561.5
3033.789	560.5
3037.046	570.5
3040.301	574.5
3043.552	600.5
3046.801	613.5
3050.048	627.5
3053.291	641.5
3056.532	652.5
3059.771	676.5
3063.006	693.5
3066.239	713.5
3069.469	734.5
3072.697	744.5
3075.922	768.5
3079.144	785.5
3082.364	797.5
3085.581	814.5
3088.795	837.5
3092.007	842.5
3095.216	867.5
3098.423	873.5
3101.627	890.5
3104.828	918.5
3108.026	938.5
3111.222	966.5
3114.416	981.5
3117.607	981.5
3120.795	1003.5
3123.98	1017.5
3127.163	1054.5
3130.344	1070.5
3133.521	1096.5
3136.696	1125.5
3139.869	1140.5
3143.039	1170.5
3146.206	1184.5
3149.371	1178.5
3152.533	1201.5
3155.693	1209.5
3158.85	1231.5
3162.005	1230.5
3165.157	1222.5
3168.306	1245.5
3171.453	1261.5
3174.597	1249.5
3177.739	1260.5
3180.878	1258.5
3184.014	1247.5
3187.149	1232.5
3190.28	1253.5
3193.409	1250.5
3196.536	1280.5
3199.659	1267.5
3202.781	1276.5
3205.9	1267.5
3209.016	1263.5
3212.13	1266.5
3215.241	1257.5
3218.35	1261.5
3221.456	1243.5
3224.56	1223.5
3227.661	1220.5
3230.76	1210.5
3233.856	1191.5
3236.95	1194.5
3240.041	1173.5
3243.13	1145.5
3246.216	1158.5
3249.3	1154.5
3252.382	1134.5
3255.46	1126.5
3258.537	1121.5
3261.611	1128.5
3264.682	1107.5
3267.751	1109.5
3270.818	1098.5
3273.882	1094.5
3276.943	1090.5
3280.002	1076.5
3283.059	1064.5
3286.113	1061.5
3289.165	1037.5
3292.214	1039.5
3295.261	1016.5
3298.306	1013.5
3301.348	994.5
3304.387	970.5
3307.425	974.5
3310.459	947.5
3313.492	957.5
3316.521	932.5
3319.549	920.5
3322.574	910.5
3325.597	905.5
3328.617	909.5
3331.635	900.5
3334.65	883.5
3337.663	889.5
3340.674	881.5
3343.682	870.5
3346.688	846.5
3349.691	869.5
3352.692	858.5
3355.691	852.5
3358.687	841.5
3361.681	828.5
3364.673	837.5
3367.662	825.5
3370.649	807.5
3373.633	796.5
3376.615	793.5
3379.595	775.5
3382.572	772.5
3385.547	766.5
3388.52	751.5
3391.49	740.5
3394.458	732.5
3397.424	717.5
3400.387	709.5
3403.348	711.5
3406.307	696.5
3409.263	689.5
3412.217	682.5
3415.168	669.5
3418.118	666.5
3421.065	662.5
3424.009	647.5
3426.951	651.5
3429.891	634.5
3432.829	623.5
3435.764	614.5
3438.697	599.5
3441.628	595.5
3444.557	563.5
3447.483	565.5
3450.407	541.5
3453.328	532.5
3456.247	519.5
3459.164	498.5
3462.079	485.5
3464.991	478.5
3467.902	459.5
3470.809	444.5
3473.715	430.5
3476.618	418.5
3479.519	406.5
3482.418	404.5
3485.315	387.5
3488.209	383.5
3491.101	378.5
3493.99	363.5
3496.878	355.5
3499.763	338.5
3502.646	341.5
3505.527	321.5
3508.405	314.5
3511.281	294.5
3514.155	278.5
3517.027	276.5
3519.897	262.5
3522.764	251.5
3525.629	244.5
3528.492	230.5
3531.352	217.5
3534.211	209.5
3537.067	194.5
3539.921	189.5
3542.773	184.5
3545.622	173.5
3548.469	155.5
3551.315	147.5
3554.157	147.5
3556.998	138.5
3559.837	128.5
3562.673	124.5
3565.507	128.5
3568.339	115.5
3571.169	109.5
3573.996	104.5
3576.822	99.5
3579.645	88.5
3582.466	87.5
3585.285	87.5
3588.101	73.5
3590.916	65.5
3593.728	69.5
3596.538	61.5
3599.346	53.5
3602.152	48.5
3604.956	48.5
3607.757	41.5
3610.556	44.5
3613.354	32.5
3616.149	31.5
3618.942	33.5
3621.732	17.5
3624.521	15.5
3627.307	19.5
3630.092	15.5
3632.874	8.5
3635.654	8.5
3638.432	11.5
3641.208	6.5
3643.982	1.5
3646.753	-0.5
3649.523	-1.5
3652.29	-7.5
3655.055	-11.5
3657.818	-12.5
3660.579	-14.5
3663.338	-18.5
3666.095	-12.5
3668.849	-24.5
3671.602	-22.5
3674.352	-31.5
3677.101	-28.5
3679.847	-34.5
3682.591	-32.5
3685.333	-31.5
3688.073	-35.5
3690.811	-35.5
3693.547	-38.5
3696.281	-43.5
3699.013	-43.5
3701.742	-44.5
3704.47	-41.5
3707.195	-39.5
3709.919	-42.5
3712.64	-46.5
3715.359	-48.5
3718.076	-46.5
3720.792	-51.5
3723.505	-52.5
3726.216	-53.5
3728.925	-58.5
3731.632	-57.5
3734.336	-51.5
3737.039	-55.5
3739.74	-55.5
3742.439	-52.5
3745.136	-58.5
3747.83	-56.5
3750.523	-62.5
3753.213	-62.5
3755.902	-61.5
3758.589	-56.5
3761.273	-61.5
3763.956	-57.5
3766.636	-57.5
3769.315	-59.5
3771.991	-64.5
3774.665	-67.5
3777.338	-63.5
3780.008	-63.5
3782.677	-58.5
3785.343	-62.5
3788.007	-63.5
3790.67	-58.5
3793.33	-68.5
3795.989	-66.5
3798.645	-66.5
3801.299	-67.5
3803.952	-64.5
3806.602	-64.5
3809.251	-64.5
3811.897	-67.5
3814.542	-66.5
3817.184	-64.5
3819.825	-67.5
3822.463	-68.5
3825.1	-73.5
3827.735	-66.5
3830.367	-72.5
3832.998	-69.5
3835.627	-69.5
3838.253	-69.5
3840.878	-75.5
3843.501	-72.5
3846.122	-74.5
3848.741	-75.5
3851.358	-75.5
3853.973	-72.5
3856.586	-67.5
3859.197	-71.5
3861.806	-71.5
3864.414	-75.5
3867.019	-74.5
3869.622	-70.5
3872.224	-70.5
3874.823	-73.5
3877.421	-69.5
3880.016	-70.5
3882.61	-67.5
3885.202	-67.5
3887.792	-69.5
3890.38	-69.5
3892.966	-72.5
3895.55	-73.5
3898.132	-73.5
3900.713	-75.5
3903.291	-74.5
3905.868	-73.5
3908.442	-73.5
3911.015	-79.5
3913.586	-77.5
3916.155	-73.5
3918.722	-74.5
3921.287	-74.5
3923.85	-76.5
3926.411	-74.5
3928.971	-75.5
3931.528	-80.5
3934.084	-81.5
3936.638	-79.5
3939.19	-77.5
3941.74	-76.5
3944.288	-78.5
3946.834	-73.5
3949.378	-75.5
3951.921	-74.5
3954.462	-76.5
3957	-77.5
3959.537	-78.5
3962.072	-76.5
3964.606	-76.5
3967.137	-79.5
3969.667	-74.5
3972.194	-76.5
3974.72	-78.5
3977.244	-75.5
3979.766	-77.5
3982.286	-76.5
3984.805	-78.5
3987.321	-79.5
3989.836	-76.5
3992.349	-75.5
3994.86	-69.5
3997.369	-70.5
3999.877	-74.5
4002.382	-75.5
4004.886	-76.5
4007.388	-74.5
4009.888	-73.5
4012.386	-71.5
4014.883	-72.5
4017.377	-76.5
4019.87	-73.5
4022.361	-75.5
4024.85	-75.5
4027.338	-76.5
4029.823	-71.5
4032.307	-73.5
4034.789	-70.5
4037.269	-75.5
4039.747	-78.5
4042.224	-79.5
4044.699	-78.5
4047.172	-77.5
4049.643	-74.5
4052.112	-74.5
4054.58	-76.5
4057.046	-77.5
4059.51	-76.5
4061.972	-73.5
4064.432	-75.5
4066.891	-77.5
4069.348	-75.5
4071.803	-74.5
4074.256	-77.5
4076.708	-77.5
4079.158	-77.5
4081.606	-74.5
4084.052	-76.5
4086.497	-78.5
4088.939	-78.5
4091.38	-76.5
4093.819	-79.5
4096.257	-78.5
4098.693	-79.5
4101.127	-79.5
4103.559	-78.5
4105.989	-27.5
4108.418	-24.5
4110.845	-18.5
4113.27	-16.5
4115.694	-13.5
4118.115	-7.5
4120.535	-76.5
4122.954	-72.5
4125.37	-75.5
4127.785	-76.5
4130.198	-75.5
4132.609	-82.5
4135.019	-82.5
4137.427	-81.5
4139.833	-78.5
4142.237	-80.5
