Data from DDW2_FROM15TH_ramanshift_RamanShift_13-11-55-067.txt Node
Date: Sun Dec 25 13:11:55 IST 2016
User: aro
Spectrometer: QEPB0276
Trigger mode: 0
Integration Time (sec): 5.000000E0
Scans to average: 1
Electric dark correction enabled: true
Nonlinearity correction enabled: false
Boxcar width: 0
XAxis mode: Raman Shifts
Number of Pixels in Spectrum: 1044
>>>>>Begin Spectral Data<<<<<
160.701	1.75
166.742	22.75
172.777	65.75
178.805	212.75
184.826	616.75
190.841	1486.75
196.849	2685.75
202.85	3821.75
208.845	4376.75
214.833	4403.75
220.815	4263.75
226.789	4083.75
232.758	3976.75
238.719	3861.75
244.674	3740.75
250.623	3596.75
256.565	3424.75
262.5	3288.75
268.429	3140.75
274.351	2995.75
280.267	2872.75
286.176	2784.75
292.079	2701.75
297.975	2566.75
303.865	2511.75
309.748	2422.75
315.625	2369.75
321.495	2305.75
327.359	2272.75
333.217	2227.75
339.068	2209.75
344.912	2190.75
350.751	2165.75
356.583	2165.75
362.408	2163.75
368.227	2152.75
374.04	2162.75
379.847	2171.75
385.647	2188.75
391.44	2178.75
397.228	2181.75
403.009	2207.75
408.784	2223.75
414.553	2229.75
420.315	2230.75
426.071	2247.75
431.821	2237.75
437.565	2246.75
443.302	2225.75
449.033	2228.75
454.758	2215.75
460.477	2225.75
466.189	2213.75
471.896	2209.75
477.596	2199.75
483.29	2186.75
488.978	2177.75
494.66	2181.75
500.335	2162.75
506.005	2127.75
511.668	2082.75
517.325	2054.75
522.977	2038.75
528.622	2019.75
534.261	1992.75
539.894	1967.75
545.521	1961.75
551.141	1928.75
556.756	1939.75
562.365	1916.75
567.968	1917.75
573.565	1914.75
579.155	1893.75
584.74	1858.75
590.319	1876.75
595.892	1857.75
601.459	1858.75
607.02	1831.75
612.575	1818.75
618.124	1813.75
623.667	1801.75
629.204	1769.75
634.735	1748.75
640.261	1753.75
645.781	1724.75
651.294	1722.75
656.802	1738.75
662.304	1713.75
667.8	1710.75
673.29	1710.75
678.775	1717.75
684.254	1705.75
689.726	1689.75
695.193	1692.75
700.655	1672.75
706.11	1655.75
711.56	1650.75
717.004	1659.75
722.442	1646.75
727.874	1622.75
733.301	1612.75
738.722	1609.75
744.137	1617.75
749.547	1603.75
754.951	1598.75
760.349	1611.75
765.741	1617.75
771.128	1587.75
776.509	1597.75
781.885	1593.75
787.254	1589.75
792.618	1597.75
797.977	1588.75
803.33	1591.75
808.677	1558.75
814.019	1562.75
819.355	1545.75
824.686	1527.75
830.011	1519.75
835.33	1498.75
840.644	1519.75
845.952	1514.75
851.255	1495.75
856.552	1509.75
861.844	1506.75
867.13	1485.75
872.41	1473.75
877.686	1473.75
882.955	1462.75
888.219	1441.75
893.478	1424.75
898.731	1394.75
903.979	1372.75
909.221	1385.75
914.458	1357.75
919.69	1358.75
924.916	1332.75
930.136	1341.75
935.351	1357.75
940.561	1338.75
945.766	1350.75
950.965	1344.75
956.158	1326.75
961.347	1318.75
966.529	1317.75
971.707	1299.75
976.879	1272.75
982.046	1251.75
987.208	1274.75
992.364	1253.75
997.515	1252.75
1002.66	1265.75
1007.801	1270.75
1012.936	1271.75
1018.066	1286.75
1023.19	1304.75
1028.309	1316.75
1033.423	1313.75
1038.532	1310.75
1043.636	1312.75
1048.734	1291.75
1053.827	1262.75
1058.915	1265.75
1063.998	1264.75
1069.075	1257.75
1074.147	1248.75
1079.214	1238.75
1084.276	1273.75
1089.333	1278.75
1094.385	1282.75
1099.431	1284.75
1104.472	1288.75
1109.509	1289.75
1114.54	1267.75
1119.565	1271.75
1124.586	1252.75
1129.602	1265.75
1134.613	1242.75
1139.618	1226.75
1144.619	1237.75
1149.614	1230.75
1154.604	1232.75
1159.589	1237.75
1164.57	1242.75
1169.545	1262.75
1174.515	1265.75
1179.48	1252.75
1184.44	1252.75
1189.395	1264.75
1194.345	1244.75
1199.29	1236.75
1204.23	1244.75
1209.165	1222.75
1214.095	1252.75
1219.021	1272.75
1223.941	1266.75
1228.856	1257.75
1233.766	1271.75
1238.672	1289.75
1243.572	1270.75
1248.467	1260.75
1253.358	1251.75
1258.244	1255.75
1263.124	1233.75
1268	1232.75
1272.871	1205.75
1277.737	1199.75
1282.599	1194.75
1287.455	1185.75
1292.306	1190.75
1297.153	1211.75
1301.995	1218.75
1306.832	1218.75
1311.664	1232.75
1316.491	1242.75
1321.314	1231.75
1326.132	1223.75
1330.945	1219.75
1335.753	1205.75
1340.556	1188.75
1345.354	1178.75
1350.148	1170.75
1354.937	1148.75
1359.722	1172.75
1364.501	1134.75
1369.276	1123.75
1374.046	1118.75
1378.811	1112.75
1383.572	1101.75
1388.327	1104.75
1393.079	1112.75
1397.825	1099.75
1402.567	1104.75
1407.304	1089.75
1412.036	1073.75
1416.764	1091.75
1421.487	1081.75
1426.205	1089.75
1430.919	1101.75
1435.628	1093.75
1440.333	1117.75
1445.032	1131.75
1449.727	1135.75
1454.418	1142.75
1459.104	1140.75
1463.785	1143.75
1468.462	1143.75
1473.134	1124.75
1477.802	1119.75
1482.465	1101.75
1487.123	1091.75
1491.777	1094.75
1496.426	1094.75
1501.071	1102.75
1505.711	1102.75
1510.347	1118.75
1514.978	1119.75
1519.604	1144.75
1524.226	1140.75
1528.844	1143.75
1533.457	1130.75
1538.065	1161.75
1542.669	1141.75
1547.269	1132.75
1551.864	1142.75
1556.454	1135.75
1561.041	1141.75
1565.622	1165.75
1570.199	1166.75
1574.772	1196.75
1579.34	1197.75
1583.904	1231.75
1588.464	1236.75
1593.019	1266.75
1597.569	1285.75
1602.115	1279.75
1606.657	1288.75
1611.195	1309.75
1615.728	1304.75
1620.256	1327.75
1624.78	1336.75
1629.3	1355.75
1633.816	1373.75
1638.327	1386.75
1642.834	1391.75
1647.336	1421.75
1651.834	1426.75
1656.328	1428.75
1660.817	1442.75
1665.302	1410.75
1669.783	1373.75
1674.259	1354.75
1678.732	1320.75
1683.199	1287.75
1687.663	1263.75
1692.122	1229.75
1696.577	1187.75
1701.028	1131.75
1705.474	1078.75
1709.917	1049.75
1714.355	1023.75
1718.788	1011.75
1723.218	1003.75
1727.643	981.75
1732.064	982.75
1736.481	941.75
1740.893	927.75
1745.301	909.75
1749.705	891.75
1754.105	870.75
1758.501	857.75
1762.893	838.75
1767.28	828.75
1771.663	825.75
1776.042	822.75
1780.417	800.75
1784.787	805.75
1789.154	813.75
1793.516	810.75
1797.874	817.75
1802.228	818.75
1806.578	796.75
1810.924	790.75
1815.266	778.75
1819.603	780.75
1823.937	765.75
1828.266	759.75
1832.591	747.75
1836.913	746.75
1841.23	736.75
1845.543	749.75
1849.852	750.75
1854.156	756.75
1858.457	746.75
1862.754	750.75
1867.047	758.75
1871.335	764.75
1875.62	769.75
1879.9	773.75
1884.177	763.75
1888.449	762.75
1892.718	752.75
1896.982	741.75
1901.243	759.75
1905.499	745.75
1909.752	742.75
1914	757.75
1918.245	740.75
1922.485	742.75
1926.722	741.75
1930.954	746.75
1935.183	729.75
1939.408	754.75
1943.628	753.75
1947.845	753.75
1952.058	745.75
1956.267	751.75
1960.472	752.75
1964.673	727.75
1968.87	730.75
1973.063	723.75
1977.252	723.75
1981.438	713.75
1985.619	715.75
1989.797	715.75
1993.971	707.75
1998.14	714.75
2002.306	721.75
2006.469	730.75
2010.627	738.75
2014.781	721.75
2018.932	718.75
2023.078	743.75
2027.221	731.75
2031.36	716.75
2035.495	715.75
2039.627	721.75
2043.754	702.75
2047.878	713.75
2051.998	707.75
2056.114	708.75
2060.226	703.75
2064.334	704.75
2068.439	706.75
2072.54	717.75
2076.637	708.75
2080.73	711.75
2084.82	722.75
2088.906	727.75
2092.988	734.75
2097.066	723.75
2101.14	715.75
2105.211	702.75
2109.278	703.75
2113.342	698.75
2117.401	705.75
2121.457	696.75
2125.509	703.75
2129.558	700.75
2133.602	684.75
2137.643	683.75
2141.681	682.75
2145.714	680.75
2149.744	682.75
2153.77	673.75
2157.793	686.75
2161.812	678.75
2165.827	673.75
2169.838	660.75
2173.846	657.75
2177.851	632.75
2181.851	630.75
2185.848	620.75
2189.841	618.75
2193.831	608.75
2197.817	609.75
2201.799	612.75
2205.778	610.75
2209.753	613.75
2213.725	599.75
2217.693	604.75
2221.657	607.75
2225.618	602.75
2229.575	606.75
2233.529	617.75
2237.479	601.75
2241.425	597.75
2245.368	590.75
2249.307	574.75
2253.243	566.75
2257.175	559.75
2261.104	555.75
2265.029	547.75
2268.95	551.75
2272.868	543.75
2276.783	537.75
2280.694	525.75
2284.601	514.75
2288.505	525.75
2292.405	519.75
2296.302	505.75
2300.195	509.75
2304.085	500.75
2307.971	498.75
2311.854	481.75
2315.734	478.75
2319.609	475.75
2323.482	467.75
2327.351	457.75
2331.216	457.75
2335.078	450.75
2338.937	450.75
2342.792	456.75
2346.643	445.75
2350.492	440.75
2354.336	452.75
2358.178	451.75
2362.015	446.75
2365.85	460.75
2369.681	450.75
2373.508	452.75
2377.333	454.75
2381.153	446.75
2384.971	447.75
2388.785	439.75
2392.595	452.75
2396.402	440.75
2400.206	441.75
2404.007	436.75
2407.804	443.75
2411.597	440.75
2415.388	437.75
2419.174	438.75
2422.958	431.75
2426.738	444.75
2430.515	429.75
2434.289	434.75
2438.059	425.75
2441.825	423.75
2445.589	428.75
2449.349	421.75
2453.106	417.75
2456.859	413.75
2460.61	407.75
2464.356	417.75
2468.1	419.75
2471.84	404.75
2475.577	400.75
2479.311	400.75
2483.041	403.75
2486.768	401.75
2490.492	400.75
2494.213	406.75
2497.93	396.75
2501.644	395.75
2505.355	396.75
2509.062	408.75
2512.766	391.75
2516.467	403.75
2520.165	398.75
2523.859	394.75
2527.551	378.75
2531.239	379.75
2534.923	389.75
2538.605	381.75
2542.283	389.75
2545.958	383.75
2549.63	367.75
2553.299	365.75
2556.964	375.75
2560.626	374.75
2564.285	370.75
2567.941	365.75
2571.594	361.75
2575.243	359.75
2578.89	345.75
2582.533	347.75
2586.173	348.75
2589.809	352.75
2593.443	353.75
2597.073	345.75
2600.701	349.75
2604.325	352.75
2607.946	341.75
2611.564	337.75
2615.178	337.75
2618.79	352.75
2622.398	342.75
2626.004	332.75
2629.606	339.75
2633.205	335.75
2636.801	343.75
2640.394	330.75
2643.983	324.75
2647.57	318.75
2651.153	322.75
2654.734	320.75
2658.311	318.75
2661.885	313.75
2665.456	311.75
2669.025	313.75
2672.589	305.75
2676.151	304.75
2679.71	306.75
2683.266	298.75
2686.819	305.75
2690.368	300.75
2693.915	293.75
2697.458	294.75
2700.999	285.75
2704.536	282.75
2708.071	276.75
2711.602	279.75
2715.13	289.75
2718.656	276.75
2722.178	279.75
2725.697	270.75
2729.214	283.75
2732.727	277.75
2736.237	286.75
2739.744	281.75
2743.249	276.75
2746.75	279.75
2750.248	273.75
2753.743	280.75
2757.236	276.75
2760.725	276.75
2764.211	268.75
2767.695	260.75
2771.175	268.75
2774.652	261.75
2778.127	256.75
2781.598	257.75
2785.067	264.75
2788.532	256.75
2791.995	262.75
2795.455	257.75
2798.911	253.75
2802.365	266.75
2805.816	260.75
2809.264	269.75
2812.709	267.75
2816.151	273.75
2819.59	267.75
2823.026	271.75
2826.46	259.75
2829.89	273.75
2833.318	257.75
2836.742	267.75
2840.164	271.75
2843.583	267.75
2846.999	272.75
2850.412	271.75
2853.822	282.75
2857.229	276.75
2860.634	274.75
2864.035	272.75
2867.434	277.75
2870.83	286.75
2874.223	283.75
2877.613	289.75
2881	299.75
2884.385	289.75
2887.766	290.75
2891.145	286.75
2894.521	287.75
2897.894	297.75
2901.264	299.75
2904.631	293.75
2907.996	300.75
2911.358	302.75
2914.717	295.75
2918.073	307.75
2921.426	301.75
2924.777	319.75
2928.124	310.75
2931.469	326.75
2934.811	317.75
2938.15	331.75
2941.487	326.75
2944.821	330.75
2948.152	344.75
2951.48	339.75
2954.805	339.75
2958.128	346.75
2961.447	346.75
2964.765	348.75
2968.079	362.75
2971.39	360.75
2974.699	371.75
2978.005	371.75
2981.308	372.75
2984.609	386.75
2987.907	394.75
2991.202	400.75
2994.494	417.75
2997.784	423.75
3001.07	428.75
3004.355	441.75
3007.636	448.75
3010.915	454.75
3014.191	465.75
3017.464	483.75
3020.734	475.75
3024.002	488.75
3027.267	488.75
3030.53	488.75
3033.789	500.75
3037.046	517.75
3040.301	529.75
3043.552	532.75
3046.801	543.75
3050.048	556.75
3053.291	578.75
3056.532	588.75
3059.771	602.75
3063.006	615.75
3066.239	626.75
3069.469	654.75
3072.697	659.75
3075.922	697.75
3079.144	715.75
3082.364	712.75
3085.581	733.75
3088.795	754.75
3092.007	760.75
3095.216	769.75
3098.423	795.75
3101.627	814.75
3104.828	823.75
3108.026	841.75
3111.222	859.75
3114.416	882.75
3117.607	895.75
3120.795	909.75
3123.98	915.75
3127.163	953.75
3130.344	981.75
3133.521	999.75
3136.696	1029.75
3139.869	1048.75
3143.039	1053.75
3146.206	1061.75
3149.371	1086.75
3152.533	1092.75
3155.693	1090.75
3158.85	1109.75
3162.005	1110.75
3165.157	1131.75
3168.306	1132.75
3171.453	1135.75
3174.597	1125.75
3177.739	1136.75
3180.878	1145.75
3184.014	1143.75
3187.149	1140.75
3190.28	1149.75
3193.409	1145.75
3196.536	1156.75
3199.659	1154.75
3202.781	1156.75
3205.9	1172.75
3209.016	1163.75
3212.13	1152.75
3215.241	1144.75
3218.35	1136.75
3221.456	1136.75
3224.56	1132.75
3227.661	1103.75
3230.76	1116.75
3233.856	1092.75
3236.95	1081.75
3240.041	1066.75
3243.13	1064.75
3246.216	1060.75
3249.3	1045.75
3252.382	1031.75
3255.46	1035.75
3258.537	1029.75
3261.611	1023.75
3264.682	1027.75
3267.751	1021.75
3270.818	1026.75
3273.882	1006.75
3276.943	1006.75
3280.002	998.75
3283.059	982.75
3286.113	975.75
3289.165	963.75
3292.214	961.75
3295.261	949.75
3298.306	921.75
3301.348	901.75
3304.387	888.75
3307.425	882.75
3310.459	874.75
3313.492	872.75
3316.521	847.75
3319.549	852.75
3322.574	845.75
3325.597	830.75
3328.617	831.75
3331.635	814.75
3334.65	815.75
3337.663	810.75
3340.674	807.75
3343.682	809.75
3346.688	799.75
3349.691	803.75
3352.692	800.75
3355.691	776.75
3358.687	787.75
3361.681	788.75
3364.673	766.75
3367.662	761.75
3370.649	757.75
3373.633	746.75
3376.615	728.75
3379.595	721.75
3382.572	705.75
3385.547	703.75
3388.52	680.75
3391.49	682.75
3394.458	678.75
3397.424	664.75
3400.387	655.75
3403.348	645.75
3406.307	642.75
3409.263	630.75
3412.217	633.75
3415.168	623.75
3418.118	624.75
3421.065	614.75
3424.009	607.75
3426.951	595.75
3429.891	583.75
3432.829	581.75
3435.764	565.75
3438.697	555.75
3441.628	541.75
3444.557	532.75
3447.483	509.75
3450.407	506.75
3453.328	487.75
3456.247	487.75
3459.164	463.75
3462.079	450.75
3464.991	435.75
3467.902	430.75
3470.809	412.75
3473.715	402.75
3476.618	386.75
3479.519	376.75
3482.418	377.75
3485.315	366.75
3488.209	352.75
3491.101	336.75
3493.99	332.75
3496.878	322.75
3499.763	311.75
3502.646	307.75
3505.527	293.75
3508.405	285.75
3511.281	278.75
3514.155	262.75
3517.027	246.75
3519.897	239.75
3522.764	239.75
3525.629	214.75
3528.492	213.75
3531.352	199.75
3534.211	185.75
3537.067	177.75
3539.921	179.75
3542.773	168.75
3545.622	157.75
3548.469	137.75
3551.315	140.75
3554.157	132.75
3556.998	128.75
3559.837	117.75
3562.673	118.75
3565.507	117.75
3568.339	99.75
3571.169	101.75
3573.996	92.75
3576.822	85.75
3579.645	82.75
3582.466	77.75
3585.285	77.75
3588.101	62.75
3590.916	58.75
3593.728	53.75
3596.538	52.75
3599.346	48.75
3602.152	41.75
3604.956	42.75
3607.757	36.75
3610.556	33.75
3613.354	27.75
3616.149	23.75
3618.942	20.75
3621.732	13.75
3624.521	17.75
3627.307	18.75
3630.092	13.75
3632.874	12.75
3635.654	2.75
3638.432	3.75
3641.208	0.75
3643.982	0.75
3646.753	-10.25
3649.523	-1.25
3652.29	-3.25
3655.055	-10.25
3657.818	-10.25
3660.579	-16.25
3663.338	-19.25
3666.095	-16.25
3668.849	-25.25
3671.602	-25.25
3674.352	-28.25
3677.101	-22.25
3679.847	-27.25
3682.591	-27.25
3685.333	-35.25
3688.073	-33.25
3690.811	-38.25
3693.547	-33.25
3696.281	-37.25
3699.013	-40.25
3701.742	-39.25
3704.47	-40.25
3707.195	-41.25
3709.919	-42.25
3712.64	-49.25
3715.359	-46.25
3718.076	-47.25
3720.792	-50.25
3723.505	-44.25
3726.216	-48.25
3728.925	-52.25
3731.632	-51.25
3734.336	-51.25
3737.039	-55.25
3739.74	-55.25
3742.439	-52.25
3745.136	-55.25
3747.83	-54.25
3750.523	-57.25
3753.213	-56.25
3755.902	-57.25
3758.589	-55.25
3761.273	-56.25
3763.956	-56.25
3766.636	-57.25
3769.315	-58.25
3771.991	-59.25
3774.665	-59.25
3777.338	-59.25
3780.008	-57.25
3782.677	-60.25
3785.343	-59.25
3788.007	-62.25
3790.67	-62.25
3793.33	-63.25
3795.989	-61.25
3798.645	-61.25
3801.299	-59.25
3803.952	-61.25
3806.602	-63.25
3809.251	-60.25
3811.897	-64.25
3814.542	-64.25
3817.184	-62.25
3819.825	-63.25
3822.463	-66.25
3825.1	-68.25
3827.735	-64.25
3830.367	-68.25
3832.998	-66.25
3835.627	-65.25
3838.253	-64.25
3840.878	-67.25
3843.501	-64.25
3846.122	-68.25
3848.741	-74.25
3851.358	-73.25
3853.973	-67.25
3856.586	-66.25
3859.197	-67.25
3861.806	-66.25
3864.414	-68.25
3867.019	-67.25
3869.622	-67.25
3872.224	-69.25
3874.823	-69.25
3877.421	-67.25
3880.016	-68.25
3882.61	-62.25
3885.202	-61.25
3887.792	-63.25
3890.38	-64.25
3892.966	-64.25
3895.55	-69.25
3898.132	-72.25
3900.713	-71.25
3903.291	-73.25
3905.868	-70.25
3908.442	-69.25
3911.015	-75.25
3913.586	-73.25
3916.155	-70.25
3918.722	-73.25
3921.287	-70.25
3923.85	-72.25
3926.411	-72.25
3928.971	-69.25
3931.528	-71.25
3934.084	-73.25
3936.638	-73.25
3939.19	-75.25
3941.74	-76.25
3944.288	-73.25
3946.834	-75.25
3949.378	-71.25
3951.921	-68.25
3954.462	-71.25
3957	-72.25
3959.537	-69.25
3962.072	-71.25
3964.606	-74.25
3967.137	-75.25
3969.667	-73.25
3972.194	-71.25
3974.72	-72.25
3977.244	-69.25
3979.766	-73.25
3982.286	-67.25
3984.805	-75.25
3987.321	-73.25
3989.836	-74.25
3992.349	-72.25
3994.86	-68.25
3997.369	-66.25
3999.877	-68.25
4002.382	-71.25
4004.886	-73.25
4007.388	-74.25
4009.888	-74.25
4012.386	-69.25
4014.883	-67.25
4017.377	-71.25
4019.87	-70.25
4022.361	-70.25
4024.85	-70.25
4027.338	-73.25
4029.823	-68.25
4032.307	-69.25
4034.789	-72.25
4037.269	-74.25
4039.747	-73.25
4042.224	-77.25
4044.699	-69.25
4047.172	-70.25
4049.643	-68.25
4052.112	-74.25
4054.58	-74.25
4057.046	-71.25
4059.51	-72.25
4061.972	-68.25
4064.432	-68.25
4066.891	-70.25
4069.348	-72.25
4071.803	-69.25
4074.256	-74.25
4076.708	-77.25
4079.158	-71.25
4081.606	-70.25
4084.052	-68.25
4086.497	-72.25
4088.939	-69.25
4091.38	-75.25
4093.819	-74.25
4096.257	-74.25
4098.693	-73.25
4101.127	-76.25
4103.559	-76.25
4105.989	-25.25
4108.418	-21.25
4110.845	-18.25
4113.27	-18.25
4115.694	-13.25
4118.115	-7.25
4120.535	-75.25
4122.954	-73.25
4125.37	-75.25
4127.785	-73.25
4130.198	-69.25
4132.609	-74.25
4135.019	-77.25
4137.427	-75.25
4139.833	-74.25
4142.237	-76.25
