Data from colinwater @60sec secondrun_File12_1.txt Node
Date: Wed Mar 22 17:14:20 IST 2017
User: aro
Spectrometer: QEPB0276
Trigger mode: 0
Integration Time (sec): 6.000000E1
Scans to average: 3
Electric dark correction enabled: true
Nonlinearity correction enabled: false
Boxcar width: 0
XAxis mode: Raman Shifts
Number of Pixels in Spectrum: 1044
>>>>>Begin Spectral Data<<<<<
160.701	-628.21
166.742	105.13
172.777	2313.79
178.805	9276.79
184.826	26830.46
190.841	56978.46
196.849	60108.12
202.85	60150.79
208.845	60132.46
214.833	60177.79
220.815	60137.46
226.789	60048.79
232.758	60162.79
238.719	60120.46
244.674	60114.46
250.623	60138.46
256.565	60122.79
262.5	60136.79
268.429	60144.12
274.351	60144.12
280.267	60136.79
286.176	60166.46
292.079	60126.79
297.975	60139.46
303.865	60143.79
309.748	60136.46
315.625	60114.79
321.495	60166.46
327.359	60130.12
333.217	60136.46
339.068	60129.79
344.912	60132.79
350.751	60116.46
356.583	60136.46
362.408	60165.79
368.227	60149.12
374.04	60144.79
379.847	60152.46
385.647	60172.12
391.44	60129.12
397.228	60150.46
403.009	60168.79
408.784	60143.46
414.553	60146.46
420.315	60161.46
426.071	60124.46
431.821	60151.46
437.565	60150.12
443.302	60155.46
449.033	60133.12
454.758	60150.79
460.477	60149.46
466.189	60157.46
471.896	60151.12
477.596	60185.79
483.29	60142.12
488.978	60158.46
494.66	60115.46
500.335	60129.12
506.005	60122.12
511.668	60159.46
517.325	60135.12
522.977	60131.12
528.622	60156.46
534.261	60153.46
539.894	60132.12
545.521	60149.12
551.141	60104.79
556.756	60111.12
562.365	60131.79
567.968	60133.12
573.565	60150.79
579.155	60154.12
584.74	60135.12
590.319	60146.79
595.892	60150.12
601.459	60168.79
607.02	60155.46
612.575	60141.12
618.124	60178.12
623.667	60109.79
629.204	60028.46
634.735	59824.79
640.261	59630.79
645.781	59392.46
651.294	59263.13
656.802	59228.79
662.304	59124.12
667.8	59082.12
673.29	59061.79
678.775	58946.46
684.254	58887.79
689.726	58684.46
695.193	58575.79
700.655	58361.13
706.11	58164.46
711.56	57919.79
717.004	57730.46
722.442	57592.79
727.874	57476.79
733.301	57267.79
738.722	57219.46
744.137	57129.13
749.547	57240.79
754.951	57261.46
760.349	57257.12
765.741	57357.79
771.128	57432.46
776.509	57595.79
781.885	57598.12
787.254	57575.46
792.618	57439.12
797.977	57255.13
803.33	57039.79
808.677	56869.46
814.019	56560.46
819.355	56288.79
824.686	56037.13
830.011	55918.12
835.33	55932.46
840.644	55986.46
845.952	56093.79
851.255	56174.46
856.552	56443.79
861.844	56683.79
867.13	57271.12
872.41	58232.46
877.686	59704.13
882.955	60053.46
888.219	59937.79
893.478	58325.46
898.731	55702.79
903.979	54358.46
909.221	53763.79
914.458	53465.46
919.69	53421.46
924.916	53509.13
930.136	53626.13
935.351	53765.46
940.561	53855.79
945.766	53794.13
950.965	53689.12
956.158	53477.79
961.347	53037.12
966.529	52520.12
971.707	51979.79
976.879	51528.46
982.046	51194.79
987.208	51190.46
992.364	51270.79
997.515	51717.46
1002.66	52198.12
1007.801	52749.79
1012.936	53439.12
1018.066	54109.13
1023.19	54493.12
1028.309	54724.79
1033.423	54823.12
1038.532	54722.12
1043.636	54872.46
1048.734	54895.13
1053.827	54560.46
1058.915	53941.12
1063.998	53389.46
1069.075	53178.12
1074.147	53480.79
1079.214	54029.46
1084.276	54771.12
1089.333	55400.12
1094.385	55760.12
1099.431	55655.46
1104.472	55344.46
1109.509	54945.12
1114.54	54306.13
1119.565	53707.79
1124.586	53187.46
1129.602	52840.13
1134.613	52481.79
1139.618	52348.79
1144.619	52359.12
1149.614	52458.79
1154.604	52703.13
1159.589	52976.12
1164.57	53142.46
1169.545	53345.46
1174.515	53402.46
1179.48	53238.13
1184.44	52989.46
1189.395	52652.46
1194.345	52476.79
1199.29	52374.79
1204.23	52498.46
1209.165	52804.46
1214.095	53048.79
1219.021	53519.12
1223.941	54034.12
1228.856	54443.12
1233.766	54672.46
1238.672	54769.46
1243.572	54731.79
1248.467	54468.46
1253.358	54038.12
1258.244	53483.46
1263.124	52900.79
1268	52376.79
1272.871	52145.12
1277.737	52025.46
1282.599	52097.46
1287.455	52212.46
1292.306	52340.12
1297.153	52527.12
1301.995	52870.12
1306.832	53113.46
1311.664	53303.13
1316.491	53343.79
1321.314	53181.79
1326.132	52760.12
1330.945	52000.79
1335.753	51144.79
1340.556	50281.46
1345.354	49503.13
1350.148	48899.12
1354.937	48763.79
1359.722	48983.46
1364.501	49596.13
1369.276	50514.79
1374.046	51328.46
1378.811	51898.13
1383.572	52188.46
1388.327	51934.12
1393.079	51552.12
1397.825	50845.79
1402.567	50094.12
1407.304	49507.79
1412.036	49194.79
1416.764	49028.46
1421.487	49039.12
1426.205	49266.13
1430.919	49624.46
1435.628	50226.46
1440.333	50766.79
1445.032	51249.46
1449.727	51905.46
1454.418	52641.46
1459.104	53017.79
1463.785	52504.46
1468.462	51424.46
1473.134	50368.46
1477.802	49669.13
1482.465	49483.79
1487.123	49408.12
1491.777	49640.79
1496.426	49833.12
1501.071	50160.79
1505.711	50548.46
1510.347	51081.46
1514.978	51582.46
1519.604	52007.79
1524.226	52383.46
1528.844	52501.46
1533.457	52406.13
1538.065	52407.79
1542.669	52251.46
1547.269	52038.79
1551.864	51854.79
1556.454	51876.12
1561.041	51982.79
1565.622	52176.13
1570.199	52360.46
1574.772	52808.79
1579.34	53204.12
1583.904	53582.12
1588.464	53962.12
1593.019	54135.12
1597.569	54189.46
1602.115	54154.13
1606.657	53969.13
1611.195	53816.12
1615.728	53719.13
1620.256	53932.46
1624.78	54174.46
1629.3	54555.46
1633.816	55027.46
1638.327	55541.46
1642.834	55998.12
1647.336	56484.46
1651.834	56809.79
1656.328	56823.46
1660.817	56780.46
1665.302	56466.79
1669.783	55811.46
1674.259	54910.46
1678.732	53794.12
1683.199	52423.46
1687.663	50834.46
1692.122	49374.79
1696.577	48490.12
1701.028	48333.46
1705.474	48617.46
1709.917	48693.46
1714.355	48330.79
1718.788	47673.46
1723.218	47102.12
1727.643	46368.79
1732.064	45825.13
1736.481	45060.12
1740.893	44345.46
1745.301	43536.46
1749.705	42896.79
1754.105	42067.13
1758.501	41443.12
1762.893	40785.79
1767.28	40406.13
1771.663	40116.46
1776.042	40018.12
1780.417	40111.79
1784.787	40420.46
1789.154	40925.12
1793.516	41451.12
1797.874	41885.79
1802.228	42342.13
1806.578	42528.79
1810.924	42392.79
1815.266	42248.79
1819.603	41650.13
1823.937	41136.12
1828.266	40542.46
1832.591	40146.12
1836.913	39769.79
1841.23	39482.12
1845.543	39463.79
1849.852	39387.46
1854.156	39347.12
1858.457	39402.46
1862.754	39552.12
1867.047	39656.79
1871.335	39722.13
1875.62	39828.12
1879.9	39810.12
1884.177	39778.46
1888.449	39625.46
1892.718	39414.46
1896.982	39236.79
1901.243	39181.46
1905.499	39070.79
1909.752	39106.12
1914	39154.46
1918.245	39252.79
1922.485	39501.13
1926.722	39731.13
1930.954	39889.46
1935.183	40115.12
1939.408	40315.79
1943.628	40441.46
1947.845	40548.79
1952.058	40549.46
1956.267	40449.46
1960.472	40203.79
1964.673	39763.46
1968.87	39484.79
1973.063	39116.46
1977.252	38863.13
1981.438	38721.12
1985.619	38478.12
1989.797	38341.46
1993.971	38293.12
1998.14	38309.46
2002.306	38358.79
2006.469	38385.46
2010.627	38377.79
2014.781	38373.79
2018.932	38256.12
2023.078	38056.79
2027.221	37755.79
2031.36	37440.13
2035.495	37024.79
2039.627	36772.12
2043.754	36501.46
2047.878	36346.13
2051.998	36282.46
2056.114	36375.13
2060.226	36380.46
2064.334	36458.46
2068.439	36577.79
2072.54	36752.12
2076.637	36948.13
2080.73	37089.12
2084.82	37179.46
2088.906	37184.46
2092.988	37117.12
2097.066	36952.12
2101.14	36746.13
2105.211	36592.12
2109.278	36419.13
2113.342	36242.46
2117.401	36231.12
2121.457	36165.13
2125.509	36110.12
2129.558	35944.46
2133.602	35903.12
2137.643	35905.79
2141.681	35824.12
2145.714	35757.13
2149.744	35538.46
2153.77	35334.79
2157.793	35155.79
2161.812	34810.46
2165.827	34447.46
2169.838	34039.13
2173.846	33622.13
2177.851	33172.79
2181.851	32828.46
2185.848	32542.46
2189.841	32290.79
2193.831	32114.46
2197.817	32007.46
2201.799	31894.13
2205.778	31849.79
2209.753	31833.13
2213.725	31819.46
2217.693	31847.79
2221.657	31863.13
2225.618	31833.46
2229.575	31780.46
2233.529	31654.79
2237.479	31533.79
2241.425	31256.13
2245.368	30993.46
2249.307	30726.13
2253.243	30409.46
2257.175	30086.12
2261.104	29803.79
2265.029	29557.79
2268.95	29366.46
2272.868	29132.46
2276.783	28866.46
2280.694	28716.79
2284.601	28509.46
2288.505	28278.79
2292.405	28018.79
2296.302	27833.79
2300.195	27569.46
2304.085	27274.12
2307.971	26968.12
2311.854	26635.79
2315.734	26247.79
2319.609	25893.79
2323.482	25614.46
2327.351	25356.79
2331.216	25200.46
2335.078	25116.13
2338.937	24954.79
2342.792	24843.79
2346.643	24749.46
2350.492	24723.12
2354.336	24768.46
2358.178	24752.79
2362.015	24876.12
2365.85	24897.12
2369.681	24920.12
2373.508	24903.79
2377.333	24918.79
2381.153	24921.79
2384.971	24839.79
2388.785	24700.12
2392.595	24534.79
2396.402	24398.46
2400.206	24285.46
2404.007	24174.46
2407.804	24122.79
2411.597	23980.79
2415.388	23942.46
2419.174	23894.46
2422.958	23819.79
2426.738	23731.79
2430.515	23603.79
2434.289	23578.46
2438.059	23489.46
2441.825	23361.79
2445.589	23243.12
2449.349	23111.12
2453.106	22979.79
2456.859	22810.46
2460.61	22635.12
2464.356	22536.79
2468.1	22369.46
2471.84	22282.79
2475.577	22189.12
2479.311	22148.12
2483.041	22191.46
2486.768	22198.46
2490.492	22216.12
2494.213	22253.79
2497.93	22251.79
2501.644	22236.46
2505.355	22197.12
2509.062	22198.79
2512.766	22135.13
2516.467	22111.79
2520.165	22054.79
2523.859	21887.79
2527.551	21758.12
2531.239	21655.46
2534.923	21498.46
2538.605	21422.46
2542.283	21343.46
2545.958	21259.46
2549.63	21172.79
2553.299	21135.46
2556.964	21017.13
2560.626	20928.79
2564.285	20816.79
2567.941	20714.79
2571.594	20629.13
2575.243	20525.79
2578.89	20410.79
2582.533	20322.79
2586.173	20170.46
2589.809	20101.46
2593.443	20060.12
2597.073	19907.79
2600.701	19834.79
2604.325	19777.46
2607.946	19765.12
2611.564	19723.79
2615.178	19682.12
2618.79	19638.12
2622.398	19580.79
2626.004	19448.79
2629.606	19264.13
2633.205	19127.13
2636.801	18980.12
2640.394	18845.79
2643.983	18641.13
2647.57	18496.12
2651.153	18315.46
2654.734	18113.46
2658.311	17970.46
2661.885	17777.13
2665.456	17624.46
2669.025	17507.12
2672.589	17423.79
2676.151	17327.79
2679.71	17173.79
2683.266	17036.13
2686.819	16854.13
2690.368	16607.12
2693.915	16417.79
2697.458	16216.79
2700.999	15993.79
2704.536	15851.79
2708.071	15722.46
2711.602	15573.79
2715.13	15491.12
2718.656	15327.46
2722.178	15263.46
2725.697	15231.46
2729.214	15263.12
2732.727	15289.79
2736.237	15339.79
2739.744	15422.12
2743.249	15496.79
2746.75	15517.12
2750.248	15558.79
2753.743	15545.46
2757.236	15550.46
2760.725	15560.79
2764.211	15556.79
2767.695	15458.46
2771.175	15367.12
2774.652	15284.46
2778.127	15210.46
2781.598	15102.46
2785.067	15006.46
2788.532	14967.46
2791.995	14923.12
2795.455	14881.79
2798.911	14858.13
2802.365	14832.46
2805.816	14764.79
2809.264	14640.46
2812.709	14604.79
2816.151	14519.12
2819.59	14523.46
2823.026	14460.13
2826.46	14377.12
2829.89	14331.46
2833.318	14363.46
2836.742	14350.12
2840.164	14345.79
2843.583	14389.12
2846.999	14421.13
2850.412	14467.46
2853.822	14543.13
2857.229	14539.46
2860.634	14627.79
2864.035	14758.79
2867.434	14828.79
2870.83	14928.12
2874.223	15117.46
2877.613	15226.46
2881	15369.12
2884.385	15495.46
2887.766	15493.46
2891.145	15392.12
2894.521	15235.13
2897.894	15151.13
2901.264	15031.46
2904.631	14939.12
2907.996	14870.12
2911.358	14823.79
2914.717	14786.12
2918.073	14815.46
2921.426	14835.12
2924.777	15007.13
2928.124	15156.79
2931.469	15475.46
2934.811	15888.12
2938.15	16054.13
2941.487	16047.79
2944.821	15814.46
2948.152	15619.46
2951.48	15351.79
2954.805	15175.79
2958.128	14946.12
2961.447	14842.79
2964.765	14746.79
2968.079	14779.12
2971.39	14853.13
2974.699	15014.12
2978.005	15173.46
2981.308	15345.12
2984.609	15566.46
2987.907	15745.79
2991.202	15803.79
2994.494	16012.12
2997.784	16051.79
3001.07	16164.79
3004.355	16305.79
3007.636	16391.13
3010.915	16457.46
3014.191	16477.46
3017.464	16536.79
3020.734	16495.46
3024.002	16479.46
3027.267	16524.46
3030.53	16558.46
3033.789	16585.79
3037.046	16724.79
3040.301	16790.46
3043.552	16961.13
3046.801	17096.46
3050.048	17336.46
3053.291	17590.13
3056.532	17917.79
3059.771	18256.79
3063.006	18519.12
3066.239	18891.12
3069.469	19260.46
3072.697	19610.46
3075.922	19947.12
3079.144	20236.46
3082.364	20496.12
3085.581	20818.79
3088.795	21073.46
3092.007	21345.79
3095.216	21661.46
3098.423	21994.13
3101.627	22364.79
3104.828	22667.79
3108.026	22964.12
3111.222	23288.12
3114.416	23752.12
3117.607	24050.46
3120.795	24504.46
3123.98	24951.13
3127.163	25462.12
3130.344	25839.12
3133.521	26258.46
3136.696	26722.13
3139.869	27077.12
3143.039	27473.13
3146.206	27703.79
3149.371	27934.46
3152.533	28164.79
3155.693	28342.46
3158.85	28384.46
3162.005	28452.12
3165.157	28528.79
3168.306	28585.13
3171.453	28634.79
3174.597	28653.46
3177.739	28728.79
3180.878	28713.79
3184.014	28703.46
3187.149	28777.46
3190.28	28847.46
3193.409	28920.46
3196.536	28976.46
3199.659	29020.13
3202.781	29134.12
3205.9	29183.46
3209.016	29151.13
3212.13	29037.79
3215.241	28963.13
3218.35	28704.79
3221.456	28542.13
3224.56	28344.79
3227.661	28029.46
3230.76	27827.13
3233.856	27593.79
3236.95	27359.46
3240.041	27234.79
3243.13	27085.46
3246.216	26922.12
3249.3	26754.46
3252.382	26643.46
3255.46	26614.12
3258.537	26697.46
3261.611	26486.12
3264.682	26391.13
3267.751	26324.79
3270.818	26315.46
3273.882	26142.46
3276.943	26059.46
3280.002	25780.46
3283.059	25548.79
3286.113	25264.79
3289.165	24956.12
3292.214	24613.12
3295.261	24204.46
3298.306	23835.79
3301.348	23448.46
3304.387	23070.79
3307.425	22738.46
3310.459	22449.79
3313.492	22126.13
3316.521	21865.12
3319.549	21595.12
3322.574	21357.12
3325.597	21213.79
3328.617	21077.13
3331.635	20900.46
3334.65	20803.12
3337.663	20635.46
3340.674	20590.46
3343.682	20488.79
3346.688	20442.12
3349.691	20381.79
3352.692	20268.46
3355.691	20065.46
3358.687	19883.13
3361.681	19683.46
3364.673	19477.79
3367.662	19191.79
3370.649	18947.79
3373.633	18715.46
3376.615	18456.13
3379.595	18267.79
3382.572	17941.79
3385.547	17751.46
3388.52	17547.12
3391.49	17286.12
3394.458	17072.79
3397.424	16889.46
3400.387	16662.79
3403.348	16503.12
3406.307	16315.13
3409.263	16206.46
3412.217	15969.12
3415.168	15832.13
3418.118	15667.79
3421.065	15557.46
3424.009	15331.46
3426.951	15163.79
3429.891	14934.79
3432.829	14689.79
3435.764	14388.13
3438.697	14140.79
3441.628	13782.46
3444.557	13492.46
3447.483	13131.12
3450.407	12788.46
3453.328	12451.13
3456.247	12120.46
3459.164	11837.79
3462.079	11469.79
3464.991	11152.12
3467.902	10835.79
3470.809	10510.12
3473.715	10242.46
3476.618	9979.46
3479.519	9720.79
3482.418	9498.79
3485.315	9231.46
3488.209	9001.79
3491.101	8745.46
3493.99	8600.12
3496.878	8358.46
3499.763	8124.79
3502.646	7914.79
3505.527	7701.13
3508.405	7425.13
3511.281	7175.46
3514.155	6864.46
3517.027	6573.79
3519.897	6332.46
3522.764	6001.79
3525.629	5751.79
3528.492	5486.46
3531.352	5188.12
3534.211	4920.79
3537.067	4706.46
3539.921	4448.79
3542.773	4204.13
3545.622	3994.79
3548.469	3807.79
3551.315	3602.46
3554.157	3419.13
3556.998	3246.46
3559.837	3071.13
3562.673	2900.13
3565.507	2794.12
3568.339	2629.13
3571.169	2514.13
3573.996	2341.13
3576.822	2213.79
3579.645	2075.79
3582.466	1900.79
3585.285	1733.13
3588.101	1612.12
3590.916	1494.79
3593.728	1367.46
3596.538	1226.13
3599.346	1074.79
3602.152	976.46
3604.956	845.79
3607.757	738.46
3610.556	643.46
3613.354	525.46
3616.149	423.79
3618.942	309.79
3621.732	230.12
3624.521	192.46
3627.307	94.79
3630.092	10.46
3632.874	-54.87
3635.654	-108.21
3638.432	-169.88
3641.208	-251.21
3643.982	-330.21
3646.753	-399.54
3649.523	-423.88
3652.29	-535.54
3655.055	-615.54
3657.818	-680.21
3660.579	-757.21
3663.338	-818.54
3666.095	-893.54
3668.849	-926.21
3671.602	-1025.21
3674.352	-1033.54
3677.101	-1142.88
3679.847	-1205.54
3682.591	-1227.54
3685.333	-1258.21
3688.073	-1331.87
3690.811	-1354.54
3693.547	-1403.21
3696.281	-1436.87
3699.013	-1466.21
3701.742	-1502.54
3704.47	-1510.21
3707.195	-1564.87
3709.919	-1588.87
3712.64	-1603.54
3715.359	-1634.21
3718.076	-1696.54
3720.792	-1717.87
3723.505	-1732.87
3726.216	-1780.21
3728.925	-1777.54
3731.632	-1811.54
3734.336	-1825.21
3737.039	-1856.54
3739.74	-1865.54
3742.439	-1823.21
3745.136	-1916.87
3747.83	-1938.21
3750.523	-1951.87
3753.213	-1833.21
3755.902	-1975.54
3758.589	-1946.54
3761.273	-1986.87
3763.956	-2022.54
3766.636	-2000.21
3769.315	-2045.21
3771.991	-2045.21
3774.665	-2050.54
3777.338	-2078.54
3780.008	-2081.54
3782.677	-2093.21
3785.343	-2104.87
3788.007	-2107.87
3790.67	-2143.54
3793.33	-2147.21
3795.989	-2157.87
3798.645	-2186.54
3801.299	-2161.54
3803.952	-2179.21
3806.602	-2204.87
3809.251	-2217.54
3811.897	-2215.54
3814.542	-2214.54
3817.184	-2223.21
3819.825	-2239.54
3822.463	-2251.54
3825.1	-2267.87
3827.735	-2270.87
3830.367	-2271.21
3832.998	-2293.54
3835.627	-2299.54
3838.253	-2322.21
3840.878	-2308.87
3843.501	-2339.21
3846.122	-2328.54
3848.741	-2345.87
3851.358	-2346.54
3853.973	-2317.21
3856.586	-2359.21
3859.197	-2372.54
3861.806	-2373.21
3864.414	-2362.87
3867.019	-2359.54
3869.622	-2372.21
3872.224	-2357.87
3874.823	-2335.87
3877.421	-2308.87
3880.016	-2241.54
3882.61	-2216.21
3885.202	-2208.87
3887.792	-2256.21
3890.38	-2350.54
3892.966	-2394.21
3895.55	-2405.87
3898.132	-2459.87
3900.713	-2464.87
3903.291	-2462.54
3905.868	-2459.54
3908.442	-2480.87
3911.015	-2489.87
3913.586	-2479.87
3916.155	-2500.87
3918.722	-2501.87
3921.287	-2502.54
3923.85	-2490.54
3926.411	-2505.54
3928.971	-2521.87
3931.528	-2524.54
3934.084	-2527.21
3936.638	-2520.87
3939.19	-2525.21
3941.74	-2541.54
3944.288	-2553.54
3946.834	-2532.87
3949.378	-2556.21
3951.921	-2516.54
3954.462	-2527.87
3957	-2543.54
3959.537	-2532.54
3962.072	-2508.87
3964.606	-2503.87
3967.137	-2539.21
3969.667	-2525.54
3972.194	-2522.54
3974.72	-2499.54
3977.244	-2459.54
3979.766	-2474.87
3982.286	-2477.54
3984.805	-2497.87
3987.321	-2499.54
3989.836	-2481.87
3992.349	-2480.54
3994.86	-2490.87
3997.369	-2482.87
3999.877	-2491.21
4002.382	-2492.87
4004.886	-2489.54
4007.388	-2481.54
4009.888	-2489.54
4012.386	-2506.87
4014.883	-2501.21
4017.377	-2493.21
4019.87	-2498.54
4022.361	-2488.54
4024.85	-2501.21
4027.338	-2512.87
4029.823	-2511.87
4032.307	-2523.87
4034.789	-2524.21
4037.269	-2520.21
4039.747	-2484.54
4042.224	-2524.54
4044.699	-2506.54
4047.172	-2516.54
4049.643	-2552.87
4052.112	-2504.54
4054.58	-2526.21
4057.046	-2520.21
4059.51	-2523.87
4061.972	-2515.54
4064.432	-2497.87
4066.891	-2539.54
4069.348	-2533.21
4071.803	-2535.54
4074.256	-2535.21
4076.708	-2531.87
4079.158	-2518.54
4081.606	-2554.87
4084.052	-2526.87
4086.497	-2550.21
4088.939	-2524.87
4091.38	-2520.21
4093.819	-2539.54
4096.257	-2748.87
4098.693	-2753.54
4101.127	-2766.87
4103.559	-2750.54
4105.989	-1667.87
4108.418	-1602.21
4110.845	-1493.54
4113.27	-1377.54
4115.694	-1213.54
4118.115	-953.54
4120.535	-2552.54
4122.954	-2553.21
4125.37	-2562.54
4127.785	-2555.21
4130.198	-2552.87
4132.609	-2547.21
4135.019	-2768.54
4137.427	-2763.87
4139.833	-2767.54
4142.237	-2767.54
