Data from colinwater @100sec secondrun_Capture15_1.txt Node
Date: Wed Mar 22 17:22:18 IST 2017
User: aro
Spectrometer: QEPB0276
Trigger mode: 0
Integration Time (sec): 1.000000E2
Scans to average: 3
Electric dark correction enabled: true
Nonlinearity correction enabled: false
Boxcar width: 0
XAxis mode: Raman Shifts
Number of Pixels in Spectrum: 1044
>>>>>Begin Spectral Data<<<<<
160.701	-530.29
166.742	122.04
172.777	2056.38
178.805	8122.38
184.826	23651.04
190.841	50701.71
196.849	60432.04
202.85	60474.71
208.845	60456.38
214.833	60501.71
220.815	60461.38
226.789	60372.71
232.758	60486.71
238.719	60444.38
244.674	60438.38
250.623	60462.38
256.565	60446.71
262.5	60460.71
268.429	60468.04
274.351	60468.04
280.267	60460.71
286.176	60490.38
292.079	60450.71
297.975	60463.38
303.865	60467.71
309.748	60460.38
315.625	60438.71
321.495	60490.38
327.359	60454.04
333.217	60460.38
339.068	60453.71
344.912	60456.71
350.751	60440.38
356.583	60460.38
362.408	60489.71
368.227	60473.04
374.04	60468.71
379.847	60476.38
385.647	60496.04
391.44	60453.04
397.228	60474.38
403.009	60492.71
408.784	60467.38
414.553	60470.38
420.315	60485.38
426.071	60448.38
431.821	60475.38
437.565	60474.04
443.302	60479.38
449.033	60457.04
454.758	60474.71
460.477	60473.38
466.189	60481.38
471.896	60475.04
477.596	60509.71
483.29	60466.04
488.978	60482.38
494.66	60439.38
500.335	60453.04
506.005	60418.04
511.668	59527.38
517.325	58630.04
522.977	57966.04
528.622	57372.38
534.261	57011.38
539.894	56594.04
545.521	56328.04
551.141	56140.71
556.756	56088.04
562.365	55783.71
567.968	55748.04
573.565	55460.71
579.155	55287.04
584.74	55072.04
590.319	54846.71
595.892	54605.04
601.459	54459.71
607.02	54092.38
612.575	53712.04
618.124	53288.04
623.667	52858.71
629.204	52630.38
634.735	52306.04
640.261	52163.04
645.781	51934.71
651.294	51654.71
656.802	51676.71
662.304	51616.38
667.8	51401.38
673.29	51395.38
678.775	51328.04
684.254	51336.04
689.726	51174.04
695.193	50971.04
700.655	50789.71
706.11	50568.38
711.56	50346.04
717.004	50155.38
722.442	50010.04
727.874	49881.71
733.301	49699.71
738.722	49626.38
744.137	49546.71
749.547	49644.38
754.951	49579.04
760.349	49748.38
765.741	49790.38
771.128	49906.04
776.509	50078.71
781.885	50082.38
787.254	50107.71
792.618	50094.38
797.977	49716.71
803.33	49546.38
808.677	49283.04
814.019	49094.38
819.355	48756.71
824.686	48525.71
830.011	48526.04
835.33	48477.71
840.644	48487.71
845.952	48649.04
851.255	48903.38
856.552	49158.04
861.844	49501.71
867.13	50350.38
872.41	52037.71
877.686	54658.71
882.955	56807.04
888.219	56005.71
893.478	52617.71
898.731	49263.38
903.979	47413.71
909.221	46611.04
914.458	46148.71
919.69	46048.38
924.916	46075.71
930.136	46180.71
935.351	46279.38
940.561	46327.04
945.766	46212.71
950.965	46073.38
956.158	45880.38
961.347	45521.04
966.529	45011.38
971.707	44503.04
976.879	44117.04
982.046	43788.71
987.208	43822.38
992.364	43968.38
997.515	44384.38
1002.66	44738.38
1007.801	45323.71
1012.936	46012.38
1018.066	46753.71
1023.19	47086.04
1028.309	47376.38
1033.423	47513.38
1038.532	47697.38
1043.636	48123.38
1048.734	48484.71
1053.827	48298.38
1058.915	47488.04
1063.998	46750.71
1069.075	46519.04
1074.147	46627.38
1079.214	47371.71
1084.276	48188.38
1089.333	48750.38
1094.385	49229.38
1099.431	48838.04
1104.472	48225.71
1109.509	47686.04
1114.54	47025.71
1119.565	46406.71
1124.586	45888.71
1129.602	45500.71
1134.613	45144.71
1139.618	44974.38
1144.619	44991.04
1149.614	45096.38
1154.604	45215.71
1159.589	45584.04
1164.57	45608.71
1169.545	45805.38
1174.515	45890.71
1179.48	45624.71
1184.44	45391.71
1189.395	45119.04
1194.345	44943.71
1199.29	44857.71
1204.23	44981.38
1209.165	45235.38
1214.095	45558.38
1219.021	46077.04
1223.941	46348.38
1228.856	46814.38
1233.766	47046.71
1238.672	47065.71
1243.572	47138.04
1248.467	46838.71
1253.358	46488.38
1258.244	46171.04
1263.124	45472.38
1268	45283.38
1272.871	45241.38
1277.737	45260.38
1282.599	45336.04
1287.455	45508.04
1292.306	45422.04
1297.153	45521.38
1301.995	45818.38
1306.832	45902.71
1311.664	46020.71
1316.491	46190.38
1321.314	45969.71
1326.132	45490.38
1330.945	44903.04
1335.753	44080.04
1340.556	43227.71
1345.354	42561.71
1350.148	41905.38
1354.937	41683.71
1359.722	41736.71
1364.501	42109.71
1369.276	42807.04
1374.046	43509.71
1378.811	44110.71
1383.572	44518.71
1388.327	44513.38
1393.079	44230.04
1397.825	43695.38
1402.567	43135.04
1407.304	42725.71
1412.036	42443.71
1416.764	42373.04
1421.487	42549.04
1426.205	42811.71
1430.919	43179.38
1435.628	43672.71
1440.333	44395.38
1445.032	44923.04
1449.727	45682.71
1454.418	46809.38
1459.104	47326.71
1463.785	46730.38
1468.462	45234.71
1473.134	43782.71
1477.802	42934.71
1482.465	42580.71
1487.123	42282.38
1491.777	42234.04
1496.426	42289.04
1501.071	42190.38
1505.711	42399.38
1510.347	42677.04
1514.978	43057.04
1519.604	43393.38
1524.226	43584.04
1528.844	43841.38
1533.457	43786.71
1538.065	43971.04
1542.669	43876.04
1547.269	43737.38
1551.864	43733.04
1556.454	43860.38
1561.041	43987.38
1565.622	44173.71
1570.199	44386.04
1574.772	44889.04
1579.34	45332.04
1583.904	45657.38
1588.464	46056.38
1593.019	46198.04
1597.569	46305.71
1602.115	46216.71
1606.657	46086.71
1611.195	46115.38
1615.728	46139.71
1620.256	46208.04
1624.78	46427.71
1629.3	46714.04
1633.816	47131.38
1638.327	47475.71
1642.834	47864.38
1647.336	48165.04
1651.834	48336.71
1656.328	48341.04
1660.817	48233.71
1665.302	47835.71
1669.783	47075.38
1674.259	46198.04
1678.732	45033.38
1683.199	43698.71
1687.663	41955.71
1692.122	40618.71
1696.577	39470.38
1701.028	39171.71
1705.474	39310.04
1709.917	39417.71
1714.355	39222.71
1718.788	38784.04
1723.218	38395.38
1727.643	37956.71
1732.064	37398.71
1736.481	36930.04
1740.893	36328.04
1745.301	35668.04
1749.705	35052.71
1754.105	34353.71
1758.501	33780.04
1762.893	33280.04
1767.28	32845.71
1771.663	32476.38
1776.042	32145.04
1780.417	32132.04
1784.787	32254.04
1789.154	32462.04
1793.516	32814.04
1797.874	33109.38
1802.228	33415.71
1806.578	33675.71
1810.924	33740.38
1815.266	33755.71
1819.603	33311.71
1823.937	33088.38
1828.266	32748.71
1832.591	32480.04
1836.913	32224.38
1841.23	32066.38
1845.543	31982.38
1849.852	31950.04
1854.156	31927.38
1858.457	31941.71
1862.754	31979.04
1867.047	31935.71
1871.335	31997.71
1875.62	32083.38
1879.9	32115.38
1884.177	31866.71
1888.449	31664.71
1892.718	31370.04
1896.982	31158.04
1901.243	31003.71
1905.499	30868.38
1909.752	30752.38
1914	30663.04
1918.245	30666.71
1922.485	30680.71
1926.722	30826.71
1930.954	30874.38
1935.183	30963.04
1939.408	31070.71
1943.628	31252.04
1947.845	31424.71
1952.058	31513.04
1956.267	31539.38
1960.472	31477.71
1964.673	31139.38
1968.87	31070.71
1973.063	30845.38
1977.252	30735.71
1981.438	30663.04
1985.619	30629.04
1989.797	30572.71
1993.971	30586.04
1998.14	30610.04
2002.306	30745.38
2006.469	30770.04
2010.627	30815.38
2014.781	30671.71
2018.932	30670.04
2023.078	30477.38
2027.221	30262.38
2031.36	29941.71
2035.495	29608.04
2039.627	29396.38
2043.754	29174.38
2047.878	28992.71
2051.998	28855.38
2056.114	28867.71
2060.226	28827.04
2064.334	28806.71
2068.439	28872.04
2072.54	28883.38
2076.637	29109.71
2080.73	29036.38
2084.82	29101.71
2088.906	29073.38
2092.988	28964.38
2097.066	28790.38
2101.14	28650.71
2105.211	28458.04
2109.278	28445.71
2113.342	28365.04
2117.401	28388.04
2121.457	28452.71
2125.509	28491.38
2129.558	28345.71
2133.602	28377.04
2137.643	28424.04
2141.681	28410.38
2145.714	28408.71
2149.744	28346.71
2153.77	28267.04
2157.793	28096.38
2161.812	27940.71
2165.827	27611.71
2169.838	27296.71
2173.846	26961.71
2177.851	26672.71
2181.851	26351.38
2185.848	26075.71
2189.841	25919.04
2193.831	25782.04
2197.817	25644.71
2201.799	25603.71
2205.778	25644.71
2209.753	25618.04
2213.725	25613.71
2217.693	25593.71
2221.657	25723.71
2225.618	25649.38
2229.575	25644.04
2233.529	25477.71
2237.479	25352.71
2241.425	25270.71
2245.368	25041.71
2249.307	24728.71
2253.243	24498.04
2257.175	24235.38
2261.104	24073.38
2265.029	23877.71
2268.95	23744.71
2272.868	23531.38
2276.783	23415.71
2280.694	23268.04
2284.601	23101.04
2288.505	23006.38
2292.405	22829.71
2296.302	22604.71
2300.195	22472.04
2304.085	22325.38
2307.971	22009.38
2311.854	21779.71
2315.734	21527.04
2319.609	21233.71
2323.482	21015.04
2327.351	20863.71
2331.216	20817.04
2335.078	20727.04
2338.937	20587.04
2342.792	20567.71
2346.643	20496.04
2350.492	20583.38
2354.336	20597.71
2358.178	20607.71
2362.015	20781.38
2365.85	20793.38
2369.681	20860.71
2373.508	20879.71
2377.333	20818.38
2381.153	20834.38
2384.971	20835.38
2388.785	20679.38
2392.595	20487.71
2396.402	20521.71
2400.206	20410.38
2404.007	20367.71
2407.804	20226.38
2411.597	20228.71
2415.388	20182.71
2419.174	20175.71
2422.958	20144.04
2426.738	20108.04
2430.515	19968.38
2434.289	19830.38
2438.059	19818.04
2441.825	19756.38
2445.589	19673.38
2449.349	19539.71
2453.106	19335.38
2456.859	19203.38
2460.61	19063.71
2464.356	18962.04
2468.1	18820.38
2471.84	18748.04
2475.577	18666.38
2479.311	18626.38
2483.041	18640.04
2486.768	18600.38
2490.492	18575.71
2494.213	18630.71
2497.93	18569.71
2501.644	18597.71
2505.355	18515.38
2509.062	18524.38
2512.766	18426.04
2516.467	18318.04
2520.165	18258.04
2523.859	18122.38
2527.551	17929.38
2531.239	17811.04
2534.923	17688.38
2538.605	17617.71
2542.283	17519.04
2545.958	17473.71
2549.63	17376.71
2553.299	17350.71
2556.964	17245.04
2560.626	17142.71
2564.285	17010.71
2567.941	16991.71
2571.594	16836.04
2575.243	16816.71
2578.89	16693.38
2582.533	16650.04
2586.173	16537.38
2589.809	16445.04
2593.443	16387.38
2597.073	16316.38
2600.701	16282.04
2604.325	16160.04
2607.946	16263.38
2611.564	16254.71
2615.178	16233.38
2618.79	16174.71
2622.398	16147.04
2626.004	16043.04
2629.606	15917.04
2633.205	15839.04
2636.801	15718.71
2640.394	15564.71
2643.983	15450.04
2647.57	15389.71
2651.153	15264.04
2654.734	15044.38
2658.311	14939.38
2661.885	14776.04
2665.456	14733.04
2669.025	14653.38
2672.589	14596.71
2676.151	14449.38
2679.71	14313.71
2683.266	14253.04
2686.819	14083.04
2690.368	13878.38
2693.915	13730.71
2697.458	13541.38
2700.999	13390.38
2704.536	13274.04
2708.071	13112.71
2711.602	13031.71
2715.13	12928.71
2718.656	12794.71
2722.178	12706.38
2725.697	12652.38
2729.214	12648.04
2732.727	12610.04
2736.237	12661.38
2739.744	12568.71
2743.249	12607.04
2746.75	12541.71
2750.248	12545.04
2753.743	12497.04
2757.236	12473.04
2760.725	12461.38
2764.211	12487.71
2767.695	12412.38
2771.175	12434.04
2774.652	12385.71
2778.127	12331.71
2781.598	12252.04
2785.067	12206.04
2788.532	12163.04
2791.995	12156.04
2795.455	12154.04
2798.911	12133.38
2802.365	12146.38
2805.816	12107.04
2809.264	12027.04
2812.709	11996.71
2816.151	11979.04
2819.59	11957.38
2823.026	11918.38
2826.46	11954.71
2829.89	11889.71
2833.318	11907.38
2836.742	11941.04
2840.164	11983.04
2843.583	12116.04
2846.999	12150.38
2850.412	12201.38
2853.822	12282.38
2857.229	12298.04
2860.634	12416.38
2864.035	12609.38
2867.434	12714.71
2870.83	12961.04
2874.223	13175.04
2877.613	13360.38
2881	13679.71
2884.385	13912.04
2887.766	13936.04
2891.145	13971.04
2894.521	13785.38
2897.894	13715.38
2901.264	13606.38
2904.631	13612.71
2907.996	13522.71
2911.358	13447.71
2914.717	13457.71
2918.073	13444.71
2921.426	13528.04
2924.777	13713.38
2928.124	13994.71
2931.469	14498.71
2934.811	15006.71
2938.15	15321.38
2941.487	15296.04
2944.821	14977.38
2948.152	14626.71
2951.48	14218.38
2954.805	13900.71
2958.128	13519.04
2961.447	13357.71
2964.765	13194.04
2968.079	13186.71
2971.39	13174.38
2974.699	13244.71
2978.005	13453.71
2981.308	13553.04
2984.609	13732.38
2987.907	13802.71
2991.202	13848.71
2994.494	13902.04
2997.784	13874.04
3001.07	13883.04
3004.355	13906.38
3007.636	13976.04
3010.915	13973.71
3014.191	14013.38
3017.464	14103.38
3020.734	14062.04
3024.002	14036.71
3027.267	14113.38
3030.53	14107.04
3033.789	14198.38
3037.046	14308.71
3040.301	14437.04
3043.552	14575.04
3046.801	14708.38
3050.048	14886.38
3053.291	15129.04
3056.532	15365.04
3059.771	15707.04
3063.006	15996.38
3066.239	16211.38
3069.469	16499.38
3072.697	16908.71
3075.922	17214.71
3079.144	17423.71
3082.364	17661.38
3085.581	17920.04
3088.795	18183.38
3092.007	18407.38
3095.216	18728.71
3098.423	18903.04
3101.627	19307.04
3104.828	19570.71
3108.026	19863.71
3111.222	20163.71
3114.416	20463.71
3117.607	20766.04
3120.795	21078.04
3123.98	21578.04
3127.163	21887.71
3130.344	22317.71
3133.521	22658.71
3136.696	22993.04
3139.869	23321.71
3143.039	23676.04
3146.206	23914.04
3149.371	24231.71
3152.533	24368.04
3155.693	24494.71
3158.85	24540.04
3162.005	24603.38
3165.157	24752.38
3168.306	24719.04
3171.453	24853.71
3174.597	24919.38
3177.739	24933.71
3180.878	24949.38
3184.014	24974.38
3187.149	25064.04
3190.28	25032.38
3193.409	25159.38
3196.536	25216.38
3199.659	25225.04
3202.781	25375.38
3205.9	25356.38
3209.016	25308.71
3212.13	25264.71
3215.241	25178.04
3218.35	24983.71
3221.456	24773.04
3224.56	24588.71
3227.661	24275.38
3230.76	24094.71
3233.856	23836.71
3236.95	23653.04
3240.041	23447.38
3243.13	23267.38
3246.216	23112.71
3249.3	23030.38
3252.382	22845.04
3255.46	22813.71
3258.537	22936.38
3261.611	22745.38
3264.682	22596.04
3267.751	22571.04
3270.818	22577.04
3273.882	22416.71
3276.943	22338.71
3280.002	22214.38
3283.059	22044.04
3286.113	21778.38
3289.165	21497.38
3292.214	21232.71
3295.261	20886.04
3298.306	20618.04
3301.348	20301.71
3304.387	19971.04
3307.425	19761.71
3310.459	19539.71
3313.492	19275.04
3316.521	19026.71
3319.549	18785.38
3322.574	18693.71
3325.597	18550.71
3328.617	18406.04
3331.635	18288.38
3334.65	18235.38
3337.663	18160.04
3340.674	18036.71
3343.682	17985.71
3346.688	17891.71
3349.691	17873.38
3352.692	17729.38
3355.691	17626.04
3358.687	17397.04
3361.681	17282.71
3364.673	17106.04
3367.662	16847.04
3370.649	16644.71
3373.633	16472.04
3376.615	16263.04
3379.595	16061.71
3382.572	15750.04
3385.547	15548.04
3388.52	15450.71
3391.49	15166.38
3394.458	14993.04
3397.424	14794.71
3400.387	14631.04
3403.348	14484.71
3406.307	14336.38
3409.263	14206.38
3412.217	13990.04
3415.168	13838.38
3418.118	13768.71
3421.065	13636.71
3424.009	13464.38
3426.951	13287.71
3429.891	13066.38
3432.829	12828.04
3435.764	12557.38
3438.697	12345.71
3441.628	12009.38
3444.557	11786.38
3447.483	11465.04
3450.407	11200.71
3453.328	10824.38
3456.247	10584.38
3459.164	10297.71
3462.079	9947.04
3464.991	9671.71
3467.902	9405.71
3470.809	9106.04
3473.715	8806.38
3476.618	8581.71
3479.519	8367.38
3482.418	8194.71
3485.315	7972.04
3488.209	7736.04
3491.101	7548.04
3493.99	7359.04
3496.878	7129.71
3499.763	6936.71
3502.646	6764.38
3505.527	6548.71
3508.405	6297.71
3511.281	6072.38
3514.155	5859.04
3517.027	5595.04
3519.897	5392.71
3522.764	5097.04
3525.629	4887.71
3528.492	4641.71
3531.352	4362.04
3534.211	4175.04
3537.067	3968.38
3539.921	3756.38
3542.773	3564.71
3545.622	3359.38
3548.469	3180.38
3551.315	3004.71
3554.157	2855.04
3556.998	2676.71
3559.837	2544.04
3562.673	2410.71
3565.507	2323.71
3568.339	2214.04
3571.169	2071.38
3573.996	1915.38
3576.822	1800.71
3579.645	1697.71
3582.466	1569.04
3585.285	1440.38
3588.101	1317.71
3590.916	1210.04
3593.728	1108.04
3596.538	971.38
3599.346	835.04
3602.152	769.04
3604.956	642.38
3607.757	536.38
3610.556	500.71
3613.354	384.71
3616.149	301.04
3618.942	197.38
3621.732	120.71
3624.521	115.71
3627.307	34.04
3630.092	-33.29
3632.874	-98.96
3635.654	-123.29
3638.432	-166.29
3641.208	-257.96
3643.982	-321.96
3646.753	-366.29
3649.523	-398.29
3652.29	-493.29
3655.055	-555.96
3657.818	-614.62
3660.579	-689.62
3663.338	-715.29
3666.095	-794.96
3668.849	-817.29
3671.602	-913.29
3674.352	-915.96
3677.101	-999.29
3679.847	-1067.29
3682.591	-1080.96
3685.333	-1118.62
3688.073	-1160.96
3690.811	-1196.29
3693.547	-1223.29
3696.281	-1254.62
3699.013	-1289.62
3701.742	-1306.62
3704.47	-1328.96
3707.195	-1379.29
3709.919	-1384.62
3712.64	-1424.96
3715.359	-1439.29
3718.076	-1503.62
3720.792	-1507.29
3723.505	-1520.29
3726.216	-1562.29
3728.925	-1552.62
3731.632	-1583.96
3734.336	-1592.62
3737.039	-1617.29
3739.74	-1628.96
3742.439	-1605.62
3745.136	-1680.29
3747.83	-1714.62
3750.523	-1714.29
3753.213	-1605.62
3755.902	-1739.29
3758.589	-1710.62
3761.273	-1751.62
3763.956	-1770.96
3766.636	-1744.62
3769.315	-1800.29
3771.991	-1802.62
3774.665	-1808.29
3777.338	-1820.96
3780.008	-1826.62
3782.677	-1836.62
3785.343	-1838.29
3788.007	-1852.62
3790.67	-1881.62
3793.33	-1891.96
3795.989	-1891.96
3798.645	-1913.96
3801.299	-1903.62
3803.952	-1922.29
3806.602	-1943.29
3809.251	-1950.96
3811.897	-1942.29
3814.542	-1946.96
3817.184	-1953.62
3819.825	-1971.62
3822.463	-1978.29
3825.1	-1990.96
3827.735	-1990.62
3830.367	-1993.62
3832.998	-2019.62
3835.627	-2025.96
3838.253	-2040.29
3840.878	-2024.29
3843.501	-2054.62
3846.122	-2052.96
3848.741	-2061.62
3851.358	-2063.96
3853.973	-2036.96
3856.586	-2068.62
3859.197	-2086.29
3861.806	-2089.29
3864.414	-2071.96
3867.019	-2069.29
3869.622	-2092.96
3872.224	-2075.62
3874.823	-2033.29
3877.421	-2012.62
3880.016	-1962.62
3882.61	-1918.29
3885.202	-1895.62
3887.792	-1946.29
3890.38	-2041.29
3892.966	-2087.96
3895.55	-2108.96
3898.132	-2159.29
3900.713	-2171.96
3903.291	-2166.96
3905.868	-2152.62
3908.442	-2184.29
3911.015	-2190.62
3913.586	-2187.96
3916.155	-2199.29
3918.722	-2205.96
3921.287	-2208.96
3923.85	-2190.96
3926.411	-2204.96
3928.971	-2229.62
3931.528	-2215.96
3934.084	-2228.96
3936.638	-2221.29
3939.19	-2221.96
3941.74	-2233.96
3944.288	-2243.96
3946.834	-2232.96
3949.378	-2254.62
3951.921	-2211.29
3954.462	-2226.62
3957	-2244.62
3959.537	-2235.29
3962.072	-2202.29
3964.606	-2204.96
3967.137	-2236.96
3969.667	-2235.62
3972.194	-2212.96
3974.72	-2201.96
3977.244	-2168.62
3979.766	-2188.96
3982.286	-2182.62
3984.805	-2202.29
3987.321	-2209.62
3989.836	-2197.62
3992.349	-2186.96
3994.86	-2190.96
3997.369	-2192.96
3999.877	-2191.29
4002.382	-2196.29
4004.886	-2196.29
4007.388	-2184.62
4009.888	-2195.96
4012.386	-2212.96
4014.883	-2208.29
4017.377	-2201.62
4019.87	-2205.29
4022.361	-2192.62
4024.85	-2203.62
4027.338	-2218.29
4029.823	-2212.29
4032.307	-2222.29
4034.789	-2223.62
4037.269	-2214.62
4039.747	-2177.96
4042.224	-2227.29
4044.699	-2203.29
4047.172	-2217.96
4049.643	-2251.62
4052.112	-2207.29
4054.58	-2227.29
4057.046	-2222.29
4059.51	-2225.62
4061.972	-2225.29
4064.432	-2196.96
4066.891	-2241.29
4069.348	-2233.29
4071.803	-2234.29
4074.256	-2237.29
4076.708	-2230.29
4079.158	-2215.96
4081.606	-2259.29
4084.052	-2217.29
4086.497	-2241.96
4088.939	-2224.62
4091.38	-2206.29
4093.819	-2236.62
4096.257	-2419.96
4098.693	-2430.96
4101.127	-2439.62
4103.559	-2430.29
4105.989	-1412.62
4108.418	-1353.62
4110.845	-1268.29
4113.27	-1187.96
4115.694	-999.62
4118.115	-800.96
4120.535	-2245.62
4122.954	-2243.96
4125.37	-2257.62
4127.785	-2254.96
4130.198	-2254.62
4132.609	-2250.96
4135.019	-2448.29
4137.427	-2442.62
4139.833	-2438.62
4142.237	-2440.96
