Data from colinwater @60sec secondrun_File11_0.txt Node
Date: Wed Mar 22 17:14:20 IST 2017
User: aro
Spectrometer: QEPB0276
Trigger mode: 0
Integration Time (sec): 6.000000E1
Scans to average: 3
Electric dark correction enabled: true
Nonlinearity correction enabled: false
Boxcar width: 0
XAxis mode: Raman Shifts
Number of Pixels in Spectrum: 1044
>>>>>Begin Spectral Data<<<<<
160.701	-365.63
166.742	50.38
172.777	1299.04
178.805	5269.04
184.826	15375.71
190.841	33125.71
196.849	53260.37
202.85	61415.38
208.845	61397.04
214.833	61442.38
220.815	61402.04
226.789	61313.38
232.758	61427.38
238.719	61385.04
244.674	61379.04
250.623	60199.38
256.565	58191.71
262.5	56344.04
268.429	54853.37
274.351	53506.71
280.267	52391.04
286.176	51179.04
292.079	50105.71
297.975	48967.04
303.865	47909.38
309.748	46912.04
315.625	45951.71
321.495	45160.04
327.359	44477.04
333.217	43884.38
339.068	43402.71
344.912	42987.04
350.751	42662.71
356.583	42328.04
362.408	42077.71
368.227	41873.04
374.04	41773.71
379.847	41781.38
385.647	41766.37
391.44	41767.04
397.228	41828.71
403.009	41889.04
408.784	41979.38
414.553	42008.71
420.315	42103.71
426.071	42105.38
431.821	42178.38
437.565	42076.37
443.302	41998.71
449.033	41874.37
454.758	41641.71
460.477	41399.04
466.189	41119.04
471.896	40913.37
477.596	40723.71
483.29	40569.71
488.978	40393.71
494.66	40213.04
500.335	39848.04
506.005	39335.71
511.668	38754.71
517.325	38196.04
522.977	37819.37
528.622	37501.71
534.261	37218.04
539.894	36980.37
545.521	36827.71
551.141	36693.04
556.756	36579.71
562.365	36460.71
567.968	36409.71
573.565	36253.38
579.155	36131.71
584.74	35899.71
590.319	35760.38
595.892	35619.04
601.459	35447.38
607.02	35287.04
612.575	35009.04
618.124	34732.37
623.667	34516.04
629.204	34304.04
634.735	34103.71
640.261	33932.04
645.781	33794.38
651.294	33710.71
656.802	33707.71
662.304	33633.71
667.8	33635.04
673.29	33556.38
678.775	33476.04
684.254	33364.71
689.726	33294.37
695.193	33253.04
700.655	33114.04
706.11	32965.04
711.56	32799.71
717.004	32707.38
722.442	32583.04
727.874	32544.04
733.301	32498.71
738.722	32407.04
744.137	32425.71
749.547	32376.71
754.951	32395.04
760.349	32423.38
765.741	32480.04
771.128	32521.38
776.509	32599.71
781.885	32623.71
787.254	32633.71
792.618	32553.04
797.977	32421.38
803.33	32231.04
808.677	32107.71
814.019	31905.71
819.355	31727.71
824.686	31625.38
830.011	31522.71
835.33	31536.71
840.644	31528.04
845.952	31600.71
851.255	31702.04
856.552	31806.71
861.844	31977.71
867.13	32317.71
872.41	33018.71
877.686	34031.71
882.955	34815.37
888.219	34369.04
893.478	32805.04
898.731	31397.38
903.979	30539.04
909.221	30166.71
914.458	29972.38
919.69	29948.04
924.916	29960.38
930.136	30058.38
935.351	30065.04
940.561	30155.71
945.766	30084.04
950.965	30034.38
956.158	29949.04
961.347	29651.04
966.529	29364.04
971.707	29007.71
976.879	28721.04
982.046	28534.71
987.208	28561.38
992.364	28595.71
997.515	28828.38
1002.66	29091.38
1007.801	29432.04
1012.936	29859.38
1018.066	30197.38
1023.19	30536.04
1028.309	30638.38
1033.423	30680.38
1038.532	30672.71
1043.636	30784.71
1048.734	30873.38
1053.827	30613.04
1058.915	30258.38
1063.998	29899.04
1069.075	29729.38
1074.147	29929.04
1079.214	30262.71
1084.276	30710.38
1089.333	31088.04
1094.385	31302.71
1099.431	31282.04
1104.472	31067.38
1109.509	30795.04
1114.54	30401.38
1119.565	30088.71
1124.586	29719.38
1129.602	29495.38
1134.613	29330.04
1139.618	29217.38
1144.619	29209.71
1149.614	29324.04
1154.604	29426.04
1159.589	29581.71
1164.57	29685.38
1169.545	29783.38
1174.515	29870.38
1179.48	29717.04
1184.44	29553.38
1189.395	29420.38
1194.345	29276.38
1199.29	29234.71
1204.23	29285.04
1209.165	29435.38
1214.095	29613.38
1219.021	29905.71
1223.941	30216.71
1228.856	30475.71
1233.766	30584.04
1238.672	30665.04
1243.572	30666.38
1248.467	30512.71
1253.358	30230.38
1258.244	29896.71
1263.124	29629.04
1268	29300.71
1272.871	29176.04
1277.737	29159.71
1282.599	29188.71
1287.455	29273.04
1292.306	29322.04
1297.153	29439.04
1301.995	29585.38
1306.832	29691.04
1311.664	29871.38
1316.491	29933.71
1321.314	29809.71
1326.132	29539.04
1330.945	29188.38
1335.753	28683.71
1340.556	28203.71
1345.354	27783.04
1350.148	27355.71
1354.937	27218.38
1359.722	27288.38
1364.501	27602.38
1369.276	27985.71
1374.046	28421.38
1378.811	28731.71
1383.572	28931.04
1388.327	28868.04
1393.079	28634.71
1397.825	28329.04
1402.567	27919.38
1407.304	27667.38
1412.036	27469.04
1416.764	27399.71
1421.487	27391.04
1426.205	27585.04
1430.919	27765.71
1435.628	28119.71
1440.333	28429.71
1445.032	28740.04
1449.727	29259.04
1454.418	29673.38
1459.104	29880.71
1463.785	29545.38
1468.462	28882.38
1473.134	28168.71
1477.802	27814.71
1482.465	27587.38
1487.123	27571.04
1491.777	27508.71
1496.426	27605.71
1501.071	27685.04
1505.711	27833.04
1510.347	28104.71
1514.978	28385.38
1519.604	28609.04
1524.226	28790.38
1528.844	28931.71
1533.457	28951.71
1538.065	28921.38
1542.669	28823.04
1547.269	28788.04
1551.864	28770.04
1556.454	28791.38
1561.041	28893.71
1565.622	28947.71
1570.199	29124.04
1574.772	29428.04
1579.34	29697.71
1583.904	29995.71
1588.464	30123.04
1593.019	30350.38
1597.569	30380.38
1602.115	30348.71
1606.657	30250.71
1611.195	30281.71
1615.728	30240.04
1620.256	30318.71
1624.78	30512.38
1629.3	30754.04
1633.816	30976.71
1638.327	31234.71
1642.834	31546.38
1647.336	31820.71
1651.834	31920.71
1656.328	31949.71
1660.817	31850.71
1665.302	31647.71
1669.783	31209.04
1674.259	30648.38
1678.732	29967.38
1683.199	29104.71
1687.663	28061.04
1692.122	27132.38
1696.577	26525.71
1701.028	26317.71
1705.474	26361.38
1709.917	26331.38
1714.355	26220.38
1718.788	25928.38
1723.218	25588.71
1727.643	25289.04
1732.064	24953.38
1736.481	24561.04
1740.893	24151.04
1745.301	23706.71
1749.705	23319.38
1754.105	22876.04
1758.501	22511.71
1762.893	22110.71
1767.28	21900.04
1771.663	21696.04
1776.042	21603.38
1780.417	21594.04
1784.787	21683.04
1789.154	21908.04
1793.516	22170.71
1797.874	22370.04
1802.228	22574.71
1806.578	22693.38
1810.924	22686.38
1815.266	22583.38
1819.603	22347.71
1823.937	22116.71
1828.266	21853.04
1832.591	21645.71
1836.913	21459.71
1841.23	21336.71
1845.543	21269.38
1849.852	21228.04
1854.156	21254.38
1858.457	21257.71
1862.754	21317.38
1867.047	21310.04
1871.335	21378.71
1875.62	21415.71
1879.9	21448.38
1884.177	21377.71
1888.449	21260.04
1892.718	21114.71
1896.982	21015.38
1901.243	20912.38
1905.499	20837.38
1909.752	20778.71
1914	20784.71
1918.245	20864.71
1922.485	20899.38
1926.722	20981.38
1930.954	21055.38
1935.183	21128.04
1939.408	21256.71
1943.628	21333.04
1947.845	21412.38
1952.058	21422.04
1956.267	21429.71
1960.472	21352.04
1964.673	21117.71
1968.87	20967.71
1973.063	20854.71
1977.252	20721.71
1981.438	20651.04
1985.619	20581.38
1989.797	20525.04
1993.971	20537.71
1998.14	20529.04
2002.306	20569.04
2006.469	20631.71
2010.627	20605.38
2014.781	20579.04
2018.932	20544.71
2023.078	20481.38
2027.221	20314.71
2031.36	20109.38
2035.495	19929.71
2039.627	19722.04
2043.754	19656.38
2047.878	19515.04
2051.998	19483.04
2056.114	19421.38
2060.226	19459.38
2064.334	19513.38
2068.439	19543.71
2072.54	19637.04
2076.637	19681.38
2080.73	19742.71
2084.82	19722.38
2088.906	19795.38
2092.988	19723.71
2097.066	19616.71
2101.14	19556.38
2105.211	19411.04
2109.278	19379.04
2113.342	19318.04
2117.401	19270.71
2121.457	19296.71
2125.509	19282.38
2129.558	19245.71
2133.602	19201.71
2137.643	19205.71
2141.681	19165.04
2145.714	19116.71
2149.744	19065.71
2153.77	18992.38
2157.793	18871.04
2161.812	18694.38
2165.827	18497.71
2169.838	18309.71
2173.846	18045.38
2177.851	17864.38
2181.851	17656.04
2185.848	17497.71
2189.841	17400.04
2193.831	17274.04
2197.817	17192.04
2201.799	17179.38
2205.778	17138.04
2209.753	17092.04
2213.725	17146.71
2217.693	17108.38
2221.657	17148.38
2225.618	17165.71
2229.575	17116.71
2233.529	17038.04
2237.479	16958.71
2241.425	16813.38
2245.368	16695.04
2249.307	16553.71
2253.243	16351.38
2257.175	16167.71
2261.104	16026.37
2265.029	15927.04
2268.95	15813.04
2272.868	15704.37
2276.783	15572.38
2280.694	15477.38
2284.601	15375.04
2288.505	15243.04
2292.405	15178.38
2296.302	15051.38
2300.195	14939.71
2304.085	14739.37
2307.971	14560.71
2311.854	14446.38
2315.734	14231.71
2319.609	14066.71
2323.482	13890.71
2327.351	13748.71
2331.216	13701.04
2335.078	13646.04
2338.937	13529.38
2342.792	13500.38
2346.643	13462.38
2350.492	13451.04
2354.336	13498.71
2358.178	13532.71
2362.015	13559.04
2365.85	13582.71
2369.681	13603.71
2373.508	13616.38
2377.333	13625.04
2381.153	13619.04
2384.971	13625.04
2388.785	13543.71
2392.595	13471.04
2396.402	13375.71
2400.206	13317.04
2404.007	13269.04
2407.804	13236.71
2411.597	13211.04
2415.388	13156.04
2419.174	13137.71
2422.958	13128.04
2426.738	13082.71
2430.515	13031.71
2434.289	12971.37
2438.059	12948.71
2441.825	12883.71
2445.589	12809.71
2449.349	12749.04
2453.106	12642.37
2456.859	12564.37
2460.61	12491.71
2464.356	12392.38
2468.1	12331.37
2471.84	12242.04
2475.577	12210.38
2479.311	12199.04
2483.041	12194.71
2486.768	12187.04
2490.492	12168.04
2494.213	12197.38
2497.93	12179.71
2501.644	12205.04
2505.355	12186.38
2509.062	12144.71
2512.766	12119.71
2516.467	12067.37
2520.165	12015.04
2523.859	11923.38
2527.551	11850.71
2531.239	11754.04
2534.923	11698.04
2538.605	11627.38
2542.283	11594.71
2545.958	11562.04
2549.63	11516.38
2553.299	11449.71
2556.964	11414.71
2560.626	11348.71
2564.285	11285.38
2567.941	11215.71
2571.594	11168.04
2575.243	11108.38
2578.89	11013.04
2582.533	10995.71
2586.173	10949.04
2589.809	10890.37
2593.443	10833.71
2597.073	10795.71
2600.701	10704.71
2604.325	10675.04
2607.946	10696.38
2611.564	10710.38
2615.178	10681.04
2618.79	10681.38
2622.398	10606.04
2626.004	10554.71
2629.606	10504.71
2633.205	10423.04
2636.801	10329.71
2640.394	10270.71
2643.983	10173.04
2647.57	10068.71
2651.153	10005.37
2654.734	9882.71
2658.311	9806.38
2661.885	9724.04
2665.456	9638.71
2669.025	9583.04
2672.589	9532.04
2676.151	9472.71
2679.71	9385.71
2683.266	9269.37
2686.819	9192.04
2690.368	9093.38
2693.915	8978.71
2697.458	8837.04
2700.999	8764.38
2704.536	8669.04
2708.071	8574.71
2711.602	8502.04
2715.13	8470.71
2718.656	8387.38
2722.178	8319.38
2725.697	8314.71
2729.214	8286.37
2732.727	8290.04
2736.237	8294.71
2739.744	8315.04
2743.249	8341.04
2746.75	8307.38
2750.248	8321.37
2753.743	8302.71
2757.236	8298.37
2760.725	8300.38
2764.211	8286.04
2767.695	8256.04
2771.175	8253.04
2774.652	8180.37
2778.127	8122.04
2781.598	8093.04
2785.067	8056.71
2788.532	7994.37
2791.995	8013.71
2795.455	7980.37
2798.911	8010.71
2802.365	7967.71
2805.816	7962.71
2809.264	7922.37
2812.709	7861.71
2816.151	7834.37
2819.59	7805.38
2823.026	7769.38
2826.46	7782.04
2829.89	7776.04
2833.318	7790.04
2836.742	7760.04
2840.164	7777.37
2843.583	7807.71
2846.999	7832.71
2850.412	7845.71
2853.822	7862.04
2857.229	7929.37
2860.634	7998.38
2864.035	8045.04
2867.434	8110.04
2870.83	8218.71
2874.223	8290.37
2877.613	8369.04
2881	8483.71
2884.385	8546.04
2887.766	8583.71
2891.145	8513.71
2894.521	8437.04
2897.894	8372.71
2901.264	8334.71
2904.631	8312.38
2907.996	8278.71
2911.358	8242.38
2914.717	8253.38
2918.073	8252.38
2921.426	8247.37
2924.777	8335.71
2928.124	8474.38
2931.469	8700.71
2934.811	8905.71
2938.15	9031.71
2941.487	9039.71
2944.821	8944.04
2948.152	8794.71
2951.48	8624.71
2954.805	8490.38
2958.128	8393.71
2961.447	8317.38
2964.765	8271.37
2968.079	8261.04
2971.39	8295.71
2974.699	8378.71
2978.005	8492.71
2981.308	8570.37
2984.609	8720.38
2987.907	8804.38
2991.202	8836.38
2994.494	8931.71
2997.784	8948.71
3001.07	9016.37
3004.355	9074.71
3007.636	9128.37
3010.915	9197.38
3014.191	9188.04
3017.464	9203.71
3020.734	9224.04
3024.002	9252.04
3027.267	9266.04
3030.53	9286.04
3033.789	9331.04
3037.046	9406.71
3040.301	9469.04
3043.552	9568.04
3046.801	9705.38
3050.048	9809.71
3053.291	9978.04
3056.532	10174.71
3059.771	10343.04
3063.006	10513.04
3066.239	10753.71
3069.469	10935.04
3072.697	11168.04
3075.922	11359.04
3079.144	11543.38
3082.364	11688.38
3085.581	11879.37
3088.795	12034.38
3092.007	12206.38
3095.216	12397.04
3098.423	12565.71
3101.627	12781.71
3104.828	12974.04
3108.026	13147.04
3111.222	13398.38
3114.416	13615.04
3117.607	13831.71
3120.795	14049.04
3123.98	14303.71
3127.163	14574.04
3130.344	14828.38
3133.521	15077.04
3136.696	15348.04
3139.869	15602.38
3143.039	15807.04
3146.206	15976.04
3149.371	16111.38
3152.533	16213.04
3155.693	16330.38
3158.85	16368.71
3162.005	16404.04
3165.157	16501.04
3168.306	16507.38
3171.453	16559.04
3174.597	16550.71
3177.739	16601.71
3180.878	16624.71
3184.014	16652.71
3187.149	16706.71
3190.28	16738.71
3193.409	16753.71
3196.536	16794.38
3199.659	16839.71
3202.781	16890.38
3205.9	16925.38
3209.016	16902.04
3212.13	16916.71
3215.241	16813.71
3218.35	16706.04
3221.456	16572.71
3224.56	16433.04
3227.661	16261.71
3230.76	16139.38
3233.856	16052.38
3236.95	15889.71
3240.041	15790.04
3243.13	15689.04
3246.216	15594.04
3249.3	15507.37
3252.382	15423.04
3255.46	15371.04
3258.537	15352.71
3261.611	15284.71
3264.682	15226.71
3267.751	15200.04
3270.818	15180.04
3273.882	15118.71
3276.943	15021.38
3280.002	14916.71
3283.059	14778.38
3286.113	14614.71
3289.165	14414.71
3292.214	14207.38
3295.261	13988.71
3298.306	13779.71
3301.348	13559.38
3304.387	13380.71
3307.425	13188.71
3310.459	12991.04
3313.492	12828.38
3316.521	12660.71
3319.549	12540.71
3322.574	12388.38
3325.597	12333.71
3328.617	12233.71
3331.635	12158.38
3334.65	12113.04
3337.663	12013.37
3340.674	11966.71
3343.682	11918.04
3346.688	11893.38
3349.691	11843.71
3352.692	11803.71
3355.691	11697.71
3358.687	11596.71
3361.681	11467.38
3364.673	11345.37
3367.662	11183.71
3370.649	11047.38
3373.633	10892.04
3376.615	10762.04
3379.595	10629.38
3382.572	10488.71
3385.547	10319.71
3388.52	10215.38
3391.49	10077.04
3394.458	9953.37
3397.424	9802.04
3400.387	9718.71
3403.348	9601.04
3406.307	9500.71
3409.263	9413.38
3412.217	9315.71
3415.168	9218.38
3418.118	9136.04
3421.065	9069.71
3424.009	8950.38
3426.951	8816.38
3429.891	8685.04
3432.829	8535.71
3435.764	8380.04
3438.697	8200.38
3441.628	8033.71
3444.557	7836.38
3447.483	7635.04
3450.407	7434.37
3453.328	7243.71
3456.247	7052.04
3459.164	6872.37
3462.079	6668.71
3464.991	6490.37
3467.902	6266.71
3470.809	6142.04
3473.715	5952.04
3476.618	5770.04
3479.519	5629.04
3482.418	5490.71
3485.315	5355.71
3488.209	5215.37
3491.101	5098.37
3493.99	5060.04
3496.878	4890.04
3499.763	4691.71
3502.646	4565.71
3505.527	4430.71
3508.405	4261.71
3511.281	4114.04
3514.155	3969.71
3517.027	3795.71
3519.897	3612.71
3522.764	3466.71
3525.629	3311.71
3528.492	3131.71
3531.352	2994.38
3534.211	2819.71
3537.067	2700.04
3539.921	2543.37
3542.773	2409.37
3545.622	2265.37
3548.469	2154.71
3551.315	2051.37
3554.157	1931.71
3556.998	1843.71
3559.837	1751.04
3562.673	1658.04
3565.507	1574.71
3568.339	1492.71
3571.169	1417.37
3573.996	1333.71
3576.822	1237.71
3579.645	1171.04
3582.466	1077.38
3585.285	993.04
3588.101	914.04
3590.916	835.04
3593.728	760.38
3596.538	690.37
3599.346	615.04
3602.152	538.04
3604.956	475.37
3607.757	412.71
3610.556	351.04
3613.354	288.71
3616.149	226.71
3618.942	172.04
3621.732	114.71
3624.521	76.71
3627.307	41.04
3630.092	0.71
3632.874	-45.63
3635.654	-75.96
3638.432	-123.96
3641.208	-145.63
3643.982	-201.29
3646.753	-230.29
3649.523	-287.29
3652.29	-322.63
3655.055	-361.29
3657.818	-394.96
3660.579	-439.62
3663.338	-495.96
3666.095	-533.29
3668.849	-557.29
3671.602	-600.96
3674.352	-629.63
3677.101	-664.63
3679.847	-695.63
3682.591	-719.96
3685.333	-749.29
3688.073	-774.29
3690.811	-796.63
3693.547	-847.63
3696.281	-845.62
3699.013	-858.96
3701.742	-870.62
3704.47	-887.63
3707.195	-906.96
3709.919	-923.96
3712.64	-941.96
3715.359	-956.96
3718.076	-975.29
3720.792	-998.63
3723.505	-1009.29
3726.216	-984.63
3728.925	-939.96
3731.632	-1004.96
3734.336	-1016.29
3737.039	-1048.96
3739.74	-1071.29
3742.439	-1089.96
3745.136	-1108.29
3747.83	-1112.62
3750.523	-1129.63
3753.213	-1140.62
3755.902	-1146.63
3758.589	-1150.29
3761.273	-1159.62
3763.956	-1168.29
3766.636	-1168.62
3769.315	-1177.96
3771.991	-1193.62
3774.665	-1196.63
3777.338	-1210.96
3780.008	-1217.96
3782.677	-1224.96
3785.343	-1231.29
3788.007	-1235.62
3790.67	-1242.62
3793.33	-1257.63
3795.989	-1260.96
3798.645	-1266.29
3801.299	-1272.96
3803.952	-1275.29
3806.602	-1278.63
3809.251	-1287.29
3811.897	-1289.29
3814.542	-1287.63
3817.184	-1296.96
3819.825	-1304.29
3822.463	-1303.29
3825.1	-1313.96
3827.735	-1319.96
3830.367	-1326.29
3832.998	-1329.96
3835.627	-1338.96
3838.253	-1336.29
3840.878	-1351.63
3843.501	-1350.29
3846.122	-1352.29
3848.741	-1354.96
3851.358	-1361.29
3853.973	-1365.29
3856.586	-1373.29
3859.197	-1378.63
3861.806	-1377.29
3864.414	-1376.96
3867.019	-1380.63
3869.622	-1383.63
3872.224	-1376.29
3874.823	-1353.63
3877.421	-1341.96
3880.016	-1315.29
3882.61	-1295.96
3885.202	-1292.96
3887.792	-1323.96
3890.38	-1369.96
3892.966	-1403.29
3895.55	-1412.63
3898.132	-1430.63
3900.713	-1431.63
3903.291	-1433.96
3905.868	-1442.29
3908.442	-1446.63
3911.015	-1450.29
3913.586	-1452.29
3916.155	-1457.96
3918.722	-1458.63
3921.287	-1458.96
3923.85	-1463.63
3926.411	-1465.63
3928.971	-1465.96
3931.528	-1467.29
3934.084	-1476.96
3936.638	-1475.96
3939.19	-1473.29
3941.74	-1472.29
3944.288	-1478.96
3946.834	-1484.29
3949.378	-1480.62
3951.921	-1478.63
3954.462	-1481.29
3957	-1475.29
3959.537	-1469.63
3962.072	-1475.29
3964.606	-1471.63
3967.137	-1475.96
3969.667	-1474.29
3972.194	-1465.96
3974.72	-1462.29
3977.244	-1462.29
3979.766	-1458.63
3982.286	-1453.96
3984.805	-1446.96
3987.321	-1449.96
3989.836	-1451.29
3992.349	-1447.63
3994.86	-1445.63
3997.369	-1448.96
3999.877	-1453.96
4002.382	-1449.63
4004.886	-1448.29
4007.388	-1448.62
4009.888	-1444.63
4012.386	-1456.63
4014.883	-1456.63
4017.377	-1453.29
4019.87	-1457.96
4022.361	-1455.96
4024.85	-1461.96
4027.338	-1464.63
4029.823	-1460.29
4032.307	-1465.29
4034.789	-1463.96
4037.269	-1461.29
4039.747	-1467.96
4042.224	-1471.63
4044.699	-1472.96
4047.172	-1472.96
4049.643	-1471.96
4052.112	-1472.63
4054.58	-1470.63
4057.046	-1473.63
4059.51	-1473.62
4061.972	-1468.29
4064.432	-1474.96
4066.891	-1467.96
4069.348	-1472.96
4071.803	-1471.96
4074.256	-1467.96
4076.708	-1472.29
4079.158	-1467.29
4081.606	-1468.96
4084.052	-1470.29
4086.497	-1473.63
4088.939	-1469.62
4091.38	-1474.96
4093.819	-1475.96
4096.257	-1555.96
4098.693	-1563.29
4101.127	-1558.62
4103.559	-1559.29
4105.989	-976.29
4108.418	-939.96
4110.845	-879.63
4113.27	-796.63
4115.694	-707.96
4118.115	-579.63
4120.535	-1472.62
4122.954	-1477.63
4125.37	-1476.62
4127.785	-1479.96
4130.198	-1480.29
4132.609	-1480.29
4135.019	-1563.96
4137.427	-1563.29
4139.833	-1561.62
4142.237	-1563.96
