Data from Just SERSpETOH_RamanShift_1.txt Node
Date: Tue Nov 07 11:04:47 IST 2017
User: aro
Spectrometer: QEPB0276
Trigger mode: 0
Integration Time (sec): 1.500000E1
Scans to average: 3
Electric dark correction enabled: true
Nonlinearity correction enabled: false
Boxcar width: 0
XAxis mode: Raman Shifts
Number of Pixels in Spectrum: 1044
>>>>>Begin Spectral Data<<<<<
160.701	-4.92
166.742	23.08
172.777	104.42
178.805	339.08
184.826	938.08
190.841	2010.75
196.849	3355.42
202.85	4371.75
208.845	4847.42
214.833	5009.42
220.815	5216.08
226.789	5603.75
232.758	6104.08
238.719	6794.42
244.674	7557.75
250.623	8372.42
256.565	9028.42
262.5	9328.08
268.429	9232.08
274.351	8831.08
280.267	8417.75
286.176	8177.75
292.079	7998.08
297.975	7888.42
303.865	7746.08
309.748	7401.08
315.625	6895.75
321.495	6390.42
327.359	6001.08
333.217	5593.08
339.068	5109.75
344.912	4659.42
350.751	4330.75
356.583	4168.42
362.408	4122.42
368.227	4176.75
374.04	4271.08
379.847	4453.08
385.647	4682.42
391.44	4789.75
397.228	4610.08
403.009	4264.75
408.784	3951.75
414.553	3779.42
420.315	3723.08
426.071	3613.08
431.821	3393.42
437.565	3209.75
443.302	3126.75
449.033	3027.75
454.758	2986.08
460.477	2956.42
466.189	2920.75
471.896	2900.75
477.596	2880.08
483.29	2901.75
488.978	2936.42
494.66	2963.08
500.335	2969.08
506.005	2908.42
511.668	2814.08
517.325	2740.42
522.977	2681.08
528.622	2644.08
534.261	2628.42
539.894	2627.75
545.521	2688.42
551.141	2775.08
556.756	2797.42
562.365	2729.42
567.968	2664.08
573.565	2603.08
579.155	2553.42
584.74	2533.75
590.319	2525.42
595.892	2544.75
601.459	2568.75
607.02	2569.42
612.575	2582.42
618.124	2581.08
623.667	2578.42
629.204	2592.75
634.735	2617.42
640.261	2696.08
645.781	2826.42
651.294	3093.75
656.802	3594.08
662.304	4267.42
667.8	4518.75
673.29	3934.08
678.775	3116.42
684.254	2681.75
689.726	2546.08
695.193	2517.75
700.655	2519.42
706.11	2559.08
711.56	2612.42
717.004	2675.42
722.442	2706.42
727.874	2678.75
733.301	2655.42
738.722	2686.75
744.137	2731.08
749.547	2689.42
754.951	2664.42
760.349	2674.42
765.741	2685.42
771.128	2710.75
776.509	2736.42
781.885	2762.75
787.254	2810.08
792.618	2916.42
797.977	3059.42
803.33	3249.75
808.677	3295.75
814.019	3207.42
819.355	3071.42
824.686	3029.42
830.011	3068.75
835.33	3129.08
840.644	3159.75
845.952	3198.08
851.255	3266.42
856.552	3389.75
861.844	3519.75
867.13	3608.75
872.41	3753.75
877.686	4091.08
882.955	4668.42
888.219	5143.08
893.478	5069.08
898.731	4455.42
903.979	3810.42
909.221	3422.75
914.458	3258.08
919.69	3243.08
924.916	3266.08
930.136	3307.75
935.351	3369.75
940.561	3442.42
945.766	3606.42
950.965	3916.42
956.158	4404.08
961.347	4862.08
966.529	5207.42
971.707	5563.08
976.879	6008.08
982.046	6414.08
987.208	6529.08
992.364	6452.42
997.515	6551.08
1002.66	7327.42
1007.801	9522.42
1012.936	14073.42
1018.066	21280.75
1023.19	27926.75
1028.309	27905.08
1033.423	19955.42
1038.532	11095.08
1043.636	6535.75
1048.734	5088.75
1053.827	4739.75
1058.915	5013.08
1063.998	5877.08
1069.075	6518.42
1074.147	6178.08
1079.214	5306.75
1084.276	4765.75
1089.333	4575.08
1094.385	4548.75
1099.431	4544.75
1104.472	4562.08
1109.509	4504.08
1114.54	4445.08
1119.565	4389.08
1124.586	4405.75
1129.602	4492.75
1134.613	4595.75
1139.618	4774.08
1144.619	4936.08
1149.614	5023.42
1154.604	5041.08
1159.589	5085.42
1164.57	5240.75
1169.545	5551.75
1174.515	6103.75
1179.48	7155.42
1184.44	9395.08
1189.395	14351.75
1194.345	24251.75
1199.29	38268.42
1204.23	48531.42
1209.165	47314.08
1214.095	36826.42
1219.021	26212.42
1223.941	19767.42
1228.856	15573.42
1233.766	12056.08
1238.672	10252.75
1243.572	10418.42
1248.467	11161.75
1253.358	11183.75
1258.244	10126.08
1263.124	8609.75
1268	7389.08
1272.871	6519.42
1277.737	5917.08
1282.599	5512.42
1287.455	5382.75
1292.306	5407.75
1297.153	5495.08
1301.995	5693.08
1306.832	6016.08
1311.664	6550.75
1316.491	7207.08
1321.314	7553.75
1326.132	7596.42
1330.945	8321.75
1335.753	11332.08
1340.556	16237.42
1345.354	18459.75
1350.148	15672.42
1354.937	11571.42
1359.722	8950.75
1364.501	7444.75
1369.276	6462.42
1374.046	5904.75
1378.811	5571.08
1383.572	5341.42
1388.327	5112.42
1393.079	4926.75
1397.825	4789.08
1402.567	4721.08
1407.304	4768.08
1412.036	4953.75
1416.764	5384.42
1421.487	6097.42
1426.205	7074.42
1430.919	7703.42
1435.628	7308.75
1440.333	6321.42
1445.032	5633.08
1449.727	5403.08
1454.418	5362.75
1459.104	5298.75
1463.785	5237.08
1468.462	5174.75
1473.134	5165.08
1477.802	5203.08
1482.465	5309.42
1487.123	5757.75
1491.777	6567.08
1496.426	6830.75
1501.071	6342.08
1505.711	5804.75
1510.347	5616.42
1514.978	5556.42
1519.604	5604.42
1524.226	5898.75
1528.844	6405.08
1533.457	7175.42
1538.065	8277.75
1542.669	9409.42
1547.269	9945.42
1551.864	9510.42
1556.454	8469.75
1561.041	7469.75
1565.622	6825.42
1570.199	6678.08
1574.772	6932.75
1579.34	7583.08
1583.904	8700.75
1588.464	10775.75
1593.019	14878.08
1597.569	23091.42
1602.115	37096.08
1606.657	54952.75
1611.195	63037.75
1615.728	63033.75
1620.256	54687.75
1624.78	36640.08
1629.3	32548.75
1633.816	38451.08
1638.327	45907.75
1642.834	47344.08
1647.336	40529.42
1651.834	29072.75
1656.328	18832.08
1660.817	12523.42
1665.302	9374.42
1669.783	7830.42
1674.259	6943.75
1678.732	6328.42
1683.199	5819.08
1687.663	5364.42
1692.122	4896.08
1696.577	4443.42
1701.028	4047.42
1705.474	3758.42
1709.917	3549.42
1714.355	3418.08
1718.788	3334.08
1723.218	3295.75
1727.643	3232.42
1732.064	3190.42
1736.481	3113.42
1740.893	3018.75
1745.301	2941.08
1749.705	2880.75
1754.105	2819.08
1758.501	2772.75
1762.893	2727.75
1767.28	2682.42
1771.663	2670.75
1776.042	2634.42
1780.417	2587.08
1784.787	2543.42
1789.154	2513.75
1793.516	2443.42
1797.874	2420.75
1802.228	2377.75
1806.578	2344.42
1810.924	2293.42
1815.266	2263.08
1819.603	2229.75
1823.937	2207.75
1828.266	2187.08
1832.591	2177.75
1836.913	2171.42
1841.23	2174.42
1845.543	2193.75
1849.852	2219.75
1854.156	2254.08
1858.457	2279.08
1862.754	2315.75
1867.047	2335.08
1871.335	2337.75
1875.62	2331.08
1879.9	2298.75
1884.177	2295.42
1888.449	2278.08
1892.718	2258.75
1896.982	2266.75
1901.243	2264.75
1905.499	2274.08
1909.752	2269.75
1914	2255.42
1918.245	2262.42
1922.485	2257.75
1926.722	2246.42
1930.954	2246.08
1935.183	2236.75
1939.408	2227.75
1943.628	2223.75
1947.845	2195.75
1952.058	2167.75
1956.267	2128.08
1960.472	2086.08
1964.673	2029.42
1968.87	1972.42
1973.063	1934.08
1977.252	1887.08
1981.438	1865.08
1985.619	1822.42
1989.797	1801.08
1993.971	1793.42
1998.14	1775.42
2002.306	1766.42
2006.469	1767.75
2010.627	1744.08
2014.781	1742.08
2018.932	1729.75
2023.078	1713.08
2027.221	1704.75
2031.36	1683.08
2035.495	1675.08
2039.627	1668.75
2043.754	1660.08
2047.878	1654.08
2051.998	1660.42
2056.114	1655.42
2060.226	1657.42
2064.334	1660.42
2068.439	1677.75
2072.54	1693.75
2076.637	1719.08
2080.73	1739.08
2084.82	1748.42
2088.906	1757.75
2092.988	1758.42
2097.066	1735.08
2101.14	1718.42
2105.211	1699.75
2109.278	1683.42
2113.342	1677.75
2117.401	1691.75
2121.457	1734.42
2125.509	1767.08
2129.558	1811.08
2133.602	1840.08
2137.643	1831.75
2141.681	1787.08
2145.714	1717.75
2149.744	1650.75
2153.77	1600.75
2157.793	1573.75
2161.812	1535.75
2165.827	1509.75
2169.838	1470.08
2173.846	1448.42
2177.851	1415.08
2181.851	1408.08
2185.848	1398.75
2189.841	1399.08
2193.831	1393.75
2197.817	1383.08
2201.799	1397.42
2205.778	1390.75
2209.753	1394.42
2213.725	1411.75
2217.693	1418.08
2221.657	1432.08
2225.618	1439.75
2229.575	1437.42
2233.529	1431.42
2237.479	1423.42
2241.425	1403.08
2245.368	1393.42
2249.307	1371.42
2253.243	1347.42
2257.175	1345.75
2261.104	1340.75
2265.029	1329.42
2268.95	1326.42
2272.868	1309.75
2276.783	1292.75
2280.694	1280.42
2284.601	1264.42
2288.505	1254.75
2292.405	1251.75
2296.302	1242.75
2300.195	1231.75
2304.085	1217.08
2307.971	1199.75
2311.854	1205.42
2315.734	1182.08
2319.609	1172.08
2323.482	1160.75
2327.351	1164.08
2331.216	1183.08
2335.078	1186.42
2338.937	1168.42
2342.792	1152.42
2346.643	1155.42
2350.492	1172.42
2354.336	1166.42
2358.178	1176.08
2362.015	1190.42
2365.85	1205.42
2369.681	1199.08
2373.508	1201.08
2377.333	1213.75
2381.153	1225.42
2384.971	1223.08
2388.785	1229.08
2392.595	1231.08
2396.402	1242.75
2400.206	1250.08
2404.007	1263.42
2407.804	1277.75
2411.597	1287.42
2415.388	1305.42
2419.174	1308.08
2422.958	1323.42
2426.738	1324.08
2430.515	1335.08
2434.289	1356.08
2438.059	1355.75
2441.825	1355.75
2445.589	1373.75
2449.349	1367.42
2453.106	1348.42
2456.859	1335.08
2460.61	1314.75
2464.356	1293.75
2468.1	1273.42
2471.84	1270.08
2475.577	1253.08
2479.311	1256.42
2483.041	1263.42
2486.768	1270.75
2490.492	1272.08
2494.213	1266.42
2497.93	1263.42
2501.644	1253.08
2505.355	1247.08
2509.062	1235.42
2512.766	1222.75
2516.467	1217.75
2520.165	1220.08
2523.859	1225.75
2527.551	1213.75
2531.239	1208.75
2534.923	1204.08
2538.605	1201.42
2542.283	1205.42
2545.958	1203.75
2549.63	1192.42
2553.299	1184.42
2556.964	1176.08
2560.626	1164.75
2564.285	1149.08
2567.941	1143.75
2571.594	1121.08
2575.243	1114.75
2578.89	1106.08
2582.533	1098.08
2586.173	1082.75
2589.809	1071.08
2593.443	1071.08
2597.073	1064.08
2600.701	1051.08
2604.325	1045.42
2607.946	1053.08
2611.564	1056.75
2615.178	1060.08
2618.79	1061.42
2622.398	1073.75
2626.004	1063.75
2629.606	1052.08
2633.205	1045.42
2636.801	1028.42
2640.394	1007.42
2643.983	993.75
2647.57	978.42
2651.153	971.08
2654.734	957.75
2658.311	949.42
2661.885	942.75
2665.456	930.42
2669.025	917.75
2672.589	910.75
2676.151	909.08
2679.71	907.42
2683.266	893.75
2686.819	880.42
2690.368	860.75
2693.915	850.42
2697.458	861.08
2700.999	845.42
2704.536	839.75
2708.071	832.75
2711.602	837.42
2715.13	829.08
2718.656	825.75
2722.178	836.42
2725.697	834.75
2729.214	837.75
2732.727	852.42
2736.237	852.75
2739.744	854.42
2743.249	852.75
2746.75	847.75
2750.248	851.75
2753.743	829.75
2757.236	828.08
2760.725	820.08
2764.211	814.08
2767.695	801.08
2771.175	794.08
2774.652	796.42
2778.127	792.42
2781.598	803.42
2785.067	819.08
2788.532	839.42
2791.995	864.42
2795.455	890.42
2798.911	922.75
2802.365	951.75
2805.816	971.75
2809.264	990.75
2812.709	1003.42
2816.151	1010.08
2819.59	1033.08
2823.026	1033.08
2826.46	1042.08
2829.89	1060.75
2833.318	1073.08
2836.742	1092.08
2840.164	1100.75
2843.583	1121.75
2846.999	1135.08
2850.412	1154.42
2853.822	1166.08
2857.229	1177.42
2860.634	1193.08
2864.035	1208.75
2867.434	1225.42
2870.83	1237.42
2874.223	1252.08
2877.613	1244.75
2881	1245.08
2884.385	1228.08
2887.766	1218.42
2891.145	1205.75
2894.521	1192.08
2897.894	1177.42
2901.264	1166.08
2904.631	1154.08
2907.996	1146.42
2911.358	1146.75
2914.717	1140.42
2918.073	1144.08
2921.426	1147.75
2924.777	1135.75
2928.124	1131.75
2931.469	1112.08
2934.811	1085.75
2938.15	1048.42
2941.487	998.08
2944.821	948.42
2948.152	897.75
2951.48	852.08
2954.805	814.75
2958.128	773.75
2961.447	745.75
2964.765	714.08
2968.079	692.42
2971.39	664.42
2974.699	651.08
2978.005	625.08
2981.308	600.75
2984.609	595.08
2987.907	562.08
2991.202	550.75
2994.494	527.75
2997.784	512.42
3001.07	497.75
3004.355	480.42
3007.636	466.42
3010.915	448.42
3014.191	436.75
3017.464	428.42
3020.734	411.08
3024.002	407.08
3027.267	399.42
3030.53	385.08
3033.789	380.42
3037.046	370.75
3040.301	365.75
3043.552	362.42
3046.801	362.08
3050.048	355.08
3053.291	355.08
3056.532	351.75
3059.771	352.08
3063.006	353.08
3066.239	347.75
3069.469	347.42
3072.697	337.75
3075.922	330.08
3079.144	326.42
3082.364	319.08
3085.581	318.42
3088.795	310.75
3092.007	306.75
3095.216	299.08
3098.423	295.42
3101.627	291.08
3104.828	287.42
3108.026	287.42
3111.222	282.08
3114.416	275.42
3117.607	275.42
3120.795	275.42
3123.98	265.42
3127.163	272.42
3130.344	269.42
3133.521	265.75
3136.696	266.75
3139.869	267.42
3143.039	262.42
3146.206	257.42
3149.371	254.08
3152.533	250.75
3155.693	245.08
3158.85	243.42
3162.005	236.08
3165.157	238.42
3168.306	232.08
3171.453	220.08
3174.597	220.75
3177.739	217.42
3180.878	209.75
3184.014	213.42
3187.149	214.75
3190.28	212.42
3193.409	215.42
3196.536	207.08
3199.659	219.08
3202.781	216.08
3205.9	218.08
3209.016	224.08
3212.13	218.75
3215.241	215.08
3218.35	217.75
3221.456	208.08
3224.56	203.75
3227.661	200.42
3230.76	194.75
3233.856	192.08
3236.95	186.75
3240.041	181.75
3243.13	176.42
3246.216	176.75
3249.3	170.08
3252.382	170.42
3255.46	162.42
3258.537	166.42
3261.611	162.75
3264.682	154.08
3267.751	156.42
3270.818	150.75
3273.882	149.08
3276.943	141.08
3280.002	143.75
3283.059	138.08
3286.113	129.75
3289.165	128.75
3292.214	122.08
3295.261	123.42
3298.306	113.08
3301.348	110.75
3304.387	109.42
3307.425	103.42
3310.459	102.75
3313.492	94.75
3316.521	95.42
3319.549	93.75
3322.574	89.08
3325.597	86.42
3328.617	85.42
3331.635	85.75
3334.65	76.75
3337.663	79.08
3340.674	78.75
3343.682	76.75
3346.688	72.42
3349.691	75.08
3352.692	72.08
3355.691	69.08
3358.687	64.42
3361.681	62.08
3364.673	62.08
3367.662	58.42
3370.649	51.08
3373.633	48.08
3376.615	52.42
3379.595	45.42
3382.572	46.75
3385.547	39.08
3388.52	38.42
3391.49	32.75
3394.458	30.08
3397.424	32.75
3400.387	30.08
3403.348	26.75
3406.307	27.42
3409.263	22.42
3412.217	23.75
3415.168	20.42
3418.118	18.42
3421.065	15.42
3424.009	17.42
3426.951	11.42
3429.891	13.42
3432.829	13.75
3435.764	6.08
3438.697	8.08
3441.628	3.08
3444.557	4.75
3447.483	-1.58
3450.407	-2.58
3453.328	-4.92
3456.247	-4.92
3459.164	-9.25
3462.079	-11.92
3464.991	-11.92
3467.902	-16.92
3470.809	-18.25
3473.715	-16.58
3476.618	-20.92
3479.519	-24.58
3482.418	-27.58
3485.315	-24.25
3488.209	-23.92
3491.101	-27.92
3493.99	-28.58
3496.878	-30.25
3499.763	-31.25
3502.646	-31.25
3505.527	-30.92
3508.405	-35.92
3511.281	-35.58
3514.155	-37.58
3517.027	-38.25
3519.897	-37.58
3522.764	-40.58
3525.629	-44.25
3528.492	-45.92
3531.352	-47.92
3534.211	-51.92
3537.067	-50.25
3539.921	-51.58
3542.773	-52.58
3545.622	-53.92
3548.469	-56.25
3551.315	-54.92
3554.157	-58.92
3556.998	-58.58
3559.837	-59.92
3562.673	-58.25
3565.507	-59.58
3568.339	-59.25
3571.169	-63.58
3573.996	-64.92
3576.822	-65.58
3579.645	-65.58
3582.466	-66.25
3585.285	-68.25
3588.101	-65.92
3590.916	-70.25
3593.728	-71.92
3596.538	-73.58
3599.346	-72.92
3602.152	-70.25
3604.956	-72.25
3607.757	-73.58
3610.556	-77.25
3613.354	-77.58
3616.149	-78.58
3618.942	-76.92
3621.732	-77.25
3624.521	-78.25
3627.307	-76.92
3630.092	-79.92
3632.874	-79.58
3635.654	-81.58
3638.432	-78.92
3641.208	-80.58
3643.982	-81.58
3646.753	-80.25
3649.523	-81.92
3652.29	-83.25
3655.055	-79.92
3657.818	-81.92
3660.579	-83.92
3663.338	-84.25
3666.095	-81.58
3668.849	-83.58
3671.602	-87.58
3674.352	-82.25
3677.101	-88.58
3679.847	-85.25
3682.591	-86.92
3685.333	-86.25
3688.073	-85.25
3690.811	-85.92
3693.547	-84.58
3696.281	-85.58
3699.013	-85.25
3701.742	-86.92
3704.47	-86.25
3707.195	-87.25
3709.919	-86.58
3712.64	-88.92
3715.359	-84.25
3718.076	-87.58
3720.792	-88.25
3723.505	-87.58
3726.216	-88.58
3728.925	-86.58
3731.632	-89.25
3734.336	-89.25
3737.039	-88.92
3739.74	-87.25
3742.439	-90.25
3745.136	-91.25
3747.83	-91.25
3750.523	-90.92
3753.213	-90.92
3755.902	-87.58
3758.589	-88.58
3761.273	-88.25
3763.956	-90.92
3766.636	-88.25
3769.315	-90.25
3771.991	-89.92
3774.665	-89.92
3777.338	-89.58
3780.008	-88.58
3782.677	-87.25
3785.343	-88.92
3788.007	-93.92
3790.67	-93.92
3793.33	-90.25
3795.989	-92.25
3798.645	-91.58
3801.299	-92.25
3803.952	-92.58
3806.602	-97.25
3809.251	-96.25
3811.897	-92.58
3814.542	-95.25
3817.184	-95.92
3819.825	-96.58
3822.463	-95.92
3825.1	-94.58
3827.735	-94.58
3830.367	-96.58
3832.998	-97.58
3835.627	-94.58
3838.253	-94.92
3840.878	-99.25
3843.501	-96.92
3846.122	-97.25
3848.741	-98.58
3851.358	-96.92
3853.973	-101.58
3856.586	-99.92
3859.197	-100.25
3861.806	-97.92
3864.414	-99.92
3867.019	-102.25
3869.622	-100.58
3872.224	-94.25
3874.823	-96.92
3877.421	-90.92
3880.016	-89.25
3882.61	-82.92
3885.202	-85.25
3887.792	-87.58
3890.38	-95.25
3892.966	-99.92
3895.55	-100.92
3898.132	-102.92
3900.713	-99.92
3903.291	-102.25
3905.868	-102.25
3908.442	-101.25
3911.015	-103.58
3913.586	-104.92
3916.155	-104.25
3918.722	-104.92
3921.287	-104.58
3923.85	-101.25
3926.411	-105.92
3928.971	-105.58
3931.528	-106.25
3934.084	-103.58
3936.638	-105.92
3939.19	-106.25
3941.74	-104.92
3944.288	-103.92
3946.834	-104.25
3949.378	-104.92
3951.921	-104.92
3954.462	-105.58
3957	-106.58
3959.537	-105.25
3962.072	-100.25
3964.606	-104.58
3967.137	-105.92
3969.667	-102.92
3972.194	-105.25
3974.72	-101.58
3977.244	-107.25
3979.766	-103.58
3982.286	-102.92
3984.805	-101.25
3987.321	-101.58
3989.836	-103.25
3992.349	-102.25
3994.86	-102.58
3997.369	-101.25
3999.877	-99.92
4002.382	-101.25
4004.886	-100.25
4007.388	-101.92
4009.888	-98.25
4012.386	-98.25
4014.883	-98.58
4017.377	-99.58
4019.87	-97.92
4022.361	-96.92
4024.85	-99.92
4027.338	-100.25
4029.823	-97.58
4032.307	-100.25
4034.789	-100.25
4037.269	-100.25
4039.747	-101.25
4042.224	-99.92
4044.699	-101.25
4047.172	-103.25
4049.643	-102.25
4052.112	-102.25
4054.58	-103.58
4057.046	-101.92
4059.51	-100.58
4061.972	-107.58
4064.432	-102.92
4066.891	-103.92
4069.348	-102.58
4071.803	-106.58
4074.256	-99.92
4076.708	-103.58
4079.158	-106.92
4081.606	-104.25
4084.052	-104.58
4086.497	-104.25
4088.939	-104.92
4091.38	-103.25
4093.819	-105.25
4096.257	-114.58
4098.693	-116.25
4101.127	-114.25
4103.559	-115.92
4105.989	-54.25
4108.418	-44.58
4110.845	-43.25
4113.27	-35.92
4115.694	-29.92
4118.115	-19.92
4120.535	-105.92
4122.954	-104.58
4125.37	-107.25
4127.785	-104.25
4130.198	-106.25
4132.609	-104.25
4135.019	-115.25
4137.427	-116.25
4139.833	-114.92
4142.237	-115.25
