Data from Just SERS_RamanShift_8.txt Node
Date: Tue Nov 07 11:01:47 IST 2017
User: aro
Spectrometer: QEPB0276
Trigger mode: 0
Integration Time (sec): 1.500000E1
Scans to average: 3
Electric dark correction enabled: true
Nonlinearity correction enabled: false
Boxcar width: 0
XAxis mode: Raman Shifts
Number of Pixels in Spectrum: 1044
>>>>>Begin Spectral Data<<<<<
160.701	-14.54
166.742	46.79
172.777	182.46
178.805	623.46
184.826	1719.46
190.841	3742.13
196.849	6314.46
202.85	8343.12
208.845	9320.12
214.833	9689.46
220.815	10093.79
226.789	10690.79
232.758	11469.46
238.719	12392.12
244.674	13352.46
250.623	14305.79
256.565	15168.13
262.5	15798.46
268.429	16122.13
274.351	16155.13
280.267	15984.46
286.176	15769.46
292.079	15505.79
297.975	15114.79
303.865	14502.46
309.748	13638.46
315.625	12675.79
321.495	11884.79
327.359	11170.79
333.217	10525.13
339.068	9925.46
344.912	9409.13
350.751	9078.46
356.583	8879.46
362.408	8759.79
368.227	8719.46
374.04	8746.12
379.847	8794.12
385.647	8902.79
391.44	8898.12
397.228	8742.12
403.009	8538.46
408.784	8348.79
414.553	8304.46
420.315	8326.12
426.071	8233.13
431.821	7986.46
437.565	7780.46
443.302	7696.79
449.033	7626.79
454.758	7584.12
460.477	7556.46
466.189	7540.79
471.896	7548.13
477.596	7589.46
483.29	7602.79
488.978	7641.79
494.66	7634.46
500.335	7627.46
506.005	7582.79
511.668	7498.13
517.325	7394.46
522.977	7334.79
528.622	7311.46
534.261	7283.12
539.894	7308.46
545.521	7368.46
551.141	7433.46
556.756	7443.46
562.365	7435.46
567.968	7358.12
573.565	7284.46
579.155	7223.46
584.74	7190.12
590.319	7162.79
595.892	7186.12
601.459	7214.12
607.02	7237.79
612.575	7179.79
618.124	7148.13
623.667	7128.79
629.204	7145.12
634.735	7128.79
640.261	7187.13
645.781	7272.46
651.294	7496.12
656.802	7787.12
662.304	8104.12
667.8	8173.12
673.29	7819.46
678.775	7402.12
684.254	7178.46
689.726	7168.46
695.193	7117.13
700.655	7148.79
706.11	7201.79
711.56	7225.12
717.004	7290.79
722.442	7304.12
727.874	7246.79
733.301	7227.12
738.722	7235.12
744.137	7226.12
749.547	7279.12
754.951	7307.79
760.349	7375.46
765.741	7402.46
771.128	7409.12
776.509	7462.12
781.885	7517.46
787.254	7581.46
792.618	7701.46
797.977	7803.12
803.33	7871.46
808.677	7906.46
814.019	7846.46
819.355	7811.79
824.686	7818.79
830.011	7866.79
835.33	7989.46
840.644	8060.79
845.952	8162.79
851.255	8322.79
856.552	8448.12
861.844	8508.46
867.13	8516.12
872.41	8516.13
877.686	8621.79
882.955	8867.12
888.219	8999.46
893.478	8898.12
898.731	8526.46
903.979	8171.79
909.221	7985.79
914.458	7928.12
919.69	7991.46
924.916	8071.46
930.136	8099.46
935.351	8175.46
940.561	8276.46
945.766	8394.12
950.965	8622.79
956.158	8894.46
961.347	9108.79
966.529	9251.46
971.707	9395.79
976.879	9575.79
982.046	9655.12
987.208	9635.79
992.364	9687.79
997.515	10078.79
1002.66	11028.79
1007.801	12754.12
1012.936	15539.12
1018.066	19383.79
1023.19	22168.13
1028.309	20939.12
1033.423	16510.79
1038.532	12413.12
1043.636	10374.46
1048.734	9566.79
1053.827	9244.46
1058.915	9383.46
1063.998	9818.12
1069.075	10193.46
1074.147	10138.46
1079.214	9856.12
1084.276	9614.13
1089.333	9486.13
1094.385	9416.46
1099.431	9409.12
1104.472	9432.79
1109.509	9389.46
1114.54	9358.12
1119.565	9333.79
1124.586	9368.46
1129.602	9449.12
1134.613	9577.12
1139.618	9730.46
1144.619	9891.79
1149.614	9887.79
1154.604	9743.46
1159.589	9762.13
1164.57	9927.46
1169.545	10230.79
1174.515	10674.79
1179.48	11406.12
1184.44	12883.46
1189.395	16054.46
1194.345	21684.12
1199.29	28637.46
1204.23	32521.79
1209.165	30696.79
1214.095	25154.46
1219.021	20393.46
1223.941	17583.12
1228.856	15578.79
1233.766	13908.79
1238.672	13270.13
1243.572	13470.46
1248.467	13735.79
1253.358	13571.46
1258.244	12984.46
1263.124	12439.13
1268	12061.79
1272.871	11494.12
1277.737	10798.79
1282.599	10275.79
1287.455	10007.46
1292.306	10007.12
1297.153	10089.46
1301.995	10240.12
1306.832	10461.79
1311.664	10784.13
1316.491	11100.46
1321.314	11141.46
1326.132	11136.46
1330.945	11712.79
1335.753	13554.13
1340.556	15850.13
1345.354	16336.79
1350.148	14593.12
1354.937	12672.46
1359.722	11409.79
1364.501	10661.79
1369.276	10184.12
1374.046	9847.79
1378.811	9595.79
1383.572	9338.79
1388.327	9068.79
1393.079	8827.46
1397.825	8643.46
1402.567	8552.79
1407.304	8546.13
1412.036	8715.46
1416.764	9070.79
1421.487	9644.46
1426.205	10264.12
1430.919	10538.79
1435.628	10321.79
1440.333	9961.46
1445.032	9790.12
1449.727	9854.12
1454.418	9880.79
1459.104	9818.79
1463.785	9658.46
1468.462	9495.46
1473.134	9396.13
1477.802	9396.46
1482.465	9575.13
1487.123	10076.46
1491.777	10601.79
1496.426	10601.79
1501.071	10153.79
1505.711	9707.12
1510.347	9486.12
1514.978	9358.79
1519.604	9379.46
1524.226	9527.12
1528.844	9859.12
1533.457	10355.46
1538.065	11044.12
1542.669	11606.12
1547.269	11695.46
1551.864	11203.46
1556.454	10544.46
1561.041	10021.79
1565.622	9748.79
1570.199	9841.79
1574.772	10200.12
1579.34	10894.46
1583.904	11942.79
1588.464	13677.12
1593.019	16908.79
1597.569	22858.12
1602.115	31917.12
1606.657	42075.12
1611.195	47668.12
1615.728	43878.46
1620.256	34013.79
1624.78	27016.12
1629.3	26793.79
1633.816	30668.13
1638.327	33847.79
1642.834	32846.12
1647.336	27492.13
1651.834	20598.46
1656.328	15042.46
1660.817	11770.79
1665.302	10132.13
1669.783	9194.79
1674.259	8625.12
1678.732	8181.13
1683.199	7807.12
1687.663	7468.79
1692.122	7089.46
1696.577	6745.79
1701.028	6438.79
1705.474	6151.79
1709.917	5945.12
1714.355	5803.79
1718.788	5734.13
1723.218	5688.46
1727.643	5628.46
1732.064	5549.79
1736.481	5461.79
1740.893	5345.79
1745.301	5223.79
1749.705	5085.12
1754.105	4971.12
1758.501	4881.46
1762.893	4786.12
1767.28	4717.79
1771.663	4660.46
1776.042	4610.79
1780.417	4578.79
1784.787	4559.12
1789.154	4548.12
1793.516	4506.12
1797.874	4451.12
1802.228	4390.79
1806.578	4313.46
1810.924	4226.79
1815.266	4159.79
1819.603	4101.79
1823.937	4058.79
1828.266	4033.13
1832.591	4029.46
1836.913	4034.46
1841.23	4046.13
1845.543	4088.46
1849.852	4106.12
1854.156	4158.46
1858.457	4193.46
1862.754	4223.79
1867.047	4233.46
1871.335	4258.12
1875.62	4255.12
1879.9	4247.46
1884.177	4235.12
1888.449	4209.12
1892.718	4185.46
1896.982	4169.46
1901.243	4168.79
1905.499	4157.46
1909.752	4187.79
1914	4182.46
1918.245	4191.79
1922.485	4211.79
1926.722	4224.12
1930.954	4256.46
1935.183	4231.79
1939.408	4233.79
1943.628	4211.46
1947.845	4170.79
1952.058	4107.12
1956.267	4057.79
1960.472	3940.46
1964.673	3854.46
1968.87	3786.46
1973.063	3705.46
1977.252	3617.79
1981.438	3589.79
1985.619	3539.79
1989.797	3525.12
1993.971	3517.12
1998.14	3499.46
2002.306	3491.79
2006.469	3488.12
2010.627	3483.13
2014.781	3475.46
2018.932	3462.13
2023.078	3461.79
2027.221	3415.12
2031.36	3382.13
2035.495	3348.46
2039.627	3329.79
2043.754	3315.46
2047.878	3303.13
2051.998	3304.79
2056.114	3317.79
2060.226	3319.46
2064.334	3351.12
2068.439	3366.46
2072.54	3414.46
2076.637	3450.79
2080.73	3485.46
2084.82	3508.79
2088.906	3505.12
2092.988	3512.46
2097.066	3479.13
2101.14	3438.46
2105.211	3394.13
2109.278	3371.46
2113.342	3344.79
2117.401	3339.46
2121.457	3385.79
2125.509	3405.13
2129.558	3421.46
2133.602	3386.79
2137.643	3356.79
2141.681	3289.79
2145.714	3258.79
2149.744	3174.79
2153.77	3141.12
2157.793	3101.79
2161.812	3051.46
2165.827	3023.79
2169.838	3003.13
2173.846	2973.13
2177.851	2933.79
2181.851	2892.46
2185.848	2868.79
2189.841	2873.46
2193.831	2850.13
2197.817	2862.13
2201.799	2852.79
2205.778	2872.79
2209.753	2869.46
2213.725	2880.13
2217.693	2888.79
2221.657	2910.79
2225.618	2890.79
2229.575	2894.79
2233.529	2900.46
2237.479	2867.13
2241.425	2838.79
2245.368	2808.46
2249.307	2788.46
2253.243	2766.46
2257.175	2734.13
2261.104	2716.79
2265.029	2686.13
2268.95	2671.13
2272.868	2636.79
2276.783	2622.13
2280.694	2600.79
2284.601	2579.12
2288.505	2562.79
2292.405	2542.79
2296.302	2522.46
2300.195	2513.12
2304.085	2482.46
2307.971	2461.79
2311.854	2446.46
2315.734	2409.13
2319.609	2380.46
2323.482	2368.46
2327.351	2357.13
2331.216	2378.79
2335.078	2375.79
2338.937	2358.46
2342.792	2353.46
2346.643	2366.46
2350.492	2369.46
2354.336	2392.12
2358.178	2403.13
2362.015	2426.13
2365.85	2441.79
2369.681	2455.79
2373.508	2460.79
2377.333	2474.13
2381.153	2482.46
2384.971	2484.79
2388.785	2495.13
2392.595	2483.12
2396.402	2487.79
2400.206	2492.79
2404.007	2490.79
2407.804	2493.12
2411.597	2505.79
2415.388	2513.46
2419.174	2514.13
2422.958	2512.12
2426.738	2515.13
2430.515	2516.46
2434.289	2513.46
2438.059	2510.12
2441.825	2507.46
2445.589	2507.12
2449.349	2500.79
2453.106	2467.13
2456.859	2444.46
2460.61	2429.13
2464.356	2411.79
2468.1	2396.13
2471.84	2374.79
2475.577	2372.79
2479.311	2379.46
2483.041	2373.13
2486.768	2366.79
2490.492	2365.46
2494.213	2368.13
2497.93	2355.79
2501.644	2355.46
2505.355	2356.13
2509.062	2344.46
2512.766	2330.13
2516.467	2334.13
2520.165	2324.79
2523.859	2310.79
2527.551	2305.79
2531.239	2305.12
2534.923	2293.12
2538.605	2281.13
2542.283	2284.46
2545.958	2289.12
2549.63	2291.79
2553.299	2272.79
2556.964	2273.13
2560.626	2242.79
2564.285	2229.13
2567.941	2225.79
2571.594	2209.79
2575.243	2186.46
2578.89	2176.12
2582.533	2154.13
2586.173	2132.79
2589.809	2116.46
2593.443	2099.79
2597.073	2080.79
2600.701	2059.79
2604.325	2037.79
2607.946	2044.46
2611.564	2029.79
2615.178	2025.46
2618.79	2022.13
2622.398	2011.13
2626.004	1985.12
2629.606	1958.79
2633.205	1945.79
2636.801	1917.46
2640.394	1906.79
2643.983	1875.13
2647.57	1857.46
2651.153	1844.13
2654.734	1828.13
2658.311	1798.79
2661.885	1793.13
2665.456	1777.79
2669.025	1759.13
2672.589	1767.79
2676.151	1764.46
2679.71	1740.13
2683.266	1715.46
2686.819	1700.13
2690.368	1683.46
2693.915	1676.79
2697.458	1658.79
2700.999	1636.46
2704.536	1639.79
2708.071	1620.46
2711.602	1615.79
2715.13	1593.79
2718.656	1597.46
2722.178	1588.12
2725.697	1606.13
2729.214	1607.46
2732.727	1610.13
2736.237	1628.79
2739.744	1623.79
2743.249	1644.46
2746.75	1639.46
2750.248	1629.79
2753.743	1623.13
2757.236	1603.79
2760.725	1588.79
2764.211	1569.46
2767.695	1561.46
2771.175	1549.79
2774.652	1536.79
2778.127	1538.13
2781.598	1547.46
2785.067	1567.46
2788.532	1581.12
2791.995	1615.46
2795.455	1648.79
2798.911	1681.79
2802.365	1716.79
2805.816	1740.46
2809.264	1754.79
2812.709	1786.79
2816.151	1791.79
2819.59	1825.79
2823.026	1844.13
2826.46	1874.79
2829.89	1916.13
2833.318	1923.79
2836.742	1978.12
2840.164	2004.13
2843.583	2027.46
2846.999	2073.79
2850.412	2112.79
2853.822	2161.79
2857.229	2207.12
2860.634	2244.46
2864.035	2278.79
2867.434	2329.46
2870.83	2343.13
2874.223	2364.13
2877.613	2349.13
2881	2328.79
2884.385	2305.79
2887.766	2285.46
2891.145	2262.13
2894.521	2235.46
2897.894	2234.79
2901.264	2218.46
2904.631	2199.46
2907.996	2195.13
2911.358	2191.79
2914.717	2194.79
2918.073	2199.79
2921.426	2195.79
2924.777	2166.46
2928.124	2098.46
2931.469	2050.46
2934.811	1960.46
2938.15	1877.46
2941.487	1783.79
2944.821	1706.12
2948.152	1610.46
2951.48	1531.46
2954.805	1457.79
2958.128	1380.46
2961.447	1323.46
2964.765	1262.12
2968.079	1217.46
2971.39	1169.12
2974.699	1136.46
2978.005	1091.46
2981.308	1064.46
2984.609	1035.13
2987.907	995.12
2991.202	975.12
2994.494	946.46
2997.784	916.46
3001.07	887.46
3004.355	862.79
3007.636	839.79
3010.915	812.79
3014.191	784.79
3017.464	776.13
3020.734	742.46
3024.002	722.46
3027.267	702.13
3030.53	691.79
3033.789	682.12
3037.046	659.13
3040.301	650.79
3043.552	648.79
3046.801	638.79
3050.048	632.46
3053.291	634.12
3056.532	622.46
3059.771	621.13
3063.006	615.79
3066.239	602.79
3069.469	605.12
3072.697	586.46
3075.922	574.13
3079.144	562.13
3082.364	554.12
3085.581	544.12
3088.795	537.12
3092.007	527.79
3095.216	507.79
3098.423	503.79
3101.627	502.13
3104.828	485.13
3108.026	478.13
3111.222	473.46
3114.416	460.79
3117.607	451.79
3120.795	453.79
3123.98	453.12
3127.163	442.13
3130.344	443.46
3133.521	440.46
3136.696	431.13
3139.869	426.12
3143.039	417.79
3146.206	410.12
3149.371	405.13
3152.533	392.79
3155.693	386.79
3158.85	377.46
3162.005	362.46
3165.157	354.79
3168.306	336.46
3171.453	329.13
3174.597	327.79
3177.739	317.13
3180.878	307.13
3184.014	299.79
3187.149	295.46
3190.28	293.46
3193.409	287.79
3196.536	278.79
3199.659	277.12
3202.781	278.79
3205.9	273.46
3209.016	270.46
3212.13	258.13
3215.241	251.79
3218.35	253.46
3221.456	242.46
3224.56	233.79
3227.661	224.46
3230.76	213.46
3233.856	206.13
3236.95	204.13
3240.041	188.79
3243.13	192.12
3246.216	177.79
3249.3	175.79
3252.382	172.79
3255.46	165.79
3258.537	164.13
3261.611	153.79
3264.682	149.79
3267.751	141.79
3270.818	142.12
3273.882	137.13
3276.943	136.13
3280.002	128.79
3283.059	122.79
3286.113	116.79
3289.165	107.46
3292.214	102.46
3295.261	97.46
3298.306	90.79
3301.348	81.46
3304.387	79.13
3307.425	79.79
3310.459	74.46
3313.492	66.79
3316.521	65.79
3319.549	62.13
3322.574	56.46
3325.597	53.46
3328.617	57.13
3331.635	51.46
3334.65	46.46
3337.663	46.46
3340.674	48.12
3343.682	44.79
3346.688	42.79
3349.691	39.46
3352.692	39.46
3355.691	36.12
3358.687	36.46
3361.681	29.46
3364.673	23.12
3367.662	25.13
3370.649	19.13
3373.633	17.46
3376.615	11.13
3379.595	14.79
3382.572	8.79
3385.547	6.46
3388.52	0.13
3391.49	-1.21
3394.458	-0.87
3397.424	-0.87
3400.387	-7.87
3403.348	-10.21
3406.307	-11.87
3409.263	-14.87
3412.217	-15.87
3415.168	-19.21
3418.118	-16.21
3421.065	-21.88
3424.009	-22.54
3426.951	-24.54
3429.891	-28.88
3432.829	-25.54
3435.764	-27.54
3438.697	-32.54
3441.628	-38.54
3444.557	-36.54
3447.483	-42.21
3450.407	-44.87
3453.328	-48.21
3456.247	-50.54
3459.164	-53.54
3462.079	-55.54
3464.991	-56.54
3467.902	-63.87
3470.809	-64.21
3473.715	-68.54
3476.618	-66.21
3479.519	-70.54
3482.418	-75.54
3485.315	-69.54
3488.209	-71.88
3491.101	-75.88
3493.99	-74.87
3496.878	-80.21
3499.763	-79.87
3502.646	-81.21
3505.527	-81.21
3508.405	-82.88
3511.281	-84.54
3514.155	-89.88
3517.027	-90.54
3519.897	-91.54
3522.764	-93.54
3525.629	-98.21
3528.492	-100.54
3531.352	-99.54
3534.211	-107.21
3537.067	-106.21
3539.921	-110.21
3542.773	-110.87
3545.622	-114.87
3548.469	-113.21
3551.315	-118.21
3554.157	-119.54
3556.998	-119.54
3559.837	-120.88
3562.673	-123.21
3565.507	-124.88
3568.339	-124.21
3571.169	-127.54
3573.996	-127.87
3576.822	-130.87
3579.645	-128.54
3582.466	-131.88
3585.285	-132.54
3588.101	-134.54
3590.916	-133.88
3593.728	-138.54
3596.538	-141.21
3599.346	-141.88
3602.152	-139.88
3604.956	-142.54
3607.757	-143.54
3610.556	-144.88
3613.354	-147.88
3616.149	-149.88
3618.942	-149.21
3621.732	-151.54
3624.521	-150.54
3627.307	-150.54
3630.092	-152.88
3632.874	-153.21
3635.654	-152.54
3638.432	-154.88
3641.208	-152.88
3643.982	-154.88
3646.753	-153.87
3649.523	-157.21
3652.29	-158.21
3655.055	-159.54
3657.818	-155.87
3660.579	-160.21
3663.338	-157.88
3666.095	-160.87
3668.849	-163.21
3671.602	-161.21
3674.352	-159.88
3677.101	-165.88
3679.847	-161.87
3682.591	-163.54
3685.333	-163.21
3688.073	-165.54
3690.811	-161.87
3693.547	-163.87
3696.281	-165.21
3699.013	-164.54
3701.742	-164.54
3704.47	-161.88
3707.195	-165.21
3709.919	-165.21
3712.64	-166.54
3715.359	-163.87
3718.076	-166.88
3720.792	-166.21
3723.505	-167.54
3726.216	-169.54
3728.925	-166.54
3731.632	-169.87
3734.336	-166.87
3737.039	-166.21
3739.74	-166.87
3742.439	-168.54
3745.136	-168.54
3747.83	-169.87
3750.523	-167.87
3753.213	-167.21
3755.902	-168.54
3758.589	-169.88
3761.273	-168.21
3763.956	-169.54
3766.636	-170.21
3769.315	-168.54
3771.991	-169.87
3774.665	-169.21
3777.338	-168.54
3780.008	-171.88
3782.677	-170.54
3785.343	-173.21
3788.007	-174.21
3790.67	-176.54
3793.33	-172.21
3795.989	-174.88
3798.645	-173.54
3801.299	-176.87
3803.952	-176.21
3806.602	-181.54
3809.251	-178.54
3811.897	-176.54
3814.542	-175.21
3817.184	-176.54
3819.825	-177.87
3822.463	-180.21
3825.1	-177.21
3827.735	-179.21
3830.367	-179.87
3832.998	-182.54
3835.627	-178.54
3838.253	-179.87
3840.878	-183.54
3843.501	-182.54
3846.122	-180.87
3848.741	-181.87
3851.358	-183.21
3853.973	-183.88
3856.586	-187.21
3859.197	-186.54
3861.806	-187.21
3864.414	-184.54
3867.019	-185.54
3869.622	-186.21
3872.224	-183.87
3874.823	-183.21
3877.421	-178.88
3880.016	-175.21
3882.61	-169.87
3885.202	-165.54
3887.792	-173.21
3890.38	-184.88
3892.966	-185.21
3895.55	-189.54
3898.132	-190.21
3900.713	-188.54
3903.291	-191.54
3905.868	-191.21
3908.442	-189.87
3911.015	-191.21
3913.586	-190.87
3916.155	-189.87
3918.722	-194.87
3921.287	-191.54
3923.85	-188.87
3926.411	-195.21
3928.971	-194.21
3931.528	-192.88
3934.084	-193.21
3936.638	-193.54
3939.19	-196.54
3941.74	-193.87
3944.288	-194.87
3946.834	-195.87
3949.378	-195.88
3951.921	-194.54
3954.462	-194.21
3957	-195.21
3959.537	-191.87
3962.072	-192.21
3964.606	-191.54
3967.137	-196.21
3969.667	-191.87
3972.194	-194.21
3974.72	-189.54
3977.244	-194.87
3979.766	-190.54
3982.286	-190.21
3984.805	-192.87
3987.321	-190.54
3989.836	-187.54
3992.349	-188.54
3994.86	-189.21
3997.369	-188.88
3999.877	-186.54
4002.382	-188.87
4004.886	-185.87
4007.388	-185.87
4009.888	-186.21
4012.386	-181.87
4014.883	-183.21
4017.377	-182.54
4019.87	-183.87
4022.361	-181.21
4024.85	-186.21
4027.338	-185.87
4029.823	-183.88
4032.307	-187.54
4034.789	-185.54
4037.269	-185.21
4039.747	-184.87
4042.224	-188.21
4044.699	-185.54
4047.172	-188.21
4049.643	-187.54
4052.112	-191.21
4054.58	-189.21
4057.046	-190.87
4059.51	-190.21
4061.972	-193.87
4064.432	-188.54
4066.891	-190.21
4069.348	-190.21
4071.803	-189.54
4074.256	-186.54
4076.708	-190.21
4079.158	-191.21
4081.606	-191.21
4084.052	-187.87
4086.497	-191.21
4088.939	-189.87
4091.38	-191.21
4093.819	-190.88
4096.257	-209.54
4098.693	-207.54
4101.127	-208.54
4103.559	-209.54
4105.989	-106.21
4108.418	-95.87
4110.845	-86.21
4113.27	-73.54
4115.694	-61.87
4118.115	-41.21
4120.535	-190.54
4122.954	-189.54
4125.37	-192.88
4127.785	-193.21
4130.198	-192.21
4132.609	-190.88
4135.019	-209.87
4137.427	-210.21
4139.833	-208.87
4142.237	-209.21
