Data from Just SERS_RamanShift_6.txt Node
Date: Tue Nov 07 10:58:47 IST 2017
User: aro
Spectrometer: QEPB0276
Trigger mode: 0
Integration Time (sec): 1.500000E1
Scans to average: 3
Electric dark correction enabled: true
Nonlinearity correction enabled: false
Boxcar width: 0
XAxis mode: Raman Shifts
Number of Pixels in Spectrum: 1044
>>>>>Begin Spectral Data<<<<<
160.701	-16.79
166.742	52.88
172.777	244.54
178.805	818.88
184.826	2272.54
190.841	5003.21
196.849	8452.54
202.85	11197.88
208.845	12519.54
214.833	12937.21
220.815	13283.88
226.789	13867.21
232.758	14561.88
238.719	15249.21
244.674	15923.54
250.623	16611.21
256.565	17143.21
262.5	17617.88
268.429	17964.88
274.351	18130.54
280.267	18149.88
286.176	18198.21
292.079	18146.88
297.975	18040.88
303.865	17801.54
309.748	17422.88
315.625	16993.54
321.495	16586.21
327.359	16247.88
333.217	15980.21
339.068	15749.87
344.912	15515.21
350.751	15348.54
356.583	15262.54
362.408	15203.54
368.227	15150.54
374.04	15203.88
379.847	15266.54
385.647	15332.87
391.44	15376.21
397.228	15375.88
403.009	15332.87
408.784	15338.54
414.553	15431.87
420.315	15565.88
426.071	15573.54
431.821	15434.21
437.565	15320.54
443.302	15262.88
449.033	15258.21
454.758	15273.21
460.477	15279.87
466.189	15296.54
471.896	15316.87
477.596	15362.54
483.29	15411.21
488.978	15450.54
494.66	15492.21
500.335	15508.21
506.005	15449.54
511.668	15436.87
517.325	15352.88
522.977	15304.88
528.622	15322.21
534.261	15308.54
539.894	15358.88
545.521	15445.88
551.141	15476.21
556.756	15523.88
562.365	15525.21
567.968	15486.88
573.565	15487.21
579.155	15526.54
584.74	15464.21
590.319	15450.54
595.892	15505.88
601.459	15518.88
607.02	15529.87
612.575	15431.88
618.124	15443.87
623.667	15410.54
629.204	15390.54
634.735	15436.88
640.261	15512.87
645.781	15551.21
651.294	15643.88
656.802	15757.54
662.304	15842.21
667.8	15888.21
673.29	15793.54
678.775	15716.54
684.254	15675.54
689.726	15703.88
695.193	15680.87
700.655	15679.54
706.11	15657.88
711.56	15658.21
717.004	15685.54
722.442	15651.88
727.874	15599.88
733.301	15651.21
738.722	15604.88
744.137	15657.54
749.547	15694.21
754.951	15755.54
760.349	15798.21
765.741	15899.54
771.128	15957.54
776.509	16026.21
781.885	16033.54
787.254	16110.21
792.618	16151.21
797.977	16114.21
803.33	16166.54
808.677	16136.54
814.019	16077.21
819.355	16031.54
824.686	16014.21
830.011	16072.88
835.33	16147.21
840.644	16225.54
845.952	16363.88
851.255	16540.21
856.552	16661.21
861.844	16767.88
867.13	16802.88
872.41	16798.54
877.686	16819.21
882.955	16842.21
888.219	16850.88
893.478	16688.21
898.731	16536.54
903.979	16334.21
909.221	16189.87
914.458	16174.88
919.69	16249.87
924.916	16353.88
930.136	16478.54
935.351	16539.88
940.561	16638.54
945.766	16711.88
950.965	16819.21
956.158	16844.88
961.347	16858.21
966.529	16787.88
971.707	16735.21
976.879	16654.21
982.046	16562.54
987.208	16557.54
992.364	16652.21
997.515	16883.88
1002.66	17369.21
1007.801	18122.21
1012.936	19200.54
1018.066	20593.54
1023.19	21534.21
1028.309	21101.88
1033.423	19585.21
1038.532	18181.21
1043.636	17385.21
1048.734	17009.88
1053.827	16771.54
1058.915	16720.88
1063.998	16811.54
1069.075	16972.54
1074.147	17044.54
1079.214	17067.54
1084.276	17088.88
1089.333	17093.54
1094.385	17090.88
1099.431	17185.21
1104.472	17195.88
1109.509	17118.88
1114.54	17010.88
1119.565	16860.54
1124.586	16739.88
1129.602	16691.54
1134.613	16752.54
1139.618	16850.21
1144.619	17018.21
1149.614	17017.54
1154.604	16937.88
1159.589	16837.54
1164.57	16900.54
1169.545	17024.21
1174.515	17162.88
1179.48	17348.21
1184.44	17794.54
1189.395	18742.54
1194.345	20569.21
1199.29	22939.88
1204.23	24263.21
1209.165	23640.88
1214.095	21860.21
1219.021	20332.54
1223.941	19483.54
1228.856	18870.88
1233.766	18344.88
1238.672	18209.88
1243.572	18322.21
1248.467	18367.54
1253.358	18289.54
1258.244	18070.54
1263.124	17940.88
1268	17810.21
1272.871	17501.21
1277.737	16952.54
1282.599	16497.54
1287.455	16301.88
1292.306	16283.54
1297.153	16409.21
1301.995	16526.21
1306.832	16677.88
1311.664	16899.54
1316.491	16996.21
1321.314	16998.21
1326.132	16931.21
1330.945	17010.54
1335.753	17503.21
1340.556	18116.54
1345.354	18170.21
1350.148	17533.88
1354.937	16775.54
1359.722	16202.54
1364.501	15786.54
1369.276	15515.54
1374.046	15330.88
1378.811	15137.21
1383.572	14895.88
1388.327	14659.88
1393.079	14459.21
1397.825	14283.54
1402.567	14157.88
1407.304	14166.88
1412.036	14225.88
1416.764	14430.21
1421.487	14699.54
1426.205	15040.87
1430.919	15165.21
1435.628	15236.21
1440.333	15269.54
1445.032	15361.88
1449.727	15502.54
1454.418	15584.54
1459.104	15494.21
1463.785	15321.21
1468.462	15161.87
1473.134	15033.54
1477.802	15038.54
1482.465	15153.54
1487.123	15418.88
1491.777	15832.88
1496.426	15899.21
1501.071	15723.21
1505.711	15322.21
1510.347	15092.21
1514.978	14892.21
1519.604	14724.54
1524.226	14614.88
1528.844	14475.54
1533.457	14421.21
1538.065	14485.88
1542.669	14509.87
1547.269	14378.88
1551.864	14116.54
1556.454	13854.21
1561.041	13680.21
1565.622	13617.87
1570.199	13682.21
1574.772	13839.21
1579.34	14111.54
1583.904	14534.54
1588.464	15031.88
1593.019	16004.54
1597.569	17725.88
1602.115	20402.88
1606.657	23381.54
1611.195	24874.88
1615.728	23479.54
1620.256	20391.21
1624.78	18302.88
1629.3	18298.88
1633.816	19426.21
1638.327	20312.54
1642.834	19851.88
1647.336	18185.88
1651.834	16126.21
1656.328	14529.87
1660.817	13636.87
1665.302	13183.88
1669.783	12878.88
1674.259	12675.21
1678.732	12467.21
1683.199	12279.21
1687.663	12087.87
1692.122	11873.88
1696.577	11608.87
1701.028	11341.54
1705.474	11033.54
1709.917	10785.87
1714.355	10666.54
1718.788	10694.54
1723.218	10698.54
1727.643	10734.54
1732.064	10676.54
1736.481	10536.21
1740.893	10388.88
1745.301	10200.54
1749.705	10011.87
1754.105	9822.21
1758.501	9653.88
1762.893	9537.54
1767.28	9461.21
1771.663	9419.87
1776.042	9424.21
1780.417	9466.21
1784.787	9523.88
1789.154	9558.88
1793.516	9517.88
1797.874	9407.88
1802.228	9269.88
1806.578	9093.54
1810.924	8938.88
1815.266	8761.54
1819.603	8616.88
1823.937	8555.54
1828.266	8526.88
1832.591	8499.54
1836.913	8537.54
1841.23	8581.21
1845.543	8628.88
1849.852	8682.88
1854.156	8712.21
1858.457	8761.21
1862.754	8866.88
1867.047	8934.54
1871.335	8963.54
1875.62	9009.21
1879.9	9050.54
1884.177	9056.21
1888.449	9031.88
1892.718	8992.87
1896.982	9008.21
1901.243	8973.87
1905.499	8977.54
1909.752	8976.54
1914	9012.21
1918.245	9065.21
1922.485	9125.88
1926.722	9173.88
1930.954	9210.88
1935.183	9217.88
1939.408	9154.21
1943.628	9096.87
1947.845	8988.54
1952.058	8810.87
1956.267	8628.54
1960.472	8427.54
1964.673	8204.21
1968.87	8024.21
1973.063	7867.54
1977.252	7736.54
1981.438	7648.54
1985.619	7569.54
1989.797	7516.88
1993.971	7490.21
1998.14	7451.54
2002.306	7468.54
2006.469	7480.21
2010.627	7461.88
2014.781	7460.21
2018.932	7418.87
2023.078	7390.88
2027.221	7322.88
2031.36	7232.88
2035.495	7180.54
2039.627	7117.54
2043.754	7074.54
2047.878	7060.21
2051.998	7069.21
2056.114	7077.87
2060.226	7129.54
2064.334	7128.21
2068.439	7203.21
2072.54	7289.21
2076.637	7344.54
2080.73	7408.54
2084.82	7418.21
2088.906	7418.21
2092.988	7406.88
2097.066	7339.88
2101.14	7269.54
2105.211	7160.88
2109.278	7070.21
2113.342	6953.54
2117.401	6893.88
2121.457	6826.54
2125.509	6788.21
2129.558	6698.21
2133.602	6660.54
2137.643	6617.21
2141.681	6594.54
2145.714	6537.54
2149.744	6487.21
2153.77	6456.54
2157.793	6417.54
2161.812	6348.87
2165.827	6294.21
2169.838	6215.88
2173.846	6152.21
2177.851	6086.54
2181.851	6021.54
2185.848	5980.54
2189.841	5957.88
2193.831	5937.88
2197.817	5912.21
2201.799	5908.87
2205.778	5900.54
2209.753	5892.54
2213.725	5928.54
2217.693	5914.54
2221.657	5926.21
2225.618	5923.21
2229.575	5932.88
2233.529	5882.87
2237.479	5880.54
2241.425	5821.54
2245.368	5753.21
2249.307	5704.54
2253.243	5601.54
2257.175	5567.54
2261.104	5484.88
2265.029	5433.88
2268.95	5384.21
2272.868	5335.21
2276.783	5295.21
2280.694	5219.54
2284.601	5214.54
2288.505	5141.54
2292.405	5140.88
2296.302	5072.88
2300.195	5052.88
2304.085	4985.54
2307.971	4938.88
2311.854	4872.88
2315.734	4821.54
2319.609	4766.54
2323.482	4725.21
2327.351	4694.54
2331.216	4688.21
2335.078	4681.88
2338.937	4667.54
2342.792	4654.54
2346.643	4676.21
2350.492	4700.54
2354.336	4704.54
2358.178	4731.21
2362.015	4767.21
2365.85	4795.21
2369.681	4811.21
2373.508	4844.88
2377.333	4853.88
2381.153	4869.21
2384.971	4846.54
2388.785	4829.88
2392.595	4838.88
2396.402	4809.21
2400.206	4802.54
2404.007	4789.88
2407.804	4793.88
2411.597	4784.21
2415.388	4769.21
2419.174	4774.21
2422.958	4758.21
2426.738	4742.54
2430.515	4744.54
2434.289	4732.88
2438.059	4681.21
2441.825	4695.21
2445.589	4654.21
2449.349	4630.88
2453.106	4600.21
2456.859	4557.21
2460.61	4525.21
2464.356	4493.88
2468.1	4467.88
2471.84	4442.54
2475.577	4423.88
2479.311	4425.21
2483.041	4399.54
2486.768	4411.54
2490.492	4427.88
2494.213	4408.21
2497.93	4415.88
2501.644	4403.88
2505.355	4404.88
2509.062	4394.54
2512.766	4378.54
2516.467	4373.21
2520.165	4368.88
2523.859	4338.88
2527.551	4323.21
2531.239	4307.88
2534.923	4291.21
2538.605	4278.88
2542.283	4283.54
2545.958	4265.88
2549.63	4259.21
2553.299	4255.21
2556.964	4237.88
2560.626	4211.88
2564.285	4185.21
2567.941	4156.88
2571.594	4117.54
2575.243	4075.88
2578.89	4034.54
2582.533	4008.21
2586.173	3959.21
2589.809	3909.87
2593.443	3887.21
2597.073	3819.88
2600.701	3775.88
2604.325	3748.21
2607.946	3688.21
2611.564	3695.88
2615.178	3657.21
2618.79	3637.54
2622.398	3606.88
2626.004	3566.54
2629.606	3525.87
2633.205	3469.21
2636.801	3446.54
2640.394	3412.87
2643.983	3365.54
2647.57	3317.88
2651.153	3280.88
2654.734	3255.21
2658.311	3229.21
2661.885	3189.88
2665.456	3170.88
2669.025	3138.88
2672.589	3130.87
2676.151	3105.54
2679.71	3082.54
2683.266	3038.54
2686.819	3001.88
2690.368	2976.88
2693.915	2929.88
2697.458	2883.54
2700.999	2869.21
2704.536	2836.21
2708.071	2799.21
2711.602	2772.88
2715.13	2755.21
2718.656	2719.88
2722.178	2720.54
2725.697	2715.54
2729.214	2739.87
2732.727	2736.88
2736.237	2743.87
2739.744	2747.87
2743.249	2739.21
2746.75	2739.88
2750.248	2708.87
2753.743	2666.21
2757.236	2642.54
2760.725	2592.88
2764.211	2565.21
2767.695	2504.88
2771.175	2471.21
2774.652	2460.54
2778.127	2434.21
2781.598	2437.21
2785.067	2417.21
2788.532	2428.87
2791.995	2453.88
2795.455	2480.54
2798.911	2490.87
2802.365	2503.54
2805.816	2517.87
2809.264	2542.87
2812.709	2548.21
2816.151	2542.21
2819.59	2563.87
2823.026	2565.21
2826.46	2571.54
2829.89	2593.88
2833.318	2609.88
2836.742	2622.21
2840.164	2635.21
2843.583	2645.54
2846.999	2667.88
2850.412	2681.54
2853.822	2704.88
2857.229	2709.54
2860.634	2743.88
2864.035	2760.21
2867.434	2755.88
2870.83	2772.21
2874.223	2746.21
2877.613	2719.21
2881	2694.21
2884.385	2673.54
2887.766	2630.21
2891.145	2595.21
2894.521	2588.88
2897.894	2555.21
2901.264	2534.54
2904.631	2518.21
2907.996	2512.54
2911.358	2510.54
2914.717	2489.21
2918.073	2487.21
2921.426	2490.54
2924.777	2459.21
2928.124	2427.21
2931.469	2361.88
2934.811	2287.21
2938.15	2216.21
2941.487	2126.54
2944.821	2042.87
2948.152	1962.54
2951.48	1897.88
2954.805	1842.54
2958.128	1787.21
2961.447	1730.21
2964.765	1671.88
2968.079	1642.87
2971.39	1609.21
2974.699	1577.88
2978.005	1546.88
2981.308	1522.21
2984.609	1502.88
2987.907	1496.21
2991.202	1458.54
2994.494	1423.21
2997.784	1407.54
3001.07	1364.54
3004.355	1337.21
3007.636	1294.21
3010.915	1268.88
3014.191	1224.21
3017.464	1187.54
3020.734	1157.87
3024.002	1127.21
3027.267	1087.54
3030.53	1074.88
3033.789	1050.21
3037.046	1035.88
3040.301	1010.21
3043.552	1005.21
3046.801	993.21
3050.048	984.54
3053.291	973.21
3056.532	970.54
3059.771	963.21
3063.006	956.21
3066.239	958.21
3069.469	942.21
3072.697	935.54
3075.922	930.88
3079.144	908.21
3082.364	903.87
3085.581	891.21
3088.795	872.87
3092.007	866.88
3095.216	846.88
3098.423	839.54
3101.627	831.54
3104.828	815.21
3108.026	804.88
3111.222	797.88
3114.416	793.54
3117.607	770.21
3120.795	778.54
3123.98	762.87
3127.163	750.21
3130.344	747.54
3133.521	742.21
3136.696	729.88
3139.869	724.21
3143.039	705.54
3146.206	693.21
3149.371	673.21
3152.533	656.21
3155.693	649.54
3158.85	628.21
3162.005	608.21
3165.157	584.87
3168.306	573.88
3171.453	557.21
3174.597	546.21
3177.739	528.21
3180.878	504.21
3184.014	497.88
3187.149	488.54
3190.28	479.54
3193.409	454.88
3196.536	448.21
3199.659	442.87
3202.781	429.88
3205.9	424.88
3209.016	416.54
3212.13	408.54
3215.241	393.21
3218.35	380.21
3221.456	366.54
3224.56	364.87
3227.661	345.87
3230.76	334.21
3233.856	330.21
3236.95	315.88
3240.041	308.54
3243.13	303.54
3246.216	296.21
3249.3	289.54
3252.382	283.87
3255.46	280.88
3258.537	273.21
3261.611	266.54
3264.682	263.54
3267.751	254.54
3270.818	251.54
3273.882	246.21
3276.943	232.88
3280.002	227.21
3283.059	221.54
3286.113	214.21
3289.165	202.21
3292.214	192.21
3295.261	186.54
3298.306	176.54
3301.348	165.21
3304.387	160.88
3307.425	154.21
3310.459	146.21
3313.492	144.21
3316.521	132.21
3319.549	129.21
3322.574	129.54
3325.597	121.87
3328.617	118.54
3331.635	116.21
3334.65	109.88
3337.663	107.87
3340.674	107.21
3343.682	104.21
3346.688	102.21
3349.691	104.88
3352.692	95.21
3355.691	94.54
3358.687	84.21
3361.681	82.21
3364.673	79.21
3367.662	74.54
3370.649	63.21
3373.633	57.21
3376.615	60.21
3379.595	52.21
3382.572	48.88
3385.547	42.21
3388.52	36.21
3391.49	33.87
3394.458	25.54
3397.424	27.54
3400.387	22.54
3403.348	17.88
3406.307	14.88
3409.263	12.54
3412.217	11.54
3415.168	6.87
3418.118	4.21
3421.065	3.54
3424.009	0.21
3426.951	-8.12
3429.891	-9.46
3432.829	-9.46
3435.764	-11.12
3438.697	-17.46
3441.628	-24.79
3444.557	-21.79
3447.483	-32.12
3450.407	-34.12
3453.328	-39.46
3456.247	-49.46
3459.164	-46.46
3462.079	-52.46
3464.991	-53.12
3467.902	-61.12
3470.809	-64.79
3473.715	-66.46
3476.618	-72.79
3479.519	-74.46
3482.418	-78.79
3485.315	-73.79
3488.209	-77.13
3491.101	-81.13
3493.99	-84.12
3496.878	-85.46
3499.763	-89.79
3502.646	-90.46
3505.527	-93.46
3508.405	-99.13
3511.281	-100.79
3514.155	-102.79
3517.027	-108.12
3519.897	-109.79
3522.764	-112.46
3525.629	-119.46
3528.492	-124.46
3531.352	-123.46
3534.211	-124.46
3537.067	-127.46
3539.921	-133.46
3542.773	-135.46
3545.622	-137.79
3548.469	-144.13
3551.315	-146.46
3554.157	-147.13
3556.998	-147.79
3559.837	-146.79
3562.673	-153.12
3565.507	-153.13
3568.339	-153.12
3571.169	-161.46
3573.996	-161.79
3576.822	-163.12
3579.645	-160.79
3582.466	-167.13
3585.285	-167.79
3588.101	-167.12
3590.916	-170.13
3593.728	-171.12
3596.538	-176.46
3599.346	-177.46
3602.152	-176.79
3604.956	-180.46
3607.757	-182.46
3610.556	-187.46
3613.354	-187.46
3616.149	-187.13
3618.942	-190.12
3621.732	-189.12
3624.521	-191.46
3627.307	-189.12
3630.092	-192.79
3632.874	-195.46
3635.654	-193.46
3638.432	-195.46
3641.208	-196.46
3643.982	-197.13
3646.753	-197.79
3649.523	-198.12
3652.29	-201.13
3655.055	-200.13
3657.818	-199.79
3660.579	-203.79
3663.338	-203.46
3666.095	-203.46
3668.849	-204.79
3671.602	-206.46
3674.352	-206.79
3677.101	-208.13
3679.847	-205.79
3682.591	-210.46
3685.333	-211.79
3688.073	-210.13
3690.811	-210.12
3693.547	-210.46
3696.281	-210.13
3699.013	-206.79
3701.742	-211.12
3704.47	-207.13
3707.195	-212.12
3709.919	-212.46
3712.64	-214.79
3715.359	-211.79
3718.076	-213.79
3720.792	-216.46
3723.505	-214.46
3726.216	-215.12
3728.925	-213.13
3731.632	-216.46
3734.336	-217.12
3737.039	-217.79
3739.74	-218.12
3742.439	-217.46
3745.136	-218.46
3747.83	-220.12
3750.523	-217.12
3753.213	-218.79
3755.902	-216.46
3758.589	-223.46
3761.273	-221.46
3763.956	-222.12
3766.636	-218.46
3769.315	-218.46
3771.991	-218.46
3774.665	-219.46
3777.338	-218.79
3780.008	-221.46
3782.677	-222.79
3785.343	-220.79
3788.007	-223.12
3790.67	-227.46
3793.33	-222.46
3795.989	-225.79
3798.645	-223.79
3801.299	-228.12
3803.952	-224.79
3806.602	-230.79
3809.251	-231.79
3811.897	-228.12
3814.542	-228.79
3817.184	-226.79
3819.825	-228.79
3822.463	-231.12
3825.1	-231.46
3827.735	-231.12
3830.367	-233.46
3832.998	-234.79
3835.627	-233.46
3838.253	-233.46
3840.878	-237.46
3843.501	-236.79
3846.122	-234.79
3848.741	-236.79
3851.358	-240.46
3853.973	-240.46
3856.586	-241.46
3859.197	-243.46
3861.806	-242.46
3864.414	-242.79
3867.019	-244.46
3869.622	-244.79
3872.224	-236.12
3874.823	-238.13
3877.421	-234.46
3880.016	-233.13
3882.61	-226.12
3885.202	-227.12
3887.792	-233.46
3890.38	-238.79
3892.966	-243.79
3895.55	-244.46
3898.132	-248.46
3900.713	-248.46
3903.291	-251.46
3905.868	-250.13
3908.442	-249.12
3911.015	-252.12
3913.586	-253.12
3916.155	-253.12
3918.722	-253.46
3921.287	-251.79
3923.85	-250.12
3926.411	-254.13
3928.971	-253.46
3931.528	-253.46
3934.084	-253.46
3936.638	-254.46
3939.19	-256.12
3941.74	-256.12
3944.288	-254.12
3946.834	-256.12
3949.378	-253.46
3951.921	-257.12
3954.462	-256.12
3957	-256.12
3959.537	-253.46
3962.072	-252.12
3964.606	-254.12
3967.137	-254.12
3969.667	-252.79
3972.194	-252.46
3974.72	-251.79
3977.244	-250.46
3979.766	-248.13
3982.286	-246.79
3984.805	-246.46
3987.321	-247.79
3989.836	-247.46
3992.349	-244.79
3994.86	-246.46
3997.369	-245.46
3999.877	-243.13
4002.382	-243.46
4004.886	-243.79
4007.388	-244.46
4009.888	-240.79
4012.386	-242.12
4014.883	-241.79
4017.377	-242.79
4019.87	-240.12
4022.361	-243.13
4024.85	-240.79
4027.338	-241.79
4029.823	-241.46
4032.307	-243.79
4034.789	-241.12
4037.269	-242.79
4039.747	-244.46
4042.224	-244.46
4044.699	-245.79
4047.172	-246.79
4049.643	-244.79
4052.112	-245.12
4054.58	-246.46
4057.046	-248.12
4059.51	-247.46
4061.972	-250.79
4064.432	-246.46
4066.891	-245.46
4069.348	-243.46
4071.803	-247.12
4074.256	-242.13
4076.708	-242.79
4079.158	-245.12
4081.606	-243.46
4084.052	-243.79
4086.497	-242.12
4088.939	-242.12
4091.38	-242.79
4093.819	-244.13
4096.257	-273.46
4098.693	-273.46
4101.127	-273.46
4103.559	-274.46
4105.989	-137.46
4108.418	-123.79
4110.845	-115.46
4113.27	-96.46
4115.694	-78.46
4118.115	-53.12
4120.535	-245.12
4122.954	-244.79
4125.37	-244.79
4127.785	-248.79
4130.198	-246.79
4132.609	-245.46
4135.019	-274.79
4137.427	-276.79
4139.833	-273.46
4142.237	-274.46
