Data from Just SERSpETOH_RamanShift_3.txt Node
Date: Tue Nov 07 11:06:17 IST 2017
User: aro
Spectrometer: QEPB0276
Trigger mode: 0
Integration Time (sec): 1.500000E1
Scans to average: 3
Electric dark correction enabled: true
Nonlinearity correction enabled: false
Boxcar width: 0
XAxis mode: Raman Shifts
Number of Pixels in Spectrum: 1044
>>>>>Begin Spectral Data<<<<<
160.701	-4.13
166.742	22.21
172.777	98.88
178.805	321.54
184.826	895.54
190.841	1915.21
196.849	3182.54
202.85	4180.21
208.845	4648.21
214.833	4784.88
220.815	5017.54
226.789	5355.21
232.758	5826.88
238.719	6423.87
244.674	7176.54
250.623	7888.21
256.565	8472.21
262.5	8757.88
268.429	8658.87
274.351	8355.21
280.267	8003.54
286.176	7744.54
292.079	7624.88
297.975	7504.88
303.865	7328.21
309.748	7018.88
315.625	6549.54
321.495	6096.88
327.359	5731.21
333.217	5340.88
339.068	4911.21
344.912	4488.54
350.751	4199.21
356.583	4065.87
362.408	4026.54
368.227	4062.54
374.04	4148.21
379.847	4297.21
385.647	4521.54
391.44	4596.21
397.228	4434.54
403.009	4144.54
408.784	3872.54
414.553	3707.87
420.315	3682.88
426.071	3581.88
431.821	3370.21
437.565	3189.88
443.302	3082.54
449.033	3017.21
454.758	2975.54
460.477	2931.87
466.189	2909.21
471.896	2904.21
477.596	2887.54
483.29	2903.21
488.978	2940.21
494.66	2969.54
500.335	2953.54
506.005	2894.21
511.668	2812.54
517.325	2738.88
522.977	2678.88
528.622	2633.87
534.261	2615.54
539.894	2629.88
545.521	2680.21
551.141	2762.88
556.756	2797.54
562.365	2726.21
567.968	2641.88
573.565	2588.54
579.155	2541.88
584.74	2523.88
590.319	2535.21
595.892	2555.88
601.459	2564.21
607.02	2578.21
612.575	2591.54
618.124	2590.54
623.667	2599.87
629.204	2584.54
634.735	2601.54
640.261	2666.54
645.781	2793.21
651.294	3030.88
656.802	3475.21
662.304	4062.88
667.8	4266.54
673.29	3761.87
678.775	3021.88
684.254	2638.54
689.726	2528.54
695.193	2500.54
700.655	2497.54
706.11	2520.88
711.56	2571.21
717.004	2633.54
722.442	2654.88
727.874	2622.88
733.301	2598.88
738.722	2640.88
744.137	2655.54
749.547	2634.54
754.951	2615.21
760.349	2629.54
765.741	2643.21
771.128	2661.88
776.509	2686.21
781.885	2715.21
787.254	2762.54
792.618	2852.54
797.977	3003.54
803.33	3155.21
808.677	3208.54
814.019	3129.54
819.355	3009.88
824.686	2976.88
830.011	3012.54
835.33	3057.54
840.644	3096.21
845.952	3134.88
851.255	3231.87
856.552	3352.21
861.844	3444.21
867.13	3511.21
872.41	3630.21
877.686	3899.54
882.955	4381.54
888.219	4776.88
893.478	4704.54
898.731	4183.88
903.979	3621.21
909.221	3268.54
914.458	3153.21
919.69	3131.87
924.916	3164.21
930.136	3214.21
935.351	3244.54
940.561	3333.88
945.766	3473.54
950.965	3765.54
956.158	4178.21
961.347	4597.54
966.529	4898.21
971.707	5208.88
976.879	5645.21
982.046	5952.54
987.208	6032.21
992.364	5957.88
997.515	6060.21
1002.66	6809.54
1007.801	8855.54
1012.936	12974.21
1018.066	19328.54
1023.19	25026.54
1028.309	24624.21
1033.423	17493.88
1038.532	9881.54
1043.636	6025.21
1048.734	4763.88
1053.827	4491.54
1058.915	4727.21
1063.998	5471.54
1069.075	6059.54
1074.147	5746.88
1079.214	5008.88
1084.276	4543.88
1089.333	4364.21
1094.385	4318.54
1099.431	4328.88
1104.472	4331.88
1109.509	4277.88
1114.54	4241.88
1119.565	4208.21
1124.586	4237.54
1129.602	4286.54
1134.613	4392.54
1139.618	4545.88
1144.619	4692.54
1149.614	4775.21
1154.604	4780.88
1159.589	4807.88
1164.57	4965.88
1169.545	5274.54
1174.515	5761.87
1179.48	6746.87
1184.44	8813.21
1189.395	13343.54
1194.345	22280.54
1199.29	34672.87
1204.23	43340.88
1209.165	41841.54
1214.095	32378.54
1219.021	23187.21
1223.941	17758.54
1228.856	14166.21
1233.766	11125.21
1238.672	9573.88
1243.572	9725.88
1248.467	10343.54
1253.358	10306.21
1258.244	9297.21
1263.124	7947.54
1268	6870.54
1272.871	6158.54
1277.737	5612.54
1282.599	5266.88
1287.455	5123.21
1292.306	5173.88
1297.153	5271.88
1301.995	5442.21
1306.832	5742.88
1311.664	6235.21
1316.491	6820.54
1321.314	7127.87
1326.132	7155.21
1330.945	7821.88
1335.753	10587.54
1340.556	14842.21
1345.354	16676.88
1350.148	14115.87
1354.937	10517.21
1359.722	8250.21
1364.501	6929.21
1369.276	6099.54
1374.046	5607.88
1378.811	5351.21
1383.572	5116.88
1388.327	4913.88
1393.079	4733.88
1397.825	4625.54
1402.567	4576.54
1407.304	4592.21
1412.036	4739.21
1416.764	5109.21
1421.487	5768.21
1426.205	6607.54
1430.919	7136.21
1435.628	6768.54
1440.333	5921.87
1445.032	5330.88
1449.727	5155.54
1454.418	5121.54
1459.104	5098.54
1463.785	5028.21
1468.462	4957.88
1473.134	4927.21
1477.802	4949.54
1482.465	5045.54
1487.123	5451.54
1491.777	6139.21
1496.426	6361.54
1501.071	5882.21
1505.711	5395.88
1510.347	5216.54
1514.978	5168.88
1519.604	5226.88
1524.226	5436.88
1528.844	5917.87
1533.457	6629.54
1538.065	7590.21
1542.669	8602.88
1547.269	9063.87
1551.864	8664.88
1556.454	7734.54
1561.041	6865.88
1565.622	6336.87
1570.199	6233.88
1574.772	6475.87
1579.34	7070.21
1583.904	8154.21
1588.464	10073.54
1593.019	13854.21
1597.569	21432.21
1602.115	34112.54
1606.657	50126.88
1611.195	61669.21
1615.728	60181.54
1620.256	45925.54
1624.78	32340.21
1629.3	29506.88
1633.816	35001.54
1638.327	41421.54
1642.834	42259.21
1647.336	35805.54
1651.834	25522.54
1656.328	16595.88
1660.817	11175.21
1665.302	8447.54
1669.783	7082.21
1674.259	6293.87
1678.732	5763.21
1683.199	5262.54
1687.663	4868.54
1692.122	4457.21
1696.577	4023.54
1701.028	3667.87
1705.474	3387.54
1709.917	3208.54
1714.355	3093.88
1718.788	3017.87
1723.218	2975.21
1727.643	2934.21
1732.064	2876.21
1736.481	2821.54
1740.893	2742.88
1745.301	2673.54
1749.705	2621.54
1754.105	2553.21
1758.501	2514.21
1762.893	2486.54
1767.28	2439.54
1771.663	2420.54
1776.042	2373.87
1780.417	2319.54
1784.787	2274.54
1789.154	2224.87
1793.516	2173.21
1797.874	2143.21
1802.228	2099.21
1806.578	2062.88
1810.924	2023.88
1815.266	2006.87
1819.603	1975.88
1823.937	1959.88
1828.266	1972.21
1832.591	1956.21
1836.913	1950.54
1841.23	1959.21
1845.543	1977.87
1849.852	2010.54
1854.156	2039.21
1858.457	2058.21
1862.754	2091.54
1867.047	2119.54
1871.335	2101.88
1875.62	2088.21
1879.9	2066.54
1884.177	2046.21
1888.449	2028.88
1892.718	2020.88
1896.982	2006.21
1901.243	2005.54
1905.499	1992.54
1909.752	1993.54
1914	1998.88
1918.245	1976.21
1922.485	1969.54
1926.722	1962.21
1930.954	1959.21
1935.183	1939.87
1939.408	1928.88
1943.628	1930.21
1947.845	1907.54
1952.058	1870.21
1956.267	1838.21
1960.472	1806.21
1964.673	1773.54
1968.87	1726.21
1973.063	1686.87
1977.252	1662.87
1981.438	1628.21
1985.619	1594.21
1989.797	1593.87
1993.971	1583.88
1998.14	1568.87
2002.306	1565.54
2006.469	1558.54
2010.627	1543.21
2014.781	1544.54
2018.932	1543.87
2023.078	1526.54
2027.221	1505.88
2031.36	1499.54
2035.495	1483.54
2039.627	1471.54
2043.754	1466.88
2047.878	1457.54
2051.998	1459.54
2056.114	1454.87
2060.226	1452.87
2064.334	1454.21
2068.439	1465.87
2072.54	1476.21
2076.637	1503.54
2080.73	1523.54
2084.82	1524.21
2088.906	1533.88
2092.988	1535.21
2097.066	1516.88
2101.14	1492.21
2105.211	1466.54
2109.278	1451.87
2113.342	1458.87
2117.401	1477.54
2121.457	1501.88
2125.509	1551.54
2129.558	1602.54
2133.602	1624.87
2137.643	1604.54
2141.681	1558.21
2145.714	1506.54
2149.744	1445.21
2153.77	1408.54
2157.793	1379.21
2161.812	1355.54
2165.827	1326.88
2169.838	1304.88
2173.846	1274.88
2177.851	1266.54
2181.851	1252.88
2185.848	1248.54
2189.841	1242.88
2193.831	1246.88
2197.817	1239.54
2201.799	1245.21
2205.778	1243.21
2209.753	1254.88
2213.725	1265.54
2217.693	1275.54
2221.657	1279.21
2225.618	1274.21
2229.575	1288.21
2233.529	1275.54
2237.479	1274.21
2241.425	1256.54
2245.368	1235.54
2249.307	1226.21
2253.243	1201.87
2257.175	1207.21
2261.104	1197.87
2265.029	1188.54
2268.95	1185.88
2272.868	1175.54
2276.783	1157.21
2280.694	1143.21
2284.601	1127.88
2288.505	1129.21
2292.405	1121.21
2296.302	1115.54
2300.195	1107.21
2304.085	1099.88
2307.971	1090.54
2311.854	1074.88
2315.734	1068.54
2319.609	1067.21
2323.482	1054.54
2327.351	1053.54
2331.216	1081.87
2335.078	1093.21
2338.937	1069.54
2342.792	1063.21
2346.643	1065.87
2350.492	1074.88
2354.336	1085.88
2358.178	1089.54
2362.015	1097.54
2365.85	1093.54
2369.681	1111.87
2373.508	1123.54
2377.333	1120.21
2381.153	1129.88
2384.971	1139.54
2388.785	1137.88
2392.595	1148.54
2396.402	1151.88
2400.206	1169.21
2404.007	1179.87
2407.804	1190.21
2411.597	1200.54
2415.388	1201.87
2419.174	1218.87
2422.958	1224.88
2426.738	1225.21
2430.515	1243.21
2434.289	1253.54
2438.059	1249.54
2441.825	1261.54
2445.589	1256.88
2449.349	1257.21
2453.106	1243.21
2456.859	1231.21
2460.61	1202.54
2464.356	1197.21
2468.1	1177.21
2471.84	1163.87
2475.577	1153.54
2479.311	1158.21
2483.041	1162.21
2486.768	1168.21
2490.492	1157.54
2494.213	1161.87
2497.93	1164.88
2501.644	1152.21
2505.355	1141.21
2509.062	1123.54
2512.766	1116.87
2516.467	1118.21
2520.165	1124.54
2523.859	1111.21
2527.551	1108.21
2531.239	1105.88
2534.923	1099.54
2538.605	1091.21
2542.283	1091.88
2545.958	1089.54
2549.63	1084.21
2553.299	1078.54
2556.964	1067.54
2560.626	1059.54
2564.285	1046.54
2567.941	1039.87
2571.594	1013.88
2575.243	1016.21
2578.89	998.88
2582.533	993.54
2586.173	988.88
2589.809	986.21
2593.443	969.54
2597.073	964.21
2600.701	962.21
2604.325	958.54
2607.946	956.21
2611.564	967.54
2615.178	971.21
2618.79	969.87
2622.398	976.21
2626.004	968.21
2629.606	961.54
2633.205	952.88
2636.801	939.21
2640.394	925.88
2643.983	908.88
2647.57	902.87
2651.153	894.87
2654.734	877.21
2658.311	878.88
2661.885	866.54
2665.456	860.87
2669.025	849.54
2672.589	847.88
2676.151	839.21
2679.71	837.87
2683.266	828.21
2686.819	811.21
2690.368	806.21
2693.915	797.21
2697.458	783.88
2700.999	789.88
2704.536	777.21
2708.071	777.54
2711.602	774.54
2715.13	766.54
2718.656	772.21
2722.178	768.21
2725.697	766.54
2729.214	770.88
2732.727	776.21
2736.237	779.88
2739.744	780.88
2743.249	780.88
2746.75	773.87
2750.248	770.54
2753.743	758.54
2757.236	751.87
2760.725	744.54
2764.211	735.54
2767.695	724.21
2771.175	723.54
2774.652	725.21
2778.127	728.54
2781.598	743.54
2785.067	752.54
2788.532	758.54
2791.995	792.21
2795.455	819.21
2798.911	843.21
2802.365	872.21
2805.816	886.54
2809.264	905.88
2812.709	914.54
2816.151	933.54
2819.59	951.88
2823.026	952.87
2826.46	968.87
2829.89	980.21
2833.318	988.88
2836.742	1009.54
2840.164	1035.54
2843.583	1043.88
2846.999	1062.54
2850.412	1068.21
2853.822	1089.88
2857.229	1102.54
2860.634	1117.21
2864.035	1133.21
2867.434	1154.54
2870.83	1166.21
2874.223	1175.87
2877.613	1172.88
2881	1173.21
2884.385	1158.21
2887.766	1152.21
2891.145	1144.21
2894.521	1126.54
2897.894	1104.54
2901.264	1105.87
2904.631	1101.21
2907.996	1092.87
2911.358	1074.54
2914.717	1076.21
2918.073	1080.21
2921.426	1081.54
2924.777	1072.21
2928.124	1059.21
2931.469	1035.88
2934.811	1008.21
2938.15	969.88
2941.487	927.88
2944.821	889.54
2948.152	845.88
2951.48	801.54
2954.805	758.21
2958.128	736.88
2961.447	698.87
2964.765	668.54
2968.079	642.88
2971.39	621.21
2974.699	599.21
2978.005	576.87
2981.308	558.88
2984.609	535.21
2987.907	524.21
2991.202	502.87
2994.494	477.88
2997.784	463.54
3001.07	447.54
3004.355	433.88
3007.636	419.87
3010.915	412.21
3014.191	394.21
3017.464	390.54
3020.734	376.54
3024.002	366.88
3027.267	356.88
3030.53	353.88
3033.789	343.54
3037.046	337.88
3040.301	341.21
3043.552	326.88
3046.801	329.21
3050.048	326.54
3053.291	326.21
3056.532	325.54
3059.771	321.54
3063.006	320.88
3066.239	325.54
3069.469	314.54
3072.697	311.21
3075.922	301.88
3079.144	299.54
3082.364	291.87
3085.581	283.21
3088.795	277.87
3092.007	279.88
3095.216	274.21
3098.423	265.88
3101.627	260.88
3104.828	258.88
3108.026	256.88
3111.222	257.21
3114.416	249.21
3117.607	244.21
3120.795	243.87
3123.98	243.21
3127.163	246.21
3130.344	236.54
3133.521	237.54
3136.696	237.88
3139.869	237.87
3143.039	232.21
3146.206	229.21
3149.371	231.21
3152.533	218.87
3155.693	220.21
3158.85	214.87
3162.005	209.21
3165.157	207.54
3168.306	205.88
3171.453	197.88
3174.597	198.21
3177.739	191.88
3180.878	190.54
3184.014	193.21
3187.149	185.21
3190.28	196.54
3193.409	193.21
3196.536	186.88
3199.659	194.87
3202.781	200.88
3205.9	197.21
3209.016	202.54
3212.13	197.21
3215.241	195.54
3218.35	190.88
3221.456	184.88
3224.56	180.87
3227.661	177.21
3230.76	167.54
3233.856	166.54
3236.95	160.88
3240.041	158.88
3243.13	158.21
3246.216	156.54
3249.3	150.21
3252.382	151.54
3255.46	146.88
3258.537	143.54
3261.611	138.88
3264.682	140.21
3267.751	129.88
3270.818	131.54
3273.882	126.54
3276.943	123.54
3280.002	119.88
3283.059	119.54
3286.113	114.88
3289.165	106.88
3292.214	107.88
3295.261	101.88
3298.306	98.87
3301.348	91.21
3304.387	91.88
3307.425	90.54
3310.459	87.87
3313.492	82.21
3316.521	82.21
3319.549	82.54
3322.574	73.54
3325.597	75.87
3328.617	77.54
3331.635	71.88
3334.65	67.88
3337.663	70.21
3340.674	66.21
3343.682	67.21
3346.688	63.21
3349.691	65.88
3352.692	63.21
3355.691	64.87
3358.687	59.54
3361.681	58.21
3364.673	52.21
3367.662	45.88
3370.649	47.88
3373.633	43.88
3376.615	44.88
3379.595	39.88
3382.572	34.21
3385.547	34.54
3388.52	34.54
3391.49	27.21
3394.458	24.21
3397.424	27.21
3400.387	22.54
3403.348	20.88
3406.307	17.88
3409.263	13.21
3412.217	17.88
3415.168	16.87
3418.118	13.54
3421.065	11.87
3424.009	12.88
3426.951	10.21
3429.891	7.87
3432.829	8.21
3435.764	2.21
3438.697	1.54
3441.628	-3.79
3444.557	0.88
3447.483	-6.12
3450.407	-3.46
3453.328	-6.79
3456.247	-12.12
3459.164	-14.46
3462.079	-15.79
3464.991	-14.79
3467.902	-18.12
3470.809	-20.12
3473.715	-19.13
3476.618	-21.79
3479.519	-25.46
3482.418	-26.46
3485.315	-27.79
3488.209	-26.79
3491.101	-31.13
3493.99	-31.46
3496.878	-34.12
3499.763	-35.79
3502.646	-33.46
3505.527	-35.46
3508.405	-34.46
3511.281	-37.12
3514.155	-37.46
3517.027	-41.79
3519.897	-42.13
3522.764	-40.79
3525.629	-47.46
3528.492	-45.79
3531.352	-46.12
3534.211	-47.46
3537.067	-50.46
3539.921	-51.46
3542.773	-53.12
3545.622	-53.79
3548.469	-55.13
3551.315	-54.79
3554.157	-57.13
3556.998	-58.46
3559.837	-57.13
3562.673	-58.12
3565.507	-56.79
3568.339	-58.12
3571.169	-64.46
3573.996	-61.46
3576.822	-62.12
3579.645	-61.12
3582.466	-65.46
3585.285	-63.79
3588.101	-66.46
3590.916	-68.46
3593.728	-68.46
3596.538	-69.13
3599.346	-70.79
3602.152	-70.13
3604.956	-70.79
3607.757	-73.12
3610.556	-72.46
3613.354	-74.46
3616.149	-74.46
3618.942	-75.79
3621.732	-78.46
3624.521	-75.12
3627.307	-76.12
3630.092	-75.79
3632.874	-74.46
3635.654	-75.79
3638.432	-75.13
3641.208	-75.46
3643.982	-75.79
3646.753	-76.12
3649.523	-76.79
3652.29	-78.79
3655.055	-78.46
3657.818	-75.79
3660.579	-78.46
3663.338	-79.13
3666.095	-78.12
3668.849	-78.79
3671.602	-79.79
3674.352	-78.79
3677.101	-82.13
3679.847	-78.12
3682.591	-81.13
3685.333	-82.13
3688.073	-80.46
3690.811	-80.46
3693.547	-80.12
3696.281	-78.46
3699.013	-79.12
3701.742	-81.46
3704.47	-78.13
3707.195	-82.79
3709.919	-80.12
3712.64	-82.12
3715.359	-80.12
3718.076	-82.79
3720.792	-82.46
3723.505	-83.12
3726.216	-82.46
3728.925	-85.13
3731.632	-86.12
3734.336	-85.79
3737.039	-85.12
3739.74	-82.46
3742.439	-87.79
3745.136	-87.79
3747.83	-86.79
3750.523	-85.79
3753.213	-86.12
3755.902	-83.79
3758.589	-87.46
3761.273	-85.79
3763.956	-86.79
3766.636	-84.46
3769.315	-84.46
3771.991	-86.79
3774.665	-84.46
3777.338	-85.12
3780.008	-83.46
3782.677	-85.46
3785.343	-85.12
3788.007	-84.46
3790.67	-88.79
3793.33	-85.46
3795.989	-84.79
3798.645	-83.79
3801.299	-87.79
3803.952	-87.46
3806.602	-91.12
3809.251	-88.46
3811.897	-87.12
3814.542	-88.79
3817.184	-85.12
3819.825	-90.12
3822.463	-91.12
3825.1	-89.12
3827.735	-90.79
3830.367	-91.79
3832.998	-91.79
3835.627	-85.79
3838.253	-90.46
3840.878	-93.79
3843.501	-92.46
3846.122	-92.79
3848.741	-93.12
3851.358	-93.79
3853.973	-94.46
3856.586	-97.12
3859.197	-96.46
3861.806	-97.13
3864.414	-94.79
3867.019	-96.79
3869.622	-96.12
3872.224	-92.12
3874.823	-90.79
3877.421	-86.46
3880.016	-84.13
3882.61	-77.12
3885.202	-78.46
3887.792	-83.12
3890.38	-91.13
3892.966	-93.79
3895.55	-97.79
3898.132	-99.12
3900.713	-95.46
3903.291	-95.46
3905.868	-97.46
3908.442	-96.12
3911.015	-96.12
3913.586	-99.12
3916.155	-97.12
3918.722	-99.79
3921.287	-97.46
3923.85	-95.46
3926.411	-100.79
3928.971	-99.13
3931.528	-100.13
3934.084	-95.13
3936.638	-98.12
3939.19	-99.46
3941.74	-98.12
3944.288	-100.79
3946.834	-98.12
3949.378	-98.79
3951.921	-100.79
3954.462	-99.79
3957	-101.12
3959.537	-98.12
3962.072	-98.46
3964.606	-98.12
3967.137	-100.46
3969.667	-99.79
3972.194	-100.79
3974.72	-99.46
3977.244	-100.12
3979.766	-96.79
3982.286	-98.12
3984.805	-97.46
3987.321	-96.12
3989.836	-97.46
3992.349	-95.12
3994.86	-95.79
3997.369	-95.13
3999.877	-96.13
4002.382	-97.46
4004.886	-95.12
4007.388	-98.12
4009.888	-93.46
4012.386	-94.12
4014.883	-93.79
4017.377	-91.79
4019.87	-91.46
4022.361	-92.46
4024.85	-95.12
4027.338	-95.12
4029.823	-92.13
4032.307	-94.46
4034.789	-96.12
4037.269	-94.46
4039.747	-93.46
4042.224	-94.46
4044.699	-95.79
4047.172	-96.79
4049.643	-93.46
4052.112	-99.79
4054.58	-95.46
4057.046	-96.46
4059.51	-99.79
4061.972	-98.79
4064.432	-98.46
4066.891	-99.46
4069.348	-96.46
4071.803	-99.46
4074.256	-96.79
4076.708	-96.79
4079.158	-101.12
4081.606	-99.46
4084.052	-97.79
4086.497	-98.46
4088.939	-97.46
4091.38	-98.12
4093.819	-101.79
4096.257	-108.13
4098.693	-108.46
4101.127	-108.79
4103.559	-110.12
4105.989	-49.79
4108.418	-42.79
4110.845	-39.79
4113.27	-35.13
4115.694	-27.12
4118.115	-19.79
4120.535	-98.79
4122.954	-100.46
4125.37	-100.79
4127.785	-99.79
4130.198	-101.13
4132.609	-99.46
4135.019	-108.12
4137.427	-112.12
4139.833	-107.46
4142.237	-110.79
