Data from Just SERS_RamanShift_4.txt Node
Date: Tue Nov 07 10:57:17 IST 2017
User: aro
Spectrometer: QEPB0276
Trigger mode: 0
Integration Time (sec): 1.500000E1
Scans to average: 3
Electric dark correction enabled: true
Nonlinearity correction enabled: false
Boxcar width: 0
XAxis mode: Raman Shifts
Number of Pixels in Spectrum: 1044
>>>>>Begin Spectral Data<<<<<
160.701	-17.96
166.742	48.71
172.777	215.38
178.805	709.04
184.826	1982.04
190.841	4318.71
196.849	7289.04
202.85	9646.04
208.845	10742.04
214.833	11060.04
220.815	11389.04
226.789	11921.04
232.758	12606.04
238.719	13237.37
244.674	13877.71
250.623	14536.38
256.565	15126.71
262.5	15621.37
268.429	15872.04
274.351	15992.38
280.267	15975.71
286.176	15932.04
292.079	15832.38
297.975	15647.71
303.865	15358.71
309.748	14924.04
315.625	14451.04
321.495	14018.38
327.359	13653.04
333.217	13315.04
339.068	13038.04
344.912	12809.38
350.751	12624.04
356.583	12525.04
362.408	12443.04
368.227	12417.71
374.04	12428.71
379.847	12470.38
385.647	12572.38
391.44	12584.71
397.228	12545.37
403.009	12518.38
408.784	12467.37
414.553	12535.38
420.315	12657.04
426.071	12636.04
431.821	12477.04
437.565	12368.71
443.302	12315.38
449.033	12304.37
454.758	12298.04
460.477	12260.71
466.189	12253.04
471.896	12330.04
477.596	12313.37
483.29	12361.38
488.978	12409.38
494.66	12439.71
500.335	12412.38
506.005	12406.71
511.668	12362.71
517.325	12299.04
522.977	12244.04
528.622	12205.04
534.261	12228.38
539.894	12281.71
545.521	12300.71
551.141	12425.04
556.756	12428.71
562.365	12412.38
567.968	12392.37
573.565	12337.71
579.155	12339.04
584.74	12290.04
590.319	12327.04
595.892	12331.04
601.459	12382.38
607.02	12348.04
612.575	12347.04
618.124	12295.04
623.667	12257.71
629.204	12230.71
634.735	12255.04
640.261	12321.38
645.781	12397.04
651.294	12481.71
656.802	12624.04
662.304	12758.38
667.8	12752.04
673.29	12668.71
678.775	12515.04
684.254	12440.04
689.726	12407.38
695.193	12456.04
700.655	12450.04
706.11	12439.38
711.56	12469.38
717.004	12479.38
722.442	12462.38
727.874	12417.37
733.301	12405.38
738.722	12436.37
744.137	12462.37
749.547	12484.71
754.951	12557.04
760.349	12580.04
765.741	12658.71
771.128	12697.37
776.509	12742.04
781.885	12778.38
787.254	12835.04
792.618	12886.71
797.977	12924.71
803.33	12904.37
808.677	12922.38
814.019	12854.37
819.355	12801.38
824.686	12829.04
830.011	12881.37
835.33	12936.04
840.644	13038.38
845.952	13121.71
851.255	13277.38
856.552	13385.71
861.844	13445.71
867.13	13497.37
872.41	13486.71
877.686	13524.71
882.955	13587.71
888.219	13580.37
893.478	13517.37
898.731	13288.04
903.979	13074.04
909.221	12984.04
914.458	12946.71
919.69	13023.38
924.916	13111.04
930.136	13197.38
935.351	13282.04
940.561	13361.04
945.766	13430.71
950.965	13514.37
956.158	13625.04
961.347	13618.71
966.529	13641.04
971.707	13583.38
976.879	13556.38
982.046	13521.71
987.208	13498.04
992.364	13580.38
997.515	13811.04
1002.66	14307.38
1007.801	15134.37
1012.936	16356.37
1018.066	17963.04
1023.19	19042.38
1028.309	18540.71
1033.423	16755.04
1038.532	15111.37
1043.636	14257.71
1048.734	13838.04
1053.827	13602.04
1058.915	13593.38
1063.998	13729.71
1069.075	13921.38
1074.147	13965.04
1079.214	13954.71
1084.276	13978.38
1089.333	13923.04
1094.385	13908.04
1099.431	13939.38
1104.472	13989.04
1109.509	13886.04
1114.54	13799.37
1119.565	13693.71
1124.586	13620.04
1129.602	13637.04
1134.613	13718.37
1139.618	13867.04
1144.619	14029.37
1149.614	14043.71
1154.604	13888.38
1159.589	13828.71
1164.57	13855.04
1169.545	14000.38
1174.515	14178.04
1179.48	14423.38
1184.44	14962.38
1189.395	16183.38
1194.345	18407.04
1199.29	21144.38
1204.23	22826.71
1209.165	21997.38
1214.095	19849.71
1219.021	17977.38
1223.941	16930.04
1228.856	16192.38
1233.766	15553.71
1238.672	15348.38
1243.572	15487.37
1248.467	15561.71
1253.358	15474.38
1258.244	15302.71
1263.124	15137.71
1268	15066.71
1272.871	14744.37
1277.737	14204.71
1282.599	13762.38
1287.455	13531.04
1292.306	13491.04
1297.153	13550.71
1301.995	13672.37
1306.832	13853.37
1311.664	14017.04
1316.491	14164.04
1321.314	14162.71
1326.132	14119.37
1330.945	14278.71
1335.753	14875.71
1340.556	15673.04
1345.354	15748.71
1350.148	15073.37
1354.937	14233.04
1359.722	13618.37
1364.501	13243.04
1369.276	12986.71
1374.046	12807.04
1378.811	12656.38
1383.572	12431.04
1388.327	12196.71
1393.079	11951.04
1397.825	11795.04
1402.567	11697.71
1407.304	11706.71
1412.036	11788.37
1416.764	12000.71
1421.487	12325.04
1426.205	12622.38
1430.919	12742.38
1435.628	12813.04
1440.333	12759.04
1445.032	12829.04
1449.727	12957.38
1454.418	13003.71
1459.104	12930.38
1463.785	12746.04
1468.462	12597.04
1473.134	12494.38
1477.802	12486.38
1482.465	12619.71
1487.123	12948.71
1491.777	13374.04
1496.426	13449.38
1501.071	13215.71
1505.711	12844.71
1510.347	12576.38
1514.978	12381.38
1519.604	12232.04
1524.226	12144.37
1528.844	12106.04
1533.457	12123.38
1538.065	12261.37
1542.669	12363.71
1547.269	12278.71
1551.864	12031.38
1556.454	11758.04
1561.041	11550.38
1565.622	11474.37
1570.199	11507.71
1574.772	11716.71
1579.34	12013.71
1583.904	12430.04
1588.464	13096.71
1593.019	14204.71
1597.569	16325.71
1602.115	19584.71
1606.657	23158.38
1611.195	25076.04
1615.728	23457.04
1620.256	19873.04
1624.78	17398.71
1629.3	17315.38
1633.816	18622.71
1638.327	19684.38
1642.834	19193.38
1647.336	17180.38
1651.834	14710.38
1656.328	12790.38
1660.817	11660.37
1665.302	11094.71
1669.783	10752.71
1674.259	10502.37
1678.732	10294.38
1683.199	10127.38
1687.663	9913.37
1692.122	9708.04
1696.577	9474.04
1701.028	9217.38
1705.474	8974.04
1709.917	8783.04
1714.355	8682.04
1718.788	8672.38
1723.218	8687.04
1727.643	8702.71
1732.064	8658.04
1736.481	8536.71
1740.893	8395.04
1745.301	8228.38
1749.705	8077.71
1754.105	7939.71
1758.501	7792.71
1762.893	7677.71
1767.28	7586.04
1771.663	7569.04
1776.042	7568.71
1780.417	7614.37
1784.787	7631.38
1789.154	7664.71
1793.516	7619.04
1797.874	7530.71
1802.228	7436.38
1806.578	7298.71
1810.924	7159.71
1815.266	7054.38
1819.603	6942.04
1823.937	6887.71
1828.266	6835.04
1832.591	6851.04
1836.913	6854.38
1841.23	6860.71
1845.543	6905.38
1849.852	6948.38
1854.156	7017.04
1858.457	7061.37
1862.754	7101.38
1867.047	7159.71
1871.335	7189.37
1875.62	7226.71
1879.9	7250.37
1884.177	7265.71
1888.449	7254.38
1892.718	7216.71
1896.982	7197.04
1901.243	7190.04
1905.499	7193.37
1909.752	7197.71
1914	7241.71
1918.245	7253.38
1922.485	7310.71
1926.722	7348.04
1930.954	7377.38
1935.183	7378.04
1939.408	7350.71
1943.628	7330.71
1947.845	7195.71
1952.058	7073.04
1956.267	6919.71
1960.472	6765.38
1964.673	6599.71
1968.87	6460.38
1973.063	6295.04
1977.252	6214.71
1981.438	6148.71
1985.619	6091.04
1989.797	6033.04
1993.971	6025.04
1998.14	6012.37
2002.306	5989.38
2006.469	6011.71
2010.627	5994.38
2014.781	5977.04
2018.932	5973.04
2023.078	5937.38
2027.221	5885.38
2031.36	5818.38
2035.495	5785.71
2039.627	5728.04
2043.754	5691.04
2047.878	5652.37
2051.998	5675.38
2056.114	5677.04
2060.226	5717.71
2064.334	5752.38
2068.439	5791.71
2072.54	5843.04
2076.637	5895.71
2080.73	5936.04
2084.82	5975.38
2088.906	5973.04
2092.988	5968.04
2097.066	5907.71
2101.14	5841.04
2105.211	5767.71
2109.278	5692.37
2113.342	5622.71
2117.401	5562.04
2121.457	5523.04
2125.509	5480.71
2129.558	5428.38
2133.602	5371.71
2137.643	5366.71
2141.681	5322.71
2145.714	5284.38
2149.744	5255.04
2153.77	5205.04
2157.793	5163.38
2161.812	5142.38
2165.827	5083.71
2169.838	5014.04
2173.846	4992.04
2177.851	4898.71
2181.851	4886.71
2185.848	4846.04
2189.841	4813.38
2193.831	4784.38
2197.817	4791.04
2201.799	4782.38
2205.778	4787.71
2209.753	4789.38
2213.725	4779.71
2217.693	4784.38
2221.657	4804.38
2225.618	4805.71
2229.575	4803.04
2233.529	4788.04
2237.479	4793.71
2241.425	4734.04
2245.368	4684.71
2249.307	4628.04
2253.243	4564.38
2257.175	4520.71
2261.104	4463.38
2265.029	4436.04
2268.95	4373.04
2272.868	4351.38
2276.783	4312.38
2280.694	4265.04
2284.601	4241.04
2288.505	4193.71
2292.405	4183.04
2296.302	4130.38
2300.195	4110.38
2304.085	4064.04
2307.971	4031.71
2311.854	3978.04
2315.734	3931.71
2319.609	3894.04
2323.482	3850.71
2327.351	3826.04
2331.216	3831.38
2335.078	3824.04
2338.937	3807.04
2342.792	3810.71
2346.643	3799.04
2350.492	3822.71
2354.336	3860.71
2358.178	3865.71
2362.015	3902.71
2365.85	3914.71
2369.681	3941.38
2373.508	3959.71
2377.333	3951.38
2381.153	3980.38
2384.971	3967.04
2388.785	3949.38
2392.595	3956.71
2396.402	3930.71
2400.206	3925.71
2404.007	3927.04
2407.804	3923.04
2411.597	3914.04
2415.388	3931.04
2419.174	3917.38
2422.958	3915.71
2426.738	3902.04
2430.515	3893.71
2434.289	3884.71
2438.059	3871.37
2441.825	3854.71
2445.589	3850.37
2449.349	3803.71
2453.106	3789.71
2456.859	3775.38
2460.61	3719.04
2464.356	3716.38
2468.1	3679.71
2471.84	3647.71
2475.577	3623.71
2479.311	3634.04
2483.041	3640.38
2486.768	3613.71
2490.492	3646.37
2494.213	3630.04
2497.93	3629.71
2501.644	3624.38
2505.355	3615.04
2509.062	3611.04
2512.766	3599.04
2516.467	3596.38
2520.165	3595.38
2523.859	3574.37
2527.551	3551.38
2531.239	3545.04
2534.923	3541.71
2538.605	3521.04
2542.283	3519.04
2545.958	3524.37
2549.63	3521.04
2553.299	3509.04
2556.964	3498.04
2560.626	3472.38
2564.285	3451.38
2567.941	3422.04
2571.594	3414.04
2575.243	3371.71
2578.89	3337.04
2582.533	3308.38
2586.173	3274.71
2589.809	3241.71
2593.443	3214.71
2597.073	3166.04
2600.701	3127.71
2604.325	3099.04
2607.946	3098.38
2611.564	3075.71
2615.178	3038.71
2618.79	3031.04
2622.398	2992.71
2626.004	2951.37
2629.606	2915.71
2633.205	2892.71
2636.801	2865.04
2640.394	2833.71
2643.983	2805.04
2647.57	2761.38
2651.153	2745.71
2654.734	2708.38
2658.311	2686.71
2661.885	2652.71
2665.456	2638.04
2669.025	2626.71
2672.589	2612.04
2676.151	2592.71
2679.71	2572.04
2683.266	2550.38
2686.819	2502.71
2690.368	2476.71
2693.915	2456.38
2697.458	2413.71
2700.999	2383.04
2704.536	2355.04
2708.071	2338.71
2711.602	2328.71
2715.13	2294.71
2718.656	2291.04
2722.178	2287.71
2725.697	2275.71
2729.214	2296.71
2732.727	2282.71
2736.237	2307.37
2739.744	2295.37
2743.249	2299.38
2746.75	2290.38
2750.248	2286.04
2753.743	2250.04
2757.236	2219.71
2760.725	2191.04
2764.211	2162.04
2767.695	2121.04
2771.175	2094.71
2774.652	2073.71
2778.127	2061.71
2781.598	2057.04
2785.067	2051.71
2788.532	2062.04
2791.995	2084.38
2795.455	2100.71
2798.911	2134.71
2802.365	2145.38
2805.816	2153.04
2809.264	2156.37
2812.709	2170.71
2816.151	2183.38
2819.59	2196.04
2823.026	2210.04
2826.46	2217.38
2829.89	2243.38
2833.318	2261.71
2836.742	2288.04
2840.164	2292.04
2843.583	2321.04
2846.999	2340.38
2850.412	2364.71
2853.822	2380.04
2857.229	2400.37
2860.634	2417.38
2864.035	2439.04
2867.434	2449.38
2870.83	2472.38
2874.223	2465.38
2877.613	2446.38
2881	2433.04
2884.385	2410.04
2887.766	2377.38
2891.145	2351.38
2894.521	2323.38
2897.894	2312.04
2901.264	2299.38
2904.631	2278.71
2907.996	2280.38
2911.358	2271.04
2914.717	2286.04
2918.073	2277.04
2921.426	2281.71
2924.777	2250.71
2928.124	2214.38
2931.469	2145.04
2934.811	2088.38
2938.15	2015.71
2941.487	1926.04
2944.821	1837.37
2948.152	1782.37
2951.48	1694.71
2954.805	1640.38
2958.128	1580.04
2961.447	1542.71
2964.765	1485.38
2968.079	1447.04
2971.39	1414.37
2974.699	1377.04
2978.005	1357.04
2981.308	1337.38
2984.609	1319.04
2987.907	1293.37
2991.202	1264.37
2994.494	1245.71
2997.784	1218.04
3001.07	1184.37
3004.355	1159.04
3007.636	1119.04
3010.915	1097.71
3014.191	1058.38
3017.464	1032.04
3020.734	988.71
3024.002	956.04
3027.267	941.38
3030.53	922.71
3033.789	897.71
3037.046	895.71
3040.301	874.71
3043.552	865.71
3046.801	855.71
3050.048	847.04
3053.291	838.37
3056.532	837.38
3059.771	836.38
3063.006	817.04
3066.239	824.04
3069.469	818.37
3072.697	806.71
3075.922	792.04
3079.144	784.38
3082.364	767.71
3085.581	758.04
3088.795	751.04
3092.007	745.38
3095.216	722.71
3098.423	723.71
3101.627	709.71
3104.828	698.71
3108.026	695.71
3111.222	678.71
3114.416	669.04
3117.607	659.04
3120.795	661.37
3123.98	650.37
3127.163	645.38
3130.344	637.38
3133.521	629.71
3136.696	623.38
3139.869	617.37
3143.039	602.71
3146.206	587.71
3149.371	578.38
3152.533	566.04
3155.693	550.38
3158.85	530.04
3162.005	518.04
3165.157	508.71
3168.306	485.04
3171.453	471.04
3174.597	465.71
3177.739	448.04
3180.878	431.71
3184.014	427.38
3187.149	411.04
3190.28	402.71
3193.409	398.38
3196.536	382.38
3199.659	381.37
3202.781	371.71
3205.9	368.38
3209.016	355.04
3212.13	347.71
3215.241	335.38
3218.35	328.71
3221.456	315.71
3224.56	309.71
3227.661	295.04
3230.76	291.04
3233.856	286.38
3236.95	269.71
3240.041	262.04
3243.13	263.04
3246.216	254.04
3249.3	249.71
3252.382	247.71
3255.46	240.04
3258.537	237.71
3261.611	232.04
3264.682	219.38
3267.751	221.04
3270.818	217.04
3273.882	214.71
3276.943	201.71
3280.002	197.71
3283.059	186.37
3286.113	181.04
3289.165	175.71
3292.214	168.71
3295.261	154.71
3298.306	155.04
3301.348	143.04
3304.387	142.71
3307.425	130.37
3310.459	126.04
3313.492	119.71
3316.521	116.38
3319.549	115.71
3322.574	104.04
3325.597	105.37
3328.617	99.38
3331.635	101.71
3334.65	96.04
3337.663	90.71
3340.674	97.71
3343.682	86.04
3346.688	88.38
3349.691	88.38
3352.692	84.37
3355.691	79.04
3358.687	75.38
3361.681	73.71
3364.673	65.04
3367.662	58.04
3370.649	62.38
3373.633	51.38
3376.615	49.38
3379.595	48.71
3382.572	43.04
3385.547	40.04
3388.52	35.38
3391.49	28.37
3394.458	25.04
3397.424	22.71
3400.387	23.04
3403.348	18.38
3406.307	13.71
3409.263	11.38
3412.217	11.38
3415.168	8.04
3418.118	8.04
3421.065	0.71
3424.009	1.38
3426.951	-5.96
3429.891	-6.96
3432.829	-4.62
3435.764	-14.96
3438.697	-16.62
3441.628	-22.62
3444.557	-23.62
3447.483	-26.29
3450.407	-29.96
3453.328	-33.62
3456.247	-36.62
3459.164	-41.96
3462.079	-44.62
3464.991	-50.29
3467.902	-48.62
3470.809	-58.62
3473.715	-58.29
3476.618	-59.96
3479.519	-66.96
3482.418	-62.29
3485.315	-63.29
3488.209	-67.29
3491.101	-68.63
3493.99	-71.29
3496.878	-72.62
3499.763	-77.62
3502.646	-77.96
3505.527	-78.29
3508.405	-82.96
3511.281	-83.29
3514.155	-87.29
3517.027	-89.62
3519.897	-90.29
3522.764	-94.62
3525.629	-98.62
3528.492	-103.96
3531.352	-104.62
3534.211	-110.62
3537.067	-111.96
3539.921	-116.96
3542.773	-115.62
3545.622	-118.29
3548.469	-118.96
3551.315	-125.62
3554.157	-125.63
3556.998	-128.29
3559.837	-128.63
3562.673	-128.62
3565.507	-130.96
3568.339	-133.96
3571.169	-137.29
3573.996	-136.29
3576.822	-136.29
3579.645	-140.29
3582.466	-141.96
3585.285	-144.29
3588.101	-145.29
3590.916	-148.29
3593.728	-152.29
3596.538	-153.29
3599.346	-155.29
3602.152	-150.63
3604.956	-158.29
3607.757	-157.29
3610.556	-162.63
3613.354	-162.96
3616.149	-167.96
3618.942	-162.62
3621.732	-168.29
3624.521	-171.29
3627.307	-167.96
3630.092	-166.29
3632.874	-168.63
3635.654	-166.96
3638.432	-167.63
3641.208	-172.63
3643.982	-169.29
3646.753	-170.29
3649.523	-174.96
3652.29	-172.63
3655.055	-172.63
3657.818	-174.29
3660.579	-176.62
3663.338	-176.63
3666.095	-177.96
3668.849	-179.29
3671.602	-179.62
3674.352	-179.29
3677.101	-179.96
3679.847	-177.96
3682.591	-180.63
3685.333	-181.63
3688.073	-181.96
3690.811	-179.29
3693.547	-177.29
3696.281	-180.63
3699.013	-179.29
3701.742	-181.62
3704.47	-178.96
3707.195	-181.96
3709.919	-182.62
3712.64	-183.29
3715.359	-181.62
3718.076	-179.29
3720.792	-182.29
3723.505	-186.29
3726.216	-182.96
3728.925	-187.63
3731.632	-186.96
3734.336	-182.62
3737.039	-187.96
3739.74	-186.62
3742.439	-187.29
3745.136	-190.62
3747.83	-186.96
3750.523	-186.96
3753.213	-189.96
3755.902	-187.62
3758.589	-190.63
3761.273	-188.96
3763.956	-190.29
3766.636	-187.96
3769.315	-190.62
3771.991	-189.96
3774.665	-189.96
3777.338	-190.29
3780.008	-192.96
3782.677	-191.29
3785.343	-193.29
3788.007	-194.29
3790.67	-197.29
3793.33	-189.29
3795.989	-193.29
3798.645	-194.63
3801.299	-196.96
3803.952	-196.29
3806.602	-199.62
3809.251	-200.29
3811.897	-197.29
3814.542	-197.29
3817.184	-198.62
3819.825	-198.29
3822.463	-199.96
3825.1	-198.96
3827.735	-200.29
3830.367	-203.29
3832.998	-203.29
3835.627	-200.62
3838.253	-201.29
3840.878	-204.29
3843.501	-203.96
3846.122	-205.96
3848.741	-206.62
3851.358	-206.29
3853.973	-206.63
3856.586	-210.62
3859.197	-209.62
3861.806	-207.96
3864.414	-206.63
3867.019	-210.29
3869.622	-212.29
3872.224	-205.29
3874.823	-204.96
3877.421	-201.96
3880.016	-196.96
3882.61	-192.29
3885.202	-195.29
3887.792	-198.62
3890.38	-206.63
3892.966	-211.62
3895.55	-213.62
3898.132	-213.96
3900.713	-215.29
3903.291	-216.62
3905.868	-213.96
3908.442	-216.96
3911.015	-217.29
3913.586	-217.62
3916.155	-218.29
3918.722	-218.62
3921.287	-218.96
3923.85	-215.62
3926.411	-217.96
3928.971	-220.96
3931.528	-220.29
3934.084	-217.96
3936.638	-217.96
3939.19	-218.62
3941.74	-219.62
3944.288	-221.29
3946.834	-220.29
3949.378	-220.96
3951.921	-220.29
3954.462	-219.29
3957	-221.96
3959.537	-218.62
3962.072	-218.96
3964.606	-216.29
3967.137	-220.29
3969.667	-216.62
3972.194	-216.29
3974.72	-215.62
3977.244	-219.62
3979.766	-214.29
3982.286	-214.96
3984.805	-214.96
3987.321	-213.29
3989.836	-212.96
3992.349	-212.62
3994.86	-212.29
3997.369	-211.63
3999.877	-210.29
4002.382	-212.62
4004.886	-210.96
4007.388	-212.29
4009.888	-209.62
4012.386	-210.62
4014.883	-208.62
4017.377	-208.62
4019.87	-208.29
4022.361	-206.96
4024.85	-209.62
4027.338	-210.96
4029.823	-208.29
4032.307	-211.63
4034.789	-208.29
4037.269	-209.29
4039.747	-211.96
4042.224	-210.29
4044.699	-211.96
4047.172	-212.62
4049.643	-210.96
4052.112	-213.96
4054.58	-211.96
4057.046	-211.29
4059.51	-213.96
4061.972	-216.29
4064.432	-211.62
4066.891	-213.96
4069.348	-212.62
4071.803	-212.62
4074.256	-210.63
4076.708	-211.96
4079.158	-211.96
4081.606	-213.62
4084.052	-211.29
4086.497	-210.62
4088.939	-212.62
4091.38	-209.96
4093.819	-213.63
4096.257	-237.29
4098.693	-239.29
4101.127	-237.29
4103.559	-237.96
4105.989	-117.63
4108.418	-107.62
4110.845	-96.29
4113.27	-80.63
4115.694	-66.96
4118.115	-46.29
4120.535	-213.29
4122.954	-211.29
4125.37	-214.29
4127.785	-216.29
4130.198	-214.29
4132.609	-215.63
4135.019	-238.29
4137.427	-239.62
4139.833	-238.29
4142.237	-238.96
