Data from Just SERS_RamanShift_9.txt Node
Date: Tue Nov 07 11:02:32 IST 2017
User: aro
Spectrometer: QEPB0276
Trigger mode: 0
Integration Time (sec): 1.500000E1
Scans to average: 3
Electric dark correction enabled: true
Nonlinearity correction enabled: false
Boxcar width: 0
XAxis mode: Raman Shifts
Number of Pixels in Spectrum: 1044
>>>>>Begin Spectral Data<<<<<
160.701	-9.17
166.742	49.83
172.777	203.5
178.805	677.83
184.826	1882.83
190.841	4155.83
196.849	7029.17
202.85	9318.83
208.845	10435.5
214.833	10854.83
220.815	11273.17
226.789	11933.83
232.758	12751.17
238.719	13651.17
244.674	14590.17
250.623	15517.5
256.565	16386.17
262.5	17079.17
268.429	17487.83
274.351	17567.17
280.267	17480.5
286.176	17331.5
292.079	17075.5
297.975	16669.17
303.865	16106.17
309.748	15233.17
315.625	14385.5
321.495	13570.5
327.359	12922.17
333.217	12289.83
339.068	11755.83
344.912	11307.83
350.751	10961.5
356.583	10757.5
362.408	10633.83
368.227	10585.83
374.04	10621.5
379.847	10673.5
385.647	10740.5
391.44	10734.83
397.228	10646.83
403.009	10463.5
408.784	10308.5
414.553	10343.5
420.315	10356.5
426.071	10259.17
431.821	10080.17
437.565	9909.17
443.302	9812.17
449.033	9752.83
454.758	9693.5
460.477	9697.17
466.189	9679.83
471.896	9749.5
477.596	9723.83
483.29	9744.83
488.978	9792.17
494.66	9826.17
500.335	9817.5
506.005	9751.83
511.668	9684.17
517.325	9568.5
522.977	9498.17
528.622	9499.5
534.261	9467.17
539.894	9515.5
545.521	9567.83
551.141	9618.83
556.756	9645.83
562.365	9608.83
567.968	9581.5
573.565	9525.83
579.155	9490.5
584.74	9444.5
590.319	9436.5
595.892	9431.83
601.459	9460.5
607.02	9472.83
612.575	9427.17
618.124	9390.83
623.667	9359.83
629.204	9338.83
634.735	9362.17
640.261	9411.83
645.781	9521.17
651.294	9672.5
656.802	9934.5
662.304	10184.5
667.8	10218.5
673.29	9966.5
678.775	9628.5
684.254	9469.5
689.726	9420.5
695.193	9433.83
700.655	9435.83
706.11	9472.5
711.56	9502.83
717.004	9547.17
722.442	9560.5
727.874	9522.5
733.301	9485.83
738.722	9494.83
744.137	9514.83
749.547	9532.5
754.951	9569.5
760.349	9617.17
765.741	9678.83
771.128	9736.83
776.509	9777.5
781.885	9855.17
787.254	9894.5
792.618	9980.5
797.977	10067.17
803.33	10102.17
808.677	10142.17
814.019	10083.17
819.355	10040.5
824.686	10063.5
830.011	10111.5
835.33	10218.5
840.644	10307.17
845.952	10410.5
851.255	10559.83
856.552	10719.5
861.844	10778.17
867.13	10791.5
872.41	10780.83
877.686	10840.17
882.955	11001.83
888.219	11092.5
893.478	10973.83
898.731	10658.83
903.979	10361.5
909.221	10184.5
914.458	10136.17
919.69	10175.5
924.916	10287.17
930.136	10343.17
935.351	10456.17
940.561	10500.83
945.766	10625.83
950.965	10832.83
956.158	11041.5
961.347	11210.17
966.529	11272.5
971.707	11373.5
976.879	11436.83
982.046	11504.83
987.208	11513.17
992.364	11585.5
997.515	11950.5
1002.66	12838.5
1007.801	14250.5
1012.936	16552.5
1018.066	19662.83
1023.19	21948.5
1028.309	21003.17
1033.423	17415.83
1038.532	14074.83
1043.636	12336.17
1048.734	11633.17
1053.827	11344.83
1058.915	11387.83
1063.998	11780.5
1069.075	12080.83
1074.147	12079.83
1079.214	11904.83
1084.276	11749.5
1089.333	11626.83
1094.385	11561.83
1099.431	11576.17
1104.472	11609.5
1109.509	11592.83
1114.54	11513.5
1119.565	11488.83
1124.586	11453.17
1129.602	11514.5
1134.613	11570.17
1139.618	11772.17
1144.619	11923.17
1149.614	11892.83
1154.604	11770.5
1159.589	11727.83
1164.57	11890.83
1169.545	12160.17
1174.515	12515.5
1179.48	13043.5
1184.44	14263.17
1189.395	16721.17
1194.345	21311.5
1199.29	26962.17
1204.23	30258.17
1209.165	28781.17
1214.095	24321.5
1219.021	20476.5
1223.941	18176.83
1228.856	16557.17
1233.766	15269.5
1238.672	14750.83
1243.572	14946.83
1248.467	15151.5
1253.358	14980.83
1258.244	14492.83
1263.124	14109.5
1268	13812.83
1272.871	13331.83
1277.737	12665.83
1282.599	12147.5
1287.455	11880.5
1292.306	11864.17
1297.153	11985.83
1301.995	12102.17
1306.832	12338.83
1311.664	12620.17
1316.491	12811.83
1321.314	12894.17
1326.132	12810.17
1330.945	13253.5
1335.753	14700.83
1340.556	16520.17
1345.354	16933.17
1350.148	15512.17
1354.937	13913.5
1359.722	12891.17
1364.501	12217.5
1369.276	11769.5
1374.046	11459.17
1378.811	11202.5
1383.572	10971.83
1388.327	10695.17
1393.079	10438.17
1397.825	10296.17
1402.567	10188.17
1407.304	10152.5
1412.036	10315.17
1416.764	10611.83
1421.487	11117.83
1426.205	11672.17
1430.919	11960.83
1435.628	11846.83
1440.333	11556.83
1445.032	11470.17
1449.727	11545.83
1454.418	11579.5
1459.104	11480.17
1463.785	11330.83
1468.462	11140.17
1473.134	11015.83
1477.802	10963.5
1482.465	11119.17
1487.123	11531.5
1491.777	12020.5
1496.426	12059.17
1501.071	11651.17
1505.711	11246.83
1510.347	10981.17
1514.978	10874.5
1519.604	10851.5
1524.226	10924.17
1528.844	11152.17
1533.457	11502.5
1538.065	12035.83
1542.669	12498.83
1547.269	12505.83
1551.864	12126.83
1556.454	11525.17
1561.041	11114.5
1565.622	10917.5
1570.199	10983.5
1574.772	11332.83
1579.34	11939.17
1583.904	12785.5
1588.464	14203.83
1593.019	16768.17
1597.569	21461.5
1602.115	28792.17
1606.657	37062.17
1611.195	41661.83
1615.728	38629.17
1620.256	30513.5
1624.78	24710.83
1629.3	24503.83
1633.816	27598.83
1638.327	30220.5
1642.834	29428.17
1647.336	25055.5
1651.834	19393.17
1656.328	14872.83
1660.817	12200.17
1665.302	10849.5
1669.783	10067.83
1674.259	9568.83
1678.732	9168.83
1683.199	8814.5
1687.663	8502.17
1692.122	8198.5
1696.577	7878.83
1701.028	7542.5
1705.474	7269.83
1709.917	7054.5
1714.355	6897.17
1718.788	6848.17
1723.218	6827.5
1727.643	6812.17
1732.064	6733.17
1736.481	6621.83
1740.893	6483.83
1745.301	6345.83
1749.705	6210.17
1754.105	6080.17
1758.501	5978.5
1762.893	5870.5
1767.28	5760.17
1771.663	5700.83
1776.042	5639.5
1780.417	5649.83
1784.787	5640.83
1789.154	5615.5
1793.516	5579.83
1797.874	5509.5
1802.228	5424.5
1806.578	5324.5
1810.924	5233.17
1815.266	5153.5
1819.603	5077.5
1823.937	5045.5
1828.266	5027.17
1832.591	5024.17
1836.913	5040.83
1841.23	5058.5
1845.543	5084.83
1849.852	5132.83
1854.156	5166.17
1858.457	5218.83
1862.754	5246.83
1867.047	5253.83
1871.335	5282.17
1875.62	5298.5
1879.9	5296.5
1884.177	5288.17
1888.449	5249.17
1892.718	5215.83
1896.982	5202.83
1901.243	5171.17
1905.499	5169.83
1909.752	5177.5
1914	5179.5
1918.245	5199.5
1922.485	5220.5
1926.722	5239.5
1930.954	5232.17
1935.183	5244.83
1939.408	5260.5
1943.628	5199.5
1947.845	5143.17
1952.058	5074.83
1956.267	4977.83
1960.472	4867.17
1964.673	4760.83
1968.87	4650.83
1973.063	4557.83
1977.252	4490.83
1981.438	4437.83
1985.619	4385.83
1989.797	4367.17
1993.971	4343.83
1998.14	4356.17
2002.306	4340.5
2006.469	4340.5
2010.627	4344.83
2014.781	4335.5
2018.932	4319.5
2023.078	4319.5
2027.221	4271.5
2031.36	4215.5
2035.495	4185.17
2039.627	4140.5
2043.754	4106.83
2047.878	4097.83
2051.998	4106.5
2056.114	4102.5
2060.226	4119.83
2064.334	4138.5
2068.439	4176.5
2072.54	4206.83
2076.637	4241.83
2080.73	4292.17
2084.82	4308.83
2088.906	4315.5
2092.988	4294.17
2097.066	4255.5
2101.14	4210.83
2105.211	4162.83
2109.278	4106.5
2113.342	4097.83
2117.401	4065.83
2121.457	4070.5
2125.509	4067.83
2129.558	4066.5
2133.602	4066.17
2137.643	4026.83
2141.681	3969.5
2145.714	3934.83
2149.744	3861.17
2153.77	3836.83
2157.793	3813.5
2161.812	3766.17
2165.827	3708.5
2169.838	3688.83
2173.846	3630.83
2177.851	3603.17
2181.851	3568.83
2185.848	3541.83
2189.841	3539.83
2193.831	3516.83
2197.817	3514.17
2201.799	3520.17
2205.778	3510.5
2209.753	3516.83
2213.725	3528.83
2217.693	3542.17
2221.657	3538.5
2225.618	3553.17
2229.575	3555.17
2233.529	3545.5
2237.479	3523.17
2241.425	3496.5
2245.368	3453.17
2249.307	3427.5
2253.243	3381.5
2257.175	3355.17
2261.104	3301.83
2265.029	3283.17
2268.95	3262.83
2272.868	3228.83
2276.783	3215.83
2280.694	3189.17
2284.601	3162.5
2288.505	3137.83
2292.405	3108.5
2296.302	3093.17
2300.195	3068.17
2304.085	3054.5
2307.971	3035.17
2311.854	2993.5
2315.734	2973.17
2319.609	2928.83
2323.482	2906.83
2327.351	2893.83
2331.216	2903.17
2335.078	2911.5
2338.937	2897.5
2342.792	2902.17
2346.643	2908.83
2350.492	2922.17
2354.336	2950.17
2358.178	2937.17
2362.015	2974.5
2365.85	3006.83
2369.681	3024.5
2373.508	3032.83
2377.333	3040.83
2381.153	3049.17
2384.971	3055.5
2388.785	3047.5
2392.595	3048.83
2396.402	3046.5
2400.206	3024.5
2404.007	3051.5
2407.804	3048.5
2411.597	3063.5
2415.388	3056.5
2419.174	3054.17
2422.958	3047.5
2426.738	3041.17
2430.515	3053.5
2434.289	3049.83
2438.059	3041.83
2441.825	3020.5
2445.589	3018.83
2449.349	3004.83
2453.106	2970.5
2456.859	2951.83
2460.61	2925.5
2464.356	2906.83
2468.1	2874.83
2471.84	2864.5
2475.577	2857.5
2479.311	2841.83
2483.041	2854.5
2486.768	2855.17
2490.492	2842.5
2494.213	2839.83
2497.93	2841.5
2501.644	2820.83
2505.355	2813.5
2509.062	2811.83
2512.766	2811.5
2516.467	2808.83
2520.165	2799.5
2523.859	2788.83
2527.551	2766.17
2531.239	2742.83
2534.923	2754.5
2538.605	2748.83
2542.283	2731.5
2545.958	2737.83
2549.63	2728.83
2553.299	2730.17
2556.964	2721.17
2560.626	2692.5
2564.285	2677.17
2567.941	2677.17
2571.594	2644.17
2575.243	2620.83
2578.89	2597.5
2582.533	2572.17
2586.173	2551.17
2589.809	2524.83
2593.443	2490.5
2597.073	2461.5
2600.701	2443.5
2604.325	2423.5
2607.946	2416.83
2611.564	2418.5
2615.178	2408.83
2618.79	2393.5
2622.398	2373.83
2626.004	2351.83
2629.606	2332.17
2633.205	2303.17
2636.801	2283.83
2640.394	2249.5
2643.983	2231.5
2647.57	2199.17
2651.153	2179.5
2654.734	2158.83
2658.311	2144.83
2661.885	2138.17
2665.456	2114.5
2669.025	2090.17
2672.589	2095.83
2676.151	2074.17
2679.71	2065.5
2683.266	2043.5
2686.819	2020.5
2690.368	1988.17
2693.915	1982.17
2697.458	1957.17
2700.999	1934.5
2704.536	1920.83
2708.071	1896.17
2711.602	1886.83
2715.13	1876.5
2718.656	1878.5
2722.178	1867.5
2725.697	1867.5
2729.214	1883.83
2732.727	1877.5
2736.237	1880.5
2739.744	1890.5
2743.249	1891.83
2746.75	1881.83
2750.248	1881.83
2753.743	1863.17
2757.236	1839.17
2760.725	1822.5
2764.211	1800.17
2767.695	1778.5
2771.175	1751.5
2774.652	1754.5
2778.127	1751.17
2781.598	1767.5
2785.067	1768.17
2788.532	1792.5
2791.995	1820.5
2795.455	1849.83
2798.911	1886.17
2802.365	1908.17
2805.816	1941.17
2809.264	1964.5
2812.709	1983.83
2816.151	2008.83
2819.59	2040.83
2823.026	2062.17
2826.46	2089.5
2829.89	2116.17
2833.318	2139.17
2836.742	2176.17
2840.164	2216.83
2843.583	2238.5
2846.999	2280.17
2850.412	2323.17
2853.822	2355.17
2857.229	2402.17
2860.634	2439.17
2864.035	2481.17
2867.434	2516.5
2870.83	2517.5
2874.223	2534.83
2877.613	2533.83
2881	2502.17
2884.385	2471.83
2887.766	2437.17
2891.145	2420.5
2894.521	2405.5
2897.894	2370.5
2901.264	2347.5
2904.631	2331.5
2907.996	2324.17
2911.358	2326.17
2914.717	2334.17
2918.073	2319.83
2921.426	2302.83
2924.777	2292.17
2928.124	2237.83
2931.469	2153.83
2934.811	2090.17
2938.15	2005.83
2941.487	1898.83
2944.821	1826.5
2948.152	1732.17
2951.48	1643.83
2954.805	1572.5
2958.128	1500.83
2961.447	1435.5
2964.765	1380.83
2968.079	1325.17
2971.39	1279.5
2974.699	1242.5
2978.005	1198.17
2981.308	1163.5
2984.609	1132.83
2987.907	1105.17
2991.202	1077.17
2994.494	1042.83
2997.784	1022.17
3001.07	991.5
3004.355	957.5
3007.636	937.5
3010.915	911.17
3014.191	872.5
3017.464	856.83
3020.734	832.5
3024.002	813.5
3027.267	790.5
3030.53	773.83
3033.789	752.17
3037.046	742.83
3040.301	732.83
3043.552	719.17
3046.801	712.17
3050.048	713.83
3053.291	707.17
3056.532	698.17
3059.771	691.83
3063.006	689.83
3066.239	686.5
3069.469	676.83
3072.697	664.83
3075.922	662.17
3079.144	638.5
3082.364	632.5
3085.581	626.17
3088.795	610.83
3092.007	599.5
3095.216	581.5
3098.423	577.5
3101.627	567.17
3104.828	553.83
3108.026	551.83
3111.222	540.83
3114.416	541.17
3117.607	527.17
3120.795	515.83
3123.98	516.17
3127.163	512.17
3130.344	503.5
3133.521	497.5
3136.696	495.17
3139.869	489.17
3143.039	472.83
3146.206	474.5
3149.371	463.17
3152.533	442.5
3155.693	436.17
3158.85	418.5
3162.005	406.83
3165.157	402.83
3168.306	385.5
3171.453	371.17
3174.597	366.5
3177.739	360.83
3180.878	344.83
3184.014	332.5
3187.149	335.83
3190.28	322.5
3193.409	315.17
3196.536	312.83
3199.659	310.17
3202.781	303.5
3205.9	301.5
3209.016	297.83
3212.13	286.17
3215.241	286.83
3218.35	271.5
3221.456	259.83
3224.56	252.83
3227.661	249.83
3230.76	239.17
3233.856	227.5
3236.95	219.17
3240.041	209.5
3243.13	208.5
3246.216	201.83
3249.3	194.83
3252.382	188.5
3255.46	181.83
3258.537	175.83
3261.611	175.83
3264.682	165.5
3267.751	168.17
3270.818	164.5
3273.882	155.5
3276.943	148.83
3280.002	143.83
3283.059	139.5
3286.113	136.5
3289.165	123.83
3292.214	112.5
3295.261	106.17
3298.306	102.83
3301.348	97.5
3304.387	88.5
3307.425	86.5
3310.459	86.83
3313.492	78.5
3316.521	73.5
3319.549	72.5
3322.574	72.5
3325.597	62.5
3328.617	63.83
3331.635	61.83
3334.65	55.83
3337.663	56.5
3340.674	56.83
3343.682	53.83
3346.688	48.5
3349.691	49.17
3352.692	48.17
3355.691	43.5
3358.687	45.5
3361.681	40.17
3364.673	30.17
3367.662	29.17
3370.649	25.83
3373.633	20.83
3376.615	21.17
3379.595	16.17
3382.572	13.83
3385.547	8.17
3388.52	7.17
3391.49	1.83
3394.458	-3.17
3397.424	-0.5
3400.387	-9.83
3403.348	-5.17
3406.307	-9.17
3409.263	-16.17
3412.217	-14.5
3415.168	-14.17
3418.118	-18.17
3421.065	-18.83
3424.009	-20.83
3426.951	-23.5
3429.891	-30.83
3432.829	-24.83
3435.764	-33.17
3438.697	-36.83
3441.628	-41.17
3444.557	-39.5
3447.483	-50.5
3450.407	-51.17
3453.328	-53.5
3456.247	-56.17
3459.164	-56.83
3462.079	-61.83
3464.991	-60.17
3467.902	-64.83
3470.809	-71.83
3473.715	-68.17
3476.618	-74.17
3479.519	-78.17
3482.418	-78.83
3485.315	-81.5
3488.209	-86.83
3491.101	-80.83
3493.99	-83.83
3496.878	-89.17
3499.763	-88.5
3502.646	-89.83
3505.527	-90.17
3508.405	-94.17
3511.281	-96.83
3514.155	-94.83
3517.027	-100.17
3519.897	-103.17
3522.764	-106.5
3525.629	-109.17
3528.492	-112.17
3531.352	-110.83
3534.211	-115.83
3537.067	-116.17
3539.921	-119.83
3542.773	-125.5
3545.622	-129.83
3548.469	-129.17
3551.315	-131.17
3554.157	-132.5
3556.998	-133.17
3559.837	-133.17
3562.673	-135.17
3565.507	-134.17
3568.339	-136.17
3571.169	-142.17
3573.996	-143.17
3576.822	-141.5
3579.645	-142.83
3582.466	-146.17
3585.285	-144.17
3588.101	-148.83
3590.916	-146.83
3593.728	-152.5
3596.538	-152.17
3599.346	-155.83
3602.152	-154.83
3604.956	-159.83
3607.757	-157.83
3610.556	-162.17
3613.354	-163.5
3616.149	-164.5
3618.942	-164.5
3621.732	-167.83
3624.521	-165.17
3627.307	-161.83
3630.092	-168.17
3632.874	-167.17
3635.654	-166.83
3638.432	-168.17
3641.208	-168.83
3643.982	-170.5
3646.753	-168.5
3649.523	-169.83
3652.29	-171.83
3655.055	-173.17
3657.818	-174.5
3660.579	-175.5
3663.338	-173.17
3666.095	-174.17
3668.849	-176.83
3671.602	-174.83
3674.352	-178.17
3677.101	-179.17
3679.847	-178.5
3682.591	-177.83
3685.333	-179.5
3688.073	-181.5
3690.811	-178.17
3693.547	-179.83
3696.281	-181.17
3699.013	-179.83
3701.742	-179.83
3704.47	-175.83
3707.195	-181.83
3709.919	-179.17
3712.64	-179.5
3715.359	-180.83
3718.076	-181.17
3720.792	-181.5
3723.505	-183.5
3726.216	-180.83
3728.925	-183.5
3731.632	-182.83
3734.336	-182.83
3737.039	-181.83
3739.74	-185.5
3742.439	-186.17
3745.136	-186.17
3747.83	-186.5
3750.523	-185.5
3753.213	-184.83
3755.902	-182.5
3758.589	-189.5
3761.273	-183.5
3763.956	-186.17
3766.636	-186.83
3769.315	-186.5
3771.991	-187.83
3774.665	-186.5
3777.338	-185.5
3780.008	-188.17
3782.677	-186.83
3785.343	-190.5
3788.007	-188.17
3790.67	-193.5
3793.33	-186.17
3795.989	-192.5
3798.645	-189.17
3801.299	-191.83
3803.952	-191.5
3806.602	-195.5
3809.251	-196.17
3811.897	-195.5
3814.542	-197.17
3817.184	-192.5
3819.825	-194.5
3822.463	-197.5
3825.1	-194.83
3827.735	-196.83
3830.367	-200.17
3832.998	-198.17
3835.627	-196.83
3838.253	-197.83
3840.878	-201.17
3843.501	-200.17
3846.122	-196.83
3848.741	-202.5
3851.358	-201.5
3853.973	-204.83
3856.586	-204.17
3859.197	-204.83
3861.806	-202.83
3864.414	-201.5
3867.019	-203.17
3869.622	-204.17
3872.224	-199.17
3874.823	-199.83
3877.421	-196.83
3880.016	-192.17
3882.61	-186.17
3885.202	-186.83
3887.792	-189.5
3890.38	-199.83
3892.966	-204.83
3895.55	-207.5
3898.132	-209.83
3900.713	-207.5
3903.291	-208.83
3905.868	-209.5
3908.442	-208.5
3911.015	-209.17
3913.586	-211.17
3916.155	-211.83
3918.722	-209.83
3921.287	-210.17
3923.85	-208.83
3926.411	-213.83
3928.971	-215.5
3931.528	-211.5
3934.084	-212.17
3936.638	-212.83
3939.19	-218.17
3941.74	-210.17
3944.288	-212.17
3946.834	-212.17
3949.378	-213.5
3951.921	-216.17
3954.462	-216.5
3957	-215.83
3959.537	-213.83
3962.072	-211.17
3964.606	-213.17
3967.137	-213.5
3969.667	-212.17
3972.194	-212.17
3974.72	-211.5
3977.244	-211.83
3979.766	-208.17
3982.286	-209.5
3984.805	-208.5
3987.321	-209.5
3989.836	-206.83
3992.349	-205.83
3994.86	-206.5
3997.369	-205.83
3999.877	-205.5
4002.382	-204.5
4004.886	-204.5
4007.388	-202.5
4009.888	-201.83
4012.386	-201.83
4014.883	-200.83
4017.377	-199.5
4019.87	-200.5
4022.361	-200.5
4024.85	-203.5
4027.338	-204.17
4029.823	-200.5
4032.307	-203.5
4034.789	-204.17
4037.269	-205.17
4039.747	-204.5
4042.224	-204.83
4044.699	-205.17
4047.172	-208.83
4049.643	-204.83
4052.112	-208.83
4054.58	-207.17
4057.046	-208.17
4059.51	-208.17
4061.972	-210.83
4064.432	-208.5
4066.891	-207.83
4069.348	-206.5
4071.803	-207.17
4074.256	-206.17
4076.708	-209.17
4079.158	-207.83
4081.606	-208.17
4084.052	-207.83
4086.497	-207.17
4088.939	-205.83
4091.38	-207.17
4093.819	-207.5
4096.257	-229.17
4098.693	-229.5
4101.127	-227.83
4103.559	-230.5
4105.989	-114.17
4108.418	-100.5
4110.845	-89.5
4113.27	-77.83
4115.694	-60.83
4118.115	-42.17
4120.535	-212.5
4122.954	-209.17
4125.37	-209.83
4127.785	-208.17
4130.198	-210.17
4132.609	-209.83
4135.019	-229.5
4137.427	-231.5
4139.833	-229.17
4142.237	-231.83
