Data from Just SERSpETOH_RamanShift_2.txt Node
Date: Tue Nov 07 11:05:32 IST 2017
User: aro
Spectrometer: QEPB0276
Trigger mode: 0
Integration Time (sec): 1.500000E1
Scans to average: 3
Electric dark correction enabled: true
Nonlinearity correction enabled: false
Boxcar width: 0
XAxis mode: Raman Shifts
Number of Pixels in Spectrum: 1044
>>>>>Begin Spectral Data<<<<<
160.701	-5.83
166.742	23.5
172.777	95.5
178.805	318.83
184.826	869.5
190.841	1888.5
196.849	3132.17
202.85	4095.17
208.845	4507.83
214.833	4684.17
220.815	4863.83
226.789	5207.5
232.758	5683.5
238.719	6290.17
244.674	7021.83
250.623	7716.17
256.565	8332.83
262.5	8586.83
268.429	8488.5
274.351	8154.17
280.267	7784.17
286.176	7530.83
292.079	7393.17
297.975	7303.83
303.865	7154.83
309.748	6844.17
315.625	6396.83
321.495	5973.17
327.359	5600.17
333.217	5210.5
339.068	4788.5
344.912	4369.83
350.751	4080.5
356.583	3923.5
362.408	3902.5
368.227	3933.83
374.04	4028.83
379.847	4208.5
385.647	4398.83
391.44	4491.17
397.228	4341.17
403.009	4039.5
408.784	3747.5
414.553	3600.5
420.315	3559.17
426.071	3463.17
431.821	3265.17
437.565	3072.5
443.302	2987.83
449.033	2896.5
454.758	2862.83
460.477	2831.5
466.189	2807.5
471.896	2792.5
477.596	2773.83
483.29	2786.5
488.978	2832.5
494.66	2856.5
500.335	2838.5
506.005	2783.83
511.668	2710.83
517.325	2612.83
522.977	2563.83
528.622	2533.83
534.261	2504.5
539.894	2518.17
545.521	2563.17
551.141	2635.83
556.756	2665.17
562.365	2613.17
567.968	2517.83
573.565	2481.5
579.155	2430.5
584.74	2418.83
590.319	2403.83
595.892	2411.17
601.459	2443.5
607.02	2454.83
612.575	2469.17
618.124	2465.17
623.667	2473.83
629.204	2471.17
634.735	2489.83
640.261	2564.17
645.781	2688.5
651.294	2923.5
656.802	3375.5
662.304	3976.83
667.8	4198.83
673.29	3682.83
678.775	2938.83
684.254	2541.5
689.726	2428.5
695.193	2403.17
700.655	2404.17
706.11	2413.5
711.56	2463.5
717.004	2533.17
722.442	2557.83
727.874	2534.5
733.301	2505.5
738.722	2541.5
744.137	2563.83
749.547	2542.83
754.951	2507.5
760.349	2518.5
765.741	2538.83
771.128	2570.17
776.509	2584.5
781.885	2623.5
787.254	2651.5
792.618	2739.5
797.977	2893.83
803.33	3048.17
808.677	3101.83
814.019	3005.5
819.355	2898.17
824.686	2844.83
830.011	2891.83
835.33	2951.5
840.644	2980.5
845.952	3027.83
851.255	3108.83
856.552	3206.17
861.844	3325.83
867.13	3401.5
872.41	3501.17
877.686	3780.5
882.955	4284.83
888.219	4693.83
893.478	4624.17
898.731	4106.83
903.979	3519.83
909.221	3180.17
914.458	3037.5
919.69	3022.83
924.916	3059.5
930.136	3104.17
935.351	3138.5
940.561	3211.83
945.766	3360.5
950.965	3643.5
956.158	4071.5
961.347	4500.17
966.529	4799.17
971.707	5120.17
976.879	5523.5
982.046	5888.83
987.208	5961.83
992.364	5894.17
997.515	5984.5
1002.66	6701.17
1007.801	8719.5
1012.936	12847.5
1018.066	19262.83
1023.19	25130.83
1028.309	24908.17
1033.423	17786.5
1038.532	9968.17
1043.636	5943.83
1048.734	4687.83
1053.827	4390.83
1058.915	4620.83
1063.998	5376.5
1069.075	5945.17
1074.147	5675.17
1079.214	4897.83
1084.276	4420.83
1089.333	4244.5
1094.385	4187.83
1099.431	4236.83
1104.472	4229.83
1109.509	4185.17
1114.54	4126.17
1119.565	4087.5
1124.586	4109.5
1129.602	4181.83
1134.613	4274.17
1139.618	4432.17
1144.619	4593.17
1149.614	4661.83
1154.604	4690.17
1159.589	4721.5
1164.57	4859.83
1169.545	5150.5
1174.515	5634.17
1179.48	6617.5
1184.44	8646.17
1189.395	13199.83
1194.345	22115.5
1199.29	34632.5
1204.23	43691.17
1209.165	42364.83
1214.095	32820.17
1219.021	23420.83
1223.941	17836.83
1228.856	14182.5
1233.766	11071.5
1238.672	9461.17
1243.572	9590.83
1248.467	10241.83
1253.358	10215.83
1258.244	9254.5
1263.124	7883.83
1268	6800.83
1272.871	6033.17
1277.737	5491.5
1282.599	5139.5
1287.455	5020.5
1292.306	5052.83
1297.153	5151.17
1301.995	5320.5
1306.832	5610.83
1311.664	6121.17
1316.491	6696.17
1321.314	7033.83
1326.132	7030.17
1330.945	7688.83
1335.753	10466.83
1340.556	14798.17
1345.354	16712.17
1350.148	14164.83
1354.937	10516.83
1359.722	8186.83
1364.501	6850.17
1369.276	6002.83
1374.046	5514.83
1378.811	5222.5
1383.572	4991.5
1388.327	4807.17
1393.079	4642.5
1397.825	4521.5
1402.567	4462.17
1407.304	4501.5
1412.036	4661.5
1416.764	5027.17
1421.487	5683.83
1426.205	6549.17
1430.919	7081.5
1435.628	6716.83
1440.333	5863.83
1445.032	5249.83
1449.727	5043.5
1454.418	5001.5
1459.104	4980.5
1463.785	4903.17
1468.462	4840.17
1473.134	4828.5
1477.802	4842.5
1482.465	4936.17
1487.123	5333.5
1491.777	6037.17
1496.426	6261.5
1501.071	5784.83
1505.711	5304.5
1510.347	5117.5
1514.978	5065.5
1519.604	5105.83
1524.226	5358.5
1528.844	5818.17
1533.457	6518.83
1538.065	7508.5
1542.669	8499.17
1547.269	8988.5
1551.864	8609.5
1556.454	7678.83
1561.041	6821.5
1565.622	6243.17
1570.199	6098.5
1574.772	6363.5
1579.34	6950.5
1583.904	7997.17
1588.464	9895.17
1593.019	13682.17
1597.569	21108.17
1602.115	33832.83
1606.657	49929.83
1611.195	61891.17
1615.728	60886.5
1620.256	46665.5
1624.78	32668.17
1629.3	29436.5
1633.816	34893.83
1638.327	41460.83
1642.834	42541.17
1647.336	36173.17
1651.834	25860.17
1656.328	16756.17
1660.817	11240.83
1665.302	8445.17
1669.783	7057.83
1674.259	6254.5
1678.732	5694.5
1683.199	5251.83
1687.663	4806.5
1692.122	4386.83
1696.577	3956.5
1701.028	3600.83
1705.474	3342.17
1709.917	3161.83
1714.355	3047.5
1718.788	2972.17
1723.218	2931.5
1727.643	2885.83
1732.064	2862.83
1736.481	2784.17
1740.893	2708.17
1745.301	2642.83
1749.705	2565.17
1754.105	2523.5
1758.501	2489.83
1762.893	2444.17
1767.28	2405.17
1771.663	2377.17
1776.042	2333.5
1780.417	2298.83
1784.787	2240.83
1789.154	2196.5
1793.516	2140.5
1797.874	2102.5
1802.228	2053.5
1806.578	2024.5
1810.924	2008.5
1815.266	1974.83
1819.603	1950.17
1823.937	1927.83
1828.266	1920.17
1832.591	1924.83
1836.913	1929.17
1841.23	1938.5
1845.543	1956.17
1849.852	1982.83
1854.156	2021.83
1858.457	2039.17
1862.754	2054.83
1867.047	2094.17
1871.335	2078.5
1875.62	2062.17
1879.9	2039.17
1884.177	2019.17
1888.449	2008.5
1892.718	1980.17
1896.982	1978.17
1901.243	1990.17
1905.499	1968.83
1909.752	1973.5
1914	1955.83
1918.245	1941.5
1922.485	1939.5
1926.722	1931.17
1930.954	1931.83
1935.183	1915.5
1939.408	1910.5
1943.628	1888.5
1947.845	1865.83
1952.058	1838.5
1956.267	1811.83
1960.472	1775.17
1964.673	1731.5
1968.87	1706.83
1973.063	1650.5
1977.252	1626.17
1981.438	1599.83
1985.619	1579.17
1989.797	1561.83
1993.971	1548.83
1998.14	1543.83
2002.306	1521.5
2006.469	1527.83
2010.627	1509.5
2014.781	1507.17
2018.932	1491.17
2023.078	1490.83
2027.221	1471.17
2031.36	1458.17
2035.495	1443.5
2039.627	1438.83
2043.754	1428.17
2047.878	1431.5
2051.998	1421.17
2056.114	1419.83
2060.226	1420.5
2064.334	1410.17
2068.439	1421.17
2072.54	1434.17
2076.637	1451.17
2080.73	1477.83
2084.82	1477.83
2088.906	1494.83
2092.988	1482.83
2097.066	1456.5
2101.14	1443.83
2105.211	1419.17
2109.278	1418.17
2113.342	1413.5
2117.401	1430.83
2121.457	1454.17
2125.509	1515.17
2129.558	1551.5
2133.602	1575.17
2137.643	1578.17
2141.681	1524.83
2145.714	1463.5
2149.744	1420.5
2153.77	1377.17
2157.793	1339.17
2161.812	1321.17
2165.827	1284.5
2169.838	1262.17
2173.846	1239.83
2177.851	1224.83
2181.851	1214.17
2185.848	1205.17
2189.841	1201.17
2193.831	1200.5
2197.817	1198.83
2201.799	1207.5
2205.778	1201.83
2209.753	1204.5
2213.725	1218.5
2217.693	1239.5
2221.657	1232.5
2225.618	1245.17
2229.575	1238.83
2233.529	1232.83
2237.479	1233.83
2241.425	1215.17
2245.368	1202.83
2249.307	1183.5
2253.243	1173.5
2257.175	1173.83
2261.104	1164.17
2265.029	1150.17
2268.95	1146.17
2272.868	1131.5
2276.783	1130.83
2280.694	1118.5
2284.601	1114.5
2288.505	1098.5
2292.405	1087.5
2296.302	1078.83
2300.195	1076.5
2304.085	1068.17
2307.971	1061.17
2311.854	1046.5
2315.734	1037.17
2319.609	1027.5
2323.482	1026.83
2327.351	1027.17
2331.216	1048.83
2335.078	1054.5
2338.937	1035.17
2342.792	1031.83
2346.643	1032.17
2350.492	1043.83
2354.336	1044.83
2358.178	1052.17
2362.015	1067.17
2365.85	1076.83
2369.681	1080.17
2373.508	1095.17
2377.333	1083.83
2381.153	1100.17
2384.971	1099.5
2388.785	1112.5
2392.595	1122.17
2396.402	1132.17
2400.206	1138.17
2404.007	1142.17
2407.804	1157.83
2411.597	1162.17
2415.388	1172.17
2419.174	1187.17
2422.958	1188.17
2426.738	1205.5
2430.515	1205.83
2434.289	1220.5
2438.059	1222.83
2441.825	1240.83
2445.589	1239.83
2449.349	1217.5
2453.106	1221.17
2456.859	1202.83
2460.61	1183.83
2464.356	1165.17
2468.1	1142.83
2471.84	1138.17
2475.577	1136.83
2479.311	1129.83
2483.041	1132.83
2486.768	1141.17
2490.492	1136.5
2494.213	1129.83
2497.93	1129.5
2501.644	1120.83
2505.355	1105.83
2509.062	1100.83
2512.766	1096.5
2516.467	1093.83
2520.165	1076.17
2523.859	1081.83
2527.551	1076.17
2531.239	1066.5
2534.923	1071.83
2538.605	1067.17
2542.283	1062.5
2545.958	1057.17
2549.63	1052.5
2553.299	1042.17
2556.964	1033.83
2560.626	1026.5
2564.285	1014.83
2567.941	1007.17
2571.594	993.5
2575.243	982.83
2578.89	968.83
2582.533	970.5
2586.173	954.17
2589.809	949.83
2593.443	937.17
2597.073	935.5
2600.701	931.83
2604.325	933.83
2607.946	928.17
2611.564	939.17
2615.178	938.5
2618.79	943.5
2622.398	945.5
2626.004	951.83
2629.606	937.5
2633.205	928.17
2636.801	917.5
2640.394	898.17
2643.983	881.5
2647.57	875.83
2651.153	868.17
2654.734	852.83
2658.311	844.83
2661.885	849.5
2665.456	844.17
2669.025	826.5
2672.589	820.5
2676.151	817.5
2679.71	807.83
2683.266	798.17
2686.819	797.83
2690.368	783.17
2693.915	775.83
2697.458	766.17
2700.999	758.83
2704.536	752.5
2708.071	749.5
2711.602	752.83
2715.13	745.83
2718.656	741.17
2722.178	740.17
2725.697	744.17
2729.214	746.5
2732.727	749.5
2736.237	751.5
2739.744	751.17
2743.249	752.17
2746.75	745.83
2750.248	738.5
2753.743	731.83
2757.236	721.17
2760.725	712.5
2764.211	700.83
2767.695	698.83
2771.175	691.5
2774.652	693.5
2778.127	701.17
2781.598	702.83
2785.067	724.83
2788.532	741.83
2791.995	759.83
2795.455	790.17
2798.911	817.17
2802.365	839.17
2805.816	853.17
2809.264	873.83
2812.709	896.17
2816.151	896.17
2819.59	914.83
2823.026	918.83
2826.46	933.17
2829.89	947.17
2833.318	962.17
2836.742	979.83
2840.164	988.5
2843.583	1003.5
2846.999	1012.5
2850.412	1031.83
2853.822	1050.17
2857.229	1054.5
2860.634	1079.17
2864.035	1094.83
2867.434	1106.17
2870.83	1119.17
2874.223	1122.17
2877.613	1117.83
2881	1114.17
2884.385	1113.83
2887.766	1104.5
2891.145	1088.5
2894.521	1075.17
2897.894	1069.17
2901.264	1056.5
2904.631	1050.5
2907.996	1036.17
2911.358	1036.83
2914.717	1037.5
2918.073	1031.5
2921.426	1039.5
2924.777	1034.5
2928.124	1025.17
2931.469	1003.17
2934.811	988.83
2938.15	943.17
2941.487	901.83
2944.821	859.17
2948.152	824.83
2951.48	780.17
2954.805	734.83
2958.128	701.5
2961.447	673.17
2964.765	644.5
2968.079	615.5
2971.39	596.83
2974.699	574.5
2978.005	552.83
2981.308	539.83
2984.609	522.83
2987.907	499.83
2991.202	476.83
2994.494	460.17
2997.784	444.83
3001.07	433.5
3004.355	415.17
3007.636	406.17
3010.915	396.83
3014.191	381.5
3017.464	376.5
3020.734	363.17
3024.002	358.17
3027.267	343.83
3030.53	340.83
3033.789	333.17
3037.046	323.83
3040.301	323.17
3043.552	321.83
3046.801	317.17
3050.048	317.17
3053.291	317.17
3056.532	312.83
3059.771	314.17
3063.006	316.83
3066.239	305.83
3069.469	305.83
3072.697	305.83
3075.922	289.5
3079.144	290.5
3082.364	285.83
3085.581	277.5
3088.795	276.17
3092.007	267.5
3095.216	264.17
3098.423	261.5
3101.627	255.5
3104.828	255.5
3108.026	248.17
3111.222	248.5
3114.416	238.5
3117.607	242.17
3120.795	240.17
3123.98	237.83
3127.163	243.17
3130.344	235.83
3133.521	237.5
3136.696	233.5
3139.869	228.5
3143.039	225.17
3146.206	226.5
3149.371	222.83
3152.533	220.83
3155.693	222.83
3158.85	212.17
3162.005	211.83
3165.157	203.17
3168.306	198.5
3171.453	196.5
3174.597	196.83
3177.739	188.83
3180.878	188.17
3184.014	193.17
3187.149	189.5
3190.28	191.5
3193.409	184.83
3196.536	188.5
3199.659	194.5
3202.781	193.83
3205.9	198.17
3209.016	197.17
3212.13	196.17
3215.241	194.83
3218.35	190.83
3221.456	187.5
3224.56	178.83
3227.661	177.83
3230.76	170.17
3233.856	168.83
3236.95	161.83
3240.041	160.5
3243.13	156.17
3246.216	153.5
3249.3	155.83
3252.382	151.5
3255.46	150.17
3258.537	143.83
3261.611	142.5
3264.682	133.83
3267.751	132.17
3270.818	138.17
3273.882	133.83
3276.943	127.5
3280.002	127.83
3283.059	124.17
3286.113	121.17
3289.165	113.5
3292.214	113.5
3295.261	110.83
3298.306	107.5
3301.348	99.5
3304.387	98.17
3307.425	94.83
3310.459	92.5
3313.492	88.17
3316.521	86.17
3319.549	86.17
3322.574	83.17
3325.597	77.83
3328.617	76.17
3331.635	75.5
3334.65	70.5
3337.663	71.83
3340.674	71.17
3343.682	70.17
3346.688	70.17
3349.691	68.5
3352.692	66.5
3355.691	64.83
3358.687	57.83
3361.681	58.17
3364.673	55.83
3367.662	52.5
3370.649	50.83
3373.633	43.5
3376.615	42.17
3379.595	41.83
3382.572	38.5
3385.547	37.83
3388.52	30.83
3391.49	30.83
3394.458	26.83
3397.424	29.83
3400.387	23.17
3403.348	22.5
3406.307	22.5
3409.263	16.83
3412.217	18.83
3415.168	17.17
3418.118	14.83
3421.065	12.83
3424.009	12.5
3426.951	10.5
3429.891	8.83
3432.829	10.17
3435.764	5.17
3438.697	4.83
3441.628	-0.83
3444.557	3.5
3447.483	-1.17
3450.407	-5.5
3453.328	-8.83
3456.247	-7.17
3459.164	-11.83
3462.079	-11.5
3464.991	-12.5
3467.902	-16.5
3470.809	-17.5
3473.715	-18.17
3476.618	-21.17
3479.519	-25.17
3482.418	-26.17
3485.315	-25.5
3488.209	-25.83
3491.101	-27.83
3493.99	-29.5
3496.878	-31.83
3499.763	-28.17
3502.646	-32.5
3505.527	-32.17
3508.405	-32.83
3511.281	-35.5
3514.155	-35.5
3517.027	-38.17
3519.897	-39.5
3522.764	-40.83
3525.629	-47.17
3528.492	-44.17
3531.352	-46.5
3534.211	-47.17
3537.067	-50.5
3539.921	-50.83
3542.773	-52.83
3545.622	-53.83
3548.469	-54.5
3551.315	-53.83
3554.157	-56.83
3556.998	-56.5
3559.837	-57.83
3562.673	-54.5
3565.507	-55.83
3568.339	-56.5
3571.169	-61.5
3573.996	-60.83
3576.822	-60.17
3579.645	-61.5
3582.466	-62.17
3585.285	-63.83
3588.101	-64.5
3590.916	-63.17
3593.728	-66.5
3596.538	-68.17
3599.346	-69.17
3602.152	-68.83
3604.956	-71.17
3607.757	-68.17
3610.556	-69.83
3613.354	-73.83
3616.149	-73.5
3618.942	-70.83
3621.732	-75.83
3624.521	-73.5
3627.307	-72.83
3630.092	-75.17
3632.874	-73.83
3635.654	-75.5
3638.432	-75.17
3641.208	-74.5
3643.982	-75.5
3646.753	-72.5
3649.523	-76.5
3652.29	-76.83
3655.055	-75.83
3657.818	-75.5
3660.579	-80.83
3663.338	-78.5
3666.095	-76.17
3668.849	-78.83
3671.602	-80.5
3674.352	-80.5
3677.101	-80.17
3679.847	-78.5
3682.591	-80.5
3685.333	-81.17
3688.073	-79.17
3690.811	-78.83
3693.547	-80.17
3696.281	-82.17
3699.013	-81.83
3701.742	-79.83
3704.47	-79.5
3707.195	-82.17
3709.919	-82.17
3712.64	-80.17
3715.359	-82.17
3718.076	-83.83
3720.792	-81.83
3723.505	-82.5
3726.216	-83.17
3728.925	-81.5
3731.632	-82.83
3734.336	-82.5
3737.039	-82.83
3739.74	-83.5
3742.439	-84.83
3745.136	-86.5
3747.83	-85.5
3750.523	-82.83
3753.213	-80.5
3755.902	-81.83
3758.589	-84.17
3761.273	-83.17
3763.956	-84.5
3766.636	-81.83
3769.315	-82.5
3771.991	-82.83
3774.665	-83.5
3777.338	-82.83
3780.008	-84.5
3782.677	-83.5
3785.343	-83.17
3788.007	-85.17
3790.67	-88.17
3793.33	-81.83
3795.989	-84.83
3798.645	-83.5
3801.299	-89.83
3803.952	-87.5
3806.602	-90.17
3809.251	-89.17
3811.897	-87.17
3814.542	-88.5
3817.184	-87.83
3819.825	-89.17
3822.463	-87.83
3825.1	-89.17
3827.735	-87.5
3830.367	-90.83
3832.998	-88.83
3835.627	-87.5
3838.253	-90.5
3840.878	-91.17
3843.501	-90.17
3846.122	-89.17
3848.741	-93.17
3851.358	-92.5
3853.973	-93.5
3856.586	-92.17
3859.197	-95.17
3861.806	-92.5
3864.414	-91.83
3867.019	-92.83
3869.622	-93.5
3872.224	-86.5
3874.823	-90.17
3877.421	-83.5
3880.016	-80.17
3882.61	-76.83
3885.202	-75.83
3887.792	-80.17
3890.38	-90.17
3892.966	-92.5
3895.55	-93.83
3898.132	-94.17
3900.713	-93.17
3903.291	-95.83
3905.868	-94.5
3908.442	-94.5
3911.015	-97.17
3913.586	-96.83
3916.155	-97.17
3918.722	-96.17
3921.287	-95.83
3923.85	-95.5
3926.411	-97.17
3928.971	-98.5
3931.528	-97.5
3934.084	-96.83
3936.638	-95.5
3939.19	-98.17
3941.74	-96.5
3944.288	-94.5
3946.834	-97.17
3949.378	-97.83
3951.921	-97.5
3954.462	-97.5
3957	-97.5
3959.537	-95.17
3962.072	-94.83
3964.606	-95.5
3967.137	-98.17
3969.667	-95.83
3972.194	-95.5
3974.72	-98.17
3977.244	-99.5
3979.766	-93.83
3982.286	-94.83
3984.805	-92.17
3987.321	-95.83
3989.836	-94.17
3992.349	-93.5
3994.86	-93.83
3997.369	-93.83
3999.877	-94.83
4002.382	-95.83
4004.886	-95.5
4007.388	-94.17
4009.888	-93.83
4012.386	-92.5
4014.883	-95.17
4017.377	-93.5
4019.87	-90.17
4022.361	-92.83
4024.85	-93.17
4027.338	-95.5
4029.823	-90.83
4032.307	-95.17
4034.789	-92.83
4037.269	-95.17
4039.747	-93.83
4042.224	-92.5
4044.699	-92.83
4047.172	-94.17
4049.643	-94.5
4052.112	-94.83
4054.58	-95.83
4057.046	-97.17
4059.51	-98.17
4061.972	-97.17
4064.432	-93.17
4066.891	-95.5
4069.348	-95.17
4071.803	-95.83
4074.256	-92.5
4076.708	-95.17
4079.158	-96.17
4081.606	-97.17
4084.052	-95.5
4086.497	-95.17
4088.939	-96.83
4091.38	-96.83
4093.819	-97.5
4096.257	-105.5
4098.693	-108.83
4101.127	-106.83
4103.559	-109.5
4105.989	-45.83
4108.418	-39.17
4110.845	-38.5
4113.27	-29.83
4115.694	-24.5
4118.115	-16.17
4120.535	-97.5
4122.954	-96.5
4125.37	-100.17
4127.785	-98.17
4130.198	-99.83
4132.609	-96.5
4135.019	-107.5
4137.427	-109.5
4139.833	-107.5
4142.237	-107.5
