Data from Just SERS_RamanShift_7.txt Node
Date: Tue Nov 07 11:01:02 IST 2017
User: aro
Spectrometer: QEPB0276
Trigger mode: 0
Integration Time (sec): 1.500000E1
Scans to average: 3
Electric dark correction enabled: true
Nonlinearity correction enabled: false
Boxcar width: 0
XAxis mode: Raman Shifts
Number of Pixels in Spectrum: 1044
>>>>>Begin Spectral Data<<<<<
160.701	-16.17
166.742	34.5
172.777	177.83
178.805	606.5
184.826	1677.83
190.841	3614.5
196.849	6026.5
202.85	7914.5
208.845	8782.17
214.833	9145.17
220.815	9527.5
226.789	10208.17
232.758	11079.83
238.719	12143.5
244.674	13293.17
250.623	14391.17
256.565	15289.17
262.5	15760.17
268.429	15835.83
274.351	15492.83
280.267	15163.83
286.176	14809.83
292.079	14493.17
297.975	14076.83
303.865	13458.17
309.748	12582.17
315.625	11627.17
321.495	10741.5
327.359	10010.17
333.217	9273.5
339.068	8558.17
344.912	7919.17
350.751	7472.17
356.583	7264.5
362.408	7188.5
368.227	7164.83
374.04	7233.5
379.847	7347.5
385.647	7514.17
391.44	7497.17
397.228	7216.83
403.009	6803.17
408.784	6448.83
414.553	6240.83
420.315	6158.17
426.071	6011.5
431.821	5728.5
437.565	5491.17
443.302	5347.83
449.033	5260.17
454.758	5177.5
460.477	5148.17
466.189	5148.83
471.896	5127.83
477.596	5132.5
483.29	5157.83
488.978	5193.17
494.66	5234.5
500.335	5211.5
506.005	5138.17
511.668	5037.17
517.325	4937.17
522.977	4878.17
528.622	4873.17
534.261	4830.17
539.894	4847.5
545.521	4896.5
551.141	4994.17
556.756	5011.5
562.365	4917.83
567.968	4803.5
573.565	4734.83
579.155	4680.5
584.74	4637.83
590.319	4648.5
595.892	4627.83
601.459	4669.5
607.02	4671.5
612.575	4649.17
618.124	4630.5
623.667	4636.5
629.204	4634.17
634.735	4672.17
640.261	4757.17
645.781	4932.17
651.294	5257.83
656.802	5850.17
662.304	6511.83
667.8	6656.17
673.29	5986.17
678.775	5143.5
684.254	4743.17
689.726	4602.83
695.193	4580.83
700.655	4595.17
706.11	4642.17
711.56	4705.83
717.004	4799.83
722.442	4794.17
727.874	4760.17
733.301	4744.83
738.722	4765.83
744.137	4775.5
749.547	4777.17
754.951	4764.83
760.349	4812.83
765.741	4851.5
771.128	4889.5
776.509	4920.83
781.885	5002.17
787.254	5088.83
792.618	5251.83
797.977	5437.5
803.33	5579.5
808.677	5600.17
814.019	5487.17
819.355	5387.17
824.686	5387.83
830.011	5458.17
835.33	5568.17
840.644	5651.83
845.952	5752.17
851.255	5894.5
856.552	6067.17
861.844	6148.5
867.13	6187.5
872.41	6280.5
877.686	6597.17
882.955	7106.83
888.219	7458.83
893.478	7307.83
898.731	6711.5
903.979	6109.83
909.221	5782.17
914.458	5699.83
919.69	5721.83
924.916	5832.83
930.136	5878.5
935.351	5949.83
940.561	6078.83
945.766	6314.17
950.965	6706.5
956.158	7245.17
961.347	7714.5
966.529	8037.17
971.707	8427.83
976.879	8808.17
982.046	9033.83
987.208	9011.17
992.364	8951.83
997.515	9342.5
1002.66	10703.5
1007.801	13782.83
1012.936	19340.5
1018.066	27010.17
1023.19	32612.17
1028.309	30327.5
1033.423	21493.5
1038.532	13356.17
1043.636	9379.5
1048.734	7997.83
1053.827	7597.83
1058.915	7919.83
1063.998	8821.17
1069.075	9391.83
1074.147	8992.17
1079.214	8234.17
1084.276	7744.17
1089.333	7535.83
1094.385	7424.5
1099.431	7438.17
1104.472	7408.83
1109.509	7392.5
1114.54	7345.83
1119.565	7345.83
1124.586	7381.5
1129.602	7512.83
1134.613	7680.83
1139.618	7889.83
1144.619	8035.5
1149.614	8079.5
1154.604	8082.5
1159.589	8199.83
1164.57	8557.5
1169.545	9123.83
1174.515	9946.83
1179.48	11441.17
1184.44	14468.83
1189.395	20788.83
1194.345	32092.17
1199.29	44377.17
1204.23	47971.83
1209.165	45972.17
1214.095	40116.83
1219.021	29079.17
1223.941	23509.83
1228.856	19378.83
1233.766	15913.17
1238.672	14413.5
1243.572	14731.17
1248.467	15238.5
1253.358	14760.5
1258.244	13391.83
1263.124	11912.17
1268	10741.5
1272.871	9836.5
1277.737	9096.17
1282.599	8598.5
1287.455	8436.17
1292.306	8495.83
1297.153	8646.5
1301.995	8875.17
1306.832	9272.83
1311.664	9869.17
1316.491	10456.83
1321.314	10644.17
1326.132	10716.83
1330.945	12051.17
1335.753	15805.17
1340.556	20505.17
1345.354	21386.83
1350.148	17904.17
1354.937	13927.83
1359.722	11517.83
1364.501	10046.5
1369.276	9082.83
1374.046	8508.83
1378.811	8138.17
1383.572	7810.5
1388.327	7489.5
1393.079	7244.83
1397.825	7073.5
1402.567	7011.5
1407.304	7081.17
1412.036	7358.5
1416.764	7908.5
1421.487	8809.17
1426.205	9866.83
1430.919	10285.83
1435.628	9712.17
1440.333	8787.83
1445.032	8253.83
1449.727	8162.17
1454.418	8171.5
1459.104	8126.17
1463.785	8041.5
1468.462	7972.5
1473.134	7941.5
1477.802	7986.5
1482.465	8254.83
1487.123	9016.17
1491.777	9859.83
1496.426	9835.83
1501.071	9103.17
1505.711	8552.5
1510.347	8404.17
1514.978	8418.17
1519.604	8619.17
1524.226	9068.83
1528.844	9847.17
1533.457	10917.5
1538.065	12300.17
1542.669	13474.5
1547.269	13705.83
1551.864	12878.17
1556.454	11629.17
1561.041	10562.5
1565.622	10018.5
1570.199	10068.5
1574.772	10670.5
1579.34	11784.5
1583.904	13683.5
1588.464	17057.17
1593.019	23503.17
1597.569	35175.5
1602.115	48256.17
1606.657	57637.17
1611.195	60894.5
1615.728	59220.5
1620.256	49995.5
1624.78	43496.83
1629.3	43508.17
1633.816	47189.83
1638.327	50105.5
1642.834	49102.5
1647.336	44034.17
1651.834	33159.5
1656.328	21751.83
1660.817	15645.5
1665.302	12482.83
1669.783	10806.5
1674.259	9769.17
1678.732	9037.5
1683.199	8394.5
1687.663	7826.83
1692.122	7244.17
1696.577	6647.5
1701.028	6156.5
1705.474	5759.17
1709.917	5453.83
1714.355	5267.5
1718.788	5128.5
1723.218	5040.17
1727.643	4951.17
1732.064	4844.17
1736.481	4712.83
1740.893	4563.17
1745.301	4460.83
1749.705	4366.83
1754.105	4254.83
1758.501	4168.5
1762.893	4115.5
1767.28	4042.17
1771.663	3978.17
1776.042	3920.17
1780.417	3842.5
1784.787	3795.83
1789.154	3729.5
1793.516	3671.83
1797.874	3612.83
1802.228	3543.17
1806.578	3478.83
1810.924	3413.83
1815.266	3362.5
1819.603	3302.83
1823.937	3256.83
1828.266	3220.83
1832.591	3209.17
1836.913	3202.5
1841.23	3219.83
1845.543	3263.5
1849.852	3298.83
1854.156	3355.17
1858.457	3401.5
1862.754	3420.5
1867.047	3444.17
1871.335	3458.17
1875.62	3423.83
1879.9	3411.83
1884.177	3387.83
1888.449	3383.5
1892.718	3377.83
1896.982	3386.83
1901.243	3371.17
1905.499	3398.17
1909.752	3399.83
1914	3397.17
1918.245	3409.83
1922.485	3425.5
1926.722	3426.5
1930.954	3453.83
1935.183	3459.83
1939.408	3454.83
1943.628	3434.83
1947.845	3402.17
1952.058	3357.83
1956.267	3304.17
1960.472	3229.83
1964.673	3160.5
1968.87	3072.17
1973.063	3004.83
1977.252	2931.83
1981.438	2881.17
1985.619	2849.5
1989.797	2820.83
1993.971	2790.5
1998.14	2778.5
2002.306	2771.5
2006.469	2776.17
2010.627	2761.17
2014.781	2752.17
2018.932	2749.5
2023.078	2729.5
2027.221	2710.5
2031.36	2693.83
2035.495	2684.5
2039.627	2669.17
2043.754	2663.83
2047.878	2666.17
2051.998	2671.17
2056.114	2666.17
2060.226	2677.5
2064.334	2694.83
2068.439	2725.17
2072.54	2761.17
2076.637	2810.17
2080.73	2856.5
2084.82	2907.5
2088.906	2895.17
2092.988	2902.5
2097.066	2877.83
2101.14	2850.5
2105.211	2828.17
2109.278	2817.83
2113.342	2837.5
2117.401	2872.83
2121.457	2956.83
2125.509	3056.17
2129.558	3097.5
2133.602	3086.83
2137.643	3013.17
2141.681	2903.17
2145.714	2799.83
2149.744	2700.83
2153.77	2626.5
2157.793	2563.17
2161.812	2510.83
2165.827	2465.17
2169.838	2427.5
2173.846	2399.83
2177.851	2353.5
2181.851	2352.83
2185.848	2326.5
2189.841	2325.17
2193.831	2316.17
2197.817	2311.17
2201.799	2304.83
2205.778	2334.83
2209.753	2328.5
2213.725	2339.17
2217.693	2368.83
2221.657	2376.17
2225.618	2380.17
2229.575	2372.83
2233.529	2366.17
2237.479	2356.17
2241.425	2322.17
2245.368	2294.83
2249.307	2285.17
2253.243	2270.17
2257.175	2243.17
2261.104	2230.83
2265.029	2214.83
2268.95	2202.5
2272.868	2175.83
2276.783	2148.5
2280.694	2132.17
2284.601	2117.5
2288.505	2092.17
2292.405	2081.5
2296.302	2065.5
2300.195	2052.5
2304.085	2031.5
2307.971	2012.83
2311.854	1990.83
2315.734	1966.17
2319.609	1958.17
2323.482	1948.5
2327.351	1928.5
2331.216	1931.5
2335.078	1939.17
2338.937	1943.5
2342.792	1923.5
2346.643	1930.17
2350.492	1935.17
2354.336	1944.5
2358.178	1973.5
2362.015	1976.17
2365.85	1995.17
2369.681	1999.5
2373.508	2008.83
2377.333	2023.83
2381.153	2037.83
2384.971	2049.17
2388.785	2038.83
2392.595	2052.17
2396.402	2058.17
2400.206	2086.17
2404.007	2091.5
2407.804	2098.83
2411.597	2121.83
2415.388	2129.17
2419.174	2141.83
2422.958	2165.5
2426.738	2162.5
2430.515	2174.83
2434.289	2191.83
2438.059	2193.5
2441.825	2197.5
2445.589	2191.5
2449.349	2184.5
2453.106	2163.17
2456.859	2150.5
2460.61	2117.5
2464.356	2094.17
2468.1	2073.5
2471.84	2060.5
2475.577	2056.17
2479.311	2049.83
2483.041	2060.83
2486.768	2070.5
2490.492	2076.83
2494.213	2057.17
2497.93	2060.17
2501.644	2037.17
2505.355	2047.83
2509.062	2044.5
2512.766	2028.17
2516.467	2027.83
2520.165	2016.5
2523.859	2025.17
2527.551	2007.83
2531.239	2003.17
2534.923	2004.17
2538.605	1993.17
2542.283	2010.83
2545.958	1998.17
2549.63	1984.5
2553.299	1985.17
2556.964	1975.5
2560.626	1966.5
2564.285	1951.17
2567.941	1935.5
2571.594	1915.17
2575.243	1891.17
2578.89	1886.17
2582.533	1863.5
2586.173	1851.83
2589.809	1819.5
2593.443	1813.83
2597.073	1816.17
2600.701	1785.5
2604.325	1801.17
2607.946	1811.17
2611.564	1793.5
2615.178	1782.17
2618.79	1783.83
2622.398	1780.17
2626.004	1773.83
2629.606	1748.17
2633.205	1722.5
2636.801	1697.5
2640.394	1678.5
2643.983	1649.5
2647.57	1626.17
2651.153	1605.17
2654.734	1590.83
2658.311	1582.17
2661.885	1570.17
2665.456	1548.83
2669.025	1538.5
2672.589	1541.17
2676.151	1522.5
2679.71	1512.83
2683.266	1498.17
2686.819	1475.17
2690.368	1459.83
2693.915	1456.17
2697.458	1433.17
2700.999	1432.83
2704.536	1427.17
2708.071	1412.5
2711.602	1409.83
2715.13	1399.83
2718.656	1404.5
2722.178	1403.17
2725.697	1421.5
2729.214	1428.17
2732.727	1447.17
2736.237	1458.83
2739.744	1471.83
2743.249	1463.83
2746.75	1471.17
2750.248	1470.17
2753.743	1456.83
2757.236	1439.17
2760.725	1428.5
2764.211	1426.83
2767.695	1410.5
2771.175	1410.83
2774.652	1406.83
2778.127	1424.83
2781.598	1416.17
2785.067	1445.83
2788.532	1472.17
2791.995	1510.17
2795.455	1542.83
2798.911	1585.83
2802.365	1630.83
2805.816	1660.17
2809.264	1670.17
2812.709	1693.83
2816.151	1716.83
2819.59	1731.5
2823.026	1750.17
2826.46	1775.17
2829.89	1789.5
2833.318	1801.5
2836.742	1843.17
2840.164	1866.5
2843.583	1903.5
2846.999	1935.83
2850.412	1975.17
2853.822	2005.5
2857.229	2039.83
2860.634	2069.83
2864.035	2114.17
2867.434	2139.5
2870.83	2170.17
2874.223	2178.83
2877.613	2173.5
2881	2157.17
2884.385	2133.17
2887.766	2116.17
2891.145	2089.17
2894.521	2058.5
2897.894	2053.83
2901.264	2042.83
2904.631	2028.17
2907.996	2015.5
2911.358	2006.83
2914.717	1996.83
2918.073	2004.17
2921.426	1989.17
2924.777	1981.17
2928.124	1935.5
2931.469	1876.83
2934.811	1817.5
2938.15	1751.17
2941.487	1658.5
2944.821	1588.83
2948.152	1517.5
2951.48	1442.5
2954.805	1368.17
2958.128	1301.83
2961.447	1239.83
2964.765	1190.17
2968.079	1137.83
2971.39	1095.83
2974.699	1046.83
2978.005	1020.83
2981.308	988.83
2984.609	965.5
2987.907	928.17
2991.202	905.5
2994.494	880.17
2997.784	856.5
3001.07	822.83
3004.355	812.5
3007.636	780.17
3010.915	767.5
3014.191	737.83
3017.464	727.17
3020.734	700.17
3024.002	680.5
3027.267	671.83
3030.53	649.17
3033.789	639.5
3037.046	627.5
3040.301	616.17
3043.552	615.5
3046.801	601.17
3050.048	606.83
3053.291	595.83
3056.532	586.17
3059.771	588.17
3063.006	580.5
3066.239	579.5
3069.469	567.17
3072.697	555.17
3075.922	539.83
3079.144	532.17
3082.364	521.5
3085.581	512.83
3088.795	509.5
3092.007	497.83
3095.216	484.83
3098.423	476.17
3101.627	467.17
3104.828	457.17
3108.026	452.5
3111.222	442.5
3114.416	440.83
3117.607	431.5
3120.795	426.83
3123.98	426.5
3127.163	423.17
3130.344	420.83
3133.521	421.17
3136.696	412.83
3139.869	407.17
3143.039	406.17
3146.206	398.17
3149.371	393.17
3152.533	386.17
3155.693	368.5
3158.85	363.5
3162.005	351.5
3165.157	347.83
3168.306	338.5
3171.453	327.5
3174.597	319.5
3177.739	312.17
3180.878	303.17
3184.014	305.17
3187.149	298.83
3190.28	295.17
3193.409	297.5
3196.536	294.17
3199.659	300.83
3202.781	297.5
3205.9	299.17
3209.016	295.83
3212.13	288.5
3215.241	283.17
3218.35	268.83
3221.456	266.17
3224.56	254.5
3227.661	245.17
3230.76	232.5
3233.856	228.17
3236.95	222.83
3240.041	217.5
3243.13	208.17
3246.216	203.5
3249.3	198.83
3252.382	194.83
3255.46	179.17
3258.537	177.83
3261.611	169.17
3264.682	163.17
3267.751	154.83
3270.818	156.83
3273.882	155.17
3276.943	141.83
3280.002	136.83
3283.059	129.17
3286.113	125.17
3289.165	116.83
3292.214	114.83
3295.261	105.17
3298.306	98.17
3301.348	91.83
3304.387	89.5
3307.425	82.17
3310.459	71.83
3313.492	74.5
3316.521	68.83
3319.549	67.83
3322.574	60.83
3325.597	60.83
3328.617	56.5
3331.635	56.83
3334.65	53.5
3337.663	52.83
3340.674	51.83
3343.682	47.5
3346.688	47.83
3349.691	45.17
3352.692	43.83
3355.691	43.5
3358.687	38.17
3361.681	33.83
3364.673	25.83
3367.662	28.17
3370.649	20.17
3373.633	22.5
3376.615	22.5
3379.595	16.83
3382.572	15.5
3385.547	8.5
3388.52	7.17
3391.49	-0.5
3394.458	0.5
3397.424	-2.17
3400.387	-8.17
3403.348	-5.5
3406.307	-8.5
3409.263	-13.83
3412.217	-12.83
3415.168	-14.17
3418.118	-14.5
3421.065	-15.17
3424.009	-19.83
3426.951	-19.17
3429.891	-22.5
3432.829	-22.17
3435.764	-24.17
3438.697	-28.5
3441.628	-31.17
3444.557	-33.5
3447.483	-34.5
3450.407	-41.17
3453.328	-39.83
3456.247	-43.5
3459.164	-45.5
3462.079	-50.17
3464.991	-54.17
3467.902	-55.17
3470.809	-56.17
3473.715	-56.17
3476.618	-60.83
3479.519	-65.17
3482.418	-65.17
3485.315	-60.83
3488.209	-67.17
3491.101	-68.83
3493.99	-64.17
3496.878	-68.5
3499.763	-69.17
3502.646	-73.83
3505.527	-75.17
3508.405	-72.5
3511.281	-79.17
3514.155	-78.83
3517.027	-79.83
3519.897	-83.17
3522.764	-85.83
3525.629	-89.5
3528.492	-89.5
3531.352	-95.5
3534.211	-96.5
3537.067	-96.83
3539.921	-102.17
3542.773	-102.83
3545.622	-104.83
3548.469	-106.17
3551.315	-106.83
3554.157	-113.83
3556.998	-111.83
3559.837	-112.17
3562.673	-115.83
3565.507	-116.17
3568.339	-117.5
3571.169	-118.83
3573.996	-118.83
3576.822	-122.17
3579.645	-120.17
3582.466	-123.83
3585.285	-126.5
3588.101	-123.17
3590.916	-126.83
3593.728	-132.17
3596.538	-134.17
3599.346	-133.83
3602.152	-133.83
3604.956	-137.17
3607.757	-136.17
3610.556	-140.17
3613.354	-140.5
3616.149	-141.17
3618.942	-141.83
3621.732	-143.5
3624.521	-142.17
3627.307	-143.5
3630.092	-146.17
3632.874	-143.17
3635.654	-143.5
3638.432	-144.83
3641.208	-145.83
3643.982	-146.5
3646.753	-148.5
3649.523	-147.83
3652.29	-146.83
3655.055	-151.83
3657.818	-150.83
3660.579	-154.5
3663.338	-147.83
3666.095	-152.17
3668.849	-151.83
3671.602	-153.17
3674.352	-153.17
3677.101	-156.5
3679.847	-156.17
3682.591	-156.5
3685.333	-157.5
3688.073	-156.5
3690.811	-154.17
3693.547	-153.17
3696.281	-155.5
3699.013	-154.83
3701.742	-154.83
3704.47	-152.17
3707.195	-157.5
3709.919	-157.5
3712.64	-158.5
3715.359	-157.5
3718.076	-156.5
3720.792	-156.83
3723.505	-158.83
3726.216	-158.5
3728.925	-160.83
3731.632	-160.83
3734.336	-160.17
3737.039	-160.17
3739.74	-158.5
3742.439	-163.17
3745.136	-161.5
3747.83	-161.17
3750.523	-163.83
3753.213	-161.5
3755.902	-159.5
3758.589	-162.83
3761.273	-160.83
3763.956	-161.83
3766.636	-161.5
3769.315	-160.83
3771.991	-161.5
3774.665	-161.5
3777.338	-161.17
3780.008	-164.83
3782.677	-162.5
3785.343	-164.17
3788.007	-164.5
3790.67	-168.5
3793.33	-161.5
3795.989	-165.83
3798.645	-164.17
3801.299	-168.83
3803.952	-166.83
3806.602	-169.17
3809.251	-169.17
3811.897	-169.17
3814.542	-169.17
3817.184	-166.83
3819.825	-167.5
3822.463	-170.5
3825.1	-168.83
3827.735	-170.5
3830.367	-172.5
3832.998	-175.83
3835.627	-170.17
3838.253	-169.83
3840.878	-173.83
3843.501	-174.17
3846.122	-171.5
3848.741	-173.83
3851.358	-175.83
3853.973	-177.5
3856.586	-178.83
3859.197	-178.83
3861.806	-177.5
3864.414	-176.17
3867.019	-179.17
3869.622	-177.5
3872.224	-171.83
3874.823	-173.5
3877.421	-169.5
3880.016	-164.17
3882.61	-162.17
3885.202	-159.5
3887.792	-163.17
3890.38	-176.17
3892.966	-176.5
3895.55	-179.5
3898.132	-181.83
3900.713	-179.83
3903.291	-184.17
3905.868	-184.17
3908.442	-180.83
3911.015	-184.5
3913.586	-185.17
3916.155	-184.83
3918.722	-184.5
3921.287	-186.17
3923.85	-180.5
3926.411	-186.5
3928.971	-187.5
3931.528	-185.17
3934.084	-184.17
3936.638	-185.5
3939.19	-188.5
3941.74	-187.17
3944.288	-184.83
3946.834	-187.17
3949.378	-187.5
3951.921	-186.5
3954.462	-187.5
3957	-187.83
3959.537	-185.17
3962.072	-184.5
3964.606	-185.17
3967.137	-185.17
3969.667	-186.17
3972.194	-181.83
3974.72	-182.83
3977.244	-186.83
3979.766	-181.17
3982.286	-181.5
3984.805	-181.5
3987.321	-181.17
3989.836	-181.17
3992.349	-181.83
3994.86	-178.17
3997.369	-180.17
3999.877	-178.83
4002.382	-179.5
4004.886	-177.17
4007.388	-178.5
4009.888	-174.83
4012.386	-176.5
4014.883	-172.5
4017.377	-175.83
4019.87	-176.5
4022.361	-177.5
4024.85	-177.83
4027.338	-176.5
4029.823	-173.17
4032.307	-177.83
4034.789	-175.83
4037.269	-181.17
4039.747	-179.17
4042.224	-180.5
4044.699	-178.5
4047.172	-180.83
4049.643	-179.83
4052.112	-180.83
4054.58	-182.83
4057.046	-182.17
4059.51	-182.17
4061.972	-184.17
4064.432	-182.83
4066.891	-182.5
4069.348	-182.83
4071.803	-183.83
4074.256	-178.83
4076.708	-180.5
4079.158	-183.83
4081.606	-184.17
4084.052	-182.83
4086.497	-182.5
4088.939	-182.17
4091.38	-182.5
4093.819	-184.17
4096.257	-200.17
4098.693	-201.5
4101.127	-198.83
4103.559	-200.5
4105.989	-99.17
4108.418	-93.5
4110.845	-86.17
4113.27	-73.5
4115.694	-60.17
4118.115	-41.5
4120.535	-186.5
4122.954	-182.5
4125.37	-185.5
4127.785	-185.17
4130.198	-184.5
4132.609	-185.17
4135.019	-201.17
4137.427	-202.83
4139.833	-198.5
4142.237	-200.17
