Data from SERS-ec10_RamanShift_5.txt Node
Date: Tue Nov 07 11:22:47 IST 2017
User: aro
Spectrometer: QEPB0276
Trigger mode: 0
Integration Time (sec): 1.500000E1
Scans to average: 3
Electric dark correction enabled: true
Nonlinearity correction enabled: false
Boxcar width: 0
XAxis mode: Raman Shifts
Number of Pixels in Spectrum: 1044
>>>>>Begin Spectral Data<<<<<
160.701	-7.04
166.742	15.29
172.777	86.29
178.805	298.96
184.826	842.62
190.841	1869.29
196.849	3172.29
202.85	4181.29
208.845	4519.29
214.833	4480.62
220.815	4455.96
226.789	4542.29
232.758	4672.62
238.719	4769.62
244.674	4836.96
250.623	4927.29
256.565	4976.62
262.5	5094.62
268.429	5207.29
274.351	5408.96
280.267	5573.29
286.176	5664.62
292.079	5581.29
297.975	5462.62
303.865	5364.96
309.748	5375.96
315.625	5341.29
321.495	5296.96
327.359	5289.96
333.217	5294.96
339.068	5282.62
344.912	5286.29
350.751	5305.96
356.583	5332.96
362.408	5341.96
368.227	5436.29
374.04	5584.62
379.847	5831.96
385.647	6216.62
391.44	6693.96
397.228	7093.96
403.009	7211.96
408.784	6871.96
414.553	6399.29
420.315	6085.29
426.071	5816.63
431.821	5543.29
437.565	5314.29
443.302	5240.62
449.033	5179.62
454.758	5150.96
460.477	5124.62
466.189	5086.62
471.896	5072.29
477.596	5077.62
483.29	5099.62
488.978	5139.96
494.66	5222.96
500.335	5363.62
506.005	5619.29
511.668	5988.62
517.325	6310.96
522.977	6359.96
528.622	6084.62
534.261	5660.29
539.894	5329.29
545.521	5090.29
551.141	4928.96
556.756	4826.62
562.365	4754.96
567.968	4730.96
573.565	4681.62
579.155	4696.96
584.74	4665.96
590.319	4631.29
595.892	4631.96
601.459	4671.96
607.02	4750.29
612.575	4886.62
618.124	5131.62
623.667	5630.62
629.204	6577.96
634.735	7832.96
640.261	8776.29
645.781	8643.96
651.294	7724.96
656.802	6707.62
662.304	5821.96
667.8	5255.29
673.29	4908.62
678.775	4674.96
684.254	4520.29
689.726	4381.29
695.193	4332.29
700.655	4352.62
706.11	4416.96
711.56	4359.62
717.004	4186.29
722.442	4011.96
727.874	3943.96
733.301	3905.62
738.722	3879.62
744.137	3865.62
749.547	3864.96
754.951	3826.29
760.349	3824.96
765.741	3827.62
771.128	3838.29
776.509	3862.29
781.885	3887.96
787.254	3930.62
792.618	4042.29
797.977	4152.29
803.33	4167.62
808.677	4059.29
814.019	3934.62
819.355	3916.62
824.686	3899.62
830.011	3930.62
835.33	3942.29
840.644	3982.96
845.952	4119.29
851.255	4377.29
856.552	4843.29
861.844	5333.29
867.13	5276.62
872.41	4710.62
877.686	4187.29
882.955	3951.63
888.219	3845.96
893.478	3742.62
898.731	3680.29
903.979	3601.96
909.221	3550.96
914.458	3493.62
919.69	3461.29
924.916	3447.96
930.136	3457.96
935.351	3443.96
940.561	3438.29
945.766	3430.62
950.965	3411.62
956.158	3406.96
961.347	3368.96
966.529	3330.62
971.707	3316.96
976.879	3319.29
982.046	3318.96
987.208	3334.62
992.364	3404.62
997.515	3524.96
1002.66	3624.29
1007.801	3635.63
1012.936	3573.96
1018.066	3498.62
1023.19	3482.62
1028.309	3457.29
1033.423	3435.96
1038.532	3413.29
1043.636	3364.62
1048.734	3320.63
1053.827	3262.29
1058.915	3230.96
1063.998	3211.29
1069.075	3224.29
1074.147	3260.96
1079.214	3309.63
1084.276	3425.62
1089.333	3631.29
1094.385	3935.62
1099.431	4155.29
1104.472	4137.62
1109.509	3952.96
1114.54	3796.29
1119.565	3762.62
1124.586	3702.29
1129.602	3563.62
1134.613	3395.29
1139.618	3264.96
1144.619	3170.96
1149.614	3156.96
1154.604	3127.62
1159.589	3118.29
1164.57	3123.96
1169.545	3156.29
1174.515	3246.62
1179.48	3336.29
1184.44	3429.96
1189.395	3443.29
1194.345	3391.62
1199.29	3265.62
1204.23	3151.96
1209.165	3079.29
1214.095	3054.29
1219.021	3043.96
1223.941	3058.62
1228.856	3082.62
1233.766	3109.63
1238.672	3136.29
1243.572	3172.63
1248.467	3189.96
1253.358	3195.96
1258.244	3198.29
1263.124	3226.96
1268	3308.29
1272.871	3462.29
1277.737	3711.29
1282.599	4085.62
1287.455	4379.29
1292.306	4527.96
1297.153	4519.29
1301.995	4296.29
1306.832	3950.96
1311.664	3684.62
1316.491	3527.29
1321.314	3406.96
1326.132	3248.63
1330.945	3125.62
1335.753	3029.62
1340.556	2942.62
1345.354	2886.96
1350.148	2826.63
1354.937	2773.62
1359.722	2740.29
1364.501	2686.96
1369.276	2687.63
1374.046	2665.62
1378.811	2632.29
1383.572	2637.29
1388.327	2586.62
1393.079	2590.62
1397.825	2574.62
1402.567	2583.62
1407.304	2603.29
1412.036	2644.62
1416.764	2728.96
1421.487	2773.62
1426.205	2746.96
1430.919	2684.63
1435.628	2670.63
1440.333	2700.29
1445.032	2738.62
1449.727	2795.63
1454.418	2842.96
1459.104	2864.96
1463.785	2890.62
1468.462	2842.29
1473.134	2749.62
1477.802	2637.62
1482.465	2546.29
1487.123	2500.29
1491.777	2473.29
1496.426	2463.63
1501.071	2455.96
1505.711	2467.96
1510.347	2447.63
1514.978	2419.29
1519.604	2405.29
1524.226	2389.62
1528.844	2362.29
1533.457	2330.62
1538.065	2312.96
1542.669	2284.63
1547.269	2276.96
1551.864	2281.96
1556.454	2280.29
1561.041	2280.96
1565.622	2280.29
1570.199	2266.96
1574.772	2302.96
1579.34	2345.29
1583.904	2386.29
1588.464	2404.62
1593.019	2467.62
1597.569	2581.29
1602.115	2835.96
1606.657	3290.62
1611.195	4123.96
1615.728	5401.96
1620.256	6089.96
1624.78	5154.96
1629.3	3614.96
1633.816	2756.63
1638.327	2424.63
1642.834	2312.96
1647.336	2251.96
1651.834	2209.96
1656.328	2175.29
1660.817	2174.96
1665.302	2172.96
1669.783	2130.62
1674.259	2129.62
1678.732	2118.96
1683.199	2103.96
1687.663	2077.62
1692.122	2063.29
1696.577	2026.96
1701.028	2009.29
1705.474	2014.62
1709.917	2073.96
1714.355	2220.29
1718.788	2552.96
1723.218	3059.62
1727.643	3766.63
1732.064	4254.96
1736.481	4053.29
1740.893	3399.96
1745.301	2858.29
1749.705	2416.29
1754.105	2103.29
1758.501	1915.29
1762.893	1784.96
1767.28	1713.29
1771.663	1676.62
1776.042	1648.29
1780.417	1619.96
1784.787	1603.29
1789.154	1592.29
1793.516	1562.63
1797.874	1542.29
1802.228	1520.63
1806.578	1507.29
1810.924	1467.29
1815.266	1450.29
1819.603	1418.63
1823.937	1414.29
1828.266	1394.96
1832.591	1390.63
1836.913	1389.29
1841.23	1381.29
1845.543	1384.29
1849.852	1387.63
1854.156	1379.63
1858.457	1378.96
1862.754	1394.29
1867.047	1394.63
1871.335	1388.96
1875.62	1403.63
1879.9	1396.96
1884.177	1391.96
1888.449	1384.96
1892.718	1369.96
1896.982	1363.62
1901.243	1359.96
1905.499	1345.96
1909.752	1330.96
1914	1339.62
1918.245	1324.63
1922.485	1336.96
1926.722	1325.63
1930.954	1325.29
1935.183	1318.96
1939.408	1310.29
1943.628	1301.62
1947.845	1280.62
1952.058	1252.96
1956.267	1227.29
1960.472	1191.62
1964.673	1163.29
1968.87	1132.29
1973.063	1114.62
1977.252	1090.62
1981.438	1084.29
1985.619	1062.96
1989.797	1053.29
1993.971	1038.62
1998.14	1048.62
2002.306	1046.29
2006.469	1035.29
2010.627	1022.63
2014.781	1022.63
2018.932	1026.29
2023.078	1004.96
2027.221	994.96
2031.36	979.96
2035.495	964.96
2039.627	957.63
2043.754	946.63
2047.878	925.96
2051.998	931.29
2056.114	929.62
2060.226	928.29
2064.334	923.29
2068.439	919.96
2072.54	936.29
2076.637	929.63
2080.73	937.96
2084.82	938.63
2088.906	931.29
2092.988	924.29
2097.066	911.63
2101.14	894.96
2105.211	883.96
2109.278	866.62
2113.342	853.29
2117.401	839.62
2121.457	829.29
2125.509	813.29
2129.558	803.62
2133.602	800.62
2137.643	793.96
2141.681	788.29
2145.714	781.63
2149.744	779.63
2153.77	761.29
2157.793	761.96
2161.812	748.96
2165.827	745.29
2169.838	730.96
2173.846	718.29
2177.851	713.29
2181.851	700.62
2185.848	691.62
2189.841	687.96
2193.831	673.29
2197.817	678.63
2201.799	677.96
2205.778	668.29
2209.753	662.29
2213.725	664.96
2217.693	664.29
2221.657	663.29
2225.618	665.29
2229.575	660.29
2233.529	658.96
2237.479	658.29
2241.425	640.29
2245.368	636.62
2249.307	621.29
2253.243	611.96
2257.175	609.63
2261.104	595.96
2265.029	590.29
2268.95	583.96
2272.868	570.96
2276.783	567.29
2280.694	556.96
2284.601	554.62
2288.505	553.62
2292.405	542.29
2296.302	540.63
2300.195	527.96
2304.085	515.62
2307.971	512.62
2311.854	503.29
2315.734	495.96
2319.609	490.62
2323.482	483.29
2327.351	487.29
2331.216	507.96
2335.078	510.96
2338.937	484.96
2342.792	473.29
2346.643	467.96
2350.492	468.29
2354.336	466.62
2358.178	462.29
2362.015	474.29
2365.85	469.96
2369.681	471.62
2373.508	471.63
2377.333	472.62
2381.153	471.96
2384.971	473.29
2388.785	466.96
2392.595	471.29
2396.402	459.96
2400.206	456.96
2404.007	449.62
2407.804	459.29
2411.597	453.96
2415.388	455.62
2419.174	448.62
2422.958	446.96
2426.738	443.63
2430.515	436.96
2434.289	435.96
2438.059	431.29
2441.825	428.62
2445.589	416.96
2449.349	423.29
2453.106	414.29
2456.859	414.29
2460.61	410.63
2464.356	404.96
2468.1	400.96
2471.84	395.96
2475.577	390.96
2479.311	386.62
2483.041	391.63
2486.768	383.29
2490.492	387.62
2494.213	381.96
2497.93	385.96
2501.644	392.96
2505.355	385.63
2509.062	380.29
2512.766	382.62
2516.467	380.63
2520.165	377.29
2523.859	373.29
2527.551	369.29
2531.239	371.96
2534.923	361.96
2538.605	359.29
2542.283	356.96
2545.958	355.96
2549.63	354.62
2553.299	356.96
2556.964	353.29
2560.626	352.96
2564.285	351.62
2567.941	339.29
2571.594	340.62
2575.243	338.29
2578.89	334.96
2582.533	325.62
2586.173	325.63
2589.809	319.62
2593.443	316.29
2597.073	317.62
2600.701	308.29
2604.325	305.29
2607.946	303.63
2611.564	306.63
2615.178	299.29
2618.79	301.96
2622.398	291.96
2626.004	291.62
2629.606	282.96
2633.205	272.62
2636.801	274.96
2640.394	265.62
2643.983	258.96
2647.57	254.62
2651.153	246.62
2654.734	240.96
2658.311	234.29
2661.885	235.63
2665.456	228.96
2669.025	219.96
2672.589	224.96
2676.151	217.63
2679.71	216.62
2683.266	215.62
2686.819	212.96
2690.368	205.29
2693.915	203.29
2697.458	192.29
2700.999	188.63
2704.536	188.62
2708.071	183.96
2711.602	183.96
2715.13	179.96
2718.656	176.62
2722.178	172.29
2725.697	174.96
2729.214	169.96
2732.727	173.29
2736.237	169.96
2739.744	166.96
2743.249	169.29
2746.75	165.62
2750.248	163.29
2753.743	158.29
2757.236	153.62
2760.725	146.96
2764.211	149.62
2767.695	138.96
2771.175	140.96
2774.652	139.29
2778.127	137.96
2781.598	135.96
2785.067	135.96
2788.532	136.29
2791.995	140.29
2795.455	136.29
2798.911	133.96
2802.365	138.29
2805.816	134.29
2809.264	137.29
2812.709	138.62
2816.151	137.96
2819.59	141.62
2823.026	137.62
2826.46	131.62
2829.89	130.62
2833.318	126.29
2836.742	123.29
2840.164	121.96
2843.583	121.63
2846.999	118.29
2850.412	117.29
2853.822	122.63
2857.229	124.29
2860.634	121.62
2864.035	119.62
2867.434	126.96
2870.83	127.96
2874.223	124.62
2877.613	124.96
2881	128.96
2884.385	125.96
2887.766	132.29
2891.145	123.96
2894.521	126.29
2897.894	125.96
2901.264	130.29
2904.631	131.29
2907.996	135.62
2911.358	145.29
2914.717	144.96
2918.073	136.63
2921.426	135.96
2924.777	129.29
2928.124	125.63
2931.469	123.63
2934.811	125.63
2938.15	127.29
2941.487	129.62
2944.821	137.62
2948.152	138.96
2951.48	139.96
2954.805	147.29
2958.128	162.96
2961.447	169.62
2964.765	187.62
2968.079	190.96
2971.39	190.29
2974.699	179.63
2978.005	169.62
2981.308	155.29
2984.609	145.63
2987.907	133.62
2991.202	130.29
2994.494	125.29
2997.784	122.62
3001.07	123.96
3004.355	115.62
3007.636	108.96
3010.915	101.62
3014.191	89.29
3017.464	83.96
3020.734	72.62
3024.002	59.96
3027.267	53.63
3030.53	45.29
3033.789	42.96
3037.046	43.62
3040.301	36.96
3043.552	36.62
3046.801	37.29
3050.048	41.29
3053.291	44.29
3056.532	43.29
3059.771	47.96
3063.006	55.62
3066.239	67.29
3069.469	76.96
3072.697	89.29
3075.922	108.96
3079.144	123.96
3082.364	147.96
3085.581	165.96
3088.795	161.62
3092.007	131.29
3095.216	97.62
3098.423	75.96
3101.627	59.96
3104.828	46.96
3108.026	37.29
3111.222	27.63
3114.416	23.96
3117.607	18.62
3120.795	12.96
3123.98	9.62
3127.163	5.29
3130.344	1.96
3133.521	-0.71
3136.696	-4.04
3139.869	-5.38
3143.039	-6.37
3146.206	-11.71
3149.371	-10.37
3152.533	-15.38
3155.693	-14.38
3158.85	-18.04
3162.005	-19.37
3165.157	-21.04
3168.306	-26.71
3171.453	-27.04
3174.597	-26.04
3177.739	-29.71
3180.878	-31.71
3184.014	-31.37
3187.149	-34.04
3190.28	-35.04
3193.409	-34.71
3196.536	-37.71
3199.659	-38.04
3202.781	-37.71
3205.9	-37.71
3209.016	-34.71
3212.13	-41.04
3215.241	-40.37
3218.35	-43.37
3221.456	-44.71
3224.56	-42.38
3227.661	-44.71
3230.76	-46.38
3233.856	-45.04
3236.95	-47.71
3240.041	-50.71
3243.13	-49.04
3246.216	-48.38
3249.3	-49.71
3252.382	-52.04
3255.46	-53.04
3258.537	-49.04
3261.611	-49.71
3264.682	-53.37
3267.751	-55.71
3270.818	-51.71
3273.882	-48.71
3276.943	-53.37
3280.002	-55.37
3283.059	-52.71
3286.113	-57.04
3289.165	-56.37
3292.214	-56.38
3295.261	-55.71
3298.306	-57.71
3301.348	-62.71
3304.387	-59.38
3307.425	-59.38
3310.459	-61.38
3313.492	-61.38
3316.521	-59.38
3319.549	-60.71
3322.574	-62.38
3325.597	-61.71
3328.617	-63.04
3331.635	-62.71
3334.65	-66.04
3337.663	-62.38
3340.674	-61.38
3343.682	-63.04
3346.688	-63.71
3349.691	-64.04
3352.692	-64.38
3355.691	-64.71
3358.687	-64.04
3361.681	-67.71
3364.673	-69.04
3367.662	-69.71
3370.649	-68.04
3373.633	-72.04
3376.615	-66.37
3379.595	-67.71
3382.572	-71.04
3385.547	-74.04
3388.52	-71.38
3391.49	-76.38
3394.458	-74.71
3397.424	-72.37
3400.387	-73.71
3403.348	-71.04
3406.307	-74.71
3409.263	-76.04
3412.217	-73.04
3415.168	-75.38
3418.118	-76.71
3421.065	-77.38
3424.009	-75.71
3426.951	-77.38
3429.891	-79.38
3432.829	-73.38
3435.764	-78.71
3438.697	-79.04
3441.628	-81.71
3444.557	-78.37
3447.483	-81.38
3450.407	-81.04
3453.328	-80.71
3456.247	-81.71
3459.164	-82.71
3462.079	-81.71
3464.991	-84.04
3467.902	-83.71
3470.809	-84.37
3473.715	-80.38
3476.618	-82.04
3479.519	-84.37
3482.418	-85.04
3485.315	-82.71
3488.209	-83.38
3491.101	-85.04
3493.99	-82.37
3496.878	-83.71
3499.763	-83.71
3502.646	-85.37
3505.527	-83.71
3508.405	-82.04
3511.281	-82.71
3514.155	-84.71
3517.027	-84.37
3519.897	-85.04
3522.764	-85.71
3525.629	-88.71
3528.492	-86.71
3531.352	-87.71
3534.211	-86.38
3537.067	-86.38
3539.921	-87.71
3542.773	-88.71
3545.622	-88.37
3548.469	-87.04
3551.315	-85.71
3554.157	-89.38
3556.998	-88.71
3559.837	-86.38
3562.673	-86.04
3565.507	-87.71
3568.339	-88.04
3571.169	-87.71
3573.996	-88.71
3576.822	-88.04
3579.645	-88.04
3582.466	-88.04
3585.285	-86.71
3588.101	-88.71
3590.916	-86.38
3593.728	-90.38
3596.538	-90.38
3599.346	-91.04
3602.152	-87.38
3604.956	-89.04
3607.757	-90.38
3610.556	-90.04
3613.354	-93.38
3616.149	-91.71
3618.942	-90.71
3621.732	-96.04
3624.521	-89.71
3627.307	-89.71
3630.092	-88.71
3632.874	-91.71
3635.654	-91.71
3638.432	-90.71
3641.208	-92.38
3643.982	-90.71
3646.753	-89.37
3649.523	-92.38
3652.29	-91.04
3655.055	-91.04
3657.818	-91.37
3660.579	-93.71
3663.338	-90.71
3666.095	-90.38
3668.849	-93.71
3671.602	-90.71
3674.352	-92.71
3677.101	-93.38
3679.847	-90.37
3682.591	-92.38
3685.333	-93.04
3688.073	-90.71
3690.811	-90.71
3693.547	-90.04
3696.281	-94.04
3699.013	-91.04
3701.742	-92.04
3704.47	-91.04
3707.195	-93.38
3709.919	-93.04
3712.64	-94.38
3715.359	-91.71
3718.076	-93.71
3720.792	-92.38
3723.505	-95.04
3726.216	-93.04
3728.925	-93.38
3731.632	-95.04
3734.336	-92.38
3737.039	-91.37
3739.74	-91.71
3742.439	-95.04
3745.136	-93.71
3747.83	-94.71
3750.523	-93.04
3753.213	-93.71
3755.902	-93.37
3758.589	-95.04
3761.273	-90.71
3763.956	-94.37
3766.636	-92.04
3769.315	-93.04
3771.991	-93.04
3774.665	-94.04
3777.338	-92.71
3780.008	-93.04
3782.677	-92.38
3785.343	-90.37
3788.007	-93.04
3790.67	-95.04
3793.33	-90.38
3795.989	-93.04
3798.645	-88.04
3801.299	-92.04
3803.952	-92.71
3806.602	-95.37
3809.251	-95.04
3811.897	-94.04
3814.542	-93.38
3817.184	-89.04
3819.825	-92.37
3822.463	-94.37
3825.1	-92.71
3827.735	-94.04
3830.367	-92.71
3832.998	-95.71
3835.627	-92.04
3838.253	-93.37
3840.878	-94.71
3843.501	-92.04
3846.122	-91.71
3848.741	-93.71
3851.358	-95.71
3853.973	-95.04
3856.586	-96.04
3859.197	-97.04
3861.806	-95.71
3864.414	-95.38
3867.019	-95.71
3869.622	-96.37
3872.224	-90.37
3874.823	-92.04
3877.421	-88.38
3880.016	-83.71
3882.61	-82.38
3885.202	-77.71
3887.792	-82.71
3890.38	-90.38
3892.966	-94.04
3895.55	-93.71
3898.132	-96.38
3900.713	-93.04
3903.291	-95.37
3905.868	-94.04
3908.442	-92.04
3911.015	-92.71
3913.586	-93.71
3916.155	-94.04
3918.722	-95.04
3921.287	-94.04
3923.85	-92.04
3926.411	-93.38
3928.971	-94.04
3931.528	-92.71
3934.084	-93.38
3936.638	-95.38
3939.19	-95.04
3941.74	-94.04
3944.288	-95.04
3946.834	-95.71
3949.378	-96.04
3951.921	-95.38
3954.462	-94.38
3957	-98.04
3959.537	-94.38
3962.072	-96.38
3964.606	-96.04
3967.137	-97.71
3969.667	-92.71
3972.194	-93.71
3974.72	-94.04
3977.244	-95.38
3979.766	-93.38
3982.286	-93.37
3984.805	-91.71
3987.321	-90.38
3989.836	-89.71
3992.349	-92.71
3994.86	-92.71
3997.369	-90.38
3999.877	-90.38
4002.382	-92.71
4004.886	-91.71
4007.388	-90.04
4009.888	-91.04
4012.386	-88.71
4014.883	-88.38
4017.377	-88.71
4019.87	-87.04
4022.361	-88.04
4024.85	-90.71
4027.338	-89.04
4029.823	-87.71
4032.307	-92.04
4034.789	-89.04
4037.269	-91.04
4039.747	-91.04
4042.224	-90.37
4044.699	-91.38
4047.172	-92.71
4049.643	-90.71
4052.112	-93.71
4054.58	-93.04
4057.046	-94.71
4059.51	-93.04
4061.972	-94.04
4064.432	-90.37
4066.891	-93.37
4069.348	-91.71
4071.803	-91.04
4074.256	-89.71
4076.708	-91.04
4079.158	-91.37
4081.606	-90.71
4084.052	-91.71
4086.497	-90.04
4088.939	-88.71
4091.38	-88.04
4093.819	-89.38
4096.257	-97.71
4098.693	-100.04
4101.127	-98.04
4103.559	-98.04
4105.989	-45.38
4108.418	-39.71
4110.845	-37.37
4113.27	-32.38
4115.694	-24.71
4118.115	-15.71
4120.535	-91.38
4122.954	-88.38
4125.37	-91.38
4127.785	-91.71
4130.198	-92.71
4132.609	-89.38
4135.019	-96.71
4137.427	-100.04
4139.833	-98.04
4142.237	-98.71
