Data from SERS-ec10_RamanShift_3.txt Node
Date: Tue Nov 07 11:19:47 IST 2017
User: aro
Spectrometer: QEPB0276
Trigger mode: 0
Integration Time (sec): 1.500000E1
Scans to average: 3
Electric dark correction enabled: true
Nonlinearity correction enabled: false
Boxcar width: 0
XAxis mode: Raman Shifts
Number of Pixels in Spectrum: 1044
>>>>>Begin Spectral Data<<<<<
160.701	-18.46
166.742	19.88
172.777	122.21
178.805	435.21
184.826	1215.54
190.841	2648.54
196.849	4417.21
202.85	5721.54
208.845	6133.54
214.833	6014.21
220.815	5984.88
226.789	6098.54
232.758	6354.21
238.719	6623.88
244.674	6895.54
250.623	7175.21
256.565	7428.21
262.5	7561.88
268.429	7671.21
274.351	7803.54
280.267	7921.54
286.176	7954.88
292.079	7835.88
297.975	7643.21
303.865	7474.21
309.748	7294.54
315.625	7020.54
321.495	6746.21
327.359	6538.88
333.217	6378.21
339.068	6215.54
344.912	6063.54
350.751	5970.54
356.583	5930.88
362.408	5935.21
368.227	6015.88
374.04	6146.88
379.847	6393.21
385.647	6787.21
391.44	7218.88
397.228	7551.54
403.009	7582.54
408.784	7264.54
414.553	6796.21
420.315	6460.21
426.071	6212.21
431.821	5947.21
437.565	5738.54
443.302	5626.88
449.033	5543.54
454.758	5475.21
460.477	5424.88
466.189	5388.88
471.896	5391.54
477.596	5390.54
483.29	5430.21
488.978	5487.54
494.66	5612.21
500.335	5781.54
506.005	6010.88
511.668	6293.88
517.325	6544.54
522.977	6523.54
528.622	6245.21
534.261	5867.54
539.894	5605.88
545.521	5455.54
551.141	5343.21
556.756	5261.21
562.365	5171.54
567.968	5074.88
573.565	5022.54
579.155	4983.54
584.74	4951.88
590.319	4950.88
595.892	5005.54
601.459	5083.54
607.02	5160.21
612.575	5258.54
618.124	5478.88
623.667	5936.21
629.204	6797.88
634.735	8022.21
640.261	8867.88
645.781	8753.54
651.294	7990.21
656.802	7162.21
662.304	6446.88
667.8	5922.88
673.29	5448.54
678.775	5069.54
684.254	4833.21
689.726	4717.21
695.193	4643.21
700.655	4652.88
706.11	4723.21
711.56	4692.54
717.004	4538.88
722.442	4374.54
727.874	4302.88
733.301	4258.54
738.722	4232.88
744.137	4225.88
749.547	4221.54
754.951	4212.21
760.349	4207.21
765.741	4204.21
771.128	4232.88
776.509	4268.21
781.885	4337.54
787.254	4440.88
792.618	4574.21
797.977	4751.54
803.33	4793.21
808.677	4655.21
814.019	4548.88
819.355	4515.88
824.686	4526.21
830.011	4561.88
835.33	4607.21
840.644	4659.54
845.952	4824.21
851.255	5148.54
856.552	5650.54
861.844	6137.88
867.13	6086.54
872.41	5578.54
877.686	5218.88
882.955	5193.21
888.219	5219.21
893.478	5140.21
898.731	4897.88
903.979	4644.54
909.221	4402.54
914.458	4265.54
919.69	4185.54
924.916	4168.21
930.136	4153.88
935.351	4175.88
940.561	4199.54
945.766	4259.88
950.965	4366.88
956.158	4527.54
961.347	4668.21
966.529	4769.54
971.707	4842.54
976.879	4860.21
982.046	4811.21
987.208	4836.21
992.364	4939.21
997.515	5212.88
1002.66	5620.21
1007.801	6197.21
1012.936	7038.88
1018.066	8042.88
1023.19	8566.88
1028.309	7918.88
1033.423	6435.54
1038.532	5208.54
1043.636	4616.21
1048.734	4410.54
1053.827	4345.21
1058.915	4399.21
1063.998	4603.21
1069.075	4790.54
1074.147	4825.21
1079.214	4814.21
1084.276	4798.21
1089.333	4869.21
1094.385	5076.88
1099.431	5241.21
1104.472	5185.54
1109.509	4966.54
1114.54	4843.21
1119.565	4806.54
1124.586	4783.88
1129.602	4751.21
1134.613	4802.54
1139.618	5026.54
1144.619	5315.54
1149.614	5389.54
1154.604	5026.21
1159.589	4601.54
1164.57	4369.54
1169.545	4365.21
1174.515	4553.21
1179.48	4905.21
1184.44	5501.21
1189.395	6631.88
1194.345	8591.88
1199.29	10961.54
1204.23	12356.54
1209.165	11581.88
1214.095	9526.88
1219.021	7735.88
1223.941	6666.54
1228.856	5987.21
1233.766	5448.54
1238.672	5281.54
1243.572	5424.21
1248.467	5640.21
1253.358	5837.88
1258.244	6034.88
1263.124	6584.88
1268	7277.21
1272.871	7467.21
1277.737	6965.21
1282.599	6382.88
1287.455	6123.21
1292.306	5986.54
1297.153	5841.21
1301.995	5569.88
1306.832	5269.88
1311.664	5097.88
1316.491	5058.54
1321.314	4962.54
1326.132	4855.21
1330.945	5027.88
1335.753	5735.21
1340.556	6614.88
1345.354	6825.21
1350.148	6241.54
1354.937	5468.54
1359.722	4872.54
1364.501	4455.21
1369.276	4212.54
1374.046	4164.88
1378.811	4138.88
1383.572	4039.54
1388.327	3856.88
1393.079	3702.88
1397.825	3583.21
1402.567	3575.21
1407.304	3628.88
1412.036	3780.54
1416.764	4047.21
1421.487	4390.21
1426.205	4621.21
1430.919	4631.21
1435.628	4515.54
1440.333	4432.54
1445.032	4513.21
1449.727	4725.21
1454.418	4867.88
1459.104	4850.54
1463.785	4680.54
1468.462	4497.54
1473.134	4358.88
1477.802	4370.21
1482.465	4625.88
1487.123	5165.88
1491.777	5771.88
1496.426	5979.88
1501.071	5703.88
1505.711	5163.21
1510.347	4697.88
1514.978	4388.54
1519.604	4200.54
1524.226	4143.54
1528.844	4205.54
1533.457	4366.21
1538.065	4607.88
1542.669	4856.21
1547.269	4898.54
1551.864	4686.54
1556.454	4350.21
1561.041	4073.21
1565.622	3907.88
1570.199	3866.88
1574.772	3955.88
1579.34	4167.88
1583.904	4512.54
1588.464	5144.21
1593.019	6380.54
1597.569	8730.88
1602.115	12443.88
1606.657	16814.87
1611.195	19662.21
1615.728	19455.21
1620.256	16625.88
1624.78	13570.54
1629.3	12485.21
1633.816	13486.21
1638.327	14595.54
1642.834	14195.88
1647.336	11950.88
1651.834	9026.88
1656.328	6669.54
1660.817	5307.21
1665.302	4576.88
1669.783	4212.88
1674.259	3983.88
1678.732	3839.88
1683.199	3732.54
1687.663	3613.54
1692.122	3504.88
1696.577	3380.54
1701.028	3277.21
1705.474	3183.21
1709.917	3161.54
1714.355	3249.54
1718.788	3465.54
1723.218	3859.21
1727.643	4420.88
1732.064	4817.54
1736.481	4620.21
1740.893	4079.54
1745.301	3585.21
1749.705	3203.88
1754.105	2898.88
1758.501	2716.21
1762.893	2612.21
1767.28	2529.21
1771.663	2491.54
1776.042	2468.88
1780.417	2452.88
1784.787	2427.88
1789.154	2439.54
1793.516	2410.54
1797.874	2388.88
1802.228	2358.21
1806.578	2320.21
1810.924	2274.21
1815.266	2219.88
1819.603	2167.54
1823.937	2130.88
1828.266	2114.88
1832.591	2089.88
1836.913	2084.54
1841.23	2070.54
1845.543	2079.88
1849.852	2093.21
1854.156	2107.88
1858.457	2128.88
1862.754	2146.88
1867.047	2158.88
1871.335	2156.54
1875.62	2164.54
1879.9	2163.88
1884.177	2172.88
1888.449	2171.21
1892.718	2153.54
1896.982	2170.88
1901.243	2176.88
1905.499	2184.88
1909.752	2213.54
1914	2210.88
1918.245	2224.54
1922.485	2238.88
1926.722	2262.21
1930.954	2276.54
1935.183	2274.21
1939.408	2276.21
1943.628	2267.21
1947.845	2242.88
1952.058	2205.21
1956.267	2158.21
1960.472	2102.88
1964.673	2035.21
1968.87	1993.21
1973.063	1931.88
1977.252	1878.54
1981.438	1868.21
1985.619	1828.21
1989.797	1802.88
1993.971	1787.88
1998.14	1771.88
2002.306	1761.21
2006.469	1754.54
2010.627	1750.21
2014.781	1739.54
2018.932	1733.21
2023.078	1740.21
2027.221	1708.88
2031.36	1691.21
2035.495	1672.54
2039.627	1661.21
2043.754	1658.54
2047.878	1651.88
2051.998	1660.88
2056.114	1668.88
2060.226	1677.21
2064.334	1688.21
2068.439	1707.88
2072.54	1730.88
2076.637	1761.88
2080.73	1778.21
2084.82	1794.21
2088.906	1808.88
2092.988	1807.54
2097.066	1793.21
2101.14	1791.54
2105.211	1777.54
2109.278	1749.54
2113.342	1747.54
2117.401	1763.88
2121.457	1784.21
2125.509	1788.21
2129.558	1793.88
2133.602	1778.88
2137.643	1757.54
2141.681	1710.21
2145.714	1665.21
2149.744	1629.21
2153.77	1587.54
2157.793	1564.54
2161.812	1524.21
2165.827	1482.88
2169.838	1455.88
2173.846	1430.21
2177.851	1395.54
2181.851	1389.88
2185.848	1368.54
2189.841	1361.21
2193.831	1356.54
2197.817	1340.21
2201.799	1339.88
2205.778	1346.21
2209.753	1345.21
2213.725	1358.88
2217.693	1354.88
2221.657	1359.21
2225.618	1363.88
2229.575	1350.54
2233.529	1349.54
2237.479	1361.88
2241.425	1340.54
2245.368	1323.54
2249.307	1309.21
2253.243	1288.21
2257.175	1269.54
2261.104	1255.54
2265.029	1238.21
2268.95	1224.88
2272.868	1201.88
2276.783	1196.54
2280.694	1176.54
2284.601	1161.54
2288.505	1156.88
2292.405	1146.54
2296.302	1125.21
2300.195	1116.54
2304.085	1088.21
2307.971	1070.54
2311.854	1064.54
2315.734	1043.21
2319.609	1021.54
2323.482	1017.88
2327.351	1000.54
2331.216	1018.21
2335.078	1021.21
2338.937	989.88
2342.792	973.88
2346.643	970.88
2350.492	973.88
2354.336	964.88
2358.178	966.88
2362.015	968.88
2365.85	976.21
2369.681	971.88
2373.508	981.88
2377.333	983.54
2381.153	975.21
2384.971	975.54
2388.785	967.54
2392.595	967.21
2396.402	962.21
2400.206	971.54
2404.007	958.88
2407.804	962.54
2411.597	957.54
2415.388	962.54
2419.174	969.88
2422.958	963.21
2426.738	966.54
2430.515	958.21
2434.289	969.21
2438.059	959.21
2441.825	962.21
2445.589	952.54
2449.349	956.54
2453.106	946.21
2456.859	938.54
2460.61	932.21
2464.356	920.88
2468.1	923.21
2471.84	905.54
2475.577	912.88
2479.311	911.88
2483.041	922.21
2486.768	926.88
2490.492	920.88
2494.213	927.21
2497.93	929.88
2501.644	933.21
2505.355	928.54
2509.062	931.88
2512.766	917.88
2516.467	934.88
2520.165	934.54
2523.859	938.54
2527.551	939.21
2531.239	935.21
2534.923	940.88
2538.605	938.54
2542.283	937.21
2545.958	937.88
2549.63	946.21
2553.299	946.54
2556.964	948.54
2560.626	943.88
2564.285	935.54
2567.941	928.21
2571.594	925.88
2575.243	919.88
2578.89	918.54
2582.533	900.54
2586.173	898.54
2589.809	886.21
2593.443	879.88
2597.073	865.21
2600.701	857.88
2604.325	850.88
2607.946	845.54
2611.564	841.21
2615.178	832.54
2618.79	828.54
2622.398	813.54
2626.004	810.21
2629.606	796.88
2633.205	777.88
2636.801	765.21
2640.394	748.88
2643.983	732.88
2647.57	723.54
2651.153	702.88
2654.734	694.88
2658.311	685.54
2661.885	678.88
2665.456	666.54
2669.025	658.21
2672.589	661.54
2676.151	657.54
2679.71	653.21
2683.266	642.88
2686.819	627.21
2690.368	627.88
2693.915	621.54
2697.458	609.88
2700.999	604.88
2704.536	601.54
2708.071	593.88
2711.602	591.54
2715.13	597.21
2718.656	605.21
2722.178	617.54
2725.697	623.88
2729.214	638.54
2732.727	654.54
2736.237	668.54
2739.744	676.54
2743.249	683.21
2746.75	688.21
2750.248	688.54
2753.743	685.54
2757.236	681.88
2760.725	676.54
2764.211	659.54
2767.695	653.21
2771.175	645.54
2774.652	632.54
2778.127	628.54
2781.598	620.88
2785.067	623.88
2788.532	622.54
2791.995	625.54
2795.455	639.21
2798.911	651.21
2802.365	654.54
2805.816	662.21
2809.264	667.54
2812.709	673.54
2816.151	683.54
2819.59	699.54
2823.026	702.54
2826.46	712.54
2829.89	714.21
2833.318	724.88
2836.742	736.88
2840.164	755.88
2843.583	773.21
2846.999	792.21
2850.412	812.21
2853.822	837.21
2857.229	859.54
2860.634	892.54
2864.035	909.54
2867.434	941.21
2870.83	948.88
2874.223	959.88
2877.613	970.54
2881	981.88
2884.385	984.88
2887.766	997.54
2891.145	1003.54
2894.521	1002.88
2897.894	1017.54
2901.264	1031.88
2904.631	1044.21
2907.996	1058.54
2911.358	1080.54
2914.717	1112.21
2918.073	1150.21
2921.426	1176.54
2924.777	1200.88
2928.124	1211.21
2931.469	1186.54
2934.811	1149.54
2938.15	1086.21
2941.487	1020.21
2944.821	949.21
2948.152	886.54
2951.48	845.54
2954.805	813.21
2958.128	786.54
2961.447	770.54
2964.765	761.88
2968.079	758.88
2971.39	743.88
2974.699	718.54
2978.005	702.21
2981.308	682.21
2984.609	663.54
2987.907	632.88
2991.202	620.21
2994.494	597.21
2997.784	588.21
3001.07	571.54
3004.355	545.54
3007.636	516.54
3010.915	497.21
3014.191	462.21
3017.464	430.21
3020.734	403.54
3024.002	378.88
3027.267	356.88
3030.53	343.21
3033.789	329.88
3037.046	329.88
3040.301	318.21
3043.552	314.88
3046.801	310.21
3050.048	311.88
3053.291	309.88
3056.532	303.88
3059.771	304.88
3063.006	309.21
3066.239	317.54
3069.469	321.21
3072.697	330.21
3075.922	334.54
3079.144	341.88
3082.364	353.88
3085.581	357.88
3088.795	350.54
3092.007	320.88
3095.216	282.88
3098.423	260.54
3101.627	243.54
3104.828	232.54
3108.026	218.88
3111.222	208.88
3114.416	200.88
3117.607	192.21
3120.795	191.54
3123.98	186.21
3127.163	183.88
3130.344	178.21
3133.521	181.21
3136.696	170.21
3139.869	166.21
3143.039	161.54
3146.206	155.88
3149.371	155.88
3152.533	148.54
3155.693	141.88
3158.85	140.21
3162.005	134.88
3165.157	126.21
3168.306	122.88
3171.453	110.88
3174.597	111.54
3177.739	108.21
3180.878	99.21
3184.014	98.88
3187.149	95.54
3190.28	98.21
3193.409	91.54
3196.536	88.88
3199.659	89.21
3202.781	88.21
3205.9	89.88
3209.016	81.54
3212.13	85.21
3215.241	81.54
3218.35	78.54
3221.456	77.21
3224.56	75.88
3227.661	71.88
3230.76	65.54
3233.856	68.54
3236.95	65.21
3240.041	56.54
3243.13	57.54
3246.216	55.21
3249.3	56.21
3252.382	50.88
3255.46	52.54
3258.537	50.21
3261.611	48.21
3264.682	46.54
3267.751	40.88
3270.818	38.54
3273.882	37.54
3276.943	32.88
3280.002	28.21
3283.059	29.88
3286.113	21.88
3289.165	15.54
3292.214	12.54
3295.261	11.21
3298.306	2.54
3301.348	-1.12
3304.387	2.21
3307.425	1.21
3310.459	-8.12
3313.492	-8.46
3316.521	-8.12
3319.549	-11.79
3322.574	-13.79
3325.597	-15.79
3328.617	-15.79
3331.635	-16.12
3334.65	-20.79
3337.663	-17.79
3340.674	-17.79
3343.682	-21.12
3346.688	-20.12
3349.691	-20.79
3352.692	-24.46
3355.691	-22.79
3358.687	-28.12
3361.681	-27.79
3364.673	-28.79
3367.662	-28.46
3370.649	-33.79
3373.633	-37.79
3376.615	-33.79
3379.595	-38.12
3382.572	-38.12
3385.547	-42.12
3388.52	-39.79
3391.49	-43.46
3394.458	-45.79
3397.424	-41.79
3400.387	-50.46
3403.348	-45.79
3406.307	-51.12
3409.263	-51.46
3412.217	-51.46
3415.168	-50.12
3418.118	-52.79
3421.065	-53.46
3424.009	-51.46
3426.951	-53.79
3429.891	-55.79
3432.829	-52.79
3435.764	-55.79
3438.697	-61.12
3441.628	-62.79
3444.557	-58.46
3447.483	-59.79
3450.407	-62.79
3453.328	-64.12
3456.247	-64.46
3459.164	-66.79
3462.079	-66.79
3464.991	-67.12
3467.902	-68.46
3470.809	-69.79
3473.715	-68.46
3476.618	-72.12
3479.519	-71.46
3482.418	-74.46
3485.315	-70.12
3488.209	-73.12
3491.101	-75.12
3493.99	-73.12
3496.878	-74.79
3499.763	-77.46
3502.646	-77.46
3505.527	-73.12
3508.405	-78.46
3511.281	-78.12
3514.155	-78.46
3517.027	-80.46
3519.897	-82.79
3522.764	-82.46
3525.629	-86.79
3528.492	-86.46
3531.352	-84.79
3534.211	-87.79
3537.067	-90.79
3539.921	-87.79
3542.773	-88.79
3545.622	-91.79
3548.469	-91.79
3551.315	-91.12
3554.157	-94.12
3556.998	-94.12
3559.837	-94.12
3562.673	-96.12
3565.507	-93.46
3568.339	-93.79
3571.169	-100.12
3573.996	-98.79
3576.822	-97.79
3579.645	-97.79
3582.466	-98.79
3585.285	-100.46
3588.101	-103.46
3590.916	-101.12
3593.728	-103.79
3596.538	-105.46
3599.346	-104.12
3602.152	-103.12
3604.956	-106.12
3607.757	-107.46
3610.556	-109.46
3613.354	-108.46
3616.149	-109.79
3618.942	-109.46
3621.732	-114.79
3624.521	-111.46
3627.307	-110.79
3630.092	-113.12
3632.874	-113.46
3635.654	-111.79
3638.432	-110.46
3641.208	-115.12
3643.982	-114.46
3646.753	-114.12
3649.523	-114.12
3652.29	-113.46
3655.055	-116.79
3657.818	-116.79
3660.579	-118.46
3663.338	-116.12
3666.095	-118.46
3668.849	-117.79
3671.602	-121.12
3674.352	-118.79
3677.101	-123.12
3679.847	-118.12
3682.591	-120.79
3685.333	-120.46
3688.073	-116.79
3690.811	-117.46
3693.547	-117.79
3696.281	-121.46
3699.013	-118.79
3701.742	-121.46
3704.47	-117.79
3707.195	-123.12
3709.919	-120.79
3712.64	-121.46
3715.359	-120.46
3718.076	-121.79
3720.792	-120.46
3723.505	-120.79
3726.216	-120.46
3728.925	-123.46
3731.632	-121.79
3734.336	-122.12
3737.039	-121.46
3739.74	-122.79
3742.439	-123.46
3745.136	-127.46
3747.83	-126.12
3750.523	-124.79
3753.213	-124.46
3755.902	-124.79
3758.589	-127.12
3761.273	-125.46
3763.956	-126.46
3766.636	-121.46
3769.315	-124.46
3771.991	-123.79
3774.665	-121.12
3777.338	-120.79
3780.008	-121.46
3782.677	-121.46
3785.343	-124.12
3788.007	-122.79
3790.67	-126.79
3793.33	-122.79
3795.989	-122.79
3798.645	-122.46
3801.299	-124.79
3803.952	-124.12
3806.602	-127.46
3809.251	-128.79
3811.897	-121.46
3814.542	-124.79
3817.184	-125.46
3819.825	-124.46
3822.463	-126.46
3825.1	-124.12
3827.735	-125.12
3830.367	-128.46
3832.998	-129.79
3835.627	-128.12
3838.253	-125.46
3840.878	-130.79
3843.501	-128.46
3846.122	-127.12
3848.741	-129.46
3851.358	-129.12
3853.973	-131.46
3856.586	-132.46
3859.197	-131.12
3861.806	-128.79
3864.414	-129.79
3867.019	-129.46
3869.622	-127.79
3872.224	-123.79
3874.823	-126.79
3877.421	-121.79
3880.016	-118.12
3882.61	-114.79
3885.202	-113.12
3887.792	-116.46
3890.38	-124.46
3892.966	-127.12
3895.55	-130.79
3898.132	-131.12
3900.713	-129.46
3903.291	-131.12
3905.868	-130.79
3908.442	-130.79
3911.015	-128.79
3913.586	-131.46
3916.155	-131.79
3918.722	-132.46
3921.287	-132.46
3923.85	-127.79
3926.411	-135.12
3928.971	-133.79
3931.528	-136.12
3934.084	-129.79
3936.638	-132.79
3939.19	-134.12
3941.74	-132.46
3944.288	-133.79
3946.834	-133.12
3949.378	-134.46
3951.921	-133.79
3954.462	-135.46
3957	-133.79
3959.537	-130.79
3962.072	-130.12
3964.606	-129.12
3967.137	-133.46
3969.667	-132.46
3972.194	-129.12
3974.72	-129.46
3977.244	-134.12
3979.766	-126.79
3982.286	-129.12
3984.805	-127.79
3987.321	-128.79
3989.836	-129.12
3992.349	-127.79
3994.86	-128.79
3997.369	-127.46
3999.877	-126.79
4002.382	-127.79
4004.886	-127.46
4007.388	-127.12
4009.888	-123.12
4012.386	-126.79
4014.883	-125.79
4017.377	-125.79
4019.87	-128.79
4022.361	-125.12
4024.85	-130.12
4027.338	-129.46
4029.823	-125.46
4032.307	-128.12
4034.789	-127.79
4037.269	-126.46
4039.747	-126.79
4042.224	-127.46
4044.699	-127.79
4047.172	-129.46
4049.643	-127.46
4052.112	-128.46
4054.58	-127.46
4057.046	-129.12
4059.51	-128.12
4061.972	-132.46
4064.432	-126.46
4066.891	-128.12
4069.348	-127.12
4071.803	-127.12
4074.256	-124.79
4076.708	-126.12
4079.158	-128.46
4081.606	-128.12
4084.052	-126.12
4086.497	-128.46
4088.939	-125.79
4091.38	-126.12
4093.819	-129.79
4096.257	-138.12
4098.693	-136.46
4101.127	-137.79
4103.559	-139.46
4105.989	-73.12
4108.418	-64.46
4110.845	-59.12
4113.27	-53.79
4115.694	-43.12
4118.115	-30.79
4120.535	-129.79
4122.954	-128.12
4125.37	-131.46
4127.785	-129.79
4130.198	-128.79
4132.609	-130.79
4135.019	-139.12
4137.427	-141.46
4139.833	-138.79
4142.237	-139.46
