Data from SERS-ec1_RamanShift_5.txt Node
Date: Tue Nov 07 11:31:47 IST 2017
User: aro
Spectrometer: QEPB0276
Trigger mode: 0
Integration Time (sec): 1.500000E1
Scans to average: 3
Electric dark correction enabled: true
Nonlinearity correction enabled: false
Boxcar width: 0
XAxis mode: Raman Shifts
Number of Pixels in Spectrum: 1044
>>>>>Begin Spectral Data<<<<<
160.701	-34.75
166.742	81.25
172.777	390.25
178.805	1339.25
184.826	3754.58
190.841	8339.58
196.849	14189.25
202.85	18858.92
208.845	21018.92
214.833	21698.92
220.815	22303.58
226.789	23267.58
232.758	24535.58
238.719	25865.25
244.674	27113.25
250.623	28280.58
256.565	29299.25
262.5	30010.58
268.429	30437.25
274.351	30636.25
280.267	30728.25
286.176	30664.58
292.079	30534.92
297.975	30136.92
303.865	29437.25
309.748	28533.92
315.625	27554.25
321.495	26616.58
327.359	25813.58
333.217	25036.92
339.068	24415.92
344.912	23776.92
350.751	23382.58
356.583	23101.25
362.408	22880.58
368.227	22762.92
374.04	22768.92
379.847	22813.25
385.647	22933.92
391.44	22952.58
397.228	22906.58
403.009	22806.92
408.784	22659.58
414.553	22687.58
420.315	22773.25
426.071	22771.25
431.821	22592.58
437.565	22435.25
443.302	22339.92
449.033	22227.58
454.758	22212.25
460.477	22162.58
466.189	22181.92
471.896	22184.58
477.596	22180.25
483.29	22254.92
488.978	22315.25
494.66	22366.58
500.335	22341.92
506.005	22257.58
511.668	22245.58
517.325	22093.92
522.977	21971.25
528.622	21910.92
534.261	21925.25
539.894	21904.58
545.521	21986.92
551.141	22071.92
556.756	22121.25
562.365	22099.58
567.968	22043.25
573.565	21996.92
579.155	21922.92
584.74	21929.25
590.319	21903.92
595.892	21928.92
601.459	21960.58
607.02	21960.92
612.575	21846.58
618.124	21792.25
623.667	21742.58
629.204	21754.58
634.735	21767.25
640.261	21870.92
645.781	21963.58
651.294	22135.58
656.802	22435.92
662.304	22717.25
667.8	22750.58
673.29	22509.25
678.775	22174.25
684.254	21982.92
689.726	21956.58
695.193	21931.58
700.655	21873.58
706.11	21820.25
711.56	21821.92
717.004	21803.25
722.442	21728.58
727.874	21750.25
733.301	21685.58
738.722	21699.92
744.137	21690.92
749.547	21737.92
754.951	21787.58
760.349	21923.58
765.741	22000.58
771.128	22102.58
776.509	22193.58
781.885	22264.92
787.254	22286.25
792.618	22358.25
797.977	22354.92
803.33	22375.58
808.677	22281.58
814.019	22149.92
819.355	22104.58
824.686	22057.25
830.011	22120.58
835.33	22248.25
840.644	22348.58
845.952	22499.92
851.255	22605.92
856.552	22722.25
861.844	22831.58
867.13	22957.58
872.41	23051.92
877.686	23176.25
882.955	23306.25
888.219	23337.25
893.478	23114.58
898.731	22675.58
903.979	22271.58
909.221	22058.58
914.458	22005.25
919.69	22073.92
924.916	22252.92
930.136	22389.25
935.351	22547.92
940.561	22669.92
945.766	22884.92
950.965	23064.58
956.158	23280.25
961.347	23389.58
966.529	23317.58
971.707	23267.92
976.879	23195.92
982.046	23087.92
987.208	23039.58
992.364	23144.92
997.515	23566.58
1002.66	24447.58
1007.801	25925.92
1012.936	28071.58
1018.066	30789.92
1023.19	32586.92
1028.309	31592.92
1033.423	28459.58
1038.532	25549.25
1043.636	24033.58
1048.734	23357.25
1053.827	23044.25
1058.915	23072.25
1063.998	23390.25
1069.075	23715.25
1074.147	23812.92
1079.214	23829.58
1084.276	23842.58
1089.333	23859.25
1094.385	23919.92
1099.431	23968.92
1104.472	24012.92
1109.509	24017.25
1114.54	23814.25
1119.565	23626.58
1124.586	23563.25
1129.602	23592.92
1134.613	23745.58
1139.618	24000.25
1144.619	24135.25
1149.614	24127.25
1154.604	24003.25
1159.589	24034.25
1164.57	24205.25
1169.545	24455.92
1174.515	24760.25
1179.48	25266.92
1184.44	26274.25
1189.395	28549.58
1194.345	32611.25
1199.29	37366.58
1204.23	39859.92
1209.165	38387.92
1214.095	34798.92
1219.021	31668.58
1223.941	29882.25
1228.856	28664.92
1233.766	27564.58
1238.672	27103.58
1243.572	27302.58
1248.467	27490.92
1253.358	27330.58
1258.244	26963.92
1263.124	26688.92
1268	26264.25
1272.871	25592.92
1277.737	24751.58
1282.599	24155.25
1287.455	23946.92
1292.306	23958.25
1297.153	24093.58
1301.995	24336.25
1306.832	24665.92
1311.664	25000.25
1316.491	25305.58
1321.314	25309.25
1326.132	25227.58
1330.945	25520.92
1335.753	26717.25
1340.556	28129.92
1345.354	28171.92
1350.148	26671.92
1354.937	25055.25
1359.722	23895.58
1364.501	23045.92
1369.276	22459.92
1374.046	21995.25
1378.811	21641.25
1383.572	21319.25
1388.327	21010.25
1393.079	20830.58
1397.825	20726.58
1402.567	20670.92
1407.304	20810.58
1412.036	21002.58
1416.764	21346.58
1421.487	21798.92
1426.205	22220.25
1430.919	22492.92
1435.628	22502.25
1440.333	22407.58
1445.032	22494.25
1449.727	22642.92
1454.418	22650.25
1459.104	22491.58
1463.785	22227.25
1468.462	21976.92
1473.134	21834.58
1477.802	21841.25
1482.465	22035.92
1487.123	22465.92
1491.777	22864.58
1496.426	22790.92
1501.071	22263.58
1505.711	21845.25
1510.347	21605.58
1514.978	21472.58
1519.604	21365.25
1524.226	21389.25
1528.844	21447.25
1533.457	21644.25
1538.065	22012.92
1542.669	22260.25
1547.269	22153.25
1551.864	21584.58
1556.454	20964.25
1561.041	20541.25
1565.622	20269.25
1570.199	20322.92
1574.772	20619.58
1579.34	21143.25
1583.904	21898.25
1588.464	23150.25
1593.019	25538.25
1597.569	29855.58
1602.115	36282.92
1606.657	43074.58
1611.195	46287.25
1615.728	42929.25
1620.256	35672.25
1624.78	30797.25
1629.3	30781.25
1633.816	33668.92
1638.327	35940.58
1642.834	35231.25
1647.336	31389.25
1651.834	26430.58
1656.328	22427.25
1660.817	20138.58
1665.302	18836.92
1669.783	18110.58
1674.259	17556.25
1678.732	17081.58
1683.199	16658.25
1687.663	16207.25
1692.122	15699.25
1696.577	15116.92
1701.028	14537.92
1705.474	13987.25
1709.917	13620.92
1714.355	13371.25
1718.788	13290.92
1723.218	13299.92
1727.643	13295.92
1732.064	13199.25
1736.481	13041.58
1740.893	12770.92
1745.301	12501.25
1749.705	12249.58
1754.105	11974.25
1758.501	11759.25
1762.893	11542.25
1767.28	11389.92
1771.663	11264.25
1776.042	11225.92
1780.417	11166.92
1784.787	11196.25
1789.154	11146.92
1793.516	11047.25
1797.874	10864.25
1802.228	10697.25
1806.578	10456.25
1810.924	10252.58
1815.266	10114.92
1819.603	9997.25
1823.937	9908.58
1828.266	9915.25
1832.591	9910.25
1836.913	9925.92
1841.23	10001.25
1845.543	10066.25
1849.852	10135.92
1854.156	10210.25
1858.457	10283.92
1862.754	10361.25
1867.047	10412.92
1871.335	10475.92
1875.62	10485.58
1879.9	10501.25
1884.177	10474.25
1888.449	10442.92
1892.718	10374.25
1896.982	10340.92
1901.243	10310.58
1905.499	10258.58
1909.752	10248.92
1914	10284.92
1918.245	10316.92
1922.485	10331.25
1926.722	10362.58
1930.954	10382.25
1935.183	10380.92
1939.408	10335.92
1943.628	10235.92
1947.845	10082.92
1952.058	9891.58
1956.267	9669.92
1960.472	9453.25
1964.673	9248.58
1968.87	9038.58
1973.063	8887.92
1977.252	8729.58
1981.438	8673.92
1985.619	8589.58
1989.797	8514.92
1993.971	8527.58
1998.14	8526.92
2002.306	8520.25
2006.469	8518.92
2010.627	8523.58
2014.781	8503.25
2018.932	8475.58
2023.078	8424.58
2027.221	8347.92
2031.36	8261.92
2035.495	8177.25
2039.627	8095.58
2043.754	8057.58
2047.878	8024.92
2051.998	8036.58
2056.114	8029.58
2060.226	8049.92
2064.334	8089.58
2068.439	8138.92
2072.54	8184.58
2076.637	8288.25
2080.73	8324.25
2084.82	8347.58
2088.906	8355.92
2092.988	8309.92
2097.066	8239.25
2101.14	8136.25
2105.211	8040.25
2109.278	7933.92
2113.342	7858.58
2117.401	7807.92
2121.457	7787.25
2125.509	7750.92
2129.558	7697.25
2133.602	7668.25
2137.643	7606.25
2141.681	7522.92
2145.714	7457.25
2149.744	7401.92
2153.77	7347.92
2157.793	7284.92
2161.812	7218.58
2165.827	7167.58
2169.838	7079.92
2173.846	7022.58
2177.851	6934.58
2181.851	6895.25
2185.848	6851.58
2189.841	6807.25
2193.831	6769.58
2197.817	6764.92
2201.799	6774.92
2205.778	6749.92
2209.753	6775.58
2213.725	6759.25
2217.693	6785.92
2221.657	6804.58
2225.618	6798.25
2229.575	6800.25
2233.529	6759.25
2237.479	6726.58
2241.425	6652.58
2245.368	6592.58
2249.307	6510.92
2253.243	6428.58
2257.175	6389.25
2261.104	6304.58
2265.029	6256.58
2268.95	6208.92
2272.868	6151.25
2276.783	6096.25
2280.694	6059.25
2284.601	6018.92
2288.505	5941.58
2292.405	5922.58
2296.302	5892.25
2300.195	5860.25
2304.085	5791.25
2307.971	5736.25
2311.854	5678.92
2315.734	5620.58
2319.609	5572.25
2323.482	5510.58
2327.351	5504.25
2331.216	5499.58
2335.078	5493.58
2338.937	5490.92
2342.792	5503.25
2346.643	5525.25
2350.492	5547.58
2354.336	5582.58
2358.178	5610.58
2362.015	5636.25
2365.85	5697.92
2369.681	5719.25
2373.508	5758.58
2377.333	5782.25
2381.153	5787.58
2384.971	5817.92
2388.785	5777.92
2392.595	5783.92
2396.402	5767.25
2400.206	5757.92
2404.007	5748.92
2407.804	5755.58
2411.597	5746.25
2415.388	5746.25
2419.174	5754.58
2422.958	5749.58
2426.738	5725.58
2430.515	5721.58
2434.289	5724.25
2438.059	5706.25
2441.825	5655.58
2445.589	5657.92
2449.349	5600.25
2453.106	5567.58
2456.859	5524.25
2460.61	5487.25
2464.356	5430.92
2468.1	5381.92
2471.84	5358.92
2475.577	5334.58
2479.311	5318.92
2483.041	5329.25
2486.768	5320.25
2490.492	5307.58
2494.213	5306.25
2497.93	5304.25
2501.644	5301.25
2505.355	5283.58
2509.062	5268.92
2512.766	5257.25
2516.467	5244.58
2520.165	5217.25
2523.859	5187.92
2527.551	5175.58
2531.239	5128.58
2534.923	5131.25
2538.605	5086.58
2542.283	5080.92
2545.958	5080.58
2549.63	5079.92
2553.299	5066.92
2556.964	5031.25
2560.626	5013.58
2564.285	4958.92
2567.941	4941.58
2571.594	4877.92
2575.243	4859.92
2578.89	4805.92
2582.533	4763.25
2586.173	4705.58
2589.809	4653.92
2593.443	4601.58
2597.073	4554.58
2600.701	4519.25
2604.325	4471.92
2607.946	4448.58
2611.564	4414.92
2615.178	4402.92
2618.79	4364.25
2622.398	4350.92
2626.004	4286.58
2629.606	4272.58
2633.205	4226.25
2636.801	4161.92
2640.394	4123.25
2643.983	4078.58
2647.57	4029.92
2651.153	3998.92
2654.734	3957.25
2658.311	3909.25
2661.885	3858.25
2665.456	3851.58
2669.025	3824.58
2672.589	3803.92
2676.151	3761.58
2679.71	3730.58
2683.266	3692.25
2686.819	3654.92
2690.368	3612.92
2693.915	3559.25
2697.458	3509.25
2700.999	3472.92
2704.536	3440.92
2708.071	3391.92
2711.602	3358.92
2715.13	3325.92
2718.656	3312.25
2722.178	3282.25
2725.697	3268.58
2729.214	3274.92
2732.727	3266.58
2736.237	3282.92
2739.744	3273.92
2743.249	3259.92
2746.75	3239.58
2750.248	3206.58
2753.743	3151.25
2757.236	3108.25
2760.725	3058.58
2764.211	2996.92
2767.695	2949.92
2771.175	2916.58
2774.652	2882.25
2778.127	2870.92
2781.598	2864.25
2785.067	2873.58
2788.532	2885.58
2791.995	2915.58
2795.455	2954.25
2798.911	2981.92
2802.365	3013.92
2805.816	3033.25
2809.264	3062.58
2812.709	3070.92
2816.151	3086.92
2819.59	3099.25
2823.026	3134.92
2826.46	3140.25
2829.89	3169.92
2833.318	3195.92
2836.742	3226.92
2840.164	3267.58
2843.583	3274.25
2846.999	3314.25
2850.412	3373.25
2853.822	3399.58
2857.229	3447.58
2860.634	3497.58
2864.035	3507.92
2867.434	3533.58
2870.83	3555.58
2874.223	3548.25
2877.613	3525.58
2881	3518.92
2884.385	3494.92
2887.766	3469.25
2891.145	3436.25
2894.521	3399.25
2897.894	3390.25
2901.264	3375.92
2904.631	3357.25
2907.996	3363.92
2911.358	3338.25
2914.717	3332.92
2918.073	3325.58
2921.426	3310.25
2924.777	3265.25
2928.124	3190.92
2931.469	3096.25
2934.811	3008.58
2938.15	2884.92
2941.487	2772.25
2944.821	2673.58
2948.152	2563.58
2951.48	2461.92
2954.805	2363.92
2958.128	2282.25
2961.447	2211.58
2964.765	2137.58
2968.079	2092.58
2971.39	2025.58
2974.699	1965.25
2978.005	1913.58
2981.308	1878.92
2984.609	1840.92
2987.907	1790.25
2991.202	1758.92
2994.494	1725.92
2997.784	1679.25
3001.07	1636.58
3004.355	1593.92
3007.636	1547.58
3010.915	1510.58
3014.191	1467.58
3017.464	1422.58
3020.734	1376.58
3024.002	1337.58
3027.267	1307.25
3030.53	1291.25
3033.789	1259.92
3037.046	1238.25
3040.301	1212.25
3043.552	1207.25
3046.801	1194.58
3050.048	1185.58
3053.291	1165.58
3056.532	1158.25
3059.771	1149.92
3063.006	1151.25
3066.239	1133.92
3069.469	1117.25
3072.697	1108.58
3075.922	1096.25
3079.144	1071.25
3082.364	1060.92
3085.581	1048.25
3088.795	1026.58
3092.007	1000.25
3095.216	993.58
3098.423	972.92
3101.627	959.92
3104.828	952.25
3108.026	933.58
3111.222	921.25
3114.416	896.92
3117.607	901.25
3120.795	877.92
3123.98	870.92
3127.163	856.25
3130.344	850.92
3133.521	845.25
3136.696	835.58
3139.869	811.92
3143.039	807.25
3146.206	779.58
3149.371	769.25
3152.533	745.92
3155.693	722.25
3158.85	700.58
3162.005	684.92
3165.157	666.58
3168.306	634.25
3171.453	612.25
3174.597	593.58
3177.739	582.58
3180.878	559.58
3184.014	546.58
3187.149	530.25
3190.28	514.25
3193.409	507.25
3196.536	486.25
3199.659	479.25
3202.781	473.25
3205.9	461.92
3209.016	459.25
3212.13	439.25
3215.241	425.58
3218.35	414.58
3221.456	395.58
3224.56	378.92
3227.661	360.92
3230.76	351.58
3233.856	339.25
3236.95	324.92
3240.041	308.92
3243.13	303.25
3246.216	291.25
3249.3	283.92
3252.382	277.92
3255.46	273.92
3258.537	263.25
3261.611	252.92
3264.682	242.92
3267.751	240.92
3270.818	227.25
3273.882	222.58
3276.943	214.25
3280.002	205.92
3283.059	194.25
3286.113	178.25
3289.165	176.58
3292.214	163.25
3295.261	147.58
3298.306	136.92
3301.348	127.58
3304.387	118.25
3307.425	112.92
3310.459	100.25
3313.492	92.92
3316.521	88.25
3319.549	90.58
3322.574	76.58
3325.597	79.25
3328.617	71.92
3331.635	66.25
3334.65	57.25
3337.663	49.92
3340.674	53.25
3343.682	52.92
3346.688	43.92
3349.691	38.25
3352.692	41.25
3355.691	30.25
3358.687	30.58
3361.681	24.92
3364.673	14.92
3367.662	4.58
3370.649	1.25
3373.633	-5.42
3376.615	-6.42
3379.595	-15.75
3382.572	-28.42
3385.547	-25.75
3388.52	-38.75
3391.49	-39.08
3394.458	-46.42
3397.424	-48.08
3400.387	-57.75
3403.348	-59.08
3406.307	-63.75
3409.263	-67.75
3412.217	-72.42
3415.168	-73.08
3418.118	-81.75
3421.065	-79.08
3424.009	-86.75
3426.951	-91.75
3429.891	-93.42
3432.829	-96.08
3435.764	-105.42
3438.697	-108.42
3441.628	-119.42
3444.557	-121.75
3447.483	-125.08
3450.407	-134.08
3453.328	-139.08
3456.247	-147.75
3459.164	-148.42
3462.079	-153.08
3464.991	-158.75
3467.902	-165.08
3470.809	-176.08
3473.715	-176.42
3476.618	-180.75
3479.519	-185.75
3482.418	-191.08
3485.315	-193.75
3488.209	-196.08
3491.101	-197.75
3493.99	-195.08
3496.878	-203.75
3499.763	-205.75
3502.646	-213.08
3505.527	-211.75
3508.405	-214.75
3511.281	-219.42
3514.155	-224.75
3517.027	-227.75
3519.897	-231.42
3522.764	-235.42
3525.629	-240.75
3528.492	-244.42
3531.352	-248.75
3534.211	-255.08
3537.067	-257.75
3539.921	-261.75
3542.773	-262.08
3545.622	-269.08
3548.469	-272.75
3551.315	-276.08
3554.157	-280.08
3556.998	-278.08
3559.837	-286.42
3562.673	-283.75
3565.507	-285.75
3568.339	-289.42
3571.169	-294.75
3573.996	-292.08
3576.822	-295.75
3579.645	-299.75
3582.466	-301.08
3585.285	-305.42
3588.101	-310.08
3590.916	-309.42
3593.728	-315.75
3596.538	-317.42
3599.346	-318.42
3602.152	-320.08
3604.956	-324.75
3607.757	-328.08
3610.556	-329.08
3613.354	-331.75
3616.149	-334.08
3618.942	-332.75
3621.732	-335.42
3624.521	-334.75
3627.307	-335.08
3630.092	-342.08
3632.874	-339.08
3635.654	-342.75
3638.432	-337.42
3641.208	-342.08
3643.982	-343.08
3646.753	-341.42
3649.523	-342.75
3652.29	-342.42
3655.055	-345.42
3657.818	-343.08
3660.579	-346.08
3663.338	-349.75
3666.095	-350.42
3668.849	-350.42
3671.602	-348.42
3674.352	-350.42
3677.101	-358.08
3679.847	-353.75
3682.591	-358.42
3685.333	-356.75
3688.073	-354.75
3690.811	-349.08
3693.547	-353.08
3696.281	-351.42
3699.013	-356.75
3701.742	-356.08
3704.47	-353.08
3707.195	-360.42
3709.919	-358.42
3712.64	-360.08
3715.359	-359.75
3718.076	-358.42
3720.792	-359.42
3723.505	-360.75
3726.216	-360.08
3728.925	-361.75
3731.632	-361.75
3734.336	-362.08
3737.039	-361.42
3739.74	-362.75
3742.439	-366.75
3745.136	-368.75
3747.83	-366.08
3750.523	-364.08
3753.213	-364.42
3755.902	-367.08
3758.589	-366.08
3761.273	-363.75
3763.956	-365.42
3766.636	-364.08
3769.315	-370.75
3771.991	-367.42
3774.665	-368.75
3777.338	-367.42
3780.008	-372.75
3782.677	-371.75
3785.343	-370.42
3788.007	-375.42
3790.67	-377.42
3793.33	-375.75
3795.989	-375.42
3798.645	-375.42
3801.299	-377.75
3803.952	-378.08
3806.602	-381.08
3809.251	-380.75
3811.897	-380.75
3814.542	-382.08
3817.184	-380.75
3819.825	-380.08
3822.463	-386.42
3825.1	-385.08
3827.735	-386.42
3830.367	-389.75
3832.998	-386.42
3835.627	-386.42
3838.253	-389.08
3840.878	-390.75
3843.501	-390.08
3846.122	-390.08
3848.741	-391.42
3851.358	-393.42
3853.973	-396.75
3856.586	-396.75
3859.197	-398.42
3861.806	-395.08
3864.414	-397.75
3867.019	-397.75
3869.622	-397.08
3872.224	-392.08
3874.823	-394.75
3877.421	-391.08
3880.016	-392.08
3882.61	-388.75
3885.202	-387.75
3887.792	-390.75
3890.38	-398.08
3892.966	-403.08
3895.55	-404.75
3898.132	-406.08
3900.713	-404.08
3903.291	-408.42
3905.868	-408.08
3908.442	-408.75
3911.015	-410.75
3913.586	-411.42
3916.155	-410.75
3918.722	-412.75
3921.287	-414.75
3923.85	-409.42
3926.411	-413.42
3928.971	-412.42
3931.528	-414.75
3934.084	-412.75
3936.638	-414.75
3939.19	-415.08
3941.74	-416.08
3944.288	-413.08
3946.834	-415.75
3949.378	-418.08
3951.921	-416.08
3954.462	-415.42
3957	-415.08
3959.537	-413.75
3962.072	-412.42
3964.606	-414.42
3967.137	-413.08
3969.667	-410.08
3972.194	-409.75
3974.72	-409.42
3977.244	-409.75
3979.766	-406.42
3982.286	-403.75
3984.805	-402.08
3987.321	-402.75
3989.836	-400.75
3992.349	-401.42
3994.86	-398.08
3997.369	-395.75
3999.877	-394.75
4002.382	-398.08
4004.886	-396.08
4007.388	-395.08
4009.888	-393.75
4012.386	-392.42
4014.883	-392.75
4017.377	-393.08
4019.87	-392.08
4022.361	-394.42
4024.85	-396.08
4027.338	-395.08
4029.823	-394.08
4032.307	-394.08
4034.789	-396.42
4037.269	-395.75
4039.747	-398.08
4042.224	-398.42
4044.699	-398.42
4047.172	-401.08
4049.643	-399.42
4052.112	-400.75
4054.58	-403.08
4057.046	-403.08
4059.51	-401.42
4061.972	-403.75
4064.432	-398.08
4066.891	-401.42
4069.348	-398.42
4071.803	-399.42
4074.256	-399.08
4076.708	-399.42
4079.158	-400.08
4081.606	-400.75
4084.052	-398.42
4086.497	-401.75
4088.939	-399.08
4091.38	-399.75
4093.819	-400.08
4096.257	-441.75
4098.693	-443.42
4101.127	-441.42
4103.559	-442.75
4105.989	-239.75
4108.418	-213.75
4110.845	-193.08
4113.27	-170.08
4115.694	-132.42
4118.115	-94.08
4120.535	-400.42
4122.954	-397.75
4125.37	-401.75
4127.785	-402.75
4130.198	-401.75
4132.609	-401.42
4135.019	-444.08
4137.427	-445.08
4139.833	-443.08
4142.237	-443.75
