Data from SERS-ec10_RamanShift_2.txt Node
Date: Tue Nov 07 11:18:17 IST 2017
User: aro
Spectrometer: QEPB0276
Trigger mode: 0
Integration Time (sec): 1.500000E1
Scans to average: 3
Electric dark correction enabled: true
Nonlinearity correction enabled: false
Boxcar width: 0
XAxis mode: Raman Shifts
Number of Pixels in Spectrum: 1044
>>>>>Begin Spectral Data<<<<<
160.701	-11.62
166.742	17.04
172.777	99.71
178.805	355.71
184.826	1001.04
190.841	2189.71
196.849	3684.38
202.85	4798.04
208.845	5148.71
214.833	5065.04
220.815	5008.71
226.789	5080.71
232.758	5247.38
238.719	5394.71
244.674	5535.38
250.623	5675.71
256.565	5833.38
262.5	5990.04
268.429	6140.38
274.351	6344.71
280.267	6506.71
286.176	6552.04
292.079	6421.71
297.975	6201.71
303.865	6082.38
309.748	5988.38
315.625	5880.71
321.495	5766.71
327.359	5701.04
333.217	5642.71
339.068	5590.71
344.912	5553.71
350.751	5529.71
356.583	5545.04
362.408	5588.04
368.227	5668.38
374.04	5818.71
379.847	6158.71
385.647	6593.04
391.44	7128.38
397.228	7599.71
403.009	7708.71
408.784	7303.04
414.553	6755.71
420.315	6354.04
426.071	6054.04
431.821	5767.04
437.565	5547.38
443.302	5432.71
449.033	5355.38
454.758	5320.71
460.477	5277.71
466.189	5244.38
471.896	5233.04
477.596	5244.38
483.29	5306.04
488.978	5361.71
494.66	5473.71
500.335	5656.71
506.005	5967.38
511.668	6385.71
517.325	6754.04
522.977	6785.04
528.622	6436.71
534.261	5971.71
539.894	5603.38
545.521	5356.04
551.141	5203.04
556.756	5089.04
562.365	4989.04
567.968	4929.04
573.565	4908.38
579.155	4877.71
584.74	4866.04
590.319	4838.71
595.892	4864.71
601.459	4930.71
607.02	5034.04
612.575	5204.71
618.124	5499.71
623.667	6099.71
629.204	7223.04
634.735	8735.71
640.261	9750.04
645.781	9570.71
651.294	8499.04
656.802	7309.04
662.304	6333.38
667.8	5676.04
673.29	5237.04
678.775	4974.04
684.254	4776.04
689.726	4661.71
695.193	4564.71
700.655	4578.71
706.11	4676.38
711.56	4620.71
717.004	4420.38
722.442	4222.71
727.874	4143.71
733.301	4092.04
738.722	4075.04
744.137	4045.04
749.547	4039.71
754.951	4034.71
760.349	4044.04
765.741	4033.38
771.128	4050.71
776.509	4086.37
781.885	4139.38
787.254	4202.71
792.618	4363.38
797.977	4513.04
803.33	4521.04
808.677	4390.71
814.019	4271.71
819.355	4253.38
824.686	4279.71
830.011	4282.04
835.33	4320.04
840.644	4386.04
845.952	4549.71
851.255	4923.71
856.552	5505.38
861.844	6047.71
867.13	5972.38
872.41	5287.38
877.686	4712.71
882.955	4487.71
888.219	4418.38
893.478	4307.38
898.731	4188.71
903.979	4066.71
909.221	3950.38
914.458	3863.04
919.69	3811.38
924.916	3798.38
930.136	3783.04
935.351	3777.04
940.561	3791.71
945.766	3787.71
950.965	3784.37
956.158	3811.71
961.347	3843.38
966.529	3839.04
971.707	3843.04
976.879	3809.71
982.046	3798.38
987.208	3823.37
992.364	3933.71
997.515	4105.04
1002.66	4268.04
1007.801	4352.04
1012.936	4338.38
1018.066	4328.04
1023.19	4318.38
1028.309	4236.04
1033.423	4078.71
1038.532	3926.38
1043.636	3827.04
1048.734	3780.04
1053.827	3743.37
1058.915	3751.04
1063.998	3776.71
1069.075	3819.71
1074.147	3913.38
1079.214	3993.04
1084.276	4095.04
1089.333	4278.38
1094.385	4585.04
1099.431	4827.04
1104.472	4776.38
1109.509	4535.71
1114.54	4391.04
1119.565	4356.04
1124.586	4288.04
1129.602	4170.04
1134.613	4048.71
1139.618	4052.04
1144.619	4159.71
1149.614	4157.71
1154.604	3999.37
1159.589	3779.38
1164.57	3640.04
1169.545	3632.38
1174.515	3732.37
1179.48	3865.04
1184.44	4018.71
1189.395	4186.04
1194.345	4322.71
1199.29	4434.04
1204.23	4529.04
1209.165	4407.71
1214.095	4123.04
1219.021	3871.71
1223.941	3765.38
1228.856	3733.04
1233.766	3708.71
1238.672	3737.38
1243.572	3819.04
1248.467	3899.71
1253.358	4003.71
1258.244	4198.04
1263.124	4613.04
1268	5126.71
1272.871	5415.38
1277.737	5391.71
1282.599	5384.71
1287.455	5490.71
1292.306	5537.71
1297.153	5452.04
1301.995	5135.71
1306.832	4685.04
1311.664	4396.38
1316.491	4204.38
1321.314	4052.37
1326.132	3884.38
1330.945	3798.04
1335.753	3826.04
1340.556	3895.04
1345.354	3904.71
1350.148	3819.38
1354.937	3693.04
1359.722	3563.37
1364.501	3441.71
1369.276	3415.04
1374.046	3401.38
1378.811	3398.04
1383.572	3358.71
1388.327	3245.38
1393.079	3159.71
1397.825	3108.04
1402.567	3084.38
1407.304	3109.71
1412.036	3201.04
1416.764	3363.71
1421.487	3508.04
1426.205	3524.71
1430.919	3480.38
1435.628	3443.38
1440.333	3500.71
1445.032	3631.71
1449.727	3776.38
1454.418	3878.71
1459.104	3903.04
1463.785	3847.37
1468.462	3747.71
1473.134	3597.71
1477.802	3522.38
1482.465	3554.38
1487.123	3726.04
1491.777	3957.04
1496.426	4091.38
1501.071	4031.37
1505.711	3821.37
1510.347	3596.71
1514.978	3452.38
1519.604	3323.38
1524.226	3250.37
1528.844	3202.71
1533.457	3147.71
1538.065	3142.37
1542.669	3125.04
1547.269	3110.04
1551.864	3052.38
1556.454	2995.04
1561.041	2954.04
1565.622	2895.71
1570.199	2882.04
1574.772	2919.37
1579.34	2995.38
1583.904	3056.04
1588.464	3158.37
1593.019	3346.04
1597.569	3713.04
1602.115	4422.04
1606.657	5438.04
1611.195	6785.04
1615.728	8282.04
1620.256	8792.04
1624.78	7457.71
1629.3	5714.71
1633.816	4882.71
1638.327	4584.71
1642.834	4302.38
1647.336	3897.04
1651.834	3486.71
1656.328	3170.71
1660.817	3005.71
1665.302	2913.71
1669.783	2854.38
1674.259	2829.37
1678.732	2810.04
1683.199	2814.04
1687.663	2803.71
1692.122	2812.04
1696.577	2769.37
1701.028	2754.71
1705.474	2762.04
1709.917	2844.71
1714.355	3044.38
1718.788	3424.38
1723.218	4068.37
1727.643	4970.38
1732.064	5557.38
1736.481	5288.71
1740.893	4498.71
1745.301	3751.04
1749.705	3183.71
1754.105	2780.37
1758.501	2533.38
1762.893	2375.04
1767.28	2284.37
1771.663	2228.71
1776.042	2197.71
1780.417	2208.37
1784.787	2213.38
1789.154	2202.71
1793.516	2202.04
1797.874	2191.38
1802.228	2162.38
1806.578	2127.04
1810.924	2074.04
1815.266	2027.04
1819.603	1976.04
1823.937	1927.37
1828.266	1902.04
1832.591	1881.04
1836.913	1862.04
1841.23	1863.04
1845.543	1847.04
1849.852	1862.38
1854.156	1859.71
1858.457	1867.04
1862.754	1883.38
1867.047	1891.71
1871.335	1903.71
1875.62	1906.71
1879.9	1911.37
1884.177	1917.04
1888.449	1910.71
1892.718	1901.71
1896.982	1914.04
1901.243	1912.71
1905.499	1922.04
1909.752	1937.04
1914	1950.37
1918.245	1959.38
1922.485	1974.04
1926.722	1990.04
1930.954	1999.38
1935.183	2004.71
1939.408	2001.71
1943.628	1976.37
1947.845	1959.71
1952.058	1932.71
1956.267	1879.71
1960.472	1827.71
1964.673	1773.71
1968.87	1713.04
1973.063	1664.71
1977.252	1632.04
1981.438	1600.37
1985.619	1572.38
1989.797	1542.04
1993.971	1531.38
1998.14	1521.38
2002.306	1519.38
2006.469	1516.38
2010.627	1493.38
2014.781	1494.38
2018.932	1471.71
2023.078	1462.38
2027.221	1449.38
2031.36	1438.38
2035.495	1425.04
2039.627	1416.71
2043.754	1389.38
2047.878	1395.38
2051.998	1395.71
2056.114	1395.38
2060.226	1416.38
2064.334	1420.38
2068.439	1435.04
2072.54	1443.71
2076.637	1465.38
2080.73	1481.04
2084.82	1484.04
2088.906	1486.38
2092.988	1490.71
2097.066	1471.71
2101.14	1450.71
2105.211	1437.38
2109.278	1418.38
2113.342	1394.38
2117.401	1379.04
2121.457	1359.38
2125.509	1355.71
2129.558	1338.38
2133.602	1314.04
2137.643	1307.04
2141.681	1291.38
2145.714	1277.04
2149.744	1255.71
2153.77	1232.04
2157.793	1229.04
2161.812	1190.04
2165.827	1182.71
2169.838	1153.71
2173.846	1136.38
2177.851	1113.71
2181.851	1104.04
2185.848	1086.71
2189.841	1080.38
2193.831	1071.04
2197.817	1063.38
2201.799	1068.38
2205.778	1055.04
2209.753	1053.04
2213.725	1058.38
2217.693	1054.71
2221.657	1056.38
2225.618	1056.71
2229.575	1046.71
2233.529	1037.71
2237.479	1033.04
2241.425	1019.71
2245.368	1013.38
2249.307	996.38
2253.243	982.04
2257.175	975.71
2261.104	957.38
2265.029	941.04
2268.95	930.71
2272.868	916.71
2276.783	907.71
2280.694	890.04
2284.601	886.71
2288.505	872.38
2292.405	854.38
2296.302	845.04
2300.195	841.71
2304.085	826.71
2307.971	809.04
2311.854	797.04
2315.734	784.71
2319.609	766.04
2323.482	756.71
2327.351	752.04
2331.216	772.71
2335.078	764.71
2338.937	748.38
2342.792	725.38
2346.643	720.38
2350.492	717.04
2354.336	711.71
2358.178	721.38
2362.015	716.71
2365.85	718.38
2369.681	713.71
2373.508	720.04
2377.333	710.04
2381.153	711.71
2384.971	711.71
2388.785	704.71
2392.595	701.38
2396.402	697.04
2400.206	692.71
2404.007	695.04
2407.804	682.71
2411.597	681.71
2415.388	681.38
2419.174	678.04
2422.958	672.71
2426.738	677.38
2430.515	668.38
2434.289	670.38
2438.059	662.04
2441.825	654.04
2445.589	661.71
2449.349	657.71
2453.106	651.04
2456.859	643.04
2460.61	642.71
2464.356	629.71
2468.1	635.71
2471.84	620.38
2475.577	626.38
2479.311	623.71
2483.041	617.71
2486.768	632.71
2490.492	629.38
2494.213	627.38
2497.93	627.04
2501.644	632.71
2505.355	639.38
2509.062	634.71
2512.766	633.38
2516.467	641.04
2520.165	639.04
2523.859	635.38
2527.551	630.38
2531.239	631.71
2534.923	632.38
2538.605	632.71
2542.283	631.38
2545.958	628.38
2549.63	629.04
2553.299	637.04
2556.964	640.04
2560.626	636.04
2564.285	631.04
2567.941	630.71
2571.594	622.04
2575.243	611.04
2578.89	613.71
2582.533	608.71
2586.173	606.04
2589.809	596.38
2593.443	589.38
2597.073	583.04
2600.701	573.04
2604.325	565.71
2607.946	558.04
2611.564	554.71
2615.178	551.71
2618.79	551.71
2622.398	540.04
2626.004	534.04
2629.606	525.04
2633.205	508.71
2636.801	503.71
2640.394	484.71
2643.983	477.38
2647.57	465.38
2651.153	462.38
2654.734	448.71
2658.311	444.04
2661.885	436.38
2665.456	432.04
2669.025	422.38
2672.589	420.38
2676.151	421.38
2679.71	418.04
2683.266	408.71
2686.819	409.38
2690.368	397.71
2693.915	393.38
2697.458	391.04
2700.999	384.04
2704.536	381.38
2708.071	383.71
2711.602	378.38
2715.13	372.71
2718.656	382.04
2722.178	385.71
2725.697	382.38
2729.214	391.04
2732.727	398.71
2736.237	407.71
2739.744	411.04
2743.249	416.71
2746.75	411.04
2750.248	420.38
2753.743	412.38
2757.236	409.04
2760.725	401.38
2764.211	392.71
2767.695	386.38
2771.175	376.04
2774.652	377.04
2778.127	367.04
2781.598	369.71
2785.067	364.04
2788.532	363.71
2791.995	370.38
2795.455	368.71
2798.911	374.71
2802.365	380.38
2805.816	380.38
2809.264	381.38
2812.709	392.71
2816.151	399.71
2819.59	398.71
2823.026	402.71
2826.46	408.38
2829.89	416.04
2833.318	427.71
2836.742	430.71
2840.164	436.38
2843.583	447.38
2846.999	453.38
2850.412	465.04
2853.822	479.71
2857.229	497.04
2860.634	513.04
2864.035	521.38
2867.434	535.71
2870.83	543.71
2874.223	555.38
2877.613	552.71
2881	572.04
2884.385	573.71
2887.766	574.04
2891.145	575.71
2894.521	579.04
2897.894	587.04
2901.264	590.38
2904.631	607.71
2907.996	622.04
2911.358	636.38
2914.717	656.04
2918.073	658.71
2921.426	682.04
2924.777	683.04
2928.124	679.71
2931.469	669.04
2934.811	638.38
2938.15	609.71
2941.487	578.04
2944.821	556.04
2948.152	529.71
2951.48	505.38
2954.805	505.04
2958.128	499.04
2961.447	505.38
2964.765	505.71
2968.079	509.71
2971.39	512.04
2974.699	493.71
2978.005	475.71
2981.308	451.04
2984.609	430.71
2987.907	414.38
2991.202	392.71
2994.494	381.38
2997.784	364.71
3001.07	363.71
3004.355	345.71
3007.636	335.71
3010.915	307.38
3014.191	282.04
3017.464	261.04
3020.734	240.71
3024.002	221.71
3027.267	201.04
3030.53	192.04
3033.789	188.71
3037.046	173.38
3040.301	168.71
3043.552	171.04
3046.801	168.04
3050.048	163.38
3053.291	170.04
3056.532	169.38
3059.771	174.04
3063.006	185.38
3066.239	195.04
3069.469	210.38
3072.697	227.04
3075.922	243.04
3079.144	263.04
3082.364	289.04
3085.581	315.38
3088.795	300.38
3092.007	265.71
3095.216	214.04
3098.423	189.38
3101.627	165.38
3104.828	143.71
3108.026	136.04
3111.222	122.71
3114.416	121.04
3117.607	107.71
3120.795	102.04
3123.98	92.04
3127.163	87.04
3130.344	85.04
3133.521	84.04
3136.696	82.38
3139.869	74.38
3143.039	72.71
3146.206	68.71
3149.371	64.38
3152.533	59.71
3155.693	57.71
3158.85	55.38
3162.005	52.38
3165.157	50.71
3168.306	39.04
3171.453	34.04
3174.597	38.38
3177.739	31.04
3180.878	27.71
3184.014	27.38
3187.149	25.71
3190.28	21.71
3193.409	19.04
3196.536	17.04
3199.659	16.04
3202.781	17.38
3205.9	15.38
3209.016	14.04
3212.13	9.38
3215.241	11.71
3218.35	8.71
3221.456	1.71
3224.56	6.71
3227.661	4.71
3230.76	2.04
3233.856	3.04
3236.95	-1.62
3240.041	-7.96
3243.13	-2.29
3246.216	-4.62
3249.3	-4.96
3252.382	-7.29
3255.46	-5.62
3258.537	-7.96
3261.611	-9.62
3264.682	-11.96
3267.751	-12.62
3270.818	-6.29
3273.882	-10.96
3276.943	-13.96
3280.002	-17.62
3283.059	-17.96
3286.113	-20.29
3289.165	-20.62
3292.214	-23.62
3295.261	-24.62
3298.306	-31.29
3301.348	-32.96
3304.387	-33.29
3307.425	-32.96
3310.459	-34.62
3313.492	-36.29
3316.521	-39.62
3319.549	-36.96
3322.574	-39.96
3325.597	-41.29
3328.617	-38.96
3331.635	-42.62
3334.65	-45.29
3337.663	-42.62
3340.674	-42.96
3343.682	-43.29
3346.688	-46.29
3349.691	-45.96
3352.692	-40.96
3355.691	-44.29
3358.687	-48.29
3361.681	-46.62
3364.673	-48.29
3367.662	-50.96
3370.649	-51.62
3373.633	-53.96
3376.615	-52.62
3379.595	-51.96
3382.572	-57.62
3385.547	-57.62
3388.52	-57.29
3391.49	-59.62
3394.458	-61.29
3397.424	-59.96
3400.387	-61.62
3403.348	-61.96
3406.307	-62.62
3409.263	-63.96
3412.217	-61.96
3415.168	-63.62
3418.118	-63.96
3421.065	-62.96
3424.009	-66.29
3426.951	-66.29
3429.891	-68.62
3432.829	-63.29
3435.764	-69.62
3438.697	-68.96
3441.628	-70.62
3444.557	-67.62
3447.483	-70.62
3450.407	-69.96
3453.328	-70.96
3456.247	-72.62
3459.164	-75.62
3462.079	-73.96
3464.991	-71.96
3467.902	-73.96
3470.809	-77.29
3473.715	-76.62
3476.618	-76.62
3479.519	-77.29
3482.418	-78.62
3485.315	-80.29
3488.209	-77.96
3491.101	-78.62
3493.99	-77.29
3496.878	-78.96
3499.763	-81.29
3502.646	-81.29
3505.527	-77.29
3508.405	-81.62
3511.281	-81.62
3514.155	-79.96
3517.027	-81.29
3519.897	-80.62
3522.764	-83.29
3525.629	-85.96
3528.492	-84.62
3531.352	-84.29
3534.211	-85.62
3537.067	-87.29
3539.921	-88.29
3542.773	-86.29
3545.622	-89.62
3548.469	-85.96
3551.315	-86.29
3554.157	-88.62
3556.998	-87.96
3559.837	-90.29
3562.673	-89.29
3565.507	-88.29
3568.339	-88.96
3571.169	-92.62
3573.996	-92.29
3576.822	-89.62
3579.645	-90.96
3582.466	-91.96
3585.285	-92.29
3588.101	-90.96
3590.916	-93.29
3593.728	-95.29
3596.538	-93.96
3599.346	-97.29
3602.152	-93.29
3604.956	-96.29
3607.757	-93.96
3610.556	-97.62
3613.354	-95.96
3616.149	-99.29
3618.942	-96.62
3621.732	-101.96
3624.521	-99.62
3627.307	-99.96
3630.092	-98.62
3632.874	-100.96
3635.654	-98.29
3638.432	-98.62
3641.208	-99.29
3643.982	-99.29
3646.753	-98.96
3649.523	-98.96
3652.29	-98.29
3655.055	-100.96
3657.818	-100.29
3660.579	-103.29
3663.338	-100.96
3666.095	-100.96
3668.849	-103.29
3671.602	-101.29
3674.352	-100.96
3677.101	-104.29
3679.847	-101.96
3682.591	-104.29
3685.333	-104.29
3688.073	-101.96
3690.811	-100.96
3693.547	-102.29
3696.281	-102.29
3699.013	-102.96
3701.742	-102.62
3704.47	-100.29
3707.195	-105.29
3709.919	-101.29
3712.64	-104.29
3715.359	-100.96
3718.076	-101.62
3720.792	-104.62
3723.505	-104.29
3726.216	-102.29
3728.925	-102.29
3731.632	-104.62
3734.336	-103.29
3737.039	-104.62
3739.74	-103.29
3742.439	-104.62
3745.136	-107.62
3747.83	-106.29
3750.523	-105.96
3753.213	-104.96
3755.902	-104.96
3758.589	-106.96
3761.273	-101.96
3763.956	-104.96
3766.636	-102.62
3769.315	-104.96
3771.991	-104.29
3774.665	-103.29
3777.338	-104.96
3780.008	-105.96
3782.677	-103.96
3785.343	-103.62
3788.007	-105.29
3790.67	-108.96
3793.33	-102.62
3795.989	-103.62
3798.645	-104.29
3801.299	-105.96
3803.952	-103.29
3806.602	-107.29
3809.251	-103.96
3811.897	-105.29
3814.542	-106.62
3817.184	-104.62
3819.825	-104.29
3822.463	-108.29
3825.1	-105.62
3827.735	-103.62
3830.367	-106.62
3832.998	-106.29
3835.627	-103.96
3838.253	-102.96
3840.878	-106.96
3843.501	-105.96
3846.122	-105.62
3848.741	-106.96
3851.358	-107.62
3853.973	-107.29
3856.586	-110.96
3859.197	-109.62
3861.806	-105.62
3864.414	-107.62
3867.019	-108.29
3869.622	-106.96
3872.224	-102.96
3874.823	-104.96
3877.421	-101.29
3880.016	-94.62
3882.61	-90.96
3885.202	-88.96
3887.792	-95.29
3890.38	-103.62
3892.966	-105.62
3895.55	-108.96
3898.132	-109.96
3900.713	-108.62
3903.291	-109.96
3905.868	-109.96
3908.442	-108.29
3911.015	-108.62
3913.586	-109.96
3916.155	-108.96
3918.722	-110.96
3921.287	-110.96
3923.85	-107.29
3926.411	-111.96
3928.971	-110.62
3931.528	-109.96
3934.084	-108.29
3936.638	-108.62
3939.19	-110.62
3941.74	-108.96
3944.288	-108.62
3946.834	-107.62
3949.378	-108.29
3951.921	-106.96
3954.462	-110.62
3957	-109.29
3959.537	-106.29
3962.072	-104.62
3964.606	-104.29
3967.137	-108.29
3969.667	-105.96
3972.194	-106.62
3974.72	-106.96
3977.244	-108.96
3979.766	-107.62
3982.286	-104.29
3984.805	-106.62
3987.321	-107.29
3989.836	-104.96
3992.349	-105.96
3994.86	-107.96
3997.369	-105.62
3999.877	-105.62
4002.382	-107.29
4004.886	-109.62
4007.388	-105.62
4009.888	-104.29
4012.386	-104.29
4014.883	-104.62
4017.377	-104.62
4019.87	-106.96
4022.361	-106.29
4024.85	-105.62
4027.338	-106.96
4029.823	-104.96
4032.307	-106.62
4034.789	-105.29
4037.269	-104.62
4039.747	-106.62
4042.224	-103.62
4044.699	-103.96
4047.172	-107.62
4049.643	-104.29
4052.112	-105.29
4054.58	-103.29
4057.046	-102.29
4059.51	-102.62
4061.972	-107.29
4064.432	-102.96
4066.891	-102.96
4069.348	-101.62
4071.803	-103.62
4074.256	-100.62
4076.708	-102.29
4079.158	-103.62
4081.606	-105.96
4084.052	-103.62
4086.497	-100.96
4088.939	-103.62
4091.38	-104.29
4093.819	-106.29
4096.257	-112.62
4098.693	-113.29
4101.127	-111.29
4103.559	-115.29
4105.989	-54.96
4108.418	-45.96
4110.845	-47.29
4113.27	-36.96
4115.694	-32.62
4118.115	-24.96
4120.535	-104.62
4122.954	-104.96
4125.37	-105.62
4127.785	-105.96
4130.198	-108.29
4132.609	-106.62
4135.019	-114.96
4137.427	-115.96
4139.833	-114.96
4142.237	-114.96
