Data from SERS-DW_RamanShift_2.txt Node
Date: Tue Nov 07 11:11:32 IST 2017
User: aro
Spectrometer: QEPB0276
Trigger mode: 0
Integration Time (sec): 1.500000E1
Scans to average: 3
Electric dark correction enabled: true
Nonlinearity correction enabled: false
Boxcar width: 0
XAxis mode: Raman Shifts
Number of Pixels in Spectrum: 1044
>>>>>Begin Spectral Data<<<<<
160.701	-2.08
166.742	16.25
172.777	64.58
178.805	218.25
184.826	612.58
190.841	1345.25
196.849	2291.92
202.85	3007.92
208.845	3233.92
214.833	3198.25
220.815	3192.58
226.789	3238.92
232.758	3311.58
238.719	3408.58
244.674	3456.58
250.623	3510.92
256.565	3536.58
262.5	3623.92
268.429	3728.58
274.351	3855.58
280.267	3976.25
286.176	4048.25
292.079	3988.58
297.975	3884.58
303.865	3826.58
309.748	3820.92
315.625	3794.25
321.495	3762.92
327.359	3752.58
333.217	3749.92
339.068	3756.58
344.912	3765.58
350.751	3771.92
356.583	3779.92
362.408	3828.25
368.227	3890.25
374.04	4003.92
379.847	4201.58
385.647	4517.92
391.44	4883.92
397.228	5161.25
403.009	5246.92
408.784	5015.25
414.553	4688.25
420.315	4437.25
426.071	4244.58
431.821	4029.92
437.565	3827.92
443.302	3746.92
449.033	3705.92
454.758	3680.25
460.477	3660.58
466.189	3624.25
471.896	3624.25
477.596	3620.25
483.29	3638.92
488.978	3669.92
494.66	3722.92
500.335	3837.92
506.005	4028.92
511.668	4287.58
517.325	4530.25
522.977	4585.58
528.622	4349.92
534.261	4052.92
539.894	3769.92
545.521	3597.25
551.141	3475.25
556.756	3384.92
562.365	3339.58
567.968	3312.92
573.565	3291.92
579.155	3288.25
584.74	3259.92
590.319	3259.92
595.892	3259.25
601.459	3292.92
607.02	3343.58
612.575	3449.25
618.124	3654.25
623.667	4042.25
629.204	4747.25
634.735	5737.25
640.261	6453.92
645.781	6387.58
651.294	5706.92
656.802	4903.92
662.304	4196.25
667.8	3750.58
673.29	3479.92
678.775	3302.92
684.254	3183.58
689.726	3098.25
695.193	3056.58
700.655	3051.25
706.11	3101.25
711.56	3057.58
717.004	2925.58
722.442	2801.25
727.874	2751.25
733.301	2714.92
738.722	2695.58
744.137	2688.25
749.547	2690.58
754.951	2700.58
760.349	2686.92
765.741	2676.58
771.128	2687.92
776.509	2699.25
781.885	2734.92
787.254	2770.58
792.618	2835.92
797.977	2949.58
803.33	2971.58
808.677	2874.25
814.019	2789.25
819.355	2779.92
824.686	2774.25
830.011	2759.58
835.33	2790.25
840.644	2817.58
845.952	2900.25
851.255	3108.58
856.552	3465.25
861.844	3832.25
867.13	3809.92
872.41	3373.25
877.686	2971.25
882.955	2800.58
888.219	2721.58
893.478	2650.25
898.731	2590.92
903.979	2542.25
909.221	2480.25
914.458	2450.92
919.69	2428.58
924.916	2422.58
930.136	2414.92
935.351	2409.58
940.561	2414.25
945.766	2424.92
950.965	2405.58
956.158	2377.25
961.347	2375.58
966.529	2340.25
971.707	2325.25
976.879	2315.92
982.046	2347.25
987.208	2353.92
992.364	2407.25
997.515	2503.58
1002.66	2559.92
1007.801	2574.25
1012.936	2533.25
1018.066	2480.25
1023.19	2451.25
1028.309	2445.92
1033.423	2431.92
1038.532	2406.58
1043.636	2388.92
1048.734	2343.25
1053.827	2321.58
1058.915	2296.25
1063.998	2290.92
1069.075	2287.58
1074.147	2319.92
1079.214	2350.92
1084.276	2455.92
1089.333	2607.25
1094.385	2814.58
1099.431	3004.25
1104.472	2988.58
1109.509	2836.25
1114.54	2732.58
1119.565	2717.92
1124.586	2680.58
1129.602	2568.25
1134.613	2442.58
1139.618	2344.92
1144.619	2276.25
1149.614	2260.92
1154.604	2238.58
1159.589	2239.92
1164.57	2223.25
1169.545	2261.92
1174.515	2316.58
1179.48	2392.25
1184.44	2469.92
1189.395	2489.92
1194.345	2438.92
1199.29	2348.92
1204.23	2255.25
1209.165	2220.92
1214.095	2188.92
1219.021	2193.58
1223.941	2208.92
1228.856	2225.58
1233.766	2253.25
1238.672	2261.58
1243.572	2298.25
1248.467	2324.92
1253.358	2317.58
1258.244	2326.58
1263.124	2363.25
1268	2429.92
1272.871	2541.25
1277.737	2752.58
1282.599	3014.25
1287.455	3250.25
1292.306	3382.92
1297.153	3370.25
1301.995	3190.25
1306.832	2938.25
1311.664	2753.58
1316.491	2632.58
1321.314	2537.92
1326.132	2418.25
1330.945	2332.58
1335.753	2277.25
1340.556	2232.25
1345.354	2174.58
1350.148	2152.92
1354.937	2121.58
1359.722	2093.58
1364.501	2087.58
1369.276	2055.92
1374.046	2064.92
1378.811	2048.25
1383.572	2029.92
1388.327	2008.25
1393.079	1984.25
1397.825	1971.25
1402.567	1977.92
1407.304	1979.25
1412.036	2020.58
1416.764	2079.25
1421.487	2107.92
1426.205	2102.92
1430.919	2034.25
1435.628	2021.25
1440.333	2055.58
1445.032	2086.92
1449.727	2115.25
1454.418	2146.92
1459.104	2170.25
1463.785	2187.25
1468.462	2168.92
1473.134	2074.58
1477.802	2001.58
1482.465	1939.92
1487.123	1901.92
1491.777	1890.92
1496.426	1889.92
1501.071	1896.58
1505.711	1900.25
1510.347	1880.25
1514.978	1890.92
1519.604	1856.58
1524.226	1853.25
1528.844	1822.58
1533.457	1794.58
1538.065	1762.92
1542.669	1755.58
1547.269	1738.92
1551.864	1733.92
1556.454	1732.58
1561.041	1733.25
1565.622	1722.58
1570.199	1713.25
1574.772	1743.92
1579.34	1780.58
1583.904	1802.92
1588.464	1823.58
1593.019	1864.58
1597.569	1942.58
1602.115	2142.58
1606.657	2497.25
1611.195	3138.58
1615.728	4123.25
1620.256	4667.25
1624.78	3946.58
1629.3	2764.92
1633.816	2095.25
1638.327	1843.25
1642.834	1744.92
1647.336	1691.58
1651.834	1658.58
1656.328	1646.58
1660.817	1638.92
1665.302	1641.25
1669.783	1626.25
1674.259	1625.92
1678.732	1617.25
1683.199	1609.25
1687.663	1611.58
1692.122	1594.58
1696.577	1581.25
1701.028	1567.92
1705.474	1569.92
1709.917	1615.92
1714.355	1735.92
1718.788	1979.58
1723.218	2385.92
1727.643	2910.25
1732.064	3284.92
1736.481	3137.92
1740.893	2658.58
1745.301	2220.58
1749.705	1873.92
1754.105	1631.58
1758.501	1469.92
1762.893	1368.92
1767.28	1317.92
1771.663	1292.58
1776.042	1265.92
1780.417	1255.92
1784.787	1245.58
1789.154	1232.25
1793.516	1235.58
1797.874	1217.58
1802.228	1206.25
1806.578	1175.92
1810.924	1152.25
1815.266	1125.58
1819.603	1097.92
1823.937	1100.25
1828.266	1075.58
1832.591	1071.92
1836.913	1064.92
1841.23	1062.25
1845.543	1058.92
1849.852	1071.25
1854.156	1070.92
1858.457	1073.92
1862.754	1075.58
1867.047	1072.92
1871.335	1082.25
1875.62	1085.58
1879.9	1081.92
1884.177	1074.58
1888.449	1076.92
1892.718	1070.92
1896.982	1066.58
1901.243	1068.58
1905.499	1051.25
1909.752	1055.92
1914	1054.25
1918.245	1049.25
1922.485	1043.92
1926.722	1053.92
1930.954	1054.25
1935.183	1057.25
1939.408	1045.58
1943.628	1046.92
1947.845	1020.58
1952.058	997.92
1956.267	976.58
1960.472	952.25
1964.673	925.25
1968.87	901.92
1973.063	877.25
1977.252	858.25
1981.438	851.25
1985.619	826.25
1989.797	816.92
1993.971	806.92
1998.14	804.58
2002.306	792.58
2006.469	792.58
2010.627	782.58
2014.781	783.92
2018.932	774.25
2023.078	764.92
2027.221	757.25
2031.36	749.25
2035.495	736.92
2039.627	727.25
2043.754	724.92
2047.878	709.92
2051.998	708.25
2056.114	713.25
2060.226	709.58
2064.334	713.92
2068.439	718.25
2072.54	720.92
2076.637	720.58
2080.73	730.25
2084.82	721.25
2088.906	723.92
2092.988	723.58
2097.066	709.25
2101.14	702.58
2105.211	686.92
2109.278	677.25
2113.342	661.58
2117.401	655.25
2121.457	646.58
2125.509	633.25
2129.558	621.25
2133.602	620.25
2137.643	615.25
2141.681	602.92
2145.714	600.58
2149.744	590.58
2153.77	585.92
2157.793	582.25
2161.812	575.25
2165.827	561.92
2169.838	553.58
2173.846	547.92
2177.851	534.92
2181.851	533.25
2185.848	521.58
2189.841	522.92
2193.831	514.25
2197.817	509.58
2201.799	506.25
2205.778	506.25
2209.753	494.92
2213.725	504.58
2217.693	499.92
2221.657	499.58
2225.618	497.25
2229.575	498.92
2233.529	497.58
2237.479	492.92
2241.425	484.58
2245.368	473.25
2249.307	468.25
2253.243	455.58
2257.175	458.58
2261.104	445.25
2265.029	446.92
2268.95	435.58
2272.868	431.92
2276.783	426.92
2280.694	419.25
2284.601	417.58
2288.505	409.58
2292.405	401.58
2296.302	402.92
2300.195	397.25
2304.085	389.92
2307.971	383.58
2311.854	374.58
2315.734	372.25
2319.609	367.25
2323.482	365.25
2327.351	364.58
2331.216	376.25
2335.078	385.58
2338.937	368.25
2342.792	348.58
2346.643	339.58
2350.492	341.25
2354.336	348.92
2358.178	340.25
2362.015	344.92
2365.85	346.25
2369.681	346.25
2373.508	347.92
2377.333	345.92
2381.153	340.25
2384.971	342.25
2388.785	336.25
2392.595	335.92
2396.402	335.25
2400.206	333.25
2404.007	330.92
2407.804	330.25
2411.597	329.58
2415.388	328.25
2419.174	323.25
2422.958	326.25
2426.738	319.25
2430.515	318.58
2434.289	319.92
2438.059	313.25
2441.825	311.25
2445.589	310.92
2449.349	299.92
2453.106	298.58
2456.859	306.92
2460.61	294.92
2464.356	292.25
2468.1	289.25
2471.84	287.25
2475.577	283.25
2479.311	281.92
2483.041	283.25
2486.768	287.92
2490.492	282.25
2494.213	285.92
2497.93	280.92
2501.644	282.25
2505.355	286.25
2509.062	278.92
2512.766	276.92
2516.467	282.58
2520.165	278.58
2523.859	277.25
2527.551	274.25
2531.239	274.58
2534.923	271.92
2538.605	266.58
2542.283	270.92
2545.958	268.92
2549.63	262.92
2553.299	267.25
2556.964	268.58
2560.626	268.25
2564.285	267.25
2567.941	261.25
2571.594	259.58
2575.243	257.92
2578.89	254.25
2582.533	249.25
2586.173	245.92
2589.809	244.25
2593.443	238.25
2597.073	239.58
2600.701	235.58
2604.325	232.58
2607.946	227.25
2611.564	230.58
2615.178	224.92
2618.79	228.25
2622.398	223.92
2626.004	217.92
2629.606	213.92
2633.205	204.58
2636.801	197.92
2640.394	200.25
2643.983	187.92
2647.57	187.25
2651.153	182.25
2654.734	179.25
2658.311	175.58
2661.885	167.58
2665.456	169.58
2669.025	163.58
2672.589	162.25
2676.151	158.58
2679.71	157.58
2683.266	158.58
2686.819	155.25
2690.368	148.92
2693.915	146.25
2697.458	145.58
2700.999	142.58
2704.536	138.25
2708.071	134.58
2711.602	133.58
2715.13	129.58
2718.656	130.58
2722.178	132.25
2725.697	131.92
2729.214	130.25
2732.727	132.92
2736.237	129.25
2739.744	130.92
2743.249	135.92
2746.75	130.58
2750.248	129.25
2753.743	124.25
2757.236	118.25
2760.725	119.92
2764.211	113.92
2767.695	113.92
2771.175	111.92
2774.652	108.58
2778.127	107.92
2781.598	107.58
2785.067	107.25
2788.532	103.25
2791.995	108.25
2795.455	103.92
2798.911	106.58
2802.365	106.58
2805.816	108.25
2809.264	105.92
2812.709	106.92
2816.151	108.58
2819.59	108.25
2823.026	103.25
2826.46	107.58
2829.89	101.25
2833.318	98.25
2836.742	99.92
2840.164	97.25
2843.583	97.92
2846.999	94.58
2850.412	92.58
2853.822	97.92
2857.229	97.92
2860.634	94.25
2864.035	93.25
2867.434	97.58
2870.83	100.58
2874.223	100.92
2877.613	100.58
2881	102.25
2884.385	98.92
2887.766	104.92
2891.145	100.58
2894.521	97.25
2897.894	100.25
2901.264	101.25
2904.631	106.92
2907.996	108.92
2911.358	112.58
2914.717	115.58
2918.073	111.92
2921.426	111.58
2924.777	104.92
2928.124	100.92
2931.469	100.25
2934.811	101.92
2938.15	104.92
2941.487	104.92
2944.821	106.25
2948.152	110.92
2951.48	112.25
2954.805	119.92
2958.128	126.92
2961.447	133.25
2964.765	145.92
2968.079	151.25
2971.39	151.58
2974.699	147.25
2978.005	137.25
2981.308	125.58
2984.609	123.25
2987.907	110.25
2991.202	109.58
2994.494	106.25
2997.784	98.25
3001.07	103.58
3004.355	99.25
3007.636	93.92
3010.915	86.25
3014.191	75.58
3017.464	67.92
3020.734	61.92
3024.002	54.92
3027.267	47.92
3030.53	45.58
3033.789	39.92
3037.046	36.25
3040.301	33.58
3043.552	36.58
3046.801	32.25
3050.048	36.58
3053.291	38.58
3056.532	37.92
3059.771	42.25
3063.006	49.25
3066.239	55.25
3069.469	68.92
3072.697	77.92
3075.922	83.92
3079.144	103.25
3082.364	116.58
3085.581	127.92
3088.795	127.25
3092.007	107.58
3095.216	85.92
3098.423	61.25
3101.627	54.92
3104.828	40.92
3108.026	35.92
3111.222	29.25
3114.416	22.58
3117.607	22.25
3120.795	17.58
3123.98	14.25
3127.163	14.92
3130.344	9.58
3133.521	8.58
3136.696	9.25
3139.869	2.92
3143.039	1.25
3146.206	2.25
3149.371	1.92
3152.533	-5.42
3155.693	-1.08
3158.85	-5.08
3162.005	-5.75
3165.157	-9.08
3168.306	-9.42
3171.453	-12.75
3174.597	-11.08
3177.739	-13.42
3180.878	-17.08
3184.014	-13.75
3187.149	-16.08
3190.28	-16.42
3193.409	-18.75
3196.536	-20.42
3199.659	-19.08
3202.781	-21.42
3205.9	-20.75
3209.016	-17.75
3212.13	-21.08
3215.241	-20.08
3218.35	-15.75
3221.456	-22.75
3224.56	-19.75
3227.661	-19.75
3230.76	-23.08
3233.856	-24.42
3236.95	-22.75
3240.041	-27.42
3243.13	-24.08
3246.216	-26.08
3249.3	-22.75
3252.382	-25.42
3255.46	-24.42
3258.537	-23.75
3261.611	-27.08
3264.682	-25.08
3267.751	-24.42
3270.818	-22.75
3273.882	-23.75
3276.943	-25.75
3280.002	-27.75
3283.059	-29.08
3286.113	-29.08
3289.165	-29.42
3292.214	-30.08
3295.261	-30.42
3298.306	-32.42
3301.348	-34.42
3304.387	-32.75
3307.425	-31.75
3310.459	-35.75
3313.492	-33.42
3316.521	-33.08
3319.549	-35.42
3322.574	-33.08
3325.597	-38.08
3328.617	-37.42
3331.635	-34.75
3334.65	-38.42
3337.663	-37.08
3340.674	-35.08
3343.682	-34.08
3346.688	-38.08
3349.691	-37.75
3352.692	-37.42
3355.691	-37.42
3358.687	-40.42
3361.681	-38.42
3364.673	-41.42
3367.662	-41.08
3370.649	-44.75
3373.633	-45.08
3376.615	-42.08
3379.595	-43.42
3382.572	-43.08
3385.547	-49.42
3388.52	-45.08
3391.49	-48.08
3394.458	-49.42
3397.424	-48.75
3400.387	-46.75
3403.348	-49.08
3406.307	-49.42
3409.263	-51.42
3412.217	-50.08
3415.168	-50.42
3418.118	-51.42
3421.065	-51.08
3424.009	-51.08
3426.951	-52.08
3429.891	-52.08
3432.829	-49.75
3435.764	-53.42
3438.697	-54.08
3441.628	-55.08
3444.557	-52.75
3447.483	-56.75
3450.407	-55.75
3453.328	-56.42
3456.247	-55.08
3459.164	-57.75
3462.079	-59.08
3464.991	-54.42
3467.902	-57.08
3470.809	-58.75
3473.715	-51.42
3476.618	-59.42
3479.519	-59.42
3482.418	-61.08
3485.315	-58.42
3488.209	-58.42
3491.101	-58.42
3493.99	-57.08
3496.878	-60.42
3499.763	-60.75
3502.646	-60.75
3505.527	-57.42
3508.405	-61.42
3511.281	-59.75
3514.155	-60.42
3517.027	-59.08
3519.897	-57.42
3522.764	-59.08
3525.629	-63.75
3528.492	-61.42
3531.352	-62.75
3534.211	-62.75
3537.067	-64.42
3539.921	-63.08
3542.773	-62.08
3545.622	-63.08
3548.469	-63.42
3551.315	-61.75
3554.157	-62.42
3556.998	-62.75
3559.837	-61.42
3562.673	-63.08
3565.507	-62.42
3568.339	-62.75
3571.169	-62.75
3573.996	-64.75
3576.822	-61.75
3579.645	-62.42
3582.466	-65.42
3585.285	-66.42
3588.101	-63.42
3590.916	-64.75
3593.728	-66.42
3596.538	-67.42
3599.346	-65.42
3602.152	-64.08
3604.956	-66.42
3607.757	-67.08
3610.556	-67.75
3613.354	-65.42
3616.149	-66.08
3618.942	-65.08
3621.732	-69.08
3624.521	-65.42
3627.307	-65.08
3630.092	-68.08
3632.874	-66.75
3635.654	-66.08
3638.432	-65.42
3641.208	-66.08
3643.982	-66.08
3646.753	-64.75
3649.523	-65.75
3652.29	-65.08
3655.055	-64.08
3657.818	-67.08
3660.579	-67.42
3663.338	-66.08
3666.095	-67.42
3668.849	-68.42
3671.602	-67.08
3674.352	-67.75
3677.101	-71.75
3679.847	-68.42
3682.591	-69.08
3685.333	-68.75
3688.073	-67.08
3690.811	-67.75
3693.547	-65.75
3696.281	-70.08
3699.013	-67.75
3701.742	-68.08
3704.47	-67.42
3707.195	-70.42
3709.919	-70.75
3712.64	-68.75
3715.359	-69.08
3718.076	-71.75
3720.792	-71.75
3723.505	-68.08
3726.216	-70.42
3728.925	-70.75
3731.632	-69.08
3734.336	-68.08
3737.039	-67.42
3739.74	-67.42
3742.439	-69.42
3745.136	-70.75
3747.83	-68.75
3750.523	-68.75
3753.213	-66.08
3755.902	-67.08
3758.589	-69.42
3761.273	-66.75
3763.956	-68.42
3766.636	-67.08
3769.315	-69.42
3771.991	-66.08
3774.665	-67.42
3777.338	-65.75
3780.008	-65.75
3782.677	-64.42
3785.343	-69.75
3788.007	-65.75
3790.67	-69.08
3793.33	-64.75
3795.989	-65.75
3798.645	-66.08
3801.299	-70.08
3803.952	-66.08
3806.602	-72.75
3809.251	-71.08
3811.897	-69.08
3814.542	-72.08
3817.184	-68.75
3819.825	-68.08
3822.463	-72.75
3825.1	-70.75
3827.735	-69.75
3830.367	-71.75
3832.998	-71.08
3835.627	-69.75
3838.253	-70.08
3840.878	-71.08
3843.501	-71.08
3846.122	-69.42
3848.741	-69.42
3851.358	-70.08
3853.973	-69.08
3856.586	-72.08
3859.197	-71.42
3861.806	-70.08
3864.414	-67.42
3867.019	-69.75
3869.622	-70.08
3872.224	-64.42
3874.823	-65.42
3877.421	-63.08
3880.016	-56.75
3882.61	-56.08
3885.202	-54.08
3887.792	-56.42
3890.38	-66.75
3892.966	-66.08
3895.55	-67.75
3898.132	-71.08
3900.713	-68.08
3903.291	-69.42
3905.868	-70.08
3908.442	-70.42
3911.015	-69.42
3913.586	-69.08
3916.155	-71.08
3918.722	-73.75
3921.287	-70.75
3923.85	-67.42
3926.411	-69.75
3928.971	-72.75
3931.528	-69.75
3934.084	-69.08
3936.638	-69.75
3939.19	-73.08
3941.74	-69.75
3944.288	-70.42
3946.834	-69.75
3949.378	-70.42
3951.921	-70.75
3954.462	-70.75
3957	-71.08
3959.537	-68.08
3962.072	-67.08
3964.606	-68.08
3967.137	-69.42
3969.667	-67.75
3972.194	-69.08
3974.72	-70.08
3977.244	-71.75
3979.766	-67.75
3982.286	-64.75
3984.805	-67.75
3987.321	-69.75
3989.836	-68.08
3992.349	-68.42
3994.86	-68.75
3997.369	-66.75
3999.877	-69.08
4002.382	-70.08
4004.886	-69.75
4007.388	-69.08
4009.888	-67.42
4012.386	-67.42
4014.883	-67.42
4017.377	-68.08
4019.87	-68.08
4022.361	-67.42
4024.85	-68.42
4027.338	-69.08
4029.823	-67.08
4032.307	-68.75
4034.789	-66.42
4037.269	-69.42
4039.747	-68.75
4042.224	-68.75
4044.699	-67.42
4047.172	-68.42
4049.643	-66.75
4052.112	-67.08
4054.58	-67.42
4057.046	-69.08
4059.51	-69.08
4061.972	-69.42
4064.432	-66.08
4066.891	-66.75
4069.348	-62.42
4071.803	-66.08
4074.256	-63.75
4076.708	-65.75
4079.158	-67.75
4081.606	-67.08
4084.052	-64.08
4086.497	-65.42
4088.939	-62.75
4091.38	-64.08
4093.819	-67.08
4096.257	-73.75
4098.693	-73.75
4101.127	-72.75
4103.559	-74.42
4105.989	-31.75
4108.418	-27.08
4110.845	-26.08
4113.27	-19.08
4115.694	-15.42
4118.115	-11.08
4120.535	-67.08
4122.954	-66.75
4125.37	-68.75
4127.785	-68.08
4130.198	-70.08
4132.609	-68.42
4135.019	-74.75
4137.427	-75.08
4139.833	-72.42
4142.237	-74.75
