Data from SERS-DW_RamanShift_1.txt Node
Date: Tue Nov 07 11:10:47 IST 2017
User: aro
Spectrometer: QEPB0276
Trigger mode: 0
Integration Time (sec): 1.500000E1
Scans to average: 3
Electric dark correction enabled: true
Nonlinearity correction enabled: false
Boxcar width: 0
XAxis mode: Raman Shifts
Number of Pixels in Spectrum: 1044
>>>>>Begin Spectral Data<<<<<
160.701	-4.75
166.742	12.92
172.777	66.25
178.805	227.25
184.826	636.25
190.841	1390.92
196.849	2362.25
202.85	3120.25
208.845	3370.58
214.833	3338.58
220.815	3323.25
226.789	3382.92
232.758	3475.25
238.719	3542.25
244.674	3616.58
250.623	3660.92
256.565	3712.25
262.5	3785.25
268.429	3871.25
274.351	4019.25
280.267	4140.25
286.176	4204.58
292.079	4169.92
297.975	4053.92
303.865	3997.58
309.748	3993.25
315.625	3978.25
321.495	3944.25
327.359	3930.25
333.217	3931.58
339.068	3932.92
344.912	3930.58
350.751	3943.92
356.583	3953.58
362.408	3980.58
368.227	4048.92
374.04	4154.58
379.847	4376.92
385.647	4667.25
391.44	5027.58
397.228	5319.25
403.009	5411.25
408.784	5188.92
414.553	4843.58
420.315	4616.58
426.071	4400.25
431.821	4154.25
437.565	3992.58
443.302	3922.25
449.033	3862.92
454.758	3828.58
460.477	3792.92
466.189	3784.58
471.896	3768.25
477.596	3774.92
483.29	3789.25
488.978	3833.92
494.66	3877.58
500.335	3989.25
506.005	4167.92
511.668	4455.92
517.325	4692.58
522.977	4722.92
528.622	4518.25
534.261	4196.58
539.894	3915.58
545.521	3727.92
551.141	3608.92
556.756	3538.25
562.365	3481.25
567.968	3434.92
573.565	3419.92
579.155	3415.25
584.74	3403.25
590.319	3389.58
595.892	3398.92
601.459	3425.92
607.02	3482.58
612.575	3586.58
618.124	3769.58
623.667	4178.25
629.204	4861.25
634.735	5850.58
640.261	6586.25
645.781	6508.25
651.294	5822.25
656.802	5011.25
662.304	4333.92
667.8	3890.92
673.29	3602.58
678.775	3427.58
684.254	3303.25
689.726	3205.25
695.193	3173.58
700.655	3178.25
706.11	3225.58
711.56	3179.58
717.004	3048.58
722.442	2936.92
727.874	2867.25
733.301	2829.58
738.722	2817.92
744.137	2797.25
749.547	2794.25
754.951	2804.58
760.349	2789.58
765.741	2805.25
771.128	2788.25
776.509	2803.58
781.885	2837.58
787.254	2872.58
792.618	2956.92
797.977	3067.92
803.33	3070.25
808.677	2976.58
814.019	2903.58
819.355	2891.92
824.686	2879.25
830.011	2875.92
835.33	2890.58
840.644	2918.25
845.952	3005.58
851.255	3210.92
856.552	3588.92
861.844	3938.25
867.13	3907.25
872.41	3474.92
877.686	3089.92
882.955	2889.58
888.219	2813.25
893.478	2754.25
898.731	2686.25
903.979	2633.92
909.221	2594.92
914.458	2561.25
919.69	2529.92
924.916	2511.58
930.136	2515.58
935.351	2510.92
940.561	2520.25
945.766	2511.58
950.965	2498.58
956.158	2487.92
961.347	2460.25
966.529	2444.58
971.707	2434.92
976.879	2427.92
982.046	2416.92
987.208	2459.92
992.364	2499.58
997.515	2586.92
1002.66	2663.58
1007.801	2667.25
1012.936	2623.58
1018.066	2570.25
1023.19	2538.58
1028.309	2531.58
1033.423	2520.25
1038.532	2498.58
1043.636	2466.25
1048.734	2438.58
1053.827	2400.58
1058.915	2372.25
1063.998	2367.92
1069.075	2378.25
1074.147	2408.25
1079.214	2452.92
1084.276	2525.25
1089.333	2692.92
1094.385	2899.58
1099.431	3091.92
1104.472	3071.58
1109.509	2929.25
1114.54	2823.58
1119.565	2808.25
1124.586	2756.58
1129.602	2647.92
1134.613	2510.58
1139.618	2421.92
1144.619	2356.92
1149.614	2346.92
1154.604	2330.25
1159.589	2300.25
1164.57	2307.58
1169.545	2348.25
1174.515	2412.58
1179.48	2482.92
1184.44	2563.92
1189.395	2579.92
1194.345	2525.92
1199.29	2422.25
1204.23	2343.92
1209.165	2303.25
1214.095	2275.92
1219.021	2271.58
1223.941	2284.92
1228.856	2301.58
1233.766	2328.92
1238.672	2348.25
1243.572	2387.92
1248.467	2396.58
1253.358	2395.92
1258.244	2403.58
1263.124	2427.58
1268	2497.58
1272.871	2617.92
1277.737	2817.25
1282.599	3092.58
1287.455	3318.92
1292.306	3438.25
1297.153	3450.92
1301.995	3280.92
1306.832	3014.25
1311.664	2813.25
1316.491	2714.58
1321.314	2612.25
1326.132	2503.58
1330.945	2413.58
1335.753	2332.25
1340.556	2296.58
1345.354	2257.25
1350.148	2220.25
1354.937	2197.58
1359.722	2177.25
1364.501	2157.25
1369.276	2130.92
1374.046	2123.92
1378.811	2111.25
1383.572	2096.25
1388.327	2069.58
1393.079	2044.58
1397.825	2047.25
1402.567	2033.25
1407.304	2041.92
1412.036	2089.58
1416.764	2146.92
1421.487	2190.58
1426.205	2148.92
1430.919	2099.92
1435.628	2095.92
1440.333	2107.92
1445.032	2140.92
1449.727	2187.25
1454.418	2215.92
1459.104	2239.25
1463.785	2248.58
1468.462	2226.58
1473.134	2152.25
1477.802	2066.25
1482.465	2014.25
1487.123	1968.58
1491.777	1962.92
1496.426	1951.25
1501.071	1953.92
1505.711	1955.92
1510.347	1950.58
1514.978	1936.92
1519.604	1928.58
1524.226	1906.92
1528.844	1891.25
1533.457	1862.58
1538.065	1837.25
1542.669	1809.92
1547.269	1798.92
1551.864	1798.58
1556.454	1790.25
1561.041	1793.92
1565.622	1777.58
1570.199	1765.25
1574.772	1805.92
1579.34	1829.58
1583.904	1854.58
1588.464	1877.92
1593.019	1910.92
1597.569	2000.25
1602.115	2187.58
1606.657	2543.92
1611.195	3192.25
1615.728	4173.92
1620.256	4724.58
1624.78	4018.25
1629.3	2815.25
1633.816	2137.92
1638.327	1877.25
1642.834	1796.25
1647.336	1742.92
1651.834	1715.58
1656.328	1702.25
1660.817	1700.25
1665.302	1684.25
1669.783	1683.58
1674.259	1667.92
1678.732	1661.58
1683.199	1662.58
1687.663	1651.58
1692.122	1637.58
1696.577	1619.25
1701.028	1614.92
1705.474	1606.58
1709.917	1674.58
1714.355	1792.92
1718.788	2032.25
1723.218	2429.58
1727.643	2976.58
1732.064	3350.92
1736.481	3193.92
1740.893	2702.92
1745.301	2265.58
1749.705	1921.58
1754.105	1668.92
1758.501	1525.25
1762.893	1412.25
1767.28	1359.25
1771.663	1337.92
1776.042	1311.25
1780.417	1289.92
1784.787	1290.58
1789.154	1276.58
1793.516	1272.92
1797.874	1258.58
1802.228	1252.58
1806.578	1216.25
1810.924	1198.58
1815.266	1168.92
1819.603	1141.92
1823.937	1124.58
1828.266	1119.92
1832.591	1100.92
1836.913	1100.92
1841.23	1102.58
1845.543	1098.25
1849.852	1108.58
1854.156	1098.92
1858.457	1101.58
1862.754	1104.25
1867.047	1107.92
1871.335	1119.25
1875.62	1117.25
1879.9	1119.25
1884.177	1118.25
1888.449	1104.92
1892.718	1107.92
1896.982	1100.58
1901.243	1099.25
1905.499	1090.92
1909.752	1095.25
1914	1084.25
1918.245	1094.92
1922.485	1097.25
1926.722	1092.58
1930.954	1093.25
1935.183	1089.92
1939.408	1094.92
1943.628	1078.58
1947.845	1064.92
1952.058	1039.58
1956.267	1012.25
1960.472	982.92
1964.673	951.58
1968.87	925.25
1973.063	903.92
1977.252	881.92
1981.438	866.58
1985.619	854.92
1989.797	845.25
1993.971	843.58
1998.14	829.58
2002.306	830.25
2006.469	820.92
2010.627	817.92
2014.781	804.92
2018.932	806.92
2023.078	797.58
2027.221	789.25
2031.36	769.92
2035.495	758.92
2039.627	753.58
2043.754	745.92
2047.878	743.25
2051.998	739.92
2056.114	733.25
2060.226	739.25
2064.334	741.25
2068.439	740.25
2072.54	741.25
2076.637	748.92
2080.73	751.58
2084.82	746.58
2088.906	753.92
2092.988	747.25
2097.066	734.25
2101.14	722.25
2105.211	704.58
2109.278	695.58
2113.342	683.25
2117.401	671.58
2121.457	668.92
2125.509	655.58
2129.558	643.92
2133.602	641.58
2137.643	631.58
2141.681	627.25
2145.714	623.25
2149.744	612.25
2153.77	604.58
2157.793	604.58
2161.812	592.58
2165.827	588.92
2169.838	576.92
2173.846	564.92
2177.851	552.92
2181.851	547.25
2185.848	536.58
2189.841	540.92
2193.831	529.58
2197.817	527.58
2201.799	529.25
2205.778	524.92
2209.753	521.25
2213.725	511.92
2217.693	517.25
2221.657	522.25
2225.618	514.25
2229.575	517.25
2233.529	510.25
2237.479	510.58
2241.425	496.92
2245.368	488.25
2249.307	485.58
2253.243	475.58
2257.175	469.92
2261.104	461.25
2265.029	458.58
2268.95	445.25
2272.868	442.58
2276.783	435.58
2280.694	435.58
2284.601	427.58
2288.505	422.25
2292.405	415.25
2296.302	413.92
2300.195	410.25
2304.085	397.92
2307.971	395.58
2311.854	393.25
2315.734	382.25
2319.609	380.25
2323.482	369.25
2327.351	380.92
2331.216	393.92
2335.078	402.25
2338.937	372.92
2342.792	361.25
2346.643	358.92
2350.492	351.58
2354.336	357.25
2358.178	355.92
2362.015	353.58
2365.85	353.58
2369.681	352.92
2373.508	354.58
2377.333	358.58
2381.153	353.92
2384.971	348.92
2388.785	347.92
2392.595	339.25
2396.402	339.25
2400.206	340.25
2404.007	340.25
2407.804	338.58
2411.597	331.92
2415.388	335.25
2419.174	333.25
2422.958	330.25
2426.738	322.58
2430.515	322.25
2434.289	323.25
2438.059	318.92
2441.825	320.25
2445.589	309.58
2449.349	315.25
2453.106	308.58
2456.859	308.25
2460.61	301.58
2464.356	299.92
2468.1	297.58
2471.84	293.58
2475.577	295.58
2479.311	295.92
2483.041	289.25
2486.768	293.25
2490.492	289.58
2494.213	292.58
2497.93	291.58
2501.644	293.58
2505.355	294.58
2509.062	286.25
2512.766	292.25
2516.467	288.58
2520.165	281.25
2523.859	283.92
2527.551	281.58
2531.239	277.25
2534.923	276.92
2538.605	274.92
2542.283	279.25
2545.958	272.92
2549.63	277.58
2553.299	276.92
2556.964	270.92
2560.626	272.25
2564.285	269.25
2567.941	258.25
2571.594	266.58
2575.243	257.92
2578.89	256.92
2582.533	255.25
2586.173	253.25
2589.809	248.92
2593.443	250.25
2597.073	244.58
2600.701	234.58
2604.325	235.92
2607.946	232.92
2611.564	232.58
2615.178	231.92
2618.79	225.92
2622.398	223.58
2626.004	223.92
2629.606	215.92
2633.205	213.25
2636.801	205.25
2640.394	201.58
2643.983	198.58
2647.57	191.25
2651.153	189.25
2654.734	184.92
2658.311	177.25
2661.885	176.58
2665.456	166.58
2669.025	164.25
2672.589	165.25
2676.151	160.58
2679.71	163.25
2683.266	161.25
2686.819	156.92
2690.368	151.25
2693.915	154.25
2697.458	144.92
2700.999	147.92
2704.536	140.25
2708.071	134.58
2711.602	136.25
2715.13	136.58
2718.656	133.25
2722.178	130.25
2725.697	132.92
2729.214	134.58
2732.727	133.58
2736.237	135.92
2739.744	131.92
2743.249	133.92
2746.75	130.25
2750.248	126.92
2753.743	124.58
2757.236	121.58
2760.725	121.25
2764.211	119.25
2767.695	114.58
2771.175	113.58
2774.652	110.25
2778.127	109.25
2781.598	105.58
2785.067	108.58
2788.532	103.58
2791.995	111.25
2795.455	109.58
2798.911	110.58
2802.365	111.92
2805.816	107.58
2809.264	110.25
2812.709	111.58
2816.151	109.92
2819.59	113.25
2823.026	105.25
2826.46	107.58
2829.89	102.92
2833.318	104.25
2836.742	102.58
2840.164	94.92
2843.583	98.58
2846.999	96.58
2850.412	96.25
2853.822	101.25
2857.229	97.58
2860.634	94.25
2864.035	97.92
2867.434	96.92
2870.83	102.92
2874.223	103.92
2877.613	100.25
2881	104.92
2884.385	98.25
2887.766	98.92
2891.145	98.58
2894.521	98.92
2897.894	100.58
2901.264	103.58
2904.631	106.92
2907.996	109.92
2911.358	117.58
2914.717	115.58
2918.073	107.58
2921.426	108.25
2924.777	104.92
2928.124	102.92
2931.469	100.25
2934.811	104.92
2938.15	106.25
2941.487	104.92
2944.821	109.92
2948.152	111.92
2951.48	112.92
2954.805	119.25
2958.128	127.92
2961.447	137.92
2964.765	149.58
2968.079	149.92
2971.39	152.58
2974.699	147.92
2978.005	138.25
2981.308	125.92
2984.609	119.58
2987.907	117.58
2991.202	108.58
2994.494	103.92
2997.784	99.58
3001.07	102.25
3004.355	99.58
3007.636	89.92
3010.915	86.58
3014.191	73.58
3017.464	67.92
3020.734	60.92
3024.002	50.25
3027.267	41.25
3030.53	42.58
3033.789	37.25
3037.046	33.92
3040.301	32.58
3043.552	32.92
3046.801	31.25
3050.048	33.58
3053.291	37.58
3056.532	39.58
3059.771	41.92
3063.006	48.25
3066.239	57.25
3069.469	65.25
3072.697	75.58
3075.922	87.92
3079.144	101.92
3082.364	116.25
3085.581	130.25
3088.795	128.58
3092.007	110.25
3095.216	81.25
3098.423	62.58
3101.627	52.25
3104.828	38.58
3108.026	31.58
3111.222	29.92
3114.416	21.25
3117.607	21.25
3120.795	15.25
3123.98	12.25
3127.163	11.92
3130.344	7.58
3133.521	6.92
3136.696	5.58
3139.869	2.92
3143.039	-2.75
3146.206	1.92
3149.371	-2.75
3152.533	-5.08
3155.693	-3.42
3158.85	-7.42
3162.005	-5.42
3165.157	-8.75
3168.306	-11.08
3171.453	-14.75
3174.597	-12.08
3177.739	-13.75
3180.878	-18.42
3184.014	-16.42
3187.149	-15.75
3190.28	-20.08
3193.409	-19.75
3196.536	-21.75
3199.659	-20.08
3202.781	-21.08
3205.9	-20.42
3209.016	-18.42
3212.13	-22.75
3215.241	-23.08
3218.35	-22.75
3221.456	-23.08
3224.56	-19.75
3227.661	-21.75
3230.76	-25.42
3233.856	-23.08
3236.95	-25.08
3240.041	-26.42
3243.13	-26.42
3246.216	-27.75
3249.3	-26.42
3252.382	-26.75
3255.46	-27.42
3258.537	-25.08
3261.611	-28.08
3264.682	-27.08
3267.751	-30.75
3270.818	-26.42
3273.882	-29.42
3276.943	-28.42
3280.002	-30.08
3283.059	-29.08
3286.113	-30.08
3289.165	-31.08
3292.214	-31.75
3295.261	-33.42
3298.306	-34.75
3301.348	-38.42
3304.387	-33.08
3307.425	-31.42
3310.459	-37.08
3313.492	-35.08
3316.521	-37.75
3319.549	-36.42
3322.574	-37.75
3325.597	-38.75
3328.617	-38.08
3331.635	-38.08
3334.65	-42.75
3337.663	-37.08
3340.674	-37.42
3343.682	-39.42
3346.688	-36.75
3349.691	-38.42
3352.692	-40.08
3355.691	-40.75
3358.687	-40.42
3361.681	-41.42
3364.673	-43.75
3367.662	-42.75
3370.649	-44.75
3373.633	-47.42
3376.615	-44.42
3379.595	-46.08
3382.572	-46.42
3385.547	-47.42
3388.52	-48.42
3391.49	-52.75
3394.458	-52.42
3397.424	-49.75
3400.387	-51.42
3403.348	-51.08
3406.307	-52.75
3409.263	-55.08
3412.217	-53.08
3415.168	-56.42
3418.118	-54.42
3421.065	-54.08
3424.009	-55.08
3426.951	-54.75
3429.891	-57.75
3432.829	-54.42
3435.764	-56.08
3438.697	-54.42
3441.628	-60.08
3444.557	-56.08
3447.483	-56.42
3450.407	-58.75
3453.328	-59.42
3456.247	-59.75
3459.164	-59.75
3462.079	-58.75
3464.991	-58.75
3467.902	-57.08
3470.809	-61.08
3473.715	-58.08
3476.618	-59.42
3479.519	-60.75
3482.418	-64.08
3485.315	-59.08
3488.209	-60.75
3491.101	-60.08
3493.99	-58.08
3496.878	-62.08
3499.763	-62.75
3502.646	-63.75
3505.527	-61.42
3508.405	-62.75
3511.281	-61.42
3514.155	-61.42
3517.027	-62.08
3519.897	-61.42
3522.764	-63.08
3525.629	-64.75
3528.492	-63.42
3531.352	-63.08
3534.211	-65.42
3537.067	-65.42
3539.921	-66.42
3542.773	-65.75
3545.622	-66.42
3548.469	-64.08
3551.315	-68.08
3554.157	-67.42
3556.998	-62.75
3559.837	-66.75
3562.673	-64.75
3565.507	-63.08
3568.339	-63.42
3571.169	-67.08
3573.996	-69.42
3576.822	-67.75
3579.645	-65.42
3582.466	-67.42
3585.285	-66.08
3588.101	-66.75
3590.916	-65.75
3593.728	-68.08
3596.538	-70.75
3599.346	-66.08
3602.152	-66.08
3604.956	-68.75
3607.757	-68.08
3610.556	-66.75
3613.354	-70.75
3616.149	-70.08
3618.942	-69.75
3621.732	-70.75
3624.521	-69.75
3627.307	-68.75
3630.092	-71.08
3632.874	-70.08
3635.654	-70.75
3638.432	-67.75
3641.208	-69.75
3643.982	-70.75
3646.753	-68.75
3649.523	-70.42
3652.29	-69.08
3655.055	-70.75
3657.818	-70.08
3660.579	-68.75
3663.338	-70.75
3666.095	-71.08
3668.849	-71.08
3671.602	-71.08
3674.352	-71.08
3677.101	-74.42
3679.847	-68.42
3682.591	-70.75
3685.333	-69.75
3688.073	-70.08
3690.811	-67.08
3693.547	-70.08
3696.281	-71.42
3699.013	-69.42
3701.742	-70.75
3704.47	-68.75
3707.195	-71.08
3709.919	-70.08
3712.64	-72.75
3715.359	-71.42
3718.076	-71.08
3720.792	-72.75
3723.505	-73.42
3726.216	-70.42
3728.925	-71.42
3731.632	-71.75
3734.336	-72.42
3737.039	-71.75
3739.74	-71.75
3742.439	-74.08
3745.136	-73.75
3747.83	-75.75
3750.523	-72.75
3753.213	-70.08
3755.902	-73.08
3758.589	-73.75
3761.273	-69.75
3763.956	-74.42
3766.636	-70.75
3769.315	-69.75
3771.991	-70.08
3774.665	-69.42
3777.338	-69.42
3780.008	-70.08
3782.677	-68.75
3785.343	-69.42
3788.007	-69.08
3790.67	-73.42
3793.33	-66.08
3795.989	-68.75
3798.645	-68.08
3801.299	-71.08
3803.952	-70.42
3806.602	-73.75
3809.251	-71.75
3811.897	-70.42
3814.542	-70.08
3817.184	-70.75
3819.825	-71.75
3822.463	-72.75
3825.1	-71.08
3827.735	-74.08
3830.367	-73.42
3832.998	-72.42
3835.627	-68.75
3838.253	-70.75
3840.878	-75.08
3843.501	-72.42
3846.122	-73.08
3848.741	-74.08
3851.358	-74.08
3853.973	-73.42
3856.586	-75.42
3859.197	-73.42
3861.806	-71.08
3864.414	-72.75
3867.019	-74.42
3869.622	-75.08
3872.224	-66.42
3874.823	-69.75
3877.421	-66.08
3880.016	-61.75
3882.61	-59.08
3885.202	-55.75
3887.792	-61.75
3890.38	-66.42
3892.966	-71.08
3895.55	-71.75
3898.132	-73.42
3900.713	-71.08
3903.291	-73.42
3905.868	-71.75
3908.442	-71.42
3911.015	-73.42
3913.586	-74.42
3916.155	-74.42
3918.722	-74.75
3921.287	-73.08
3923.85	-69.08
3926.411	-75.42
3928.971	-74.42
3931.528	-74.42
3934.084	-71.42
3936.638	-71.08
3939.19	-75.42
3941.74	-72.42
3944.288	-73.75
3946.834	-73.42
3949.378	-72.75
3951.921	-75.08
3954.462	-73.75
3957	-74.42
3959.537	-72.75
3962.072	-70.75
3964.606	-71.08
3967.137	-74.08
3969.667	-71.42
3972.194	-71.42
3974.72	-72.42
3977.244	-72.75
3979.766	-71.42
3982.286	-73.42
3984.805	-72.08
3987.321	-73.08
3989.836	-71.75
3992.349	-72.75
3994.86	-70.42
3997.369	-70.42
3999.877	-69.75
4002.382	-71.75
4004.886	-71.42
4007.388	-73.75
4009.888	-70.08
4012.386	-69.75
4014.883	-70.08
4017.377	-68.75
4019.87	-68.42
4022.361	-69.75
4024.85	-70.08
4027.338	-71.08
4029.823	-67.42
4032.307	-69.75
4034.789	-67.08
4037.269	-68.08
4039.747	-68.42
4042.224	-70.42
4044.699	-69.08
4047.172	-70.75
4049.643	-69.75
4052.112	-68.75
4054.58	-69.75
4057.046	-71.42
4059.51	-72.08
4061.972	-73.08
4064.432	-68.08
4066.891	-71.08
4069.348	-67.75
4071.803	-70.08
4074.256	-68.42
4076.708	-68.42
4079.158	-70.75
4081.606	-71.08
4084.052	-69.75
4086.497	-70.42
4088.939	-69.42
4091.38	-70.75
4093.819	-71.08
4096.257	-75.08
4098.693	-75.08
4101.127	-75.08
4103.559	-77.42
4105.989	-32.08
4108.418	-28.42
4110.845	-26.08
4113.27	-21.42
4115.694	-19.08
4118.115	-12.42
4120.535	-69.75
4122.954	-72.42
4125.37	-71.42
4127.785	-71.08
4130.198	-72.08
4132.609	-69.42
4135.019	-75.75
4137.427	-76.75
4139.833	-74.08
4142.237	-75.08
