Data from SERS-DW_RamanShift_5.txt Node
Date: Tue Nov 07 11:15:17 IST 2017
User: aro
Spectrometer: QEPB0276
Trigger mode: 0
Integration Time (sec): 1.500000E1
Scans to average: 3
Electric dark correction enabled: true
Nonlinearity correction enabled: false
Boxcar width: 0
XAxis mode: Raman Shifts
Number of Pixels in Spectrum: 1044
>>>>>Begin Spectral Data<<<<<
160.701	-3.92
166.742	13.75
172.777	61.08
178.805	206.08
184.826	570.42
190.841	1259.08
196.849	2145.75
202.85	2806.08
208.845	3001.42
214.833	2964.42
220.815	2944.08
226.789	2993.75
232.758	3070.08
238.719	3127.75
244.674	3173.42
250.623	3221.08
256.565	3264.08
262.5	3346.08
268.429	3447.08
274.351	3581.42
280.267	3713.42
286.176	3770.42
292.079	3705.08
297.975	3597.42
303.865	3542.42
309.748	3522.42
315.625	3492.75
321.495	3474.75
327.359	3464.08
333.217	3465.42
339.068	3459.08
344.912	3462.42
350.751	3490.75
356.583	3508.75
362.408	3538.75
368.227	3605.42
374.04	3748.75
379.847	3958.42
385.647	4266.75
391.44	4630.75
397.228	4943.42
403.009	5015.75
408.784	4777.42
414.553	4418.42
420.315	4185.42
426.071	3982.08
431.821	3732.08
437.565	3573.75
443.302	3482.08
449.033	3444.08
454.758	3412.75
460.477	3372.08
466.189	3375.42
471.896	3361.75
477.596	3351.75
483.29	3379.42
488.978	3403.75
494.66	3474.08
500.335	3596.75
506.005	3785.08
511.668	4069.42
517.325	4318.75
522.977	4349.42
528.622	4118.42
534.261	3799.08
539.894	3535.08
545.521	3332.42
551.141	3216.75
556.756	3147.42
562.365	3086.42
567.968	3056.75
573.565	3049.08
579.155	3046.08
584.74	3037.08
590.319	3025.08
595.892	3019.08
601.459	3050.08
607.02	3117.08
612.575	3246.75
618.124	3438.75
623.667	3854.42
629.204	4609.08
634.735	5634.08
640.261	6355.42
645.781	6249.75
651.294	5499.42
656.802	4680.42
662.304	3993.42
667.8	3548.42
673.29	3281.75
678.775	3094.42
684.254	2978.75
689.726	2880.08
695.193	2828.42
700.655	2849.08
706.11	2896.75
711.56	2854.08
717.004	2720.08
722.442	2599.42
727.874	2542.08
733.301	2511.08
738.722	2505.08
744.137	2487.08
749.547	2499.08
754.951	2482.75
760.349	2480.75
765.741	2483.08
771.128	2487.75
776.509	2508.42
781.885	2539.75
787.254	2578.08
792.618	2674.75
797.977	2781.75
803.33	2785.08
808.677	2686.42
814.019	2618.42
819.355	2607.08
824.686	2595.75
830.011	2607.42
835.33	2618.08
840.644	2642.75
845.952	2749.75
851.255	2983.42
856.552	3349.08
861.844	3687.08
867.13	3642.42
872.41	3205.75
877.686	2811.42
882.955	2621.42
888.219	2541.75
893.478	2493.08
898.731	2430.08
903.979	2365.75
909.221	2325.08
914.458	2296.75
919.69	2257.42
924.916	2266.42
930.136	2262.08
935.351	2255.42
940.561	2245.75
945.766	2239.42
950.965	2241.08
956.158	2225.42
961.347	2211.08
966.529	2192.08
971.707	2175.42
976.879	2186.42
982.046	2176.75
987.208	2206.75
992.364	2256.42
997.515	2358.75
1002.66	2435.75
1007.801	2426.75
1012.936	2385.08
1018.066	2329.42
1023.19	2297.75
1028.309	2298.42
1033.423	2276.75
1038.532	2252.75
1043.636	2231.42
1048.734	2202.08
1053.827	2180.75
1058.915	2140.08
1063.998	2150.75
1069.075	2156.08
1074.147	2180.75
1079.214	2213.08
1084.276	2317.08
1089.333	2477.75
1094.385	2691.08
1099.431	2878.75
1104.472	2871.75
1109.509	2709.42
1114.54	2611.42
1119.565	2595.75
1124.586	2526.08
1129.602	2433.75
1134.613	2294.75
1139.618	2200.08
1144.619	2148.08
1149.614	2118.08
1154.604	2109.42
1159.589	2098.75
1164.57	2101.75
1169.545	2125.42
1174.515	2189.08
1179.48	2272.42
1184.44	2354.75
1189.395	2374.42
1194.345	2317.42
1199.29	2217.75
1204.23	2139.08
1209.165	2096.75
1214.095	2065.42
1219.021	2061.08
1223.941	2078.42
1228.856	2090.75
1233.766	2113.75
1238.672	2145.75
1243.572	2166.75
1248.467	2188.08
1253.358	2204.42
1258.244	2201.42
1263.124	2248.75
1268	2322.75
1272.871	2444.42
1277.737	2655.75
1282.599	2954.08
1287.455	3176.08
1292.306	3288.42
1297.153	3293.42
1301.995	3098.75
1306.832	2816.42
1311.664	2627.08
1316.491	2501.42
1321.314	2417.75
1326.132	2303.75
1330.945	2208.75
1335.753	2145.08
1340.556	2103.08
1345.354	2066.08
1350.148	2045.42
1354.937	2019.42
1359.722	1990.42
1364.501	1982.42
1369.276	1972.42
1374.046	1965.42
1378.811	1957.42
1383.572	1932.08
1388.327	1896.75
1393.079	1889.75
1397.825	1875.08
1402.567	1868.75
1407.304	1888.42
1412.036	1915.42
1416.764	1984.08
1421.487	2018.75
1426.205	1997.42
1430.919	1925.42
1435.628	1924.42
1440.333	1948.75
1445.032	1986.42
1449.727	2019.42
1454.418	2048.42
1459.104	2082.42
1463.785	2100.75
1468.462	2059.42
1473.134	1986.08
1477.802	1899.08
1482.465	1837.75
1487.123	1807.08
1491.777	1802.42
1496.426	1805.08
1501.071	1795.08
1505.711	1777.08
1510.347	1781.75
1514.978	1771.42
1519.604	1757.08
1524.226	1747.75
1528.844	1729.08
1533.457	1701.08
1538.065	1681.42
1542.669	1642.08
1547.269	1649.08
1551.864	1641.75
1556.454	1660.42
1561.041	1652.75
1565.622	1632.08
1570.199	1640.75
1574.772	1662.75
1579.34	1697.75
1583.904	1724.42
1588.464	1741.75
1593.019	1775.08
1597.569	1862.08
1602.115	2080.42
1606.657	2454.75
1611.195	3147.42
1615.728	4168.75
1620.256	4663.08
1624.78	3890.42
1629.3	2655.75
1633.816	1988.42
1638.327	1747.08
1642.834	1661.08
1647.336	1610.42
1651.834	1582.42
1656.328	1559.42
1660.817	1550.08
1665.302	1549.75
1669.783	1546.08
1674.259	1541.08
1678.732	1530.08
1683.199	1535.42
1687.663	1529.75
1692.122	1513.75
1696.577	1507.08
1701.028	1488.08
1705.474	1517.75
1709.917	1554.08
1714.355	1680.42
1718.788	1949.42
1723.218	2361.08
1727.643	2930.42
1732.064	3281.42
1736.481	3119.42
1740.893	2599.08
1745.301	2171.42
1749.705	1819.08
1754.105	1567.08
1758.501	1407.75
1762.893	1323.08
1767.28	1254.75
1771.663	1226.75
1776.042	1210.75
1780.417	1196.75
1784.787	1189.42
1789.154	1178.42
1793.516	1169.42
1797.874	1156.08
1802.228	1137.75
1806.578	1115.08
1810.924	1100.08
1815.266	1083.42
1819.603	1055.42
1823.937	1038.42
1828.266	1030.75
1832.591	1021.75
1836.913	1020.08
1841.23	1009.75
1845.543	1005.42
1849.852	1006.75
1854.156	1004.42
1858.457	1018.08
1862.754	1017.42
1867.047	1020.42
1871.335	1030.42
1875.62	1030.42
1879.9	1022.42
1884.177	1021.08
1888.449	1023.42
1892.718	1024.08
1896.982	1010.08
1901.243	1006.08
1905.499	1010.75
1909.752	1002.08
1914	1004.42
1918.245	1003.75
1922.485	1004.08
1926.722	1005.08
1930.954	1007.08
1935.183	1009.75
1939.408	1001.42
1943.628	987.75
1947.845	973.75
1952.058	953.42
1956.267	938.08
1960.472	904.08
1964.673	885.08
1968.87	856.75
1973.063	825.75
1977.252	809.75
1981.438	799.42
1985.619	792.75
1989.797	780.42
1993.971	766.75
1998.14	759.75
2002.306	761.42
2006.469	758.42
2010.627	745.42
2014.781	744.75
2018.932	734.42
2023.078	728.75
2027.221	721.08
2031.36	703.75
2035.495	697.75
2039.627	693.75
2043.754	685.08
2047.878	675.75
2051.998	671.75
2056.114	672.08
2060.226	678.08
2064.334	678.08
2068.439	683.42
2072.54	689.42
2076.637	683.75
2080.73	694.42
2084.82	690.42
2088.906	695.42
2092.988	685.08
2097.066	673.75
2101.14	671.08
2105.211	658.42
2109.278	642.75
2113.342	633.08
2117.401	621.75
2121.457	611.75
2125.509	598.42
2129.558	597.08
2133.602	596.08
2137.643	579.42
2141.681	572.75
2145.714	566.75
2149.744	568.75
2153.77	562.08
2157.793	558.42
2161.812	547.75
2165.827	533.75
2169.838	529.08
2173.846	521.08
2177.851	515.08
2181.851	508.42
2185.848	500.08
2189.841	497.08
2193.831	497.42
2197.817	491.08
2201.799	484.08
2205.778	482.75
2209.753	483.08
2213.725	486.42
2217.693	481.75
2221.657	480.08
2225.618	483.08
2229.575	479.75
2233.529	471.75
2237.479	471.08
2241.425	461.42
2245.368	454.08
2249.307	449.42
2253.243	438.75
2257.175	434.75
2261.104	425.75
2265.029	421.42
2268.95	415.42
2272.868	411.42
2276.783	407.42
2280.694	399.08
2284.601	393.08
2288.505	397.42
2292.405	385.75
2296.302	378.75
2300.195	374.75
2304.085	374.75
2307.971	363.08
2311.854	360.42
2315.734	353.42
2319.609	353.42
2323.482	351.42
2327.351	352.42
2331.216	368.42
2335.078	373.75
2338.937	359.75
2342.792	333.08
2346.643	328.75
2350.492	327.42
2354.336	330.42
2358.178	331.08
2362.015	326.75
2365.85	323.75
2369.681	328.08
2373.508	332.75
2377.333	330.42
2381.153	326.42
2384.971	328.08
2388.785	320.42
2392.595	321.42
2396.402	318.75
2400.206	319.42
2404.007	314.42
2407.804	311.42
2411.597	309.42
2415.388	311.75
2419.174	310.42
2422.958	306.08
2426.738	307.75
2430.515	302.75
2434.289	305.42
2438.059	299.75
2441.825	295.75
2445.589	297.08
2449.349	292.08
2453.106	291.75
2456.859	284.42
2460.61	284.42
2464.356	278.42
2468.1	280.75
2471.84	268.75
2475.577	268.42
2479.311	272.75
2483.041	270.08
2486.768	274.08
2490.492	272.75
2494.213	269.75
2497.93	271.08
2501.644	267.08
2505.355	270.75
2509.062	267.75
2512.766	267.08
2516.467	268.42
2520.165	262.75
2523.859	268.42
2527.551	263.75
2531.239	262.42
2534.923	263.75
2538.605	258.08
2542.283	258.42
2545.958	256.42
2549.63	259.08
2553.299	257.75
2556.964	256.75
2560.626	256.75
2564.285	251.75
2567.941	247.42
2571.594	247.42
2575.243	247.42
2578.89	239.08
2582.533	243.08
2586.173	241.75
2589.809	234.42
2593.443	228.75
2597.073	229.75
2600.701	221.75
2604.325	220.08
2607.946	222.75
2611.564	222.42
2615.178	217.75
2618.79	219.75
2622.398	214.42
2626.004	208.08
2629.606	205.42
2633.205	200.75
2636.801	195.08
2640.394	187.42
2643.983	181.75
2647.57	182.42
2651.153	175.42
2654.734	170.75
2658.311	166.75
2661.885	162.08
2665.456	165.08
2669.025	158.42
2672.589	159.75
2676.151	156.42
2679.71	152.42
2683.266	147.75
2686.819	145.42
2690.368	145.42
2693.915	141.42
2697.458	139.08
2700.999	136.08
2704.536	128.75
2708.071	131.42
2711.602	128.42
2715.13	128.08
2718.656	126.75
2722.178	125.42
2725.697	126.75
2729.214	126.42
2732.727	125.08
2736.237	129.08
2739.744	124.75
2743.249	120.08
2746.75	121.75
2750.248	124.75
2753.743	122.42
2757.236	118.08
2760.725	111.75
2764.211	114.42
2767.695	107.08
2771.175	105.75
2774.652	106.75
2778.127	108.08
2781.598	107.75
2785.067	103.42
2788.532	103.08
2791.995	104.42
2795.455	104.42
2798.911	106.08
2802.365	105.75
2805.816	104.75
2809.264	104.75
2812.709	105.08
2816.151	104.42
2819.59	108.08
2823.026	102.42
2826.46	98.75
2829.89	97.42
2833.318	96.08
2836.742	95.42
2840.164	90.75
2843.583	90.08
2846.999	89.42
2850.412	92.42
2853.822	94.08
2857.229	95.75
2860.634	95.75
2864.035	93.08
2867.434	97.42
2870.83	100.08
2874.223	101.08
2877.613	100.75
2881	101.75
2884.385	102.75
2887.766	97.42
2891.145	100.75
2894.521	98.75
2897.894	101.42
2901.264	103.08
2904.631	103.75
2907.996	110.42
2911.358	109.75
2914.717	115.42
2918.073	110.75
2921.426	112.42
2924.777	105.42
2928.124	101.08
2931.469	98.08
2934.811	102.08
2938.15	107.75
2941.487	106.08
2944.821	107.75
2948.152	111.75
2951.48	115.75
2954.805	122.42
2958.128	131.08
2961.447	138.75
2964.765	150.75
2968.079	153.75
2971.39	158.75
2974.699	150.08
2978.005	138.08
2981.308	132.42
2984.609	128.42
2987.907	116.08
2991.202	107.42
2994.494	108.75
2997.784	100.75
3001.07	104.08
3004.355	104.42
3007.636	97.08
3010.915	82.08
3014.191	77.42
3017.464	71.75
3020.734	60.42
3024.002	55.75
3027.267	48.42
3030.53	45.75
3033.789	42.75
3037.046	38.42
3040.301	36.75
3043.552	36.42
3046.801	36.08
3050.048	36.75
3053.291	37.75
3056.532	43.08
3059.771	45.08
3063.006	49.08
3066.239	59.08
3069.469	71.75
3072.697	78.08
3075.922	94.42
3079.144	107.75
3082.364	121.75
3085.581	137.08
3088.795	131.08
3092.007	110.08
3095.216	82.75
3098.423	63.08
3101.627	56.08
3104.828	41.08
3108.026	34.75
3111.222	31.08
3114.416	24.08
3117.607	23.08
3120.795	18.75
3123.98	14.42
3127.163	14.75
3130.344	11.08
3133.521	11.08
3136.696	7.75
3139.869	8.75
3143.039	2.42
3146.206	2.75
3149.371	4.08
3152.533	-0.92
3155.693	0.75
3158.85	-3.58
3162.005	-2.58
3165.157	-4.25
3168.306	-7.58
3171.453	-9.25
3174.597	-5.25
3177.739	-8.92
3180.878	-13.58
3184.014	-12.58
3187.149	-11.25
3190.28	-15.58
3193.409	-15.92
3196.536	-17.58
3199.659	-15.25
3202.781	-17.25
3205.9	-19.92
3209.016	-17.25
3212.13	-18.92
3215.241	-17.25
3218.35	-17.92
3221.456	-18.58
3224.56	-19.25
3227.661	-19.25
3230.76	-21.92
3233.856	-20.92
3236.95	-18.92
3240.041	-21.25
3243.13	-20.92
3246.216	-23.58
3249.3	-20.92
3252.382	-22.58
3255.46	-21.92
3258.537	-23.25
3261.611	-20.92
3264.682	-24.25
3267.751	-21.58
3270.818	-20.92
3273.882	-20.25
3276.943	-19.92
3280.002	-24.25
3283.059	-22.92
3286.113	-26.25
3289.165	-27.58
3292.214	-25.92
3295.261	-26.92
3298.306	-27.58
3301.348	-30.92
3304.387	-28.25
3307.425	-28.25
3310.459	-32.58
3313.492	-31.92
3316.521	-31.25
3319.549	-32.92
3322.574	-33.58
3325.597	-33.58
3328.617	-35.92
3331.635	-32.58
3334.65	-36.58
3337.663	-33.92
3340.674	-34.25
3343.682	-33.58
3346.688	-34.58
3349.691	-31.25
3352.692	-32.92
3355.691	-34.58
3358.687	-37.25
3361.681	-35.58
3364.673	-37.25
3367.662	-39.58
3370.649	-41.25
3373.633	-42.58
3376.615	-38.25
3379.595	-37.92
3382.572	-44.25
3385.547	-40.25
3388.52	-42.92
3391.49	-44.92
3394.458	-46.25
3397.424	-42.58
3400.387	-47.58
3403.348	-45.92
3406.307	-45.58
3409.263	-47.58
3412.217	-45.92
3415.168	-47.58
3418.118	-45.92
3421.065	-48.25
3424.009	-47.25
3426.951	-50.25
3429.891	-51.58
3432.829	-45.25
3435.764	-49.25
3438.697	-51.58
3441.628	-52.92
3444.557	-49.58
3447.483	-51.92
3450.407	-52.92
3453.328	-53.25
3456.247	-52.92
3459.164	-57.25
3462.079	-55.58
3464.991	-52.58
3467.902	-57.25
3470.809	-54.25
3473.715	-54.92
3476.618	-53.58
3479.519	-55.92
3482.418	-56.58
3485.315	-54.25
3488.209	-55.92
3491.101	-52.58
3493.99	-53.25
3496.878	-54.92
3499.763	-56.58
3502.646	-55.58
3505.527	-51.92
3508.405	-57.25
3511.281	-54.92
3514.155	-55.25
3517.027	-56.92
3519.897	-57.25
3522.764	-57.25
3525.629	-58.25
3528.492	-56.92
3531.352	-59.58
3534.211	-60.25
3537.067	-59.58
3539.921	-59.58
3542.773	-57.58
3545.622	-59.92
3548.469	-59.92
3551.315	-58.92
3554.157	-59.58
3556.998	-58.58
3559.837	-59.92
3562.673	-61.58
3565.507	-57.92
3568.339	-60.25
3571.169	-63.25
3573.996	-62.58
3576.822	-60.25
3579.645	-59.58
3582.466	-61.92
3585.285	-61.92
3588.101	-62.58
3590.916	-60.92
3593.728	-62.58
3596.538	-64.25
3599.346	-63.25
3602.152	-61.58
3604.956	-62.92
3607.757	-62.58
3610.556	-64.58
3613.354	-66.25
3616.149	-64.25
3618.942	-63.58
3621.732	-66.92
3624.521	-63.58
3627.307	-63.58
3630.092	-63.92
3632.874	-63.25
3635.654	-61.58
3638.432	-60.92
3641.208	-62.92
3643.982	-62.25
3646.753	-61.92
3649.523	-62.25
3652.29	-61.58
3655.055	-63.25
3657.818	-62.25
3660.579	-64.25
3663.338	-62.25
3666.095	-63.25
3668.849	-64.92
3671.602	-63.25
3674.352	-61.58
3677.101	-65.25
3679.847	-65.92
3682.591	-66.92
3685.333	-65.92
3688.073	-65.25
3690.811	-62.58
3693.547	-63.58
3696.281	-66.58
3699.013	-66.25
3701.742	-65.25
3704.47	-64.58
3707.195	-68.92
3709.919	-64.92
3712.64	-65.92
3715.359	-65.58
3718.076	-65.25
3720.792	-63.25
3723.505	-64.92
3726.216	-64.58
3728.925	-65.92
3731.632	-63.92
3734.336	-64.25
3737.039	-65.58
3739.74	-64.25
3742.439	-66.58
3745.136	-66.92
3747.83	-65.25
3750.523	-67.25
3753.213	-65.25
3755.902	-60.92
3758.589	-66.58
3761.273	-65.25
3763.956	-64.92
3766.636	-64.58
3769.315	-63.25
3771.991	-66.92
3774.665	-63.92
3777.338	-63.92
3780.008	-65.58
3782.677	-62.58
3785.343	-65.25
3788.007	-65.92
3790.67	-69.25
3793.33	-63.25
3795.989	-66.58
3798.645	-63.58
3801.299	-67.58
3803.952	-64.58
3806.602	-67.58
3809.251	-66.58
3811.897	-66.58
3814.542	-66.25
3817.184	-65.25
3819.825	-66.25
3822.463	-67.92
3825.1	-66.92
3827.735	-65.25
3830.367	-67.58
3832.998	-67.25
3835.627	-63.58
3838.253	-64.25
3840.878	-66.25
3843.501	-63.58
3846.122	-65.58
3848.741	-64.92
3851.358	-66.58
3853.973	-65.58
3856.586	-69.58
3859.197	-65.92
3861.806	-66.25
3864.414	-66.25
3867.019	-66.92
3869.622	-66.25
3872.224	-60.58
3874.823	-64.58
3877.421	-56.25
3880.016	-56.25
3882.61	-50.25
3885.202	-50.25
3887.792	-53.25
3890.38	-63.58
3892.966	-65.25
3895.55	-66.25
3898.132	-67.92
3900.713	-66.58
3903.291	-66.58
3905.868	-67.25
3908.442	-67.58
3911.015	-66.92
3913.586	-66.92
3916.155	-67.25
3918.722	-70.58
3921.287	-66.92
3923.85	-63.25
3926.411	-67.92
3928.971	-67.92
3931.528	-67.25
3934.084	-65.25
3936.638	-66.58
3939.19	-70.92
3941.74	-66.58
3944.288	-66.58
3946.834	-67.58
3949.378	-66.25
3951.921	-64.25
3954.462	-66.58
3957	-65.58
3959.537	-66.25
3962.072	-64.92
3964.606	-65.92
3967.137	-67.92
3969.667	-64.25
3972.194	-65.58
3974.72	-66.58
3977.244	-69.92
3979.766	-65.58
3982.286	-66.25
3984.805	-66.58
3987.321	-67.58
3989.836	-66.92
3992.349	-66.25
3994.86	-66.25
3997.369	-64.25
3999.877	-65.25
4002.382	-66.25
4004.886	-65.25
4007.388	-65.58
4009.888	-64.58
4012.386	-65.58
4014.883	-64.25
4017.377	-64.58
4019.87	-63.25
4022.361	-64.25
4024.85	-64.92
4027.338	-63.92
4029.823	-63.25
4032.307	-62.92
4034.789	-62.58
4037.269	-61.92
4039.747	-61.58
4042.224	-64.25
4044.699	-60.58
4047.172	-64.58
4049.643	-62.58
4052.112	-63.92
4054.58	-65.92
4057.046	-64.92
4059.51	-65.58
4061.972	-65.58
4064.432	-63.25
4066.891	-64.25
4069.348	-64.25
4071.803	-63.92
4074.256	-60.58
4076.708	-64.58
4079.158	-65.92
4081.606	-63.92
4084.052	-63.92
4086.497	-65.58
4088.939	-64.92
4091.38	-65.58
4093.819	-63.92
4096.257	-69.25
4098.693	-69.92
4101.127	-68.92
4103.559	-70.92
4105.989	-28.92
4108.418	-24.25
4110.845	-22.58
4113.27	-19.25
4115.694	-15.58
4118.115	-9.92
4120.535	-65.58
4122.954	-64.25
4125.37	-68.58
4127.785	-65.92
4130.198	-67.25
4132.609	-64.58
4135.019	-69.92
4137.427	-69.25
4139.833	-68.92
4142.237	-68.92
