Data from SERS-DW_RamanShift_3.txt Node
Date: Tue Nov 07 11:12:17 IST 2017
User: aro
Spectrometer: QEPB0276
Trigger mode: 0
Integration Time (sec): 1.500000E1
Scans to average: 3
Electric dark correction enabled: true
Nonlinearity correction enabled: false
Boxcar width: 0
XAxis mode: Raman Shifts
Number of Pixels in Spectrum: 1044
>>>>>Begin Spectral Data<<<<<
160.701	-2.33
166.742	14
172.777	64.67
178.805	214
184.826	602
190.841	1314.33
196.849	2222.67
202.85	2932
208.845	3163
214.833	3112
220.815	3092.67
226.789	3140
232.758	3222.33
238.719	3301.33
244.674	3336.67
250.623	3402.33
256.565	3458
262.5	3513.33
268.429	3637.67
274.351	3740
280.267	3880
286.176	3945.67
292.079	3894
297.975	3779
303.865	3738.67
309.748	3714.67
315.625	3697.33
321.495	3660.33
327.359	3643.33
333.217	3654
339.068	3659.67
344.912	3662
350.751	3666.33
356.583	3693.67
362.408	3715
368.227	3785
374.04	3910
379.847	4120.33
385.647	4408.33
391.44	4774.67
397.228	5087.33
403.009	5161.67
408.784	4931.33
414.553	4583.67
420.315	4343
426.071	4150.67
431.821	3909
437.565	3733
443.302	3646.33
449.033	3601.33
454.758	3572.67
460.477	3542.33
466.189	3530.67
471.896	3521.33
477.596	3521
483.29	3542
488.978	3587
494.66	3642
500.335	3724.67
506.005	3930
511.668	4210.33
517.325	4445
522.977	4481
528.622	4272.67
534.261	3946
539.894	3691
545.521	3504.33
551.141	3373
556.756	3303.67
562.365	3251.33
567.968	3232.67
573.565	3200
579.155	3200
584.74	3186
590.319	3166
595.892	3170.33
601.459	3205.67
607.02	3268.67
612.575	3371
618.124	3571.33
623.667	3955
629.204	4684.33
634.735	5667.67
640.261	6387.67
645.781	6307
651.294	5618.33
656.802	4801
662.304	4131.33
667.8	3673
673.29	3399.33
678.775	3211.67
684.254	3099
689.726	3010
695.193	2965.67
700.655	2995.67
706.11	3021
711.56	2997.67
717.004	2855
722.442	2733
727.874	2681.33
733.301	2650.33
738.722	2643.67
744.137	2610
749.547	2621.67
754.951	2614
760.349	2609.67
765.741	2613.33
771.128	2615.67
776.509	2620.67
781.885	2651.67
787.254	2694.67
792.618	2767
797.977	2881
803.33	2882.67
808.677	2808.33
814.019	2727.67
819.355	2723.33
824.686	2708
830.011	2698
835.33	2734
840.644	2762.67
845.952	2838.33
851.255	3056.33
856.552	3430.33
861.844	3771
867.13	3746
872.41	3322.67
877.686	2913
882.955	2736
888.219	2647
893.478	2590.67
898.731	2532.33
903.979	2476.67
909.221	2415.33
914.458	2392.67
919.69	2358.67
924.916	2351.33
930.136	2353.33
935.351	2356.33
940.561	2349
945.766	2341.33
950.965	2337.67
956.158	2333.33
961.347	2324.33
966.529	2280
971.707	2275.67
976.879	2265
982.046	2279
987.208	2295
992.364	2347.67
997.515	2441
1002.66	2507
1007.801	2520.33
1012.936	2480
1018.066	2429.33
1023.19	2388.33
1028.309	2389.33
1033.423	2367
1038.532	2345
1043.636	2316.67
1048.734	2288.67
1053.827	2265.33
1058.915	2234
1063.998	2232
1069.075	2233
1074.147	2265.67
1079.214	2304
1084.276	2401
1089.333	2535.67
1094.385	2768.33
1099.431	2956.67
1104.472	2927.33
1109.509	2795.67
1114.54	2689.33
1119.565	2662.67
1124.586	2614
1129.602	2515.67
1134.613	2374.33
1139.618	2278.33
1144.619	2223
1149.614	2215.33
1154.604	2189
1159.589	2186
1164.57	2179
1169.545	2209
1174.515	2261
1179.48	2358.67
1184.44	2425
1189.395	2443.67
1194.345	2394
1199.29	2291.33
1204.23	2216
1209.165	2161.33
1214.095	2150.67
1219.021	2146.33
1223.941	2157
1228.856	2176.67
1233.766	2195
1238.672	2218.67
1243.572	2251.67
1248.467	2272.67
1253.358	2266
1258.244	2278.67
1263.124	2303
1268	2384
1272.871	2500
1277.737	2693.67
1282.599	2991
1287.455	3215
1292.306	3332.67
1297.153	3331.67
1301.995	3151.33
1306.832	2889
1311.664	2694.67
1316.491	2573.67
1321.314	2486.33
1326.132	2376.67
1330.945	2292
1335.753	2227.67
1340.556	2186
1345.354	2138
1350.148	2111.33
1354.937	2078.67
1359.722	2059.67
1364.501	2032.33
1369.276	2025
1374.046	2021.33
1378.811	2006
1383.572	1988.33
1388.327	1952.67
1393.079	1944.67
1397.825	1945.67
1402.567	1933.67
1407.304	1944.33
1412.036	1976.67
1416.764	2043.33
1421.487	2078
1426.205	2043.33
1430.919	1986.33
1435.628	1981.67
1440.333	2006
1445.032	2042
1449.727	2075
1454.418	2106.67
1459.104	2131.67
1463.785	2135.33
1468.462	2129.67
1473.134	2050.67
1477.802	1972.33
1482.465	1907.67
1487.123	1871.33
1491.777	1857.67
1496.426	1856
1501.071	1847.67
1505.711	1839.67
1510.347	1845.33
1514.978	1834.33
1519.604	1818
1524.226	1806.33
1528.844	1767.67
1533.457	1746.67
1538.065	1740.33
1542.669	1707.67
1547.269	1694.67
1551.864	1699.33
1556.454	1705
1561.041	1705.67
1565.622	1686.33
1570.199	1684.67
1574.772	1708
1579.34	1741.67
1583.904	1764.33
1588.464	1792
1593.019	1817.67
1597.569	1911
1602.115	2105.67
1606.657	2458.67
1611.195	3117.67
1615.728	4113.67
1620.256	4659.33
1624.78	3919
1629.3	2726
1633.816	2054.33
1638.327	1801.67
1642.834	1709
1647.336	1661
1651.834	1633.33
1656.328	1607.67
1660.817	1605.33
1665.302	1602.67
1669.783	1598
1674.259	1588.33
1678.732	1579
1683.199	1577
1687.663	1576
1692.122	1563.67
1696.577	1537.33
1701.028	1533
1705.474	1531.67
1709.917	1588
1714.355	1719.67
1718.788	1947.33
1723.218	2350.67
1727.643	2895.67
1732.064	3262
1736.481	3104
1740.893	2628
1745.301	2194.33
1749.705	1856.33
1754.105	1593
1758.501	1445
1762.893	1347
1767.28	1283.33
1771.663	1262.67
1776.042	1234.33
1780.417	1221
1784.787	1217.67
1789.154	1210.67
1793.516	1193
1797.874	1180
1802.228	1178.33
1806.578	1153.67
1810.924	1129
1815.266	1105.33
1819.603	1082
1823.937	1068
1828.266	1057.33
1832.591	1056.33
1836.913	1049
1841.23	1032
1845.543	1038
1849.852	1041.67
1854.156	1044.33
1858.457	1048
1862.754	1046.67
1867.047	1049
1871.335	1056.67
1875.62	1058
1879.9	1057
1884.177	1059
1888.449	1059.33
1892.718	1052.67
1896.982	1041.33
1901.243	1037.67
1905.499	1032.33
1909.752	1025.33
1914	1029.67
1918.245	1020
1922.485	1033
1926.722	1025.67
1930.954	1031
1935.183	1026.67
1939.408	1017.67
1943.628	1015
1947.845	1007.33
1952.058	983.67
1956.267	951.67
1960.472	919.33
1964.673	897.33
1968.87	876.67
1973.063	849
1977.252	842
1981.438	828
1985.619	811.33
1989.797	799.33
1993.971	791.33
1998.14	788
2002.306	780.33
2006.469	777.67
2010.627	772.67
2014.781	768.33
2018.932	759
2023.078	758.67
2027.221	740.67
2031.36	734
2035.495	719.33
2039.627	712.33
2043.754	699.67
2047.878	699.33
2051.998	688.33
2056.114	694.67
2060.226	696.33
2064.334	689.67
2068.439	699.67
2072.54	702.33
2076.637	710.33
2080.73	708
2084.82	711
2088.906	706
2092.988	704.33
2097.066	688.67
2101.14	681.67
2105.211	673.33
2109.278	667.67
2113.342	648.33
2117.401	636
2121.457	625.67
2125.509	617.33
2129.558	607.67
2133.602	602.33
2137.643	595.33
2141.681	589
2145.714	590.67
2149.744	578.67
2153.77	577
2157.793	562
2161.812	565
2165.827	552
2169.838	541
2173.846	538.33
2177.851	527
2181.851	516
2185.848	509.33
2189.841	507.67
2193.831	509
2197.817	497
2201.799	499.33
2205.778	492
2209.753	483.33
2213.725	497.67
2217.693	488.67
2221.657	495.67
2225.618	491.33
2229.575	486.33
2233.529	483.33
2237.479	478.67
2241.425	477.33
2245.368	467.67
2249.307	454.33
2253.243	448.33
2257.175	444.33
2261.104	436.67
2265.029	433.67
2268.95	430
2272.868	424.67
2276.783	419.33
2280.694	413.67
2284.601	405.33
2288.505	405.67
2292.405	397.67
2296.302	396
2300.195	391
2304.085	379.67
2307.971	378.33
2311.854	371.67
2315.734	366
2319.609	364.33
2323.482	357.33
2327.351	357.33
2331.216	373
2335.078	378
2338.937	359.33
2342.792	342.67
2346.643	339
2350.492	334.67
2354.336	335.67
2358.178	334
2362.015	336.67
2365.85	340
2369.681	337
2373.508	337
2377.333	337.67
2381.153	332
2384.971	333
2388.785	330
2392.595	332.33
2396.402	325
2400.206	323.33
2404.007	321.33
2407.804	322.33
2411.597	325
2415.388	317.33
2419.174	317.33
2422.958	314.67
2426.738	313.67
2430.515	310.67
2434.289	310.33
2438.059	306.67
2441.825	299.33
2445.589	299.67
2449.349	297.67
2453.106	298.67
2456.859	292.33
2460.61	295.33
2464.356	284
2468.1	287.67
2471.84	280.33
2475.577	283
2479.311	278
2483.041	277.67
2486.768	279
2490.492	282.33
2494.213	274
2497.93	274.67
2501.644	277.33
2505.355	277.33
2509.062	274
2512.766	272.67
2516.467	271
2520.165	272.67
2523.859	273.33
2527.551	265.67
2531.239	268.33
2534.923	267.33
2538.605	264.67
2542.283	266
2545.958	261.33
2549.63	258.67
2553.299	262.67
2556.964	263.67
2560.626	262.33
2564.285	257.33
2567.941	255.33
2571.594	254.67
2575.243	249.33
2578.89	250.33
2582.533	246
2586.173	245.67
2589.809	240.67
2593.443	238.67
2597.073	237.33
2600.701	229
2604.325	224.33
2607.946	224
2611.564	225.67
2615.178	219.67
2618.79	222.67
2622.398	215
2626.004	208
2629.606	207
2633.205	204
2636.801	194.33
2640.394	187
2643.983	187.33
2647.57	180
2651.153	176
2654.734	171
2658.311	171.67
2661.885	167.67
2665.456	165.33
2669.025	160.67
2672.589	159
2676.151	156
2679.71	156.67
2683.266	155.67
2686.819	151
2690.368	143.33
2693.915	144.67
2697.458	142.67
2700.999	139.33
2704.536	137.67
2708.071	137
2711.602	132.33
2715.13	132
2718.656	130.67
2722.178	128.67
2725.697	129.33
2729.214	126
2732.727	129
2736.237	130.33
2739.744	125
2743.249	122.33
2746.75	127
2750.248	124
2753.743	121.33
2757.236	118
2760.725	114.67
2764.211	112.67
2767.695	110
2771.175	107.67
2774.652	103.67
2778.127	108.33
2781.598	105.67
2785.067	100.67
2788.532	101.67
2791.995	105.67
2795.455	104
2798.911	108
2802.365	104.67
2805.816	106.67
2809.264	104.33
2812.709	106
2816.151	108.33
2819.59	102.67
2823.026	106.33
2826.46	101.67
2829.89	101.33
2833.318	98
2836.742	96.33
2840.164	98.33
2843.583	91.67
2846.999	92.67
2850.412	95.33
2853.822	92.67
2857.229	88.33
2860.634	95.67
2864.035	94
2867.434	98.33
2870.83	99.67
2874.223	98.33
2877.613	94
2881	102.33
2884.385	96.67
2887.766	95.67
2891.145	99.33
2894.521	95
2897.894	100.67
2901.264	99
2904.631	103
2907.996	106
2911.358	109.33
2914.717	110.67
2918.073	111.33
2921.426	107.67
2924.777	101.67
2928.124	100.67
2931.469	102
2934.811	102.33
2938.15	107.33
2941.487	103.67
2944.821	109
2948.152	109.67
2951.48	112.33
2954.805	122
2958.128	130
2961.447	134.67
2964.765	151.33
2968.079	148.67
2971.39	154
2974.699	147.67
2978.005	139.33
2981.308	127.67
2984.609	122.67
2987.907	109.67
2991.202	107.33
2994.494	106
2997.784	103
3001.07	100.67
3004.355	94.33
3007.636	91.33
3010.915	82.33
3014.191	76.33
3017.464	69.33
3020.734	60.33
3024.002	55.33
3027.267	43.67
3030.53	42.33
3033.789	37.67
3037.046	35
3040.301	30.33
3043.552	33.33
3046.801	33.33
3050.048	31.67
3053.291	38
3056.532	36.33
3059.771	43.33
3063.006	45.67
3066.239	55.33
3069.469	69.33
3072.697	77.67
3075.922	89.67
3079.144	101.33
3082.364	120
3085.581	133.33
3088.795	130
3092.007	110.67
3095.216	85.67
3098.423	64
3101.627	54.33
3104.828	40
3108.026	35.33
3111.222	26.67
3114.416	28
3117.607	20.67
3120.795	18
3123.98	12
3127.163	14.33
3130.344	6.67
3133.521	9.33
3136.696	5.67
3139.869	3
3143.039	-0.33
3146.206	-0.33
3149.371	-1.33
3152.533	-5.33
3155.693	-4.67
3158.85	-6.67
3162.005	-7.67
3165.157	-9.33
3168.306	-8
3171.453	-11.67
3174.597	-11
3177.739	-13
3180.878	-14.67
3184.014	-13.33
3187.149	-17
3190.28	-13.67
3193.409	-16.67
3196.536	-19
3199.659	-17.33
3202.781	-16.67
3205.9	-18.67
3209.016	-16.33
3212.13	-18
3215.241	-18.67
3218.35	-21
3221.456	-18.33
3224.56	-19
3227.661	-20.67
3230.76	-20.33
3233.856	-22.67
3236.95	-21.33
3240.041	-24.67
3243.13	-23
3246.216	-25.67
3249.3	-23
3252.382	-25
3255.46	-24.33
3258.537	-22.67
3261.611	-23
3264.682	-29
3267.751	-24.33
3270.818	-23.33
3273.882	-23.33
3276.943	-27.33
3280.002	-29.67
3283.059	-28
3286.113	-28.33
3289.165	-27.67
3292.214	-30
3295.261	-29.33
3298.306	-30.33
3301.348	-34.67
3304.387	-31.33
3307.425	-33.33
3310.459	-30.67
3313.492	-31.67
3316.521	-33
3319.549	-30.33
3322.574	-34.33
3325.597	-34.33
3328.617	-33.33
3331.635	-32.67
3334.65	-35.33
3337.663	-35
3340.674	-34
3343.682	-36
3346.688	-35
3349.691	-36.33
3352.692	-36
3355.691	-36
3358.687	-40
3361.681	-38.33
3364.673	-38
3367.662	-40
3370.649	-42.33
3373.633	-42
3376.615	-38.67
3379.595	-41.67
3382.572	-44.67
3385.547	-43.67
3388.52	-45.33
3391.49	-49.67
3394.458	-50.33
3397.424	-47.33
3400.387	-50
3403.348	-47.67
3406.307	-49.67
3409.263	-51.33
3412.217	-50.33
3415.168	-52.33
3418.118	-51.33
3421.065	-52
3424.009	-52.33
3426.951	-50
3429.891	-52.33
3432.829	-49.67
3435.764	-52.67
3438.697	-52
3441.628	-55
3444.557	-51.67
3447.483	-52.67
3450.407	-53.67
3453.328	-55
3456.247	-51.67
3459.164	-53.33
3462.079	-56.67
3464.991	-53.33
3467.902	-55
3470.809	-55
3473.715	-54.67
3476.618	-55.67
3479.519	-58.33
3482.418	-58
3485.315	-56.33
3488.209	-57.33
3491.101	-56
3493.99	-55.33
3496.878	-59
3499.763	-61
3502.646	-61
3505.527	-57.67
3508.405	-59
3511.281	-59
3514.155	-58.67
3517.027	-60
3519.897	-60.33
3522.764	-60.67
3525.629	-61
3528.492	-60.67
3531.352	-60.33
3534.211	-62
3537.067	-64.67
3539.921	-61.67
3542.773	-63.33
3545.622	-60.33
3548.469	-61.33
3551.315	-60.33
3554.157	-62.33
3556.998	-59.67
3559.837	-62
3562.673	-60.67
3565.507	-58
3568.339	-61
3571.169	-63.67
3573.996	-61
3576.822	-61.67
3579.645	-62
3582.466	-61.33
3585.285	-60.67
3588.101	-64.67
3590.916	-62.33
3593.728	-63.33
3596.538	-65.33
3599.346	-65
3602.152	-62.33
3604.956	-67.33
3607.757	-63.33
3610.556	-66.67
3613.354	-68.33
3616.149	-68
3618.942	-65
3621.732	-69
3624.521	-67.67
3627.307	-66.33
3630.092	-69.67
3632.874	-66.33
3635.654	-65.33
3638.432	-63.33
3641.208	-67.33
3643.982	-66
3646.753	-64.33
3649.523	-66.67
3652.29	-64.33
3655.055	-66
3657.818	-65.67
3660.579	-66.67
3663.338	-67
3666.095	-65.67
3668.849	-64.33
3671.602	-66.33
3674.352	-65
3677.101	-69.67
3679.847	-65
3682.591	-67.67
3685.333	-67.67
3688.073	-67
3690.811	-65
3693.547	-65.33
3696.281	-68.67
3699.013	-65.67
3701.742	-67
3704.47	-65.67
3707.195	-67.67
3709.919	-70
3712.64	-69.67
3715.359	-67.67
3718.076	-70.67
3720.792	-68
3723.505	-69
3726.216	-68
3728.925	-69
3731.632	-67.67
3734.336	-68
3737.039	-69.67
3739.74	-68.33
3742.439	-70.33
3745.136	-70.33
3747.83	-68.33
3750.523	-67.33
3753.213	-67.33
3755.902	-67
3758.589	-69.67
3761.273	-65.33
3763.956	-66.67
3766.636	-64.33
3769.315	-67.33
3771.991	-67.67
3774.665	-65
3777.338	-64.33
3780.008	-65
3782.677	-64.67
3785.343	-69
3788.007	-67.67
3790.67	-68.33
3793.33	-64.33
3795.989	-66
3798.645	-65
3801.299	-66.33
3803.952	-69.33
3806.602	-71
3809.251	-70
3811.897	-69.33
3814.542	-71
3817.184	-69.33
3819.825	-68.33
3822.463	-69.33
3825.1	-67.67
3827.735	-69
3830.367	-69.33
3832.998	-70.33
3835.627	-66.33
3838.253	-67.33
3840.878	-69.33
3843.501	-67.33
3846.122	-67.33
3848.741	-68
3851.358	-69.33
3853.973	-69
3856.586	-70.33
3859.197	-69
3861.806	-68
3864.414	-67.67
3867.019	-69.67
3869.622	-67
3872.224	-62.33
3874.823	-64.33
3877.421	-61
3880.016	-58
3882.61	-54.33
3885.202	-52.67
3887.792	-57
3890.38	-64.67
3892.966	-68
3895.55	-70.33
3898.132	-70
3900.713	-67.67
3903.291	-71.33
3905.868	-71.33
3908.442	-68.67
3911.015	-69.33
3913.586	-71.33
3916.155	-68.33
3918.722	-70.67
3921.287	-69.67
3923.85	-68
3926.411	-69.33
3928.971	-69
3931.528	-67.67
3934.084	-69
3936.638	-69
3939.19	-70.33
3941.74	-67
3944.288	-70
3946.834	-69.67
3949.378	-69.67
3951.921	-71
3954.462	-68
3957	-70.67
3959.537	-66.67
3962.072	-67.67
3964.606	-66.67
3967.137	-71
3969.667	-68.33
3972.194	-70.67
3974.72	-67.33
3977.244	-71
3979.766	-68.33
3982.286	-67.67
3984.805	-67.67
3987.321	-66.67
3989.836	-69
3992.349	-69.33
3994.86	-69
3997.369	-69.33
3999.877	-68.33
4002.382	-70
4004.886	-67.33
4007.388	-68.33
4009.888	-67.33
4012.386	-67.33
4014.883	-66.67
4017.377	-66.67
4019.87	-65.67
4022.361	-63.67
4024.85	-67.67
4027.338	-68
4029.823	-64.33
4032.307	-64.33
4034.789	-66.33
4037.269	-66
4039.747	-64.67
4042.224	-66.33
4044.699	-64.67
4047.172	-67.33
4049.643	-65.33
4052.112	-67
4054.58	-67.67
4057.046	-68.33
4059.51	-68
4061.972	-71.33
4064.432	-66.33
4066.891	-66
4069.348	-65.33
4071.803	-67
4074.256	-66
4076.708	-67.67
4079.158	-67.33
4081.606	-68.33
4084.052	-65.67
4086.497	-65.33
4088.939	-65
4091.38	-65
4093.819	-65.67
4096.257	-71.67
4098.693	-72.67
4101.127	-71.33
4103.559	-72
4105.989	-27.67
4108.418	-25.33
4110.845	-23.33
4113.27	-21
4115.694	-15.67
4118.115	-10.67
4120.535	-67
4122.954	-65.33
4125.37	-68.67
4127.785	-67.33
4130.198	-66.33
4132.609	-66.67
4135.019	-72.67
4137.427	-73.33
4139.833	-72.33
4142.237	-72
