Data from SERS-ec1_RamanShift_3.txt Node
Date: Tue Nov 07 11:28:02 IST 2017
User: aro
Spectrometer: QEPB0276
Trigger mode: 0
Integration Time (sec): 1.500000E1
Scans to average: 3
Electric dark correction enabled: true
Nonlinearity correction enabled: false
Boxcar width: 0
XAxis mode: Raman Shifts
Number of Pixels in Spectrum: 1044
>>>>>Begin Spectral Data<<<<<
160.701	-15.5
166.742	26.5
172.777	129.17
178.805	456.83
184.826	1280.5
190.841	2829.5
196.849	4753.5
202.85	6218.83
208.845	6711.5
214.833	6671.5
220.815	6686.83
226.789	6820.17
232.758	7016.17
238.719	7176.5
244.674	7306.5
250.623	7427.5
256.565	7508.5
262.5	7655.5
268.429	7815.5
274.351	8075.83
280.267	8307.5
286.176	8428.17
292.079	8353.5
297.975	8184.83
303.865	8079.83
309.748	8043.83
315.625	8012.5
321.495	7954.5
327.359	7955.83
333.217	7910.5
339.068	7896.83
344.912	7907.83
350.751	7918.83
356.583	7940.17
362.408	7988.83
368.227	8073.17
374.04	8280.17
379.847	8600.5
385.647	9105.5
391.44	9747.83
397.228	10284.83
403.009	10422.5
408.784	9990.17
414.553	9332.5
420.315	8857.5
426.071	8468.83
431.821	8182.17
437.565	7931.83
443.302	7807.83
449.033	7752.83
454.758	7698.17
460.477	7627.17
466.189	7630.17
471.896	7622.17
477.596	7651.17
483.29	7688.5
488.978	7751.5
494.66	7816.83
500.335	8017.17
506.005	8371.17
511.668	8848.83
517.325	9282.83
522.977	9366.83
528.622	8964.17
534.261	8416.83
539.894	7972.17
545.521	7667.17
551.141	7475.5
556.756	7344.17
562.365	7241.17
567.968	7193.5
573.565	7172.83
579.155	7134.83
584.74	7116.17
590.319	7066.83
595.892	7078.5
601.459	7100.5
607.02	7198.17
612.575	7386.83
618.124	7702.83
623.667	8384.83
629.204	9593.83
634.735	11302.17
640.261	12534.5
645.781	12368.83
651.294	11156.83
656.802	9774.17
662.304	8641.5
667.8	7888.83
673.29	7420.83
678.775	7125.83
684.254	6889.5
689.726	6756.83
695.193	6649.83
700.655	6675.83
706.11	6762.5
711.56	6689.83
717.004	6432.17
722.442	6228.5
727.874	6123.5
733.301	6067.17
738.722	6036.5
744.137	5986.83
749.547	5978.83
754.951	5979.5
760.349	5996.17
765.741	5959.17
771.128	5971.83
776.509	5999.5
781.885	6050.83
787.254	6110.17
792.618	6255.5
797.977	6408.17
803.33	6439.83
808.677	6273.83
814.019	6142.17
819.355	6092.83
824.686	6094.17
830.011	6117.5
835.33	6143.17
840.644	6217.5
845.952	6373.5
851.255	6766.17
856.552	7420.5
861.844	8025.17
867.13	7994.17
872.41	7230.17
877.686	6519.5
882.955	6195.17
888.219	6046.17
893.478	5939.5
898.731	5830.17
903.979	5746.5
909.221	5644.17
914.458	5566.17
919.69	5526.83
924.916	5510.17
930.136	5518.83
935.351	5516.17
940.561	5505.5
945.766	5500.17
950.965	5496.83
956.158	5444.83
961.347	5419.17
966.529	5382.17
971.707	5333.83
976.879	5301.17
982.046	5297.83
987.208	5328.5
992.364	5420.17
997.515	5589.83
1002.66	5748.83
1007.801	5743.83
1012.936	5688.5
1018.066	5620.5
1023.19	5598.17
1028.309	5568.5
1033.423	5522.83
1038.532	5476.17
1043.636	5431.83
1048.734	5366.17
1053.827	5307.83
1058.915	5235.17
1063.998	5229.83
1069.075	5253.17
1074.147	5278.5
1079.214	5371.5
1084.276	5516.17
1089.333	5779.83
1094.385	6176.5
1099.431	6486.5
1104.472	6469.83
1109.509	6204.17
1114.54	6008.5
1119.565	5960.5
1124.586	5884.5
1129.602	5663.5
1134.613	5427.5
1139.618	5249.17
1144.619	5177.83
1149.614	5135.17
1154.604	5108.83
1159.589	5067.17
1164.57	5048.83
1169.545	5087.83
1174.515	5191.83
1179.48	5314.5
1184.44	5446.17
1189.395	5480.5
1194.345	5396.5
1199.29	5245.17
1204.23	5114.17
1209.165	5029.5
1214.095	4957.83
1219.021	4965.17
1223.941	4969.83
1228.856	5004.17
1233.766	5036.5
1238.672	5093.17
1243.572	5117.83
1248.467	5173.5
1253.358	5177.5
1258.244	5181.17
1263.124	5248.83
1268	5417.83
1272.871	5633.5
1277.737	5938.5
1282.599	6341.83
1287.455	6742.17
1292.306	6927.83
1297.153	6907.5
1301.995	6622.5
1306.832	6144.5
1311.664	5782.83
1316.491	5582.83
1321.314	5378.17
1326.132	5163.83
1330.945	4975.17
1335.753	4835.17
1340.556	4729.17
1345.354	4657.17
1350.148	4562.5
1354.937	4485.17
1359.722	4417.5
1364.501	4343.83
1369.276	4311.17
1374.046	4290.17
1378.811	4251.83
1383.572	4201.17
1388.327	4162.5
1393.079	4132.5
1397.825	4132.5
1402.567	4112.83
1407.304	4143.17
1412.036	4212.17
1416.764	4335.83
1421.487	4415.17
1426.205	4379.17
1430.919	4298.5
1435.628	4285.17
1440.333	4338.17
1445.032	4432.17
1449.727	4522.17
1454.418	4576.5
1459.104	4618.83
1463.785	4629.5
1468.462	4552.83
1473.134	4411.5
1477.802	4246.5
1482.465	4127.83
1487.123	4062.5
1491.777	4049.83
1496.426	4024.17
1501.071	4028.5
1505.711	3993.5
1510.347	3943.17
1514.978	3926.83
1519.604	3874.83
1524.226	3840.17
1528.844	3791.5
1533.457	3747.5
1538.065	3710.17
1542.669	3673.17
1547.269	3643.17
1551.864	3637.17
1556.454	3632.83
1561.041	3635.17
1565.622	3605.5
1570.199	3631.83
1574.772	3681.83
1579.34	3736.83
1583.904	3782.17
1588.464	3839.83
1593.019	3886.5
1597.569	4045.17
1602.115	4397.17
1606.657	5018.17
1611.195	6117.17
1615.728	7798.5
1620.256	8670.5
1624.78	7431.17
1629.3	5396.5
1633.816	4237.5
1638.327	3827.5
1642.834	3664.17
1647.336	3574.83
1651.834	3510.5
1656.328	3456.83
1660.817	3438.17
1665.302	3438.83
1669.783	3396.17
1674.259	3385.5
1678.732	3343.83
1683.199	3313.83
1687.663	3287.17
1692.122	3245.17
1696.577	3214.17
1701.028	3162.17
1705.474	3153.5
1709.917	3227.83
1714.355	3418.5
1718.788	3824.5
1723.218	4477.17
1727.643	5361.83
1732.064	5989.5
1736.481	5704.83
1740.893	4917.83
1745.301	4189.17
1749.705	3629.17
1754.105	3221.17
1758.501	2952.5
1762.893	2804.5
1767.28	2692.83
1771.663	2640.5
1776.042	2592.17
1780.417	2560.17
1784.787	2553.83
1789.154	2529.17
1793.516	2507.83
1797.874	2478.5
1802.228	2446.83
1806.578	2400.83
1810.924	2347.5
1815.266	2319.83
1819.603	2283.17
1823.937	2256.17
1828.266	2235.17
1832.591	2221.5
1836.913	2213.5
1841.23	2216.17
1845.543	2217.17
1849.852	2219.17
1854.156	2222.5
1858.457	2237.5
1862.754	2241.5
1867.047	2245.83
1871.335	2243.83
1875.62	2257.83
1879.9	2261.83
1884.177	2243.83
1888.449	2224.5
1892.718	2202.17
1896.982	2198.17
1901.243	2178.5
1905.499	2162.17
1909.752	2161.17
1914	2159.5
1918.245	2140.5
1922.485	2161.5
1926.722	2148.83
1930.954	2152.83
1935.183	2154.83
1939.408	2122.5
1943.628	2113.83
1947.845	2083.17
1952.058	2048.5
1956.267	2004.5
1960.472	1948.5
1964.673	1904.5
1968.87	1856.83
1973.063	1814.17
1977.252	1776.17
1981.438	1768.83
1985.619	1742.17
1989.797	1719.5
1993.971	1716.83
1998.14	1700.5
2002.306	1704.5
2006.469	1693.5
2010.627	1681.17
2014.781	1675.17
2018.932	1659.5
2023.078	1645.83
2027.221	1625.83
2031.36	1601.17
2035.495	1589.83
2039.627	1565.17
2043.754	1556.5
2047.878	1540.17
2051.998	1526.83
2056.114	1514.5
2060.226	1519.83
2064.334	1526.83
2068.439	1529.83
2072.54	1535.17
2076.637	1535.5
2080.73	1543.83
2084.82	1534.5
2088.906	1539.17
2092.988	1524.5
2097.066	1513.5
2101.14	1495.83
2105.211	1465.17
2109.278	1441.17
2113.342	1417.5
2117.401	1404.5
2121.457	1382.83
2125.509	1366.5
2129.558	1345.5
2133.602	1334.83
2137.643	1319.17
2141.681	1316.17
2145.714	1305.83
2149.744	1291.17
2153.77	1281.5
2157.793	1278.17
2161.812	1255.5
2165.827	1232.83
2169.838	1215.83
2173.846	1209.5
2177.851	1188.83
2181.851	1173.17
2185.848	1158.5
2189.841	1151.5
2193.831	1149.5
2197.817	1125.5
2201.799	1136.17
2205.778	1134.5
2209.753	1122.5
2213.725	1116.83
2217.693	1114.5
2221.657	1125.83
2225.618	1117.83
2229.575	1104.83
2233.529	1104.83
2237.479	1090.17
2241.425	1077.5
2245.368	1052.17
2249.307	1041.17
2253.243	1023.17
2257.175	1022.83
2261.104	999.17
2265.029	986.83
2268.95	978.5
2272.868	966.83
2276.783	957.5
2280.694	947.5
2284.601	933.5
2288.505	929.83
2292.405	925.17
2296.302	898.83
2300.195	897.83
2304.085	889.5
2307.971	868.17
2311.854	854.5
2315.734	849.83
2319.609	835.83
2323.482	824.83
2327.351	824.17
2331.216	843.5
2335.078	845.83
2338.937	818.17
2342.792	809.83
2346.643	795.17
2350.492	807.5
2354.336	802.17
2358.178	807.5
2362.015	809.17
2365.85	810.17
2369.681	809.17
2373.508	821.5
2377.333	818.83
2381.153	813.17
2384.971	807.83
2388.785	803.83
2392.595	801.17
2396.402	797.17
2400.206	781.83
2404.007	788.83
2407.804	780.83
2411.597	781.17
2415.388	777.17
2419.174	778.83
2422.958	773.83
2426.738	765.17
2430.515	754.83
2434.289	753.17
2438.059	741.83
2441.825	737.17
2445.589	743.5
2449.349	733.17
2453.106	727.5
2456.859	717.5
2460.61	708.5
2464.356	701.17
2468.1	694.83
2471.84	691.83
2475.577	684.17
2479.311	686.17
2483.041	675.17
2486.768	683.5
2490.492	672.17
2494.213	675.17
2497.93	674.5
2501.644	668.5
2505.355	673.5
2509.062	665.17
2512.766	660.5
2516.467	662.5
2520.165	660.5
2523.859	658.83
2527.551	648.83
2531.239	650.17
2534.923	634.5
2538.605	632.83
2542.283	633.5
2545.958	628.83
2549.63	622.17
2553.299	627.5
2556.964	623.17
2560.626	615.83
2564.285	612.17
2567.941	605.83
2571.594	600.83
2575.243	599.5
2578.89	587.5
2582.533	582.17
2586.173	575.83
2589.809	573.5
2593.443	564.5
2597.073	552.17
2600.701	551.5
2604.325	540.83
2607.946	535.83
2611.564	535.83
2615.178	532.17
2618.79	526.5
2622.398	518.17
2626.004	518.17
2629.606	496.83
2633.205	491.5
2636.801	477.83
2640.394	474.5
2643.983	459.83
2647.57	453.83
2651.153	442.17
2654.734	441.17
2658.311	432.17
2661.885	423.83
2665.456	416.5
2669.025	404.5
2672.589	407.17
2676.151	402.83
2679.71	394.83
2683.266	384.17
2686.819	376.83
2690.368	375.83
2693.915	363.83
2697.458	358.17
2700.999	354.5
2704.536	347.17
2708.071	343.5
2711.602	337.17
2715.13	329.83
2718.656	325.83
2722.178	327.83
2725.697	320.17
2729.214	315.17
2732.727	321.5
2736.237	320.83
2739.744	313.83
2743.249	313.17
2746.75	314.83
2750.248	307.83
2753.743	300.17
2757.236	294.83
2760.725	280.17
2764.211	277.17
2767.695	273.17
2771.175	264.17
2774.652	262.17
2778.127	260.17
2781.598	260.17
2785.067	262.17
2788.532	259.17
2791.995	258.83
2795.455	259.17
2798.911	266.83
2802.365	263.17
2805.816	264.17
2809.264	265.5
2812.709	261.5
2816.151	267.5
2819.59	268.17
2823.026	262.83
2826.46	256.5
2829.89	252.83
2833.318	256.83
2836.742	251.5
2840.164	248.83
2843.583	244.5
2846.999	250.17
2850.412	250.83
2853.822	252.83
2857.229	255.83
2860.634	258.83
2864.035	265.83
2867.434	270.83
2870.83	275.83
2874.223	279.17
2877.613	276.83
2881	281.83
2884.385	284.5
2887.766	281.17
2891.145	285.83
2894.521	282.83
2897.894	283.5
2901.264	287.5
2904.631	292.5
2907.996	301.5
2911.358	311.83
2914.717	312.5
2918.073	304.17
2921.426	297.5
2924.777	290.17
2928.124	288.17
2931.469	285.5
2934.811	280.17
2938.15	285.5
2941.487	286.17
2944.821	281.5
2948.152	283.5
2951.48	283.83
2954.805	285.5
2958.128	300.17
2961.447	302.5
2964.765	316.17
2968.079	324.5
2971.39	319.17
2974.699	304.17
2978.005	288.17
2981.308	266.5
2984.609	248.17
2987.907	231.17
2991.202	220.17
2994.494	214.5
2997.784	210.17
3001.07	205.17
3004.355	196.83
3007.636	185.83
3010.915	172.5
3014.191	155.17
3017.464	143.5
3020.734	126.17
3024.002	113.17
3027.267	106.5
3030.53	94.83
3033.789	86.17
3037.046	82.17
3040.301	75.17
3043.552	77.17
3046.801	74.5
3050.048	70.17
3053.291	77.17
3056.532	84.17
3059.771	87.83
3063.006	93.83
3066.239	108.83
3069.469	124.5
3072.697	141.17
3075.922	161.5
3079.144	184.17
3082.364	207.83
3085.581	230.5
3088.795	228.5
3092.007	190.5
3095.216	146.17
3098.423	114.5
3101.627	92.5
3104.828	73.5
3108.026	59.83
3111.222	49.5
3114.416	45.17
3117.607	39.17
3120.795	30.5
3123.98	22.5
3127.163	21.5
3130.344	14.5
3133.521	12.17
3136.696	12.17
3139.869	3.83
3143.039	-1.5
3146.206	-2.17
3149.371	-2.83
3152.533	-8.17
3155.693	-11.5
3158.85	-15.5
3162.005	-17.5
3165.157	-20.83
3168.306	-25.83
3171.453	-31.83
3174.597	-29.17
3177.739	-33.83
3180.878	-39.17
3184.014	-37.83
3187.149	-40.5
3190.28	-39.17
3193.409	-45.5
3196.536	-45.5
3199.659	-44.5
3202.781	-49.17
3205.9	-49.5
3209.016	-50.83
3212.13	-53.17
3215.241	-54.5
3218.35	-54.83
3221.456	-54.17
3224.56	-54.83
3227.661	-57.5
3230.76	-58.5
3233.856	-64.17
3236.95	-65.5
3240.041	-64.5
3243.13	-65.83
3246.216	-65.5
3249.3	-72.17
3252.382	-70.5
3255.46	-72.17
3258.537	-69.5
3261.611	-72.5
3264.682	-77.83
3267.751	-74.5
3270.818	-73.83
3273.882	-74.17
3276.943	-76.17
3280.002	-78.17
3283.059	-76.83
3286.113	-79.17
3289.165	-79.5
3292.214	-80.83
3295.261	-81.5
3298.306	-86.5
3301.348	-88.5
3304.387	-85.83
3307.425	-83.83
3310.459	-87.17
3313.492	-89.5
3316.521	-89.83
3319.549	-86.17
3322.574	-88.83
3325.597	-91.83
3328.617	-92.5
3331.635	-89.17
3334.65	-94.5
3337.663	-93.5
3340.674	-90.17
3343.682	-91.83
3346.688	-93.5
3349.691	-93.83
3352.692	-93.5
3355.691	-95.83
3358.687	-94.83
3361.681	-96.5
3364.673	-99.17
3367.662	-97.5
3370.649	-103.17
3373.633	-105.5
3376.615	-101.17
3379.595	-102.17
3382.572	-105.17
3385.547	-106.17
3388.52	-108.17
3391.49	-110.83
3394.458	-108.83
3397.424	-106.5
3400.387	-112.83
3403.348	-111.17
3406.307	-109.17
3409.263	-113.5
3412.217	-111.17
3415.168	-111.17
3418.118	-113.17
3421.065	-109.5
3424.009	-110.5
3426.951	-113.83
3429.891	-114.83
3432.829	-111.17
3435.764	-114.17
3438.697	-113.83
3441.628	-118.5
3444.557	-115.17
3447.483	-116.83
3450.407	-115.83
3453.328	-119.17
3456.247	-118.5
3459.164	-121.17
3462.079	-119.17
3464.991	-118.5
3467.902	-121.17
3470.809	-121.17
3473.715	-120.5
3476.618	-121.17
3479.519	-123.83
3482.418	-124.83
3485.315	-123.17
3488.209	-123.83
3491.101	-123.17
3493.99	-120.83
3496.878	-126.5
3499.763	-125.83
3502.646	-125.5
3505.527	-125.83
3508.405	-124.83
3511.281	-127.5
3514.155	-125.5
3517.027	-124.83
3519.897	-126.5
3522.764	-127.83
3525.629	-127.17
3528.492	-128.83
3531.352	-126.5
3534.211	-129.83
3537.067	-128.17
3539.921	-130.5
3542.773	-129.5
3545.622	-129.5
3548.469	-128.83
3551.315	-130.5
3554.157	-128.17
3556.998	-127.17
3559.837	-129.5
3562.673	-129.83
3565.507	-130.17
3568.339	-130.83
3571.169	-129.5
3573.996	-134.5
3576.822	-131.17
3579.645	-133.17
3582.466	-130.17
3585.285	-132.83
3588.101	-132.83
3590.916	-132.83
3593.728	-134.83
3596.538	-135.83
3599.346	-136.17
3602.152	-134.83
3604.956	-135.83
3607.757	-133.5
3610.556	-135.83
3613.354	-135.83
3616.149	-137.17
3618.942	-135.5
3621.732	-139.5
3624.521	-136.17
3627.307	-136.83
3630.092	-136.5
3632.874	-137.5
3635.654	-136.83
3638.432	-134.83
3641.208	-136.83
3643.982	-136.83
3646.753	-136.17
3649.523	-136.83
3652.29	-136.17
3655.055	-136.83
3657.818	-134.83
3660.579	-135.5
3663.338	-134.17
3666.095	-137.5
3668.849	-137.5
3671.602	-137.17
3674.352	-135.83
3677.101	-139.5
3679.847	-135.83
3682.591	-139.17
3685.333	-138.83
3688.073	-138.5
3690.811	-135.5
3693.547	-136.17
3696.281	-142.5
3699.013	-136.83
3701.742	-140.5
3704.47	-135.83
3707.195	-138.83
3709.919	-141.5
3712.64	-140.83
3715.359	-138.17
3718.076	-139.83
3720.792	-140.83
3723.505	-138.83
3726.216	-139.5
3728.925	-139.5
3731.632	-141.17
3734.336	-138.5
3737.039	-140.83
3739.74	-135.5
3742.439	-141.5
3745.136	-141.83
3747.83	-140.83
3750.523	-140.17
3753.213	-136.17
3755.902	-137.5
3758.589	-141.83
3761.273	-136.5
3763.956	-141.83
3766.636	-136.5
3769.315	-139.5
3771.991	-138.83
3774.665	-137.5
3777.338	-136.17
3780.008	-139.17
3782.677	-136.83
3785.343	-139.83
3788.007	-136.17
3790.67	-140.83
3793.33	-135.17
3795.989	-138.83
3798.645	-137.17
3801.299	-138.5
3803.952	-137.83
3806.602	-142.83
3809.251	-141.17
3811.897	-140.17
3814.542	-140.17
3817.184	-138.5
3819.825	-140.17
3822.463	-140.83
3825.1	-141.5
3827.735	-141.5
3830.367	-141.83
3832.998	-144.83
3835.627	-138.83
3838.253	-140.5
3840.878	-143.17
3843.501	-140.5
3846.122	-140.17
3848.741	-141.5
3851.358	-141.5
3853.973	-145.17
3856.586	-142.5
3859.197	-143.5
3861.806	-141.17
3864.414	-141.5
3867.019	-142.83
3869.622	-143.5
3872.224	-135.17
3874.823	-137.17
3877.421	-131.5
3880.016	-128.5
3882.61	-128.83
3885.202	-125.5
3887.792	-127.17
3890.38	-134.5
3892.966	-140.17
3895.55	-139.17
3898.132	-143.83
3900.713	-140.83
3903.291	-141.5
3905.868	-140.17
3908.442	-141.5
3911.015	-143.5
3913.586	-144.17
3916.155	-143.5
3918.722	-143.5
3921.287	-143.17
3923.85	-140.17
3926.411	-145.17
3928.971	-144.83
3931.528	-143.17
3934.084	-142.83
3936.638	-142.17
3939.19	-146.83
3941.74	-143.83
3944.288	-143.5
3946.834	-146.5
3949.378	-144.5
3951.921	-143.83
3954.462	-143.17
3957	-143.83
3959.537	-142.17
3962.072	-139.83
3964.606	-138.5
3967.137	-142.5
3969.667	-139.83
3972.194	-139.83
3974.72	-139.5
3977.244	-143.17
3979.766	-137.83
3982.286	-136.83
3984.805	-136.17
3987.321	-137.5
3989.836	-137.5
3992.349	-137.17
3994.86	-138.5
3997.369	-138.17
3999.877	-138.17
4002.382	-137.5
4004.886	-137.83
4007.388	-137.5
4009.888	-136.17
4012.386	-137.5
4014.883	-136.83
4017.377	-136.83
4019.87	-137.17
4022.361	-135.5
4024.85	-136.83
4027.338	-137.5
4029.823	-134.83
4032.307	-139.5
4034.789	-136.5
4037.269	-137.17
4039.747	-135.17
4042.224	-135.17
4044.699	-136.17
4047.172	-141.17
4049.643	-137.17
4052.112	-137.17
4054.58	-134.17
4057.046	-136.5
4059.51	-134.83
4061.972	-139.5
4064.432	-137.17
4066.891	-135.5
4069.348	-131.83
4071.803	-135.5
4074.256	-133.83
4076.708	-133.17
4079.158	-135.83
4081.606	-135.5
4084.052	-133.5
4086.497	-134.83
4088.939	-136.17
4091.38	-132.83
4093.819	-137.17
4096.257	-148.17
4098.693	-147.83
4101.127	-148.17
4103.559	-147.17
4105.989	-72.17
4108.418	-64.83
4110.845	-63.83
4113.27	-51.17
4115.694	-43.83
4118.115	-31.5
4120.535	-136.5
4122.954	-136.83
4125.37	-140.83
4127.785	-137.83
4130.198	-139.5
4132.609	-138.17
4135.019	-147.83
4137.427	-150.83
4139.833	-148.83
4142.237	-149.5
