Data from SERS-ec1_RamanShift_2.txt Node
Date: Tue Nov 07 11:26:32 IST 2017
User: aro
Spectrometer: QEPB0276
Trigger mode: 0
Integration Time (sec): 1.500000E1
Scans to average: 3
Electric dark correction enabled: true
Nonlinearity correction enabled: false
Boxcar width: 0
XAxis mode: Raman Shifts
Number of Pixels in Spectrum: 1044
>>>>>Begin Spectral Data<<<<<
160.701	-20.5
166.742	52.5
172.777	243.83
178.805	824.5
184.826	2320.5
190.841	5122.5
196.849	8625.17
202.85	11440.5
208.845	12701.83
214.833	13080.5
220.815	13451.5
226.789	14154.5
232.758	15088.5
238.719	16185.17
244.674	17251.83
250.623	18333.83
256.565	19267.83
262.5	19873.5
268.429	20067.17
274.351	20014.17
280.267	19825.17
286.176	19553.17
292.079	19243.83
297.975	18792.17
303.865	18164.5
309.748	17317.5
315.625	16433.5
321.495	15617.83
327.359	14980.83
333.217	14340.17
339.068	13764.5
344.912	13178.83
350.751	12748.5
356.583	12490.5
362.408	12328.17
368.227	12239.5
374.04	12202.83
379.847	12254.83
385.647	12333.83
391.44	12330.5
397.228	12228.5
403.009	12054.5
408.784	11897.5
414.553	11883.83
420.315	11930.83
426.071	11895.5
431.821	11798.5
437.565	11639.17
443.302	11539.5
449.033	11438.17
454.758	11364.17
460.477	11298.83
466.189	11255.5
471.896	11220.17
477.596	11235.5
483.29	11275.17
488.978	11299.5
494.66	11323.83
500.335	11327.17
506.005	11305.83
511.668	11218.5
517.325	11121.83
522.977	11023.5
528.622	10993.5
534.261	10971.83
539.894	10996.83
545.521	11074.83
551.141	11194.5
556.756	11229.5
562.365	11190.17
567.968	11088.17
573.565	11006.17
579.155	10971.5
584.74	10967.5
590.319	10979.83
595.892	11038.83
601.459	11077.5
607.02	11068.83
612.575	10992.17
618.124	10879.5
623.667	10854.83
629.204	10827.5
634.735	10869.17
640.261	10931.5
645.781	11053.83
651.294	11258.83
656.802	11557.17
662.304	11903.83
667.8	11934.5
673.29	11610.17
678.775	11197.83
684.254	10971.5
689.726	10917.83
695.193	10900.17
700.655	10892.83
706.11	10879.17
711.56	10898.83
717.004	10929.83
722.442	10905.83
727.874	10883.83
733.301	10869.83
738.722	10879.17
744.137	10915.17
749.547	10903.17
754.951	10937.17
760.349	10964.5
765.741	11045.5
771.128	11096.5
776.509	11172.83
781.885	11241.17
787.254	11319.83
792.618	11414.17
797.977	11474.17
803.33	11497.83
808.677	11430.5
814.019	11358.83
819.355	11282.5
824.686	11295.83
830.011	11351.83
835.33	11451.83
840.644	11543.83
845.952	11598.83
851.255	11726.83
856.552	11841.5
861.844	11897.5
867.13	11997.5
872.41	12098.83
877.686	12296.5
882.955	12595.83
888.219	12715.83
893.478	12562.5
898.731	12195.17
903.979	11787.17
909.221	11547.17
914.458	11410.5
919.69	11435.5
924.916	11512.83
930.136	11601.83
935.351	11718.5
940.561	11795.17
945.766	11960.17
950.965	12226.83
956.158	12542.83
961.347	12748.17
966.529	12882.83
971.707	12986.17
976.879	13029.83
982.046	13031.83
987.208	12957.83
992.364	12977.5
997.515	13311.17
1002.66	14178.5
1007.801	15766.83
1012.936	18356.5
1018.066	21661.5
1023.19	23717.17
1028.309	22372.83
1033.423	18412.17
1038.532	14985.5
1043.636	13292.5
1048.734	12663.83
1053.827	12475.17
1058.915	12609.17
1063.998	13035.5
1069.075	13434.5
1074.147	13481.17
1079.214	13336.83
1084.276	13220.5
1089.333	13080.5
1094.385	13005.5
1099.431	12963.17
1104.472	12959.5
1109.509	12888.5
1114.54	12784.5
1119.565	12749.83
1124.586	12752.5
1129.602	12943.5
1134.613	13231.83
1139.618	13592.5
1144.619	13852.5
1149.614	13764.17
1154.604	13447.17
1159.589	13252.5
1164.57	13248.17
1169.545	13478.17
1174.515	13822.17
1179.48	14436.83
1184.44	15805.83
1189.395	18654.17
1194.345	23730.17
1199.29	29650.83
1204.23	32724.17
1209.165	30782.17
1214.095	26125.5
1219.021	22258.5
1223.941	20025.5
1228.856	18418.5
1233.766	17021.5
1238.672	16429.17
1243.572	16644.5
1248.467	17000.17
1253.358	17009.5
1258.244	16829.83
1263.124	16795.17
1268	16724.17
1272.871	16091.5
1277.737	15034.5
1282.599	14122.83
1287.455	13667.83
1292.306	13509.17
1297.153	13557.5
1301.995	13660.17
1306.832	13869.5
1311.664	14185.5
1316.491	14448.83
1321.314	14525.5
1326.132	14509.17
1330.945	14999.17
1335.753	16633.83
1340.556	18507.17
1345.354	18747.17
1350.148	17174.83
1354.937	15428.83
1359.722	14212.5
1364.501	13450.5
1369.276	12960.83
1374.046	12632.17
1378.811	12380.83
1383.572	12178.17
1388.327	11888.5
1393.079	11661.17
1397.825	11563.83
1402.567	11555.17
1407.304	11645.5
1412.036	11912.17
1416.764	12325.17
1421.487	12780.83
1426.205	13239.5
1430.919	13405.17
1435.628	13258.83
1440.333	13033.17
1445.032	13012.83
1449.727	13138.83
1454.418	13189.83
1459.104	13008.83
1463.785	12750.17
1468.462	12521.5
1473.134	12466.83
1477.802	12590.5
1482.465	12913.5
1487.123	13506.17
1491.777	13999.5
1496.426	13833.83
1501.071	13191.5
1505.711	12593.5
1510.347	12306.5
1514.978	12143.17
1519.604	12102.17
1524.226	12210.83
1528.844	12465.5
1533.457	12801.83
1538.065	13340.17
1542.669	13798.83
1547.269	13793.83
1551.864	13333.83
1556.454	12703.83
1561.041	12223.17
1565.622	11949.17
1570.199	12011.83
1574.772	12317.5
1579.34	12880.17
1583.904	13756.5
1588.464	15263.17
1593.019	18165.83
1597.569	23415.5
1602.115	31260.83
1606.657	39562.83
1611.195	43577.83
1615.728	39590.5
1620.256	31094.5
1624.78	25533.17
1629.3	25753.83
1633.816	29203.17
1638.327	31943.83
1642.834	31120.17
1647.336	26578.83
1651.834	20792.83
1656.328	16181.5
1660.817	13448.83
1665.302	12041.17
1669.783	11220.5
1674.259	10696.83
1678.732	10314.5
1683.199	9904.83
1687.663	9575.83
1692.122	9195.5
1696.577	8776.5
1701.028	8366.5
1705.474	8017.83
1709.917	7774.17
1714.355	7586.83
1718.788	7543.17
1723.218	7493.17
1727.643	7477.83
1732.064	7398.17
1736.481	7266.5
1740.893	7131.17
1745.301	6975.17
1749.705	6810.5
1754.105	6658.83
1758.501	6522.83
1762.893	6410.17
1767.28	6332.83
1771.663	6263.17
1776.042	6213.5
1780.417	6178.17
1784.787	6180.17
1789.154	6190.17
1793.516	6131.83
1797.874	6023.5
1802.228	5947.17
1806.578	5830.5
1810.924	5711.17
1815.266	5594.17
1819.603	5524.17
1823.937	5469.17
1828.266	5452.5
1832.591	5453.17
1836.913	5452.83
1841.23	5485.83
1845.543	5528.17
1849.852	5569.83
1854.156	5615.5
1858.457	5673.83
1862.754	5719.5
1867.047	5743.83
1871.335	5762.5
1875.62	5783.17
1879.9	5755.5
1884.177	5781.17
1888.449	5754.17
1892.718	5731.5
1896.982	5717.5
1901.243	5701.17
1905.499	5688.17
1909.752	5697.83
1914	5709.83
1918.245	5744.17
1922.485	5768.5
1926.722	5778.83
1930.954	5801.5
1935.183	5807.83
1939.408	5801.83
1943.628	5756.17
1947.845	5656.83
1952.058	5571.5
1956.267	5456.5
1960.472	5321.17
1964.673	5190.17
1968.87	5058.17
1973.063	4972.5
1977.252	4898.5
1981.438	4856.5
1985.619	4767.83
1989.797	4751.83
1993.971	4736.83
1998.14	4700.17
2002.306	4713.17
2006.469	4713.5
2010.627	4696.83
2014.781	4707.83
2018.932	4691.83
2023.078	4661.17
2027.221	4612.83
2031.36	4566.5
2035.495	4534.83
2039.627	4479.5
2043.754	4472.5
2047.878	4442.83
2051.998	4458.5
2056.114	4454.17
2060.226	4477.5
2064.334	4497.5
2068.439	4528.17
2072.54	4578.17
2076.637	4623.83
2080.73	4670.83
2084.82	4689.5
2088.906	4691.17
2092.988	4698.83
2097.066	4645.5
2101.14	4597.5
2105.211	4548.83
2109.278	4493.5
2113.342	4479.83
2117.401	4455.17
2121.457	4457.17
2125.509	4473.5
2129.558	4453.5
2133.602	4408.83
2137.643	4360.5
2141.681	4302.83
2145.714	4241.5
2149.744	4165.17
2153.77	4153.17
2157.793	4086.17
2161.812	4058.17
2165.827	4014.5
2169.838	3961.17
2173.846	3907.17
2177.851	3871.83
2181.851	3837.17
2185.848	3812.83
2189.841	3797.5
2193.831	3790.83
2197.817	3778.83
2201.799	3780.5
2205.778	3786.83
2209.753	3786.83
2213.725	3789.17
2217.693	3802.5
2221.657	3834.83
2225.618	3818.5
2229.575	3810.5
2233.529	3800.17
2237.479	3781.5
2241.425	3741.83
2245.368	3704.5
2249.307	3671.5
2253.243	3625.83
2257.175	3596.5
2261.104	3545.17
2265.029	3519.83
2268.95	3487.17
2272.868	3459.17
2276.783	3430.5
2280.694	3385.5
2284.601	3368.83
2288.505	3354.83
2292.405	3311.83
2296.302	3287.83
2300.195	3280.5
2304.085	3229.83
2307.971	3224.5
2311.854	3166.5
2315.734	3140.83
2319.609	3110.17
2323.482	3091.17
2327.351	3072.5
2331.216	3093.83
2335.078	3097.17
2338.937	3075.83
2342.792	3064.83
2346.643	3093.17
2350.492	3093.83
2354.336	3114.83
2358.178	3130.17
2362.015	3150.17
2365.85	3172.83
2369.681	3192.83
2373.508	3207.5
2377.333	3227.5
2381.153	3225.17
2384.971	3224.17
2388.785	3236.83
2392.595	3237.17
2396.402	3230.17
2400.206	3225.5
2404.007	3218.5
2407.804	3226.83
2411.597	3250.5
2415.388	3247.83
2419.174	3233.5
2422.958	3239.17
2426.738	3243.83
2430.515	3232.17
2434.289	3253.83
2438.059	3244.83
2441.825	3219.17
2445.589	3198.17
2449.349	3187.5
2453.106	3174.17
2456.859	3152.83
2460.61	3110.83
2464.356	3084.83
2468.1	3063.5
2471.84	3058.5
2475.577	3033.83
2479.311	3023.17
2483.041	3037.5
2486.768	3025.5
2490.492	3031.5
2494.213	3037.17
2497.93	3012.5
2501.644	3011.83
2505.355	3003.17
2509.062	3003.17
2512.766	3007.17
2516.467	2993.5
2520.165	2981.5
2523.859	2976.17
2527.551	2966.5
2531.239	2946.17
2534.923	2939.83
2538.605	2922.5
2542.283	2928.83
2545.958	2917.83
2549.63	2920.17
2553.299	2918.83
2556.964	2901.83
2560.626	2878.83
2564.285	2862.5
2567.941	2851.17
2571.594	2826.5
2575.243	2809.5
2578.89	2774.17
2582.533	2757.5
2586.173	2714.17
2589.809	2691.17
2593.443	2659.5
2597.073	2631.83
2600.701	2623.83
2604.325	2599.83
2607.946	2574.83
2611.564	2575.5
2615.178	2562.5
2618.79	2538.17
2622.398	2531.83
2626.004	2514.17
2629.606	2483.5
2633.205	2454.17
2636.801	2431.17
2640.394	2411.83
2643.983	2374.5
2647.57	2344.83
2651.153	2322.5
2654.734	2302.17
2658.311	2283.83
2661.885	2272.17
2665.456	2264.5
2669.025	2233.17
2672.589	2228.83
2676.151	2209.17
2679.71	2192.17
2683.266	2167.5
2686.819	2151.5
2690.368	2118.83
2693.915	2082.17
2697.458	2062.83
2700.999	2044.5
2704.536	2031.83
2708.071	2012.83
2711.602	1987.17
2715.13	1977.17
2718.656	1977.17
2722.178	1956.5
2725.697	1966.17
2729.214	1964.83
2732.727	1981.17
2736.237	1993.5
2739.744	1983.83
2743.249	1985.5
2746.75	1979.17
2750.248	1965.5
2753.743	1944.17
2757.236	1906.83
2760.725	1869.17
2764.211	1848.83
2767.695	1824.83
2771.175	1810.83
2774.652	1797.5
2778.127	1780.83
2781.598	1771.83
2785.067	1792.5
2788.532	1806.83
2791.995	1841.17
2795.455	1856.83
2798.911	1897.5
2802.365	1927.5
2805.816	1937.83
2809.264	1961.83
2812.709	1983.17
2816.151	2010.5
2819.59	2024.5
2823.026	2052.17
2826.46	2080.83
2829.89	2101.5
2833.318	2160.17
2836.742	2177.17
2840.164	2223.17
2843.583	2271.83
2846.999	2344.17
2850.412	2385.83
2853.822	2444.83
2857.229	2510.83
2860.634	2550.17
2864.035	2601.5
2867.434	2626.5
2870.83	2671.5
2874.223	2661.5
2877.613	2665.17
2881	2671.83
2884.385	2657.5
2887.766	2660.17
2891.145	2634.83
2894.521	2658.83
2897.894	2661.17
2901.264	2658.5
2904.631	2654.83
2907.996	2683.17
2911.358	2687.17
2914.717	2705.5
2918.073	2721.17
2921.426	2724.83
2924.777	2686.5
2928.124	2635.83
2931.469	2548.83
2934.811	2435.83
2938.15	2311.83
2941.487	2194.5
2944.821	2076.5
2948.152	1965.5
2951.48	1873.5
2954.805	1776.83
2958.128	1711.83
2961.447	1630.17
2964.765	1570.17
2968.079	1507.83
2971.39	1456.17
2974.699	1406.83
2978.005	1366.17
2981.308	1330.17
2984.609	1291.17
2987.907	1250.17
2991.202	1210.5
2994.494	1180.17
2997.784	1137.5
3001.07	1104.17
3004.355	1066.17
3007.636	1035.83
3010.915	998.5
3014.191	971.5
3017.464	940.5
3020.734	907.17
3024.002	875.83
3027.267	853.17
3030.53	834.17
3033.789	817.5
3037.046	790.83
3040.301	779.5
3043.552	778.5
3046.801	763.17
3050.048	758.17
3053.291	748.17
3056.532	735.5
3059.771	734.17
3063.006	724.5
3066.239	720.17
3069.469	711.17
3072.697	696.17
3075.922	683.5
3079.144	678.5
3082.364	658.5
3085.581	651.83
3088.795	641.17
3092.007	629.17
3095.216	612.83
3098.423	612.17
3101.627	600.83
3104.828	587.17
3108.026	581.5
3111.222	568.17
3114.416	563.5
3117.607	555.17
3120.795	540.5
3123.98	542.5
3127.163	541.17
3130.344	523.5
3133.521	524.17
3136.696	513.17
3139.869	508.5
3143.039	495.17
3146.206	483.83
3149.371	480.5
3152.533	462.5
3155.693	451.5
3158.85	436.17
3162.005	423.5
3165.157	410.17
3168.306	395.17
3171.453	378.83
3174.597	375.5
3177.739	363.17
3180.878	351.83
3184.014	352.5
3187.149	339.5
3190.28	331.17
3193.409	325.17
3196.536	315.17
3199.659	312.5
3202.781	307.5
3205.9	304.17
3209.016	296.83
3212.13	285.5
3215.241	284.83
3218.35	271.83
3221.456	262.17
3224.56	251.5
3227.661	242.5
3230.76	233.83
3233.856	227.83
3236.95	215.5
3240.041	206.5
3243.13	203.83
3246.216	195.83
3249.3	191.5
3252.382	183.5
3255.46	178.17
3258.537	173.17
3261.611	171.5
3264.682	161.5
3267.751	153.5
3270.818	152.17
3273.882	147.17
3276.943	139.83
3280.002	130.5
3283.059	127.83
3286.113	122.17
3289.165	110.5
3292.214	109.83
3295.261	100.17
3298.306	96.83
3301.348	84.5
3304.387	85.17
3307.425	76.5
3310.459	72.17
3313.492	65.5
3316.521	58.83
3319.549	61.17
3322.574	55.5
3325.597	52.83
3328.617	49.17
3331.635	50.5
3334.65	41.5
3337.663	45.17
3340.674	39.5
3343.682	39.83
3346.688	39.83
3349.691	35.17
3352.692	32.5
3355.691	34.5
3358.687	26.17
3361.681	19.5
3364.673	12.5
3367.662	11.5
3370.649	8.17
3373.633	5.5
3376.615	0.5
3379.595	-4.5
3382.572	-6.5
3385.547	-11.83
3388.52	-16.5
3391.49	-21.17
3394.458	-22.5
3397.424	-24.17
3400.387	-30.17
3403.348	-31.17
3406.307	-40.17
3409.263	-36.5
3412.217	-35.5
3415.168	-46.5
3418.118	-41.83
3421.065	-46.5
3424.009	-47.17
3426.951	-49.5
3429.891	-56.17
3432.829	-53.83
3435.764	-59.17
3438.697	-62.17
3441.628	-66.17
3444.557	-61.83
3447.483	-74.83
3450.407	-78.17
3453.328	-78.17
3456.247	-82.5
3459.164	-86.83
3462.079	-94.83
3464.991	-92.17
3467.902	-101.17
3470.809	-101.17
3473.715	-98.83
3476.618	-106.83
3479.519	-107.5
3482.418	-111.17
3485.315	-109.83
3488.209	-112.83
3491.101	-112.83
3493.99	-111.5
3496.878	-119.83
3499.763	-118.83
3502.646	-122.83
3505.527	-127.83
3508.405	-125.17
3511.281	-130.17
3514.155	-130.5
3517.027	-134.5
3519.897	-138.17
3522.764	-137.17
3525.629	-143.83
3528.492	-147.17
3531.352	-150.83
3534.211	-152.5
3537.067	-156.17
3539.921	-158.83
3542.773	-162.83
3545.622	-163.83
3548.469	-164.5
3551.315	-167.83
3554.157	-171.17
3556.998	-169.17
3559.837	-171.17
3562.673	-175.17
3565.507	-173.5
3568.339	-173.5
3571.169	-180.5
3573.996	-181.83
3576.822	-182.5
3579.645	-179.5
3582.466	-183.17
3585.285	-183.5
3588.101	-185.17
3590.916	-186.83
3593.728	-192.83
3596.538	-191.83
3599.346	-193.83
3602.152	-196.5
3604.956	-197.17
3607.757	-196.83
3610.556	-199.83
3613.354	-200.83
3616.149	-204.83
3618.942	-205.5
3621.732	-209.83
3624.521	-205.83
3627.307	-205.17
3630.092	-207.5
3632.874	-207.5
3635.654	-210.17
3638.432	-205.83
3641.208	-211.17
3643.982	-211.17
3646.753	-209.5
3649.523	-214.83
3652.29	-211.5
3655.055	-210.5
3657.818	-213.17
3660.579	-217.5
3663.338	-215.5
3666.095	-216.83
3668.849	-217.5
3671.602	-216.5
3674.352	-218.5
3677.101	-219.17
3679.847	-218.83
3682.591	-219.5
3685.333	-219.17
3688.073	-218.17
3690.811	-217.17
3693.547	-218.17
3696.281	-217.17
3699.013	-217.5
3701.742	-222.83
3704.47	-216.83
3707.195	-220.5
3709.919	-221.5
3712.64	-222.17
3715.359	-218.83
3718.076	-221.83
3720.792	-222.5
3723.505	-222.83
3726.216	-222.83
3728.925	-222.5
3731.632	-225.83
3734.336	-224.83
3737.039	-224.83
3739.74	-225.17
3742.439	-226.5
3745.136	-230.5
3747.83	-227.5
3750.523	-225.17
3753.213	-224.17
3755.902	-224.83
3758.589	-227.17
3761.273	-226.17
3763.956	-226.17
3766.636	-224.17
3769.315	-227.17
3771.991	-224.83
3774.665	-226.5
3777.338	-226.17
3780.008	-228.5
3782.677	-226.5
3785.343	-227.5
3788.007	-227.83
3790.67	-231.83
3793.33	-228.83
3795.989	-231.17
3798.645	-228.17
3801.299	-234.17
3803.952	-234.17
3806.602	-236.17
3809.251	-237.5
3811.897	-237.17
3814.542	-238.17
3817.184	-236.17
3819.825	-239.17
3822.463	-238.83
3825.1	-238.5
3827.735	-238.83
3830.367	-241.17
3832.998	-242.83
3835.627	-239.83
3838.253	-242.5
3840.878	-244.5
3843.501	-241.5
3846.122	-241.17
3848.741	-242.17
3851.358	-243.5
3853.973	-247.5
3856.586	-245.83
3859.197	-245.83
3861.806	-243.5
3864.414	-243.17
3867.019	-246.5
3869.622	-246.17
3872.224	-240.83
3874.823	-244.17
3877.421	-239.5
3880.016	-238.83
3882.61	-234.5
3885.202	-234.17
3887.792	-238.5
3890.38	-243.83
3892.966	-248.17
3895.55	-250.83
3898.132	-251.83
3900.713	-248.83
3903.291	-250.83
3905.868	-255.17
3908.442	-253.83
3911.015	-256.17
3913.586	-257.83
3916.155	-255.5
3918.722	-256.5
3921.287	-254.17
3923.85	-252.5
3926.411	-256.83
3928.971	-256.17
3931.528	-256.83
3934.084	-256.17
3936.638	-256.5
3939.19	-260.83
3941.74	-258.83
3944.288	-255.83
3946.834	-257.5
3949.378	-258.17
3951.921	-256.83
3954.462	-256.83
3957	-260.17
3959.537	-255.83
3962.072	-255.5
3964.606	-254.83
3967.137	-256.83
3969.667	-253.83
3972.194	-254.83
3974.72	-251.83
3977.244	-254.5
3979.766	-252.17
3982.286	-249.17
3984.805	-248.83
3987.321	-251.17
3989.836	-247.83
3992.349	-247.83
3994.86	-246.17
3997.369	-244.5
3999.877	-245.17
4002.382	-245.83
4004.886	-246.5
4007.388	-245.17
4009.888	-245.83
4012.386	-241.83
4014.883	-242.83
4017.377	-243.17
4019.87	-244.5
4022.361	-246.17
4024.85	-244.83
4027.338	-246.5
4029.823	-243.17
4032.307	-245.17
4034.789	-243.83
4037.269	-247.83
4039.747	-247.17
4042.224	-247.83
4044.699	-247.5
4047.172	-251.5
4049.643	-249.17
4052.112	-251.83
4054.58	-250.83
4057.046	-249.17
4059.51	-251.5
4061.972	-255.83
4064.432	-250.5
4066.891	-251.83
4069.348	-248.5
4071.803	-248.5
4074.256	-246.5
4076.708	-249.17
4079.158	-250.83
4081.606	-250.5
4084.052	-251.83
4086.497	-249.17
4088.939	-250.17
4091.38	-248.5
4093.819	-249.83
4096.257	-273.83
4098.693	-275.17
4101.127	-273.83
4103.559	-275.17
4105.989	-145.5
4108.418	-130.17
4110.845	-115.5
4113.27	-98.17
4115.694	-82.83
4118.115	-58.17
4120.535	-249.83
4122.954	-250.83
4125.37	-251.83
4127.785	-254.17
4130.198	-253.83
4132.609	-252.5
4135.019	-274.17
4137.427	-276.83
4139.833	-274.83
4142.237	-274.5
