Data from SERS-ec10_RamanShift_4.txt Node
Date: Tue Nov 07 11:21:17 IST 2017
User: aro
Spectrometer: QEPB0276
Trigger mode: 0
Integration Time (sec): 1.500000E1
Scans to average: 3
Electric dark correction enabled: true
Nonlinearity correction enabled: false
Boxcar width: 0
XAxis mode: Raman Shifts
Number of Pixels in Spectrum: 1044
>>>>>Begin Spectral Data<<<<<
160.701	-23.29
166.742	17.71
172.777	131.38
178.805	483.71
184.826	1371.71
190.841	2965.38
196.849	4891.04
202.85	6265.71
208.845	6599.04
214.833	6430.38
220.815	6325.71
226.789	6431.38
232.758	6689.04
238.719	7043.71
244.674	7402.38
250.623	7792.71
256.565	8106.71
262.5	8256.04
268.429	8352.38
274.351	8396.38
280.267	8499.71
286.176	8556.71
292.079	8405.04
297.975	8270.71
303.865	8025.38
309.748	7694.38
315.625	7227.71
321.495	6758.38
327.359	6338.71
333.217	5975.04
339.068	5679.38
344.912	5402.04
350.751	5234.04
356.583	5148.71
362.408	5128.04
368.227	5150.04
374.04	5213.04
379.847	5332.04
385.647	5548.04
391.44	5756.71
397.228	5924.04
403.009	5894.38
408.784	5654.04
414.553	5406.38
420.315	5244.71
426.071	5131.38
431.821	4971.04
437.565	4834.38
443.302	4757.71
449.033	4672.38
454.758	4582.04
460.477	4498.04
466.189	4457.71
471.896	4423.38
477.596	4447.71
483.29	4470.04
488.978	4535.38
494.66	4649.38
500.335	4769.04
506.005	4865.38
511.668	4958.71
517.325	5018.71
522.977	4979.38
528.622	4778.71
534.261	4560.04
539.894	4462.38
545.521	4446.38
551.141	4477.04
556.756	4465.38
562.365	4350.71
567.968	4239.38
573.565	4132.04
579.155	4087.38
584.74	4046.71
590.319	4076.38
595.892	4159.71
601.459	4280.71
607.02	4357.38
612.575	4373.04
618.124	4399.38
623.667	4566.04
629.204	5032.71
634.735	5693.38
640.261	6209.04
645.781	6217.04
651.294	5865.38
656.802	5501.04
662.304	5200.38
667.8	4849.04
673.29	4465.04
678.775	4126.04
684.254	3932.71
689.726	3846.71
695.193	3793.38
700.655	3801.71
706.11	3843.71
711.56	3845.38
717.004	3765.71
722.442	3685.71
727.874	3643.71
733.301	3610.04
738.722	3612.71
744.137	3639.71
749.547	3621.04
754.951	3631.71
760.349	3623.38
765.741	3632.38
771.128	3675.71
776.509	3743.38
781.885	3815.04
787.254	3903.71
792.618	4040.38
797.977	4188.38
803.33	4228.04
808.677	4133.04
814.019	4015.04
819.355	3978.38
824.686	4017.71
830.011	4088.71
835.33	4144.04
840.644	4184.04
845.952	4308.71
851.255	4528.38
856.552	4868.38
861.844	5170.38
867.13	5204.71
872.41	4975.04
877.686	4913.38
882.955	5131.71
888.219	5357.04
893.478	5304.71
898.731	4976.04
903.979	4597.04
909.221	4269.71
914.458	4046.71
919.69	3919.71
924.916	3884.71
930.136	3895.04
935.351	3923.71
940.561	3962.04
945.766	4079.38
950.965	4310.04
956.158	4576.71
961.347	4852.38
966.529	5072.04
971.707	5191.38
976.879	5160.04
982.046	5082.71
987.208	5043.04
992.364	5184.38
997.515	5556.38
1002.66	6174.04
1007.801	7133.04
1012.936	8456.71
1018.066	9841.71
1023.19	10323.71
1028.309	9183.38
1033.423	7060.71
1038.532	5385.04
1043.636	4620.38
1048.734	4376.38
1053.827	4330.38
1058.915	4498.38
1063.998	4816.38
1069.075	5118.38
1074.147	5277.04
1079.214	5236.38
1084.276	5090.71
1089.333	4988.04
1094.385	4976.04
1099.431	5007.38
1104.472	4933.71
1109.509	4749.71
1114.54	4650.04
1119.565	4681.04
1124.586	4732.38
1129.602	4875.04
1134.613	5221.71
1139.618	5936.71
1144.619	6772.38
1149.614	7063.04
1154.604	6363.04
1159.589	5329.38
1164.57	4711.38
1169.545	4594.04
1174.515	4751.04
1179.48	5134.04
1184.44	5937.04
1189.395	7528.71
1194.345	10463.04
1199.29	14157.71
1204.23	16284.04
1209.165	15287.38
1214.095	12215.38
1219.021	9525.71
1223.941	7908.71
1228.856	6915.04
1233.766	6129.04
1238.672	5897.38
1243.572	6136.71
1248.467	6569.71
1253.358	6929.04
1258.244	7572.71
1263.124	8923.71
1268	10624.04
1272.871	11159.38
1277.737	9780.38
1282.599	7865.71
1287.455	6581.38
1292.306	5985.04
1297.153	5715.71
1301.995	5479.04
1306.832	5292.38
1311.664	5248.71
1316.491	5282.71
1321.314	5222.04
1326.132	5215.38
1330.945	5578.04
1335.753	6728.04
1340.556	8050.38
1345.354	8384.38
1350.148	7622.38
1354.937	6585.71
1359.722	5693.71
1364.501	5015.71
1369.276	4682.04
1374.046	4653.04
1378.811	4723.38
1383.572	4628.38
1388.327	4325.38
1393.079	4042.38
1397.825	3868.38
1402.567	3809.38
1407.304	3888.04
1412.036	4120.04
1416.764	4557.04
1421.487	5139.38
1426.205	5606.38
1430.919	5713.38
1435.628	5487.38
1440.333	5336.71
1445.032	5529.71
1449.727	5908.38
1454.418	6160.38
1459.104	6035.04
1463.785	5616.04
1468.462	5217.71
1473.134	4975.38
1477.802	5112.04
1482.465	5676.71
1487.123	6752.04
1491.777	7927.04
1496.426	8519.71
1501.071	8063.71
1505.711	6994.38
1510.347	5918.38
1514.978	5180.38
1519.604	4745.71
1524.226	4576.38
1528.844	4593.04
1533.457	4771.04
1538.065	5107.04
1542.669	5417.71
1547.269	5502.71
1551.864	5214.71
1556.454	4815.04
1561.041	4472.04
1565.622	4243.38
1570.199	4182.38
1574.772	4286.38
1579.34	4535.04
1583.904	4956.71
1588.464	5777.71
1593.019	7402.38
1597.569	10450.71
1602.115	15209.04
1606.657	20492.71
1611.195	23426.38
1615.728	22033.04
1620.256	17981.04
1624.78	14914.71
1629.3	14743.04
1633.816	16653.04
1638.327	18361.04
1642.834	17770.04
1647.336	14819.71
1651.834	10942.04
1656.328	7860.71
1660.817	6053.04
1665.302	5129.71
1669.783	4654.38
1674.259	4363.38
1678.732	4144.38
1683.199	3988.71
1687.663	3875.71
1692.122	3707.04
1696.577	3528.04
1701.028	3379.38
1705.474	3276.71
1709.917	3212.38
1714.355	3214.04
1718.788	3316.04
1723.218	3551.38
1727.643	3840.04
1732.064	4026.71
1736.481	3914.38
1740.893	3581.38
1745.301	3297.71
1749.705	3047.71
1754.105	2858.38
1758.501	2732.38
1762.893	2661.04
1767.28	2619.71
1771.663	2585.71
1776.042	2563.38
1780.417	2562.04
1784.787	2560.04
1789.154	2544.04
1793.516	2535.71
1797.874	2504.38
1802.228	2480.38
1806.578	2433.04
1810.924	2383.71
1815.266	2335.38
1819.603	2280.38
1823.937	2245.04
1828.266	2228.71
1832.591	2223.04
1836.913	2206.71
1841.23	2205.04
1845.543	2210.38
1849.852	2239.71
1854.156	2252.04
1858.457	2272.71
1862.754	2300.71
1867.047	2299.04
1871.335	2308.71
1875.62	2327.38
1879.9	2315.71
1884.177	2326.38
1888.449	2322.38
1892.718	2322.71
1896.982	2323.38
1901.243	2340.04
1905.499	2350.71
1909.752	2363.38
1914	2375.38
1918.245	2396.71
1922.485	2429.38
1926.722	2444.04
1930.954	2461.38
1935.183	2476.71
1939.408	2459.38
1943.628	2460.38
1947.845	2424.04
1952.058	2389.04
1956.267	2340.38
1960.472	2273.38
1964.673	2206.71
1968.87	2157.04
1973.063	2095.71
1977.252	2050.04
1981.438	2027.71
1985.619	1990.38
1989.797	1963.38
1993.971	1944.71
1998.14	1929.71
2002.306	1934.04
2006.469	1927.38
2010.627	1917.38
2014.781	1910.71
2018.932	1911.04
2023.078	1895.71
2027.221	1889.38
2031.36	1862.71
2035.495	1856.71
2039.627	1841.38
2043.754	1844.04
2047.878	1829.04
2051.998	1838.71
2056.114	1847.38
2060.226	1851.71
2064.334	1880.38
2068.439	1900.38
2072.54	1925.04
2076.637	1953.38
2080.73	1982.04
2084.82	2009.38
2088.906	2024.38
2092.988	2017.71
2097.066	1995.38
2101.14	1993.04
2105.211	1967.04
2109.278	1957.04
2113.342	1967.04
2117.401	1965.04
2121.457	1987.04
2125.509	2005.38
2129.558	1999.04
2133.602	1982.04
2137.643	1958.38
2141.681	1910.71
2145.714	1874.04
2149.744	1832.71
2153.77	1799.71
2157.793	1766.04
2161.812	1730.04
2165.827	1696.38
2169.838	1653.71
2173.846	1648.71
2177.851	1611.04
2181.851	1582.38
2185.848	1585.38
2189.841	1567.71
2193.831	1551.71
2197.817	1554.04
2201.799	1558.71
2205.778	1563.04
2209.753	1558.71
2213.725	1569.71
2217.693	1564.71
2221.657	1576.38
2225.618	1589.38
2229.575	1589.71
2233.529	1595.04
2237.479	1587.71
2241.425	1589.04
2245.368	1570.38
2249.307	1539.71
2253.243	1522.04
2257.175	1495.71
2261.104	1474.04
2265.029	1470.04
2268.95	1448.38
2272.868	1421.71
2276.783	1406.38
2280.694	1383.38
2284.601	1367.04
2288.505	1356.71
2292.405	1341.71
2296.302	1332.38
2300.195	1317.04
2304.085	1296.71
2307.971	1282.38
2311.854	1260.38
2315.734	1243.71
2319.609	1232.38
2323.482	1225.04
2327.351	1211.38
2331.216	1224.04
2335.078	1228.04
2338.937	1208.04
2342.792	1189.71
2346.643	1176.71
2350.492	1190.38
2354.336	1192.38
2358.178	1200.71
2362.015	1194.71
2365.85	1203.38
2369.681	1209.04
2373.508	1206.71
2377.333	1207.04
2381.153	1216.38
2384.971	1209.38
2388.785	1220.04
2392.595	1210.04
2396.402	1208.71
2400.206	1209.04
2404.007	1208.04
2407.804	1215.38
2411.597	1207.38
2415.388	1216.71
2419.174	1216.71
2422.958	1220.71
2426.738	1219.04
2430.515	1217.71
2434.289	1224.04
2438.059	1215.71
2441.825	1220.04
2445.589	1217.38
2449.349	1216.04
2453.106	1204.71
2456.859	1194.04
2460.61	1183.38
2464.356	1170.04
2468.1	1157.71
2471.84	1159.04
2475.577	1156.71
2479.311	1161.71
2483.041	1172.04
2486.768	1175.71
2490.492	1175.71
2494.213	1189.04
2497.93	1177.04
2501.644	1172.04
2505.355	1184.38
2509.062	1183.04
2512.766	1184.04
2516.467	1191.38
2520.165	1194.04
2523.859	1184.04
2527.551	1185.04
2531.239	1180.71
2534.923	1184.71
2538.605	1183.04
2542.283	1189.38
2545.958	1187.38
2549.63	1189.71
2553.299	1187.38
2556.964	1190.04
2560.626	1187.71
2564.285	1170.04
2567.941	1171.04
2571.594	1158.71
2575.243	1162.04
2578.89	1145.71
2582.533	1122.04
2586.173	1115.38
2589.809	1118.04
2593.443	1101.38
2597.073	1099.71
2600.701	1080.71
2604.325	1078.04
2607.946	1070.38
2611.564	1070.38
2615.178	1061.38
2618.79	1054.71
2622.398	1051.71
2626.004	1035.04
2629.606	1021.38
2633.205	1009.38
2636.801	988.04
2640.394	976.38
2643.983	960.38
2647.57	943.38
2651.153	923.04
2654.734	921.71
2658.311	904.04
2661.885	908.71
2665.456	896.04
2669.025	893.71
2672.589	898.38
2676.151	892.71
2679.71	883.04
2683.266	860.38
2686.819	857.04
2690.368	854.71
2693.915	837.71
2697.458	822.38
2700.999	818.71
2704.536	811.38
2708.071	812.71
2711.602	804.04
2715.13	811.38
2718.656	827.04
2722.178	830.04
2725.697	850.38
2729.214	857.38
2732.727	880.71
2736.237	891.04
2739.744	896.71
2743.249	904.04
2746.75	911.04
2750.248	909.04
2753.743	894.04
2757.236	883.04
2760.725	878.71
2764.211	862.38
2767.695	845.71
2771.175	827.71
2774.652	834.38
2778.127	815.38
2781.598	817.04
2785.067	815.71
2788.532	813.38
2791.995	831.71
2795.455	842.38
2798.911	856.04
2802.365	871.04
2805.816	874.71
2809.264	892.71
2812.709	896.38
2816.151	915.04
2819.59	922.38
2823.026	937.04
2826.46	965.38
2829.89	974.04
2833.318	996.71
2836.742	1025.38
2840.164	1045.71
2843.583	1081.38
2846.999	1107.38
2850.412	1148.04
2853.822	1181.71
2857.229	1231.38
2860.634	1273.04
2864.035	1316.04
2867.434	1341.04
2870.83	1377.04
2874.223	1409.71
2877.613	1417.71
2881	1452.38
2884.385	1460.71
2887.766	1478.71
2891.145	1499.04
2894.521	1535.71
2897.894	1544.38
2901.264	1576.38
2904.631	1607.04
2907.996	1650.04
2911.358	1704.71
2914.717	1769.38
2918.073	1844.04
2921.426	1930.38
2924.777	1997.04
2928.124	2016.71
2931.469	1998.71
2934.811	1929.04
2938.15	1802.38
2941.487	1638.71
2944.821	1515.38
2948.152	1377.38
2951.48	1280.04
2954.805	1188.38
2958.128	1142.71
2961.447	1094.04
2964.765	1060.38
2968.079	1041.04
2971.39	1014.38
2974.699	988.71
2978.005	966.71
2981.308	941.04
2984.609	907.04
2987.907	891.04
2991.202	852.04
2994.494	823.38
2997.784	784.04
3001.07	763.71
3004.355	729.38
3007.636	691.38
3010.915	657.04
3014.191	616.38
3017.464	580.04
3020.734	555.71
3024.002	521.38
3027.267	499.38
3030.53	486.71
3033.789	468.38
3037.046	454.38
3040.301	444.71
3043.552	450.71
3046.801	445.04
3050.048	438.71
3053.291	432.04
3056.532	426.38
3059.771	422.04
3063.006	422.71
3066.239	418.04
3069.469	412.04
3072.697	413.38
3075.922	410.38
3079.144	405.71
3082.364	404.04
3085.581	405.04
3088.795	399.71
3092.007	375.71
3095.216	348.04
3098.423	325.71
3101.627	318.04
3104.828	297.71
3108.026	295.38
3111.222	288.71
3114.416	281.04
3117.607	272.71
3120.795	267.38
3123.98	263.04
3127.163	259.38
3130.344	254.71
3133.521	257.04
3136.696	246.71
3139.869	243.04
3143.039	240.38
3146.206	236.38
3149.371	228.04
3152.533	216.04
3155.693	215.04
3158.85	209.04
3162.005	204.38
3165.157	196.71
3168.306	192.38
3171.453	180.71
3174.597	172.38
3177.739	172.71
3180.878	170.71
3184.014	164.38
3187.149	157.71
3190.28	160.04
3193.409	151.04
3196.536	148.71
3199.659	149.04
3202.781	147.38
3205.9	141.38
3209.016	146.71
3212.13	140.04
3215.241	137.04
3218.35	132.71
3221.456	128.71
3224.56	123.38
3227.661	123.04
3230.76	112.38
3233.856	113.71
3236.95	106.71
3240.041	98.71
3243.13	102.38
3246.216	96.71
3249.3	99.04
3252.382	94.04
3255.46	89.38
3258.537	85.71
3261.611	87.38
3264.682	79.04
3267.751	76.38
3270.818	82.38
3273.882	74.71
3276.943	72.04
3280.002	63.04
3283.059	64.38
3286.113	57.04
3289.165	49.38
3292.214	50.38
3295.261	40.38
3298.306	32.38
3301.348	34.38
3304.387	32.38
3307.425	29.38
3310.459	26.38
3313.492	21.04
3316.521	18.38
3319.549	15.04
3322.574	16.38
3325.597	14.38
3328.617	12.38
3331.635	14.71
3334.65	7.71
3337.663	9.71
3340.674	8.38
3343.682	8.04
3346.688	5.38
3349.691	5.71
3352.692	3.38
3355.691	3.04
3358.687	-1.96
3361.681	-2.29
3364.673	-4.62
3367.662	-10.96
3370.649	-6.96
3373.633	-10.29
3376.615	-13.29
3379.595	-12.62
3382.572	-19.29
3385.547	-20.96
3388.52	-18.96
3391.49	-24.29
3394.458	-25.29
3397.424	-25.96
3400.387	-26.96
3403.348	-29.96
3406.307	-28.29
3409.263	-32.96
3412.217	-33.96
3415.168	-31.96
3418.118	-34.29
3421.065	-36.96
3424.009	-32.96
3426.951	-37.62
3429.891	-38.29
3432.829	-34.29
3435.764	-38.29
3438.697	-43.62
3441.628	-45.96
3444.557	-46.96
3447.483	-46.62
3450.407	-49.96
3453.328	-52.62
3456.247	-49.29
3459.164	-55.29
3462.079	-53.96
3464.991	-59.29
3467.902	-58.62
3470.809	-60.62
3473.715	-59.29
3476.618	-62.96
3479.519	-66.29
3482.418	-69.29
3485.315	-65.96
3488.209	-64.96
3491.101	-68.96
3493.99	-66.62
3496.878	-70.96
3499.763	-70.96
3502.646	-71.29
3505.527	-68.96
3508.405	-71.62
3511.281	-74.96
3514.155	-73.62
3517.027	-73.62
3519.897	-76.29
3522.764	-75.62
3525.629	-80.62
3528.492	-81.29
3531.352	-83.96
3534.211	-87.62
3537.067	-85.62
3539.921	-90.62
3542.773	-86.62
3545.622	-89.96
3548.469	-91.62
3551.315	-92.96
3554.157	-96.29
3556.998	-94.29
3559.837	-95.29
3562.673	-96.96
3565.507	-97.62
3568.339	-96.62
3571.169	-99.96
3573.996	-100.62
3576.822	-102.29
3579.645	-102.29
3582.466	-103.29
3585.285	-103.62
3588.101	-104.96
3590.916	-103.96
3593.728	-107.29
3596.538	-108.62
3599.346	-108.62
3602.152	-107.62
3604.956	-109.62
3607.757	-109.62
3610.556	-113.29
3613.354	-114.29
3616.149	-113.29
3618.942	-113.29
3621.732	-116.96
3624.521	-115.29
3627.307	-112.29
3630.092	-117.62
3632.874	-115.96
3635.654	-117.96
3638.432	-113.62
3641.208	-117.62
3643.982	-115.96
3646.753	-117.62
3649.523	-122.62
3652.29	-116.96
3655.055	-120.96
3657.818	-120.62
3660.579	-122.29
3663.338	-122.29
3666.095	-124.29
3668.849	-124.96
3671.602	-125.29
3674.352	-121.96
3677.101	-125.62
3679.847	-125.62
3682.591	-127.62
3685.333	-128.96
3688.073	-125.96
3690.811	-122.96
3693.547	-125.29
3696.281	-123.96
3699.013	-124.96
3701.742	-125.62
3704.47	-123.62
3707.195	-128.96
3709.919	-126.29
3712.64	-126.29
3715.359	-127.29
3718.076	-123.96
3720.792	-128.29
3723.505	-130.96
3726.216	-127.96
3728.925	-128.62
3731.632	-130.29
3734.336	-128.29
3737.039	-129.62
3739.74	-129.29
3742.439	-130.29
3745.136	-131.62
3747.83	-130.29
3750.523	-129.62
3753.213	-128.96
3755.902	-130.29
3758.589	-133.29
3761.273	-128.96
3763.956	-131.62
3766.636	-129.29
3769.315	-129.96
3771.991	-130.29
3774.665	-130.29
3777.338	-127.29
3780.008	-130.96
3782.677	-130.96
3785.343	-130.96
3788.007	-130.29
3790.67	-133.96
3793.33	-128.29
3795.989	-131.29
3798.645	-128.96
3801.299	-134.96
3803.952	-132.29
3806.602	-137.62
3809.251	-134.29
3811.897	-132.62
3814.542	-135.96
3817.184	-133.62
3819.825	-132.29
3822.463	-134.29
3825.1	-133.62
3827.735	-134.62
3830.367	-137.29
3832.998	-136.62
3835.627	-134.62
3838.253	-135.96
3840.878	-138.62
3843.501	-136.62
3846.122	-134.96
3848.741	-138.29
3851.358	-140.96
3853.973	-140.29
3856.586	-142.29
3859.197	-140.29
3861.806	-140.62
3864.414	-138.96
3867.019	-140.29
3869.622	-138.96
3872.224	-134.29
3874.823	-136.29
3877.421	-132.62
3880.016	-130.62
3882.61	-125.62
3885.202	-123.29
3887.792	-128.96
3890.38	-134.29
3892.966	-138.62
3895.55	-141.29
3898.132	-141.29
3900.713	-140.62
3903.291	-142.62
3905.868	-140.96
3908.442	-139.29
3911.015	-139.96
3913.586	-142.96
3916.155	-143.29
3918.722	-143.62
3921.287	-142.29
3923.85	-138.29
3926.411	-143.29
3928.971	-144.96
3931.528	-144.29
3934.084	-141.62
3936.638	-143.62
3939.19	-145.62
3941.74	-143.62
3944.288	-144.96
3946.834	-145.62
3949.378	-144.62
3951.921	-142.62
3954.462	-143.62
3957	-146.29
3959.537	-143.29
3962.072	-142.29
3964.606	-141.96
3967.137	-145.29
3969.667	-141.62
3972.194	-140.96
3974.72	-142.96
3977.244	-143.62
3979.766	-141.29
3982.286	-140.29
3984.805	-140.62
3987.321	-141.96
3989.836	-140.96
3992.349	-138.62
3994.86	-140.29
3997.369	-140.62
3999.877	-137.29
4002.382	-141.29
4004.886	-140.96
4007.388	-139.29
4009.888	-136.62
4012.386	-137.96
4014.883	-139.62
4017.377	-138.62
4019.87	-136.29
4022.361	-137.96
4024.85	-138.96
4027.338	-139.62
4029.823	-135.62
4032.307	-139.62
4034.789	-139.29
4037.269	-138.62
4039.747	-140.96
4042.224	-139.96
4044.699	-141.29
4047.172	-141.96
4049.643	-140.62
4052.112	-140.29
4054.58	-141.29
4057.046	-141.29
4059.51	-142.96
4061.972	-142.96
4064.432	-141.62
4066.891	-143.62
4069.348	-140.62
4071.803	-142.62
4074.256	-138.96
4076.708	-138.96
4079.158	-143.62
4081.606	-141.29
4084.052	-142.29
4086.497	-141.62
4088.939	-139.62
4091.38	-139.96
4093.819	-141.29
4096.257	-151.29
4098.693	-152.62
4101.127	-150.96
4103.559	-153.29
4105.989	-84.29
4108.418	-73.96
4110.845	-69.96
4113.27	-60.62
4115.694	-50.29
4118.115	-38.29
4120.535	-141.96
4122.954	-141.29
4125.37	-143.29
4127.785	-142.96
4130.198	-142.29
4132.609	-141.29
4135.019	-151.96
4137.427	-153.96
4139.833	-151.29
4142.237	-152.29
