Data from 10000000CFU3_A_RamanShift_1.txt Node
Date: Tue Jan 31 15:35:44 IST 2017
User: aro
Spectrometer: QEPB0276
Trigger mode: 0
Integration Time (sec): 5.000000E0
Scans to average: 1
Electric dark correction enabled: true
Nonlinearity correction enabled: false
Boxcar width: 0
XAxis mode: Raman Shifts
Number of Pixels in Spectrum: 1044
>>>>>Begin Spectral Data<<<<<
160.701	-37.5
166.742	-1.5
172.777	93.5
178.805	389.5
184.826	1057.5
190.841	2178.5
196.849	3410.5
202.85	4193.5
208.845	4358.5
214.833	4239.5
220.815	4116.5
226.789	3943.5
232.758	3864.5
238.719	3749.5
244.674	3604.5
250.623	3456.5
256.565	3270.5
262.5	3135.5
268.429	2988.5
274.351	2894.5
280.267	2755.5
286.176	2658.5
292.079	2568.5
297.975	2480.5
303.865	2419.5
309.748	2371.5
315.625	2274.5
321.495	2254.5
327.359	2195.5
333.217	2186.5
339.068	2172.5
344.912	2157.5
350.751	2151.5
356.583	2168.5
362.408	2142.5
368.227	2140.5
374.04	2156.5
379.847	2166.5
385.647	2178.5
391.44	2181.5
397.228	2188.5
403.009	2208.5
408.784	2224.5
414.553	2221.5
420.315	2235.5
426.071	2227.5
431.821	2225.5
437.565	2256.5
443.302	2206.5
449.033	2217.5
454.758	2202.5
460.477	2178.5
466.189	2180.5
471.896	2174.5
477.596	2180.5
483.29	2157.5
488.978	2158.5
494.66	2136.5
500.335	2110.5
506.005	2078.5
511.668	2040.5
517.325	2007.5
522.977	1972.5
528.622	1947.5
534.261	1914.5
539.894	1907.5
545.521	1905.5
551.141	1881.5
556.756	1858.5
562.365	1861.5
567.968	1844.5
573.565	1819.5
579.155	1815.5
584.74	1813.5
590.319	1808.5
595.892	1797.5
601.459	1778.5
607.02	1767.5
612.575	1763.5
618.124	1708.5
623.667	1717.5
629.204	1689.5
634.735	1691.5
640.261	1682.5
645.781	1666.5
651.294	1658.5
656.802	1649.5
662.304	1634.5
667.8	1613.5
673.29	1625.5
678.775	1627.5
684.254	1613.5
689.726	1617.5
695.193	1598.5
700.655	1605.5
706.11	1593.5
711.56	1576.5
717.004	1571.5
722.442	1576.5
727.874	1559.5
733.301	1537.5
738.722	1535.5
744.137	1511.5
749.547	1532.5
754.951	1510.5
760.349	1510.5
765.741	1505.5
771.128	1515.5
776.509	1524.5
781.885	1509.5
787.254	1515.5
792.618	1512.5
797.977	1502.5
803.33	1489.5
808.677	1490.5
814.019	1474.5
819.355	1471.5
824.686	1428.5
830.011	1426.5
835.33	1408.5
840.644	1415.5
845.952	1382.5
851.255	1388.5
856.552	1381.5
861.844	1383.5
867.13	1379.5
872.41	1376.5
877.686	1372.5
882.955	1350.5
888.219	1346.5
893.478	1320.5
898.731	1299.5
903.979	1284.5
909.221	1248.5
914.458	1242.5
919.69	1236.5
924.916	1236.5
930.136	1225.5
935.351	1220.5
940.561	1238.5
945.766	1225.5
950.965	1234.5
956.158	1215.5
961.347	1210.5
966.529	1186.5
971.707	1180.5
976.879	1181.5
982.046	1162.5
987.208	1143.5
992.364	1131.5
997.515	1136.5
1002.66	1158.5
1007.801	1160.5
1012.936	1159.5
1018.066	1185.5
1023.19	1173.5
1028.309	1195.5
1033.423	1192.5
1038.532	1193.5
1043.636	1178.5
1048.734	1173.5
1053.827	1166.5
1058.915	1152.5
1063.998	1158.5
1069.075	1132.5
1074.147	1122.5
1079.214	1149.5
1084.276	1147.5
1089.333	1156.5
1094.385	1157.5
1099.431	1177.5
1104.472	1176.5
1109.509	1168.5
1114.54	1175.5
1119.565	1155.5
1124.586	1153.5
1129.602	1124.5
1134.613	1121.5
1139.618	1107.5
1144.619	1117.5
1149.614	1122.5
1154.604	1130.5
1159.589	1127.5
1164.57	1139.5
1169.545	1133.5
1174.515	1142.5
1179.48	1134.5
1184.44	1140.5
1189.395	1133.5
1194.345	1131.5
1199.29	1139.5
1204.23	1115.5
1209.165	1126.5
1214.095	1125.5
1219.021	1140.5
1223.941	1148.5
1228.856	1152.5
1233.766	1139.5
1238.672	1159.5
1243.572	1157.5
1248.467	1170.5
1253.358	1143.5
1258.244	1132.5
1263.124	1126.5
1268	1098.5
1272.871	1079.5
1277.737	1070.5
1282.599	1080.5
1287.455	1058.5
1292.306	1085.5
1297.153	1082.5
1301.995	1085.5
1306.832	1101.5
1311.664	1113.5
1316.491	1110.5
1321.314	1113.5
1326.132	1122.5
1330.945	1099.5
1335.753	1099.5
1340.556	1078.5
1345.354	1063.5
1350.148	1070.5
1354.937	1050.5
1359.722	1025.5
1364.501	1025.5
1369.276	1000.5
1374.046	1006.5
1378.811	994.5
1383.572	988.5
1388.327	1010.5
1393.079	992.5
1397.825	987.5
1402.567	1002.5
1407.304	989.5
1412.036	975.5
1416.764	978.5
1421.487	973.5
1426.205	983.5
1430.919	985.5
1435.628	1003.5
1440.333	1010.5
1445.032	1018.5
1449.727	1013.5
1454.418	1022.5
1459.104	1032.5
1463.785	1040.5
1468.462	1015.5
1473.134	1008.5
1477.802	1001.5
1482.465	1000.5
1487.123	1004.5
1491.777	995.5
1496.426	994.5
1501.071	1007.5
1505.711	1017.5
1510.347	1020.5
1514.978	1026.5
1519.604	1043.5
1524.226	1050.5
1528.844	1040.5
1533.457	1051.5
1538.065	1049.5
1542.669	1037.5
1547.269	1049.5
1551.864	1048.5
1556.454	1046.5
1561.041	1068.5
1565.622	1066.5
1570.199	1090.5
1574.772	1087.5
1579.34	1116.5
1583.904	1135.5
1588.464	1166.5
1593.019	1189.5
1597.569	1173.5
1602.115	1204.5
1606.657	1222.5
1611.195	1213.5
1615.728	1227.5
1620.256	1251.5
1624.78	1270.5
1629.3	1282.5
1633.816	1317.5
1638.327	1299.5
1642.834	1329.5
1647.336	1332.5
1651.834	1354.5
1656.328	1339.5
1660.817	1328.5
1665.302	1304.5
1669.783	1291.5
1674.259	1263.5
1678.732	1238.5
1683.199	1186.5
1687.663	1157.5
1692.122	1101.5
1696.577	1068.5
1701.028	1015.5
1705.474	974.5
1709.917	955.5
1714.355	928.5
1718.788	901.5
1723.218	900.5
1727.643	879.5
1732.064	873.5
1736.481	856.5
1740.893	825.5
1745.301	812.5
1749.705	785.5
1754.105	761.5
1758.501	752.5
1762.893	732.5
1767.28	735.5
1771.663	713.5
1776.042	724.5
1780.417	724.5
1784.787	729.5
1789.154	726.5
1793.516	731.5
1797.874	727.5
1802.228	701.5
1806.578	699.5
1810.924	681.5
1815.266	682.5
1819.603	679.5
1823.937	667.5
1828.266	647.5
1832.591	662.5
1836.913	666.5
1841.23	649.5
1845.543	647.5
1849.852	645.5
1854.156	642.5
1858.457	653.5
1862.754	650.5
1867.047	666.5
1871.335	670.5
1875.62	672.5
1879.9	673.5
1884.177	681.5
1888.449	677.5
1892.718	673.5
1896.982	656.5
1901.243	667.5
1905.499	663.5
1909.752	658.5
1914	652.5
1918.245	665.5
1922.485	662.5
1926.722	662.5
1930.954	658.5
1935.183	667.5
1939.408	660.5
1943.628	669.5
1947.845	667.5
1952.058	654.5
1956.267	675.5
1960.472	649.5
1964.673	656.5
1968.87	630.5
1973.063	636.5
1977.252	627.5
1981.438	637.5
1985.619	632.5
1989.797	623.5
1993.971	627.5
1998.14	630.5
2002.306	626.5
2006.469	636.5
2010.627	637.5
2014.781	643.5
2018.932	647.5
2023.078	648.5
2027.221	653.5
2031.36	640.5
2035.495	637.5
2039.627	619.5
2043.754	616.5
2047.878	615.5
2051.998	621.5
2056.114	630.5
2060.226	622.5
2064.334	635.5
2068.439	641.5
2072.54	624.5
2076.637	630.5
2080.73	636.5
2084.82	653.5
2088.906	645.5
2092.988	639.5
2097.066	638.5
2101.14	649.5
2105.211	633.5
2109.278	633.5
2113.342	628.5
2117.401	620.5
2121.457	617.5
2125.509	617.5
2129.558	613.5
2133.602	608.5
2137.643	609.5
2141.681	605.5
2145.714	599.5
2149.744	605.5
2153.77	603.5
2157.793	600.5
2161.812	586.5
2165.827	592.5
2169.838	575.5
2173.846	566.5
2177.851	563.5
2181.851	552.5
2185.848	552.5
2189.841	548.5
2193.831	541.5
2197.817	542.5
2201.799	533.5
2205.778	524.5
2209.753	529.5
2213.725	524.5
2217.693	530.5
2221.657	522.5
2225.618	526.5
2229.575	526.5
2233.529	514.5
2237.479	513.5
2241.425	514.5
2245.368	500.5
2249.307	492.5
2253.243	489.5
2257.175	472.5
2261.104	476.5
2265.029	467.5
2268.95	465.5
2272.868	457.5
2276.783	446.5
2280.694	442.5
2284.601	439.5
2288.505	448.5
2292.405	442.5
2296.302	429.5
2300.195	423.5
2304.085	409.5
2307.971	412.5
2311.854	403.5
2315.734	397.5
2319.609	389.5
2323.482	381.5
2327.351	398.5
2331.216	380.5
2335.078	382.5
2338.937	372.5
2342.792	369.5
2346.643	374.5
2350.492	357.5
2354.336	362.5
2358.178	361.5
2362.015	369.5
2365.85	366.5
2369.681	380.5
2373.508	361.5
2377.333	360.5
2381.153	371.5
2384.971	364.5
2388.785	364.5
2392.595	354.5
2396.402	364.5
2400.206	355.5
2404.007	360.5
2407.804	346.5
2411.597	360.5
2415.388	351.5
2419.174	353.5
2422.958	355.5
2426.738	348.5
2430.515	356.5
2434.289	343.5
2438.059	349.5
2441.825	349.5
2445.589	345.5
2449.349	353.5
2453.106	339.5
2456.859	339.5
2460.61	336.5
2464.356	330.5
2468.1	323.5
2471.84	319.5
2475.577	321.5
2479.311	325.5
2483.041	327.5
2486.768	321.5
2490.492	323.5
2494.213	330.5
2497.93	316.5
2501.644	325.5
2505.355	316.5
2509.062	318.5
2512.766	327.5
2516.467	312.5
2520.165	311.5
2523.859	314.5
2527.551	318.5
2531.239	314.5
2534.923	313.5
2538.605	300.5
2542.283	304.5
2545.958	298.5
2549.63	296.5
2553.299	294.5
2556.964	286.5
2560.626	298.5
2564.285	291.5
2567.941	295.5
2571.594	292.5
2575.243	292.5
2578.89	289.5
2582.533	287.5
2586.173	276.5
2589.809	278.5
2593.443	275.5
2597.073	281.5
2600.701	276.5
2604.325	281.5
2607.946	276.5
2611.564	270.5
2615.178	266.5
2618.79	259.5
2622.398	257.5
2626.004	262.5
2629.606	260.5
2633.205	265.5
2636.801	251.5
2640.394	265.5
2643.983	255.5
2647.57	251.5
2651.153	260.5
2654.734	246.5
2658.311	242.5
2661.885	249.5
2665.456	235.5
2669.025	235.5
2672.589	237.5
2676.151	230.5
2679.71	232.5
2683.266	238.5
2686.819	230.5
2690.368	222.5
2693.915	219.5
2697.458	231.5
2700.999	215.5
2704.536	216.5
2708.071	211.5
2711.602	212.5
2715.13	213.5
2718.656	214.5
2722.178	214.5
2725.697	217.5
2729.214	211.5
2732.727	218.5
2736.237	215.5
2739.744	214.5
2743.249	216.5
2746.75	225.5
2750.248	224.5
2753.743	218.5
2757.236	213.5
2760.725	213.5
2764.211	207.5
2767.695	211.5
2771.175	203.5
2774.652	207.5
2778.127	201.5
2781.598	197.5
2785.067	207.5
2788.532	204.5
2791.995	208.5
2795.455	212.5
2798.911	203.5
2802.365	201.5
2805.816	206.5
2809.264	200.5
2812.709	212.5
2816.151	208.5
2819.59	223.5
2823.026	218.5
2826.46	215.5
2829.89	214.5
2833.318	223.5
2836.742	218.5
2840.164	221.5
2843.583	214.5
2846.999	225.5
2850.412	220.5
2853.822	219.5
2857.229	231.5
2860.634	234.5
2864.035	236.5
2867.434	243.5
2870.83	247.5
2874.223	241.5
2877.613	247.5
2881	237.5
2884.385	240.5
2887.766	248.5
2891.145	243.5
2894.521	242.5
2897.894	254.5
2901.264	259.5
2904.631	259.5
2907.996	258.5
2911.358	260.5
2914.717	264.5
2918.073	264.5
2921.426	254.5
2924.777	268.5
2928.124	272.5
2931.469	281.5
2934.811	286.5
2938.15	302.5
2941.487	297.5
2944.821	296.5
2948.152	304.5
2951.48	319.5
2954.805	313.5
2958.128	318.5
2961.447	311.5
2964.765	330.5
2968.079	337.5
2971.39	338.5
2974.699	351.5
2978.005	355.5
2981.308	370.5
2984.609	369.5
2987.907	380.5
2991.202	398.5
2994.494	390.5
2997.784	412.5
3001.07	425.5
3004.355	436.5
3007.636	456.5
3010.915	449.5
3014.191	475.5
3017.464	472.5
3020.734	498.5
3024.002	498.5
3027.267	503.5
3030.53	515.5
3033.789	519.5
3037.046	531.5
3040.301	540.5
3043.552	563.5
3046.801	570.5
3050.048	582.5
3053.291	598.5
3056.532	604.5
3059.771	635.5
3063.006	650.5
3066.239	676.5
3069.469	694.5
3072.697	713.5
3075.922	738.5
3079.144	744.5
3082.364	779.5
3085.581	788.5
3088.795	798.5
3092.007	825.5
3095.216	843.5
3098.423	859.5
3101.627	891.5
3104.828	897.5
3108.026	927.5
3111.222	943.5
3114.416	971.5
3117.607	988.5
3120.795	998.5
3123.98	1020.5
3127.163	1063.5
3130.344	1094.5
3133.521	1119.5
3136.696	1144.5
3139.869	1141.5
3143.039	1177.5
3146.206	1195.5
3149.371	1204.5
3152.533	1230.5
3155.693	1243.5
3158.85	1228.5
3162.005	1254.5
3165.157	1255.5
3168.306	1265.5
3171.453	1274.5
3174.597	1269.5
3177.739	1273.5
3180.878	1275.5
3184.014	1285.5
3187.149	1289.5
3190.28	1290.5
3193.409	1294.5
3196.536	1300.5
3199.659	1301.5
3202.781	1312.5
3205.9	1310.5
3209.016	1316.5
3212.13	1326.5
3215.241	1321.5
3218.35	1301.5
3221.456	1293.5
3224.56	1305.5
3227.661	1278.5
3230.76	1256.5
3233.856	1247.5
3236.95	1246.5
3240.041	1231.5
3243.13	1209.5
3246.216	1206.5
3249.3	1190.5
3252.382	1183.5
3255.46	1176.5
3258.537	1174.5
3261.611	1172.5
3264.682	1158.5
3267.751	1156.5
3270.818	1141.5
3273.882	1141.5
3276.943	1133.5
3280.002	1120.5
3283.059	1119.5
3286.113	1105.5
3289.165	1097.5
3292.214	1082.5
3295.261	1064.5
3298.306	1055.5
3301.348	1040.5
3304.387	1015.5
3307.425	996.5
3310.459	993.5
3313.492	961.5
3316.521	972.5
3319.549	943.5
3322.574	945.5
3325.597	950.5
3328.617	931.5
3331.635	927.5
3334.65	910.5
3337.663	920.5
3340.674	906.5
3343.682	896.5
3346.688	888.5
3349.691	901.5
3352.692	884.5
3355.691	890.5
3358.687	886.5
3361.681	872.5
3364.673	870.5
3367.662	859.5
3370.649	849.5
3373.633	831.5
3376.615	824.5
3379.595	810.5
3382.572	801.5
3385.547	791.5
3388.52	791.5
3391.49	775.5
3394.458	762.5
3397.424	729.5
3400.387	744.5
3403.348	729.5
3406.307	721.5
3409.263	709.5
3412.217	703.5
3415.168	705.5
3418.118	693.5
3421.065	685.5
3424.009	678.5
3426.951	683.5
3429.891	665.5
3432.829	646.5
3435.764	634.5
3438.697	624.5
3441.628	622.5
3444.557	594.5
3447.483	571.5
3450.407	564.5
3453.328	551.5
3456.247	542.5
3459.164	519.5
3462.079	503.5
3464.991	479.5
3467.902	477.5
3470.809	471.5
3473.715	447.5
3476.618	426.5
3479.519	409.5
3482.418	399.5
3485.315	402.5
3488.209	389.5
3491.101	374.5
3493.99	362.5
3496.878	358.5
3499.763	337.5
3502.646	330.5
3505.527	327.5
3508.405	304.5
3511.281	292.5
3514.155	271.5
3517.027	273.5
3519.897	257.5
3522.764	238.5
3525.629	235.5
3528.492	223.5
3531.352	212.5
3534.211	201.5
3537.067	185.5
3539.921	176.5
3542.773	171.5
3545.622	159.5
3548.469	141.5
3551.315	138.5
3554.157	132.5
3556.998	126.5
3559.837	119.5
3562.673	110.5
3565.507	102.5
3568.339	85.5
3571.169	80.5
3573.996	79.5
3576.822	78.5
3579.645	70.5
3582.466	68.5
3585.285	61.5
3588.101	54.5
3590.916	54.5
3593.728	42.5
3596.538	39.5
3599.346	28.5
3602.152	25.5
3604.956	19.5
3607.757	13.5
3610.556	14.5
3613.354	0.5
3616.149	11.5
3618.942	2.5
3621.732	-4.5
3624.521	-4.5
3627.307	-12.5
3630.092	-18.5
3632.874	-19.5
3635.654	-24.5
3638.432	-22.5
3641.208	-24.5
3643.982	-24.5
3646.753	-29.5
3649.523	-32.5
3652.29	-34.5
3655.055	-40.5
3657.818	-38.5
3660.579	-43.5
3663.338	-47.5
3666.095	-54.5
3668.849	-49.5
3671.602	-54.5
3674.352	-61.5
3677.101	-59.5
3679.847	-59.5
3682.591	-67.5
3685.333	-61.5
3688.073	-68.5
3690.811	-67.5
3693.547	-74.5
3696.281	-69.5
3699.013	-71.5
3701.742	-74.5
3704.47	-76.5
3707.195	-74.5
3709.919	-72.5
3712.64	-79.5
3715.359	-81.5
3718.076	-80.5
3720.792	-83.5
3723.505	-83.5
3726.216	-81.5
3728.925	-88.5
3731.632	-86.5
3734.336	-83.5
3737.039	-88.5
3739.74	-94.5
3742.439	-91.5
3745.136	-92.5
3747.83	-91.5
3750.523	-95.5
3753.213	-99.5
3755.902	-94.5
3758.589	-90.5
3761.273	-85.5
3763.956	-87.5
3766.636	-92.5
3769.315	-91.5
3771.991	-92.5
3774.665	-97.5
3777.338	-96.5
3780.008	-98.5
3782.677	-94.5
3785.343	-98.5
3788.007	-93.5
3790.67	-99.5
3793.33	-97.5
3795.989	-92.5
3798.645	-96.5
3801.299	-98.5
3803.952	-99.5
3806.602	-103.5
3809.251	-100.5
3811.897	-104.5
3814.542	-101.5
3817.184	-98.5
3819.825	-95.5
3822.463	-94.5
3825.1	-98.5
3827.735	-97.5
3830.367	-102.5
3832.998	-102.5
3835.627	-105.5
3838.253	-103.5
3840.878	-105.5
3843.501	-103.5
3846.122	-103.5
3848.741	-96.5
3851.358	-103.5
3853.973	-98.5
3856.586	-100.5
3859.197	-101.5
3861.806	-105.5
3864.414	-102.5
3867.019	-108.5
3869.622	-105.5
3872.224	-107.5
3874.823	-101.5
3877.421	-96.5
3880.016	-93.5
3882.61	-95.5
3885.202	-92.5
3887.792	-96.5
3890.38	-100.5
3892.966	-102.5
3895.55	-109.5
3898.132	-105.5
3900.713	-105.5
3903.291	-107.5
3905.868	-107.5
3908.442	-100.5
3911.015	-104.5
3913.586	-108.5
3916.155	-105.5
3918.722	-111.5
3921.287	-107.5
3923.85	-110.5
3926.411	-108.5
3928.971	-108.5
3931.528	-105.5
3934.084	-106.5
3936.638	-103.5
3939.19	-107.5
3941.74	-106.5
3944.288	-110.5
3946.834	-105.5
3949.378	-108.5
3951.921	-110.5
3954.462	-108.5
3957	-105.5
3959.537	-109.5
3962.072	-106.5
3964.606	-111.5
3967.137	-102.5
3969.667	-106.5
3972.194	-107.5
3974.72	-104.5
3977.244	-108.5
3979.766	-107.5
3982.286	-101.5
3984.805	-107.5
3987.321	-106.5
3989.836	-107.5
3992.349	-108.5
3994.86	-106.5
3997.369	-106.5
3999.877	-113.5
4002.382	-105.5
4004.886	-104.5
4007.388	-104.5
4009.888	-108.5
4012.386	-104.5
4014.883	-108.5
4017.377	-109.5
4019.87	-107.5
4022.361	-110.5
4024.85	-110.5
4027.338	-109.5
4029.823	-107.5
4032.307	-106.5
4034.789	-102.5
4037.269	-105.5
4039.747	-107.5
4042.224	-107.5
4044.699	-112.5
4047.172	-114.5
4049.643	-108.5
4052.112	-112.5
4054.58	-109.5
4057.046	-109.5
4059.51	-106.5
4061.972	-110.5
4064.432	-107.5
4066.891	-109.5
4069.348	-105.5
4071.803	-108.5
4074.256	-116.5
4076.708	-109.5
4079.158	-115.5
4081.606	-112.5
4084.052	-103.5
4086.497	-108.5
4088.939	-105.5
4091.38	-107.5
4093.819	-107.5
4096.257	-109.5
4098.693	-110.5
4101.127	-107.5
4103.559	-111.5
4105.989	-71.5
4108.418	-69.5
4110.845	-69.5
4113.27	-65.5
4115.694	-57.5
4118.115	-48.5
4120.535	-106.5
4122.954	-111.5
4125.37	-112.5
4127.785	-110.5
4130.198	-109.5
4132.609	-107.5
4135.019	-111.5
4137.427	-108.5
4139.833	-109.5
4142.237	-114.5
