Data from 1000CFU1_A_RamanShift_1.txt Node
Date: Tue Jan 31 15:19:14 IST 2017
User: aro
Spectrometer: QEPB0276
Trigger mode: 0
Integration Time (sec): 5.000000E0
Scans to average: 1
Electric dark correction enabled: true
Nonlinearity correction enabled: false
Boxcar width: 0
XAxis mode: Raman Shifts
Number of Pixels in Spectrum: 1044
>>>>>Begin Spectral Data<<<<<
160.701	-37.25
166.742	0.75
172.777	92.75
178.805	413.75
184.826	1138.75
190.841	2294.75
196.849	3583.75
202.85	4401.75
208.845	4617.75
214.833	4435.75
220.815	4268.75
226.789	4121.75
232.758	4046.75
238.719	3892.75
244.674	3768.75
250.623	3611.75
256.565	3433.75
262.5	3297.75
268.429	3130.75
274.351	2986.75
280.267	2892.75
286.176	2765.75
292.079	2684.75
297.975	2580.75
303.865	2505.75
309.748	2438.75
315.625	2362.75
321.495	2338.75
327.359	2291.75
333.217	2259.75
339.068	2238.75
344.912	2213.75
350.751	2225.75
356.583	2213.75
362.408	2227.75
368.227	2204.75
374.04	2227.75
379.847	2240.75
385.647	2236.75
391.44	2259.75
397.228	2262.75
403.009	2262.75
408.784	2330.75
414.553	2289.75
420.315	2312.75
426.071	2312.75
431.821	2305.75
437.565	2295.75
443.302	2273.75
449.033	2290.75
454.758	2276.75
460.477	2264.75
466.189	2257.75
471.896	2235.75
477.596	2230.75
483.29	2223.75
488.978	2211.75
494.66	2201.75
500.335	2167.75
506.005	2143.75
511.668	2104.75
517.325	2046.75
522.977	2034.75
528.622	2017.75
534.261	1977.75
539.894	1953.75
545.521	1943.75
551.141	1925.75
556.756	1914.75
562.365	1916.75
567.968	1906.75
573.565	1871.75
579.155	1878.75
584.74	1867.75
590.319	1847.75
595.892	1862.75
601.459	1834.75
607.02	1814.75
612.575	1820.75
618.124	1792.75
623.667	1760.75
629.204	1761.75
634.735	1754.75
640.261	1725.75
645.781	1726.75
651.294	1709.75
656.802	1700.75
662.304	1680.75
667.8	1692.75
673.29	1673.75
678.775	1678.75
684.254	1668.75
689.726	1669.75
695.193	1631.75
700.655	1650.75
706.11	1622.75
711.56	1621.75
717.004	1611.75
722.442	1604.75
727.874	1579.75
733.301	1581.75
738.722	1573.75
744.137	1567.75
749.547	1554.75
754.951	1551.75
760.349	1557.75
765.741	1544.75
771.128	1557.75
776.509	1549.75
781.885	1572.75
787.254	1561.75
792.618	1544.75
797.977	1546.75
803.33	1538.75
808.677	1511.75
814.019	1514.75
819.355	1483.75
824.686	1465.75
830.011	1465.75
835.33	1455.75
840.644	1443.75
845.952	1426.75
851.255	1410.75
856.552	1432.75
861.844	1423.75
867.13	1406.75
872.41	1406.75
877.686	1407.75
882.955	1384.75
888.219	1368.75
893.478	1339.75
898.731	1312.75
903.979	1296.75
909.221	1278.75
914.458	1263.75
919.69	1256.75
924.916	1245.75
930.136	1244.75
935.351	1244.75
940.561	1249.75
945.766	1239.75
950.965	1243.75
956.158	1216.75
961.347	1219.75
966.529	1213.75
971.707	1187.75
976.879	1188.75
982.046	1180.75
987.208	1157.75
992.364	1150.75
997.515	1164.75
1002.66	1166.75
1007.801	1163.75
1012.936	1196.75
1018.066	1186.75
1023.19	1199.75
1028.309	1202.75
1033.423	1208.75
1038.532	1212.75
1043.636	1201.75
1048.734	1175.75
1053.827	1160.75
1058.915	1173.75
1063.998	1155.75
1069.075	1158.75
1074.147	1132.75
1079.214	1149.75
1084.276	1163.75
1089.333	1161.75
1094.385	1157.75
1099.431	1180.75
1104.472	1196.75
1109.509	1193.75
1114.54	1174.75
1119.565	1160.75
1124.586	1143.75
1129.602	1140.75
1134.613	1116.75
1139.618	1109.75
1144.619	1103.75
1149.614	1105.75
1154.604	1143.75
1159.589	1129.75
1164.57	1135.75
1169.545	1153.75
1174.515	1140.75
1179.48	1164.75
1184.44	1145.75
1189.395	1141.75
1194.345	1112.75
1199.29	1132.75
1204.23	1124.75
1209.165	1128.75
1214.095	1133.75
1219.021	1131.75
1223.941	1136.75
1228.856	1159.75
1233.766	1152.75
1238.672	1156.75
1243.572	1171.75
1248.467	1144.75
1253.358	1136.75
1258.244	1128.75
1263.124	1117.75
1268	1101.75
1272.871	1090.75
1277.737	1087.75
1282.599	1075.75
1287.455	1083.75
1292.306	1083.75
1297.153	1077.75
1301.995	1087.75
1306.832	1090.75
1311.664	1102.75
1316.491	1107.75
1321.314	1105.75
1326.132	1113.75
1330.945	1108.75
1335.753	1086.75
1340.556	1074.75
1345.354	1063.75
1350.148	1051.75
1354.937	1034.75
1359.722	1033.75
1364.501	1003.75
1369.276	1007.75
1374.046	1000.75
1378.811	990.75
1383.572	998.75
1388.327	1001.75
1393.079	1003.75
1397.825	997.75
1402.567	984.75
1407.304	966.75
1412.036	971.75
1416.764	960.75
1421.487	983.75
1426.205	973.75
1430.919	987.75
1435.628	992.75
1440.333	1002.75
1445.032	1005.75
1449.727	1014.75
1454.418	1011.75
1459.104	1039.75
1463.785	1021.75
1468.462	1020.75
1473.134	1015.75
1477.802	1003.75
1482.465	1018.75
1487.123	986.75
1491.777	998.75
1496.426	984.75
1501.071	995.75
1505.711	1000.75
1510.347	1008.75
1514.978	1040.75
1519.604	1033.75
1524.226	1045.75
1528.844	1036.75
1533.457	1043.75
1538.065	1039.75
1542.669	1043.75
1547.269	1040.75
1551.864	1047.75
1556.454	1050.75
1561.041	1056.75
1565.622	1054.75
1570.199	1082.75
1574.772	1083.75
1579.34	1133.75
1583.904	1133.75
1588.464	1157.75
1593.019	1181.75
1597.569	1190.75
1602.115	1200.75
1606.657	1220.75
1611.195	1237.75
1615.728	1237.75
1620.256	1258.75
1624.78	1284.75
1629.3	1301.75
1633.816	1315.75
1638.327	1316.75
1642.834	1341.75
1647.336	1346.75
1651.834	1343.75
1656.328	1342.75
1660.817	1337.75
1665.302	1334.75
1669.783	1309.75
1674.259	1269.75
1678.732	1236.75
1683.199	1208.75
1687.663	1161.75
1692.122	1111.75
1696.577	1059.75
1701.028	1016.75
1705.474	975.75
1709.917	933.75
1714.355	921.75
1718.788	904.75
1723.218	904.75
1727.643	870.75
1732.064	854.75
1736.481	836.75
1740.893	822.75
1745.301	792.75
1749.705	768.75
1754.105	771.75
1758.501	746.75
1762.893	717.75
1767.28	722.75
1771.663	700.75
1776.042	703.75
1780.417	699.75
1784.787	698.75
1789.154	714.75
1793.516	714.75
1797.874	684.75
1802.228	696.75
1806.578	669.75
1810.924	669.75
1815.266	666.75
1819.603	647.75
1823.937	644.75
1828.266	662.75
1832.591	644.75
1836.913	632.75
1841.23	632.75
1845.543	632.75
1849.852	624.75
1854.156	630.75
1858.457	629.75
1862.754	634.75
1867.047	643.75
1871.335	647.75
1875.62	647.75
1879.9	651.75
1884.177	647.75
1888.449	655.75
1892.718	648.75
1896.982	649.75
1901.243	646.75
1905.499	633.75
1909.752	642.75
1914	635.75
1918.245	647.75
1922.485	642.75
1926.722	642.75
1930.954	642.75
1935.183	644.75
1939.408	650.75
1943.628	659.75
1947.845	650.75
1952.058	642.75
1956.267	656.75
1960.472	631.75
1964.673	633.75
1968.87	629.75
1973.063	612.75
1977.252	612.75
1981.438	604.75
1985.619	607.75
1989.797	608.75
1993.971	616.75
1998.14	599.75
2002.306	615.75
2006.469	617.75
2010.627	615.75
2014.781	630.75
2018.932	629.75
2023.078	621.75
2027.221	628.75
2031.36	625.75
2035.495	615.75
2039.627	613.75
2043.754	606.75
2047.878	612.75
2051.998	608.75
2056.114	612.75
2060.226	611.75
2064.334	611.75
2068.439	621.75
2072.54	623.75
2076.637	625.75
2080.73	631.75
2084.82	635.75
2088.906	632.75
2092.988	621.75
2097.066	641.75
2101.14	637.75
2105.211	622.75
2109.278	629.75
2113.342	623.75
2117.401	621.75
2121.457	613.75
2125.509	605.75
2129.558	597.75
2133.602	591.75
2137.643	597.75
2141.681	584.75
2145.714	579.75
2149.744	590.75
2153.77	582.75
2157.793	581.75
2161.812	577.75
2165.827	570.75
2169.838	556.75
2173.846	570.75
2177.851	539.75
2181.851	533.75
2185.848	539.75
2189.841	528.75
2193.831	524.75
2197.817	506.75
2201.799	516.75
2205.778	514.75
2209.753	507.75
2213.725	515.75
2217.693	514.75
2221.657	512.75
2225.618	506.75
2229.575	511.75
2233.529	509.75
2237.479	488.75
2241.425	504.75
2245.368	486.75
2249.307	491.75
2253.243	481.75
2257.175	471.75
2261.104	460.75
2265.029	454.75
2268.95	449.75
2272.868	439.75
2276.783	434.75
2280.694	428.75
2284.601	423.75
2288.505	424.75
2292.405	421.75
2296.302	411.75
2300.195	406.75
2304.085	403.75
2307.971	396.75
2311.854	393.75
2315.734	380.75
2319.609	372.75
2323.482	375.75
2327.351	365.75
2331.216	369.75
2335.078	361.75
2338.937	356.75
2342.792	353.75
2346.643	347.75
2350.492	345.75
2354.336	357.75
2358.178	352.75
2362.015	346.75
2365.85	361.75
2369.681	346.75
2373.508	357.75
2377.333	344.75
2381.153	359.75
2384.971	353.75
2388.785	356.75
2392.595	339.75
2396.402	342.75
2400.206	344.75
2404.007	348.75
2407.804	339.75
2411.597	346.75
2415.388	336.75
2419.174	326.75
2422.958	320.75
2426.738	330.75
2430.515	331.75
2434.289	327.75
2438.059	327.75
2441.825	334.75
2445.589	325.75
2449.349	332.75
2453.106	312.75
2456.859	327.75
2460.61	314.75
2464.356	301.75
2468.1	315.75
2471.84	312.75
2475.577	319.75
2479.311	309.75
2483.041	319.75
2486.768	307.75
2490.492	302.75
2494.213	307.75
2497.93	301.75
2501.644	307.75
2505.355	299.75
2509.062	310.75
2512.766	303.75
2516.467	293.75
2520.165	296.75
2523.859	304.75
2527.551	303.75
2531.239	295.75
2534.923	289.75
2538.605	285.75
2542.283	282.75
2545.958	283.75
2549.63	278.75
2553.299	284.75
2556.964	275.75
2560.626	282.75
2564.285	274.75
2567.941	272.75
2571.594	268.75
2575.243	263.75
2578.89	273.75
2582.533	262.75
2586.173	255.75
2589.809	251.75
2593.443	270.75
2597.073	252.75
2600.701	261.75
2604.325	257.75
2607.946	258.75
2611.564	249.75
2615.178	248.75
2618.79	243.75
2622.398	246.75
2626.004	239.75
2629.606	245.75
2633.205	238.75
2636.801	234.75
2640.394	238.75
2643.983	238.75
2647.57	235.75
2651.153	237.75
2654.734	224.75
2658.311	220.75
2661.885	229.75
2665.456	218.75
2669.025	215.75
2672.589	223.75
2676.151	223.75
2679.71	211.75
2683.266	208.75
2686.819	219.75
2690.368	211.75
2693.915	201.75
2697.458	206.75
2700.999	204.75
2704.536	203.75
2708.071	197.75
2711.602	196.75
2715.13	199.75
2718.656	204.75
2722.178	195.75
2725.697	193.75
2729.214	199.75
2732.727	197.75
2736.237	203.75
2739.744	200.75
2743.249	203.75
2746.75	209.75
2750.248	208.75
2753.743	200.75
2757.236	201.75
2760.725	205.75
2764.211	200.75
2767.695	205.75
2771.175	194.75
2774.652	194.75
2778.127	189.75
2781.598	187.75
2785.067	192.75
2788.532	185.75
2791.995	199.75
2795.455	197.75
2798.911	189.75
2802.365	203.75
2805.816	208.75
2809.264	200.75
2812.709	204.75
2816.151	195.75
2819.59	203.75
2823.026	192.75
2826.46	207.75
2829.89	206.75
2833.318	207.75
2836.742	209.75
2840.164	208.75
2843.583	205.75
2846.999	216.75
2850.412	213.75
2853.822	218.75
2857.229	209.75
2860.634	223.75
2864.035	228.75
2867.434	233.75
2870.83	240.75
2874.223	226.75
2877.613	244.75
2881	237.75
2884.385	245.75
2887.766	239.75
2891.145	239.75
2894.521	245.75
2897.894	238.75
2901.264	247.75
2904.631	253.75
2907.996	254.75
2911.358	258.75
2914.717	254.75
2918.073	262.75
2921.426	257.75
2924.777	258.75
2928.124	274.75
2931.469	279.75
2934.811	278.75
2938.15	298.75
2941.487	299.75
2944.821	296.75
2948.152	313.75
2951.48	312.75
2954.805	316.75
2958.128	328.75
2961.447	324.75
2964.765	329.75
2968.079	335.75
2971.39	352.75
2974.699	354.75
2978.005	363.75
2981.308	369.75
2984.609	389.75
2987.907	393.75
2991.202	399.75
2994.494	418.75
2997.784	418.75
3001.07	433.75
3004.355	443.75
3007.636	473.75
3010.915	477.75
3014.191	477.75
3017.464	492.75
3020.734	497.75
3024.002	508.75
3027.267	528.75
3030.53	527.75
3033.789	543.75
3037.046	547.75
3040.301	569.75
3043.552	571.75
3046.801	597.75
3050.048	613.75
3053.291	633.75
3056.532	638.75
3059.771	661.75
3063.006	686.75
3066.239	714.75
3069.469	728.75
3072.697	748.75
3075.922	763.75
3079.144	792.75
3082.364	818.75
3085.581	829.75
3088.795	856.75
3092.007	868.75
3095.216	897.75
3098.423	913.75
3101.627	927.75
3104.828	950.75
3108.026	979.75
3111.222	991.75
3114.416	1013.75
3117.607	1038.75
3120.795	1089.75
3123.98	1112.75
3127.163	1132.75
3130.344	1153.75
3133.521	1183.75
3136.696	1197.75
3139.869	1232.75
3143.039	1229.75
3146.206	1265.75
3149.371	1295.75
3152.533	1310.75
3155.693	1328.75
3158.85	1335.75
3162.005	1324.75
3165.157	1337.75
3168.306	1333.75
3171.453	1349.75
3174.597	1347.75
3177.739	1339.75
3180.878	1379.75
3184.014	1356.75
3187.149	1351.75
3190.28	1375.75
3193.409	1380.75
3196.536	1381.75
3199.659	1382.75
3202.781	1374.75
3205.9	1394.75
3209.016	1389.75
3212.13	1406.75
3215.241	1382.75
3218.35	1384.75
3221.456	1379.75
3224.56	1380.75
3227.661	1359.75
3230.76	1330.75
3233.856	1339.75
3236.95	1306.75
3240.041	1310.75
3243.13	1299.75
3246.216	1253.75
3249.3	1271.75
3252.382	1257.75
3255.46	1257.75
3258.537	1240.75
3261.611	1233.75
3264.682	1239.75
3267.751	1241.75
3270.818	1213.75
3273.882	1206.75
3276.943	1219.75
3280.002	1197.75
3283.059	1195.75
3286.113	1158.75
3289.165	1154.75
3292.214	1142.75
3295.261	1137.75
3298.306	1109.75
3301.348	1101.75
3304.387	1071.75
3307.425	1061.75
3310.459	1049.75
3313.492	1028.75
3316.521	1028.75
3319.549	1011.75
3322.574	1001.75
3325.597	1005.75
3328.617	996.75
3331.635	980.75
3334.65	963.75
3337.663	967.75
3340.674	961.75
3343.682	956.75
3346.688	955.75
3349.691	960.75
3352.692	944.75
3355.691	940.75
3358.687	943.75
3361.681	925.75
3364.673	912.75
3367.662	914.75
3370.649	902.75
3373.633	890.75
3376.615	864.75
3379.595	864.75
3382.572	862.75
3385.547	840.75
3388.52	831.75
3391.49	831.75
3394.458	810.75
3397.424	787.75
3400.387	782.75
3403.348	766.75
3406.307	763.75
3409.263	757.75
3412.217	756.75
3415.168	733.75
3418.118	745.75
3421.065	724.75
3424.009	715.75
3426.951	703.75
3429.891	695.75
3432.829	681.75
3435.764	668.75
3438.697	667.75
3441.628	644.75
3444.557	623.75
3447.483	608.75
3450.407	598.75
3453.328	580.75
3456.247	571.75
3459.164	547.75
3462.079	526.75
3464.991	518.75
3467.902	511.75
3470.809	484.75
3473.715	477.75
3476.618	453.75
3479.519	439.75
3482.418	430.75
3485.315	423.75
3488.209	405.75
3491.101	382.75
3493.99	381.75
3496.878	376.75
3499.763	360.75
3502.646	345.75
3505.527	340.75
3508.405	332.75
3511.281	309.75
3514.155	301.75
3517.027	286.75
3519.897	279.75
3522.764	249.75
3525.629	253.75
3528.492	236.75
3531.352	218.75
3534.211	218.75
3537.067	196.75
3539.921	186.75
3542.773	177.75
3545.622	156.75
3548.469	153.75
3551.315	145.75
3554.157	133.75
3556.998	131.75
3559.837	124.75
3562.673	120.75
3565.507	111.75
3568.339	97.75
3571.169	92.75
3573.996	85.75
3576.822	87.75
3579.645	79.75
3582.466	67.75
3585.285	64.75
3588.101	52.75
3590.916	49.75
3593.728	47.75
3596.538	41.75
3599.346	34.75
3602.152	38.75
3604.956	25.75
3607.757	14.75
3610.556	13.75
3613.354	7.75
3616.149	6.75
3618.942	3.75
3621.732	-2.25
3624.521	-9.25
3627.307	-2.25
3630.092	-13.25
3632.874	-11.25
3635.654	-21.25
3638.432	-17.25
3641.208	-24.25
3643.982	-31.25
3646.753	-36.25
3649.523	-35.25
3652.29	-33.25
3655.055	-36.25
3657.818	-44.25
3660.579	-45.25
3663.338	-41.25
3666.095	-43.25
3668.849	-47.25
3671.602	-56.25
3674.352	-59.25
3677.101	-62.25
3679.847	-67.25
3682.591	-66.25
3685.333	-71.25
3688.073	-68.25
3690.811	-71.25
3693.547	-72.25
3696.281	-74.25
3699.013	-76.25
3701.742	-75.25
3704.47	-80.25
3707.195	-80.25
3709.919	-80.25
3712.64	-84.25
3715.359	-85.25
3718.076	-83.25
3720.792	-83.25
3723.505	-84.25
3726.216	-82.25
3728.925	-92.25
3731.632	-88.25
3734.336	-88.25
3737.039	-96.25
3739.74	-99.25
3742.439	-95.25
3745.136	-95.25
3747.83	-95.25
3750.523	-94.25
3753.213	-93.25
3755.902	-94.25
3758.589	-91.25
3761.273	-89.25
3763.956	-89.25
3766.636	-100.25
3769.315	-100.25
3771.991	-100.25
3774.665	-96.25
3777.338	-100.25
3780.008	-102.25
3782.677	-102.25
3785.343	-101.25
3788.007	-98.25
3790.67	-100.25
3793.33	-98.25
3795.989	-102.25
3798.645	-100.25
3801.299	-100.25
3803.952	-108.25
3806.602	-106.25
3809.251	-102.25
3811.897	-103.25
3814.542	-103.25
3817.184	-102.25
3819.825	-104.25
3822.463	-99.25
3825.1	-103.25
3827.735	-105.25
3830.367	-104.25
3832.998	-106.25
3835.627	-108.25
3838.253	-107.25
3840.878	-106.25
3843.501	-103.25
3846.122	-107.25
3848.741	-98.25
3851.358	-109.25
3853.973	-107.25
3856.586	-103.25
3859.197	-103.25
3861.806	-108.25
3864.414	-108.25
3867.019	-113.25
3869.622	-109.25
3872.224	-108.25
3874.823	-105.25
3877.421	-102.25
3880.016	-97.25
3882.61	-95.25
3885.202	-94.25
3887.792	-99.25
3890.38	-105.25
3892.966	-106.25
3895.55	-112.25
3898.132	-113.25
3900.713	-108.25
3903.291	-110.25
3905.868	-107.25
3908.442	-108.25
3911.015	-108.25
3913.586	-110.25
3916.155	-106.25
3918.722	-111.25
3921.287	-110.25
3923.85	-117.25
3926.411	-111.25
3928.971	-109.25
3931.528	-113.25
3934.084	-106.25
3936.638	-106.25
3939.19	-109.25
3941.74	-109.25
3944.288	-115.25
3946.834	-111.25
3949.378	-111.25
3951.921	-111.25
3954.462	-115.25
3957	-113.25
3959.537	-113.25
3962.072	-110.25
3964.606	-111.25
3967.137	-106.25
3969.667	-107.25
3972.194	-111.25
3974.72	-108.25
3977.244	-111.25
3979.766	-113.25
3982.286	-107.25
3984.805	-111.25
3987.321	-109.25
3989.836	-109.25
3992.349	-110.25
3994.86	-107.25
3997.369	-108.25
3999.877	-113.25
4002.382	-107.25
4004.886	-111.25
4007.388	-107.25
4009.888	-111.25
4012.386	-113.25
4014.883	-108.25
4017.377	-109.25
4019.87	-111.25
4022.361	-113.25
4024.85	-114.25
4027.338	-114.25
4029.823	-109.25
4032.307	-107.25
4034.789	-111.25
4037.269	-110.25
4039.747	-111.25
4042.224	-111.25
4044.699	-113.25
4047.172	-114.25
4049.643	-113.25
4052.112	-114.25
4054.58	-113.25
4057.046	-115.25
4059.51	-118.25
4061.972	-110.25
4064.432	-113.25
4066.891	-110.25
4069.348	-110.25
4071.803	-109.25
4074.256	-111.25
4076.708	-111.25
4079.158	-117.25
4081.606	-116.25
4084.052	-109.25
4086.497	-114.25
4088.939	-112.25
4091.38	-112.25
4093.819	-114.25
4096.257	-116.25
4098.693	-116.25
4101.127	-112.25
4103.559	-113.25
4105.989	-75.25
4108.418	-70.25
4110.845	-67.25
4113.27	-66.25
4115.694	-57.25
4118.115	-54.25
4120.535	-109.25
4122.954	-114.25
4125.37	-112.25
4127.785	-111.25
4130.198	-112.25
4132.609	-114.25
4135.019	-118.25
4137.427	-117.25
4139.833	-118.25
4142.237	-116.25
