Data from 1000CFU2_B_RamanShift_1.txt Node
Date: Tue Jan 31 14:27:27 IST 2017
User: aro
Spectrometer: QEPB0276
Trigger mode: 0
Integration Time (sec): 5.000000E0
Scans to average: 1
Electric dark correction enabled: true
Nonlinearity correction enabled: false
Boxcar width: 0
XAxis mode: Raman Shifts
Number of Pixels in Spectrum: 1044
>>>>>Begin Spectral Data<<<<<
160.701	-32.5
166.742	-4.5
172.777	96.5
178.805	401.5
184.826	1114.5
190.841	2296.5
196.849	3560.5
202.85	4406.5
208.845	4604.5
214.833	4453.5
220.815	4273.5
226.789	4163.5
232.758	4023.5
238.719	3914.5
244.674	3778.5
250.623	3637.5
256.565	3458.5
262.5	3250.5
268.429	3158.5
274.351	3021.5
280.267	2867.5
286.176	2795.5
292.079	2702.5
297.975	2614.5
303.865	2548.5
309.748	2479.5
315.625	2396.5
321.495	2341.5
327.359	2319.5
333.217	2285.5
339.068	2266.5
344.912	2256.5
350.751	2229.5
356.583	2240.5
362.408	2247.5
368.227	2249.5
374.04	2260.5
379.847	2295.5
385.647	2280.5
391.44	2286.5
397.228	2298.5
403.009	2319.5
408.784	2322.5
414.553	2330.5
420.315	2322.5
426.071	2344.5
431.821	2335.5
437.565	2351.5
443.302	2310.5
449.033	2320.5
454.758	2299.5
460.477	2293.5
466.189	2294.5
471.896	2276.5
477.596	2273.5
483.29	2239.5
488.978	2253.5
494.66	2254.5
500.335	2211.5
506.005	2160.5
511.668	2126.5
517.325	2101.5
522.977	2052.5
528.622	2034.5
534.261	1999.5
539.894	1992.5
545.521	1959.5
551.141	1955.5
556.756	1963.5
562.365	1937.5
567.968	1922.5
573.565	1902.5
579.155	1895.5
584.74	1892.5
590.319	1873.5
595.892	1871.5
601.459	1863.5
607.02	1843.5
612.575	1825.5
618.124	1817.5
623.667	1807.5
629.204	1777.5
634.735	1759.5
640.261	1745.5
645.781	1764.5
651.294	1742.5
656.802	1700.5
662.304	1709.5
667.8	1712.5
673.29	1692.5
678.775	1690.5
684.254	1675.5
689.726	1678.5
695.193	1682.5
700.655	1673.5
706.11	1656.5
711.56	1640.5
717.004	1651.5
722.442	1638.5
727.874	1611.5
733.301	1599.5
738.722	1595.5
744.137	1579.5
749.547	1601.5
754.951	1582.5
760.349	1579.5
765.741	1590.5
771.128	1584.5
776.509	1582.5
781.885	1592.5
787.254	1584.5
792.618	1576.5
797.977	1555.5
803.33	1573.5
808.677	1569.5
814.019	1525.5
819.355	1514.5
824.686	1498.5
830.011	1501.5
835.33	1477.5
840.644	1464.5
845.952	1459.5
851.255	1441.5
856.552	1430.5
861.844	1428.5
867.13	1422.5
872.41	1433.5
877.686	1424.5
882.955	1414.5
888.219	1397.5
893.478	1389.5
898.731	1364.5
903.979	1321.5
909.221	1318.5
914.458	1300.5
919.69	1281.5
924.916	1280.5
930.136	1278.5
935.351	1287.5
940.561	1273.5
945.766	1268.5
950.965	1283.5
956.158	1263.5
961.347	1249.5
966.529	1240.5
971.707	1233.5
976.879	1225.5
982.046	1198.5
987.208	1191.5
992.364	1183.5
997.515	1183.5
1002.66	1193.5
1007.801	1211.5
1012.936	1221.5
1018.066	1239.5
1023.19	1221.5
1028.309	1241.5
1033.423	1240.5
1038.532	1240.5
1043.636	1221.5
1048.734	1222.5
1053.827	1215.5
1058.915	1189.5
1063.998	1187.5
1069.075	1167.5
1074.147	1174.5
1079.214	1187.5
1084.276	1199.5
1089.333	1200.5
1094.385	1193.5
1099.431	1218.5
1104.472	1219.5
1109.509	1219.5
1114.54	1213.5
1119.565	1199.5
1124.586	1168.5
1129.602	1170.5
1134.613	1156.5
1139.618	1150.5
1144.619	1145.5
1149.614	1139.5
1154.604	1166.5
1159.589	1173.5
1164.57	1165.5
1169.545	1164.5
1174.515	1175.5
1179.48	1187.5
1184.44	1185.5
1189.395	1170.5
1194.345	1160.5
1199.29	1167.5
1204.23	1144.5
1209.165	1158.5
1214.095	1170.5
1219.021	1161.5
1223.941	1183.5
1228.856	1196.5
1233.766	1177.5
1238.672	1202.5
1243.572	1198.5
1248.467	1198.5
1253.358	1193.5
1258.244	1175.5
1263.124	1146.5
1268	1143.5
1272.871	1120.5
1277.737	1116.5
1282.599	1119.5
1287.455	1115.5
1292.306	1113.5
1297.153	1120.5
1301.995	1118.5
1306.832	1149.5
1311.664	1146.5
1316.491	1138.5
1321.314	1149.5
1326.132	1139.5
1330.945	1146.5
1335.753	1124.5
1340.556	1113.5
1345.354	1091.5
1350.148	1084.5
1354.937	1059.5
1359.722	1055.5
1364.501	1038.5
1369.276	1052.5
1374.046	1039.5
1378.811	1029.5
1383.572	1042.5
1388.327	1036.5
1393.079	1032.5
1397.825	1014.5
1402.567	1032.5
1407.304	1009.5
1412.036	1021.5
1416.764	1009.5
1421.487	1010.5
1426.205	1001.5
1430.919	1014.5
1435.628	1016.5
1440.333	1040.5
1445.032	1038.5
1449.727	1055.5
1454.418	1053.5
1459.104	1068.5
1463.785	1050.5
1468.462	1046.5
1473.134	1042.5
1477.802	1039.5
1482.465	1034.5
1487.123	1049.5
1491.777	1026.5
1496.426	1029.5
1501.071	1042.5
1505.711	1044.5
1510.347	1047.5
1514.978	1065.5
1519.604	1060.5
1524.226	1085.5
1528.844	1077.5
1533.457	1080.5
1538.065	1078.5
1542.669	1063.5
1547.269	1080.5
1551.864	1075.5
1556.454	1086.5
1561.041	1099.5
1565.622	1109.5
1570.199	1115.5
1574.772	1146.5
1579.34	1157.5
1583.904	1174.5
1588.464	1201.5
1593.019	1217.5
1597.569	1221.5
1602.115	1239.5
1606.657	1265.5
1611.195	1255.5
1615.728	1271.5
1620.256	1301.5
1624.78	1310.5
1629.3	1319.5
1633.816	1356.5
1638.327	1367.5
1642.834	1369.5
1647.336	1376.5
1651.834	1381.5
1656.328	1389.5
1660.817	1390.5
1665.302	1357.5
1669.783	1344.5
1674.259	1309.5
1678.732	1271.5
1683.199	1223.5
1687.663	1179.5
1692.122	1137.5
1696.577	1093.5
1701.028	1045.5
1705.474	999.5
1709.917	962.5
1714.355	955.5
1718.788	933.5
1723.218	921.5
1727.643	905.5
1732.064	898.5
1736.481	866.5
1740.893	856.5
1745.301	827.5
1749.705	796.5
1754.105	788.5
1758.501	768.5
1762.893	750.5
1767.28	762.5
1771.663	751.5
1776.042	750.5
1780.417	745.5
1784.787	737.5
1789.154	744.5
1793.516	736.5
1797.874	734.5
1802.228	718.5
1806.578	712.5
1810.924	708.5
1815.266	694.5
1819.603	690.5
1823.937	675.5
1828.266	674.5
1832.591	682.5
1836.913	677.5
1841.23	661.5
1845.543	677.5
1849.852	670.5
1854.156	663.5
1858.457	673.5
1862.754	666.5
1867.047	670.5
1871.335	678.5
1875.62	686.5
1879.9	691.5
1884.177	686.5
1888.449	681.5
1892.718	687.5
1896.982	683.5
1901.243	680.5
1905.499	676.5
1909.752	675.5
1914	675.5
1918.245	664.5
1922.485	690.5
1926.722	684.5
1930.954	683.5
1935.183	679.5
1939.408	671.5
1943.628	673.5
1947.845	681.5
1952.058	687.5
1956.267	682.5
1960.472	667.5
1964.673	662.5
1968.87	657.5
1973.063	655.5
1977.252	644.5
1981.438	646.5
1985.619	653.5
1989.797	647.5
1993.971	643.5
1998.14	640.5
2002.306	652.5
2006.469	641.5
2010.627	655.5
2014.781	668.5
2018.932	658.5
2023.078	667.5
2027.221	657.5
2031.36	657.5
2035.495	653.5
2039.627	645.5
2043.754	640.5
2047.878	643.5
2051.998	639.5
2056.114	626.5
2060.226	641.5
2064.334	638.5
2068.439	645.5
2072.54	646.5
2076.637	641.5
2080.73	660.5
2084.82	661.5
2088.906	652.5
2092.988	661.5
2097.066	657.5
2101.14	661.5
2105.211	652.5
2109.278	655.5
2113.342	636.5
2117.401	647.5
2121.457	635.5
2125.509	623.5
2129.558	634.5
2133.602	617.5
2137.643	619.5
2141.681	625.5
2145.714	621.5
2149.744	611.5
2153.77	609.5
2157.793	596.5
2161.812	596.5
2165.827	593.5
2169.838	590.5
2173.846	573.5
2177.851	572.5
2181.851	575.5
2185.848	555.5
2189.841	547.5
2193.831	539.5
2197.817	547.5
2201.799	539.5
2205.778	532.5
2209.753	526.5
2213.725	541.5
2217.693	534.5
2221.657	538.5
2225.618	540.5
2229.575	531.5
2233.529	527.5
2237.479	529.5
2241.425	526.5
2245.368	509.5
2249.307	509.5
2253.243	494.5
2257.175	493.5
2261.104	486.5
2265.029	483.5
2268.95	468.5
2272.868	463.5
2276.783	456.5
2280.694	455.5
2284.601	448.5
2288.505	446.5
2292.405	450.5
2296.302	434.5
2300.195	439.5
2304.085	429.5
2307.971	414.5
2311.854	402.5
2315.734	399.5
2319.609	392.5
2323.482	384.5
2327.351	377.5
2331.216	390.5
2335.078	382.5
2338.937	381.5
2342.792	376.5
2346.643	381.5
2350.492	376.5
2354.336	365.5
2358.178	375.5
2362.015	371.5
2365.85	368.5
2369.681	364.5
2373.508	377.5
2377.333	364.5
2381.153	370.5
2384.971	378.5
2388.785	374.5
2392.595	369.5
2396.402	381.5
2400.206	364.5
2404.007	370.5
2407.804	354.5
2411.597	358.5
2415.388	360.5
2419.174	351.5
2422.958	348.5
2426.738	365.5
2430.515	362.5
2434.289	353.5
2438.059	363.5
2441.825	361.5
2445.589	357.5
2449.349	345.5
2453.106	336.5
2456.859	344.5
2460.61	343.5
2464.356	329.5
2468.1	332.5
2471.84	330.5
2475.577	329.5
2479.311	334.5
2483.041	328.5
2486.768	330.5
2490.492	325.5
2494.213	319.5
2497.93	334.5
2501.644	331.5
2505.355	319.5
2509.062	328.5
2512.766	333.5
2516.467	325.5
2520.165	326.5
2523.859	327.5
2527.551	329.5
2531.239	313.5
2534.923	317.5
2538.605	308.5
2542.283	300.5
2545.958	298.5
2549.63	303.5
2553.299	296.5
2556.964	301.5
2560.626	297.5
2564.285	302.5
2567.941	292.5
2571.594	294.5
2575.243	299.5
2578.89	295.5
2582.533	285.5
2586.173	294.5
2589.809	280.5
2593.443	283.5
2597.073	279.5
2600.701	283.5
2604.325	278.5
2607.946	284.5
2611.564	276.5
2615.178	270.5
2618.79	262.5
2622.398	264.5
2626.004	264.5
2629.606	265.5
2633.205	269.5
2636.801	262.5
2640.394	256.5
2643.983	259.5
2647.57	256.5
2651.153	248.5
2654.734	247.5
2658.311	247.5
2661.885	243.5
2665.456	235.5
2669.025	247.5
2672.589	245.5
2676.151	229.5
2679.71	235.5
2683.266	232.5
2686.819	232.5
2690.368	227.5
2693.915	228.5
2697.458	225.5
2700.999	226.5
2704.536	220.5
2708.071	218.5
2711.602	218.5
2715.13	209.5
2718.656	220.5
2722.178	215.5
2725.697	215.5
2729.214	216.5
2732.727	218.5
2736.237	222.5
2739.744	222.5
2743.249	222.5
2746.75	226.5
2750.248	221.5
2753.743	212.5
2757.236	219.5
2760.725	221.5
2764.211	208.5
2767.695	205.5
2771.175	201.5
2774.652	205.5
2778.127	200.5
2781.598	210.5
2785.067	198.5
2788.532	208.5
2791.995	207.5
2795.455	210.5
2798.911	212.5
2802.365	204.5
2805.816	213.5
2809.264	216.5
2812.709	217.5
2816.151	212.5
2819.59	218.5
2823.026	207.5
2826.46	220.5
2829.89	219.5
2833.318	221.5
2836.742	220.5
2840.164	220.5
2843.583	219.5
2846.999	221.5
2850.412	223.5
2853.822	225.5
2857.229	227.5
2860.634	242.5
2864.035	246.5
2867.434	243.5
2870.83	252.5
2874.223	251.5
2877.613	248.5
2881	247.5
2884.385	254.5
2887.766	254.5
2891.145	253.5
2894.521	249.5
2897.894	252.5
2901.264	260.5
2904.631	255.5
2907.996	266.5
2911.358	264.5
2914.717	264.5
2918.073	266.5
2921.426	268.5
2924.777	277.5
2928.124	280.5
2931.469	279.5
2934.811	295.5
2938.15	294.5
2941.487	302.5
2944.821	317.5
2948.152	313.5
2951.48	319.5
2954.805	327.5
2958.128	324.5
2961.447	321.5
2964.765	342.5
2968.079	349.5
2971.39	353.5
2974.699	360.5
2978.005	372.5
2981.308	378.5
2984.609	392.5
2987.907	388.5
2991.202	405.5
2994.494	413.5
2997.784	434.5
3001.07	442.5
3004.355	441.5
3007.636	462.5
3010.915	462.5
3014.191	479.5
3017.464	487.5
3020.734	501.5
3024.002	499.5
3027.267	523.5
3030.53	531.5
3033.789	532.5
3037.046	552.5
3040.301	557.5
3043.552	581.5
3046.801	585.5
3050.048	606.5
3053.291	619.5
3056.532	626.5
3059.771	643.5
3063.006	688.5
3066.239	694.5
3069.469	728.5
3072.697	740.5
3075.922	768.5
3079.144	784.5
3082.364	805.5
3085.581	832.5
3088.795	849.5
3092.007	856.5
3095.216	886.5
3098.423	901.5
3101.627	923.5
3104.828	955.5
3108.026	962.5
3111.222	970.5
3114.416	988.5
3117.607	1015.5
3120.795	1064.5
3123.98	1072.5
3127.163	1091.5
3130.344	1124.5
3133.521	1135.5
3136.696	1177.5
3139.869	1193.5
3143.039	1223.5
3146.206	1246.5
3149.371	1244.5
3152.533	1270.5
3155.693	1285.5
3158.85	1285.5
3162.005	1295.5
3165.157	1304.5
3168.306	1299.5
3171.453	1315.5
3174.597	1319.5
3177.739	1320.5
3180.878	1338.5
3184.014	1316.5
3187.149	1338.5
3190.28	1349.5
3193.409	1355.5
3196.536	1349.5
3199.659	1352.5
3202.781	1354.5
3205.9	1362.5
3209.016	1356.5
3212.13	1372.5
3215.241	1346.5
3218.35	1364.5
3221.456	1335.5
3224.56	1349.5
3227.661	1332.5
3230.76	1317.5
3233.856	1308.5
3236.95	1299.5
3240.041	1259.5
3243.13	1262.5
3246.216	1247.5
3249.3	1256.5
3252.382	1220.5
3255.46	1210.5
3258.537	1220.5
3261.611	1216.5
3264.682	1204.5
3267.751	1193.5
3270.818	1199.5
3273.882	1186.5
3276.943	1182.5
3280.002	1152.5
3283.059	1156.5
3286.113	1146.5
3289.165	1123.5
3292.214	1137.5
3295.261	1105.5
3298.306	1084.5
3301.348	1083.5
3304.387	1045.5
3307.425	1043.5
3310.459	1027.5
3313.492	1005.5
3316.521	998.5
3319.549	996.5
3322.574	995.5
3325.597	980.5
3328.617	972.5
3331.635	971.5
3334.65	962.5
3337.663	963.5
3340.674	936.5
3343.682	950.5
3346.688	939.5
3349.691	935.5
3352.692	931.5
3355.691	934.5
3358.687	910.5
3361.681	911.5
3364.673	909.5
3367.662	888.5
3370.649	893.5
3373.633	870.5
3376.615	861.5
3379.595	845.5
3382.572	835.5
3385.547	832.5
3388.52	814.5
3391.49	797.5
3394.458	795.5
3397.424	785.5
3400.387	773.5
3403.348	767.5
3406.307	746.5
3409.263	752.5
3412.217	731.5
3415.168	723.5
3418.118	723.5
3421.065	724.5
3424.009	703.5
3426.951	697.5
3429.891	699.5
3432.829	683.5
3435.764	662.5
3438.697	650.5
3441.628	641.5
3444.557	629.5
3447.483	602.5
3450.407	586.5
3453.328	569.5
3456.247	563.5
3459.164	546.5
3462.079	527.5
3464.991	511.5
3467.902	499.5
3470.809	474.5
3473.715	474.5
3476.618	443.5
3479.519	432.5
3482.418	408.5
3485.315	418.5
3488.209	402.5
3491.101	385.5
3493.99	375.5
3496.878	372.5
3499.763	352.5
3502.646	348.5
3505.527	324.5
3508.405	316.5
3511.281	306.5
3514.155	290.5
3517.027	286.5
3519.897	265.5
3522.764	256.5
3525.629	246.5
3528.492	235.5
3531.352	221.5
3534.211	209.5
3537.067	198.5
3539.921	179.5
3542.773	174.5
3545.622	164.5
3548.469	156.5
3551.315	146.5
3554.157	137.5
3556.998	130.5
3559.837	126.5
3562.673	113.5
3565.507	107.5
3568.339	98.5
3571.169	94.5
3573.996	81.5
3576.822	82.5
3579.645	74.5
3582.466	72.5
3585.285	64.5
3588.101	51.5
3590.916	51.5
3593.728	51.5
3596.538	47.5
3599.346	34.5
3602.152	31.5
3604.956	27.5
3607.757	17.5
3610.556	12.5
3613.354	8.5
3616.149	11.5
3618.942	5.5
3621.732	-1.5
3624.521	1.5
3627.307	-6.5
3630.092	-12.5
3632.874	-13.5
3635.654	-26.5
3638.432	-25.5
3641.208	-24.5
3643.982	-25.5
3646.753	-30.5
3649.523	-29.5
3652.29	-35.5
3655.055	-37.5
3657.818	-40.5
3660.579	-44.5
3663.338	-45.5
3666.095	-54.5
3668.849	-49.5
3671.602	-53.5
3674.352	-59.5
3677.101	-60.5
3679.847	-61.5
3682.591	-65.5
3685.333	-60.5
3688.073	-62.5
3690.811	-64.5
3693.547	-71.5
3696.281	-69.5
3699.013	-75.5
3701.742	-80.5
3704.47	-79.5
3707.195	-80.5
3709.919	-78.5
3712.64	-82.5
3715.359	-83.5
3718.076	-78.5
3720.792	-81.5
3723.505	-81.5
3726.216	-83.5
3728.925	-87.5
3731.632	-88.5
3734.336	-89.5
3737.039	-94.5
3739.74	-94.5
3742.439	-92.5
3745.136	-91.5
3747.83	-93.5
3750.523	-90.5
3753.213	-92.5
3755.902	-93.5
3758.589	-91.5
3761.273	-94.5
3763.956	-92.5
3766.636	-98.5
3769.315	-92.5
3771.991	-96.5
3774.665	-94.5
3777.338	-98.5
3780.008	-101.5
3782.677	-97.5
3785.343	-101.5
3788.007	-96.5
3790.67	-101.5
3793.33	-100.5
3795.989	-102.5
3798.645	-101.5
3801.299	-99.5
3803.952	-103.5
3806.602	-105.5
3809.251	-100.5
3811.897	-101.5
3814.542	-105.5
3817.184	-103.5
3819.825	-102.5
3822.463	-101.5
3825.1	-100.5
3827.735	-102.5
3830.367	-101.5
3832.998	-108.5
3835.627	-105.5
3838.253	-103.5
3840.878	-105.5
3843.501	-103.5
3846.122	-106.5
3848.741	-106.5
3851.358	-109.5
3853.973	-105.5
3856.586	-101.5
3859.197	-104.5
3861.806	-108.5
3864.414	-106.5
3867.019	-104.5
3869.622	-105.5
3872.224	-111.5
3874.823	-106.5
3877.421	-106.5
3880.016	-100.5
3882.61	-96.5
3885.202	-95.5
3887.792	-92.5
3890.38	-99.5
3892.966	-104.5
3895.55	-108.5
3898.132	-108.5
3900.713	-109.5
3903.291	-110.5
3905.868	-110.5
3908.442	-110.5
3911.015	-111.5
3913.586	-110.5
3916.155	-106.5
3918.722	-113.5
3921.287	-107.5
3923.85	-109.5
3926.411	-110.5
3928.971	-111.5
3931.528	-115.5
3934.084	-110.5
3936.638	-108.5
3939.19	-110.5
3941.74	-111.5
3944.288	-113.5
3946.834	-106.5
3949.378	-111.5
3951.921	-110.5
3954.462	-112.5
3957	-112.5
3959.537	-114.5
3962.072	-111.5
3964.606	-115.5
3967.137	-110.5
3969.667	-106.5
3972.194	-110.5
3974.72	-108.5
3977.244	-110.5
3979.766	-111.5
3982.286	-104.5
3984.805	-109.5
3987.321	-108.5
3989.836	-114.5
3992.349	-113.5
3994.86	-109.5
3997.369	-108.5
3999.877	-113.5
4002.382	-106.5
4004.886	-106.5
4007.388	-105.5
4009.888	-109.5
4012.386	-112.5
4014.883	-108.5
4017.377	-114.5
4019.87	-109.5
4022.361	-115.5
4024.85	-111.5
4027.338	-113.5
4029.823	-106.5
4032.307	-108.5
4034.789	-105.5
4037.269	-108.5
4039.747	-105.5
4042.224	-107.5
4044.699	-117.5
4047.172	-117.5
4049.643	-111.5
4052.112	-115.5
4054.58	-113.5
4057.046	-114.5
4059.51	-115.5
4061.972	-113.5
4064.432	-107.5
4066.891	-113.5
4069.348	-110.5
4071.803	-113.5
4074.256	-117.5
4076.708	-109.5
4079.158	-118.5
4081.606	-115.5
4084.052	-107.5
4086.497	-111.5
4088.939	-110.5
4091.38	-107.5
4093.819	-112.5
4096.257	-116.5
4098.693	-115.5
4101.127	-111.5
4103.559	-117.5
4105.989	-75.5
4108.418	-74.5
4110.845	-69.5
4113.27	-68.5
4115.694	-56.5
4118.115	-50.5
4120.535	-110.5
4122.954	-115.5
4125.37	-112.5
4127.785	-113.5
4130.198	-114.5
4132.609	-113.5
4135.019	-116.5
4137.427	-113.5
4139.833	-113.5
4142.237	-117.5
