Data from 100000CFU1_A_RamanShift_1.txt Node
Date: Tue Jan 31 15:26:54 IST 2017
User: aro
Spectrometer: QEPB0276
Trigger mode: 0
Integration Time (sec): 5.000000E0
Scans to average: 1
Electric dark correction enabled: true
Nonlinearity correction enabled: false
Boxcar width: 0
XAxis mode: Raman Shifts
Number of Pixels in Spectrum: 1044
>>>>>Begin Spectral Data<<<<<
160.701	-35.5
166.742	-2.5
172.777	86.5
178.805	406.5
184.826	1113.5
190.841	2263.5
196.849	3554.5
202.85	4374.5
208.845	4532.5
214.833	4396.5
220.815	4225.5
226.789	4096.5
232.758	4025.5
238.719	3919.5
244.674	3741.5
250.623	3565.5
256.565	3412.5
262.5	3272.5
268.429	3123.5
274.351	3002.5
280.267	2893.5
286.176	2785.5
292.079	2693.5
297.975	2609.5
303.865	2524.5
309.748	2468.5
315.625	2408.5
321.495	2359.5
327.359	2320.5
333.217	2283.5
339.068	2285.5
344.912	2270.5
350.751	2263.5
356.583	2260.5
362.408	2240.5
368.227	2252.5
374.04	2274.5
379.847	2285.5
385.647	2282.5
391.44	2299.5
397.228	2294.5
403.009	2324.5
408.784	2339.5
414.553	2328.5
420.315	2361.5
426.071	2335.5
431.821	2339.5
437.565	2348.5
443.302	2309.5
449.033	2307.5
454.758	2323.5
460.477	2311.5
466.189	2310.5
471.896	2277.5
477.596	2273.5
483.29	2263.5
488.978	2265.5
494.66	2242.5
500.335	2195.5
506.005	2169.5
511.668	2140.5
517.325	2107.5
522.977	2099.5
528.622	2046.5
534.261	2021.5
539.894	2030.5
545.521	2000.5
551.141	1980.5
556.756	1958.5
562.365	1959.5
567.968	1935.5
573.565	1923.5
579.155	1935.5
584.74	1917.5
590.319	1912.5
595.892	1885.5
601.459	1878.5
607.02	1868.5
612.575	1850.5
618.124	1836.5
623.667	1817.5
629.204	1806.5
634.735	1799.5
640.261	1785.5
645.781	1756.5
651.294	1765.5
656.802	1753.5
662.304	1755.5
667.8	1728.5
673.29	1722.5
678.775	1715.5
684.254	1697.5
689.726	1715.5
695.193	1716.5
700.655	1700.5
706.11	1703.5
711.56	1698.5
717.004	1685.5
722.442	1682.5
727.874	1650.5
733.301	1642.5
738.722	1652.5
744.137	1616.5
749.547	1625.5
754.951	1619.5
760.349	1615.5
765.741	1628.5
771.128	1605.5
776.509	1618.5
781.885	1622.5
787.254	1628.5
792.618	1626.5
797.977	1611.5
803.33	1609.5
808.677	1584.5
814.019	1571.5
819.355	1558.5
824.686	1543.5
830.011	1512.5
835.33	1522.5
840.644	1519.5
845.952	1504.5
851.255	1511.5
856.552	1477.5
861.844	1467.5
867.13	1493.5
872.41	1457.5
877.686	1461.5
882.955	1446.5
888.219	1429.5
893.478	1426.5
898.731	1395.5
903.979	1377.5
909.221	1349.5
914.458	1343.5
919.69	1324.5
924.916	1334.5
930.136	1338.5
935.351	1328.5
940.561	1338.5
945.766	1339.5
950.965	1334.5
956.158	1325.5
961.347	1321.5
966.529	1299.5
971.707	1273.5
976.879	1263.5
982.046	1267.5
987.208	1244.5
992.364	1244.5
997.515	1233.5
1002.66	1257.5
1007.801	1245.5
1012.936	1267.5
1018.066	1264.5
1023.19	1294.5
1028.309	1286.5
1033.423	1299.5
1038.532	1284.5
1043.636	1288.5
1048.734	1282.5
1053.827	1257.5
1058.915	1244.5
1063.998	1235.5
1069.075	1235.5
1074.147	1220.5
1079.214	1239.5
1084.276	1249.5
1089.333	1254.5
1094.385	1272.5
1099.431	1278.5
1104.472	1284.5
1109.509	1280.5
1114.54	1273.5
1119.565	1248.5
1124.586	1234.5
1129.602	1224.5
1134.613	1221.5
1139.618	1206.5
1144.619	1208.5
1149.614	1223.5
1154.604	1210.5
1159.589	1208.5
1164.57	1232.5
1169.545	1251.5
1174.515	1231.5
1179.48	1238.5
1184.44	1226.5
1189.395	1214.5
1194.345	1234.5
1199.29	1239.5
1204.23	1225.5
1209.165	1230.5
1214.095	1219.5
1219.021	1223.5
1223.941	1231.5
1228.856	1256.5
1233.766	1254.5
1238.672	1252.5
1243.572	1256.5
1248.467	1251.5
1253.358	1244.5
1258.244	1233.5
1263.124	1227.5
1268	1202.5
1272.871	1180.5
1277.737	1164.5
1282.599	1155.5
1287.455	1164.5
1292.306	1163.5
1297.153	1183.5
1301.995	1194.5
1306.832	1190.5
1311.664	1202.5
1316.491	1207.5
1321.314	1214.5
1326.132	1203.5
1330.945	1198.5
1335.753	1176.5
1340.556	1177.5
1345.354	1169.5
1350.148	1157.5
1354.937	1134.5
1359.722	1129.5
1364.501	1111.5
1369.276	1113.5
1374.046	1101.5
1378.811	1093.5
1383.572	1087.5
1388.327	1084.5
1393.079	1077.5
1397.825	1076.5
1402.567	1075.5
1407.304	1073.5
1412.036	1079.5
1416.764	1064.5
1421.487	1069.5
1426.205	1069.5
1430.919	1078.5
1435.628	1077.5
1440.333	1097.5
1445.032	1118.5
1449.727	1111.5
1454.418	1122.5
1459.104	1130.5
1463.785	1115.5
1468.462	1119.5
1473.134	1099.5
1477.802	1096.5
1482.465	1102.5
1487.123	1085.5
1491.777	1084.5
1496.426	1084.5
1501.071	1089.5
1505.711	1109.5
1510.347	1126.5
1514.978	1137.5
1519.604	1129.5
1524.226	1152.5
1528.844	1146.5
1533.457	1147.5
1538.065	1130.5
1542.669	1144.5
1547.269	1133.5
1551.864	1137.5
1556.454	1139.5
1561.041	1151.5
1565.622	1138.5
1570.199	1173.5
1574.772	1183.5
1579.34	1222.5
1583.904	1234.5
1588.464	1262.5
1593.019	1263.5
1597.569	1282.5
1602.115	1313.5
1606.657	1309.5
1611.195	1316.5
1615.728	1335.5
1620.256	1354.5
1624.78	1364.5
1629.3	1376.5
1633.816	1392.5
1638.327	1400.5
1642.834	1423.5
1647.336	1454.5
1651.834	1425.5
1656.328	1439.5
1660.817	1434.5
1665.302	1414.5
1669.783	1388.5
1674.259	1357.5
1678.732	1325.5
1683.199	1295.5
1687.663	1260.5
1692.122	1199.5
1696.577	1157.5
1701.028	1104.5
1705.474	1061.5
1709.917	1029.5
1714.355	1023.5
1718.788	982.5
1723.218	985.5
1727.643	962.5
1732.064	959.5
1736.481	930.5
1740.893	916.5
1745.301	893.5
1749.705	875.5
1754.105	849.5
1758.501	831.5
1762.893	811.5
1767.28	808.5
1771.663	801.5
1776.042	787.5
1780.417	803.5
1784.787	807.5
1789.154	795.5
1793.516	803.5
1797.874	800.5
1802.228	798.5
1806.578	778.5
1810.924	767.5
1815.266	755.5
1819.603	755.5
1823.937	733.5
1828.266	733.5
1832.591	735.5
1836.913	725.5
1841.23	719.5
1845.543	721.5
1849.852	715.5
1854.156	724.5
1858.457	713.5
1862.754	724.5
1867.047	721.5
1871.335	737.5
1875.62	725.5
1879.9	738.5
1884.177	745.5
1888.449	740.5
1892.718	748.5
1896.982	741.5
1901.243	754.5
1905.499	734.5
1909.752	744.5
1914	722.5
1918.245	730.5
1922.485	719.5
1926.722	743.5
1930.954	744.5
1935.183	737.5
1939.408	745.5
1943.628	749.5
1947.845	752.5
1952.058	743.5
1956.267	748.5
1960.472	726.5
1964.673	719.5
1968.87	702.5
1973.063	695.5
1977.252	702.5
1981.438	703.5
1985.619	694.5
1989.797	686.5
1993.971	696.5
1998.14	685.5
2002.306	694.5
2006.469	706.5
2010.627	707.5
2014.781	712.5
2018.932	697.5
2023.078	710.5
2027.221	708.5
2031.36	708.5
2035.495	700.5
2039.627	695.5
2043.754	687.5
2047.878	683.5
2051.998	688.5
2056.114	688.5
2060.226	684.5
2064.334	690.5
2068.439	697.5
2072.54	692.5
2076.637	705.5
2080.73	709.5
2084.82	719.5
2088.906	720.5
2092.988	705.5
2097.066	722.5
2101.14	709.5
2105.211	705.5
2109.278	699.5
2113.342	690.5
2117.401	699.5
2121.457	690.5
2125.509	669.5
2129.558	672.5
2133.602	670.5
2137.643	668.5
2141.681	666.5
2145.714	666.5
2149.744	662.5
2153.77	664.5
2157.793	645.5
2161.812	657.5
2165.827	647.5
2169.838	640.5
2173.846	627.5
2177.851	613.5
2181.851	609.5
2185.848	605.5
2189.841	594.5
2193.831	588.5
2197.817	581.5
2201.799	576.5
2205.778	583.5
2209.753	587.5
2213.725	580.5
2217.693	577.5
2221.657	576.5
2225.618	575.5
2229.575	584.5
2233.529	560.5
2237.479	580.5
2241.425	564.5
2245.368	551.5
2249.307	552.5
2253.243	539.5
2257.175	540.5
2261.104	528.5
2265.029	514.5
2268.95	515.5
2272.868	505.5
2276.783	495.5
2280.694	497.5
2284.601	490.5
2288.505	490.5
2292.405	476.5
2296.302	472.5
2300.195	469.5
2304.085	462.5
2307.971	456.5
2311.854	458.5
2315.734	436.5
2319.609	432.5
2323.482	426.5
2327.351	418.5
2331.216	420.5
2335.078	413.5
2338.937	411.5
2342.792	401.5
2346.643	403.5
2350.492	405.5
2354.336	402.5
2358.178	404.5
2362.015	402.5
2365.85	408.5
2369.681	408.5
2373.508	412.5
2377.333	413.5
2381.153	407.5
2384.971	415.5
2388.785	418.5
2392.595	407.5
2396.402	396.5
2400.206	409.5
2404.007	400.5
2407.804	388.5
2411.597	392.5
2415.388	394.5
2419.174	393.5
2422.958	389.5
2426.738	390.5
2430.515	388.5
2434.289	390.5
2438.059	381.5
2441.825	386.5
2445.589	379.5
2449.349	384.5
2453.106	375.5
2456.859	367.5
2460.61	369.5
2464.356	367.5
2468.1	356.5
2471.84	364.5
2475.577	367.5
2479.311	362.5
2483.041	358.5
2486.768	367.5
2490.492	353.5
2494.213	363.5
2497.93	355.5
2501.644	361.5
2505.355	356.5
2509.062	356.5
2512.766	359.5
2516.467	358.5
2520.165	352.5
2523.859	353.5
2527.551	346.5
2531.239	358.5
2534.923	342.5
2538.605	340.5
2542.283	339.5
2545.958	330.5
2549.63	341.5
2553.299	338.5
2556.964	330.5
2560.626	332.5
2564.285	328.5
2567.941	326.5
2571.594	328.5
2575.243	322.5
2578.89	315.5
2582.533	315.5
2586.173	314.5
2589.809	309.5
2593.443	315.5
2597.073	308.5
2600.701	297.5
2604.325	318.5
2607.946	305.5
2611.564	306.5
2615.178	301.5
2618.79	299.5
2622.398	296.5
2626.004	294.5
2629.606	295.5
2633.205	282.5
2636.801	277.5
2640.394	285.5
2643.983	283.5
2647.57	275.5
2651.153	268.5
2654.734	275.5
2658.311	262.5
2661.885	270.5
2665.456	270.5
2669.025	268.5
2672.589	259.5
2676.151	261.5
2679.71	252.5
2683.266	264.5
2686.819	253.5
2690.368	254.5
2693.915	252.5
2697.458	258.5
2700.999	248.5
2704.536	246.5
2708.071	238.5
2711.602	244.5
2715.13	237.5
2718.656	238.5
2722.178	237.5
2725.697	233.5
2729.214	241.5
2732.727	248.5
2736.237	241.5
2739.744	245.5
2743.249	251.5
2746.75	239.5
2750.248	248.5
2753.743	230.5
2757.236	236.5
2760.725	238.5
2764.211	232.5
2767.695	243.5
2771.175	229.5
2774.652	230.5
2778.127	232.5
2781.598	230.5
2785.067	228.5
2788.532	234.5
2791.995	228.5
2795.455	229.5
2798.911	234.5
2802.365	227.5
2805.816	234.5
2809.264	226.5
2812.709	233.5
2816.151	233.5
2819.59	241.5
2823.026	235.5
2826.46	235.5
2829.89	234.5
2833.318	239.5
2836.742	244.5
2840.164	239.5
2843.583	240.5
2846.999	245.5
2850.412	239.5
2853.822	240.5
2857.229	247.5
2860.634	251.5
2864.035	256.5
2867.434	259.5
2870.83	266.5
2874.223	257.5
2877.613	267.5
2881	272.5
2884.385	267.5
2887.766	271.5
2891.145	268.5
2894.521	262.5
2897.894	269.5
2901.264	265.5
2904.631	274.5
2907.996	274.5
2911.358	277.5
2914.717	278.5
2918.073	292.5
2921.426	278.5
2924.777	283.5
2928.124	295.5
2931.469	301.5
2934.811	307.5
2938.15	308.5
2941.487	315.5
2944.821	321.5
2948.152	340.5
2951.48	337.5
2954.805	340.5
2958.128	341.5
2961.447	338.5
2964.765	355.5
2968.079	353.5
2971.39	369.5
2974.699	369.5
2978.005	376.5
2981.308	385.5
2984.609	403.5
2987.907	409.5
2991.202	415.5
2994.494	432.5
2997.784	444.5
3001.07	446.5
3004.355	448.5
3007.636	467.5
3010.915	480.5
3014.191	488.5
3017.464	511.5
3020.734	514.5
3024.002	518.5
3027.267	523.5
3030.53	526.5
3033.789	544.5
3037.046	563.5
3040.301	558.5
3043.552	567.5
3046.801	599.5
3050.048	621.5
3053.291	623.5
3056.532	649.5
3059.771	656.5
3063.006	687.5
3066.239	702.5
3069.469	722.5
3072.697	744.5
3075.922	757.5
3079.144	774.5
3082.364	801.5
3085.581	830.5
3088.795	847.5
3092.007	879.5
3095.216	885.5
3098.423	905.5
3101.627	928.5
3104.828	944.5
3108.026	955.5
3111.222	978.5
3114.416	1011.5
3117.607	1031.5
3120.795	1044.5
3123.98	1064.5
3127.163	1094.5
3130.344	1125.5
3133.521	1140.5
3136.696	1167.5
3139.869	1202.5
3143.039	1213.5
3146.206	1226.5
3149.371	1255.5
3152.533	1256.5
3155.693	1283.5
3158.85	1284.5
3162.005	1304.5
3165.157	1285.5
3168.306	1306.5
3171.453	1312.5
3174.597	1316.5
3177.739	1318.5
3180.878	1315.5
3184.014	1339.5
3187.149	1326.5
3190.28	1324.5
3193.409	1333.5
3196.536	1344.5
3199.659	1363.5
3202.781	1360.5
3205.9	1349.5
3209.016	1356.5
3212.13	1369.5
3215.241	1349.5
3218.35	1341.5
3221.456	1349.5
3224.56	1334.5
3227.661	1323.5
3230.76	1304.5
3233.856	1291.5
3236.95	1286.5
3240.041	1268.5
3243.13	1249.5
3246.216	1255.5
3249.3	1224.5
3252.382	1227.5
3255.46	1208.5
3258.537	1207.5
3261.611	1194.5
3264.682	1214.5
3267.751	1195.5
3270.818	1166.5
3273.882	1200.5
3276.943	1177.5
3280.002	1170.5
3283.059	1145.5
3286.113	1149.5
3289.165	1138.5
3292.214	1113.5
3295.261	1099.5
3298.306	1069.5
3301.348	1066.5
3304.387	1051.5
3307.425	1032.5
3310.459	1035.5
3313.492	1008.5
3316.521	989.5
3319.549	986.5
3322.574	964.5
3325.597	978.5
3328.617	970.5
3331.635	946.5
3334.65	943.5
3337.663	938.5
3340.674	935.5
3343.682	927.5
3346.688	923.5
3349.691	935.5
3352.692	904.5
3355.691	922.5
3358.687	920.5
3361.681	913.5
3364.673	892.5
3367.662	892.5
3370.649	878.5
3373.633	859.5
3376.615	855.5
3379.595	844.5
3382.572	825.5
3385.547	816.5
3388.52	794.5
3391.49	793.5
3394.458	777.5
3397.424	772.5
3400.387	772.5
3403.348	768.5
3406.307	740.5
3409.263	730.5
3412.217	721.5
3415.168	722.5
3418.118	718.5
3421.065	719.5
3424.009	700.5
3426.951	687.5
3429.891	686.5
3432.829	666.5
3435.764	665.5
3438.697	653.5
3441.628	620.5
3444.557	617.5
3447.483	595.5
3450.407	578.5
3453.328	574.5
3456.247	545.5
3459.164	531.5
3462.079	518.5
3464.991	504.5
3467.902	488.5
3470.809	477.5
3473.715	457.5
3476.618	446.5
3479.519	431.5
3482.418	422.5
3485.315	415.5
3488.209	394.5
3491.101	388.5
3493.99	374.5
3496.878	367.5
3499.763	357.5
3502.646	337.5
3505.527	334.5
3508.405	318.5
3511.281	309.5
3514.155	290.5
3517.027	275.5
3519.897	271.5
3522.764	261.5
3525.629	239.5
3528.492	242.5
3531.352	226.5
3534.211	203.5
3537.067	197.5
3539.921	184.5
3542.773	165.5
3545.622	158.5
3548.469	146.5
3551.315	147.5
3554.157	128.5
3556.998	127.5
3559.837	123.5
3562.673	113.5
3565.507	110.5
3568.339	92.5
3571.169	85.5
3573.996	83.5
3576.822	77.5
3579.645	73.5
3582.466	70.5
3585.285	66.5
3588.101	55.5
3590.916	45.5
3593.728	51.5
3596.538	37.5
3599.346	36.5
3602.152	31.5
3604.956	26.5
3607.757	18.5
3610.556	13.5
3613.354	5.5
3616.149	10.5
3618.942	9.5
3621.732	5.5
3624.521	-5.5
3627.307	-6.5
3630.092	-12.5
3632.874	-11.5
3635.654	-23.5
3638.432	-17.5
3641.208	-27.5
3643.982	-29.5
3646.753	-36.5
3649.523	-28.5
3652.29	-29.5
3655.055	-31.5
3657.818	-40.5
3660.579	-41.5
3663.338	-40.5
3666.095	-45.5
3668.849	-54.5
3671.602	-57.5
3674.352	-62.5
3677.101	-61.5
3679.847	-57.5
3682.591	-65.5
3685.333	-60.5
3688.073	-67.5
3690.811	-67.5
3693.547	-71.5
3696.281	-72.5
3699.013	-72.5
3701.742	-77.5
3704.47	-77.5
3707.195	-81.5
3709.919	-74.5
3712.64	-77.5
3715.359	-81.5
3718.076	-80.5
3720.792	-80.5
3723.505	-84.5
3726.216	-86.5
3728.925	-89.5
3731.632	-86.5
3734.336	-88.5
3737.039	-90.5
3739.74	-94.5
3742.439	-86.5
3745.136	-89.5
3747.83	-89.5
3750.523	-94.5
3753.213	-95.5
3755.902	-92.5
3758.589	-92.5
3761.273	-94.5
3763.956	-90.5
3766.636	-94.5
3769.315	-92.5
3771.991	-94.5
3774.665	-98.5
3777.338	-99.5
3780.008	-95.5
3782.677	-100.5
3785.343	-104.5
3788.007	-96.5
3790.67	-100.5
3793.33	-97.5
3795.989	-100.5
3798.645	-98.5
3801.299	-98.5
3803.952	-103.5
3806.602	-100.5
3809.251	-101.5
3811.897	-101.5
3814.542	-108.5
3817.184	-101.5
3819.825	-100.5
3822.463	-101.5
3825.1	-98.5
3827.735	-100.5
3830.367	-101.5
3832.998	-104.5
3835.627	-103.5
3838.253	-105.5
3840.878	-107.5
3843.501	-104.5
3846.122	-109.5
3848.741	-104.5
3851.358	-106.5
3853.973	-105.5
3856.586	-100.5
3859.197	-102.5
3861.806	-104.5
3864.414	-105.5
3867.019	-105.5
3869.622	-104.5
3872.224	-108.5
3874.823	-106.5
3877.421	-102.5
3880.016	-96.5
3882.61	-92.5
3885.202	-93.5
3887.792	-96.5
3890.38	-102.5
3892.966	-104.5
3895.55	-112.5
3898.132	-115.5
3900.713	-111.5
3903.291	-110.5
3905.868	-107.5
3908.442	-106.5
3911.015	-108.5
3913.586	-107.5
3916.155	-105.5
3918.722	-106.5
3921.287	-107.5
3923.85	-111.5
3926.411	-114.5
3928.971	-108.5
3931.528	-111.5
3934.084	-113.5
3936.638	-107.5
3939.19	-111.5
3941.74	-109.5
3944.288	-111.5
3946.834	-107.5
3949.378	-111.5
3951.921	-113.5
3954.462	-114.5
3957	-112.5
3959.537	-115.5
3962.072	-106.5
3964.606	-109.5
3967.137	-105.5
3969.667	-109.5
3972.194	-111.5
3974.72	-109.5
3977.244	-111.5
3979.766	-109.5
3982.286	-103.5
3984.805	-110.5
3987.321	-110.5
3989.836	-110.5
3992.349	-109.5
3994.86	-105.5
3997.369	-110.5
3999.877	-112.5
4002.382	-110.5
4004.886	-108.5
4007.388	-107.5
4009.888	-109.5
4012.386	-109.5
4014.883	-107.5
4017.377	-109.5
4019.87	-109.5
4022.361	-113.5
4024.85	-110.5
4027.338	-106.5
4029.823	-108.5
4032.307	-109.5
4034.789	-105.5
4037.269	-106.5
4039.747	-109.5
4042.224	-110.5
4044.699	-110.5
4047.172	-112.5
4049.643	-113.5
4052.112	-115.5
4054.58	-115.5
4057.046	-115.5
4059.51	-114.5
4061.972	-112.5
4064.432	-107.5
4066.891	-108.5
4069.348	-108.5
4071.803	-110.5
4074.256	-115.5
4076.708	-111.5
4079.158	-115.5
4081.606	-115.5
4084.052	-108.5
4086.497	-113.5
4088.939	-109.5
4091.38	-107.5
4093.819	-111.5
4096.257	-116.5
4098.693	-112.5
4101.127	-111.5
4103.559	-116.5
4105.989	-78.5
4108.418	-74.5
4110.845	-73.5
4113.27	-66.5
4115.694	-54.5
4118.115	-45.5
4120.535	-110.5
4122.954	-110.5
4125.37	-112.5
4127.785	-112.5
4130.198	-112.5
4132.609	-114.5
4135.019	-113.5
4137.427	-114.5
4139.833	-113.5
4142.237	-113.5
