Data from 10000CFU1_A_RamanShift_1.txt Node
Date: Tue Jan 31 15:23:34 IST 2017
User: aro
Spectrometer: QEPB0276
Trigger mode: 0
Integration Time (sec): 5.000000E0
Scans to average: 1
Electric dark correction enabled: true
Nonlinearity correction enabled: false
Boxcar width: 0
XAxis mode: Raman Shifts
Number of Pixels in Spectrum: 1044
>>>>>Begin Spectral Data<<<<<
160.701	-35.62
166.742	0.38
172.777	89.38
178.805	405.38
184.826	1098.38
190.841	2247.38
196.849	3507.38
202.85	4321.38
208.845	4502.38
214.833	4392.38
220.815	4225.38
226.789	4089.38
232.758	4003.38
238.719	3861.38
244.674	3749.38
250.623	3567.38
256.565	3414.38
262.5	3263.38
268.429	3110.38
274.351	2997.38
280.267	2878.38
286.176	2810.38
292.079	2675.38
297.975	2607.38
303.865	2545.38
309.748	2454.38
315.625	2417.38
321.495	2384.38
327.359	2303.38
333.217	2275.38
339.068	2279.38
344.912	2261.38
350.751	2257.38
356.583	2238.38
362.408	2242.38
368.227	2256.38
374.04	2256.38
379.847	2286.38
385.647	2271.38
391.44	2277.38
397.228	2290.38
403.009	2309.38
408.784	2314.38
414.553	2324.38
420.315	2344.38
426.071	2333.38
431.821	2329.38
437.565	2346.38
443.302	2320.38
449.033	2347.38
454.758	2313.38
460.477	2297.38
466.189	2290.38
471.896	2328.38
477.596	2272.38
483.29	2259.38
488.978	2276.38
494.66	2265.38
500.335	2229.38
506.005	2200.38
511.668	2138.38
517.325	2114.38
522.977	2077.38
528.622	2041.38
534.261	2045.38
539.894	2026.38
545.521	1996.38
551.141	1998.38
556.756	1970.38
562.365	1972.38
567.968	1957.38
573.565	1927.38
579.155	1926.38
584.74	1921.38
590.319	1897.38
595.892	1910.38
601.459	1911.38
607.02	1856.38
612.575	1883.38
618.124	1854.38
623.667	1812.38
629.204	1825.38
634.735	1804.38
640.261	1794.38
645.781	1773.38
651.294	1772.38
656.802	1751.38
662.304	1749.38
667.8	1745.38
673.29	1733.38
678.775	1743.38
684.254	1720.38
689.726	1722.38
695.193	1708.38
700.655	1722.38
706.11	1714.38
711.56	1701.38
717.004	1688.38
722.442	1665.38
727.874	1668.38
733.301	1658.38
738.722	1653.38
744.137	1639.38
749.547	1613.38
754.951	1631.38
760.349	1615.38
765.741	1628.38
771.128	1645.38
776.509	1623.38
781.885	1652.38
787.254	1636.38
792.618	1632.38
797.977	1628.38
803.33	1598.38
808.677	1599.38
814.019	1580.38
819.355	1580.38
824.686	1553.38
830.011	1547.38
835.33	1541.38
840.644	1517.38
845.952	1526.38
851.255	1519.38
856.552	1508.38
861.844	1512.38
867.13	1488.38
872.41	1486.38
877.686	1481.38
882.955	1478.38
888.219	1444.38
893.478	1435.38
898.731	1410.38
903.979	1387.38
909.221	1392.38
914.458	1375.38
919.69	1375.38
924.916	1354.38
930.136	1340.38
935.351	1352.38
940.561	1348.38
945.766	1343.38
950.965	1350.38
956.158	1333.38
961.347	1336.38
966.529	1312.38
971.707	1309.38
976.879	1296.38
982.046	1268.38
987.208	1254.38
992.364	1251.38
997.515	1265.38
1002.66	1269.38
1007.801	1274.38
1012.936	1291.38
1018.066	1303.38
1023.19	1298.38
1028.309	1318.38
1033.423	1310.38
1038.532	1317.38
1043.636	1303.38
1048.734	1294.38
1053.827	1291.38
1058.915	1278.38
1063.998	1261.38
1069.075	1255.38
1074.147	1258.38
1079.214	1257.38
1084.276	1274.38
1089.333	1272.38
1094.385	1292.38
1099.431	1305.38
1104.472	1307.38
1109.509	1297.38
1114.54	1277.38
1119.565	1277.38
1124.586	1280.38
1129.602	1248.38
1134.613	1237.38
1139.618	1233.38
1144.619	1235.38
1149.614	1231.38
1154.604	1247.38
1159.589	1236.38
1164.57	1246.38
1169.545	1269.38
1174.515	1256.38
1179.48	1272.38
1184.44	1271.38
1189.395	1248.38
1194.345	1246.38
1199.29	1263.38
1204.23	1239.38
1209.165	1257.38
1214.095	1244.38
1219.021	1245.38
1223.941	1248.38
1228.856	1268.38
1233.766	1281.38
1238.672	1256.38
1243.572	1286.38
1248.467	1289.38
1253.358	1269.38
1258.244	1255.38
1263.124	1241.38
1268	1239.38
1272.871	1207.38
1277.737	1199.38
1282.599	1194.38
1287.455	1207.38
1292.306	1187.38
1297.153	1207.38
1301.995	1220.38
1306.832	1232.38
1311.664	1227.38
1316.491	1234.38
1321.314	1241.38
1326.132	1239.38
1330.945	1217.38
1335.753	1211.38
1340.556	1194.38
1345.354	1196.38
1350.148	1162.38
1354.937	1161.38
1359.722	1148.38
1364.501	1138.38
1369.276	1125.38
1374.046	1106.38
1378.811	1113.38
1383.572	1095.38
1388.327	1103.38
1393.079	1112.38
1397.825	1100.38
1402.567	1116.38
1407.304	1095.38
1412.036	1089.38
1416.764	1091.38
1421.487	1080.38
1426.205	1089.38
1430.919	1102.38
1435.628	1105.38
1440.333	1134.38
1445.032	1123.38
1449.727	1135.38
1454.418	1138.38
1459.104	1159.38
1463.785	1146.38
1468.462	1121.38
1473.134	1136.38
1477.802	1127.38
1482.465	1111.38
1487.123	1097.38
1491.777	1109.38
1496.426	1102.38
1501.071	1120.38
1505.711	1120.38
1510.347	1133.38
1514.978	1142.38
1519.604	1144.38
1524.226	1163.38
1528.844	1147.38
1533.457	1161.38
1538.065	1157.38
1542.669	1155.38
1547.269	1140.38
1551.864	1150.38
1556.454	1163.38
1561.041	1157.38
1565.622	1180.38
1570.199	1181.38
1574.772	1197.38
1579.34	1211.38
1583.904	1245.38
1588.464	1261.38
1593.019	1283.38
1597.569	1289.38
1602.115	1314.38
1606.657	1319.38
1611.195	1333.38
1615.728	1342.38
1620.256	1360.38
1624.78	1381.38
1629.3	1384.38
1633.816	1396.38
1638.327	1412.38
1642.834	1443.38
1647.336	1449.38
1651.834	1448.38
1656.328	1461.38
1660.817	1450.38
1665.302	1439.38
1669.783	1412.38
1674.259	1373.38
1678.732	1348.38
1683.199	1305.38
1687.663	1266.38
1692.122	1224.38
1696.577	1171.38
1701.028	1132.38
1705.474	1070.38
1709.917	1032.38
1714.355	1024.38
1718.788	1012.38
1723.218	998.38
1727.643	970.38
1732.064	973.38
1736.481	949.38
1740.893	914.38
1745.301	906.38
1749.705	868.38
1754.105	852.38
1758.501	838.38
1762.893	830.38
1767.28	826.38
1771.663	808.38
1776.042	816.38
1780.417	813.38
1784.787	806.38
1789.154	818.38
1793.516	818.38
1797.874	820.38
1802.228	807.38
1806.578	793.38
1810.924	786.38
1815.266	763.38
1819.603	761.38
1823.937	767.38
1828.266	751.38
1832.591	748.38
1836.913	739.38
1841.23	732.38
1845.543	741.38
1849.852	733.38
1854.156	730.38
1858.457	742.38
1862.754	752.38
1867.047	750.38
1871.335	753.38
1875.62	762.38
1879.9	769.38
1884.177	754.38
1888.449	769.38
1892.718	766.38
1896.982	764.38
1901.243	768.38
1905.499	749.38
1909.752	742.38
1914	751.38
1918.245	740.38
1922.485	756.38
1926.722	748.38
1930.954	749.38
1935.183	759.38
1939.408	761.38
1943.628	750.38
1947.845	763.38
1952.058	765.38
1956.267	752.38
1960.472	737.38
1964.673	744.38
1968.87	736.38
1973.063	717.38
1977.252	710.38
1981.438	719.38
1985.619	723.38
1989.797	705.38
1993.971	710.38
1998.14	702.38
2002.306	718.38
2006.469	714.38
2010.627	712.38
2014.781	728.38
2018.932	727.38
2023.078	730.38
2027.221	733.38
2031.36	721.38
2035.495	721.38
2039.627	704.38
2043.754	700.38
2047.878	697.38
2051.998	699.38
2056.114	708.38
2060.226	706.38
2064.334	718.38
2068.439	726.38
2072.54	726.38
2076.637	725.38
2080.73	722.38
2084.82	731.38
2088.906	729.38
2092.988	725.38
2097.066	723.38
2101.14	721.38
2105.211	710.38
2109.278	715.38
2113.342	716.38
2117.401	707.38
2121.457	700.38
2125.509	694.38
2129.558	692.38
2133.602	684.38
2137.643	677.38
2141.681	674.38
2145.714	691.38
2149.744	678.38
2153.77	671.38
2157.793	668.38
2161.812	670.38
2165.827	662.38
2169.838	649.38
2173.846	656.38
2177.851	624.38
2181.851	611.38
2185.848	626.38
2189.841	613.38
2193.831	604.38
2197.817	598.38
2201.799	602.38
2205.778	594.38
2209.753	586.38
2213.725	594.38
2217.693	598.38
2221.657	598.38
2225.618	599.38
2229.575	592.38
2233.529	584.38
2237.479	589.38
2241.425	591.38
2245.368	576.38
2249.307	567.38
2253.243	550.38
2257.175	551.38
2261.104	536.38
2265.029	545.38
2268.95	529.38
2272.868	520.38
2276.783	512.38
2280.694	497.38
2284.601	511.38
2288.505	499.38
2292.405	496.38
2296.302	487.38
2300.195	473.38
2304.085	475.38
2307.971	465.38
2311.854	470.38
2315.734	447.38
2319.609	446.38
2323.482	440.38
2327.351	440.38
2331.216	437.38
2335.078	423.38
2338.937	430.38
2342.792	436.38
2346.643	429.38
2350.492	428.38
2354.336	410.38
2358.178	422.38
2362.015	410.38
2365.85	431.38
2369.681	432.38
2373.508	428.38
2377.333	426.38
2381.153	420.38
2384.971	429.38
2388.785	423.38
2392.595	427.38
2396.402	427.38
2400.206	412.38
2404.007	418.38
2407.804	408.38
2411.597	410.38
2415.388	404.38
2419.174	415.38
2422.958	400.38
2426.738	400.38
2430.515	400.38
2434.289	399.38
2438.059	390.38
2441.825	406.38
2445.589	398.38
2449.349	404.38
2453.106	390.38
2456.859	392.38
2460.61	383.38
2464.356	385.38
2468.1	373.38
2471.84	379.38
2475.577	380.38
2479.311	378.38
2483.041	376.38
2486.768	383.38
2490.492	370.38
2494.213	380.38
2497.93	375.38
2501.644	381.38
2505.355	370.38
2509.062	372.38
2512.766	368.38
2516.467	372.38
2520.165	364.38
2523.859	371.38
2527.551	370.38
2531.239	358.38
2534.923	359.38
2538.605	355.38
2542.283	344.38
2545.958	341.38
2549.63	347.38
2553.299	348.38
2556.964	334.38
2560.626	345.38
2564.285	342.38
2567.941	333.38
2571.594	337.38
2575.243	338.38
2578.89	331.38
2582.533	325.38
2586.173	325.38
2589.809	320.38
2593.443	322.38
2597.073	320.38
2600.701	319.38
2604.325	320.38
2607.946	317.38
2611.564	322.38
2615.178	316.38
2618.79	316.38
2622.398	311.38
2626.004	305.38
2629.606	300.38
2633.205	299.38
2636.801	298.38
2640.394	293.38
2643.983	299.38
2647.57	296.38
2651.153	292.38
2654.734	279.38
2658.311	285.38
2661.885	291.38
2665.456	279.38
2669.025	281.38
2672.589	269.38
2676.151	271.38
2679.71	261.38
2683.266	265.38
2686.819	271.38
2690.368	269.38
2693.915	264.38
2697.458	262.38
2700.999	257.38
2704.536	250.38
2708.071	249.38
2711.602	254.38
2715.13	250.38
2718.656	255.38
2722.178	241.38
2725.697	249.38
2729.214	251.38
2732.727	254.38
2736.237	257.38
2739.744	249.38
2743.249	260.38
2746.75	253.38
2750.248	258.38
2753.743	248.38
2757.236	239.38
2760.725	250.38
2764.211	239.38
2767.695	256.38
2771.175	235.38
2774.652	237.38
2778.127	238.38
2781.598	238.38
2785.067	233.38
2788.532	235.38
2791.995	238.38
2795.455	240.38
2798.911	244.38
2802.365	237.38
2805.816	251.38
2809.264	248.38
2812.709	256.38
2816.151	248.38
2819.59	254.38
2823.026	244.38
2826.46	250.38
2829.89	237.38
2833.318	249.38
2836.742	244.38
2840.164	246.38
2843.583	245.38
2846.999	248.38
2850.412	260.38
2853.822	259.38
2857.229	255.38
2860.634	258.38
2864.035	271.38
2867.434	264.38
2870.83	276.38
2874.223	278.38
2877.613	281.38
2881	269.38
2884.385	275.38
2887.766	276.38
2891.145	275.38
2894.521	269.38
2897.894	278.38
2901.264	274.38
2904.631	280.38
2907.996	280.38
2911.358	284.38
2914.717	279.38
2918.073	285.38
2921.426	293.38
2924.777	292.38
2928.124	297.38
2931.469	311.38
2934.811	309.38
2938.15	313.38
2941.487	315.38
2944.821	332.38
2948.152	334.38
2951.48	329.38
2954.805	344.38
2958.128	341.38
2961.447	344.38
2964.765	356.38
2968.079	361.38
2971.39	370.38
2974.699	373.38
2978.005	378.38
2981.308	380.38
2984.609	397.38
2987.907	402.38
2991.202	414.38
2994.494	418.38
2997.784	447.38
3001.07	453.38
3004.355	458.38
3007.636	469.38
3010.915	473.38
3014.191	486.38
3017.464	509.38
3020.734	494.38
3024.002	510.38
3027.267	523.38
3030.53	535.38
3033.789	546.38
3037.046	560.38
3040.301	552.38
3043.552	575.38
3046.801	578.38
3050.048	609.38
3053.291	617.38
3056.532	636.38
3059.771	641.38
3063.006	674.38
3066.239	696.38
3069.469	725.38
3072.697	737.38
3075.922	756.38
3079.144	782.38
3082.364	787.38
3085.581	812.38
3088.795	823.38
3092.007	841.38
3095.216	889.38
3098.423	886.38
3101.627	909.38
3104.828	926.38
3108.026	948.38
3111.222	968.38
3114.416	984.38
3117.607	1011.38
3120.795	1025.38
3123.98	1044.38
3127.163	1067.38
3130.344	1100.38
3133.521	1121.38
3136.696	1147.38
3139.869	1175.38
3143.039	1189.38
3146.206	1207.38
3149.371	1210.38
3152.533	1251.38
3155.693	1236.38
3158.85	1247.38
3162.005	1269.38
3165.157	1273.38
3168.306	1271.38
3171.453	1265.38
3174.597	1291.38
3177.739	1282.38
3180.878	1289.38
3184.014	1300.38
3187.149	1294.38
3190.28	1308.38
3193.409	1300.38
3196.536	1306.38
3199.659	1323.38
3202.781	1324.38
3205.9	1323.38
3209.016	1334.38
3212.13	1340.38
3215.241	1332.38
3218.35	1321.38
3221.456	1308.38
3224.56	1302.38
3227.661	1293.38
3230.76	1292.38
3233.856	1271.38
3236.95	1267.38
3240.041	1249.38
3243.13	1218.38
3246.216	1207.38
3249.3	1195.38
3252.382	1188.38
3255.46	1176.38
3258.537	1191.38
3261.611	1172.38
3264.682	1171.38
3267.751	1157.38
3270.818	1161.38
3273.882	1168.38
3276.943	1156.38
3280.002	1120.38
3283.059	1131.38
3286.113	1096.38
3289.165	1104.38
3292.214	1078.38
3295.261	1077.38
3298.306	1056.38
3301.348	1047.38
3304.387	1020.38
3307.425	998.38
3310.459	1004.38
3313.492	992.38
3316.521	980.38
3319.549	960.38
3322.574	958.38
3325.597	940.38
3328.617	932.38
3331.635	943.38
3334.65	941.38
3337.663	927.38
3340.674	920.38
3343.682	931.38
3346.688	922.38
3349.691	914.38
3352.692	903.38
3355.691	898.38
3358.687	894.38
3361.681	889.38
3364.673	880.38
3367.662	878.38
3370.649	864.38
3373.633	850.38
3376.615	838.38
3379.595	821.38
3382.572	811.38
3385.547	795.38
3388.52	790.38
3391.49	774.38
3394.458	769.38
3397.424	759.38
3400.387	759.38
3403.348	732.38
3406.307	729.38
3409.263	716.38
3412.217	724.38
3415.168	704.38
3418.118	683.38
3421.065	708.38
3424.009	686.38
3426.951	669.38
3429.891	655.38
3432.829	661.38
3435.764	649.38
3438.697	620.38
3441.628	620.38
3444.557	594.38
3447.483	579.38
3450.407	564.38
3453.328	558.38
3456.247	538.38
3459.164	526.38
3462.079	513.38
3464.991	494.38
3467.902	476.38
3470.809	465.38
3473.715	449.38
3476.618	416.38
3479.519	422.38
3482.418	413.38
3485.315	398.38
3488.209	385.38
3491.101	373.38
3493.99	364.38
3496.878	358.38
3499.763	348.38
3502.646	328.38
3505.527	327.38
3508.405	307.38
3511.281	289.38
3514.155	280.38
3517.027	276.38
3519.897	257.38
3522.764	252.38
3525.629	241.38
3528.492	228.38
3531.352	219.38
3534.211	205.38
3537.067	186.38
3539.921	178.38
3542.773	176.38
3545.622	154.38
3548.469	150.38
3551.315	144.38
3554.157	134.38
3556.998	123.38
3559.837	121.38
3562.673	111.38
3565.507	106.38
3568.339	92.38
3571.169	87.38
3573.996	81.38
3576.822	83.38
3579.645	73.38
3582.466	65.38
3585.285	69.38
3588.101	53.38
3590.916	48.38
3593.728	45.38
3596.538	41.38
3599.346	31.38
3602.152	32.38
3604.956	20.38
3607.757	17.38
3610.556	13.38
3613.354	6.38
3616.149	7.38
3618.942	3.38
3621.732	-6.62
3624.521	-5.62
3627.307	-5.62
3630.092	-12.62
3632.874	-13.62
3635.654	-25.62
3638.432	-20.62
3641.208	-26.62
3643.982	-24.62
3646.753	-33.62
3649.523	-30.62
3652.29	-35.62
3655.055	-39.62
3657.818	-37.62
3660.579	-42.62
3663.338	-46.62
3666.095	-50.62
3668.849	-54.62
3671.602	-49.62
3674.352	-57.62
3677.101	-56.62
3679.847	-59.62
3682.591	-65.62
3685.333	-65.62
3688.073	-68.62
3690.811	-68.62
3693.547	-64.62
3696.281	-66.62
3699.013	-71.62
3701.742	-77.62
3704.47	-77.62
3707.195	-81.62
3709.919	-78.62
3712.64	-80.62
3715.359	-84.62
3718.076	-81.62
3720.792	-76.62
3723.505	-80.62
3726.216	-79.62
3728.925	-85.62
3731.632	-86.62
3734.336	-83.62
3737.039	-96.62
3739.74	-95.62
3742.439	-90.62
3745.136	-93.62
3747.83	-89.62
3750.523	-88.62
3753.213	-92.62
3755.902	-92.62
3758.589	-89.62
3761.273	-90.62
3763.956	-92.62
3766.636	-96.62
3769.315	-97.62
3771.991	-95.62
3774.665	-96.62
3777.338	-95.62
3780.008	-97.62
3782.677	-95.62
3785.343	-101.62
3788.007	-96.62
3790.67	-96.62
3793.33	-97.62
3795.989	-102.62
3798.645	-99.62
3801.299	-100.62
3803.952	-105.62
3806.602	-99.62
3809.251	-99.62
3811.897	-101.62
3814.542	-102.62
3817.184	-99.62
3819.825	-99.62
3822.463	-100.62
3825.1	-101.62
3827.735	-103.62
3830.367	-100.62
3832.998	-104.62
3835.627	-103.62
3838.253	-104.62
3840.878	-104.62
3843.501	-102.62
3846.122	-104.62
3848.741	-98.62
3851.358	-105.62
3853.973	-104.62
3856.586	-101.62
3859.197	-102.62
3861.806	-104.62
3864.414	-107.62
3867.019	-106.62
3869.622	-104.62
3872.224	-107.62
3874.823	-102.62
3877.421	-99.62
3880.016	-98.62
3882.61	-95.62
3885.202	-98.62
3887.792	-97.62
3890.38	-101.62
3892.966	-104.62
3895.55	-111.62
3898.132	-112.62
3900.713	-105.62
3903.291	-109.62
3905.868	-103.62
3908.442	-107.62
3911.015	-106.62
3913.586	-107.62
3916.155	-107.62
3918.722	-110.62
3921.287	-109.62
3923.85	-114.62
3926.411	-113.62
3928.971	-107.62
3931.528	-109.62
3934.084	-108.62
3936.638	-105.62
3939.19	-107.62
3941.74	-108.62
3944.288	-113.62
3946.834	-106.62
3949.378	-111.62
3951.921	-110.62
3954.462	-110.62
3957	-108.62
3959.537	-107.62
3962.072	-105.62
3964.606	-112.62
3967.137	-102.62
3969.667	-107.62
3972.194	-109.62
3974.72	-108.62
3977.244	-108.62
3979.766	-108.62
3982.286	-102.62
3984.805	-105.62
3987.321	-106.62
3989.836	-110.62
3992.349	-111.62
3994.86	-104.62
3997.369	-108.62
3999.877	-113.62
4002.382	-107.62
4004.886	-105.62
4007.388	-105.62
4009.888	-108.62
4012.386	-108.62
4014.883	-110.62
4017.377	-108.62
4019.87	-107.62
4022.361	-113.62
4024.85	-110.62
4027.338	-107.62
4029.823	-108.62
4032.307	-108.62
4034.789	-106.62
4037.269	-107.62
4039.747	-108.62
4042.224	-111.62
4044.699	-114.62
4047.172	-110.62
4049.643	-111.62
4052.112	-111.62
4054.58	-111.62
4057.046	-113.62
4059.51	-113.62
4061.972	-110.62
4064.432	-110.62
4066.891	-111.62
4069.348	-107.62
4071.803	-108.62
4074.256	-111.62
4076.708	-110.62
4079.158	-110.62
4081.606	-110.62
4084.052	-108.62
4086.497	-109.62
4088.939	-111.62
4091.38	-111.62
4093.819	-109.62
4096.257	-115.62
4098.693	-113.62
4101.127	-110.62
4103.559	-112.62
4105.989	-74.62
4108.418	-66.62
4110.845	-66.62
4113.27	-65.62
4115.694	-56.62
4118.115	-48.62
4120.535	-106.62
4122.954	-110.62
4125.37	-110.62
4127.785	-111.62
4130.198	-108.62
4132.609	-112.62
4135.019	-116.62
4137.427	-113.62
4139.833	-115.62
4142.237	-113.62
