Data from 1000000CFU1_B_RamanShift_1.txt Node
Date: Tue Jan 31 14:41:02 IST 2017
User: aro
Spectrometer: QEPB0276
Trigger mode: 0
Integration Time (sec): 5.000000E0
Scans to average: 1
Electric dark correction enabled: true
Nonlinearity correction enabled: false
Boxcar width: 0
XAxis mode: Raman Shifts
Number of Pixels in Spectrum: 1044
>>>>>Begin Spectral Data<<<<<
160.701	-35.5
166.742	1.5
172.777	89.5
178.805	389.5
184.826	1080.5
190.841	2229.5
196.849	3474.5
202.85	4266.5
208.845	4449.5
214.833	4308.5
220.815	4168.5
226.789	4023.5
232.758	3952.5
238.719	3805.5
244.674	3679.5
250.623	3507.5
256.565	3354.5
262.5	3193.5
268.429	3076.5
274.351	2942.5
280.267	2844.5
286.176	2728.5
292.079	2625.5
297.975	2557.5
303.865	2459.5
309.748	2404.5
315.625	2338.5
321.495	2294.5
327.359	2268.5
333.217	2237.5
339.068	2219.5
344.912	2201.5
350.751	2205.5
356.583	2197.5
362.408	2219.5
368.227	2201.5
374.04	2214.5
379.847	2243.5
385.647	2231.5
391.44	2242.5
397.228	2274.5
403.009	2272.5
408.784	2294.5
414.553	2273.5
420.315	2277.5
426.071	2282.5
431.821	2293.5
437.565	2283.5
443.302	2266.5
449.033	2279.5
454.758	2273.5
460.477	2245.5
466.189	2249.5
471.896	2230.5
477.596	2206.5
483.29	2217.5
488.978	2213.5
494.66	2205.5
500.335	2168.5
506.005	2125.5
511.668	2080.5
517.325	2068.5
522.977	2006.5
528.622	2001.5
534.261	1979.5
539.894	1964.5
545.521	1927.5
551.141	1935.5
556.756	1909.5
562.365	1903.5
567.968	1903.5
573.565	1862.5
579.155	1868.5
584.74	1854.5
590.319	1854.5
595.892	1825.5
601.459	1821.5
607.02	1818.5
612.575	1797.5
618.124	1779.5
623.667	1765.5
629.204	1747.5
634.735	1735.5
640.261	1734.5
645.781	1739.5
651.294	1701.5
656.802	1702.5
662.304	1681.5
667.8	1668.5
673.29	1662.5
678.775	1673.5
684.254	1668.5
689.726	1677.5
695.193	1653.5
700.655	1639.5
706.11	1625.5
711.56	1628.5
717.004	1607.5
722.442	1608.5
727.874	1599.5
733.301	1566.5
738.722	1560.5
744.137	1562.5
749.547	1558.5
754.951	1562.5
760.349	1554.5
765.741	1550.5
771.128	1558.5
776.509	1556.5
781.885	1560.5
787.254	1552.5
792.618	1552.5
797.977	1533.5
803.33	1534.5
808.677	1527.5
814.019	1516.5
819.355	1498.5
824.686	1493.5
830.011	1461.5
835.33	1448.5
840.644	1446.5
845.952	1437.5
851.255	1416.5
856.552	1431.5
861.844	1415.5
867.13	1416.5
872.41	1417.5
877.686	1385.5
882.955	1377.5
888.219	1364.5
893.478	1372.5
898.731	1325.5
903.979	1313.5
909.221	1296.5
914.458	1269.5
919.69	1257.5
924.916	1263.5
930.136	1269.5
935.351	1264.5
940.561	1273.5
945.766	1272.5
950.965	1257.5
956.158	1255.5
961.347	1243.5
966.529	1234.5
971.707	1218.5
976.879	1205.5
982.046	1181.5
987.208	1183.5
992.364	1181.5
997.515	1173.5
1002.66	1187.5
1007.801	1195.5
1012.936	1199.5
1018.066	1211.5
1023.19	1226.5
1028.309	1224.5
1033.423	1219.5
1038.532	1226.5
1043.636	1221.5
1048.734	1215.5
1053.827	1200.5
1058.915	1175.5
1063.998	1168.5
1069.075	1163.5
1074.147	1181.5
1079.214	1176.5
1084.276	1188.5
1089.333	1181.5
1094.385	1181.5
1099.431	1198.5
1104.472	1209.5
1109.509	1203.5
1114.54	1197.5
1119.565	1186.5
1124.586	1188.5
1129.602	1177.5
1134.613	1146.5
1139.618	1145.5
1144.619	1147.5
1149.614	1147.5
1154.604	1154.5
1159.589	1154.5
1164.57	1167.5
1169.545	1189.5
1174.515	1166.5
1179.48	1171.5
1184.44	1174.5
1189.395	1170.5
1194.345	1163.5
1199.29	1155.5
1204.23	1155.5
1209.165	1165.5
1214.095	1158.5
1219.021	1175.5
1223.941	1167.5
1228.856	1175.5
1233.766	1179.5
1238.672	1197.5
1243.572	1202.5
1248.467	1198.5
1253.358	1189.5
1258.244	1163.5
1263.124	1143.5
1268	1130.5
1272.871	1127.5
1277.737	1106.5
1282.599	1109.5
1287.455	1116.5
1292.306	1115.5
1297.153	1109.5
1301.995	1130.5
1306.832	1137.5
1311.664	1146.5
1316.491	1146.5
1321.314	1152.5
1326.132	1142.5
1330.945	1133.5
1335.753	1129.5
1340.556	1108.5
1345.354	1110.5
1350.148	1092.5
1354.937	1083.5
1359.722	1058.5
1364.501	1046.5
1369.276	1045.5
1374.046	1038.5
1378.811	1028.5
1383.572	1027.5
1388.327	1031.5
1393.079	1034.5
1397.825	1034.5
1402.567	1026.5
1407.304	1012.5
1412.036	1014.5
1416.764	1001.5
1421.487	1020.5
1426.205	1019.5
1430.919	1020.5
1435.628	1032.5
1440.333	1048.5
1445.032	1053.5
1449.727	1062.5
1454.418	1061.5
1459.104	1076.5
1463.785	1060.5
1468.462	1065.5
1473.134	1050.5
1477.802	1052.5
1482.465	1041.5
1487.123	1032.5
1491.777	1034.5
1496.426	1035.5
1501.071	1048.5
1505.711	1059.5
1510.347	1079.5
1514.978	1075.5
1519.604	1078.5
1524.226	1076.5
1528.844	1090.5
1533.457	1094.5
1538.065	1082.5
1542.669	1082.5
1547.269	1071.5
1551.864	1095.5
1556.454	1095.5
1561.041	1088.5
1565.622	1111.5
1570.199	1128.5
1574.772	1135.5
1579.34	1166.5
1583.904	1180.5
1588.464	1189.5
1593.019	1213.5
1597.569	1230.5
1602.115	1250.5
1606.657	1274.5
1611.195	1271.5
1615.728	1300.5
1620.256	1308.5
1624.78	1309.5
1629.3	1344.5
1633.816	1353.5
1638.327	1360.5
1642.834	1379.5
1647.336	1384.5
1651.834	1402.5
1656.328	1395.5
1660.817	1381.5
1665.302	1385.5
1669.783	1357.5
1674.259	1320.5
1678.732	1287.5
1683.199	1243.5
1687.663	1216.5
1692.122	1158.5
1696.577	1116.5
1701.028	1058.5
1705.474	1026.5
1709.917	983.5
1714.355	984.5
1718.788	961.5
1723.218	945.5
1727.643	926.5
1732.064	913.5
1736.481	900.5
1740.893	886.5
1745.301	853.5
1749.705	840.5
1754.105	797.5
1758.501	791.5
1762.893	782.5
1767.28	768.5
1771.663	764.5
1776.042	772.5
1780.417	759.5
1784.787	749.5
1789.154	758.5
1793.516	765.5
1797.874	771.5
1802.228	768.5
1806.578	738.5
1810.924	750.5
1815.266	729.5
1819.603	717.5
1823.937	720.5
1828.266	707.5
1832.591	709.5
1836.913	699.5
1841.23	700.5
1845.543	692.5
1849.852	705.5
1854.156	694.5
1858.457	706.5
1862.754	694.5
1867.047	699.5
1871.335	712.5
1875.62	712.5
1879.9	727.5
1884.177	720.5
1888.449	720.5
1892.718	709.5
1896.982	702.5
1901.243	716.5
1905.499	700.5
1909.752	696.5
1914	700.5
1918.245	697.5
1922.485	701.5
1926.722	710.5
1930.954	705.5
1935.183	707.5
1939.408	717.5
1943.628	714.5
1947.845	715.5
1952.058	712.5
1956.267	712.5
1960.472	701.5
1964.673	698.5
1968.87	695.5
1973.063	685.5
1977.252	683.5
1981.438	663.5
1985.619	672.5
1989.797	677.5
1993.971	666.5
1998.14	669.5
2002.306	664.5
2006.469	681.5
2010.627	685.5
2014.781	690.5
2018.932	697.5
2023.078	685.5
2027.221	688.5
2031.36	684.5
2035.495	675.5
2039.627	671.5
2043.754	669.5
2047.878	672.5
2051.998	670.5
2056.114	678.5
2060.226	669.5
2064.334	677.5
2068.439	681.5
2072.54	677.5
2076.637	682.5
2080.73	687.5
2084.82	688.5
2088.906	687.5
2092.988	688.5
2097.066	691.5
2101.14	698.5
2105.211	683.5
2109.278	680.5
2113.342	664.5
2117.401	667.5
2121.457	670.5
2125.509	660.5
2129.558	647.5
2133.602	655.5
2137.643	636.5
2141.681	654.5
2145.714	652.5
2149.744	641.5
2153.77	639.5
2157.793	627.5
2161.812	630.5
2165.827	634.5
2169.838	628.5
2173.846	621.5
2177.851	601.5
2181.851	595.5
2185.848	587.5
2189.841	577.5
2193.831	581.5
2197.817	571.5
2201.799	575.5
2205.778	574.5
2209.753	563.5
2213.725	572.5
2217.693	572.5
2221.657	559.5
2225.618	576.5
2229.575	573.5
2233.529	550.5
2237.479	561.5
2241.425	556.5
2245.368	550.5
2249.307	539.5
2253.243	539.5
2257.175	519.5
2261.104	520.5
2265.029	518.5
2268.95	504.5
2272.868	498.5
2276.783	481.5
2280.694	483.5
2284.601	480.5
2288.505	479.5
2292.405	466.5
2296.302	460.5
2300.195	461.5
2304.085	454.5
2307.971	446.5
2311.854	449.5
2315.734	441.5
2319.609	431.5
2323.482	420.5
2327.351	420.5
2331.216	412.5
2335.078	402.5
2338.937	400.5
2342.792	411.5
2346.643	413.5
2350.492	403.5
2354.336	403.5
2358.178	399.5
2362.015	402.5
2365.85	405.5
2369.681	403.5
2373.508	402.5
2377.333	405.5
2381.153	404.5
2384.971	409.5
2388.785	409.5
2392.595	396.5
2396.402	391.5
2400.206	396.5
2404.007	405.5
2407.804	396.5
2411.597	391.5
2415.388	386.5
2419.174	395.5
2422.958	387.5
2426.738	382.5
2430.515	387.5
2434.289	380.5
2438.059	384.5
2441.825	380.5
2445.589	374.5
2449.349	377.5
2453.106	368.5
2456.859	368.5
2460.61	375.5
2464.356	356.5
2468.1	346.5
2471.84	352.5
2475.577	355.5
2479.311	375.5
2483.041	359.5
2486.768	345.5
2490.492	361.5
2494.213	357.5
2497.93	356.5
2501.644	359.5
2505.355	338.5
2509.062	344.5
2512.766	354.5
2516.467	350.5
2520.165	340.5
2523.859	352.5
2527.551	352.5
2531.239	342.5
2534.923	352.5
2538.605	347.5
2542.283	335.5
2545.958	334.5
2549.63	321.5
2553.299	331.5
2556.964	319.5
2560.626	334.5
2564.285	317.5
2567.941	321.5
2571.594	321.5
2575.243	319.5
2578.89	313.5
2582.533	315.5
2586.173	312.5
2589.809	312.5
2593.443	303.5
2597.073	292.5
2600.701	298.5
2604.325	303.5
2607.946	298.5
2611.564	300.5
2615.178	308.5
2618.79	292.5
2622.398	290.5
2626.004	282.5
2629.606	286.5
2633.205	285.5
2636.801	277.5
2640.394	285.5
2643.983	281.5
2647.57	285.5
2651.153	274.5
2654.734	269.5
2658.311	273.5
2661.885	271.5
2665.456	267.5
2669.025	262.5
2672.589	255.5
2676.151	254.5
2679.71	248.5
2683.266	263.5
2686.819	254.5
2690.368	249.5
2693.915	240.5
2697.458	243.5
2700.999	243.5
2704.536	242.5
2708.071	237.5
2711.602	235.5
2715.13	238.5
2718.656	232.5
2722.178	227.5
2725.697	234.5
2729.214	230.5
2732.727	227.5
2736.237	240.5
2739.744	236.5
2743.249	243.5
2746.75	242.5
2750.248	239.5
2753.743	237.5
2757.236	229.5
2760.725	225.5
2764.211	236.5
2767.695	224.5
2771.175	222.5
2774.652	223.5
2778.127	225.5
2781.598	219.5
2785.067	225.5
2788.532	223.5
2791.995	229.5
2795.455	217.5
2798.911	220.5
2802.365	226.5
2805.816	227.5
2809.264	230.5
2812.709	234.5
2816.151	235.5
2819.59	234.5
2823.026	229.5
2826.46	237.5
2829.89	238.5
2833.318	237.5
2836.742	226.5
2840.164	236.5
2843.583	233.5
2846.999	237.5
2850.412	236.5
2853.822	234.5
2857.229	236.5
2860.634	246.5
2864.035	255.5
2867.434	257.5
2870.83	264.5
2874.223	252.5
2877.613	254.5
2881	266.5
2884.385	264.5
2887.766	267.5
2891.145	257.5
2894.521	255.5
2897.894	255.5
2901.264	262.5
2904.631	264.5
2907.996	271.5
2911.358	269.5
2914.717	272.5
2918.073	282.5
2921.426	275.5
2924.777	280.5
2928.124	290.5
2931.469	288.5
2934.811	301.5
2938.15	296.5
2941.487	304.5
2944.821	321.5
2948.152	325.5
2951.48	324.5
2954.805	334.5
2958.128	329.5
2961.447	331.5
2964.765	341.5
2968.079	338.5
2971.39	351.5
2974.699	356.5
2978.005	371.5
2981.308	376.5
2984.609	382.5
2987.907	388.5
2991.202	406.5
2994.494	414.5
2997.784	418.5
3001.07	421.5
3004.355	445.5
3007.636	457.5
3010.915	459.5
3014.191	471.5
3017.464	481.5
3020.734	496.5
3024.002	512.5
3027.267	516.5
3030.53	515.5
3033.789	531.5
3037.046	534.5
3040.301	537.5
3043.552	561.5
3046.801	569.5
3050.048	582.5
3053.291	614.5
3056.532	629.5
3059.771	639.5
3063.006	654.5
3066.239	682.5
3069.469	709.5
3072.697	726.5
3075.922	739.5
3079.144	768.5
3082.364	794.5
3085.581	796.5
3088.795	829.5
3092.007	835.5
3095.216	864.5
3098.423	878.5
3101.627	897.5
3104.828	912.5
3108.026	928.5
3111.222	935.5
3114.416	959.5
3117.607	988.5
3120.795	1031.5
3123.98	1051.5
3127.163	1084.5
3130.344	1076.5
3133.521	1121.5
3136.696	1130.5
3139.869	1150.5
3143.039	1179.5
3146.206	1199.5
3149.371	1215.5
3152.533	1221.5
3155.693	1240.5
3158.85	1242.5
3162.005	1253.5
3165.157	1266.5
3168.306	1261.5
3171.453	1275.5
3174.597	1269.5
3177.739	1276.5
3180.878	1289.5
3184.014	1294.5
3187.149	1286.5
3190.28	1293.5
3193.409	1303.5
3196.536	1320.5
3199.659	1294.5
3202.781	1314.5
3205.9	1324.5
3209.016	1325.5
3212.13	1308.5
3215.241	1318.5
3218.35	1319.5
3221.456	1301.5
3224.56	1284.5
3227.661	1277.5
3230.76	1274.5
3233.856	1258.5
3236.95	1245.5
3240.041	1229.5
3243.13	1231.5
3246.216	1202.5
3249.3	1195.5
3252.382	1175.5
3255.46	1185.5
3258.537	1160.5
3261.611	1162.5
3264.682	1170.5
3267.751	1156.5
3270.818	1132.5
3273.882	1139.5
3276.943	1144.5
3280.002	1116.5
3283.059	1111.5
3286.113	1095.5
3289.165	1097.5
3292.214	1095.5
3295.261	1073.5
3298.306	1053.5
3301.348	1046.5
3304.387	1024.5
3307.425	1012.5
3310.459	1000.5
3313.492	996.5
3316.521	978.5
3319.549	954.5
3322.574	949.5
3325.597	947.5
3328.617	947.5
3331.635	934.5
3334.65	924.5
3337.663	925.5
3340.674	924.5
3343.682	913.5
3346.688	912.5
3349.691	905.5
3352.692	907.5
3355.691	884.5
3358.687	894.5
3361.681	886.5
3364.673	874.5
3367.662	870.5
3370.649	865.5
3373.633	854.5
3376.615	842.5
3379.595	829.5
3382.572	812.5
3385.547	802.5
3388.52	809.5
3391.49	777.5
3394.458	774.5
3397.424	762.5
3400.387	751.5
3403.348	744.5
3406.307	746.5
3409.263	724.5
3412.217	710.5
3415.168	704.5
3418.118	707.5
3421.065	690.5
3424.009	687.5
3426.951	679.5
3429.891	663.5
3432.829	658.5
3435.764	651.5
3438.697	626.5
3441.628	619.5
3444.557	599.5
3447.483	589.5
3450.407	581.5
3453.328	561.5
3456.247	537.5
3459.164	525.5
3462.079	510.5
3464.991	501.5
3467.902	474.5
3470.809	470.5
3473.715	452.5
3476.618	434.5
3479.519	426.5
3482.418	421.5
3485.315	400.5
3488.209	385.5
3491.101	376.5
3493.99	364.5
3496.878	350.5
3499.763	346.5
3502.646	333.5
3505.527	325.5
3508.405	313.5
3511.281	304.5
3514.155	292.5
3517.027	272.5
3519.897	259.5
3522.764	243.5
3525.629	234.5
3528.492	224.5
3531.352	218.5
3534.211	203.5
3537.067	187.5
3539.921	184.5
3542.773	173.5
3545.622	160.5
3548.469	153.5
3551.315	141.5
3554.157	131.5
3556.998	122.5
3559.837	124.5
3562.673	120.5
3565.507	102.5
3568.339	100.5
3571.169	90.5
3573.996	77.5
3576.822	83.5
3579.645	77.5
3582.466	68.5
3585.285	61.5
3588.101	51.5
3590.916	50.5
3593.728	38.5
3596.538	34.5
3599.346	34.5
3602.152	29.5
3604.956	22.5
3607.757	17.5
3610.556	12.5
3613.354	11.5
3616.149	11.5
3618.942	7.5
3621.732	2.5
3624.521	2.5
3627.307	-6.5
3630.092	-8.5
3632.874	-16.5
3635.654	-21.5
3638.432	-16.5
3641.208	-23.5
3643.982	-26.5
3646.753	-28.5
3649.523	-31.5
3652.29	-34.5
3655.055	-32.5
3657.818	-39.5
3660.579	-43.5
3663.338	-37.5
3666.095	-49.5
3668.849	-53.5
3671.602	-52.5
3674.352	-55.5
3677.101	-57.5
3679.847	-57.5
3682.591	-64.5
3685.333	-63.5
3688.073	-66.5
3690.811	-64.5
3693.547	-68.5
3696.281	-67.5
3699.013	-68.5
3701.742	-70.5
3704.47	-77.5
3707.195	-73.5
3709.919	-71.5
3712.64	-78.5
3715.359	-79.5
3718.076	-74.5
3720.792	-77.5
3723.505	-81.5
3726.216	-81.5
3728.925	-87.5
3731.632	-84.5
3734.336	-85.5
3737.039	-91.5
3739.74	-89.5
3742.439	-89.5
3745.136	-87.5
3747.83	-93.5
3750.523	-90.5
3753.213	-93.5
3755.902	-89.5
3758.589	-91.5
3761.273	-88.5
3763.956	-89.5
3766.636	-94.5
3769.315	-93.5
3771.991	-92.5
3774.665	-97.5
3777.338	-95.5
3780.008	-98.5
3782.677	-95.5
3785.343	-99.5
3788.007	-94.5
3790.67	-99.5
3793.33	-96.5
3795.989	-99.5
3798.645	-97.5
3801.299	-96.5
3803.952	-102.5
3806.602	-99.5
3809.251	-97.5
3811.897	-100.5
3814.542	-104.5
3817.184	-100.5
3819.825	-96.5
3822.463	-100.5
3825.1	-100.5
3827.735	-103.5
3830.367	-100.5
3832.998	-101.5
3835.627	-97.5
3838.253	-105.5
3840.878	-105.5
3843.501	-101.5
3846.122	-105.5
3848.741	-99.5
3851.358	-103.5
3853.973	-102.5
3856.586	-101.5
3859.197	-104.5
3861.806	-102.5
3864.414	-100.5
3867.019	-101.5
3869.622	-101.5
3872.224	-110.5
3874.823	-100.5
3877.421	-102.5
3880.016	-99.5
3882.61	-93.5
3885.202	-96.5
3887.792	-93.5
3890.38	-101.5
3892.966	-102.5
3895.55	-106.5
3898.132	-107.5
3900.713	-101.5
3903.291	-105.5
3905.868	-104.5
3908.442	-105.5
3911.015	-104.5
3913.586	-108.5
3916.155	-104.5
3918.722	-105.5
3921.287	-108.5
3923.85	-109.5
3926.411	-112.5
3928.971	-104.5
3931.528	-112.5
3934.084	-105.5
3936.638	-104.5
3939.19	-106.5
3941.74	-104.5
3944.288	-110.5
3946.834	-107.5
3949.378	-108.5
3951.921	-108.5
3954.462	-109.5
3957	-112.5
3959.537	-110.5
3962.072	-105.5
3964.606	-105.5
3967.137	-107.5
3969.667	-107.5
3972.194	-112.5
3974.72	-107.5
3977.244	-108.5
3979.766	-109.5
3982.286	-102.5
3984.805	-108.5
3987.321	-105.5
3989.836	-110.5
3992.349	-106.5
3994.86	-102.5
3997.369	-106.5
3999.877	-109.5
4002.382	-104.5
4004.886	-107.5
4007.388	-105.5
4009.888	-105.5
4012.386	-108.5
4014.883	-103.5
4017.377	-107.5
4019.87	-105.5
4022.361	-109.5
4024.85	-106.5
4027.338	-110.5
4029.823	-103.5
4032.307	-107.5
4034.789	-104.5
4037.269	-106.5
4039.747	-107.5
4042.224	-110.5
4044.699	-110.5
4047.172	-108.5
4049.643	-108.5
4052.112	-110.5
4054.58	-110.5
4057.046	-114.5
4059.51	-113.5
4061.972	-111.5
4064.432	-107.5
4066.891	-109.5
4069.348	-106.5
4071.803	-109.5
4074.256	-111.5
4076.708	-106.5
4079.158	-113.5
4081.606	-109.5
4084.052	-107.5
4086.497	-112.5
4088.939	-111.5
4091.38	-107.5
4093.819	-111.5
4096.257	-112.5
4098.693	-109.5
4101.127	-109.5
4103.559	-112.5
4105.989	-74.5
4108.418	-75.5
4110.845	-64.5
4113.27	-64.5
4115.694	-54.5
4118.115	-44.5
4120.535	-102.5
4122.954	-111.5
4125.37	-108.5
4127.785	-106.5
4130.198	-106.5
4132.609	-108.5
4135.019	-108.5
4137.427	-111.5
4139.833	-111.5
4142.237	-113.5
