Data from 100000000CFU3_B_RamanShift_1.txt Node
Date: Tue Jan 31 14:50:07 IST 2017
User: aro
Spectrometer: QEPB0276
Trigger mode: 0
Integration Time (sec): 5.000000E0
Scans to average: 1
Electric dark correction enabled: true
Nonlinearity correction enabled: false
Boxcar width: 0
XAxis mode: Raman Shifts
Number of Pixels in Spectrum: 1044
>>>>>Begin Spectral Data<<<<<
160.701	-28.62
166.742	-1.62
172.777	69.38
178.805	288.38
184.826	783.38
190.841	1573.38
196.849	2450.38
202.85	2998.38
208.845	3134.38
214.833	3068.38
220.815	2920.38
226.789	2815.38
232.758	2752.38
238.719	2678.38
244.674	2596.38
250.623	2486.38
256.565	2363.38
262.5	2242.38
268.429	2159.38
274.351	2083.38
280.267	1998.38
286.176	1909.38
292.079	1861.38
297.975	1791.38
303.865	1759.38
309.748	1703.38
315.625	1678.38
321.495	1629.38
327.359	1624.38
333.217	1590.38
339.068	1582.38
344.912	1597.38
350.751	1574.38
356.583	1584.38
362.408	1567.38
368.227	1563.38
374.04	1591.38
379.847	1593.38
385.647	1582.38
391.44	1608.38
397.228	1630.38
403.009	1620.38
408.784	1638.38
414.553	1641.38
420.315	1642.38
426.071	1631.38
431.821	1653.38
437.565	1639.38
443.302	1636.38
449.033	1614.38
454.758	1621.38
460.477	1618.38
466.189	1591.38
471.896	1594.38
477.596	1591.38
483.29	1565.38
488.978	1569.38
494.66	1572.38
500.335	1561.38
506.005	1502.38
511.668	1493.38
517.325	1444.38
522.977	1431.38
528.622	1396.38
534.261	1371.38
539.894	1364.38
545.521	1332.38
551.141	1358.38
556.756	1332.38
562.365	1329.38
567.968	1325.38
573.565	1318.38
579.155	1305.38
584.74	1314.38
590.319	1276.38
595.892	1268.38
601.459	1266.38
607.02	1265.38
612.575	1248.38
618.124	1251.38
623.667	1218.38
629.204	1229.38
634.735	1206.38
640.261	1201.38
645.781	1197.38
651.294	1175.38
656.802	1188.38
662.304	1167.38
667.8	1150.38
673.29	1138.38
678.775	1147.38
684.254	1147.38
689.726	1138.38
695.193	1134.38
700.655	1127.38
706.11	1133.38
711.56	1112.38
717.004	1125.38
722.442	1100.38
727.874	1101.38
733.301	1086.38
738.722	1080.38
744.137	1091.38
749.547	1075.38
754.951	1074.38
760.349	1059.38
765.741	1074.38
771.128	1064.38
776.509	1076.38
781.885	1058.38
787.254	1073.38
792.618	1079.38
797.977	1066.38
803.33	1048.38
808.677	1056.38
814.019	1035.38
819.355	1031.38
824.686	1026.38
830.011	1009.38
835.33	1004.38
840.644	990.38
845.952	991.38
851.255	977.38
856.552	967.38
861.844	978.38
867.13	959.38
872.41	960.38
877.686	952.38
882.955	944.38
888.219	937.38
893.478	921.38
898.731	896.38
903.979	884.38
909.221	859.38
914.458	871.38
919.69	854.38
924.916	857.38
930.136	853.38
935.351	841.38
940.561	858.38
945.766	856.38
950.965	857.38
956.158	842.38
961.347	831.38
966.529	830.38
971.707	810.38
976.879	816.38
982.046	808.38
987.208	795.38
992.364	789.38
997.515	787.38
1002.66	797.38
1007.801	810.38
1012.936	815.38
1018.066	810.38
1023.19	805.38
1028.309	822.38
1033.423	829.38
1038.532	817.38
1043.636	808.38
1048.734	811.38
1053.827	797.38
1058.915	791.38
1063.998	789.38
1069.075	794.38
1074.147	779.38
1079.214	786.38
1084.276	790.38
1089.333	782.38
1094.385	801.38
1099.431	802.38
1104.472	811.38
1109.509	804.38
1114.54	796.38
1119.565	797.38
1124.586	775.38
1129.602	761.38
1134.613	763.38
1139.618	757.38
1144.619	769.38
1149.614	760.38
1154.604	760.38
1159.589	781.38
1164.57	773.38
1169.545	780.38
1174.515	772.38
1179.48	775.38
1184.44	785.38
1189.395	767.38
1194.345	777.38
1199.29	775.38
1204.23	768.38
1209.165	766.38
1214.095	767.38
1219.021	779.38
1223.941	781.38
1228.856	786.38
1233.766	764.38
1238.672	794.38
1243.572	796.38
1248.467	786.38
1253.358	772.38
1258.244	767.38
1263.124	772.38
1268	757.38
1272.871	740.38
1277.737	733.38
1282.599	734.38
1287.455	733.38
1292.306	739.38
1297.153	732.38
1301.995	747.38
1306.832	748.38
1311.664	742.38
1316.491	745.38
1321.314	767.38
1326.132	750.38
1330.945	733.38
1335.753	737.38
1340.556	712.38
1345.354	712.38
1350.148	698.38
1354.937	703.38
1359.722	698.38
1364.501	700.38
1369.276	688.38
1374.046	688.38
1378.811	690.38
1383.572	673.38
1388.327	681.38
1393.079	680.38
1397.825	674.38
1402.567	679.38
1407.304	662.38
1412.036	664.38
1416.764	651.38
1421.487	671.38
1426.205	659.38
1430.919	668.38
1435.628	658.38
1440.333	678.38
1445.032	692.38
1449.727	683.38
1454.418	697.38
1459.104	701.38
1463.785	699.38
1468.462	685.38
1473.134	678.38
1477.802	673.38
1482.465	669.38
1487.123	666.38
1491.777	672.38
1496.426	670.38
1501.071	679.38
1505.711	679.38
1510.347	682.38
1514.978	688.38
1519.604	699.38
1524.226	701.38
1528.844	713.38
1533.457	706.38
1538.065	706.38
1542.669	707.38
1547.269	707.38
1551.864	712.38
1556.454	720.38
1561.041	720.38
1565.622	721.38
1570.199	731.38
1574.772	755.38
1579.34	755.38
1583.904	766.38
1588.464	789.38
1593.019	799.38
1597.569	795.38
1602.115	826.38
1606.657	834.38
1611.195	834.38
1615.728	837.38
1620.256	854.38
1624.78	866.38
1629.3	876.38
1633.816	893.38
1638.327	906.38
1642.834	899.38
1647.336	920.38
1651.834	911.38
1656.328	916.38
1660.817	921.38
1665.302	894.38
1669.783	889.38
1674.259	865.38
1678.732	828.38
1683.199	809.38
1687.663	779.38
1692.122	749.38
1696.577	718.38
1701.028	686.38
1705.474	661.38
1709.917	635.38
1714.355	623.38
1718.788	614.38
1723.218	598.38
1727.643	585.38
1732.064	582.38
1736.481	567.38
1740.893	547.38
1745.301	538.38
1749.705	530.38
1754.105	513.38
1758.501	496.38
1762.893	483.38
1767.28	484.38
1771.663	487.38
1776.042	467.38
1780.417	475.38
1784.787	460.38
1789.154	470.38
1793.516	476.38
1797.874	483.38
1802.228	480.38
1806.578	463.38
1810.924	453.38
1815.266	431.38
1819.603	442.38
1823.937	435.38
1828.266	429.38
1832.591	420.38
1836.913	431.38
1841.23	422.38
1845.543	416.38
1849.852	420.38
1854.156	418.38
1858.457	419.38
1862.754	429.38
1867.047	418.38
1871.335	436.38
1875.62	435.38
1879.9	428.38
1884.177	427.38
1888.449	435.38
1892.718	435.38
1896.982	426.38
1901.243	437.38
1905.499	419.38
1909.752	425.38
1914	418.38
1918.245	425.38
1922.485	424.38
1926.722	422.38
1930.954	436.38
1935.183	434.38
1939.408	438.38
1943.628	441.38
1947.845	432.38
1952.058	426.38
1956.267	439.38
1960.472	430.38
1964.673	426.38
1968.87	422.38
1973.063	413.38
1977.252	414.38
1981.438	403.38
1985.619	405.38
1989.797	403.38
1993.971	402.38
1998.14	404.38
2002.306	395.38
2006.469	416.38
2010.627	411.38
2014.781	424.38
2018.932	421.38
2023.078	411.38
2027.221	419.38
2031.36	419.38
2035.495	412.38
2039.627	400.38
2043.754	391.38
2047.878	416.38
2051.998	396.38
2056.114	407.38
2060.226	408.38
2064.334	410.38
2068.439	408.38
2072.54	410.38
2076.637	414.38
2080.73	415.38
2084.82	412.38
2088.906	417.38
2092.988	414.38
2097.066	416.38
2101.14	419.38
2105.211	415.38
2109.278	422.38
2113.342	405.38
2117.401	418.38
2121.457	424.38
2125.509	404.38
2129.558	392.38
2133.602	396.38
2137.643	390.38
2141.681	391.38
2145.714	393.38
2149.744	392.38
2153.77	390.38
2157.793	381.38
2161.812	386.38
2165.827	381.38
2169.838	373.38
2173.846	369.38
2177.851	347.38
2181.851	347.38
2185.848	352.38
2189.841	349.38
2193.831	346.38
2197.817	340.38
2201.799	338.38
2205.778	335.38
2209.753	339.38
2213.725	348.38
2217.693	339.38
2221.657	331.38
2225.618	339.38
2229.575	334.38
2233.529	338.38
2237.479	337.38
2241.425	330.38
2245.368	324.38
2249.307	320.38
2253.243	310.38
2257.175	306.38
2261.104	302.38
2265.029	302.38
2268.95	291.38
2272.868	290.38
2276.783	281.38
2280.694	280.38
2284.601	277.38
2288.505	274.38
2292.405	285.38
2296.302	273.38
2300.195	265.38
2304.085	264.38
2307.971	257.38
2311.854	250.38
2315.734	247.38
2319.609	241.38
2323.482	241.38
2327.351	238.38
2331.216	230.38
2335.078	238.38
2338.937	244.38
2342.792	222.38
2346.643	230.38
2350.492	231.38
2354.336	226.38
2358.178	224.38
2362.015	224.38
2365.85	230.38
2369.681	235.38
2373.508	226.38
2377.333	227.38
2381.153	230.38
2384.971	228.38
2388.785	231.38
2392.595	222.38
2396.402	225.38
2400.206	230.38
2404.007	220.38
2407.804	215.38
2411.597	225.38
2415.388	213.38
2419.174	219.38
2422.958	218.38
2426.738	220.38
2430.515	223.38
2434.289	208.38
2438.059	208.38
2441.825	214.38
2445.589	210.38
2449.349	217.38
2453.106	199.38
2456.859	207.38
2460.61	199.38
2464.356	203.38
2468.1	195.38
2471.84	201.38
2475.577	192.38
2479.311	197.38
2483.041	199.38
2486.768	203.38
2490.492	191.38
2494.213	198.38
2497.93	191.38
2501.644	195.38
2505.355	197.38
2509.062	191.38
2512.766	197.38
2516.467	198.38
2520.165	186.38
2523.859	194.38
2527.551	191.38
2531.239	183.38
2534.923	181.38
2538.605	185.38
2542.283	185.38
2545.958	180.38
2549.63	189.38
2553.299	184.38
2556.964	182.38
2560.626	175.38
2564.285	182.38
2567.941	172.38
2571.594	170.38
2575.243	179.38
2578.89	174.38
2582.533	171.38
2586.173	163.38
2589.809	170.38
2593.443	172.38
2597.073	162.38
2600.701	167.38
2604.325	169.38
2607.946	165.38
2611.564	164.38
2615.178	154.38
2618.79	164.38
2622.398	158.38
2626.004	158.38
2629.606	158.38
2633.205	157.38
2636.801	148.38
2640.394	155.38
2643.983	151.38
2647.57	151.38
2651.153	153.38
2654.734	148.38
2658.311	142.38
2661.885	155.38
2665.456	139.38
2669.025	141.38
2672.589	148.38
2676.151	138.38
2679.71	135.38
2683.266	137.38
2686.819	132.38
2690.368	132.38
2693.915	129.38
2697.458	140.38
2700.999	132.38
2704.536	131.38
2708.071	124.38
2711.602	130.38
2715.13	131.38
2718.656	124.38
2722.178	128.38
2725.697	134.38
2729.214	126.38
2732.727	126.38
2736.237	131.38
2739.744	138.38
2743.249	133.38
2746.75	137.38
2750.248	131.38
2753.743	125.38
2757.236	131.38
2760.725	121.38
2764.211	128.38
2767.695	126.38
2771.175	117.38
2774.652	122.38
2778.127	125.38
2781.598	125.38
2785.067	129.38
2788.532	128.38
2791.995	120.38
2795.455	120.38
2798.911	121.38
2802.365	124.38
2805.816	126.38
2809.264	125.38
2812.709	131.38
2816.151	131.38
2819.59	132.38
2823.026	136.38
2826.46	132.38
2829.89	128.38
2833.318	138.38
2836.742	135.38
2840.164	129.38
2843.583	132.38
2846.999	141.38
2850.412	143.38
2853.822	143.38
2857.229	143.38
2860.634	150.38
2864.035	155.38
2867.434	160.38
2870.83	147.38
2874.223	155.38
2877.613	160.38
2881	151.38
2884.385	159.38
2887.766	168.38
2891.145	156.38
2894.521	159.38
2897.894	164.38
2901.264	164.38
2904.631	165.38
2907.996	165.38
2911.358	166.38
2914.717	171.38
2918.073	173.38
2921.426	180.38
2924.777	175.38
2928.124	181.38
2931.469	189.38
2934.811	189.38
2938.15	194.38
2941.487	197.38
2944.821	201.38
2948.152	203.38
2951.48	213.38
2954.805	213.38
2958.128	218.38
2961.447	217.38
2964.765	215.38
2968.079	229.38
2971.39	228.38
2974.699	240.38
2978.005	243.38
2981.308	250.38
2984.609	255.38
2987.907	256.38
2991.202	269.38
2994.494	282.38
2997.784	288.38
3001.07	288.38
3004.355	310.38
3007.636	318.38
3010.915	317.38
3014.191	321.38
3017.464	326.38
3020.734	342.38
3024.002	338.38
3027.267	348.38
3030.53	358.38
3033.789	365.38
3037.046	378.38
3040.301	379.38
3043.552	389.38
3046.801	401.38
3050.048	411.38
3053.291	419.38
3056.532	442.38
3059.771	451.38
3063.006	467.38
3066.239	484.38
3069.469	502.38
3072.697	514.38
3075.922	521.38
3079.144	539.38
3082.364	554.38
3085.581	567.38
3088.795	565.38
3092.007	596.38
3095.216	603.38
3098.423	619.38
3101.627	641.38
3104.828	654.38
3108.026	671.38
3111.222	679.38
3114.416	698.38
3117.607	703.38
3120.795	739.38
3123.98	754.38
3127.163	763.38
3130.344	783.38
3133.521	795.38
3136.696	827.38
3139.869	836.38
3143.039	851.38
3146.206	862.38
3149.371	880.38
3152.533	896.38
3155.693	893.38
3158.85	901.38
3162.005	907.38
3165.157	924.38
3168.306	919.38
3171.453	917.38
3174.597	927.38
3177.739	916.38
3180.878	937.38
3184.014	925.38
3187.149	941.38
3190.28	933.38
3193.409	934.38
3196.536	937.38
3199.659	952.38
3202.781	960.38
3205.9	958.38
3209.016	971.38
3212.13	968.38
3215.241	938.38
3218.35	956.38
3221.456	934.38
3224.56	939.38
3227.661	935.38
3230.76	907.38
3233.856	927.38
3236.95	904.38
3240.041	890.38
3243.13	882.38
3246.216	878.38
3249.3	864.38
3252.382	852.38
3255.46	854.38
3258.537	848.38
3261.611	843.38
3264.682	848.38
3267.751	845.38
3270.818	827.38
3273.882	836.38
3276.943	837.38
3280.002	824.38
3283.059	807.38
3286.113	801.38
3289.165	802.38
3292.214	789.38
3295.261	768.38
3298.306	760.38
3301.348	755.38
3304.387	746.38
3307.425	736.38
3310.459	733.38
3313.492	719.38
3316.521	716.38
3319.549	704.38
3322.574	684.38
3325.597	697.38
3328.617	677.38
3331.635	667.38
3334.65	673.38
3337.663	670.38
3340.674	668.38
3343.682	668.38
3346.688	670.38
3349.691	659.38
3352.692	651.38
3355.691	644.38
3358.687	651.38
3361.681	644.38
3364.673	639.38
3367.662	638.38
3370.649	621.38
3373.633	620.38
3376.615	612.38
3379.595	595.38
3382.572	589.38
3385.547	584.38
3388.52	568.38
3391.49	570.38
3394.458	557.38
3397.424	559.38
3400.387	542.38
3403.348	531.38
3406.307	527.38
3409.263	519.38
3412.217	512.38
3415.168	518.38
3418.118	511.38
3421.065	504.38
3424.009	499.38
3426.951	493.38
3429.891	478.38
3432.829	486.38
3435.764	467.38
3438.697	455.38
3441.628	446.38
3444.557	432.38
3447.483	425.38
3450.407	412.38
3453.328	395.38
3456.247	399.38
3459.164	383.38
3462.079	367.38
3464.991	364.38
3467.902	356.38
3470.809	342.38
3473.715	322.38
3476.618	310.38
3479.519	303.38
3482.418	304.38
3485.315	297.38
3488.209	271.38
3491.101	275.38
3493.99	271.38
3496.878	260.38
3499.763	251.38
3502.646	245.38
3505.527	232.38
3508.405	227.38
3511.281	218.38
3514.155	201.38
3517.027	196.38
3519.897	193.38
3522.764	178.38
3525.629	171.38
3528.492	167.38
3531.352	158.38
3534.211	144.38
3537.067	134.38
3539.921	131.38
3542.773	122.38
3545.622	126.38
3548.469	110.38
3551.315	106.38
3554.157	99.38
3556.998	93.38
3559.837	85.38
3562.673	79.38
3565.507	70.38
3568.339	68.38
3571.169	60.38
3573.996	62.38
3576.822	57.38
3579.645	57.38
3582.466	48.38
3585.285	43.38
3588.101	35.38
3590.916	38.38
3593.728	33.38
3596.538	29.38
3599.346	22.38
3602.152	21.38
3604.956	9.38
3607.757	12.38
3610.556	7.38
3613.354	6.38
3616.149	11.38
3618.942	1.38
3621.732	2.38
3624.521	0.38
3627.307	-8.62
3630.092	-5.62
3632.874	-8.62
3635.654	-18.62
3638.432	-18.62
3641.208	-17.62
3643.982	-18.62
3646.753	-21.62
3649.523	-18.62
3652.29	-23.62
3655.055	-25.62
3657.818	-26.62
3660.579	-31.62
3663.338	-35.62
3666.095	-37.62
3668.849	-40.62
3671.602	-44.62
3674.352	-43.62
3677.101	-44.62
3679.847	-41.62
3682.591	-49.62
3685.333	-48.62
3688.073	-47.62
3690.811	-50.62
3693.547	-50.62
3696.281	-50.62
3699.013	-52.62
3701.742	-56.62
3704.47	-57.62
3707.195	-56.62
3709.919	-56.62
3712.64	-56.62
3715.359	-58.62
3718.076	-58.62
3720.792	-58.62
3723.505	-58.62
3726.216	-60.62
3728.925	-64.62
3731.632	-64.62
3734.336	-69.62
3737.039	-66.62
3739.74	-67.62
3742.439	-64.62
3745.136	-65.62
3747.83	-68.62
3750.523	-67.62
3753.213	-63.62
3755.902	-67.62
3758.589	-62.62
3761.273	-68.62
3763.956	-67.62
3766.636	-73.62
3769.315	-67.62
3771.991	-70.62
3774.665	-72.62
3777.338	-69.62
3780.008	-69.62
3782.677	-70.62
3785.343	-73.62
3788.007	-68.62
3790.67	-75.62
3793.33	-71.62
3795.989	-74.62
3798.645	-71.62
3801.299	-69.62
3803.952	-75.62
3806.602	-72.62
3809.251	-72.62
3811.897	-77.62
3814.542	-77.62
3817.184	-74.62
3819.825	-72.62
3822.463	-73.62
3825.1	-76.62
3827.735	-73.62
3830.367	-77.62
3832.998	-78.62
3835.627	-74.62
3838.253	-75.62
3840.878	-77.62
3843.501	-75.62
3846.122	-78.62
3848.741	-69.62
3851.358	-78.62
3853.973	-76.62
3856.586	-72.62
3859.197	-72.62
3861.806	-73.62
3864.414	-73.62
3867.019	-79.62
3869.622	-75.62
3872.224	-78.62
3874.823	-77.62
3877.421	-76.62
3880.016	-68.62
3882.61	-67.62
3885.202	-68.62
3887.792	-64.62
3890.38	-74.62
3892.966	-75.62
3895.55	-78.62
3898.132	-80.62
3900.713	-69.62
3903.291	-81.62
3905.868	-79.62
3908.442	-81.62
3911.015	-77.62
3913.586	-81.62
3916.155	-73.62
3918.722	-81.62
3921.287	-73.62
3923.85	-80.62
3926.411	-82.62
3928.971	-77.62
3931.528	-78.62
3934.084	-83.62
3936.638	-75.62
3939.19	-80.62
3941.74	-75.62
3944.288	-79.62
3946.834	-77.62
3949.378	-76.62
3951.921	-75.62
3954.462	-79.62
3957	-81.62
3959.537	-84.62
3962.072	-79.62
3964.606	-79.62
3967.137	-78.62
3969.667	-76.62
3972.194	-78.62
3974.72	-75.62
3977.244	-76.62
3979.766	-77.62
3982.286	-76.62
3984.805	-80.62
3987.321	-79.62
3989.836	-82.62
3992.349	-79.62
3994.86	-77.62
3997.369	-76.62
3999.877	-78.62
4002.382	-76.62
4004.886	-78.62
4007.388	-77.62
4009.888	-81.62
4012.386	-80.62
4014.883	-77.62
4017.377	-82.62
4019.87	-81.62
4022.361	-80.62
4024.85	-79.62
4027.338	-78.62
4029.823	-78.62
4032.307	-75.62
4034.789	-77.62
4037.269	-81.62
4039.747	-78.62
4042.224	-81.62
4044.699	-86.62
4047.172	-84.62
4049.643	-79.62
4052.112	-81.62
4054.58	-82.62
4057.046	-81.62
4059.51	-84.62
4061.972	-82.62
4064.432	-78.62
4066.891	-81.62
4069.348	-78.62
4071.803	-81.62
4074.256	-83.62
4076.708	-77.62
4079.158	-84.62
4081.606	-81.62
4084.052	-75.62
4086.497	-80.62
4088.939	-81.62
4091.38	-84.62
4093.819	-82.62
4096.257	-84.62
4098.693	-79.62
4101.127	-78.62
4103.559	-81.62
4105.989	-49.62
4108.418	-49.62
4110.845	-49.62
4113.27	-51.62
4115.694	-39.62
4118.115	-34.62
4120.535	-78.62
4122.954	-85.62
4125.37	-79.62
4127.785	-79.62
4130.198	-77.62
4132.609	-77.62
4135.019	-81.62
4137.427	-80.62
4139.833	-81.62
4142.237	-83.62
