Data from 1000CFU3_A_RamanShift_1.txt Node
Date: Tue Jan 31 15:22:19 IST 2017
User: aro
Spectrometer: QEPB0276
Trigger mode: 0
Integration Time (sec): 5.000000E0
Scans to average: 1
Electric dark correction enabled: true
Nonlinearity correction enabled: false
Boxcar width: 0
XAxis mode: Raman Shifts
Number of Pixels in Spectrum: 1044
>>>>>Begin Spectral Data<<<<<
160.701	-42.38
166.742	-4.38
172.777	102.62
178.805	410.62
184.826	1127.62
190.841	2284.62
196.849	3593.62
202.85	4404.62
208.845	4580.62
214.833	4451.62
220.815	4310.62
226.789	4161.62
232.758	4073.62
238.719	3935.62
244.674	3807.62
250.623	3661.62
256.565	3444.62
262.5	3338.62
268.429	3156.62
274.351	3047.62
280.267	2888.62
286.176	2816.62
292.079	2731.62
297.975	2621.62
303.865	2561.62
309.748	2489.62
315.625	2426.62
321.495	2369.62
327.359	2349.62
333.217	2305.62
339.068	2305.62
344.912	2292.62
350.751	2266.62
356.583	2262.62
362.408	2229.62
368.227	2288.62
374.04	2278.62
379.847	2294.62
385.647	2320.62
391.44	2317.62
397.228	2329.62
403.009	2347.62
408.784	2349.62
414.553	2360.62
420.315	2358.62
426.071	2369.62
431.821	2348.62
437.565	2353.62
443.302	2342.62
449.033	2336.62
454.758	2332.62
460.477	2314.62
466.189	2316.62
471.896	2298.62
477.596	2299.62
483.29	2266.62
488.978	2277.62
494.66	2267.62
500.335	2252.62
506.005	2213.62
511.668	2166.62
517.325	2127.62
522.977	2102.62
528.622	2082.62
534.261	2047.62
539.894	2023.62
545.521	1995.62
551.141	2023.62
556.756	1982.62
562.365	1973.62
567.968	1946.62
573.565	1935.62
579.155	1959.62
584.74	1930.62
590.319	1899.62
595.892	1886.62
601.459	1900.62
607.02	1869.62
612.575	1876.62
618.124	1872.62
623.667	1852.62
629.204	1815.62
634.735	1811.62
640.261	1811.62
645.781	1794.62
651.294	1773.62
656.802	1766.62
662.304	1762.62
667.8	1739.62
673.29	1747.62
678.775	1743.62
684.254	1738.62
689.726	1738.62
695.193	1719.62
700.655	1722.62
706.11	1718.62
711.56	1674.62
717.004	1701.62
722.442	1664.62
727.874	1661.62
733.301	1644.62
738.722	1635.62
744.137	1643.62
749.547	1645.62
754.951	1633.62
760.349	1632.62
765.741	1625.62
771.128	1617.62
776.509	1625.62
781.885	1642.62
787.254	1627.62
792.618	1631.62
797.977	1623.62
803.33	1615.62
808.677	1607.62
814.019	1585.62
819.355	1553.62
824.686	1553.62
830.011	1538.62
835.33	1536.62
840.644	1518.62
845.952	1513.62
851.255	1510.62
856.552	1510.62
861.844	1489.62
867.13	1489.62
872.41	1486.62
877.686	1487.62
882.955	1473.62
888.219	1456.62
893.478	1430.62
898.731	1411.62
903.979	1397.62
909.221	1354.62
914.458	1350.62
919.69	1365.62
924.916	1351.62
930.136	1323.62
935.351	1317.62
940.561	1345.62
945.766	1335.62
950.965	1326.62
956.158	1311.62
961.347	1317.62
966.529	1292.62
971.707	1296.62
976.879	1268.62
982.046	1261.62
987.208	1247.62
992.364	1230.62
997.515	1239.62
1002.66	1247.62
1007.801	1269.62
1012.936	1269.62
1018.066	1283.62
1023.19	1288.62
1028.309	1306.62
1033.423	1291.62
1038.532	1298.62
1043.636	1297.62
1048.734	1276.62
1053.827	1262.62
1058.915	1243.62
1063.998	1232.62
1069.075	1252.62
1074.147	1246.62
1079.214	1250.62
1084.276	1253.62
1089.333	1267.62
1094.385	1269.62
1099.431	1285.62
1104.472	1296.62
1109.509	1274.62
1114.54	1269.62
1119.565	1267.62
1124.586	1246.62
1129.602	1228.62
1134.613	1220.62
1139.618	1212.62
1144.619	1213.62
1149.614	1211.62
1154.604	1209.62
1159.589	1215.62
1164.57	1239.62
1169.545	1240.62
1174.515	1244.62
1179.48	1240.62
1184.44	1247.62
1189.395	1241.62
1194.345	1223.62
1199.29	1237.62
1204.23	1218.62
1209.165	1230.62
1214.095	1224.62
1219.021	1232.62
1223.941	1251.62
1228.856	1232.62
1233.766	1254.62
1238.672	1259.62
1243.572	1276.62
1248.467	1253.62
1253.358	1238.62
1258.244	1235.62
1263.124	1216.62
1268	1220.62
1272.871	1198.62
1277.737	1182.62
1282.599	1180.62
1287.455	1180.62
1292.306	1177.62
1297.153	1172.62
1301.995	1178.62
1306.832	1195.62
1311.664	1210.62
1316.491	1219.62
1321.314	1224.62
1326.132	1206.62
1330.945	1202.62
1335.753	1189.62
1340.556	1194.62
1345.354	1159.62
1350.148	1146.62
1354.937	1138.62
1359.722	1137.62
1364.501	1106.62
1369.276	1105.62
1374.046	1096.62
1378.811	1106.62
1383.572	1092.62
1388.327	1092.62
1393.079	1095.62
1397.825	1091.62
1402.567	1096.62
1407.304	1061.62
1412.036	1073.62
1416.764	1060.62
1421.487	1064.62
1426.205	1067.62
1430.919	1087.62
1435.628	1078.62
1440.333	1099.62
1445.032	1120.62
1449.727	1124.62
1454.418	1128.62
1459.104	1141.62
1463.785	1134.62
1468.462	1122.62
1473.134	1105.62
1477.802	1114.62
1482.465	1091.62
1487.123	1094.62
1491.777	1101.62
1496.426	1093.62
1501.071	1102.62
1505.711	1108.62
1510.347	1127.62
1514.978	1141.62
1519.604	1148.62
1524.226	1140.62
1528.844	1149.62
1533.457	1144.62
1538.065	1152.62
1542.669	1147.62
1547.269	1149.62
1551.864	1127.62
1556.454	1149.62
1561.041	1155.62
1565.622	1170.62
1570.199	1181.62
1574.772	1195.62
1579.34	1221.62
1583.904	1252.62
1588.464	1257.62
1593.019	1275.62
1597.569	1287.62
1602.115	1300.62
1606.657	1320.62
1611.195	1332.62
1615.728	1340.62
1620.256	1355.62
1624.78	1365.62
1629.3	1396.62
1633.816	1403.62
1638.327	1420.62
1642.834	1436.62
1647.336	1438.62
1651.834	1463.62
1656.328	1439.62
1660.817	1437.62
1665.302	1423.62
1669.783	1402.62
1674.259	1364.62
1678.732	1325.62
1683.199	1303.62
1687.663	1273.62
1692.122	1205.62
1696.577	1166.62
1701.028	1098.62
1705.474	1066.62
1709.917	1022.62
1714.355	1007.62
1718.788	988.62
1723.218	987.62
1727.643	974.62
1732.064	961.62
1736.481	930.62
1740.893	901.62
1745.301	894.62
1749.705	864.62
1754.105	849.62
1758.501	833.62
1762.893	811.62
1767.28	802.62
1771.663	803.62
1776.042	802.62
1780.417	794.62
1784.787	803.62
1789.154	791.62
1793.516	802.62
1797.874	801.62
1802.228	787.62
1806.578	794.62
1810.924	764.62
1815.266	748.62
1819.603	747.62
1823.937	729.62
1828.266	727.62
1832.591	725.62
1836.913	717.62
1841.23	723.62
1845.543	724.62
1849.852	715.62
1854.156	730.62
1858.457	711.62
1862.754	720.62
1867.047	729.62
1871.335	733.62
1875.62	744.62
1879.9	742.62
1884.177	748.62
1888.449	743.62
1892.718	748.62
1896.982	738.62
1901.243	746.62
1905.499	732.62
1909.752	722.62
1914	733.62
1918.245	730.62
1922.485	732.62
1926.722	744.62
1930.954	744.62
1935.183	743.62
1939.408	744.62
1943.628	740.62
1947.845	743.62
1952.058	739.62
1956.267	729.62
1960.472	732.62
1964.673	736.62
1968.87	710.62
1973.063	701.62
1977.252	704.62
1981.438	698.62
1985.619	700.62
1989.797	690.62
1993.971	688.62
1998.14	687.62
2002.306	698.62
2006.469	713.62
2010.627	707.62
2014.781	707.62
2018.932	712.62
2023.078	711.62
2027.221	712.62
2031.36	710.62
2035.495	700.62
2039.627	696.62
2043.754	690.62
2047.878	684.62
2051.998	696.62
2056.114	704.62
2060.226	683.62
2064.334	706.62
2068.439	708.62
2072.54	699.62
2076.637	691.62
2080.73	705.62
2084.82	716.62
2088.906	722.62
2092.988	709.62
2097.066	716.62
2101.14	706.62
2105.211	704.62
2109.278	702.62
2113.342	684.62
2117.401	695.62
2121.457	685.62
2125.509	675.62
2129.558	679.62
2133.602	667.62
2137.643	670.62
2141.681	674.62
2145.714	663.62
2149.744	660.62
2153.77	653.62
2157.793	667.62
2161.812	653.62
2165.827	650.62
2169.838	623.62
2173.846	613.62
2177.851	614.62
2181.851	600.62
2185.848	594.62
2189.841	585.62
2193.831	584.62
2197.817	579.62
2201.799	582.62
2205.778	572.62
2209.753	578.62
2213.725	584.62
2217.693	581.62
2221.657	573.62
2225.618	576.62
2229.575	581.62
2233.529	567.62
2237.479	566.62
2241.425	564.62
2245.368	565.62
2249.307	547.62
2253.243	541.62
2257.175	529.62
2261.104	522.62
2265.029	517.62
2268.95	506.62
2272.868	506.62
2276.783	502.62
2280.694	490.62
2284.601	487.62
2288.505	479.62
2292.405	485.62
2296.302	472.62
2300.195	458.62
2304.085	454.62
2307.971	456.62
2311.854	444.62
2315.734	441.62
2319.609	428.62
2323.482	423.62
2327.351	427.62
2331.216	422.62
2335.078	412.62
2338.937	405.62
2342.792	409.62
2346.643	399.62
2350.492	404.62
2354.336	402.62
2358.178	403.62
2362.015	406.62
2365.85	405.62
2369.681	402.62
2373.508	407.62
2377.333	410.62
2381.153	409.62
2384.971	401.62
2388.785	414.62
2392.595	403.62
2396.402	401.62
2400.206	389.62
2404.007	400.62
2407.804	386.62
2411.597	390.62
2415.388	391.62
2419.174	391.62
2422.958	387.62
2426.738	391.62
2430.515	384.62
2434.289	381.62
2438.059	382.62
2441.825	381.62
2445.589	383.62
2449.349	373.62
2453.106	364.62
2456.859	374.62
2460.61	372.62
2464.356	368.62
2468.1	361.62
2471.84	354.62
2475.577	354.62
2479.311	355.62
2483.041	354.62
2486.768	364.62
2490.492	354.62
2494.213	353.62
2497.93	361.62
2501.644	350.62
2505.355	360.62
2509.062	358.62
2512.766	352.62
2516.467	357.62
2520.165	343.62
2523.859	350.62
2527.551	353.62
2531.239	341.62
2534.923	348.62
2538.605	332.62
2542.283	334.62
2545.958	331.62
2549.63	334.62
2553.299	326.62
2556.964	331.62
2560.626	326.62
2564.285	327.62
2567.941	318.62
2571.594	317.62
2575.243	316.62
2578.89	321.62
2582.533	305.62
2586.173	314.62
2589.809	304.62
2593.443	299.62
2597.073	308.62
2600.701	303.62
2604.325	309.62
2607.946	303.62
2611.564	302.62
2615.178	305.62
2618.79	288.62
2622.398	292.62
2626.004	283.62
2629.606	294.62
2633.205	290.62
2636.801	282.62
2640.394	274.62
2643.983	282.62
2647.57	285.62
2651.153	271.62
2654.734	276.62
2658.311	265.62
2661.885	270.62
2665.456	261.62
2669.025	263.62
2672.589	260.62
2676.151	254.62
2679.71	253.62
2683.266	261.62
2686.819	260.62
2690.368	261.62
2693.915	245.62
2697.458	253.62
2700.999	245.62
2704.536	243.62
2708.071	233.62
2711.602	239.62
2715.13	239.62
2718.656	230.62
2722.178	231.62
2725.697	235.62
2729.214	236.62
2732.727	244.62
2736.237	240.62
2739.744	240.62
2743.249	245.62
2746.75	250.62
2750.248	244.62
2753.743	231.62
2757.236	238.62
2760.725	234.62
2764.211	237.62
2767.695	234.62
2771.175	225.62
2774.652	229.62
2778.127	233.62
2781.598	224.62
2785.067	230.62
2788.532	229.62
2791.995	228.62
2795.455	228.62
2798.911	232.62
2802.365	236.62
2805.816	232.62
2809.264	230.62
2812.709	237.62
2816.151	234.62
2819.59	238.62
2823.026	231.62
2826.46	234.62
2829.89	238.62
2833.318	237.62
2836.742	242.62
2840.164	242.62
2843.583	240.62
2846.999	243.62
2850.412	248.62
2853.822	248.62
2857.229	247.62
2860.634	257.62
2864.035	261.62
2867.434	260.62
2870.83	265.62
2874.223	267.62
2877.613	271.62
2881	270.62
2884.385	267.62
2887.766	262.62
2891.145	266.62
2894.521	266.62
2897.894	270.62
2901.264	270.62
2904.631	279.62
2907.996	275.62
2911.358	282.62
2914.717	280.62
2918.073	287.62
2921.426	287.62
2924.777	282.62
2928.124	287.62
2931.469	295.62
2934.811	304.62
2938.15	311.62
2941.487	323.62
2944.821	319.62
2948.152	327.62
2951.48	329.62
2954.805	336.62
2958.128	335.62
2961.447	344.62
2964.765	343.62
2968.079	357.62
2971.39	380.62
2974.699	378.62
2978.005	377.62
2981.308	390.62
2984.609	415.62
2987.907	403.62
2991.202	426.62
2994.494	431.62
2997.784	444.62
3001.07	449.62
3004.355	467.62
3007.636	464.62
3010.915	486.62
3014.191	489.62
3017.464	511.62
3020.734	515.62
3024.002	532.62
3027.267	536.62
3030.53	540.62
3033.789	550.62
3037.046	557.62
3040.301	564.62
3043.552	580.62
3046.801	602.62
3050.048	616.62
3053.291	635.62
3056.532	644.62
3059.771	663.62
3063.006	691.62
3066.239	702.62
3069.469	732.62
3072.697	743.62
3075.922	760.62
3079.144	786.62
3082.364	823.62
3085.581	840.62
3088.795	858.62
3092.007	876.62
3095.216	899.62
3098.423	912.62
3101.627	935.62
3104.828	941.62
3108.026	974.62
3111.222	984.62
3114.416	1016.62
3117.607	1035.62
3120.795	1066.62
3123.98	1080.62
3127.163	1111.62
3130.344	1127.62
3133.521	1160.62
3136.696	1184.62
3139.869	1191.62
3143.039	1229.62
3146.206	1251.62
3149.371	1271.62
3152.533	1279.62
3155.693	1289.62
3158.85	1304.62
3162.005	1307.62
3165.157	1320.62
3168.306	1325.62
3171.453	1321.62
3174.597	1311.62
3177.739	1340.62
3180.878	1342.62
3184.014	1327.62
3187.149	1350.62
3190.28	1346.62
3193.409	1346.62
3196.536	1334.62
3199.659	1374.62
3202.781	1368.62
3205.9	1386.62
3209.016	1368.62
3212.13	1369.62
3215.241	1373.62
3218.35	1361.62
3221.456	1364.62
3224.56	1351.62
3227.661	1332.62
3230.76	1337.62
3233.856	1314.62
3236.95	1299.62
3240.041	1304.62
3243.13	1273.62
3246.216	1258.62
3249.3	1244.62
3252.382	1248.62
3255.46	1230.62
3258.537	1234.62
3261.611	1214.62
3264.682	1205.62
3267.751	1206.62
3270.818	1191.62
3273.882	1194.62
3276.943	1196.62
3280.002	1187.62
3283.059	1168.62
3286.113	1148.62
3289.165	1143.62
3292.214	1124.62
3295.261	1119.62
3298.306	1085.62
3301.348	1084.62
3304.387	1047.62
3307.425	1038.62
3310.459	1037.62
3313.492	1014.62
3316.521	1008.62
3319.549	1007.62
3322.574	988.62
3325.597	979.62
3328.617	967.62
3331.635	956.62
3334.65	959.62
3337.663	957.62
3340.674	941.62
3343.682	946.62
3346.688	941.62
3349.691	944.62
3352.692	933.62
3355.691	925.62
3358.687	924.62
3361.681	916.62
3364.673	895.62
3367.662	893.62
3370.649	888.62
3373.633	884.62
3376.615	870.62
3379.595	855.62
3382.572	852.62
3385.547	834.62
3388.52	821.62
3391.49	799.62
3394.458	805.62
3397.424	777.62
3400.387	770.62
3403.348	764.62
3406.307	755.62
3409.263	743.62
3412.217	740.62
3415.168	720.62
3418.118	725.62
3421.065	719.62
3424.009	715.62
3426.951	705.62
3429.891	685.62
3432.829	671.62
3435.764	669.62
3438.697	656.62
3441.628	641.62
3444.557	615.62
3447.483	604.62
3450.407	585.62
3453.328	568.62
3456.247	554.62
3459.164	542.62
3462.079	523.62
3464.991	512.62
3467.902	498.62
3470.809	478.62
3473.715	455.62
3476.618	455.62
3479.519	436.62
3482.418	425.62
3485.315	414.62
3488.209	396.62
3491.101	381.62
3493.99	376.62
3496.878	363.62
3499.763	359.62
3502.646	339.62
3505.527	335.62
3508.405	313.62
3511.281	306.62
3514.155	295.62
3517.027	283.62
3519.897	272.62
3522.764	249.62
3525.629	239.62
3528.492	240.62
3531.352	216.62
3534.211	215.62
3537.067	194.62
3539.921	179.62
3542.773	168.62
3545.622	167.62
3548.469	149.62
3551.315	144.62
3554.157	133.62
3556.998	128.62
3559.837	126.62
3562.673	118.62
3565.507	109.62
3568.339	95.62
3571.169	87.62
3573.996	87.62
3576.822	78.62
3579.645	69.62
3582.466	66.62
3585.285	59.62
3588.101	51.62
3590.916	55.62
3593.728	44.62
3596.538	45.62
3599.346	38.62
3602.152	29.62
3604.956	21.62
3607.757	18.62
3610.556	8.62
3613.354	4.62
3616.149	8.62
3618.942	-3.38
3621.732	-6.38
3624.521	-2.38
3627.307	-8.38
3630.092	-11.38
3632.874	-8.38
3635.654	-23.38
3638.432	-23.38
3641.208	-27.38
3643.982	-32.38
3646.753	-36.38
3649.523	-32.38
3652.29	-37.38
3655.055	-39.38
3657.818	-40.38
3660.579	-45.38
3663.338	-44.38
3666.095	-53.38
3668.849	-54.38
3671.602	-59.38
3674.352	-60.38
3677.101	-61.38
3679.847	-64.38
3682.591	-73.38
3685.333	-68.38
3688.073	-68.38
3690.811	-68.38
3693.547	-75.38
3696.281	-71.38
3699.013	-73.38
3701.742	-75.38
3704.47	-81.38
3707.195	-78.38
3709.919	-82.38
3712.64	-81.38
3715.359	-90.38
3718.076	-90.38
3720.792	-88.38
3723.505	-89.38
3726.216	-87.38
3728.925	-89.38
3731.632	-90.38
3734.336	-87.38
3737.039	-98.38
3739.74	-94.38
3742.439	-96.38
3745.136	-97.38
3747.83	-101.38
3750.523	-95.38
3753.213	-96.38
3755.902	-98.38
3758.589	-95.38
3761.273	-98.38
3763.956	-92.38
3766.636	-99.38
3769.315	-99.38
3771.991	-102.38
3774.665	-100.38
3777.338	-100.38
3780.008	-104.38
3782.677	-98.38
3785.343	-104.38
3788.007	-96.38
3790.67	-102.38
3793.33	-103.38
3795.989	-106.38
3798.645	-105.38
3801.299	-103.38
3803.952	-106.38
3806.602	-104.38
3809.251	-105.38
3811.897	-105.38
3814.542	-106.38
3817.184	-101.38
3819.825	-103.38
3822.463	-105.38
3825.1	-104.38
3827.735	-110.38
3830.367	-108.38
3832.998	-107.38
3835.627	-112.38
3838.253	-109.38
3840.878	-108.38
3843.501	-109.38
3846.122	-110.38
3848.741	-105.38
3851.358	-107.38
3853.973	-113.38
3856.586	-106.38
3859.197	-113.38
3861.806	-114.38
3864.414	-111.38
3867.019	-108.38
3869.622	-109.38
3872.224	-113.38
3874.823	-104.38
3877.421	-105.38
3880.016	-103.38
3882.61	-102.38
3885.202	-100.38
3887.792	-101.38
3890.38	-110.38
3892.966	-109.38
3895.55	-116.38
3898.132	-114.38
3900.713	-112.38
3903.291	-112.38
3905.868	-109.38
3908.442	-113.38
3911.015	-112.38
3913.586	-114.38
3916.155	-111.38
3918.722	-115.38
3921.287	-115.38
3923.85	-115.38
3926.411	-117.38
3928.971	-111.38
3931.528	-115.38
3934.084	-111.38
3936.638	-110.38
3939.19	-114.38
3941.74	-112.38
3944.288	-118.38
3946.834	-116.38
3949.378	-111.38
3951.921	-114.38
3954.462	-112.38
3957	-115.38
3959.537	-114.38
3962.072	-115.38
3964.606	-116.38
3967.137	-112.38
3969.667	-113.38
3972.194	-118.38
3974.72	-110.38
3977.244	-115.38
3979.766	-111.38
3982.286	-113.38
3984.805	-110.38
3987.321	-113.38
3989.836	-116.38
3992.349	-114.38
3994.86	-112.38
3997.369	-112.38
3999.877	-117.38
4002.382	-112.38
4004.886	-112.38
4007.388	-110.38
4009.888	-112.38
4012.386	-112.38
4014.883	-110.38
4017.377	-113.38
4019.87	-112.38
4022.361	-118.38
4024.85	-116.38
4027.338	-119.38
4029.823	-113.38
4032.307	-110.38
4034.789	-109.38
4037.269	-113.38
4039.747	-109.38
4042.224	-112.38
4044.699	-120.38
4047.172	-116.38
4049.643	-116.38
4052.112	-116.38
4054.58	-121.38
4057.046	-119.38
4059.51	-118.38
4061.972	-117.38
4064.432	-112.38
4066.891	-113.38
4069.348	-111.38
4071.803	-114.38
4074.256	-119.38
4076.708	-113.38
4079.158	-119.38
4081.606	-118.38
4084.052	-116.38
4086.497	-115.38
4088.939	-112.38
4091.38	-115.38
4093.819	-115.38
4096.257	-122.38
4098.693	-119.38
4101.127	-117.38
4103.559	-118.38
4105.989	-76.38
4108.418	-72.38
4110.845	-73.38
4113.27	-67.38
4115.694	-68.38
4118.115	-48.38
4120.535	-108.38
4122.954	-116.38
4125.37	-113.38
4127.785	-116.38
4130.198	-117.38
4132.609	-114.38
4135.019	-117.38
4137.427	-115.38
4139.833	-117.38
4142.237	-116.38
