Data from 100CFU3_B_RamanShift_1.txt Node
Date: Tue Jan 31 14:25:27 IST 2017
User: aro
Spectrometer: QEPB0276
Trigger mode: 0
Integration Time (sec): 5.000000E0
Scans to average: 1
Electric dark correction enabled: true
Nonlinearity correction enabled: false
Boxcar width: 0
XAxis mode: Raman Shifts
Number of Pixels in Spectrum: 1044
>>>>>Begin Spectral Data<<<<<
160.701	-37.5
166.742	-1.5
172.777	98.5
178.805	398.5
184.826	1101.5
190.841	2256.5
196.849	3527.5
202.85	4353.5
208.845	4511.5
214.833	4389.5
220.815	4211.5
226.789	4101.5
232.758	4005.5
238.719	3864.5
244.674	3730.5
250.623	3549.5
256.565	3400.5
262.5	3214.5
268.429	3079.5
274.351	2927.5
280.267	2822.5
286.176	2725.5
292.079	2636.5
297.975	2540.5
303.865	2457.5
309.748	2409.5
315.625	2336.5
321.495	2294.5
327.359	2258.5
333.217	2235.5
339.068	2205.5
344.912	2199.5
350.751	2187.5
356.583	2183.5
362.408	2198.5
368.227	2160.5
374.04	2184.5
379.847	2208.5
385.647	2224.5
391.44	2204.5
397.228	2248.5
403.009	2247.5
408.784	2279.5
414.553	2275.5
420.315	2268.5
426.071	2260.5
431.821	2256.5
437.565	2258.5
443.302	2266.5
449.033	2243.5
454.758	2225.5
460.477	2207.5
466.189	2218.5
471.896	2207.5
477.596	2208.5
483.29	2177.5
488.978	2172.5
494.66	2164.5
500.335	2124.5
506.005	2098.5
511.668	2057.5
517.325	2033.5
522.977	1988.5
528.622	1951.5
534.261	1955.5
539.894	1930.5
545.521	1904.5
551.141	1900.5
556.756	1895.5
562.365	1869.5
567.968	1869.5
573.565	1839.5
579.155	1824.5
584.74	1811.5
590.319	1811.5
595.892	1800.5
601.459	1785.5
607.02	1789.5
612.575	1753.5
618.124	1756.5
623.667	1735.5
629.204	1720.5
634.735	1696.5
640.261	1689.5
645.781	1685.5
651.294	1683.5
656.802	1654.5
662.304	1645.5
667.8	1638.5
673.29	1639.5
678.775	1628.5
684.254	1640.5
689.726	1626.5
695.193	1605.5
700.655	1606.5
706.11	1584.5
711.56	1576.5
717.004	1577.5
722.442	1567.5
727.874	1534.5
733.301	1547.5
738.722	1533.5
744.137	1514.5
749.547	1530.5
754.951	1506.5
760.349	1509.5
765.741	1516.5
771.128	1524.5
776.509	1512.5
781.885	1518.5
787.254	1516.5
792.618	1508.5
797.977	1504.5
803.33	1483.5
808.677	1483.5
814.019	1464.5
819.355	1446.5
824.686	1420.5
830.011	1417.5
835.33	1411.5
840.644	1398.5
845.952	1387.5
851.255	1379.5
856.552	1367.5
861.844	1368.5
867.13	1358.5
872.41	1337.5
877.686	1345.5
882.955	1335.5
888.219	1317.5
893.478	1308.5
898.731	1265.5
903.979	1256.5
909.221	1248.5
914.458	1227.5
919.69	1214.5
924.916	1191.5
930.136	1202.5
935.351	1211.5
940.561	1197.5
945.766	1209.5
950.965	1176.5
956.158	1199.5
961.347	1193.5
966.529	1163.5
971.707	1145.5
976.879	1124.5
982.046	1120.5
987.208	1111.5
992.364	1122.5
997.515	1115.5
1002.66	1128.5
1007.801	1133.5
1012.936	1134.5
1018.066	1140.5
1023.19	1159.5
1028.309	1160.5
1033.423	1168.5
1038.532	1155.5
1043.636	1145.5
1048.734	1130.5
1053.827	1120.5
1058.915	1115.5
1063.998	1098.5
1069.075	1089.5
1074.147	1115.5
1079.214	1103.5
1084.276	1113.5
1089.333	1100.5
1094.385	1116.5
1099.431	1124.5
1104.472	1142.5
1109.509	1127.5
1114.54	1123.5
1119.565	1102.5
1124.586	1107.5
1129.602	1095.5
1134.613	1075.5
1139.618	1076.5
1144.619	1081.5
1149.614	1094.5
1154.604	1087.5
1159.589	1087.5
1164.57	1098.5
1169.545	1090.5
1174.515	1099.5
1179.48	1105.5
1184.44	1108.5
1189.395	1097.5
1194.345	1095.5
1199.29	1077.5
1204.23	1097.5
1209.165	1082.5
1214.095	1079.5
1219.021	1096.5
1223.941	1087.5
1228.856	1098.5
1233.766	1101.5
1238.672	1117.5
1243.572	1114.5
1248.467	1108.5
1253.358	1095.5
1258.244	1077.5
1263.124	1078.5
1268	1062.5
1272.871	1052.5
1277.737	1042.5
1282.599	1028.5
1287.455	1034.5
1292.306	1028.5
1297.153	1043.5
1301.995	1048.5
1306.832	1052.5
1311.664	1067.5
1316.491	1065.5
1321.314	1065.5
1326.132	1072.5
1330.945	1042.5
1335.753	1039.5
1340.556	1030.5
1345.354	1025.5
1350.148	1014.5
1354.937	992.5
1359.722	991.5
1364.501	979.5
1369.276	975.5
1374.046	946.5
1378.811	958.5
1383.572	947.5
1388.327	956.5
1393.079	941.5
1397.825	944.5
1402.567	964.5
1407.304	939.5
1412.036	941.5
1416.764	933.5
1421.487	945.5
1426.205	938.5
1430.919	949.5
1435.628	945.5
1440.333	964.5
1445.032	967.5
1449.727	979.5
1454.418	975.5
1459.104	978.5
1463.785	992.5
1468.462	980.5
1473.134	972.5
1477.802	974.5
1482.465	949.5
1487.123	954.5
1491.777	939.5
1496.426	971.5
1501.071	963.5
1505.711	979.5
1510.347	982.5
1514.978	1002.5
1519.604	1010.5
1524.226	1001.5
1528.844	1008.5
1533.457	1005.5
1538.065	1022.5
1542.669	1012.5
1547.269	1015.5
1551.864	1006.5
1556.454	1006.5
1561.041	1018.5
1565.622	1020.5
1570.199	1037.5
1574.772	1051.5
1579.34	1072.5
1583.904	1094.5
1588.464	1117.5
1593.019	1138.5
1597.569	1161.5
1602.115	1171.5
1606.657	1187.5
1611.195	1194.5
1615.728	1216.5
1620.256	1217.5
1624.78	1217.5
1629.3	1253.5
1633.816	1284.5
1638.327	1293.5
1642.834	1304.5
1647.336	1316.5
1651.834	1323.5
1656.328	1300.5
1660.817	1298.5
1665.302	1284.5
1669.783	1257.5
1674.259	1245.5
1678.732	1205.5
1683.199	1174.5
1687.663	1128.5
1692.122	1086.5
1696.577	1030.5
1701.028	992.5
1705.474	943.5
1709.917	888.5
1714.355	899.5
1718.788	879.5
1723.218	871.5
1727.643	837.5
1732.064	829.5
1736.481	802.5
1740.893	785.5
1745.301	765.5
1749.705	746.5
1754.105	724.5
1758.501	703.5
1762.893	695.5
1767.28	686.5
1771.663	675.5
1776.042	673.5
1780.417	680.5
1784.787	671.5
1789.154	672.5
1793.516	658.5
1797.874	670.5
1802.228	665.5
1806.578	653.5
1810.924	651.5
1815.266	640.5
1819.603	626.5
1823.937	615.5
1828.266	622.5
1832.591	619.5
1836.913	606.5
1841.23	601.5
1845.543	590.5
1849.852	609.5
1854.156	607.5
1858.457	604.5
1862.754	608.5
1867.047	605.5
1871.335	627.5
1875.62	619.5
1879.9	618.5
1884.177	621.5
1888.449	628.5
1892.718	613.5
1896.982	626.5
1901.243	625.5
1905.499	612.5
1909.752	612.5
1914	625.5
1918.245	616.5
1922.485	619.5
1926.722	624.5
1930.954	617.5
1935.183	622.5
1939.408	625.5
1943.628	614.5
1947.845	627.5
1952.058	626.5
1956.267	621.5
1960.472	617.5
1964.673	611.5
1968.87	597.5
1973.063	587.5
1977.252	583.5
1981.438	589.5
1985.619	588.5
1989.797	584.5
1993.971	585.5
1998.14	581.5
2002.306	602.5
2006.469	589.5
2010.627	590.5
2014.781	605.5
2018.932	597.5
2023.078	592.5
2027.221	615.5
2031.36	599.5
2035.495	590.5
2039.627	583.5
2043.754	579.5
2047.878	573.5
2051.998	583.5
2056.114	585.5
2060.226	573.5
2064.334	587.5
2068.439	602.5
2072.54	607.5
2076.637	598.5
2080.73	590.5
2084.82	604.5
2088.906	614.5
2092.988	603.5
2097.066	605.5
2101.14	604.5
2105.211	607.5
2109.278	599.5
2113.342	597.5
2117.401	586.5
2121.457	579.5
2125.509	576.5
2129.558	575.5
2133.602	561.5
2137.643	572.5
2141.681	563.5
2145.714	560.5
2149.744	553.5
2153.77	562.5
2157.793	543.5
2161.812	542.5
2165.827	546.5
2169.838	544.5
2173.846	523.5
2177.851	528.5
2181.851	503.5
2185.848	502.5
2189.841	513.5
2193.831	502.5
2197.817	486.5
2201.799	486.5
2205.778	494.5
2209.753	492.5
2213.725	490.5
2217.693	478.5
2221.657	478.5
2225.618	481.5
2229.575	490.5
2233.529	478.5
2237.479	469.5
2241.425	476.5
2245.368	459.5
2249.307	458.5
2253.243	442.5
2257.175	438.5
2261.104	438.5
2265.029	429.5
2268.95	428.5
2272.868	416.5
2276.783	406.5
2280.694	405.5
2284.601	400.5
2288.505	395.5
2292.405	389.5
2296.302	383.5
2300.195	383.5
2304.085	381.5
2307.971	362.5
2311.854	365.5
2315.734	359.5
2319.609	353.5
2323.482	349.5
2327.351	340.5
2331.216	344.5
2335.078	328.5
2338.937	324.5
2342.792	323.5
2346.643	328.5
2350.492	321.5
2354.336	322.5
2358.178	329.5
2362.015	327.5
2365.85	322.5
2369.681	331.5
2373.508	333.5
2377.333	324.5
2381.153	332.5
2384.971	338.5
2388.785	327.5
2392.595	324.5
2396.402	323.5
2400.206	307.5
2404.007	319.5
2407.804	315.5
2411.597	317.5
2415.388	315.5
2419.174	310.5
2422.958	309.5
2426.738	315.5
2430.515	314.5
2434.289	311.5
2438.059	298.5
2441.825	314.5
2445.589	295.5
2449.349	309.5
2453.106	292.5
2456.859	293.5
2460.61	300.5
2464.356	293.5
2468.1	287.5
2471.84	291.5
2475.577	291.5
2479.311	293.5
2483.041	286.5
2486.768	289.5
2490.492	285.5
2494.213	283.5
2497.93	281.5
2501.644	284.5
2505.355	290.5
2509.062	285.5
2512.766	284.5
2516.467	282.5
2520.165	272.5
2523.859	284.5
2527.551	281.5
2531.239	277.5
2534.923	270.5
2538.605	270.5
2542.283	260.5
2545.958	256.5
2549.63	264.5
2553.299	267.5
2556.964	252.5
2560.626	256.5
2564.285	259.5
2567.941	256.5
2571.594	252.5
2575.243	251.5
2578.89	244.5
2582.533	249.5
2586.173	241.5
2589.809	247.5
2593.443	243.5
2597.073	239.5
2600.701	242.5
2604.325	245.5
2607.946	241.5
2611.564	234.5
2615.178	235.5
2618.79	234.5
2622.398	215.5
2626.004	231.5
2629.606	227.5
2633.205	224.5
2636.801	223.5
2640.394	223.5
2643.983	212.5
2647.57	227.5
2651.153	225.5
2654.734	209.5
2658.311	205.5
2661.885	207.5
2665.456	196.5
2669.025	196.5
2672.589	202.5
2676.151	198.5
2679.71	196.5
2683.266	206.5
2686.819	199.5
2690.368	195.5
2693.915	188.5
2697.458	196.5
2700.999	190.5
2704.536	187.5
2708.071	173.5
2711.602	188.5
2715.13	185.5
2718.656	182.5
2722.178	186.5
2725.697	190.5
2729.214	186.5
2732.727	189.5
2736.237	188.5
2739.744	187.5
2743.249	190.5
2746.75	195.5
2750.248	187.5
2753.743	185.5
2757.236	189.5
2760.725	185.5
2764.211	187.5
2767.695	186.5
2771.175	184.5
2774.652	176.5
2778.127	184.5
2781.598	180.5
2785.067	178.5
2788.532	185.5
2791.995	172.5
2795.455	180.5
2798.911	182.5
2802.365	185.5
2805.816	190.5
2809.264	192.5
2812.709	181.5
2816.151	186.5
2819.59	192.5
2823.026	186.5
2826.46	193.5
2829.89	190.5
2833.318	193.5
2836.742	193.5
2840.164	194.5
2843.583	196.5
2846.999	200.5
2850.412	202.5
2853.822	196.5
2857.229	209.5
2860.634	215.5
2864.035	220.5
2867.434	221.5
2870.83	218.5
2874.223	223.5
2877.613	222.5
2881	213.5
2884.385	233.5
2887.766	224.5
2891.145	223.5
2894.521	222.5
2897.894	227.5
2901.264	229.5
2904.631	235.5
2907.996	234.5
2911.358	238.5
2914.717	239.5
2918.073	244.5
2921.426	246.5
2924.777	252.5
2928.124	255.5
2931.469	264.5
2934.811	271.5
2938.15	276.5
2941.487	282.5
2944.821	292.5
2948.152	285.5
2951.48	296.5
2954.805	302.5
2958.128	315.5
2961.447	310.5
2964.765	325.5
2968.079	324.5
2971.39	330.5
2974.699	341.5
2978.005	346.5
2981.308	353.5
2984.609	374.5
2987.907	373.5
2991.202	383.5
2994.494	399.5
2997.784	406.5
3001.07	416.5
3004.355	441.5
3007.636	445.5
3010.915	454.5
3014.191	470.5
3017.464	482.5
3020.734	484.5
3024.002	488.5
3027.267	498.5
3030.53	517.5
3033.789	516.5
3037.046	528.5
3040.301	548.5
3043.552	558.5
3046.801	574.5
3050.048	600.5
3053.291	599.5
3056.532	625.5
3059.771	648.5
3063.006	659.5
3066.239	682.5
3069.469	710.5
3072.697	724.5
3075.922	749.5
3079.144	768.5
3082.364	785.5
3085.581	813.5
3088.795	827.5
3092.007	852.5
3095.216	861.5
3098.423	888.5
3101.627	913.5
3104.828	918.5
3108.026	949.5
3111.222	974.5
3114.416	985.5
3117.607	1014.5
3120.795	1050.5
3123.98	1075.5
3127.163	1089.5
3130.344	1118.5
3133.521	1142.5
3136.696	1169.5
3139.869	1193.5
3143.039	1211.5
3146.206	1220.5
3149.371	1254.5
3152.533	1258.5
3155.693	1273.5
3158.85	1291.5
3162.005	1311.5
3165.157	1304.5
3168.306	1306.5
3171.453	1314.5
3174.597	1327.5
3177.739	1314.5
3180.878	1318.5
3184.014	1323.5
3187.149	1335.5
3190.28	1336.5
3193.409	1339.5
3196.536	1366.5
3199.659	1350.5
3202.781	1356.5
3205.9	1357.5
3209.016	1360.5
3212.13	1367.5
3215.241	1353.5
3218.35	1363.5
3221.456	1366.5
3224.56	1348.5
3227.661	1343.5
3230.76	1323.5
3233.856	1311.5
3236.95	1300.5
3240.041	1271.5
3243.13	1286.5
3246.216	1255.5
3249.3	1257.5
3252.382	1250.5
3255.46	1222.5
3258.537	1234.5
3261.611	1221.5
3264.682	1208.5
3267.751	1218.5
3270.818	1205.5
3273.882	1191.5
3276.943	1179.5
3280.002	1176.5
3283.059	1161.5
3286.113	1158.5
3289.165	1140.5
3292.214	1138.5
3295.261	1125.5
3298.306	1109.5
3301.348	1082.5
3304.387	1081.5
3307.425	1064.5
3310.459	1028.5
3313.492	1027.5
3316.521	995.5
3319.549	993.5
3322.574	975.5
3325.597	971.5
3328.617	966.5
3331.635	968.5
3334.65	965.5
3337.663	953.5
3340.674	943.5
3343.682	947.5
3346.688	928.5
3349.691	932.5
3352.692	933.5
3355.691	928.5
3358.687	948.5
3361.681	924.5
3364.673	900.5
3367.662	905.5
3370.649	885.5
3373.633	887.5
3376.615	879.5
3379.595	836.5
3382.572	838.5
3385.547	836.5
3388.52	826.5
3391.49	807.5
3394.458	804.5
3397.424	789.5
3400.387	781.5
3403.348	773.5
3406.307	754.5
3409.263	752.5
3412.217	742.5
3415.168	726.5
3418.118	715.5
3421.065	729.5
3424.009	711.5
3426.951	695.5
3429.891	693.5
3432.829	681.5
3435.764	665.5
3438.697	654.5
3441.628	629.5
3444.557	634.5
3447.483	607.5
3450.407	590.5
3453.328	580.5
3456.247	564.5
3459.164	542.5
3462.079	537.5
3464.991	513.5
3467.902	500.5
3470.809	483.5
3473.715	468.5
3476.618	448.5
3479.519	441.5
3482.418	427.5
3485.315	423.5
3488.209	404.5
3491.101	393.5
3493.99	388.5
3496.878	368.5
3499.763	372.5
3502.646	347.5
3505.527	335.5
3508.405	324.5
3511.281	304.5
3514.155	292.5
3517.027	294.5
3519.897	273.5
3522.764	262.5
3525.629	253.5
3528.492	244.5
3531.352	233.5
3534.211	206.5
3537.067	194.5
3539.921	186.5
3542.773	183.5
3545.622	164.5
3548.469	157.5
3551.315	143.5
3554.157	144.5
3556.998	135.5
3559.837	119.5
3562.673	123.5
3565.507	111.5
3568.339	97.5
3571.169	93.5
3573.996	83.5
3576.822	82.5
3579.645	79.5
3582.466	69.5
3585.285	66.5
3588.101	56.5
3590.916	57.5
3593.728	50.5
3596.538	42.5
3599.346	38.5
3602.152	34.5
3604.956	24.5
3607.757	19.5
3610.556	17.5
3613.354	6.5
3616.149	15.5
3618.942	4.5
3621.732	-1.5
3624.521	3.5
3627.307	1.5
3630.092	-8.5
3632.874	-9.5
3635.654	-22.5
3638.432	-24.5
3641.208	-23.5
3643.982	-26.5
3646.753	-26.5
3649.523	-30.5
3652.29	-29.5
3655.055	-34.5
3657.818	-38.5
3660.579	-38.5
3663.338	-39.5
3666.095	-50.5
3668.849	-52.5
3671.602	-59.5
3674.352	-56.5
3677.101	-59.5
3679.847	-64.5
3682.591	-62.5
3685.333	-64.5
3688.073	-65.5
3690.811	-63.5
3693.547	-70.5
3696.281	-70.5
3699.013	-72.5
3701.742	-73.5
3704.47	-76.5
3707.195	-80.5
3709.919	-80.5
3712.64	-81.5
3715.359	-83.5
3718.076	-84.5
3720.792	-82.5
3723.505	-85.5
3726.216	-78.5
3728.925	-87.5
3731.632	-85.5
3734.336	-86.5
3737.039	-90.5
3739.74	-93.5
3742.439	-94.5
3745.136	-93.5
3747.83	-93.5
3750.523	-93.5
3753.213	-96.5
3755.902	-91.5
3758.589	-89.5
3761.273	-88.5
3763.956	-91.5
3766.636	-95.5
3769.315	-95.5
3771.991	-96.5
3774.665	-97.5
3777.338	-102.5
3780.008	-100.5
3782.677	-96.5
3785.343	-101.5
3788.007	-98.5
3790.67	-98.5
3793.33	-97.5
3795.989	-100.5
3798.645	-99.5
3801.299	-100.5
3803.952	-107.5
3806.602	-103.5
3809.251	-101.5
3811.897	-102.5
3814.542	-104.5
3817.184	-100.5
3819.825	-101.5
3822.463	-100.5
3825.1	-103.5
3827.735	-103.5
3830.367	-100.5
3832.998	-108.5
3835.627	-108.5
3838.253	-106.5
3840.878	-106.5
3843.501	-105.5
3846.122	-102.5
3848.741	-104.5
3851.358	-105.5
3853.973	-106.5
3856.586	-104.5
3859.197	-105.5
3861.806	-105.5
3864.414	-103.5
3867.019	-108.5
3869.622	-107.5
3872.224	-111.5
3874.823	-106.5
3877.421	-103.5
3880.016	-99.5
3882.61	-93.5
3885.202	-92.5
3887.792	-96.5
3890.38	-99.5
3892.966	-104.5
3895.55	-109.5
3898.132	-110.5
3900.713	-109.5
3903.291	-109.5
3905.868	-106.5
3908.442	-109.5
3911.015	-105.5
3913.586	-107.5
3916.155	-106.5
3918.722	-110.5
3921.287	-103.5
3923.85	-112.5
3926.411	-112.5
3928.971	-109.5
3931.528	-116.5
3934.084	-110.5
3936.638	-107.5
3939.19	-108.5
3941.74	-107.5
3944.288	-110.5
3946.834	-106.5
3949.378	-107.5
3951.921	-107.5
3954.462	-110.5
3957	-113.5
3959.537	-115.5
3962.072	-107.5
3964.606	-111.5
3967.137	-109.5
3969.667	-109.5
3972.194	-106.5
3974.72	-105.5
3977.244	-107.5
3979.766	-110.5
3982.286	-102.5
3984.805	-109.5
3987.321	-113.5
3989.836	-113.5
3992.349	-112.5
3994.86	-112.5
3997.369	-107.5
3999.877	-112.5
4002.382	-105.5
4004.886	-106.5
4007.388	-106.5
4009.888	-107.5
4012.386	-110.5
4014.883	-110.5
4017.377	-110.5
4019.87	-112.5
4022.361	-112.5
4024.85	-111.5
4027.338	-110.5
4029.823	-108.5
4032.307	-104.5
4034.789	-104.5
4037.269	-108.5
4039.747	-108.5
4042.224	-110.5
4044.699	-116.5
4047.172	-113.5
4049.643	-114.5
4052.112	-115.5
4054.58	-115.5
4057.046	-112.5
4059.51	-110.5
4061.972	-111.5
4064.432	-110.5
4066.891	-108.5
4069.348	-108.5
4071.803	-109.5
4074.256	-114.5
4076.708	-110.5
4079.158	-116.5
4081.606	-112.5
4084.052	-107.5
4086.497	-112.5
4088.939	-107.5
4091.38	-108.5
4093.819	-111.5
4096.257	-115.5
4098.693	-115.5
4101.127	-111.5
4103.559	-113.5
4105.989	-75.5
4108.418	-71.5
4110.845	-63.5
4113.27	-65.5
4115.694	-59.5
4118.115	-51.5
4120.535	-107.5
4122.954	-114.5
4125.37	-110.5
4127.785	-113.5
4130.198	-113.5
4132.609	-113.5
4135.019	-117.5
4137.427	-114.5
4139.833	-111.5
4142.237	-114.5
