Data from 100CFU2_B_RamanShift_1.txt Node
Date: Tue Jan 31 14:24:27 IST 2017
User: aro
Spectrometer: QEPB0276
Trigger mode: 0
Integration Time (sec): 5.000000E0
Scans to average: 1
Electric dark correction enabled: true
Nonlinearity correction enabled: false
Boxcar width: 0
XAxis mode: Raman Shifts
Number of Pixels in Spectrum: 1044
>>>>>Begin Spectral Data<<<<<
160.701	-39.38
166.742	-2.38
172.777	101.62
178.805	412.62
184.826	1152.62
190.841	2355.62
196.849	3702.62
202.85	4538.62
208.845	4732.62
214.833	4586.62
220.815	4420.62
226.789	4246.62
232.758	4174.62
238.719	4057.62
244.674	3895.62
250.623	3733.62
256.565	3568.62
262.5	3398.62
268.429	3216.62
274.351	3113.62
280.267	3003.62
286.176	2895.62
292.079	2767.62
297.975	2700.62
303.865	2624.62
309.748	2562.62
315.625	2480.62
321.495	2441.62
327.359	2400.62
333.217	2370.62
339.068	2367.62
344.912	2352.62
350.751	2333.62
356.583	2317.62
362.408	2349.62
368.227	2322.62
374.04	2342.62
379.847	2351.62
385.647	2365.62
391.44	2362.62
397.228	2385.62
403.009	2401.62
408.784	2407.62
414.553	2398.62
420.315	2406.62
426.071	2424.62
431.821	2415.62
437.565	2398.62
443.302	2411.62
449.033	2404.62
454.758	2398.62
460.477	2371.62
466.189	2362.62
471.896	2375.62
477.596	2353.62
483.29	2347.62
488.978	2323.62
494.66	2325.62
500.335	2288.62
506.005	2242.62
511.668	2206.62
517.325	2179.62
522.977	2146.62
528.622	2110.62
534.261	2093.62
539.894	2055.62
545.521	2036.62
551.141	2032.62
556.756	2017.62
562.365	2032.62
567.968	2004.62
573.565	2005.62
579.155	1980.62
584.74	1961.62
590.319	1948.62
595.892	1951.62
601.459	1936.62
607.02	1909.62
612.575	1907.62
618.124	1893.62
623.667	1867.62
629.204	1838.62
634.735	1833.62
640.261	1826.62
645.781	1822.62
651.294	1784.62
656.802	1782.62
662.304	1775.62
667.8	1768.62
673.29	1774.62
678.775	1766.62
684.254	1752.62
689.726	1745.62
695.193	1753.62
700.655	1746.62
706.11	1749.62
711.56	1728.62
717.004	1704.62
722.442	1684.62
727.874	1680.62
733.301	1660.62
738.722	1668.62
744.137	1656.62
749.547	1645.62
754.951	1644.62
760.349	1638.62
765.741	1634.62
771.128	1656.62
776.509	1636.62
781.885	1663.62
787.254	1652.62
792.618	1640.62
797.977	1631.62
803.33	1593.62
808.677	1613.62
814.019	1593.62
819.355	1584.62
824.686	1570.62
830.011	1549.62
835.33	1542.62
840.644	1525.62
845.952	1512.62
851.255	1491.62
856.552	1513.62
861.844	1513.62
867.13	1484.62
872.41	1495.62
877.686	1479.62
882.955	1444.62
888.219	1440.62
893.478	1421.62
898.731	1392.62
903.979	1389.62
909.221	1364.62
914.458	1341.62
919.69	1347.62
924.916	1335.62
930.136	1327.62
935.351	1327.62
940.561	1332.62
945.766	1331.62
950.965	1321.62
956.158	1311.62
961.347	1299.62
966.529	1289.62
971.707	1275.62
976.879	1270.62
982.046	1247.62
987.208	1239.62
992.364	1222.62
997.515	1229.62
1002.66	1245.62
1007.801	1256.62
1012.936	1263.62
1018.066	1278.62
1023.19	1282.62
1028.309	1285.62
1033.423	1297.62
1038.532	1293.62
1043.636	1284.62
1048.734	1247.62
1053.827	1256.62
1058.915	1233.62
1063.998	1233.62
1069.075	1232.62
1074.147	1238.62
1079.214	1224.62
1084.276	1239.62
1089.333	1245.62
1094.385	1246.62
1099.431	1270.62
1104.472	1278.62
1109.509	1270.62
1114.54	1252.62
1119.565	1235.62
1124.586	1236.62
1129.602	1206.62
1134.613	1198.62
1139.618	1198.62
1144.619	1195.62
1149.614	1207.62
1154.604	1204.62
1159.589	1222.62
1164.57	1219.62
1169.545	1208.62
1174.515	1231.62
1179.48	1241.62
1184.44	1221.62
1189.395	1205.62
1194.345	1209.62
1199.29	1215.62
1204.23	1207.62
1209.165	1210.62
1214.095	1215.62
1219.021	1215.62
1223.941	1223.62
1228.856	1231.62
1233.766	1247.62
1238.672	1249.62
1243.572	1257.62
1248.467	1237.62
1253.358	1228.62
1258.244	1221.62
1263.124	1202.62
1268	1181.62
1272.871	1175.62
1277.737	1160.62
1282.599	1161.62
1287.455	1147.62
1292.306	1139.62
1297.153	1163.62
1301.995	1160.62
1306.832	1168.62
1311.664	1182.62
1316.491	1192.62
1321.314	1196.62
1326.132	1189.62
1330.945	1177.62
1335.753	1157.62
1340.556	1167.62
1345.354	1147.62
1350.148	1126.62
1354.937	1110.62
1359.722	1120.62
1364.501	1102.62
1369.276	1090.62
1374.046	1070.62
1378.811	1074.62
1383.572	1078.62
1388.327	1064.62
1393.079	1077.62
1397.825	1069.62
1402.567	1057.62
1407.304	1061.62
1412.036	1057.62
1416.764	1040.62
1421.487	1050.62
1426.205	1050.62
1430.919	1063.62
1435.628	1055.62
1440.333	1081.62
1445.032	1098.62
1449.727	1086.62
1454.418	1098.62
1459.104	1106.62
1463.785	1101.62
1468.462	1099.62
1473.134	1082.62
1477.802	1078.62
1482.465	1076.62
1487.123	1067.62
1491.777	1077.62
1496.426	1068.62
1501.071	1084.62
1505.711	1084.62
1510.347	1096.62
1514.978	1103.62
1519.604	1120.62
1524.226	1131.62
1528.844	1120.62
1533.457	1114.62
1538.065	1117.62
1542.669	1115.62
1547.269	1127.62
1551.864	1108.62
1556.454	1122.62
1561.041	1128.62
1565.622	1132.62
1570.199	1150.62
1574.772	1193.62
1579.34	1186.62
1583.904	1212.62
1588.464	1219.62
1593.019	1263.62
1597.569	1285.62
1602.115	1301.62
1606.657	1317.62
1611.195	1316.62
1615.728	1317.62
1620.256	1340.62
1624.78	1363.62
1629.3	1367.62
1633.816	1393.62
1638.327	1421.62
1642.834	1435.62
1647.336	1428.62
1651.834	1433.62
1656.328	1453.62
1660.817	1431.62
1665.302	1399.62
1669.783	1409.62
1674.259	1352.62
1678.732	1322.62
1683.199	1293.62
1687.663	1242.62
1692.122	1205.62
1696.577	1151.62
1701.028	1080.62
1705.474	1027.62
1709.917	1004.62
1714.355	985.62
1718.788	960.62
1723.218	956.62
1727.643	939.62
1732.064	938.62
1736.481	906.62
1740.893	900.62
1745.301	873.62
1749.705	831.62
1754.105	823.62
1758.501	801.62
1762.893	781.62
1767.28	776.62
1771.663	759.62
1776.042	767.62
1780.417	783.62
1784.787	776.62
1789.154	760.62
1793.516	777.62
1797.874	759.62
1802.228	758.62
1806.578	739.62
1810.924	725.62
1815.266	716.62
1819.603	715.62
1823.937	692.62
1828.266	708.62
1832.591	704.62
1836.913	689.62
1841.23	697.62
1845.543	693.62
1849.852	673.62
1854.156	703.62
1858.457	700.62
1862.754	686.62
1867.047	709.62
1871.335	703.62
1875.62	717.62
1879.9	709.62
1884.177	728.62
1888.449	708.62
1892.718	708.62
1896.982	704.62
1901.243	711.62
1905.499	705.62
1909.752	698.62
1914	693.62
1918.245	701.62
1922.485	694.62
1926.722	701.62
1930.954	720.62
1935.183	717.62
1939.408	706.62
1943.628	706.62
1947.845	703.62
1952.058	700.62
1956.267	709.62
1960.472	683.62
1964.673	686.62
1968.87	692.62
1973.063	676.62
1977.252	668.62
1981.438	665.62
1985.619	660.62
1989.797	670.62
1993.971	663.62
1998.14	667.62
2002.306	667.62
2006.469	677.62
2010.627	657.62
2014.781	669.62
2018.932	683.62
2023.078	680.62
2027.221	683.62
2031.36	682.62
2035.495	687.62
2039.627	665.62
2043.754	660.62
2047.878	653.62
2051.998	649.62
2056.114	661.62
2060.226	651.62
2064.334	663.62
2068.439	674.62
2072.54	690.62
2076.637	672.62
2080.73	677.62
2084.82	680.62
2088.906	684.62
2092.988	679.62
2097.066	686.62
2101.14	670.62
2105.211	676.62
2109.278	674.62
2113.342	661.62
2117.401	656.62
2121.457	652.62
2125.509	654.62
2129.558	650.62
2133.602	632.62
2137.643	626.62
2141.681	630.62
2145.714	629.62
2149.744	627.62
2153.77	634.62
2157.793	624.62
2161.812	618.62
2165.827	619.62
2169.838	607.62
2173.846	589.62
2177.851	590.62
2181.851	573.62
2185.848	573.62
2189.841	564.62
2193.831	561.62
2197.817	558.62
2201.799	558.62
2205.778	559.62
2209.753	549.62
2213.725	548.62
2217.693	550.62
2221.657	559.62
2225.618	548.62
2229.575	553.62
2233.529	541.62
2237.479	547.62
2241.425	537.62
2245.368	532.62
2249.307	519.62
2253.243	517.62
2257.175	507.62
2261.104	506.62
2265.029	497.62
2268.95	482.62
2272.868	476.62
2276.783	472.62
2280.694	466.62
2284.601	458.62
2288.505	457.62
2292.405	450.62
2296.302	443.62
2300.195	446.62
2304.085	430.62
2307.971	427.62
2311.854	429.62
2315.734	399.62
2319.609	410.62
2323.482	402.62
2327.351	398.62
2331.216	396.62
2335.078	394.62
2338.937	391.62
2342.792	381.62
2346.643	384.62
2350.492	381.62
2354.336	384.62
2358.178	377.62
2362.015	372.62
2365.85	383.62
2369.681	379.62
2373.508	382.62
2377.333	385.62
2381.153	381.62
2384.971	386.62
2388.785	388.62
2392.595	383.62
2396.402	380.62
2400.206	372.62
2404.007	370.62
2407.804	359.62
2411.597	377.62
2415.388	367.62
2419.174	367.62
2422.958	352.62
2426.738	375.62
2430.515	364.62
2434.289	354.62
2438.059	350.62
2441.825	369.62
2445.589	361.62
2449.349	361.62
2453.106	347.62
2456.859	353.62
2460.61	344.62
2464.356	341.62
2468.1	340.62
2471.84	343.62
2475.577	332.62
2479.311	331.62
2483.041	341.62
2486.768	339.62
2490.492	328.62
2494.213	335.62
2497.93	335.62
2501.644	341.62
2505.355	339.62
2509.062	337.62
2512.766	340.62
2516.467	336.62
2520.165	334.62
2523.859	326.62
2527.551	328.62
2531.239	321.62
2534.923	321.62
2538.605	320.62
2542.283	311.62
2545.958	316.62
2549.63	299.62
2553.299	314.62
2556.964	309.62
2560.626	307.62
2564.285	307.62
2567.941	309.62
2571.594	300.62
2575.243	297.62
2578.89	297.62
2582.533	294.62
2586.173	296.62
2589.809	292.62
2593.443	289.62
2597.073	288.62
2600.701	282.62
2604.325	281.62
2607.946	283.62
2611.564	283.62
2615.178	267.62
2618.79	287.62
2622.398	268.62
2626.004	273.62
2629.606	273.62
2633.205	263.62
2636.801	268.62
2640.394	270.62
2643.983	265.62
2647.57	257.62
2651.153	249.62
2654.734	256.62
2658.311	245.62
2661.885	247.62
2665.456	242.62
2669.025	248.62
2672.589	242.62
2676.151	244.62
2679.71	235.62
2683.266	244.62
2686.819	233.62
2690.368	231.62
2693.915	234.62
2697.458	229.62
2700.999	226.62
2704.536	235.62
2708.071	220.62
2711.602	218.62
2715.13	230.62
2718.656	216.62
2722.178	222.62
2725.697	221.62
2729.214	225.62
2732.727	223.62
2736.237	223.62
2739.744	223.62
2743.249	228.62
2746.75	229.62
2750.248	234.62
2753.743	223.62
2757.236	219.62
2760.725	222.62
2764.211	223.62
2767.695	215.62
2771.175	207.62
2774.652	209.62
2778.127	212.62
2781.598	210.62
2785.067	213.62
2788.532	216.62
2791.995	212.62
2795.455	219.62
2798.911	215.62
2802.365	218.62
2805.816	217.62
2809.264	221.62
2812.709	217.62
2816.151	222.62
2819.59	225.62
2823.026	214.62
2826.46	216.62
2829.89	224.62
2833.318	231.62
2836.742	229.62
2840.164	229.62
2843.583	226.62
2846.999	235.62
2850.412	226.62
2853.822	230.62
2857.229	233.62
2860.634	243.62
2864.035	243.62
2867.434	252.62
2870.83	253.62
2874.223	263.62
2877.613	254.62
2881	250.62
2884.385	250.62
2887.766	256.62
2891.145	255.62
2894.521	250.62
2897.894	253.62
2901.264	259.62
2904.631	266.62
2907.996	268.62
2911.358	272.62
2914.717	271.62
2918.073	269.62
2921.426	273.62
2924.777	287.62
2928.124	286.62
2931.469	293.62
2934.811	304.62
2938.15	300.62
2941.487	314.62
2944.821	313.62
2948.152	315.62
2951.48	335.62
2954.805	326.62
2958.128	341.62
2961.447	343.62
2964.765	352.62
2968.079	358.62
2971.39	364.62
2974.699	368.62
2978.005	374.62
2981.308	383.62
2984.609	392.62
2987.907	400.62
2991.202	418.62
2994.494	434.62
2997.784	441.62
3001.07	455.62
3004.355	459.62
3007.636	474.62
3010.915	480.62
3014.191	484.62
3017.464	503.62
3020.734	522.62
3024.002	516.62
3027.267	528.62
3030.53	535.62
3033.789	540.62
3037.046	571.62
3040.301	578.62
3043.552	588.62
3046.801	601.62
3050.048	614.62
3053.291	642.62
3056.532	664.62
3059.771	677.62
3063.006	690.62
3066.239	727.62
3069.469	728.62
3072.697	764.62
3075.922	779.62
3079.144	807.62
3082.364	830.62
3085.581	846.62
3088.795	870.62
3092.007	881.62
3095.216	910.62
3098.423	928.62
3101.627	945.62
3104.828	966.62
3108.026	977.62
3111.222	1014.62
3114.416	1024.62
3117.607	1049.62
3120.795	1076.62
3123.98	1114.62
3127.163	1119.62
3130.344	1153.62
3133.521	1191.62
3136.696	1206.62
3139.869	1228.62
3143.039	1266.62
3146.206	1274.62
3149.371	1283.62
3152.533	1330.62
3155.693	1323.62
3158.85	1317.62
3162.005	1352.62
3165.157	1339.62
3168.306	1357.62
3171.453	1354.62
3174.597	1366.62
3177.739	1359.62
3180.878	1367.62
3184.014	1370.62
3187.149	1382.62
3190.28	1379.62
3193.409	1377.62
3196.536	1383.62
3199.659	1381.62
3202.781	1408.62
3205.9	1395.62
3209.016	1404.62
3212.13	1409.62
3215.241	1379.62
3218.35	1395.62
3221.456	1392.62
3224.56	1381.62
3227.661	1376.62
3230.76	1350.62
3233.856	1330.62
3236.95	1336.62
3240.041	1322.62
3243.13	1306.62
3246.216	1290.62
3249.3	1267.62
3252.382	1259.62
3255.46	1253.62
3258.537	1247.62
3261.611	1238.62
3264.682	1244.62
3267.751	1232.62
3270.818	1236.62
3273.882	1217.62
3276.943	1217.62
3280.002	1196.62
3283.059	1175.62
3286.113	1169.62
3289.165	1165.62
3292.214	1151.62
3295.261	1145.62
3298.306	1128.62
3301.348	1108.62
3304.387	1083.62
3307.425	1071.62
3310.459	1055.62
3313.492	1047.62
3316.521	1030.62
3319.549	1008.62
3322.574	1009.62
3325.597	1003.62
3328.617	999.62
3331.635	993.62
3334.65	975.62
3337.663	991.62
3340.674	979.62
3343.682	967.62
3346.688	967.62
3349.691	967.62
3352.692	959.62
3355.691	959.62
3358.687	952.62
3361.681	939.62
3364.673	931.62
3367.662	922.62
3370.649	913.62
3373.633	896.62
3376.615	884.62
3379.595	876.62
3382.572	855.62
3385.547	856.62
3388.52	840.62
3391.49	843.62
3394.458	809.62
3397.424	811.62
3400.387	795.62
3403.348	785.62
3406.307	769.62
3409.263	764.62
3412.217	760.62
3415.168	755.62
3418.118	744.62
3421.065	737.62
3424.009	729.62
3426.951	720.62
3429.891	707.62
3432.829	696.62
3435.764	687.62
3438.697	669.62
3441.628	658.62
3444.557	625.62
3447.483	621.62
3450.407	603.62
3453.328	596.62
3456.247	568.62
3459.164	555.62
3462.079	544.62
3464.991	531.62
3467.902	515.62
3470.809	496.62
3473.715	481.62
3476.618	459.62
3479.519	447.62
3482.418	434.62
3485.315	426.62
3488.209	409.62
3491.101	402.62
3493.99	388.62
3496.878	379.62
3499.763	366.62
3502.646	358.62
3505.527	335.62
3508.405	332.62
3511.281	317.62
3514.155	313.62
3517.027	286.62
3519.897	275.62
3522.764	269.62
3525.629	259.62
3528.492	241.62
3531.352	224.62
3534.211	213.62
3537.067	199.62
3539.921	187.62
3542.773	166.62
3545.622	169.62
3548.469	155.62
3551.315	146.62
3554.157	133.62
3556.998	133.62
3559.837	124.62
3562.673	119.62
3565.507	104.62
3568.339	104.62
3571.169	95.62
3573.996	89.62
3576.822	87.62
3579.645	75.62
3582.466	65.62
3585.285	62.62
3588.101	48.62
3590.916	51.62
3593.728	50.62
3596.538	35.62
3599.346	36.62
3602.152	32.62
3604.956	26.62
3607.757	24.62
3610.556	21.62
3613.354	6.62
3616.149	7.62
3618.942	4.62
3621.732	-6.38
3624.521	-6.38
3627.307	-6.38
3630.092	-9.38
3632.874	-9.38
3635.654	-24.38
3638.432	-24.38
3641.208	-23.38
3643.982	-23.38
3646.753	-32.38
3649.523	-30.38
3652.29	-39.38
3655.055	-41.38
3657.818	-40.38
3660.579	-43.38
3663.338	-51.38
3666.095	-49.38
3668.849	-51.38
3671.602	-58.38
3674.352	-54.38
3677.101	-57.38
3679.847	-66.38
3682.591	-70.38
3685.333	-66.38
3688.073	-69.38
3690.811	-72.38
3693.547	-72.38
3696.281	-72.38
3699.013	-75.38
3701.742	-76.38
3704.47	-79.38
3707.195	-82.38
3709.919	-79.38
3712.64	-88.38
3715.359	-84.38
3718.076	-83.38
3720.792	-84.38
3723.505	-85.38
3726.216	-84.38
3728.925	-87.38
3731.632	-85.38
3734.336	-88.38
3737.039	-100.38
3739.74	-97.38
3742.439	-93.38
3745.136	-97.38
3747.83	-98.38
3750.523	-99.38
3753.213	-97.38
3755.902	-97.38
3758.589	-89.38
3761.273	-97.38
3763.956	-96.38
3766.636	-102.38
3769.315	-101.38
3771.991	-98.38
3774.665	-104.38
3777.338	-103.38
3780.008	-101.38
3782.677	-100.38
3785.343	-103.38
3788.007	-99.38
3790.67	-101.38
3793.33	-101.38
3795.989	-102.38
3798.645	-107.38
3801.299	-102.38
3803.952	-109.38
3806.602	-103.38
3809.251	-104.38
3811.897	-108.38
3814.542	-107.38
3817.184	-104.38
3819.825	-104.38
3822.463	-104.38
3825.1	-105.38
3827.735	-107.38
3830.367	-107.38
3832.998	-113.38
3835.627	-107.38
3838.253	-109.38
3840.878	-108.38
3843.501	-106.38
3846.122	-112.38
3848.741	-102.38
3851.358	-111.38
3853.973	-109.38
3856.586	-107.38
3859.197	-112.38
3861.806	-112.38
3864.414	-108.38
3867.019	-111.38
3869.622	-109.38
3872.224	-112.38
3874.823	-108.38
3877.421	-105.38
3880.016	-97.38
3882.61	-99.38
3885.202	-96.38
3887.792	-98.38
3890.38	-107.38
3892.966	-110.38
3895.55	-110.38
3898.132	-113.38
3900.713	-112.38
3903.291	-116.38
3905.868	-107.38
3908.442	-114.38
3911.015	-110.38
3913.586	-117.38
3916.155	-110.38
3918.722	-117.38
3921.287	-114.38
3923.85	-114.38
3926.411	-114.38
3928.971	-111.38
3931.528	-117.38
3934.084	-112.38
3936.638	-110.38
3939.19	-114.38
3941.74	-111.38
3944.288	-115.38
3946.834	-114.38
3949.378	-116.38
3951.921	-116.38
3954.462	-118.38
3957	-118.38
3959.537	-118.38
3962.072	-114.38
3964.606	-113.38
3967.137	-106.38
3969.667	-112.38
3972.194	-112.38
3974.72	-109.38
3977.244	-115.38
3979.766	-115.38
3982.286	-112.38
3984.805	-111.38
3987.321	-112.38
3989.836	-116.38
3992.349	-113.38
3994.86	-113.38
3997.369	-111.38
3999.877	-117.38
4002.382	-109.38
4004.886	-113.38
4007.388	-107.38
4009.888	-113.38
4012.386	-111.38
4014.883	-113.38
4017.377	-115.38
4019.87	-112.38
4022.361	-115.38
4024.85	-117.38
4027.338	-112.38
4029.823	-110.38
4032.307	-110.38
4034.789	-109.38
4037.269	-113.38
4039.747	-114.38
4042.224	-115.38
4044.699	-122.38
4047.172	-119.38
4049.643	-118.38
4052.112	-118.38
4054.58	-116.38
4057.046	-116.38
4059.51	-113.38
4061.972	-116.38
4064.432	-115.38
4066.891	-115.38
4069.348	-114.38
4071.803	-119.38
4074.256	-121.38
4076.708	-115.38
4079.158	-118.38
4081.606	-115.38
4084.052	-113.38
4086.497	-113.38
4088.939	-115.38
4091.38	-114.38
4093.819	-118.38
4096.257	-121.38
4098.693	-118.38
4101.127	-117.38
4103.559	-121.38
4105.989	-79.38
4108.418	-78.38
4110.845	-67.38
4113.27	-64.38
4115.694	-56.38
4118.115	-53.38
4120.535	-116.38
4122.954	-118.38
4125.37	-120.38
4127.785	-115.38
4130.198	-117.38
4132.609	-114.38
4135.019	-117.38
4137.427	-118.38
4139.833	-117.38
4142.237	-119.38
