Data from 1CFU3_B_RamanShift_1.txt Node
Date: Tue Jan 31 14:18:32 IST 2017
User: aro
Spectrometer: QEPB0276
Trigger mode: 0
Integration Time (sec): 5.000000E0
Scans to average: 1
Electric dark correction enabled: true
Nonlinearity correction enabled: false
Boxcar width: 0
XAxis mode: Raman Shifts
Number of Pixels in Spectrum: 1044
>>>>>Begin Spectral Data<<<<<
160.701	-39.5
166.742	-1.5
172.777	105.5
178.805	423.5
184.826	1159.5
190.841	2371.5
196.849	3682.5
202.85	4556.5
208.845	4733.5
214.833	4611.5
220.815	4426.5
226.789	4310.5
232.758	4205.5
238.719	4065.5
244.674	3932.5
250.623	3766.5
256.565	3610.5
262.5	3430.5
268.429	3290.5
274.351	3160.5
280.267	3042.5
286.176	2951.5
292.079	2861.5
297.975	2741.5
303.865	2692.5
309.748	2621.5
315.625	2532.5
321.495	2489.5
327.359	2463.5
333.217	2456.5
339.068	2423.5
344.912	2413.5
350.751	2405.5
356.583	2388.5
362.408	2399.5
368.227	2412.5
374.04	2409.5
379.847	2426.5
385.647	2409.5
391.44	2441.5
397.228	2450.5
403.009	2466.5
408.784	2472.5
414.553	2481.5
420.315	2480.5
426.071	2489.5
431.821	2478.5
437.565	2484.5
443.302	2470.5
449.033	2469.5
454.758	2471.5
460.477	2447.5
466.189	2423.5
471.896	2413.5
477.596	2404.5
483.29	2404.5
488.978	2411.5
494.66	2391.5
500.335	2381.5
506.005	2342.5
511.668	2271.5
517.325	2242.5
522.977	2227.5
528.622	2180.5
534.261	2171.5
539.894	2152.5
545.521	2116.5
551.141	2119.5
556.756	2078.5
562.365	2083.5
567.968	2065.5
573.565	2073.5
579.155	2048.5
584.74	2054.5
590.319	2014.5
595.892	2040.5
601.459	2024.5
607.02	1993.5
612.575	1959.5
618.124	1966.5
623.667	1937.5
629.204	1939.5
634.735	1910.5
640.261	1897.5
645.781	1879.5
651.294	1889.5
656.802	1866.5
662.304	1865.5
667.8	1837.5
673.29	1835.5
678.775	1834.5
684.254	1833.5
689.726	1836.5
695.193	1822.5
700.655	1827.5
706.11	1804.5
711.56	1791.5
717.004	1792.5
722.442	1773.5
727.874	1766.5
733.301	1756.5
738.722	1744.5
744.137	1735.5
749.547	1714.5
754.951	1707.5
760.349	1709.5
765.741	1719.5
771.128	1718.5
776.509	1724.5
781.885	1740.5
787.254	1725.5
792.618	1718.5
797.977	1713.5
803.33	1701.5
808.677	1694.5
814.019	1676.5
819.355	1650.5
824.686	1641.5
830.011	1631.5
835.33	1625.5
840.644	1627.5
845.952	1627.5
851.255	1581.5
856.552	1591.5
861.844	1579.5
867.13	1573.5
872.41	1565.5
877.686	1568.5
882.955	1558.5
888.219	1531.5
893.478	1523.5
898.731	1510.5
903.979	1469.5
909.221	1437.5
914.458	1414.5
919.69	1434.5
924.916	1429.5
930.136	1398.5
935.351	1413.5
940.561	1429.5
945.766	1423.5
950.965	1413.5
956.158	1407.5
961.347	1400.5
966.529	1382.5
971.707	1369.5
976.879	1347.5
982.046	1336.5
987.208	1323.5
992.364	1310.5
997.515	1324.5
1002.66	1337.5
1007.801	1333.5
1012.936	1351.5
1018.066	1371.5
1023.19	1389.5
1028.309	1383.5
1033.423	1391.5
1038.532	1388.5
1043.636	1373.5
1048.734	1360.5
1053.827	1338.5
1058.915	1338.5
1063.998	1323.5
1069.075	1330.5
1074.147	1326.5
1079.214	1319.5
1084.276	1332.5
1089.333	1341.5
1094.385	1333.5
1099.431	1356.5
1104.472	1377.5
1109.509	1366.5
1114.54	1346.5
1119.565	1341.5
1124.586	1334.5
1129.602	1324.5
1134.613	1298.5
1139.618	1282.5
1144.619	1280.5
1149.614	1293.5
1154.604	1291.5
1159.589	1293.5
1164.57	1309.5
1169.545	1313.5
1174.515	1318.5
1179.48	1324.5
1184.44	1338.5
1189.395	1319.5
1194.345	1318.5
1199.29	1308.5
1204.23	1307.5
1209.165	1303.5
1214.095	1302.5
1219.021	1295.5
1223.941	1318.5
1228.856	1324.5
1233.766	1336.5
1238.672	1343.5
1243.572	1337.5
1248.467	1349.5
1253.358	1326.5
1258.244	1316.5
1263.124	1294.5
1268	1278.5
1272.871	1252.5
1277.737	1242.5
1282.599	1242.5
1287.455	1245.5
1292.306	1238.5
1297.153	1247.5
1301.995	1275.5
1306.832	1278.5
1311.664	1285.5
1316.491	1291.5
1321.314	1298.5
1326.132	1308.5
1330.945	1273.5
1335.753	1247.5
1340.556	1247.5
1345.354	1231.5
1350.148	1229.5
1354.937	1209.5
1359.722	1208.5
1364.501	1192.5
1369.276	1178.5
1374.046	1157.5
1378.811	1146.5
1383.572	1136.5
1388.327	1148.5
1393.079	1147.5
1397.825	1147.5
1402.567	1139.5
1407.304	1133.5
1412.036	1130.5
1416.764	1121.5
1421.487	1128.5
1426.205	1143.5
1430.919	1128.5
1435.628	1141.5
1440.333	1162.5
1445.032	1178.5
1449.727	1185.5
1454.418	1168.5
1459.104	1202.5
1463.785	1187.5
1468.462	1184.5
1473.134	1182.5
1477.802	1165.5
1482.465	1153.5
1487.123	1158.5
1491.777	1145.5
1496.426	1147.5
1501.071	1167.5
1505.711	1161.5
1510.347	1180.5
1514.978	1184.5
1519.604	1195.5
1524.226	1202.5
1528.844	1198.5
1533.457	1197.5
1538.065	1204.5
1542.669	1198.5
1547.269	1184.5
1551.864	1197.5
1556.454	1191.5
1561.041	1195.5
1565.622	1213.5
1570.199	1226.5
1574.772	1259.5
1579.34	1263.5
1583.904	1287.5
1588.464	1311.5
1593.019	1322.5
1597.569	1341.5
1602.115	1362.5
1606.657	1381.5
1611.195	1390.5
1615.728	1389.5
1620.256	1409.5
1624.78	1429.5
1629.3	1444.5
1633.816	1456.5
1638.327	1466.5
1642.834	1484.5
1647.336	1507.5
1651.834	1498.5
1656.328	1495.5
1660.817	1482.5
1665.302	1494.5
1669.783	1467.5
1674.259	1443.5
1678.732	1389.5
1683.199	1349.5
1687.663	1316.5
1692.122	1258.5
1696.577	1200.5
1701.028	1160.5
1705.474	1114.5
1709.917	1060.5
1714.355	1047.5
1718.788	1017.5
1723.218	1031.5
1727.643	1020.5
1732.064	989.5
1736.481	972.5
1740.893	958.5
1745.301	941.5
1749.705	908.5
1754.105	902.5
1758.501	880.5
1762.893	841.5
1767.28	853.5
1771.663	845.5
1776.042	833.5
1780.417	836.5
1784.787	840.5
1789.154	839.5
1793.516	841.5
1797.874	842.5
1802.228	818.5
1806.578	827.5
1810.924	814.5
1815.266	798.5
1819.603	784.5
1823.937	772.5
1828.266	765.5
1832.591	772.5
1836.913	767.5
1841.23	765.5
1845.543	755.5
1849.852	759.5
1854.156	758.5
1858.457	764.5
1862.754	749.5
1867.047	763.5
1871.335	764.5
1875.62	769.5
1879.9	778.5
1884.177	783.5
1888.449	769.5
1892.718	769.5
1896.982	790.5
1901.243	775.5
1905.499	763.5
1909.752	770.5
1914	752.5
1918.245	762.5
1922.485	751.5
1926.722	759.5
1930.954	776.5
1935.183	782.5
1939.408	762.5
1943.628	783.5
1947.845	766.5
1952.058	764.5
1956.267	772.5
1960.472	752.5
1964.673	753.5
1968.87	744.5
1973.063	724.5
1977.252	729.5
1981.438	713.5
1985.619	732.5
1989.797	712.5
1993.971	729.5
1998.14	733.5
2002.306	736.5
2006.469	736.5
2010.627	730.5
2014.781	741.5
2018.932	736.5
2023.078	727.5
2027.221	741.5
2031.36	742.5
2035.495	721.5
2039.627	720.5
2043.754	705.5
2047.878	721.5
2051.998	706.5
2056.114	709.5
2060.226	715.5
2064.334	726.5
2068.439	721.5
2072.54	721.5
2076.637	728.5
2080.73	725.5
2084.82	736.5
2088.906	738.5
2092.988	724.5
2097.066	723.5
2101.14	730.5
2105.211	718.5
2109.278	719.5
2113.342	719.5
2117.401	719.5
2121.457	710.5
2125.509	697.5
2129.558	695.5
2133.602	703.5
2137.643	692.5
2141.681	690.5
2145.714	682.5
2149.744	686.5
2153.77	678.5
2157.793	683.5
2161.812	677.5
2165.827	667.5
2169.838	652.5
2173.846	654.5
2177.851	630.5
2181.851	626.5
2185.848	622.5
2189.841	608.5
2193.831	616.5
2197.817	595.5
2201.799	610.5
2205.778	603.5
2209.753	593.5
2213.725	608.5
2217.693	607.5
2221.657	590.5
2225.618	593.5
2229.575	605.5
2233.529	595.5
2237.479	586.5
2241.425	588.5
2245.368	581.5
2249.307	563.5
2253.243	557.5
2257.175	557.5
2261.104	548.5
2265.029	542.5
2268.95	527.5
2272.868	519.5
2276.783	517.5
2280.694	513.5
2284.601	494.5
2288.505	504.5
2292.405	501.5
2296.302	473.5
2300.195	490.5
2304.085	479.5
2307.971	466.5
2311.854	460.5
2315.734	452.5
2319.609	441.5
2323.482	429.5
2327.351	430.5
2331.216	455.5
2335.078	433.5
2338.937	429.5
2342.792	417.5
2346.643	423.5
2350.492	416.5
2354.336	409.5
2358.178	414.5
2362.015	420.5
2365.85	430.5
2369.681	426.5
2373.508	424.5
2377.333	422.5
2381.153	434.5
2384.971	423.5
2388.785	417.5
2392.595	423.5
2396.402	411.5
2400.206	409.5
2404.007	417.5
2407.804	404.5
2411.597	408.5
2415.388	407.5
2419.174	403.5
2422.958	398.5
2426.738	404.5
2430.515	405.5
2434.289	403.5
2438.059	390.5
2441.825	394.5
2445.589	392.5
2449.349	389.5
2453.106	382.5
2456.859	378.5
2460.61	385.5
2464.356	386.5
2468.1	376.5
2471.84	376.5
2475.577	384.5
2479.311	367.5
2483.041	370.5
2486.768	371.5
2490.492	364.5
2494.213	366.5
2497.93	372.5
2501.644	371.5
2505.355	369.5
2509.062	375.5
2512.766	368.5
2516.467	363.5
2520.165	372.5
2523.859	368.5
2527.551	353.5
2531.239	362.5
2534.923	356.5
2538.605	351.5
2542.283	344.5
2545.958	338.5
2549.63	337.5
2553.299	332.5
2556.964	326.5
2560.626	333.5
2564.285	322.5
2567.941	335.5
2571.594	327.5
2575.243	328.5
2578.89	332.5
2582.533	326.5
2586.173	324.5
2589.809	317.5
2593.443	312.5
2597.073	317.5
2600.701	318.5
2604.325	311.5
2607.946	305.5
2611.564	310.5
2615.178	310.5
2618.79	304.5
2622.398	310.5
2626.004	301.5
2629.606	301.5
2633.205	298.5
2636.801	288.5
2640.394	286.5
2643.983	292.5
2647.57	290.5
2651.153	282.5
2654.734	286.5
2658.311	278.5
2661.885	268.5
2665.456	265.5
2669.025	278.5
2672.589	273.5
2676.151	269.5
2679.71	258.5
2683.266	255.5
2686.819	256.5
2690.368	267.5
2693.915	253.5
2697.458	269.5
2700.999	252.5
2704.536	251.5
2708.071	239.5
2711.602	240.5
2715.13	246.5
2718.656	249.5
2722.178	242.5
2725.697	240.5
2729.214	245.5
2732.727	248.5
2736.237	249.5
2739.744	244.5
2743.249	247.5
2746.75	260.5
2750.248	249.5
2753.743	244.5
2757.236	243.5
2760.725	241.5
2764.211	238.5
2767.695	240.5
2771.175	229.5
2774.652	229.5
2778.127	231.5
2781.598	232.5
2785.067	239.5
2788.532	237.5
2791.995	233.5
2795.455	230.5
2798.911	237.5
2802.365	228.5
2805.816	234.5
2809.264	234.5
2812.709	238.5
2816.151	241.5
2819.59	253.5
2823.026	243.5
2826.46	239.5
2829.89	243.5
2833.318	241.5
2836.742	245.5
2840.164	250.5
2843.583	240.5
2846.999	246.5
2850.412	246.5
2853.822	262.5
2857.229	250.5
2860.634	259.5
2864.035	265.5
2867.434	269.5
2870.83	268.5
2874.223	267.5
2877.613	283.5
2881	278.5
2884.385	272.5
2887.766	274.5
2891.145	276.5
2894.521	269.5
2897.894	262.5
2901.264	271.5
2904.631	280.5
2907.996	284.5
2911.358	279.5
2914.717	294.5
2918.073	291.5
2921.426	290.5
2924.777	299.5
2928.124	301.5
2931.469	300.5
2934.811	305.5
2938.15	320.5
2941.487	326.5
2944.821	329.5
2948.152	334.5
2951.48	343.5
2954.805	350.5
2958.128	356.5
2961.447	349.5
2964.765	355.5
2968.079	365.5
2971.39	367.5
2974.699	381.5
2978.005	391.5
2981.308	390.5
2984.609	404.5
2987.907	417.5
2991.202	433.5
2994.494	433.5
2997.784	446.5
3001.07	452.5
3004.355	456.5
3007.636	481.5
3010.915	482.5
3014.191	489.5
3017.464	511.5
3020.734	520.5
3024.002	528.5
3027.267	538.5
3030.53	533.5
3033.789	548.5
3037.046	567.5
3040.301	574.5
3043.552	589.5
3046.801	606.5
3050.048	625.5
3053.291	634.5
3056.532	653.5
3059.771	684.5
3063.006	690.5
3066.239	707.5
3069.469	725.5
3072.697	754.5
3075.922	776.5
3079.144	803.5
3082.364	826.5
3085.581	839.5
3088.795	874.5
3092.007	877.5
3095.216	905.5
3098.423	926.5
3101.627	943.5
3104.828	965.5
3108.026	977.5
3111.222	1001.5
3114.416	1022.5
3117.607	1039.5
3120.795	1069.5
3123.98	1095.5
3127.163	1109.5
3130.344	1144.5
3133.521	1166.5
3136.696	1202.5
3139.869	1231.5
3143.039	1250.5
3146.206	1255.5
3149.371	1268.5
3152.533	1289.5
3155.693	1299.5
3158.85	1319.5
3162.005	1315.5
3165.157	1342.5
3168.306	1339.5
3171.453	1322.5
3174.597	1338.5
3177.739	1350.5
3180.878	1351.5
3184.014	1343.5
3187.149	1357.5
3190.28	1366.5
3193.409	1367.5
3196.536	1361.5
3199.659	1367.5
3202.781	1383.5
3205.9	1386.5
3209.016	1376.5
3212.13	1392.5
3215.241	1377.5
3218.35	1386.5
3221.456	1368.5
3224.56	1362.5
3227.661	1348.5
3230.76	1326.5
3233.856	1328.5
3236.95	1310.5
3240.041	1296.5
3243.13	1274.5
3246.216	1261.5
3249.3	1256.5
3252.382	1247.5
3255.46	1237.5
3258.537	1232.5
3261.611	1215.5
3264.682	1211.5
3267.751	1206.5
3270.818	1193.5
3273.882	1201.5
3276.943	1201.5
3280.002	1199.5
3283.059	1166.5
3286.113	1163.5
3289.165	1141.5
3292.214	1143.5
3295.261	1123.5
3298.306	1104.5
3301.348	1083.5
3304.387	1074.5
3307.425	1055.5
3310.459	1037.5
3313.492	1026.5
3316.521	1012.5
3319.549	1005.5
3322.574	1006.5
3325.597	993.5
3328.617	982.5
3331.635	964.5
3334.65	977.5
3337.663	969.5
3340.674	953.5
3343.682	957.5
3346.688	944.5
3349.691	954.5
3352.692	940.5
3355.691	959.5
3358.687	924.5
3361.681	924.5
3364.673	931.5
3367.662	900.5
3370.649	892.5
3373.633	881.5
3376.615	874.5
3379.595	868.5
3382.572	847.5
3385.547	840.5
3388.52	838.5
3391.49	828.5
3394.458	825.5
3397.424	804.5
3400.387	780.5
3403.348	769.5
3406.307	769.5
3409.263	755.5
3412.217	755.5
3415.168	734.5
3418.118	738.5
3421.065	736.5
3424.009	726.5
3426.951	703.5
3429.891	697.5
3432.829	682.5
3435.764	675.5
3438.697	661.5
3441.628	656.5
3444.557	635.5
3447.483	609.5
3450.407	610.5
3453.328	593.5
3456.247	567.5
3459.164	549.5
3462.079	532.5
3464.991	515.5
3467.902	496.5
3470.809	491.5
3473.715	468.5
3476.618	452.5
3479.519	448.5
3482.418	427.5
3485.315	425.5
3488.209	410.5
3491.101	388.5
3493.99	379.5
3496.878	371.5
3499.763	349.5
3502.646	342.5
3505.527	343.5
3508.405	324.5
3511.281	305.5
3514.155	295.5
3517.027	287.5
3519.897	264.5
3522.764	259.5
3525.629	248.5
3528.492	243.5
3531.352	219.5
3534.211	207.5
3537.067	194.5
3539.921	188.5
3542.773	177.5
3545.622	174.5
3548.469	157.5
3551.315	143.5
3554.157	134.5
3556.998	128.5
3559.837	124.5
3562.673	110.5
3565.507	105.5
3568.339	98.5
3571.169	89.5
3573.996	89.5
3576.822	87.5
3579.645	71.5
3582.466	68.5
3585.285	60.5
3588.101	52.5
3590.916	48.5
3593.728	41.5
3596.538	39.5
3599.346	32.5
3602.152	27.5
3604.956	25.5
3607.757	11.5
3610.556	16.5
3613.354	8.5
3616.149	8.5
3618.942	2.5
3621.732	-5.5
3624.521	-7.5
3627.307	-8.5
3630.092	-14.5
3632.874	-13.5
3635.654	-19.5
3638.432	-22.5
3641.208	-25.5
3643.982	-35.5
3646.753	-35.5
3649.523	-35.5
3652.29	-40.5
3655.055	-43.5
3657.818	-42.5
3660.579	-44.5
3663.338	-46.5
3666.095	-51.5
3668.849	-51.5
3671.602	-59.5
3674.352	-57.5
3677.101	-64.5
3679.847	-66.5
3682.591	-73.5
3685.333	-69.5
3688.073	-72.5
3690.811	-68.5
3693.547	-81.5
3696.281	-72.5
3699.013	-75.5
3701.742	-80.5
3704.47	-82.5
3707.195	-82.5
3709.919	-81.5
3712.64	-85.5
3715.359	-86.5
3718.076	-87.5
3720.792	-82.5
3723.505	-82.5
3726.216	-83.5
3728.925	-89.5
3731.632	-92.5
3734.336	-91.5
3737.039	-98.5
3739.74	-99.5
3742.439	-94.5
3745.136	-98.5
3747.83	-103.5
3750.523	-98.5
3753.213	-95.5
3755.902	-99.5
3758.589	-91.5
3761.273	-97.5
3763.956	-98.5
3766.636	-99.5
3769.315	-104.5
3771.991	-103.5
3774.665	-104.5
3777.338	-104.5
3780.008	-107.5
3782.677	-101.5
3785.343	-104.5
3788.007	-101.5
3790.67	-106.5
3793.33	-100.5
3795.989	-106.5
3798.645	-103.5
3801.299	-107.5
3803.952	-110.5
3806.602	-110.5
3809.251	-109.5
3811.897	-107.5
3814.542	-109.5
3817.184	-102.5
3819.825	-102.5
3822.463	-105.5
3825.1	-107.5
3827.735	-108.5
3830.367	-111.5
3832.998	-111.5
3835.627	-108.5
3838.253	-110.5
3840.878	-111.5
3843.501	-105.5
3846.122	-108.5
3848.741	-108.5
3851.358	-108.5
3853.973	-111.5
3856.586	-107.5
3859.197	-112.5
3861.806	-109.5
3864.414	-111.5
3867.019	-112.5
3869.622	-110.5
3872.224	-110.5
3874.823	-109.5
3877.421	-103.5
3880.016	-102.5
3882.61	-99.5
3885.202	-104.5
3887.792	-103.5
3890.38	-109.5
3892.966	-107.5
3895.55	-112.5
3898.132	-114.5
3900.713	-108.5
3903.291	-113.5
3905.868	-111.5
3908.442	-114.5
3911.015	-115.5
3913.586	-115.5
3916.155	-113.5
3918.722	-115.5
3921.287	-111.5
3923.85	-118.5
3926.411	-115.5
3928.971	-109.5
3931.528	-115.5
3934.084	-116.5
3936.638	-114.5
3939.19	-113.5
3941.74	-113.5
3944.288	-116.5
3946.834	-118.5
3949.378	-117.5
3951.921	-118.5
3954.462	-115.5
3957	-116.5
3959.537	-116.5
3962.072	-111.5
3964.606	-113.5
3967.137	-114.5
3969.667	-117.5
3972.194	-117.5
3974.72	-114.5
3977.244	-114.5
3979.766	-114.5
3982.286	-110.5
3984.805	-112.5
3987.321	-112.5
3989.836	-117.5
3992.349	-116.5
3994.86	-114.5
3997.369	-113.5
3999.877	-121.5
4002.382	-110.5
4004.886	-114.5
4007.388	-113.5
4009.888	-112.5
4012.386	-114.5
4014.883	-112.5
4017.377	-113.5
4019.87	-113.5
4022.361	-113.5
4024.85	-118.5
4027.338	-112.5
4029.823	-113.5
4032.307	-112.5
4034.789	-114.5
4037.269	-114.5
4039.747	-115.5
4042.224	-112.5
4044.699	-122.5
4047.172	-117.5
4049.643	-114.5
4052.112	-116.5
4054.58	-116.5
4057.046	-119.5
4059.51	-117.5
4061.972	-117.5
4064.432	-117.5
4066.891	-116.5
4069.348	-116.5
4071.803	-115.5
4074.256	-116.5
4076.708	-114.5
4079.158	-116.5
4081.606	-118.5
4084.052	-114.5
4086.497	-116.5
4088.939	-114.5
4091.38	-119.5
4093.819	-118.5
4096.257	-123.5
4098.693	-117.5
4101.127	-116.5
4103.559	-119.5
4105.989	-79.5
4108.418	-79.5
4110.845	-75.5
4113.27	-67.5
4115.694	-58.5
4118.115	-51.5
4120.535	-115.5
4122.954	-118.5
4125.37	-117.5
4127.785	-115.5
4130.198	-116.5
4132.609	-115.5
4135.019	-123.5
4137.427	-122.5
4139.833	-121.5
4142.237	-120.5
