Data from 1CFU1_A_RamanShift_1.txt Node
Date: Tue Jan 31 15:09:14 IST 2017
User: aro
Spectrometer: QEPB0276
Trigger mode: 0
Integration Time (sec): 5.000000E0
Scans to average: 1
Electric dark correction enabled: true
Nonlinearity correction enabled: false
Boxcar width: 0
XAxis mode: Raman Shifts
Number of Pixels in Spectrum: 1044
>>>>>Begin Spectral Data<<<<<
160.701	-37.5
166.742	-7.5
172.777	99.5
178.805	398.5
184.826	1084.5
190.841	2225.5
196.849	3428.5
202.85	4232.5
208.845	4391.5
214.833	4228.5
220.815	4094.5
226.789	3975.5
232.758	3888.5
238.719	3782.5
244.674	3644.5
250.623	3474.5
256.565	3335.5
262.5	3169.5
268.429	3065.5
274.351	2924.5
280.267	2819.5
286.176	2715.5
292.079	2635.5
297.975	2530.5
303.865	2495.5
309.748	2433.5
315.625	2386.5
321.495	2310.5
327.359	2284.5
333.217	2256.5
339.068	2231.5
344.912	2223.5
350.751	2224.5
356.583	2224.5
362.408	2228.5
368.227	2230.5
374.04	2225.5
379.847	2242.5
385.647	2261.5
391.44	2264.5
397.228	2264.5
403.009	2280.5
408.784	2279.5
414.553	2316.5
420.315	2296.5
426.071	2304.5
431.821	2307.5
437.565	2302.5
443.302	2293.5
449.033	2305.5
454.758	2278.5
460.477	2268.5
466.189	2267.5
471.896	2231.5
477.596	2252.5
483.29	2220.5
488.978	2234.5
494.66	2214.5
500.335	2188.5
506.005	2171.5
511.668	2130.5
517.325	2084.5
522.977	2067.5
528.622	2029.5
534.261	2009.5
539.894	2004.5
545.521	1980.5
551.141	1947.5
556.756	1964.5
562.365	1962.5
567.968	1929.5
573.565	1928.5
579.155	1908.5
584.74	1902.5
590.319	1888.5
595.892	1873.5
601.459	1876.5
607.02	1855.5
612.575	1860.5
618.124	1833.5
623.667	1821.5
629.204	1793.5
634.735	1767.5
640.261	1779.5
645.781	1770.5
651.294	1754.5
656.802	1753.5
662.304	1749.5
667.8	1732.5
673.29	1723.5
678.775	1711.5
684.254	1722.5
689.726	1732.5
695.193	1694.5
700.655	1696.5
706.11	1694.5
711.56	1677.5
717.004	1692.5
722.442	1680.5
727.874	1651.5
733.301	1651.5
738.722	1628.5
744.137	1631.5
749.547	1615.5
754.951	1634.5
760.349	1627.5
765.741	1621.5
771.128	1630.5
776.509	1629.5
781.885	1638.5
787.254	1643.5
792.618	1626.5
797.977	1621.5
803.33	1614.5
808.677	1599.5
814.019	1580.5
819.355	1591.5
824.686	1567.5
830.011	1559.5
835.33	1544.5
840.644	1542.5
845.952	1547.5
851.255	1524.5
856.552	1518.5
861.844	1510.5
867.13	1509.5
872.41	1484.5
877.686	1498.5
882.955	1484.5
888.219	1461.5
893.478	1438.5
898.731	1440.5
903.979	1414.5
909.221	1402.5
914.458	1387.5
919.69	1371.5
924.916	1380.5
930.136	1363.5
935.351	1374.5
940.561	1377.5
945.766	1376.5
950.965	1372.5
956.158	1372.5
961.347	1360.5
966.529	1327.5
971.707	1325.5
976.879	1316.5
982.046	1311.5
987.208	1290.5
992.364	1288.5
997.515	1291.5
1002.66	1301.5
1007.801	1313.5
1012.936	1321.5
1018.066	1338.5
1023.19	1332.5
1028.309	1344.5
1033.423	1357.5
1038.532	1349.5
1043.636	1347.5
1048.734	1318.5
1053.827	1326.5
1058.915	1308.5
1063.998	1298.5
1069.075	1284.5
1074.147	1281.5
1079.214	1295.5
1084.276	1305.5
1089.333	1306.5
1094.385	1314.5
1099.431	1341.5
1104.472	1342.5
1109.509	1315.5
1114.54	1308.5
1119.565	1303.5
1124.586	1292.5
1129.602	1286.5
1134.613	1285.5
1139.618	1260.5
1144.619	1262.5
1149.614	1262.5
1154.604	1268.5
1159.589	1280.5
1164.57	1274.5
1169.545	1292.5
1174.515	1302.5
1179.48	1285.5
1184.44	1302.5
1189.395	1272.5
1194.345	1284.5
1199.29	1279.5
1204.23	1269.5
1209.165	1297.5
1214.095	1294.5
1219.021	1292.5
1223.941	1296.5
1228.856	1308.5
1233.766	1314.5
1238.672	1295.5
1243.572	1325.5
1248.467	1314.5
1253.358	1303.5
1258.244	1308.5
1263.124	1264.5
1268	1256.5
1272.871	1228.5
1277.737	1226.5
1282.599	1225.5
1287.455	1226.5
1292.306	1240.5
1297.153	1227.5
1301.995	1240.5
1306.832	1259.5
1311.664	1262.5
1316.491	1281.5
1321.314	1271.5
1326.132	1243.5
1330.945	1233.5
1335.753	1215.5
1340.556	1183.5
1345.354	1136.5
1350.148	1139.5
1354.937	1108.5
1359.722	1119.5
1364.501	1135.5
1369.276	1163.5
1374.046	1196.5
1378.811	1194.5
1383.572	1222.5
1388.327	1208.5
1393.079	1201.5
1397.825	1176.5
1402.567	1168.5
1407.304	1151.5
1412.036	1146.5
1416.764	1132.5
1421.487	1123.5
1426.205	1127.5
1430.919	1121.5
1435.628	1123.5
1440.333	1143.5
1445.032	1156.5
1449.727	1167.5
1454.418	1144.5
1459.104	1157.5
1463.785	1151.5
1468.462	1136.5
1473.134	1121.5
1477.802	1114.5
1482.465	1113.5
1487.123	1096.5
1491.777	1114.5
1496.426	1105.5
1501.071	1136.5
1505.711	1142.5
1510.347	1153.5
1514.978	1172.5
1519.604	1200.5
1524.226	1223.5
1528.844	1226.5
1533.457	1213.5
1538.065	1237.5
1542.669	1224.5
1547.269	1228.5
1551.864	1226.5
1556.454	1233.5
1561.041	1236.5
1565.622	1229.5
1570.199	1243.5
1574.772	1262.5
1579.34	1281.5
1583.904	1287.5
1588.464	1308.5
1593.019	1319.5
1597.569	1331.5
1602.115	1340.5
1606.657	1361.5
1611.195	1355.5
1615.728	1367.5
1620.256	1375.5
1624.78	1366.5
1629.3	1384.5
1633.816	1427.5
1638.327	1419.5
1642.834	1448.5
1647.336	1467.5
1651.834	1457.5
1656.328	1447.5
1660.817	1433.5
1665.302	1429.5
1669.783	1389.5
1674.259	1366.5
1678.732	1341.5
1683.199	1290.5
1687.663	1225.5
1692.122	1162.5
1696.577	1150.5
1701.028	1125.5
1705.474	1127.5
1709.917	1129.5
1714.355	1117.5
1718.788	1085.5
1723.218	1072.5
1727.643	1028.5
1732.064	1013.5
1736.481	989.5
1740.893	967.5
1745.301	950.5
1749.705	929.5
1754.105	900.5
1758.501	870.5
1762.893	862.5
1767.28	835.5
1771.663	830.5
1776.042	815.5
1780.417	818.5
1784.787	827.5
1789.154	834.5
1793.516	851.5
1797.874	863.5
1802.228	875.5
1806.578	867.5
1810.924	884.5
1815.266	872.5
1819.603	866.5
1823.937	844.5
1828.266	824.5
1832.591	811.5
1836.913	811.5
1841.23	803.5
1845.543	800.5
1849.852	789.5
1854.156	783.5
1858.457	792.5
1862.754	777.5
1867.047	798.5
1871.335	803.5
1875.62	795.5
1879.9	800.5
1884.177	796.5
1888.449	793.5
1892.718	787.5
1896.982	795.5
1901.243	779.5
1905.499	777.5
1909.752	775.5
1914	777.5
1918.245	774.5
1922.485	776.5
1926.722	792.5
1930.954	804.5
1935.183	801.5
1939.408	814.5
1943.628	810.5
1947.845	823.5
1952.058	818.5
1956.267	810.5
1960.472	806.5
1964.673	807.5
1968.87	799.5
1973.063	787.5
1977.252	786.5
1981.438	794.5
1985.619	776.5
1989.797	773.5
1993.971	767.5
1998.14	765.5
2002.306	763.5
2006.469	775.5
2010.627	765.5
2014.781	787.5
2018.932	789.5
2023.078	771.5
2027.221	781.5
2031.36	767.5
2035.495	760.5
2039.627	742.5
2043.754	727.5
2047.878	748.5
2051.998	719.5
2056.114	724.5
2060.226	730.5
2064.334	746.5
2068.439	751.5
2072.54	751.5
2076.637	740.5
2080.73	765.5
2084.82	762.5
2088.906	763.5
2092.988	760.5
2097.066	766.5
2101.14	757.5
2105.211	761.5
2109.278	761.5
2113.342	752.5
2117.401	754.5
2121.457	745.5
2125.509	734.5
2129.558	733.5
2133.602	735.5
2137.643	739.5
2141.681	732.5
2145.714	738.5
2149.744	725.5
2153.77	732.5
2157.793	713.5
2161.812	724.5
2165.827	709.5
2169.838	693.5
2173.846	680.5
2177.851	672.5
2181.851	661.5
2185.848	656.5
2189.841	647.5
2193.831	647.5
2197.817	632.5
2201.799	629.5
2205.778	632.5
2209.753	623.5
2213.725	647.5
2217.693	631.5
2221.657	646.5
2225.618	630.5
2229.575	634.5
2233.529	612.5
2237.479	623.5
2241.425	622.5
2245.368	612.5
2249.307	614.5
2253.243	589.5
2257.175	580.5
2261.104	577.5
2265.029	583.5
2268.95	569.5
2272.868	558.5
2276.783	552.5
2280.694	547.5
2284.601	555.5
2288.505	544.5
2292.405	538.5
2296.302	547.5
2300.195	532.5
2304.085	516.5
2307.971	513.5
2311.854	507.5
2315.734	498.5
2319.609	490.5
2323.482	490.5
2327.351	485.5
2331.216	476.5
2335.078	470.5
2338.937	464.5
2342.792	472.5
2346.643	457.5
2350.492	465.5
2354.336	456.5
2358.178	448.5
2362.015	464.5
2365.85	467.5
2369.681	463.5
2373.508	469.5
2377.333	465.5
2381.153	468.5
2384.971	464.5
2388.785	462.5
2392.595	449.5
2396.402	455.5
2400.206	445.5
2404.007	454.5
2407.804	431.5
2411.597	447.5
2415.388	446.5
2419.174	437.5
2422.958	433.5
2426.738	435.5
2430.515	439.5
2434.289	423.5
2438.059	426.5
2441.825	432.5
2445.589	426.5
2449.349	419.5
2453.106	408.5
2456.859	420.5
2460.61	411.5
2464.356	407.5
2468.1	397.5
2471.84	399.5
2475.577	394.5
2479.311	400.5
2483.041	390.5
2486.768	396.5
2490.492	390.5
2494.213	400.5
2497.93	393.5
2501.644	396.5
2505.355	390.5
2509.062	391.5
2512.766	404.5
2516.467	399.5
2520.165	394.5
2523.859	396.5
2527.551	394.5
2531.239	384.5
2534.923	379.5
2538.605	388.5
2542.283	378.5
2545.958	378.5
2549.63	375.5
2553.299	365.5
2556.964	375.5
2560.626	376.5
2564.285	372.5
2567.941	370.5
2571.594	362.5
2575.243	361.5
2578.89	368.5
2582.533	353.5
2586.173	355.5
2589.809	351.5
2593.443	340.5
2597.073	343.5
2600.701	354.5
2604.325	356.5
2607.946	357.5
2611.564	339.5
2615.178	346.5
2618.79	328.5
2622.398	339.5
2626.004	333.5
2629.606	328.5
2633.205	328.5
2636.801	333.5
2640.394	333.5
2643.983	326.5
2647.57	318.5
2651.153	325.5
2654.734	306.5
2658.311	304.5
2661.885	318.5
2665.456	302.5
2669.025	301.5
2672.589	310.5
2676.151	295.5
2679.71	291.5
2683.266	299.5
2686.819	289.5
2690.368	285.5
2693.915	283.5
2697.458	283.5
2700.999	272.5
2704.536	269.5
2708.071	266.5
2711.602	260.5
2715.13	259.5
2718.656	258.5
2722.178	252.5
2725.697	259.5
2729.214	247.5
2732.727	252.5
2736.237	254.5
2739.744	257.5
2743.249	261.5
2746.75	259.5
2750.248	263.5
2753.743	256.5
2757.236	264.5
2760.725	266.5
2764.211	271.5
2767.695	279.5
2771.175	275.5
2774.652	272.5
2778.127	264.5
2781.598	266.5
2785.067	267.5
2788.532	267.5
2791.995	257.5
2795.455	261.5
2798.911	259.5
2802.365	267.5
2805.816	268.5
2809.264	266.5
2812.709	264.5
2816.151	272.5
2819.59	273.5
2823.026	260.5
2826.46	262.5
2829.89	268.5
2833.318	260.5
2836.742	255.5
2840.164	273.5
2843.583	266.5
2846.999	277.5
2850.412	274.5
2853.822	276.5
2857.229	273.5
2860.634	276.5
2864.035	276.5
2867.434	276.5
2870.83	276.5
2874.223	283.5
2877.613	285.5
2881	288.5
2884.385	282.5
2887.766	279.5
2891.145	291.5
2894.521	289.5
2897.894	287.5
2901.264	288.5
2904.631	289.5
2907.996	294.5
2911.358	296.5
2914.717	280.5
2918.073	295.5
2921.426	285.5
2924.777	288.5
2928.124	304.5
2931.469	315.5
2934.811	306.5
2938.15	311.5
2941.487	320.5
2944.821	312.5
2948.152	325.5
2951.48	324.5
2954.805	333.5
2958.128	336.5
2961.447	338.5
2964.765	349.5
2968.079	351.5
2971.39	368.5
2974.699	357.5
2978.005	372.5
2981.308	370.5
2984.609	391.5
2987.907	403.5
2991.202	397.5
2994.494	428.5
2997.784	431.5
3001.07	435.5
3004.355	445.5
3007.636	474.5
3010.915	468.5
3014.191	483.5
3017.464	486.5
3020.734	496.5
3024.002	504.5
3027.267	514.5
3030.53	518.5
3033.789	523.5
3037.046	543.5
3040.301	537.5
3043.552	550.5
3046.801	560.5
3050.048	592.5
3053.291	599.5
3056.532	620.5
3059.771	626.5
3063.006	648.5
3066.239	662.5
3069.469	696.5
3072.697	706.5
3075.922	717.5
3079.144	733.5
3082.364	761.5
3085.581	784.5
3088.795	798.5
3092.007	819.5
3095.216	826.5
3098.423	845.5
3101.627	845.5
3104.828	887.5
3108.026	900.5
3111.222	911.5
3114.416	934.5
3117.607	957.5
3120.795	993.5
3123.98	1009.5
3127.163	1028.5
3130.344	1040.5
3133.521	1063.5
3136.696	1088.5
3139.869	1111.5
3143.039	1120.5
3146.206	1133.5
3149.371	1165.5
3152.533	1188.5
3155.693	1198.5
3158.85	1206.5
3162.005	1192.5
3165.157	1205.5
3168.306	1201.5
3171.453	1208.5
3174.597	1216.5
3177.739	1215.5
3180.878	1213.5
3184.014	1229.5
3187.149	1221.5
3190.28	1230.5
3193.409	1250.5
3196.536	1224.5
3199.659	1234.5
3202.781	1240.5
3205.9	1251.5
3209.016	1244.5
3212.13	1252.5
3215.241	1221.5
3218.35	1221.5
3221.456	1232.5
3224.56	1213.5
3227.661	1215.5
3230.76	1200.5
3233.856	1182.5
3236.95	1161.5
3240.041	1156.5
3243.13	1150.5
3246.216	1130.5
3249.3	1125.5
3252.382	1106.5
3255.46	1105.5
3258.537	1106.5
3261.611	1110.5
3264.682	1104.5
3267.751	1104.5
3270.818	1077.5
3273.882	1069.5
3276.943	1075.5
3280.002	1063.5
3283.059	1056.5
3286.113	1045.5
3289.165	1028.5
3292.214	1026.5
3295.261	1007.5
3298.306	1000.5
3301.348	990.5
3304.387	968.5
3307.425	962.5
3310.459	935.5
3313.492	928.5
3316.521	915.5
3319.549	915.5
3322.574	896.5
3325.597	898.5
3328.617	875.5
3331.635	880.5
3334.65	871.5
3337.663	877.5
3340.674	855.5
3343.682	856.5
3346.688	855.5
3349.691	861.5
3352.692	843.5
3355.691	854.5
3358.687	845.5
3361.681	844.5
3364.673	819.5
3367.662	808.5
3370.649	800.5
3373.633	792.5
3376.615	780.5
3379.595	771.5
3382.572	771.5
3385.547	749.5
3388.52	743.5
3391.49	735.5
3394.458	721.5
3397.424	713.5
3400.387	700.5
3403.348	679.5
3406.307	684.5
3409.263	678.5
3412.217	663.5
3415.168	660.5
3418.118	655.5
3421.065	641.5
3424.009	632.5
3426.951	629.5
3429.891	611.5
3432.829	612.5
3435.764	596.5
3438.697	579.5
3441.628	583.5
3444.557	551.5
3447.483	542.5
3450.407	523.5
3453.328	515.5
3456.247	506.5
3459.164	480.5
3462.079	473.5
3464.991	452.5
3467.902	440.5
3470.809	427.5
3473.715	411.5
3476.618	393.5
3479.519	385.5
3482.418	388.5
3485.315	370.5
3488.209	367.5
3491.101	347.5
3493.99	343.5
3496.878	330.5
3499.763	311.5
3502.646	313.5
3505.527	296.5
3508.405	283.5
3511.281	265.5
3514.155	263.5
3517.027	250.5
3519.897	242.5
3522.764	230.5
3525.629	225.5
3528.492	211.5
3531.352	191.5
3534.211	182.5
3537.067	162.5
3539.921	156.5
3542.773	155.5
3545.622	152.5
3548.469	139.5
3551.315	130.5
3554.157	121.5
3556.998	109.5
3559.837	102.5
3562.673	98.5
3565.507	93.5
3568.339	78.5
3571.169	79.5
3573.996	73.5
3576.822	71.5
3579.645	62.5
3582.466	58.5
3585.285	51.5
3588.101	45.5
3590.916	46.5
3593.728	36.5
3596.538	32.5
3599.346	26.5
3602.152	25.5
3604.956	18.5
3607.757	14.5
3610.556	6.5
3613.354	0.5
3616.149	8.5
3618.942	-0.5
3621.732	-9.5
3624.521	-8.5
3627.307	-16.5
3630.092	-18.5
3632.874	-12.5
3635.654	-25.5
3638.432	-23.5
3641.208	-19.5
3643.982	-25.5
3646.753	-31.5
3649.523	-34.5
3652.29	-40.5
3655.055	-39.5
3657.818	-41.5
3660.579	-42.5
3663.338	-44.5
3666.095	-52.5
3668.849	-51.5
3671.602	-54.5
3674.352	-55.5
3677.101	-56.5
3679.847	-59.5
3682.591	-66.5
3685.333	-67.5
3688.073	-71.5
3690.811	-67.5
3693.547	-74.5
3696.281	-67.5
3699.013	-70.5
3701.742	-76.5
3704.47	-76.5
3707.195	-75.5
3709.919	-72.5
3712.64	-80.5
3715.359	-80.5
3718.076	-83.5
3720.792	-82.5
3723.505	-83.5
3726.216	-80.5
3728.925	-84.5
3731.632	-85.5
3734.336	-81.5
3737.039	-90.5
3739.74	-92.5
3742.439	-90.5
3745.136	-92.5
3747.83	-94.5
3750.523	-90.5
3753.213	-90.5
3755.902	-91.5
3758.589	-86.5
3761.273	-88.5
3763.956	-89.5
3766.636	-92.5
3769.315	-92.5
3771.991	-91.5
3774.665	-95.5
3777.338	-96.5
3780.008	-99.5
3782.677	-95.5
3785.343	-98.5
3788.007	-97.5
3790.67	-98.5
3793.33	-97.5
3795.989	-98.5
3798.645	-94.5
3801.299	-95.5
3803.952	-104.5
3806.602	-96.5
3809.251	-96.5
3811.897	-100.5
3814.542	-104.5
3817.184	-98.5
3819.825	-100.5
3822.463	-101.5
3825.1	-101.5
3827.735	-101.5
3830.367	-99.5
3832.998	-102.5
3835.627	-101.5
3838.253	-102.5
3840.878	-102.5
3843.501	-100.5
3846.122	-105.5
3848.741	-100.5
3851.358	-107.5
3853.973	-103.5
3856.586	-101.5
3859.197	-100.5
3861.806	-105.5
3864.414	-102.5
3867.019	-102.5
3869.622	-101.5
3872.224	-107.5
3874.823	-102.5
3877.421	-98.5
3880.016	-95.5
3882.61	-92.5
3885.202	-93.5
3887.792	-100.5
3890.38	-99.5
3892.966	-101.5
3895.55	-105.5
3898.132	-108.5
3900.713	-106.5
3903.291	-109.5
3905.868	-104.5
3908.442	-106.5
3911.015	-108.5
3913.586	-108.5
3916.155	-107.5
3918.722	-109.5
3921.287	-107.5
3923.85	-111.5
3926.411	-110.5
3928.971	-106.5
3931.528	-107.5
3934.084	-109.5
3936.638	-107.5
3939.19	-108.5
3941.74	-107.5
3944.288	-108.5
3946.834	-107.5
3949.378	-107.5
3951.921	-104.5
3954.462	-109.5
3957	-109.5
3959.537	-109.5
3962.072	-107.5
3964.606	-112.5
3967.137	-108.5
3969.667	-110.5
3972.194	-108.5
3974.72	-108.5
3977.244	-107.5
3979.766	-106.5
3982.286	-100.5
3984.805	-107.5
3987.321	-107.5
3989.836	-111.5
3992.349	-106.5
3994.86	-106.5
3997.369	-108.5
3999.877	-111.5
4002.382	-106.5
4004.886	-103.5
4007.388	-104.5
4009.888	-106.5
4012.386	-106.5
4014.883	-107.5
4017.377	-108.5
4019.87	-112.5
4022.361	-110.5
4024.85	-112.5
4027.338	-112.5
4029.823	-108.5
4032.307	-109.5
4034.789	-108.5
4037.269	-105.5
4039.747	-107.5
4042.224	-105.5
4044.699	-113.5
4047.172	-112.5
4049.643	-110.5
4052.112	-109.5
4054.58	-109.5
4057.046	-110.5
4059.51	-113.5
4061.972	-110.5
4064.432	-105.5
4066.891	-110.5
4069.348	-107.5
4071.803	-108.5
4074.256	-114.5
4076.708	-104.5
4079.158	-110.5
4081.606	-111.5
4084.052	-107.5
4086.497	-113.5
4088.939	-112.5
4091.38	-109.5
4093.819	-110.5
4096.257	-114.5
4098.693	-114.5
4101.127	-111.5
4103.559	-115.5
4105.989	-72.5
4108.418	-66.5
4110.845	-67.5
4113.27	-64.5
4115.694	-57.5
4118.115	-46.5
4120.535	-105.5
4122.954	-109.5
4125.37	-108.5
4127.785	-109.5
4130.198	-111.5
4132.609	-109.5
4135.019	-110.5
4137.427	-112.5
4139.833	-113.5
4142.237	-116.5
