Data from 10000000CFU1_A_RamanShift_1.txt Node
Date: Thu Jan 26 11:08:58 IST 2017
User: aro
Spectrometer: QEPB0276
Trigger mode: 0
Integration Time (sec): 5.000000E0
Scans to average: 1
Electric dark correction enabled: true
Nonlinearity correction enabled: false
Boxcar width: 0
XAxis mode: Raman Shifts
Number of Pixels in Spectrum: 1044
>>>>>Begin Spectral Data<<<<<
160.701	-32.5
166.742	-6.5
172.777	101.5
178.805	403.5
184.826	1125.5
190.841	2255.5
196.849	3480.5
202.85	4235.5
208.845	4362.5
214.833	4187.5
220.815	4066.5
226.789	3921.5
232.758	3827.5
238.719	3716.5
244.674	3571.5
250.623	3414.5
256.565	3251.5
262.5	3141.5
268.429	2983.5
274.351	2849.5
280.267	2753.5
286.176	2643.5
292.079	2564.5
297.975	2482.5
303.865	2421.5
309.748	2338.5
315.625	2322.5
321.495	2246.5
327.359	2211.5
333.217	2200.5
339.068	2197.5
344.912	2173.5
350.751	2159.5
356.583	2153.5
362.408	2136.5
368.227	2150.5
374.04	2151.5
379.847	2164.5
385.647	2179.5
391.44	2190.5
397.228	2186.5
403.009	2196.5
408.784	2208.5
414.553	2217.5
420.315	2224.5
426.071	2237.5
431.821	2227.5
437.565	2225.5
443.302	2241.5
449.033	2231.5
454.758	2225.5
460.477	2213.5
466.189	2198.5
471.896	2196.5
477.596	2156.5
483.29	2147.5
488.978	2137.5
494.66	2103.5
500.335	2087.5
506.005	2051.5
511.668	2024.5
517.325	1991.5
522.977	1975.5
528.622	1940.5
534.261	1921.5
539.894	1908.5
545.521	1870.5
551.141	1861.5
556.756	1832.5
562.365	1840.5
567.968	1827.5
573.565	1826.5
579.155	1835.5
584.74	1795.5
590.319	1795.5
595.892	1761.5
601.459	1759.5
607.02	1753.5
612.575	1727.5
618.124	1705.5
623.667	1705.5
629.204	1695.5
634.735	1667.5
640.261	1654.5
645.781	1640.5
651.294	1634.5
656.802	1615.5
662.304	1608.5
667.8	1618.5
673.29	1616.5
678.775	1598.5
684.254	1604.5
689.726	1590.5
695.193	1583.5
700.655	1581.5
706.11	1564.5
711.56	1555.5
717.004	1532.5
722.442	1530.5
727.874	1510.5
733.301	1516.5
738.722	1512.5
744.137	1503.5
749.547	1516.5
754.951	1499.5
760.349	1501.5
765.741	1491.5
771.128	1507.5
776.509	1487.5
781.885	1497.5
787.254	1496.5
792.618	1484.5
797.977	1464.5
803.33	1458.5
808.677	1437.5
814.019	1429.5
819.355	1424.5
824.686	1412.5
830.011	1398.5
835.33	1396.5
840.644	1375.5
845.952	1376.5
851.255	1368.5
856.552	1370.5
861.844	1360.5
867.13	1337.5
872.41	1326.5
877.686	1311.5
882.955	1308.5
888.219	1294.5
893.478	1261.5
898.731	1257.5
903.979	1234.5
909.221	1207.5
914.458	1226.5
919.69	1206.5
924.916	1198.5
930.136	1205.5
935.351	1215.5
940.561	1207.5
945.766	1197.5
950.965	1191.5
956.158	1201.5
961.347	1171.5
966.529	1147.5
971.707	1144.5
976.879	1130.5
982.046	1106.5
987.208	1105.5
992.364	1114.5
997.515	1120.5
1002.66	1125.5
1007.801	1130.5
1012.936	1142.5
1018.066	1159.5
1023.19	1172.5
1028.309	1161.5
1033.423	1143.5
1038.532	1136.5
1043.636	1138.5
1048.734	1135.5
1053.827	1134.5
1058.915	1106.5
1063.998	1102.5
1069.075	1085.5
1074.147	1105.5
1079.214	1099.5
1084.276	1110.5
1089.333	1129.5
1094.385	1127.5
1099.431	1139.5
1104.472	1141.5
1109.509	1139.5
1114.54	1110.5
1119.565	1109.5
1124.586	1095.5
1129.602	1074.5
1134.613	1076.5
1139.618	1076.5
1144.619	1093.5
1149.614	1061.5
1154.604	1079.5
1159.589	1092.5
1164.57	1094.5
1169.545	1095.5
1174.515	1113.5
1179.48	1095.5
1184.44	1084.5
1189.395	1086.5
1194.345	1077.5
1199.29	1084.5
1204.23	1066.5
1209.165	1071.5
1214.095	1085.5
1219.021	1110.5
1223.941	1108.5
1228.856	1118.5
1233.766	1118.5
1238.672	1116.5
1243.572	1108.5
1248.467	1110.5
1253.358	1092.5
1258.244	1075.5
1263.124	1067.5
1268	1058.5
1272.871	1029.5
1277.737	1030.5
1282.599	1033.5
1287.455	1033.5
1292.306	1056.5
1297.153	1034.5
1301.995	1041.5
1306.832	1054.5
1311.664	1057.5
1316.491	1066.5
1321.314	1065.5
1326.132	1045.5
1330.945	1031.5
1335.753	1021.5
1340.556	1003.5
1345.354	1008.5
1350.148	998.5
1354.937	989.5
1359.722	966.5
1364.501	974.5
1369.276	963.5
1374.046	955.5
1378.811	958.5
1383.572	944.5
1388.327	953.5
1393.079	953.5
1397.825	945.5
1402.567	938.5
1407.304	930.5
1412.036	927.5
1416.764	920.5
1421.487	937.5
1426.205	918.5
1430.919	935.5
1435.628	944.5
1440.333	970.5
1445.032	969.5
1449.727	971.5
1454.418	971.5
1459.104	974.5
1463.785	975.5
1468.462	946.5
1473.134	940.5
1477.802	947.5
1482.465	937.5
1487.123	949.5
1491.777	930.5
1496.426	941.5
1501.071	940.5
1505.711	961.5
1510.347	961.5
1514.978	974.5
1519.604	986.5
1524.226	996.5
1528.844	992.5
1533.457	991.5
1538.065	996.5
1542.669	990.5
1547.269	997.5
1551.864	979.5
1556.454	1011.5
1561.041	1019.5
1565.622	1010.5
1570.199	1031.5
1574.772	1031.5
1579.34	1079.5
1583.904	1072.5
1588.464	1108.5
1593.019	1112.5
1597.569	1137.5
1602.115	1146.5
1606.657	1158.5
1611.195	1154.5
1615.728	1182.5
1620.256	1183.5
1624.78	1205.5
1629.3	1218.5
1633.816	1252.5
1638.327	1247.5
1642.834	1270.5
1647.336	1280.5
1651.834	1289.5
1656.328	1285.5
1660.817	1293.5
1665.302	1266.5
1669.783	1239.5
1674.259	1195.5
1678.732	1171.5
1683.199	1127.5
1687.663	1077.5
1692.122	1042.5
1696.577	999.5
1701.028	950.5
1705.474	926.5
1709.917	905.5
1714.355	892.5
1718.788	871.5
1723.218	854.5
1727.643	828.5
1732.064	805.5
1736.481	795.5
1740.893	767.5
1745.301	766.5
1749.705	729.5
1754.105	712.5
1758.501	705.5
1762.893	684.5
1767.28	673.5
1771.663	679.5
1776.042	674.5
1780.417	684.5
1784.787	672.5
1789.154	673.5
1793.516	675.5
1797.874	663.5
1802.228	674.5
1806.578	657.5
1810.924	646.5
1815.266	631.5
1819.603	627.5
1823.937	613.5
1828.266	623.5
1832.591	613.5
1836.913	609.5
1841.23	610.5
1845.543	614.5
1849.852	618.5
1854.156	606.5
1858.457	604.5
1862.754	625.5
1867.047	609.5
1871.335	620.5
1875.62	626.5
1879.9	614.5
1884.177	622.5
1888.449	621.5
1892.718	605.5
1896.982	613.5
1901.243	623.5
1905.499	614.5
1909.752	603.5
1914	615.5
1918.245	615.5
1922.485	609.5
1926.722	610.5
1930.954	608.5
1935.183	617.5
1939.408	622.5
1943.628	622.5
1947.845	616.5
1952.058	636.5
1956.267	622.5
1960.472	608.5
1964.673	595.5
1968.87	590.5
1973.063	584.5
1977.252	586.5
1981.438	588.5
1985.619	588.5
1989.797	577.5
1993.971	580.5
1998.14	597.5
2002.306	586.5
2006.469	597.5
2010.627	597.5
2014.781	602.5
2018.932	597.5
2023.078	597.5
2027.221	586.5
2031.36	588.5
2035.495	588.5
2039.627	578.5
2043.754	575.5
2047.878	587.5
2051.998	583.5
2056.114	587.5
2060.226	578.5
2064.334	589.5
2068.439	589.5
2072.54	599.5
2076.637	591.5
2080.73	587.5
2084.82	593.5
2088.906	594.5
2092.988	604.5
2097.066	595.5
2101.14	592.5
2105.211	581.5
2109.278	571.5
2113.342	573.5
2117.401	576.5
2121.457	576.5
2125.509	566.5
2129.558	564.5
2133.602	563.5
2137.643	567.5
2141.681	565.5
2145.714	552.5
2149.744	555.5
2153.77	551.5
2157.793	538.5
2161.812	549.5
2165.827	534.5
2169.838	535.5
2173.846	529.5
2177.851	507.5
2181.851	515.5
2185.848	498.5
2189.841	493.5
2193.831	488.5
2197.817	492.5
2201.799	492.5
2205.778	487.5
2209.753	482.5
2213.725	477.5
2217.693	484.5
2221.657	477.5
2225.618	473.5
2229.575	477.5
2233.529	466.5
2237.479	469.5
2241.425	463.5
2245.368	448.5
2249.307	450.5
2253.243	455.5
2257.175	440.5
2261.104	425.5
2265.029	426.5
2268.95	421.5
2272.868	415.5
2276.783	407.5
2280.694	412.5
2284.601	405.5
2288.505	396.5
2292.405	398.5
2296.302	390.5
2300.195	384.5
2304.085	377.5
2307.971	372.5
2311.854	372.5
2315.734	356.5
2319.609	354.5
2323.482	339.5
2327.351	342.5
2331.216	345.5
2335.078	338.5
2338.937	339.5
2342.792	332.5
2346.643	335.5
2350.492	339.5
2354.336	327.5
2358.178	332.5
2362.015	332.5
2365.85	331.5
2369.681	330.5
2373.508	333.5
2377.333	329.5
2381.153	338.5
2384.971	328.5
2388.785	331.5
2392.595	334.5
2396.402	328.5
2400.206	326.5
2404.007	334.5
2407.804	327.5
2411.597	323.5
2415.388	318.5
2419.174	319.5
2422.958	314.5
2426.738	308.5
2430.515	314.5
2434.289	314.5
2438.059	308.5
2441.825	304.5
2445.589	296.5
2449.349	295.5
2453.106	295.5
2456.859	295.5
2460.61	290.5
2464.356	291.5
2468.1	281.5
2471.84	284.5
2475.577	290.5
2479.311	287.5
2483.041	294.5
2486.768	285.5
2490.492	284.5
2494.213	285.5
2497.93	286.5
2501.644	292.5
2505.355	288.5
2509.062	280.5
2512.766	289.5
2516.467	282.5
2520.165	289.5
2523.859	282.5
2527.551	275.5
2531.239	271.5
2534.923	270.5
2538.605	268.5
2542.283	266.5
2545.958	273.5
2549.63	255.5
2553.299	270.5
2556.964	258.5
2560.626	259.5
2564.285	258.5
2567.941	255.5
2571.594	258.5
2575.243	249.5
2578.89	255.5
2582.533	250.5
2586.173	247.5
2589.809	238.5
2593.443	241.5
2597.073	237.5
2600.701	236.5
2604.325	234.5
2607.946	237.5
2611.564	244.5
2615.178	239.5
2618.79	236.5
2622.398	244.5
2626.004	230.5
2629.606	230.5
2633.205	228.5
2636.801	225.5
2640.394	227.5
2643.983	214.5
2647.57	223.5
2651.153	219.5
2654.734	224.5
2658.311	209.5
2661.885	221.5
2665.456	218.5
2669.025	204.5
2672.589	207.5
2676.151	202.5
2679.71	199.5
2683.266	195.5
2686.819	197.5
2690.368	197.5
2693.915	188.5
2697.458	188.5
2700.999	189.5
2704.536	187.5
2708.071	185.5
2711.602	182.5
2715.13	189.5
2718.656	181.5
2722.178	180.5
2725.697	178.5
2729.214	187.5
2732.727	192.5
2736.237	184.5
2739.744	188.5
2743.249	189.5
2746.75	186.5
2750.248	192.5
2753.743	183.5
2757.236	185.5
2760.725	183.5
2764.211	176.5
2767.695	185.5
2771.175	180.5
2774.652	176.5
2778.127	177.5
2781.598	179.5
2785.067	175.5
2788.532	179.5
2791.995	183.5
2795.455	183.5
2798.911	179.5
2802.365	180.5
2805.816	179.5
2809.264	184.5
2812.709	179.5
2816.151	179.5
2819.59	179.5
2823.026	183.5
2826.46	174.5
2829.89	196.5
2833.318	188.5
2836.742	186.5
2840.164	180.5
2843.583	189.5
2846.999	188.5
2850.412	190.5
2853.822	197.5
2857.229	195.5
2860.634	210.5
2864.035	201.5
2867.434	207.5
2870.83	219.5
2874.223	213.5
2877.613	215.5
2881	213.5
2884.385	211.5
2887.766	226.5
2891.145	206.5
2894.521	218.5
2897.894	215.5
2901.264	212.5
2904.631	216.5
2907.996	218.5
2911.358	221.5
2914.717	220.5
2918.073	231.5
2921.426	239.5
2924.777	233.5
2928.124	240.5
2931.469	251.5
2934.811	245.5
2938.15	250.5
2941.487	252.5
2944.821	272.5
2948.152	270.5
2951.48	271.5
2954.805	276.5
2958.128	277.5
2961.447	281.5
2964.765	292.5
2968.079	289.5
2971.39	303.5
2974.699	309.5
2978.005	304.5
2981.308	316.5
2984.609	324.5
2987.907	341.5
2991.202	343.5
2994.494	354.5
2997.784	367.5
3001.07	379.5
3004.355	387.5
3007.636	403.5
3010.915	403.5
3014.191	406.5
3017.464	420.5
3020.734	424.5
3024.002	433.5
3027.267	440.5
3030.53	448.5
3033.789	460.5
3037.046	462.5
3040.301	473.5
3043.552	481.5
3046.801	502.5
3050.048	516.5
3053.291	542.5
3056.532	563.5
3059.771	562.5
3063.006	586.5
3066.239	595.5
3069.469	620.5
3072.697	629.5
3075.922	658.5
3079.144	668.5
3082.364	681.5
3085.581	703.5
3088.795	725.5
3092.007	724.5
3095.216	751.5
3098.423	767.5
3101.627	782.5
3104.828	790.5
3108.026	819.5
3111.222	826.5
3114.416	864.5
3117.607	874.5
3120.795	900.5
3123.98	931.5
3127.163	941.5
3130.344	966.5
3133.521	983.5
3136.696	993.5
3139.869	1017.5
3143.039	1026.5
3146.206	1066.5
3149.371	1057.5
3152.533	1063.5
3155.693	1082.5
3158.85	1103.5
3162.005	1103.5
3165.157	1098.5
3168.306	1118.5
3171.453	1126.5
3174.597	1120.5
3177.739	1121.5
3180.878	1122.5
3184.014	1120.5
3187.149	1145.5
3190.28	1137.5
3193.409	1142.5
3196.536	1145.5
3199.659	1142.5
3202.781	1158.5
3205.9	1154.5
3209.016	1151.5
3212.13	1156.5
3215.241	1154.5
3218.35	1140.5
3221.456	1116.5
3224.56	1118.5
3227.661	1112.5
3230.76	1115.5
3233.856	1078.5
3236.95	1082.5
3240.041	1067.5
3243.13	1069.5
3246.216	1064.5
3249.3	1048.5
3252.382	1042.5
3255.46	1035.5
3258.537	1022.5
3261.611	1046.5
3264.682	1034.5
3267.751	1017.5
3270.818	1014.5
3273.882	1003.5
3276.943	1009.5
3280.002	1013.5
3283.059	989.5
3286.113	982.5
3289.165	970.5
3292.214	958.5
3295.261	940.5
3298.306	928.5
3301.348	914.5
3304.387	901.5
3307.425	881.5
3310.459	872.5
3313.492	863.5
3316.521	846.5
3319.549	846.5
3322.574	850.5
3325.597	818.5
3328.617	826.5
3331.635	826.5
3334.65	819.5
3337.663	803.5
3340.674	826.5
3343.682	809.5
3346.688	812.5
3349.691	806.5
3352.692	793.5
3355.691	787.5
3358.687	793.5
3361.681	781.5
3364.673	753.5
3367.662	754.5
3370.649	734.5
3373.633	722.5
3376.615	733.5
3379.595	717.5
3382.572	707.5
3385.547	686.5
3388.52	688.5
3391.49	677.5
3394.458	660.5
3397.424	667.5
3400.387	652.5
3403.348	636.5
3406.307	638.5
3409.263	628.5
3412.217	625.5
3415.168	623.5
3418.118	619.5
3421.065	600.5
3424.009	604.5
3426.951	594.5
3429.891	570.5
3432.829	583.5
3435.764	554.5
3438.697	541.5
3441.628	525.5
3444.557	523.5
3447.483	500.5
3450.407	497.5
3453.328	474.5
3456.247	470.5
3459.164	430.5
3462.079	429.5
3464.991	422.5
3467.902	401.5
3470.809	396.5
3473.715	383.5
3476.618	372.5
3479.519	365.5
3482.418	353.5
3485.315	336.5
3488.209	337.5
3491.101	321.5
3493.99	324.5
3496.878	297.5
3499.763	289.5
3502.646	283.5
3505.527	277.5
3508.405	260.5
3511.281	255.5
3514.155	244.5
3517.027	228.5
3519.897	217.5
3522.764	210.5
3525.629	196.5
3528.492	179.5
3531.352	166.5
3534.211	164.5
3537.067	151.5
3539.921	146.5
3542.773	136.5
3545.622	126.5
3548.469	118.5
3551.315	102.5
3554.157	103.5
3556.998	100.5
3559.837	88.5
3562.673	83.5
3565.507	72.5
3568.339	73.5
3571.169	61.5
3573.996	62.5
3576.822	55.5
3579.645	53.5
3582.466	49.5
3585.285	37.5
3588.101	35.5
3590.916	33.5
3593.728	29.5
3596.538	18.5
3599.346	12.5
3602.152	4.5
3604.956	-2.5
3607.757	1.5
3610.556	-0.5
3613.354	-5.5
3616.149	-11.5
3618.942	-15.5
3621.732	-13.5
3624.521	-20.5
3627.307	-17.5
3630.092	-25.5
3632.874	-26.5
3635.654	-30.5
3638.432	-33.5
3641.208	-32.5
3643.982	-32.5
3646.753	-42.5
3649.523	-39.5
3652.29	-40.5
3655.055	-45.5
3657.818	-49.5
3660.579	-50.5
3663.338	-52.5
3666.095	-59.5
3668.849	-59.5
3671.602	-59.5
3674.352	-61.5
3677.101	-60.5
3679.847	-68.5
3682.591	-68.5
3685.333	-70.5
3688.073	-70.5
3690.811	-73.5
3693.547	-77.5
3696.281	-78.5
3699.013	-82.5
3701.742	-81.5
3704.47	-83.5
3707.195	-83.5
3709.919	-84.5
3712.64	-86.5
3715.359	-83.5
3718.076	-89.5
3720.792	-85.5
3723.505	-87.5
3726.216	-88.5
3728.925	-86.5
3731.632	-89.5
3734.336	-91.5
3737.039	-92.5
3739.74	-93.5
3742.439	-91.5
3745.136	-90.5
3747.83	-90.5
3750.523	-94.5
3753.213	-89.5
3755.902	-90.5
3758.589	-92.5
3761.273	-94.5
3763.956	-97.5
3766.636	-95.5
3769.315	-99.5
3771.991	-99.5
3774.665	-96.5
3777.338	-102.5
3780.008	-98.5
3782.677	-103.5
3785.343	-100.5
3788.007	-100.5
3790.67	-98.5
3793.33	-102.5
3795.989	-105.5
3798.645	-101.5
3801.299	-102.5
3803.952	-103.5
3806.602	-102.5
3809.251	-98.5
3811.897	-104.5
3814.542	-101.5
3817.184	-101.5
3819.825	-97.5
3822.463	-100.5
3825.1	-103.5
3827.735	-100.5
3830.367	-102.5
3832.998	-104.5
3835.627	-107.5
3838.253	-104.5
3840.878	-108.5
3843.501	-104.5
3846.122	-105.5
3848.741	-103.5
3851.358	-105.5
3853.973	-99.5
3856.586	-108.5
3859.197	-107.5
3861.806	-107.5
3864.414	-106.5
3867.019	-109.5
3869.622	-106.5
3872.224	-107.5
3874.823	-103.5
3877.421	-102.5
3880.016	-104.5
3882.61	-95.5
3885.202	-94.5
3887.792	-99.5
3890.38	-103.5
3892.966	-107.5
3895.55	-111.5
3898.132	-111.5
3900.713	-110.5
3903.291	-105.5
3905.868	-106.5
3908.442	-107.5
3911.015	-107.5
3913.586	-107.5
3916.155	-104.5
3918.722	-107.5
3921.287	-110.5
3923.85	-109.5
3926.411	-107.5
3928.971	-112.5
3931.528	-111.5
3934.084	-112.5
3936.638	-112.5
3939.19	-108.5
3941.74	-106.5
3944.288	-113.5
3946.834	-110.5
3949.378	-111.5
3951.921	-112.5
3954.462	-109.5
3957	-114.5
3959.537	-112.5
3962.072	-114.5
3964.606	-110.5
3967.137	-107.5
3969.667	-109.5
3972.194	-107.5
3974.72	-107.5
3977.244	-105.5
3979.766	-109.5
3982.286	-106.5
3984.805	-110.5
3987.321	-108.5
3989.836	-108.5
3992.349	-108.5
3994.86	-104.5
3997.369	-112.5
3999.877	-105.5
4002.382	-106.5
4004.886	-105.5
4007.388	-108.5
4009.888	-106.5
4012.386	-108.5
4014.883	-107.5
4017.377	-107.5
4019.87	-110.5
4022.361	-107.5
4024.85	-107.5
4027.338	-109.5
4029.823	-113.5
4032.307	-114.5
4034.789	-114.5
4037.269	-114.5
4039.747	-110.5
4042.224	-108.5
4044.699	-111.5
4047.172	-111.5
4049.643	-112.5
4052.112	-111.5
4054.58	-112.5
4057.046	-113.5
4059.51	-109.5
4061.972	-110.5
4064.432	-109.5
4066.891	-107.5
4069.348	-107.5
4071.803	-104.5
4074.256	-106.5
4076.708	-106.5
4079.158	-106.5
4081.606	-108.5
4084.052	-111.5
4086.497	-109.5
4088.939	-107.5
4091.38	-107.5
4093.819	-111.5
4096.257	-110.5
4098.693	-114.5
4101.127	-114.5
4103.559	-111.5
4105.989	-73.5
4108.418	-71.5
4110.845	-66.5
4113.27	-67.5
4115.694	-59.5
4118.115	-58.5
4120.535	-109.5
4122.954	-110.5
4125.37	-109.5
4127.785	-108.5
4130.198	-108.5
4132.609	-107.5
4135.019	-116.5
4137.427	-116.5
4139.833	-117.5
4142.237	-115.5
