Data from 1000CFU2_B_RamanShift_1.txt Node
Date: Thu Jan 26 11:31:43 IST 2017
User: aro
Spectrometer: QEPB0276
Trigger mode: 0
Integration Time (sec): 5.000000E0
Scans to average: 1
Electric dark correction enabled: true
Nonlinearity correction enabled: false
Boxcar width: 0
XAxis mode: Raman Shifts
Number of Pixels in Spectrum: 1044
>>>>>Begin Spectral Data<<<<<
160.701	-35.12
166.742	-2.12
172.777	100.88
178.805	387.88
184.826	1084.88
190.841	2211.88
196.849	3447.88
202.85	4220.88
208.845	4372.88
214.833	4218.88
220.815	4068.88
226.789	3963.88
232.758	3867.88
238.719	3746.88
244.674	3605.88
250.623	3457.88
256.565	3323.88
262.5	3147.88
268.429	3027.88
274.351	2910.88
280.267	2814.88
286.176	2740.88
292.079	2606.88
297.975	2554.88
303.865	2471.88
309.748	2413.88
315.625	2377.88
321.495	2289.88
327.359	2272.88
333.217	2258.88
339.068	2256.88
344.912	2250.88
350.751	2233.88
356.583	2218.88
362.408	2222.88
368.227	2204.88
374.04	2221.88
379.847	2229.88
385.647	2230.88
391.44	2238.88
397.228	2243.88
403.009	2267.88
408.784	2285.88
414.553	2280.88
420.315	2293.88
426.071	2317.88
431.821	2278.88
437.565	2299.88
443.302	2277.88
449.033	2264.88
454.758	2263.88
460.477	2260.88
466.189	2235.88
471.896	2222.88
477.596	2221.88
483.29	2226.88
488.978	2230.88
494.66	2175.88
500.335	2172.88
506.005	2108.88
511.668	2087.88
517.325	2052.88
522.977	2025.88
528.622	2009.88
534.261	1985.88
539.894	1952.88
545.521	1954.88
551.141	1941.88
556.756	1921.88
562.365	1910.88
567.968	1907.88
573.565	1893.88
579.155	1873.88
584.74	1873.88
590.319	1853.88
595.892	1850.88
601.459	1837.88
607.02	1810.88
612.575	1800.88
618.124	1780.88
623.667	1770.88
629.204	1751.88
634.735	1726.88
640.261	1735.88
645.781	1715.88
651.294	1706.88
656.802	1712.88
662.304	1708.88
667.8	1688.88
673.29	1693.88
678.775	1693.88
684.254	1699.88
689.726	1661.88
695.193	1662.88
700.655	1659.88
706.11	1644.88
711.56	1634.88
717.004	1621.88
722.442	1644.88
727.874	1598.88
733.301	1597.88
738.722	1598.88
744.137	1598.88
749.547	1589.88
754.951	1591.88
760.349	1586.88
765.741	1568.88
771.128	1567.88
776.509	1588.88
781.885	1576.88
787.254	1584.88
792.618	1572.88
797.977	1575.88
803.33	1547.88
808.677	1542.88
814.019	1515.88
819.355	1494.88
824.686	1504.88
830.011	1466.88
835.33	1486.88
840.644	1491.88
845.952	1467.88
851.255	1474.88
856.552	1451.88
861.844	1455.88
867.13	1460.88
872.41	1455.88
877.686	1425.88
882.955	1407.88
888.219	1380.88
893.478	1362.88
898.731	1352.88
903.979	1332.88
909.221	1322.88
914.458	1313.88
919.69	1313.88
924.916	1304.88
930.136	1312.88
935.351	1293.88
940.561	1300.88
945.766	1302.88
950.965	1296.88
956.158	1308.88
961.347	1342.88
966.529	1265.88
971.707	1233.88
976.879	1224.88
982.046	1214.88
987.208	1204.88
992.364	1216.88
997.515	1215.88
1002.66	1214.88
1007.801	1227.88
1012.936	1257.88
1018.066	1251.88
1023.19	1280.88
1028.309	1281.88
1033.423	1258.88
1038.532	1258.88
1043.636	1232.88
1048.734	1228.88
1053.827	1223.88
1058.915	1209.88
1063.998	1215.88
1069.075	1214.88
1074.147	1210.88
1079.214	1226.88
1084.276	1235.88
1089.333	1239.88
1094.385	1243.88
1099.431	1262.88
1104.472	1242.88
1109.509	1252.88
1114.54	1224.88
1119.565	1220.88
1124.586	1199.88
1129.602	1193.88
1134.613	1183.88
1139.618	1194.88
1144.619	1183.88
1149.614	1196.88
1154.604	1198.88
1159.589	1205.88
1164.57	1210.88
1169.545	1215.88
1174.515	1220.88
1179.48	1218.88
1184.44	1188.88
1189.395	1192.88
1194.345	1187.88
1199.29	1169.88
1204.23	1179.88
1209.165	1202.88
1214.095	1199.88
1219.021	1202.88
1223.941	1206.88
1228.856	1218.88
1233.766	1236.88
1238.672	1253.88
1243.572	1229.88
1248.467	1222.88
1253.358	1222.88
1258.244	1206.88
1263.124	1168.88
1268	1147.88
1272.871	1154.88
1277.737	1135.88
1282.599	1132.88
1287.455	1138.88
1292.306	1151.88
1297.153	1166.88
1301.995	1172.88
1306.832	1178.88
1311.664	1193.88
1316.491	1173.88
1321.314	1183.88
1326.132	1179.88
1330.945	1165.88
1335.753	1158.88
1340.556	1147.88
1345.354	1133.88
1350.148	1133.88
1354.937	1114.88
1359.722	1107.88
1364.501	1098.88
1369.276	1096.88
1374.046	1064.88
1378.811	1054.88
1383.572	1078.88
1388.327	1052.88
1393.079	1074.88
1397.825	1057.88
1402.567	1051.88
1407.304	1032.88
1412.036	1036.88
1416.764	1030.88
1421.487	1036.88
1426.205	1040.88
1430.919	1047.88
1435.628	1079.88
1440.333	1092.88
1445.032	1099.88
1449.727	1101.88
1454.418	1096.88
1459.104	1089.88
1463.785	1109.88
1468.462	1083.88
1473.134	1075.88
1477.802	1072.88
1482.465	1068.88
1487.123	1053.88
1491.777	1069.88
1496.426	1055.88
1501.071	1074.88
1505.711	1078.88
1510.347	1086.88
1514.978	1109.88
1519.604	1130.88
1524.226	1118.88
1528.844	1124.88
1533.457	1098.88
1538.065	1123.88
1542.669	1101.88
1547.269	1102.88
1551.864	1112.88
1556.454	1110.88
1561.041	1120.88
1565.622	1122.88
1570.199	1138.88
1574.772	1170.88
1579.34	1179.88
1583.904	1206.88
1588.464	1219.88
1593.019	1237.88
1597.569	1268.88
1602.115	1269.88
1606.657	1276.88
1611.195	1274.88
1615.728	1312.88
1620.256	1304.88
1624.78	1322.88
1629.3	1354.88
1633.816	1350.88
1638.327	1358.88
1642.834	1385.88
1647.336	1400.88
1651.834	1401.88
1656.328	1395.88
1660.817	1396.88
1665.302	1371.88
1669.783	1342.88
1674.259	1320.88
1678.732	1290.88
1683.199	1255.88
1687.663	1208.88
1692.122	1155.88
1696.577	1140.88
1701.028	1091.88
1705.474	1024.88
1709.917	996.88
1714.355	982.88
1718.788	977.88
1723.218	961.88
1727.643	949.88
1732.064	927.88
1736.481	920.88
1740.893	890.88
1745.301	873.88
1749.705	836.88
1754.105	828.88
1758.501	808.88
1762.893	791.88
1767.28	786.88
1771.663	789.88
1776.042	779.88
1780.417	789.88
1784.787	782.88
1789.154	782.88
1793.516	790.88
1797.874	776.88
1802.228	781.88
1806.578	765.88
1810.924	741.88
1815.266	743.88
1819.603	724.88
1823.937	715.88
1828.266	720.88
1832.591	722.88
1836.913	699.88
1841.23	715.88
1845.543	710.88
1849.852	704.88
1854.156	714.88
1858.457	717.88
1862.754	720.88
1867.047	703.88
1871.335	726.88
1875.62	728.88
1879.9	722.88
1884.177	729.88
1888.449	724.88
1892.718	720.88
1896.982	733.88
1901.243	718.88
1905.499	717.88
1909.752	717.88
1914	706.88
1918.245	730.88
1922.485	727.88
1926.722	731.88
1930.954	722.88
1935.183	719.88
1939.408	725.88
1943.628	743.88
1947.845	739.88
1952.058	733.88
1956.267	719.88
1960.472	715.88
1964.673	705.88
1968.87	688.88
1973.063	690.88
1977.252	685.88
1981.438	672.88
1985.619	673.88
1989.797	680.88
1993.971	675.88
1998.14	683.88
2002.306	691.88
2006.469	693.88
2010.627	682.88
2014.781	691.88
2018.932	678.88
2023.078	684.88
2027.221	679.88
2031.36	676.88
2035.495	683.88
2039.627	683.88
2043.754	666.88
2047.878	667.88
2051.998	668.88
2056.114	663.88
2060.226	667.88
2064.334	672.88
2068.439	676.88
2072.54	689.88
2076.637	689.88
2080.73	693.88
2084.82	698.88
2088.906	702.88
2092.988	687.88
2097.066	676.88
2101.14	697.88
2105.211	677.88
2109.278	666.88
2113.342	671.88
2117.401	664.88
2121.457	667.88
2125.509	665.88
2129.558	655.88
2133.602	657.88
2137.643	649.88
2141.681	662.88
2145.714	652.88
2149.744	656.88
2153.77	645.88
2157.793	627.88
2161.812	626.88
2165.827	619.88
2169.838	617.88
2173.846	601.88
2177.851	600.88
2181.851	584.88
2185.848	598.88
2189.841	582.88
2193.831	573.88
2197.817	578.88
2201.799	570.88
2205.778	556.88
2209.753	564.88
2213.725	564.88
2217.693	567.88
2221.657	565.88
2225.618	556.88
2229.575	561.88
2233.529	563.88
2237.479	556.88
2241.425	541.88
2245.368	540.88
2249.307	539.88
2253.243	523.88
2257.175	512.88
2261.104	516.88
2265.029	507.88
2268.95	504.88
2272.868	490.88
2276.783	486.88
2280.694	481.88
2284.601	474.88
2288.505	468.88
2292.405	460.88
2296.302	452.88
2300.195	453.88
2304.085	447.88
2307.971	450.88
2311.854	443.88
2315.734	428.88
2319.609	422.88
2323.482	417.88
2327.351	409.88
2331.216	412.88
2335.078	405.88
2338.937	402.88
2342.792	406.88
2346.643	402.88
2350.492	413.88
2354.336	399.88
2358.178	399.88
2362.015	403.88
2365.85	401.88
2369.681	405.88
2373.508	403.88
2377.333	399.88
2381.153	401.88
2384.971	400.88
2388.785	394.88
2392.595	404.88
2396.402	390.88
2400.206	397.88
2404.007	390.88
2407.804	400.88
2411.597	394.88
2415.388	387.88
2419.174	386.88
2422.958	387.88
2426.738	381.88
2430.515	378.88
2434.289	386.88
2438.059	382.88
2441.825	380.88
2445.589	368.88
2449.349	372.88
2453.106	369.88
2456.859	363.88
2460.61	368.88
2464.356	367.88
2468.1	354.88
2471.84	363.88
2475.577	352.88
2479.311	360.88
2483.041	350.88
2486.768	350.88
2490.492	359.88
2494.213	350.88
2497.93	348.88
2501.644	351.88
2505.355	354.88
2509.062	348.88
2512.766	356.88
2516.467	352.88
2520.165	352.88
2523.859	332.88
2527.551	343.88
2531.239	346.88
2534.923	337.88
2538.605	331.88
2542.283	328.88
2545.958	336.88
2549.63	331.88
2553.299	326.88
2556.964	321.88
2560.626	327.88
2564.285	324.88
2567.941	331.88
2571.594	323.88
2575.243	318.88
2578.89	327.88
2582.533	310.88
2586.173	302.88
2589.809	300.88
2593.443	300.88
2597.073	300.88
2600.701	299.88
2604.325	295.88
2607.946	301.88
2611.564	300.88
2615.178	286.88
2618.79	294.88
2622.398	287.88
2626.004	288.88
2629.606	292.88
2633.205	279.88
2636.801	282.88
2640.394	274.88
2643.983	271.88
2647.57	274.88
2651.153	273.88
2654.734	271.88
2658.311	273.88
2661.885	271.88
2665.456	263.88
2669.025	266.88
2672.589	256.88
2676.151	257.88
2679.71	255.88
2683.266	252.88
2686.819	249.88
2690.368	244.88
2693.915	248.88
2697.458	243.88
2700.999	241.88
2704.536	239.88
2708.071	236.88
2711.602	234.88
2715.13	233.88
2718.656	227.88
2722.178	229.88
2725.697	232.88
2729.214	227.88
2732.727	237.88
2736.237	229.88
2739.744	231.88
2743.249	240.88
2746.75	236.88
2750.248	239.88
2753.743	232.88
2757.236	230.88
2760.725	226.88
2764.211	225.88
2767.695	226.88
2771.175	219.88
2774.652	223.88
2778.127	232.88
2781.598	223.88
2785.067	217.88
2788.532	221.88
2791.995	230.88
2795.455	227.88
2798.911	226.88
2802.365	225.88
2805.816	223.88
2809.264	226.88
2812.709	228.88
2816.151	220.88
2819.59	233.88
2823.026	216.88
2826.46	228.88
2829.89	229.88
2833.318	225.88
2836.742	230.88
2840.164	234.88
2843.583	232.88
2846.999	239.88
2850.412	235.88
2853.822	239.88
2857.229	241.88
2860.634	236.88
2864.035	239.88
2867.434	250.88
2870.83	253.88
2874.223	254.88
2877.613	254.88
2881	255.88
2884.385	257.88
2887.766	251.88
2891.145	251.88
2894.521	258.88
2897.894	255.88
2901.264	262.88
2904.631	254.88
2907.996	259.88
2911.358	269.88
2914.717	262.88
2918.073	268.88
2921.426	267.88
2924.777	265.88
2928.124	272.88
2931.469	284.88
2934.811	289.88
2938.15	293.88
2941.487	292.88
2944.821	307.88
2948.152	307.88
2951.48	299.88
2954.805	312.88
2958.128	319.88
2961.447	321.88
2964.765	320.88
2968.079	325.88
2971.39	340.88
2974.699	343.88
2978.005	344.88
2981.308	352.88
2984.609	368.88
2987.907	373.88
2991.202	382.88
2994.494	384.88
2997.784	404.88
3001.07	411.88
3004.355	431.88
3007.636	440.88
3010.915	432.88
3014.191	444.88
3017.464	450.88
3020.734	459.88
3024.002	462.88
3027.267	467.88
3030.53	481.88
3033.789	484.88
3037.046	500.88
3040.301	511.88
3043.552	518.88
3046.801	531.88
3050.048	545.88
3053.291	568.88
3056.532	568.88
3059.771	591.88
3063.006	621.88
3066.239	624.88
3069.469	645.88
3072.697	668.88
3075.922	688.88
3079.144	717.88
3082.364	701.88
3085.581	729.88
3088.795	756.88
3092.007	760.88
3095.216	772.88
3098.423	798.88
3101.627	816.88
3104.828	825.88
3108.026	861.88
3111.222	871.88
3114.416	877.88
3117.607	910.88
3120.795	920.88
3123.98	931.88
3127.163	971.88
3130.344	979.88
3133.521	1014.88
3136.696	1032.88
3139.869	1058.88
3143.039	1061.88
3146.206	1073.88
3149.371	1101.88
3152.533	1111.88
3155.693	1100.88
3158.85	1113.88
3162.005	1108.88
3165.157	1117.88
3168.306	1134.88
3171.453	1137.88
3174.597	1143.88
3177.739	1142.88
3180.878	1141.88
3184.014	1148.88
3187.149	1140.88
3190.28	1149.88
3193.409	1161.88
3196.536	1155.88
3199.659	1165.88
3202.781	1169.88
3205.9	1171.88
3209.016	1175.88
3212.13	1165.88
3215.241	1164.88
3218.35	1167.88
3221.456	1135.88
3224.56	1137.88
3227.661	1123.88
3230.76	1132.88
3233.856	1113.88
3236.95	1097.88
3240.041	1088.88
3243.13	1071.88
3246.216	1068.88
3249.3	1075.88
3252.382	1047.88
3255.46	1065.88
3258.537	1045.88
3261.611	1045.88
3264.682	1047.88
3267.751	1037.88
3270.818	1034.88
3273.882	1032.88
3276.943	1011.88
3280.002	1003.88
3283.059	1002.88
3286.113	987.88
3289.165	979.88
3292.214	978.88
3295.261	946.88
3298.306	941.88
3301.348	934.88
3304.387	922.88
3307.425	894.88
3310.459	890.88
3313.492	887.88
3316.521	865.88
3319.549	866.88
3322.574	860.88
3325.597	834.88
3328.617	835.88
3331.635	836.88
3334.65	832.88
3337.663	832.88
3340.674	823.88
3343.682	822.88
3346.688	803.88
3349.691	806.88
3352.692	810.88
3355.691	797.88
3358.687	790.88
3361.681	795.88
3364.673	773.88
3367.662	768.88
3370.649	771.88
3373.633	755.88
3376.615	740.88
3379.595	727.88
3382.572	729.88
3385.547	714.88
3388.52	701.88
3391.49	698.88
3394.458	678.88
3397.424	673.88
3400.387	675.88
3403.348	665.88
3406.307	651.88
3409.263	642.88
3412.217	637.88
3415.168	631.88
3418.118	628.88
3421.065	618.88
3424.009	605.88
3426.951	593.88
3429.891	579.88
3432.829	585.88
3435.764	572.88
3438.697	545.88
3441.628	544.88
3444.557	530.88
3447.483	513.88
3450.407	498.88
3453.328	481.88
3456.247	470.88
3459.164	469.88
3462.079	443.88
3464.991	429.88
3467.902	417.88
3470.809	403.88
3473.715	397.88
3476.618	386.88
3479.519	370.88
3482.418	362.88
3485.315	353.88
3488.209	347.88
3491.101	334.88
3493.99	324.88
3496.878	308.88
3499.763	303.88
3502.646	286.88
3505.527	283.88
3508.405	272.88
3511.281	261.88
3514.155	258.88
3517.027	242.88
3519.897	229.88
3522.764	216.88
3525.629	209.88
3528.492	191.88
3531.352	178.88
3534.211	165.88
3537.067	164.88
3539.921	147.88
3542.773	141.88
3545.622	138.88
3548.469	125.88
3551.315	109.88
3554.157	111.88
3556.998	101.88
3559.837	93.88
3562.673	92.88
3565.507	83.88
3568.339	76.88
3571.169	71.88
3573.996	66.88
3576.822	62.88
3579.645	59.88
3582.466	49.88
3585.285	44.88
3588.101	40.88
3590.916	37.88
3593.728	35.88
3596.538	27.88
3599.346	15.88
3602.152	11.88
3604.956	10.88
3607.757	3.88
3610.556	-1.12
3613.354	-1.12
3616.149	-5.12
3618.942	-7.12
3621.732	-6.12
3624.521	-12.12
3627.307	-14.12
3630.092	-19.12
3632.874	-22.12
3635.654	-25.12
3638.432	-32.12
3641.208	-32.12
3643.982	-35.12
3646.753	-33.12
3649.523	-37.12
3652.29	-37.12
3655.055	-38.12
3657.818	-44.12
3660.579	-44.12
3663.338	-45.12
3666.095	-52.12
3668.849	-51.12
3671.602	-55.12
3674.352	-58.12
3677.101	-64.12
3679.847	-56.12
3682.591	-62.12
3685.333	-61.12
3688.073	-67.12
3690.811	-67.12
3693.547	-71.12
3696.281	-72.12
3699.013	-74.12
3701.742	-75.12
3704.47	-79.12
3707.195	-81.12
3709.919	-78.12
3712.64	-83.12
3715.359	-81.12
3718.076	-83.12
3720.792	-80.12
3723.505	-84.12
3726.216	-89.12
3728.925	-85.12
3731.632	-88.12
3734.336	-91.12
3737.039	-90.12
3739.74	-87.12
3742.439	-87.12
3745.136	-89.12
3747.83	-88.12
3750.523	-85.12
3753.213	-86.12
3755.902	-84.12
3758.589	-84.12
3761.273	-88.12
3763.956	-98.12
3766.636	-93.12
3769.315	-97.12
3771.991	-92.12
3774.665	-90.12
3777.338	-98.12
3780.008	-97.12
3782.677	-94.12
3785.343	-95.12
3788.007	-97.12
3790.67	-94.12
3793.33	-99.12
3795.989	-97.12
3798.645	-98.12
3801.299	-97.12
3803.952	-100.12
3806.602	-98.12
3809.251	-98.12
3811.897	-102.12
3814.542	-105.12
3817.184	-99.12
3819.825	-98.12
3822.463	-98.12
3825.1	-104.12
3827.735	-99.12
3830.367	-100.12
3832.998	-101.12
3835.627	-102.12
3838.253	-100.12
3840.878	-103.12
3843.501	-103.12
3846.122	-100.12
3848.741	-99.12
3851.358	-101.12
3853.973	-97.12
3856.586	-102.12
3859.197	-109.12
3861.806	-105.12
3864.414	-105.12
3867.019	-105.12
3869.622	-105.12
3872.224	-106.12
3874.823	-101.12
3877.421	-96.12
3880.016	-100.12
3882.61	-94.12
3885.202	-93.12
3887.792	-97.12
3890.38	-101.12
3892.966	-105.12
3895.55	-108.12
3898.132	-110.12
3900.713	-110.12
3903.291	-102.12
3905.868	-105.12
3908.442	-107.12
3911.015	-105.12
3913.586	-106.12
3916.155	-104.12
3918.722	-106.12
3921.287	-108.12
3923.85	-108.12
3926.411	-103.12
3928.971	-109.12
3931.528	-109.12
3934.084	-112.12
3936.638	-107.12
3939.19	-106.12
3941.74	-102.12
3944.288	-109.12
3946.834	-108.12
3949.378	-110.12
3951.921	-109.12
3954.462	-108.12
3957	-113.12
3959.537	-116.12
3962.072	-111.12
3964.606	-110.12
3967.137	-107.12
3969.667	-110.12
3972.194	-106.12
3974.72	-106.12
3977.244	-104.12
3979.766	-104.12
3982.286	-108.12
3984.805	-109.12
3987.321	-107.12
3989.836	-108.12
3992.349	-109.12
3994.86	-104.12
3997.369	-108.12
3999.877	-104.12
4002.382	-105.12
4004.886	-106.12
4007.388	-108.12
4009.888	-106.12
4012.386	-106.12
4014.883	-107.12
4017.377	-105.12
4019.87	-108.12
4022.361	-109.12
4024.85	-109.12
4027.338	-107.12
4029.823	-112.12
4032.307	-111.12
4034.789	-109.12
4037.269	-111.12
4039.747	-107.12
4042.224	-103.12
4044.699	-108.12
4047.172	-105.12
4049.643	-107.12
4052.112	-105.12
4054.58	-110.12
4057.046	-107.12
4059.51	-105.12
4061.972	-105.12
4064.432	-104.12
4066.891	-107.12
4069.348	-105.12
4071.803	-103.12
4074.256	-104.12
4076.708	-107.12
4079.158	-108.12
4081.606	-107.12
4084.052	-106.12
4086.497	-107.12
4088.939	-107.12
4091.38	-111.12
4093.819	-109.12
4096.257	-111.12
4098.693	-115.12
4101.127	-114.12
4103.559	-109.12
4105.989	-69.12
4108.418	-68.12
4110.845	-70.12
4113.27	-63.12
4115.694	-59.12
4118.115	-54.12
4120.535	-108.12
4122.954	-107.12
4125.37	-108.12
4127.785	-107.12
4130.198	-106.12
4132.609	-105.12
4135.019	-112.12
4137.427	-113.12
4139.833	-113.12
4142.237	-113.12
