Data from 100000CFU1_B_RamanShift_1.txt Node
Date: Thu Jan 26 11:36:53 IST 2017
User: aro
Spectrometer: QEPB0276
Trigger mode: 0
Integration Time (sec): 5.000000E0
Scans to average: 1
Electric dark correction enabled: true
Nonlinearity correction enabled: false
Boxcar width: 0
XAxis mode: Raman Shifts
Number of Pixels in Spectrum: 1044
>>>>>Begin Spectral Data<<<<<
160.701	-31.38
166.742	-5.38
172.777	94.62
178.805	392.62
184.826	1083.62
190.841	2223.62
196.849	3471.62
202.85	4234.62
208.845	4402.62
214.833	4247.62
220.815	4095.62
226.789	3999.62
232.758	3885.62
238.719	3775.62
244.674	3603.62
250.623	3469.62
256.565	3315.62
262.5	3146.62
268.429	3013.62
274.351	2867.62
280.267	2753.62
286.176	2702.62
292.079	2618.62
297.975	2508.62
303.865	2434.62
309.748	2371.62
315.625	2341.62
321.495	2274.62
327.359	2235.62
333.217	2235.62
339.068	2193.62
344.912	2170.62
350.751	2176.62
356.583	2179.62
362.408	2197.62
368.227	2178.62
374.04	2184.62
379.847	2206.62
385.647	2198.62
391.44	2208.62
397.228	2238.62
403.009	2230.62
408.784	2238.62
414.553	2251.62
420.315	2245.62
426.071	2252.62
431.821	2264.62
437.565	2258.62
443.302	2238.62
449.033	2234.62
454.758	2232.62
460.477	2218.62
466.189	2203.62
471.896	2205.62
477.596	2178.62
483.29	2173.62
488.978	2159.62
494.66	2145.62
500.335	2117.62
506.005	2088.62
511.668	2042.62
517.325	2021.62
522.977	1993.62
528.622	1967.62
534.261	1947.62
539.894	1917.62
545.521	1888.62
551.141	1892.62
556.756	1871.62
562.365	1862.62
567.968	1839.62
573.565	1843.62
579.155	1828.62
584.74	1825.62
590.319	1794.62
595.892	1795.62
601.459	1775.62
607.02	1786.62
612.575	1747.62
618.124	1741.62
623.667	1718.62
629.204	1694.62
634.735	1666.62
640.261	1675.62
645.781	1668.62
651.294	1646.62
656.802	1657.62
662.304	1667.62
667.8	1647.62
673.29	1643.62
678.775	1633.62
684.254	1624.62
689.726	1605.62
695.193	1624.62
700.655	1604.62
706.11	1576.62
711.56	1586.62
717.004	1574.62
722.442	1567.62
727.874	1556.62
733.301	1548.62
738.722	1525.62
744.137	1526.62
749.547	1521.62
754.951	1537.62
760.349	1516.62
765.741	1508.62
771.128	1506.62
776.509	1508.62
781.885	1519.62
787.254	1511.62
792.618	1514.62
797.977	1497.62
803.33	1475.62
808.677	1457.62
814.019	1463.62
819.355	1453.62
824.686	1418.62
830.011	1414.62
835.33	1402.62
840.644	1429.62
845.952	1400.62
851.255	1408.62
856.552	1382.62
861.844	1377.62
867.13	1383.62
872.41	1364.62
877.686	1357.62
882.955	1329.62
888.219	1302.62
893.478	1277.62
898.731	1277.62
903.979	1247.62
909.221	1250.62
914.458	1243.62
919.69	1240.62
924.916	1231.62
930.136	1227.62
935.351	1231.62
940.561	1230.62
945.766	1218.62
950.965	1217.62
956.158	1203.62
961.347	1205.62
966.529	1178.62
971.707	1155.62
976.879	1153.62
982.046	1117.62
987.208	1134.62
992.364	1129.62
997.515	1130.62
1002.66	1142.62
1007.801	1141.62
1012.936	1165.62
1018.066	1173.62
1023.19	1175.62
1028.309	1175.62
1033.423	1173.62
1038.532	1180.62
1043.636	1140.62
1048.734	1157.62
1053.827	1151.62
1058.915	1130.62
1063.998	1119.62
1069.075	1138.62
1074.147	1119.62
1079.214	1126.62
1084.276	1139.62
1089.333	1139.62
1094.385	1146.62
1099.431	1152.62
1104.472	1156.62
1109.509	1142.62
1114.54	1159.62
1119.565	1128.62
1124.586	1123.62
1129.602	1099.62
1134.613	1106.62
1139.618	1091.62
1144.619	1090.62
1149.614	1087.62
1154.604	1111.62
1159.589	1124.62
1164.57	1125.62
1169.545	1116.62
1174.515	1111.62
1179.48	1112.62
1184.44	1101.62
1189.395	1108.62
1194.345	1094.62
1199.29	1097.62
1204.23	1093.62
1209.165	1100.62
1214.095	1120.62
1219.021	1101.62
1223.941	1123.62
1228.856	1145.62
1233.766	1130.62
1238.672	1143.62
1243.572	1127.62
1248.467	1130.62
1253.358	1109.62
1258.244	1091.62
1263.124	1075.62
1268	1079.62
1272.871	1061.62
1277.737	1042.62
1282.599	1053.62
1287.455	1047.62
1292.306	1057.62
1297.153	1059.62
1301.995	1076.62
1306.832	1080.62
1311.664	1075.62
1316.491	1102.62
1321.314	1083.62
1326.132	1084.62
1330.945	1065.62
1335.753	1064.62
1340.556	1051.62
1345.354	1021.62
1350.148	1035.62
1354.937	1010.62
1359.722	995.62
1364.501	999.62
1369.276	982.62
1374.046	985.62
1378.811	968.62
1383.572	971.62
1388.327	983.62
1393.079	967.62
1397.825	948.62
1402.567	963.62
1407.304	938.62
1412.036	940.62
1416.764	946.62
1421.487	957.62
1426.205	949.62
1430.919	968.62
1435.628	964.62
1440.333	983.62
1445.032	986.62
1449.727	998.62
1454.418	1004.62
1459.104	992.62
1463.785	993.62
1468.462	981.62
1473.134	974.62
1477.802	962.62
1482.465	963.62
1487.123	966.62
1491.777	963.62
1496.426	978.62
1501.071	977.62
1505.711	991.62
1510.347	987.62
1514.978	1006.62
1519.604	1011.62
1524.226	1019.62
1528.844	1028.62
1533.457	1015.62
1538.065	1004.62
1542.669	1000.62
1547.269	1011.62
1551.864	1023.62
1556.454	1017.62
1561.041	1031.62
1565.622	1044.62
1570.199	1046.62
1574.772	1066.62
1579.34	1084.62
1583.904	1117.62
1588.464	1145.62
1593.019	1152.62
1597.569	1168.62
1602.115	1169.62
1606.657	1208.62
1611.195	1192.62
1615.728	1209.62
1620.256	1231.62
1624.78	1247.62
1629.3	1254.62
1633.816	1285.62
1638.327	1283.62
1642.834	1303.62
1647.336	1327.62
1651.834	1310.62
1656.328	1323.62
1660.817	1316.62
1665.302	1289.62
1669.783	1255.62
1674.259	1243.62
1678.732	1204.62
1683.199	1173.62
1687.663	1120.62
1692.122	1088.62
1696.577	1037.62
1701.028	1003.62
1705.474	957.62
1709.917	925.62
1714.355	926.62
1718.788	892.62
1723.218	869.62
1727.643	869.62
1732.064	834.62
1736.481	829.62
1740.893	808.62
1745.301	779.62
1749.705	759.62
1754.105	737.62
1758.501	724.62
1762.893	715.62
1767.28	704.62
1771.663	702.62
1776.042	707.62
1780.417	690.62
1784.787	701.62
1789.154	705.62
1793.516	716.62
1797.874	693.62
1802.228	694.62
1806.578	692.62
1810.924	668.62
1815.266	639.62
1819.603	633.62
1823.937	641.62
1828.266	626.62
1832.591	636.62
1836.913	619.62
1841.23	624.62
1845.543	628.62
1849.852	627.62
1854.156	632.62
1858.457	641.62
1862.754	628.62
1867.047	640.62
1871.335	640.62
1875.62	642.62
1879.9	652.62
1884.177	644.62
1888.449	640.62
1892.718	644.62
1896.982	631.62
1901.243	636.62
1905.499	639.62
1909.752	632.62
1914	638.62
1918.245	624.62
1922.485	629.62
1926.722	634.62
1930.954	629.62
1935.183	649.62
1939.408	639.62
1943.628	658.62
1947.845	633.62
1952.058	648.62
1956.267	637.62
1960.472	639.62
1964.673	633.62
1968.87	633.62
1973.063	606.62
1977.252	610.62
1981.438	605.62
1985.619	608.62
1989.797	605.62
1993.971	612.62
1998.14	614.62
2002.306	615.62
2006.469	609.62
2010.627	615.62
2014.781	612.62
2018.932	624.62
2023.078	618.62
2027.221	611.62
2031.36	612.62
2035.495	602.62
2039.627	607.62
2043.754	588.62
2047.878	601.62
2051.998	595.62
2056.114	602.62
2060.226	597.62
2064.334	608.62
2068.439	608.62
2072.54	612.62
2076.637	622.62
2080.73	611.62
2084.82	628.62
2088.906	614.62
2092.988	624.62
2097.066	613.62
2101.14	616.62
2105.211	613.62
2109.278	602.62
2113.342	611.62
2117.401	602.62
2121.457	602.62
2125.509	605.62
2129.558	589.62
2133.602	593.62
2137.643	573.62
2141.681	587.62
2145.714	578.62
2149.744	576.62
2153.77	562.62
2157.793	568.62
2161.812	560.62
2165.827	549.62
2169.838	553.62
2173.846	532.62
2177.851	539.62
2181.851	523.62
2185.848	515.62
2189.841	520.62
2193.831	502.62
2197.817	504.62
2201.799	508.62
2205.778	509.62
2209.753	508.62
2213.725	510.62
2217.693	506.62
2221.657	497.62
2225.618	490.62
2229.575	498.62
2233.529	493.62
2237.479	488.62
2241.425	483.62
2245.368	482.62
2249.307	459.62
2253.243	473.62
2257.175	463.62
2261.104	449.62
2265.029	449.62
2268.95	440.62
2272.868	441.62
2276.783	424.62
2280.694	420.62
2284.601	417.62
2288.505	423.62
2292.405	409.62
2296.302	413.62
2300.195	408.62
2304.085	391.62
2307.971	390.62
2311.854	383.62
2315.734	377.62
2319.609	370.62
2323.482	355.62
2327.351	349.62
2331.216	356.62
2335.078	364.62
2338.937	347.62
2342.792	351.62
2346.643	350.62
2350.492	349.62
2354.336	350.62
2358.178	347.62
2362.015	345.62
2365.85	342.62
2369.681	347.62
2373.508	350.62
2377.333	344.62
2381.153	347.62
2384.971	343.62
2388.785	353.62
2392.595	346.62
2396.402	340.62
2400.206	343.62
2404.007	342.62
2407.804	341.62
2411.597	330.62
2415.388	342.62
2419.174	325.62
2422.958	333.62
2426.738	331.62
2430.515	327.62
2434.289	327.62
2438.059	325.62
2441.825	326.62
2445.589	321.62
2449.349	309.62
2453.106	312.62
2456.859	310.62
2460.61	301.62
2464.356	308.62
2468.1	298.62
2471.84	305.62
2475.577	302.62
2479.311	317.62
2483.041	301.62
2486.768	306.62
2490.492	307.62
2494.213	295.62
2497.93	300.62
2501.644	300.62
2505.355	296.62
2509.062	293.62
2512.766	298.62
2516.467	294.62
2520.165	301.62
2523.859	302.62
2527.551	301.62
2531.239	297.62
2534.923	284.62
2538.605	284.62
2542.283	279.62
2545.958	282.62
2549.63	274.62
2553.299	282.62
2556.964	263.62
2560.626	273.62
2564.285	268.62
2567.941	271.62
2571.594	270.62
2575.243	276.62
2578.89	271.62
2582.533	265.62
2586.173	257.62
2589.809	259.62
2593.443	257.62
2597.073	252.62
2600.701	251.62
2604.325	255.62
2607.946	255.62
2611.564	251.62
2615.178	253.62
2618.79	245.62
2622.398	252.62
2626.004	241.62
2629.606	244.62
2633.205	240.62
2636.801	243.62
2640.394	232.62
2643.983	228.62
2647.57	231.62
2651.153	233.62
2654.734	226.62
2658.311	229.62
2661.885	218.62
2665.456	219.62
2669.025	214.62
2672.589	215.62
2676.151	204.62
2679.71	208.62
2683.266	205.62
2686.819	200.62
2690.368	202.62
2693.915	207.62
2697.458	214.62
2700.999	207.62
2704.536	197.62
2708.071	199.62
2711.602	199.62
2715.13	196.62
2718.656	197.62
2722.178	190.62
2725.697	202.62
2729.214	195.62
2732.727	201.62
2736.237	196.62
2739.744	206.62
2743.249	204.62
2746.75	206.62
2750.248	201.62
2753.743	207.62
2757.236	204.62
2760.725	193.62
2764.211	190.62
2767.695	189.62
2771.175	188.62
2774.652	192.62
2778.127	190.62
2781.598	190.62
2785.067	190.62
2788.532	191.62
2791.995	191.62
2795.455	188.62
2798.911	196.62
2802.365	190.62
2805.816	187.62
2809.264	189.62
2812.709	190.62
2816.151	196.62
2819.59	199.62
2823.026	192.62
2826.46	198.62
2829.89	200.62
2833.318	196.62
2836.742	203.62
2840.164	202.62
2843.583	198.62
2846.999	204.62
2850.412	209.62
2853.822	205.62
2857.229	214.62
2860.634	219.62
2864.035	221.62
2867.434	221.62
2870.83	216.62
2874.223	223.62
2877.613	225.62
2881	227.62
2884.385	225.62
2887.766	225.62
2891.145	227.62
2894.521	223.62
2897.894	226.62
2901.264	229.62
2904.631	225.62
2907.996	237.62
2911.358	238.62
2914.717	243.62
2918.073	245.62
2921.426	244.62
2924.777	254.62
2928.124	253.62
2931.469	253.62
2934.811	262.62
2938.15	268.62
2941.487	275.62
2944.821	282.62
2948.152	280.62
2951.48	290.62
2954.805	294.62
2958.128	292.62
2961.447	298.62
2964.765	308.62
2968.079	313.62
2971.39	315.62
2974.699	326.62
2978.005	332.62
2981.308	340.62
2984.609	340.62
2987.907	354.62
2991.202	365.62
2994.494	370.62
2997.784	393.62
3001.07	409.62
3004.355	416.62
3007.636	422.62
3010.915	436.62
3014.191	438.62
3017.464	445.62
3020.734	459.62
3024.002	459.62
3027.267	466.62
3030.53	469.62
3033.789	481.62
3037.046	486.62
3040.301	501.62
3043.552	506.62
3046.801	533.62
3050.048	542.62
3053.291	562.62
3056.532	577.62
3059.771	585.62
3063.006	610.62
3066.239	620.62
3069.469	651.62
3072.697	663.62
3075.922	683.62
3079.144	694.62
3082.364	708.62
3085.581	723.62
3088.795	741.62
3092.007	765.62
3095.216	782.62
3098.423	810.62
3101.627	819.62
3104.828	841.62
3108.026	848.62
3111.222	868.62
3114.416	887.62
3117.607	909.62
3120.795	932.62
3123.98	952.62
3127.163	984.62
3130.344	1006.62
3133.521	1026.62
3136.696	1046.62
3139.869	1059.62
3143.039	1088.62
3146.206	1103.62
3149.371	1103.62
3152.533	1116.62
3155.693	1126.62
3158.85	1137.62
3162.005	1145.62
3165.157	1157.62
3168.306	1169.62
3171.453	1153.62
3174.597	1169.62
3177.739	1166.62
3180.878	1181.62
3184.014	1173.62
3187.149	1186.62
3190.28	1173.62
3193.409	1187.62
3196.536	1192.62
3199.659	1184.62
3202.781	1197.62
3205.9	1198.62
3209.016	1193.62
3212.13	1197.62
3215.241	1196.62
3218.35	1187.62
3221.456	1169.62
3224.56	1164.62
3227.661	1161.62
3230.76	1144.62
3233.856	1136.62
3236.95	1108.62
3240.041	1104.62
3243.13	1109.62
3246.216	1092.62
3249.3	1105.62
3252.382	1081.62
3255.46	1078.62
3258.537	1092.62
3261.611	1053.62
3264.682	1061.62
3267.751	1054.62
3270.818	1062.62
3273.882	1050.62
3276.943	1048.62
3280.002	1044.62
3283.059	1028.62
3286.113	1008.62
3289.165	995.62
3292.214	986.62
3295.261	976.62
3298.306	962.62
3301.348	954.62
3304.387	936.62
3307.425	915.62
3310.459	906.62
3313.492	895.62
3316.521	890.62
3319.549	878.62
3322.574	864.62
3325.597	863.62
3328.617	862.62
3331.635	848.62
3334.65	846.62
3337.663	846.62
3340.674	849.62
3343.682	831.62
3346.688	829.62
3349.691	823.62
3352.692	827.62
3355.691	819.62
3358.687	821.62
3361.681	801.62
3364.673	792.62
3367.662	783.62
3370.649	767.62
3373.633	755.62
3376.615	757.62
3379.595	736.62
3382.572	741.62
3385.547	724.62
3388.52	709.62
3391.49	705.62
3394.458	694.62
3397.424	689.62
3400.387	681.62
3403.348	682.62
3406.307	653.62
3409.263	666.62
3412.217	651.62
3415.168	649.62
3418.118	638.62
3421.065	636.62
3424.009	630.62
3426.951	611.62
3429.891	592.62
3432.829	594.62
3435.764	578.62
3438.697	566.62
3441.628	558.62
3444.557	542.62
3447.483	525.62
3450.407	509.62
3453.328	503.62
3456.247	487.62
3459.164	465.62
3462.079	448.62
3464.991	440.62
3467.902	429.62
3470.809	424.62
3473.715	408.62
3476.618	395.62
3479.519	388.62
3482.418	378.62
3485.315	358.62
3488.209	353.62
3491.101	342.62
3493.99	326.62
3496.878	318.62
3499.763	308.62
3502.646	296.62
3505.527	298.62
3508.405	276.62
3511.281	276.62
3514.155	257.62
3517.027	242.62
3519.897	230.62
3522.764	215.62
3525.629	205.62
3528.492	199.62
3531.352	186.62
3534.211	168.62
3537.067	168.62
3539.921	150.62
3542.773	142.62
3545.622	137.62
3548.469	136.62
3551.315	126.62
3554.157	116.62
3556.998	108.62
3559.837	100.62
3562.673	96.62
3565.507	85.62
3568.339	87.62
3571.169	76.62
3573.996	72.62
3576.822	63.62
3579.645	56.62
3582.466	55.62
3585.285	51.62
3588.101	49.62
3590.916	40.62
3593.728	34.62
3596.538	21.62
3599.346	12.62
3602.152	11.62
3604.956	9.62
3607.757	5.62
3610.556	3.62
3613.354	-2.38
3616.149	-3.38
3618.942	-4.38
3621.732	-4.38
3624.521	-7.38
3627.307	-14.38
3630.092	-13.38
3632.874	-15.38
3635.654	-26.38
3638.432	-28.38
3641.208	-27.38
3643.982	-27.38
3646.753	-35.38
3649.523	-33.38
3652.29	-35.38
3655.055	-42.38
3657.818	-41.38
3660.579	-43.38
3663.338	-47.38
3666.095	-50.38
3668.849	-59.38
3671.602	-55.38
3674.352	-61.38
3677.101	-64.38
3679.847	-63.38
3682.591	-63.38
3685.333	-67.38
3688.073	-65.38
3690.811	-67.38
3693.547	-67.38
3696.281	-74.38
3699.013	-76.38
3701.742	-72.38
3704.47	-75.38
3707.195	-77.38
3709.919	-73.38
3712.64	-77.38
3715.359	-76.38
3718.076	-79.38
3720.792	-78.38
3723.505	-81.38
3726.216	-87.38
3728.925	-83.38
3731.632	-88.38
3734.336	-88.38
3737.039	-88.38
3739.74	-88.38
3742.439	-91.38
3745.136	-90.38
3747.83	-89.38
3750.523	-91.38
3753.213	-90.38
3755.902	-89.38
3758.589	-85.38
3761.273	-91.38
3763.956	-97.38
3766.636	-95.38
3769.315	-93.38
3771.991	-92.38
3774.665	-92.38
3777.338	-95.38
3780.008	-96.38
3782.677	-93.38
3785.343	-91.38
3788.007	-93.38
3790.67	-95.38
3793.33	-95.38
3795.989	-96.38
3798.645	-95.38
3801.299	-97.38
3803.952	-96.38
3806.602	-94.38
3809.251	-92.38
3811.897	-101.38
3814.542	-101.38
3817.184	-99.38
3819.825	-94.38
3822.463	-98.38
3825.1	-102.38
3827.735	-98.38
3830.367	-99.38
3832.998	-102.38
3835.627	-102.38
3838.253	-102.38
3840.878	-107.38
3843.501	-99.38
3846.122	-101.38
3848.741	-100.38
3851.358	-101.38
3853.973	-95.38
3856.586	-102.38
3859.197	-104.38
3861.806	-104.38
3864.414	-104.38
3867.019	-109.38
3869.622	-105.38
3872.224	-102.38
3874.823	-100.38
3877.421	-95.38
3880.016	-100.38
3882.61	-95.38
3885.202	-90.38
3887.792	-94.38
3890.38	-101.38
3892.966	-102.38
3895.55	-105.38
3898.132	-108.38
3900.713	-108.38
3903.291	-104.38
3905.868	-103.38
3908.442	-104.38
3911.015	-102.38
3913.586	-104.38
3916.155	-103.38
3918.722	-105.38
3921.287	-103.38
3923.85	-104.38
3926.411	-103.38
3928.971	-106.38
3931.528	-108.38
3934.084	-107.38
3936.638	-105.38
3939.19	-104.38
3941.74	-104.38
3944.288	-108.38
3946.834	-108.38
3949.378	-108.38
3951.921	-106.38
3954.462	-104.38
3957	-112.38
3959.537	-111.38
3962.072	-108.38
3964.606	-109.38
3967.137	-103.38
3969.667	-107.38
3972.194	-101.38
3974.72	-104.38
3977.244	-102.38
3979.766	-106.38
3982.286	-103.38
3984.805	-106.38
3987.321	-107.38
3989.836	-102.38
3992.349	-104.38
3994.86	-102.38
3997.369	-109.38
3999.877	-102.38
4002.382	-104.38
4004.886	-104.38
4007.388	-103.38
4009.888	-104.38
4012.386	-106.38
4014.883	-102.38
4017.377	-104.38
4019.87	-104.38
4022.361	-105.38
4024.85	-104.38
4027.338	-107.38
4029.823	-109.38
4032.307	-108.38
4034.789	-109.38
4037.269	-107.38
4039.747	-108.38
4042.224	-101.38
4044.699	-107.38
4047.172	-111.38
4049.643	-105.38
4052.112	-108.38
4054.58	-107.38
4057.046	-106.38
4059.51	-105.38
4061.972	-106.38
4064.432	-103.38
4066.891	-104.38
4069.348	-100.38
4071.803	-102.38
4074.256	-102.38
4076.708	-104.38
4079.158	-102.38
4081.606	-107.38
4084.052	-106.38
4086.497	-104.38
4088.939	-104.38
4091.38	-107.38
4093.819	-109.38
4096.257	-108.38
4098.693	-110.38
4101.127	-111.38
4103.559	-108.38
4105.989	-67.38
4108.418	-67.38
4110.845	-67.38
4113.27	-57.38
4115.694	-53.38
4118.115	-46.38
4120.535	-107.38
4122.954	-103.38
4125.37	-105.38
4127.785	-104.38
4130.198	-104.38
4132.609	-101.38
4135.019	-108.38
4137.427	-112.38
4139.833	-117.38
4142.237	-112.38
