Data from 10000000CFU3_B_RamanShift_2.txt Node
Date: Thu Jan 26 11:44:58 IST 2017
User: aro
Spectrometer: QEPB0276
Trigger mode: 0
Integration Time (sec): 5.000000E0
Scans to average: 1
Electric dark correction enabled: true
Nonlinearity correction enabled: false
Boxcar width: 0
XAxis mode: Raman Shifts
Number of Pixels in Spectrum: 1044
>>>>>Begin Spectral Data<<<<<
160.701	-34.62
166.742	-0.62
172.777	99.38
178.805	403.38
184.826	1100.38
190.841	2275.38
196.849	3539.38
202.85	4352.38
208.845	4508.38
214.833	4373.38
220.815	4196.38
226.789	4114.38
232.758	4011.38
238.719	3894.38
244.674	3774.38
250.623	3618.38
256.565	3478.38
262.5	3307.38
268.429	3178.38
274.351	3062.38
280.267	2942.38
286.176	2863.38
292.079	2794.38
297.975	2698.38
303.865	2603.38
309.748	2556.38
315.625	2504.38
321.495	2464.38
327.359	2425.38
333.217	2369.38
339.068	2384.38
344.912	2367.38
350.751	2359.38
356.583	2360.38
362.408	2346.38
368.227	2348.38
374.04	2370.38
379.847	2374.38
385.647	2366.38
391.44	2406.38
397.228	2387.38
403.009	2422.38
408.784	2430.38
414.553	2432.38
420.315	2438.38
426.071	2430.38
431.821	2430.38
437.565	2442.38
443.302	2439.38
449.033	2418.38
454.758	2417.38
460.477	2414.38
466.189	2413.38
471.896	2404.38
477.596	2386.38
483.29	2378.38
488.978	2350.38
494.66	2319.38
500.335	2331.38
506.005	2272.38
511.668	2232.38
517.325	2207.38
522.977	2182.38
528.622	2145.38
534.261	2133.38
539.894	2109.38
545.521	2098.38
551.141	2067.38
556.756	2085.38
562.365	2056.38
567.968	2053.38
573.565	2048.38
579.155	2023.38
584.74	2008.38
590.319	2008.38
595.892	1992.38
601.459	1970.38
607.02	1969.38
612.575	1940.38
618.124	1934.38
623.667	1912.38
629.204	1898.38
634.735	1872.38
640.261	1869.38
645.781	1868.38
651.294	1869.38
656.802	1852.38
662.304	1844.38
667.8	1847.38
673.29	1834.38
678.775	1840.38
684.254	1823.38
689.726	1808.38
695.193	1802.38
700.655	1798.38
706.11	1768.38
711.56	1786.38
717.004	1759.38
722.442	1763.38
727.874	1752.38
733.301	1724.38
738.722	1713.38
744.137	1726.38
749.547	1710.38
754.951	1738.38
760.349	1712.38
765.741	1713.38
771.128	1731.38
776.509	1704.38
781.885	1707.38
787.254	1721.38
792.618	1686.38
797.977	1691.38
803.33	1679.38
808.677	1664.38
814.019	1659.38
819.355	1650.38
824.686	1615.38
830.011	1608.38
835.33	1623.38
840.644	1606.38
845.952	1609.38
851.255	1615.38
856.552	1605.38
861.844	1587.38
867.13	1589.38
872.41	1580.38
877.686	1554.38
882.955	1552.38
888.219	1531.38
893.478	1507.38
898.731	1483.38
903.979	1464.38
909.221	1446.38
914.458	1437.38
919.69	1456.38
924.916	1444.38
930.136	1425.38
935.351	1443.38
940.561	1433.38
945.766	1427.38
950.965	1424.38
956.158	1415.38
961.347	1410.38
966.529	1373.38
971.707	1352.38
976.879	1342.38
982.046	1338.38
987.208	1339.38
992.364	1341.38
997.515	1335.38
1002.66	1360.38
1007.801	1357.38
1012.936	1374.38
1018.066	1394.38
1023.19	1379.38
1028.309	1381.38
1033.423	1387.38
1038.532	1391.38
1043.636	1363.38
1048.734	1344.38
1053.827	1351.38
1058.915	1333.38
1063.998	1335.38
1069.075	1323.38
1074.147	1338.38
1079.214	1336.38
1084.276	1348.38
1089.333	1366.38
1094.385	1360.38
1099.431	1372.38
1104.472	1365.38
1109.509	1378.38
1114.54	1341.38
1119.565	1349.38
1124.586	1319.38
1129.602	1304.38
1134.613	1315.38
1139.618	1296.38
1144.619	1301.38
1149.614	1316.38
1154.604	1315.38
1159.589	1308.38
1164.57	1308.38
1169.545	1325.38
1174.515	1319.38
1179.48	1313.38
1184.44	1317.38
1189.395	1306.38
1194.345	1295.38
1199.29	1288.38
1204.23	1301.38
1209.165	1295.38
1214.095	1297.38
1219.021	1313.38
1223.941	1341.38
1228.856	1351.38
1233.766	1347.38
1238.672	1348.38
1243.572	1352.38
1248.467	1344.38
1253.358	1327.38
1258.244	1313.38
1263.124	1285.38
1268	1271.38
1272.871	1252.38
1277.737	1228.38
1282.599	1264.38
1287.455	1249.38
1292.306	1259.38
1297.153	1260.38
1301.995	1274.38
1306.832	1264.38
1311.664	1289.38
1316.491	1288.38
1321.314	1276.38
1326.132	1289.38
1330.945	1259.38
1335.753	1249.38
1340.556	1240.38
1345.354	1242.38
1350.148	1216.38
1354.937	1221.38
1359.722	1195.38
1364.501	1189.38
1369.276	1178.38
1374.046	1162.38
1378.811	1164.38
1383.572	1158.38
1388.327	1148.38
1393.079	1150.38
1397.825	1141.38
1402.567	1132.38
1407.304	1143.38
1412.036	1139.38
1416.764	1123.38
1421.487	1119.38
1426.205	1135.38
1430.919	1134.38
1435.628	1169.38
1440.333	1158.38
1445.032	1191.38
1449.727	1186.38
1454.418	1181.38
1459.104	1190.38
1463.785	1189.38
1468.462	1157.38
1473.134	1159.38
1477.802	1151.38
1482.465	1143.38
1487.123	1154.38
1491.777	1152.38
1496.426	1166.38
1501.071	1161.38
1505.711	1175.38
1510.347	1185.38
1514.978	1190.38
1519.604	1193.38
1524.226	1204.38
1528.844	1196.38
1533.457	1185.38
1538.065	1191.38
1542.669	1179.38
1547.269	1169.38
1551.864	1182.38
1556.454	1191.38
1561.041	1205.38
1565.622	1207.38
1570.199	1226.38
1574.772	1240.38
1579.34	1251.38
1583.904	1284.38
1588.464	1303.38
1593.019	1304.38
1597.569	1324.38
1602.115	1342.38
1606.657	1361.38
1611.195	1360.38
1615.728	1372.38
1620.256	1380.38
1624.78	1398.38
1629.3	1408.38
1633.816	1448.38
1638.327	1452.38
1642.834	1481.38
1647.336	1486.38
1651.834	1458.38
1656.328	1479.38
1660.817	1484.38
1665.302	1427.38
1669.783	1416.38
1674.259	1383.38
1678.732	1362.38
1683.199	1315.38
1687.663	1277.38
1692.122	1227.38
1696.577	1198.38
1701.028	1145.38
1705.474	1094.38
1709.917	1068.38
1714.355	1054.38
1718.788	1030.38
1723.218	1024.38
1727.643	1031.38
1732.064	999.38
1736.481	975.38
1740.893	949.38
1745.301	935.38
1749.705	921.38
1754.105	876.38
1758.501	856.38
1762.893	847.38
1767.28	835.38
1771.663	853.38
1776.042	837.38
1780.417	844.38
1784.787	837.38
1789.154	839.38
1793.516	842.38
1797.874	838.38
1802.228	829.38
1806.578	818.38
1810.924	798.38
1815.266	803.38
1819.603	782.38
1823.937	768.38
1828.266	773.38
1832.591	766.38
1836.913	767.38
1841.23	768.38
1845.543	762.38
1849.852	761.38
1854.156	766.38
1858.457	764.38
1862.754	767.38
1867.047	763.38
1871.335	784.38
1875.62	782.38
1879.9	770.38
1884.177	782.38
1888.449	770.38
1892.718	777.38
1896.982	770.38
1901.243	768.38
1905.499	762.38
1909.752	764.38
1914	768.38
1918.245	754.38
1922.485	767.38
1926.722	763.38
1930.954	764.38
1935.183	774.38
1939.408	774.38
1943.628	780.38
1947.845	782.38
1952.058	776.38
1956.267	757.38
1960.472	758.38
1964.673	753.38
1968.87	743.38
1973.063	745.38
1977.252	726.38
1981.438	719.38
1985.619	716.38
1989.797	720.38
1993.971	726.38
1998.14	734.38
2002.306	722.38
2006.469	729.38
2010.627	746.38
2014.781	747.38
2018.932	729.38
2023.078	721.38
2027.221	721.38
2031.36	725.38
2035.495	724.38
2039.627	711.38
2043.754	702.38
2047.878	712.38
2051.998	711.38
2056.114	701.38
2060.226	707.38
2064.334	707.38
2068.439	724.38
2072.54	732.38
2076.637	731.38
2080.73	721.38
2084.82	726.38
2088.906	714.38
2092.988	732.38
2097.066	724.38
2101.14	716.38
2105.211	715.38
2109.278	708.38
2113.342	721.38
2117.401	697.38
2121.457	692.38
2125.509	690.38
2129.558	677.38
2133.602	688.38
2137.643	684.38
2141.681	684.38
2145.714	679.38
2149.744	673.38
2153.77	667.38
2157.793	666.38
2161.812	656.38
2165.827	647.38
2169.838	647.38
2173.846	633.38
2177.851	626.38
2181.851	619.38
2185.848	622.38
2189.841	603.38
2193.831	602.38
2197.817	612.38
2201.799	601.38
2205.778	595.38
2209.753	600.38
2213.725	597.38
2217.693	593.38
2221.657	587.38
2225.618	589.38
2229.575	584.38
2233.529	591.38
2237.479	579.38
2241.425	574.38
2245.368	557.38
2249.307	562.38
2253.243	550.38
2257.175	533.38
2261.104	525.38
2265.029	523.38
2268.95	517.38
2272.868	512.38
2276.783	505.38
2280.694	502.38
2284.601	506.38
2288.505	497.38
2292.405	487.38
2296.302	480.38
2300.195	481.38
2304.085	472.38
2307.971	466.38
2311.854	461.38
2315.734	432.38
2319.609	432.38
2323.482	423.38
2327.351	422.38
2331.216	433.38
2335.078	427.38
2338.937	423.38
2342.792	419.38
2346.643	418.38
2350.492	417.38
2354.336	412.38
2358.178	418.38
2362.015	418.38
2365.85	408.38
2369.681	415.38
2373.508	412.38
2377.333	420.38
2381.153	419.38
2384.971	415.38
2388.785	410.38
2392.595	420.38
2396.402	409.38
2400.206	403.38
2404.007	405.38
2407.804	398.38
2411.597	400.38
2415.388	399.38
2419.174	395.38
2422.958	400.38
2426.738	393.38
2430.515	394.38
2434.289	383.38
2438.059	397.38
2441.825	386.38
2445.589	385.38
2449.349	379.38
2453.106	381.38
2456.859	378.38
2460.61	371.38
2464.356	380.38
2468.1	359.38
2471.84	361.38
2475.577	361.38
2479.311	370.38
2483.041	362.38
2486.768	357.38
2490.492	358.38
2494.213	358.38
2497.93	364.38
2501.644	363.38
2505.355	353.38
2509.062	361.38
2512.766	360.38
2516.467	360.38
2520.165	360.38
2523.859	365.38
2527.551	357.38
2531.239	346.38
2534.923	355.38
2538.605	341.38
2542.283	334.38
2545.958	348.38
2549.63	338.38
2553.299	334.38
2556.964	340.38
2560.626	332.38
2564.285	326.38
2567.941	325.38
2571.594	321.38
2575.243	322.38
2578.89	323.38
2582.533	322.38
2586.173	314.38
2589.809	311.38
2593.443	310.38
2597.073	305.38
2600.701	302.38
2604.325	302.38
2607.946	306.38
2611.564	308.38
2615.178	300.38
2618.79	304.38
2622.398	300.38
2626.004	294.38
2629.606	295.38
2633.205	292.38
2636.801	287.38
2640.394	281.38
2643.983	281.38
2647.57	280.38
2651.153	279.38
2654.734	277.38
2658.311	269.38
2661.885	265.38
2665.456	270.38
2669.025	261.38
2672.589	272.38
2676.151	259.38
2679.71	260.38
2683.266	242.38
2686.819	257.38
2690.368	240.38
2693.915	247.38
2697.458	246.38
2700.999	238.38
2704.536	244.38
2708.071	240.38
2711.602	241.38
2715.13	240.38
2718.656	239.38
2722.178	235.38
2725.697	235.38
2729.214	242.38
2732.727	239.38
2736.237	242.38
2739.744	240.38
2743.249	242.38
2746.75	235.38
2750.248	241.38
2753.743	240.38
2757.236	238.38
2760.725	235.38
2764.211	232.38
2767.695	226.38
2771.175	217.38
2774.652	224.38
2778.127	221.38
2781.598	222.38
2785.067	218.38
2788.532	227.38
2791.995	220.38
2795.455	227.38
2798.911	225.38
2802.365	226.38
2805.816	239.38
2809.264	225.38
2812.709	232.38
2816.151	225.38
2819.59	233.38
2823.026	229.38
2826.46	238.38
2829.89	235.38
2833.318	230.38
2836.742	230.38
2840.164	231.38
2843.583	240.38
2846.999	234.38
2850.412	244.38
2853.822	231.38
2857.229	245.38
2860.634	238.38
2864.035	245.38
2867.434	250.38
2870.83	257.38
2874.223	254.38
2877.613	261.38
2881	260.38
2884.385	258.38
2887.766	256.38
2891.145	264.38
2894.521	255.38
2897.894	262.38
2901.264	257.38
2904.631	264.38
2907.996	262.38
2911.358	273.38
2914.717	276.38
2918.073	275.38
2921.426	273.38
2924.777	283.38
2928.124	283.38
2931.469	282.38
2934.811	292.38
2938.15	292.38
2941.487	293.38
2944.821	311.38
2948.152	299.38
2951.48	309.38
2954.805	310.38
2958.128	316.38
2961.447	330.38
2964.765	334.38
2968.079	329.38
2971.39	348.38
2974.699	340.38
2978.005	352.38
2981.308	362.38
2984.609	370.38
2987.907	380.38
2991.202	386.38
2994.494	394.38
2997.784	410.38
3001.07	420.38
3004.355	427.38
3007.636	437.38
3010.915	457.38
3014.191	454.38
3017.464	468.38
3020.734	470.38
3024.002	466.38
3027.267	474.38
3030.53	481.38
3033.789	502.38
3037.046	499.38
3040.301	514.38
3043.552	519.38
3046.801	545.38
3050.048	550.38
3053.291	570.38
3056.532	587.38
3059.771	614.38
3063.006	623.38
3066.239	644.38
3069.469	659.38
3072.697	674.38
3075.922	687.38
3079.144	714.38
3082.364	719.38
3085.581	741.38
3088.795	751.38
3092.007	772.38
3095.216	797.38
3098.423	808.38
3101.627	826.38
3104.828	853.38
3108.026	862.38
3111.222	873.38
3114.416	901.38
3117.607	922.38
3120.795	933.38
3123.98	960.38
3127.163	987.38
3130.344	1010.38
3133.521	1035.38
3136.696	1048.38
3139.869	1075.38
3143.039	1085.38
3146.206	1098.38
3149.371	1124.38
3152.533	1115.38
3155.693	1138.38
3158.85	1139.38
3162.005	1141.38
3165.157	1145.38
3168.306	1159.38
3171.453	1154.38
3174.597	1173.38
3177.739	1171.38
3180.878	1179.38
3184.014	1167.38
3187.149	1182.38
3190.28	1174.38
3193.409	1202.38
3196.536	1195.38
3199.659	1187.38
3202.781	1206.38
3205.9	1193.38
3209.016	1203.38
3212.13	1198.38
3215.241	1196.38
3218.35	1185.38
3221.456	1161.38
3224.56	1155.38
3227.661	1156.38
3230.76	1136.38
3233.856	1124.38
3236.95	1116.38
3240.041	1107.38
3243.13	1106.38
3246.216	1096.38
3249.3	1095.38
3252.382	1091.38
3255.46	1075.38
3258.537	1068.38
3261.611	1059.38
3264.682	1059.38
3267.751	1038.38
3270.818	1046.38
3273.882	1045.38
3276.943	1043.38
3280.002	1035.38
3283.059	1024.38
3286.113	1008.38
3289.165	1000.38
3292.214	989.38
3295.261	970.38
3298.306	954.38
3301.348	938.38
3304.387	923.38
3307.425	908.38
3310.459	917.38
3313.492	893.38
3316.521	871.38
3319.549	866.38
3322.574	870.38
3325.597	861.38
3328.617	859.38
3331.635	844.38
3334.65	855.38
3337.663	851.38
3340.674	828.38
3343.682	829.38
3346.688	830.38
3349.691	813.38
3352.692	826.38
3355.691	814.38
3358.687	806.38
3361.681	795.38
3364.673	788.38
3367.662	777.38
3370.649	761.38
3373.633	766.38
3376.615	752.38
3379.595	739.38
3382.572	729.38
3385.547	730.38
3388.52	711.38
3391.49	711.38
3394.458	694.38
3397.424	686.38
3400.387	682.38
3403.348	653.38
3406.307	660.38
3409.263	654.38
3412.217	645.38
3415.168	654.38
3418.118	641.38
3421.065	626.38
3424.009	619.38
3426.951	603.38
3429.891	583.38
3432.829	590.38
3435.764	568.38
3438.697	566.38
3441.628	537.38
3444.557	532.38
3447.483	527.38
3450.407	504.38
3453.328	484.38
3456.247	474.38
3459.164	452.38
3462.079	447.38
3464.991	444.38
3467.902	425.38
3470.809	417.38
3473.715	391.38
3476.618	391.38
3479.519	382.38
3482.418	373.38
3485.315	367.38
3488.209	346.38
3491.101	339.38
3493.99	319.38
3496.878	312.38
3499.763	303.38
3502.646	298.38
3505.527	286.38
3508.405	275.38
3511.281	267.38
3514.155	252.38
3517.027	242.38
3519.897	227.38
3522.764	218.38
3525.629	210.38
3528.492	196.38
3531.352	182.38
3534.211	164.38
3537.067	160.38
3539.921	154.38
3542.773	142.38
3545.622	129.38
3548.469	126.38
3551.315	115.38
3554.157	107.38
3556.998	102.38
3559.837	96.38
3562.673	91.38
3565.507	92.38
3568.339	77.38
3571.169	66.38
3573.996	68.38
3576.822	59.38
3579.645	57.38
3582.466	48.38
3585.285	41.38
3588.101	44.38
3590.916	34.38
3593.728	33.38
3596.538	22.38
3599.346	19.38
3602.152	13.38
3604.956	1.38
3607.757	3.38
3610.556	2.38
3613.354	-5.62
3616.149	-3.62
3618.942	-5.62
3621.732	-7.62
3624.521	-15.62
3627.307	-20.62
3630.092	-17.62
3632.874	-22.62
3635.654	-31.62
3638.432	-25.62
3641.208	-32.62
3643.982	-35.62
3646.753	-42.62
3649.523	-36.62
3652.29	-39.62
3655.055	-39.62
3657.818	-44.62
3660.579	-46.62
3663.338	-51.62
3666.095	-53.62
3668.849	-58.62
3671.602	-58.62
3674.352	-60.62
3677.101	-63.62
3679.847	-65.62
3682.591	-65.62
3685.333	-71.62
3688.073	-72.62
3690.811	-70.62
3693.547	-72.62
3696.281	-76.62
3699.013	-78.62
3701.742	-81.62
3704.47	-79.62
3707.195	-78.62
3709.919	-82.62
3712.64	-81.62
3715.359	-82.62
3718.076	-84.62
3720.792	-81.62
3723.505	-82.62
3726.216	-83.62
3728.925	-85.62
3731.632	-89.62
3734.336	-91.62
3737.039	-90.62
3739.74	-90.62
3742.439	-91.62
3745.136	-92.62
3747.83	-90.62
3750.523	-93.62
3753.213	-88.62
3755.902	-90.62
3758.589	-91.62
3761.273	-95.62
3763.956	-99.62
3766.636	-100.62
3769.315	-99.62
3771.991	-100.62
3774.665	-97.62
3777.338	-99.62
3780.008	-99.62
3782.677	-98.62
3785.343	-96.62
3788.007	-100.62
3790.67	-97.62
3793.33	-96.62
3795.989	-97.62
3798.645	-98.62
3801.299	-97.62
3803.952	-100.62
3806.602	-97.62
3809.251	-96.62
3811.897	-102.62
3814.542	-103.62
3817.184	-101.62
3819.825	-99.62
3822.463	-101.62
3825.1	-106.62
3827.735	-103.62
3830.367	-105.62
3832.998	-106.62
3835.627	-108.62
3838.253	-104.62
3840.878	-108.62
3843.501	-105.62
3846.122	-105.62
3848.741	-106.62
3851.358	-106.62
3853.973	-103.62
3856.586	-106.62
3859.197	-106.62
3861.806	-109.62
3864.414	-106.62
3867.019	-109.62
3869.622	-105.62
3872.224	-105.62
3874.823	-105.62
3877.421	-98.62
3880.016	-99.62
3882.61	-92.62
3885.202	-95.62
3887.792	-98.62
3890.38	-103.62
3892.966	-104.62
3895.55	-109.62
3898.132	-112.62
3900.713	-111.62
3903.291	-109.62
3905.868	-108.62
3908.442	-110.62
3911.015	-108.62
3913.586	-108.62
3916.155	-107.62
3918.722	-111.62
3921.287	-109.62
3923.85	-111.62
3926.411	-106.62
3928.971	-111.62
3931.528	-110.62
3934.084	-111.62
3936.638	-110.62
3939.19	-106.62
3941.74	-105.62
3944.288	-108.62
3946.834	-110.62
3949.378	-110.62
3951.921	-109.62
3954.462	-108.62
3957	-115.62
3959.537	-113.62
3962.072	-113.62
3964.606	-112.62
3967.137	-111.62
3969.667	-111.62
3972.194	-107.62
3974.72	-111.62
3977.244	-110.62
3979.766	-109.62
3982.286	-106.62
3984.805	-114.62
3987.321	-110.62
3989.836	-110.62
3992.349	-110.62
3994.86	-105.62
3997.369	-112.62
3999.877	-105.62
4002.382	-105.62
4004.886	-108.62
4007.388	-110.62
4009.888	-106.62
4012.386	-108.62
4014.883	-106.62
4017.377	-106.62
4019.87	-109.62
4022.361	-109.62
4024.85	-109.62
4027.338	-110.62
4029.823	-114.62
4032.307	-112.62
4034.789	-113.62
4037.269	-110.62
4039.747	-110.62
4042.224	-106.62
4044.699	-109.62
4047.172	-111.62
4049.643	-112.62
4052.112	-111.62
4054.58	-110.62
4057.046	-110.62
4059.51	-109.62
4061.972	-110.62
4064.432	-109.62
4066.891	-107.62
4069.348	-107.62
4071.803	-100.62
4074.256	-107.62
4076.708	-108.62
4079.158	-110.62
4081.606	-109.62
4084.052	-110.62
4086.497	-109.62
4088.939	-110.62
4091.38	-113.62
4093.819	-114.62
4096.257	-113.62
4098.693	-114.62
4101.127	-115.62
4103.559	-111.62
4105.989	-74.62
4108.418	-66.62
4110.845	-67.62
4113.27	-65.62
4115.694	-57.62
4118.115	-49.62
4120.535	-114.62
4122.954	-108.62
4125.37	-109.62
4127.785	-108.62
4130.198	-108.62
4132.609	-108.62
4135.019	-113.62
4137.427	-117.62
4139.833	-118.62
4142.237	-117.62
