Data from 100000CFU3_A_RamanShift_1.txt Node
Date: Thu Jan 26 11:04:18 IST 2017
User: aro
Spectrometer: QEPB0276
Trigger mode: 0
Integration Time (sec): 5.000000E0
Scans to average: 1
Electric dark correction enabled: true
Nonlinearity correction enabled: false
Boxcar width: 0
XAxis mode: Raman Shifts
Number of Pixels in Spectrum: 1044
>>>>>Begin Spectral Data<<<<<
160.701	-36.12
166.742	-6.12
172.777	104.88
178.805	432.88
184.826	1198.88
190.841	2421.88
196.849	3722.88
202.85	4500.88
208.845	4676.88
214.833	4507.88
220.815	4337.88
226.789	4213.88
232.758	4105.88
238.719	3953.88
244.674	3835.88
250.623	3648.88
256.565	3512.88
262.5	3304.88
268.429	3185.88
274.351	3062.88
280.267	2943.88
286.176	2855.88
292.079	2757.88
297.975	2665.88
303.865	2606.88
309.748	2543.88
315.625	2466.88
321.495	2420.88
327.359	2398.88
333.217	2356.88
339.068	2342.88
344.912	2337.88
350.751	2317.88
356.583	2318.88
362.408	2302.88
368.227	2312.88
374.04	2297.88
379.847	2333.88
385.647	2337.88
391.44	2346.88
397.228	2364.88
403.009	2389.88
408.784	2361.88
414.553	2387.88
420.315	2392.88
426.071	2414.88
431.821	2388.88
437.565	2383.88
443.302	2395.88
449.033	2369.88
454.758	2382.88
460.477	2348.88
466.189	2348.88
471.896	2334.88
477.596	2323.88
483.29	2314.88
488.978	2270.88
494.66	2263.88
500.335	2252.88
506.005	2215.88
511.668	2166.88
517.325	2154.88
522.977	2100.88
528.622	2082.88
534.261	2044.88
539.894	2038.88
545.521	2013.88
551.141	1989.88
556.756	2001.88
562.365	1963.88
567.968	1975.88
573.565	1952.88
579.155	1940.88
584.74	1932.88
590.319	1920.88
595.892	1900.88
601.459	1885.88
607.02	1863.88
612.575	1863.88
618.124	1844.88
623.667	1823.88
629.204	1818.88
634.735	1795.88
640.261	1764.88
645.781	1778.88
651.294	1754.88
656.802	1778.88
662.304	1741.88
667.8	1760.88
673.29	1708.88
678.775	1720.88
684.254	1741.88
689.726	1703.88
695.193	1705.88
700.655	1692.88
706.11	1668.88
711.56	1652.88
717.004	1662.88
722.442	1644.88
727.874	1636.88
733.301	1640.88
738.722	1628.88
744.137	1611.88
749.547	1605.88
754.951	1608.88
760.349	1592.88
765.741	1613.88
771.128	1603.88
776.509	1623.88
781.885	1599.88
787.254	1590.88
792.618	1583.88
797.977	1570.88
803.33	1543.88
808.677	1562.88
814.019	1532.88
819.355	1527.88
824.686	1502.88
830.011	1502.88
835.33	1475.88
840.644	1487.88
845.952	1462.88
851.255	1490.88
856.552	1459.88
861.844	1450.88
867.13	1438.88
872.41	1442.88
877.686	1429.88
882.955	1401.88
888.219	1374.88
893.478	1361.88
898.731	1343.88
903.979	1324.88
909.221	1309.88
914.458	1307.88
919.69	1307.88
924.916	1289.88
930.136	1275.88
935.351	1281.88
940.561	1287.88
945.766	1279.88
950.965	1269.88
956.158	1250.88
961.347	1237.88
966.529	1236.88
971.707	1225.88
976.879	1201.88
982.046	1184.88
987.208	1182.88
992.364	1182.88
997.515	1193.88
1002.66	1212.88
1007.801	1204.88
1012.936	1212.88
1018.066	1226.88
1023.19	1230.88
1028.309	1241.88
1033.423	1230.88
1038.532	1224.88
1043.636	1222.88
1048.734	1202.88
1053.827	1188.88
1058.915	1180.88
1063.998	1170.88
1069.075	1164.88
1074.147	1181.88
1079.214	1186.88
1084.276	1193.88
1089.333	1197.88
1094.385	1203.88
1099.431	1200.88
1104.472	1205.88
1109.509	1208.88
1114.54	1181.88
1119.565	1185.88
1124.586	1149.88
1129.602	1147.88
1134.613	1146.88
1139.618	1157.88
1144.619	1146.88
1149.614	1147.88
1154.604	1170.88
1159.589	1155.88
1164.57	1160.88
1169.545	1173.88
1174.515	1154.88
1179.48	1168.88
1184.44	1158.88
1189.395	1152.88
1194.345	1150.88
1199.29	1146.88
1204.23	1147.88
1209.165	1137.88
1214.095	1148.88
1219.021	1156.88
1223.941	1177.88
1228.856	1181.88
1233.766	1188.88
1238.672	1184.88
1243.572	1178.88
1248.467	1170.88
1253.358	1160.88
1258.244	1143.88
1263.124	1131.88
1268	1113.88
1272.871	1116.88
1277.737	1106.88
1282.599	1082.88
1287.455	1103.88
1292.306	1100.88
1297.153	1113.88
1301.995	1113.88
1306.832	1134.88
1311.664	1119.88
1316.491	1135.88
1321.314	1127.88
1326.132	1117.88
1330.945	1109.88
1335.753	1090.88
1340.556	1073.88
1345.354	1082.88
1350.148	1055.88
1354.937	1064.88
1359.722	1046.88
1364.501	1034.88
1369.276	1025.88
1374.046	1031.88
1378.811	1026.88
1383.572	1020.88
1388.327	1016.88
1393.079	1011.88
1397.825	1003.88
1402.567	993.88
1407.304	983.88
1412.036	983.88
1416.764	996.88
1421.487	993.88
1426.205	990.88
1430.919	1004.88
1435.628	1008.88
1440.333	1023.88
1445.032	1031.88
1449.727	1041.88
1454.418	1032.88
1459.104	1024.88
1463.785	1040.88
1468.462	1012.88
1473.134	1011.88
1477.802	1015.88
1482.465	996.88
1487.123	1003.88
1491.777	997.88
1496.426	1014.88
1501.071	1018.88
1505.711	1021.88
1510.347	1040.88
1514.978	1049.88
1519.604	1049.88
1524.226	1059.88
1528.844	1063.88
1533.457	1064.88
1538.065	1056.88
1542.669	1045.88
1547.269	1054.88
1551.864	1050.88
1556.454	1058.88
1561.041	1081.88
1565.622	1079.88
1570.199	1104.88
1574.772	1117.88
1579.34	1137.88
1583.904	1151.88
1588.464	1180.88
1593.019	1191.88
1597.569	1202.88
1602.115	1222.88
1606.657	1245.88
1611.195	1242.88
1615.728	1274.88
1620.256	1281.88
1624.78	1296.88
1629.3	1296.88
1633.816	1318.88
1638.327	1350.88
1642.834	1366.88
1647.336	1374.88
1651.834	1373.88
1656.328	1373.88
1660.817	1360.88
1665.302	1341.88
1669.783	1323.88
1674.259	1290.88
1678.732	1242.88
1683.199	1210.88
1687.663	1164.88
1692.122	1111.88
1696.577	1080.88
1701.028	1035.88
1705.474	992.88
1709.917	952.88
1714.355	932.88
1718.788	914.88
1723.218	908.88
1727.643	891.88
1732.064	873.88
1736.481	850.88
1740.893	834.88
1745.301	807.88
1749.705	777.88
1754.105	762.88
1758.501	754.88
1762.893	736.88
1767.28	721.88
1771.663	720.88
1776.042	714.88
1780.417	710.88
1784.787	716.88
1789.154	717.88
1793.516	712.88
1797.874	718.88
1802.228	702.88
1806.578	695.88
1810.924	685.88
1815.266	667.88
1819.603	668.88
1823.937	654.88
1828.266	640.88
1832.591	647.88
1836.913	641.88
1841.23	643.88
1845.543	644.88
1849.852	647.88
1854.156	650.88
1858.457	649.88
1862.754	643.88
1867.047	659.88
1871.335	659.88
1875.62	657.88
1879.9	658.88
1884.177	656.88
1888.449	656.88
1892.718	651.88
1896.982	653.88
1901.243	652.88
1905.499	640.88
1909.752	638.88
1914	633.88
1918.245	643.88
1922.485	644.88
1926.722	626.88
1930.954	656.88
1935.183	644.88
1939.408	657.88
1943.628	656.88
1947.845	648.88
1952.058	663.88
1956.267	650.88
1960.472	637.88
1964.673	634.88
1968.87	626.88
1973.063	620.88
1977.252	619.88
1981.438	612.88
1985.619	608.88
1989.797	622.88
1993.971	608.88
1998.14	618.88
2002.306	621.88
2006.469	639.88
2010.627	628.88
2014.781	619.88
2018.932	620.88
2023.078	622.88
2027.221	628.88
2031.36	622.88
2035.495	620.88
2039.627	602.88
2043.754	607.88
2047.878	616.88
2051.998	606.88
2056.114	607.88
2060.226	606.88
2064.334	612.88
2068.439	622.88
2072.54	617.88
2076.637	616.88
2080.73	630.88
2084.82	620.88
2088.906	634.88
2092.988	619.88
2097.066	622.88
2101.14	620.88
2105.211	613.88
2109.278	607.88
2113.342	607.88
2117.401	609.88
2121.457	601.88
2125.509	591.88
2129.558	591.88
2133.602	596.88
2137.643	596.88
2141.681	590.88
2145.714	591.88
2149.744	581.88
2153.77	580.88
2157.793	573.88
2161.812	564.88
2165.827	565.88
2169.838	555.88
2173.846	531.88
2177.851	547.88
2181.851	524.88
2185.848	520.88
2189.841	517.88
2193.831	508.88
2197.817	513.88
2201.799	514.88
2205.778	500.88
2209.753	513.88
2213.725	504.88
2217.693	507.88
2221.657	502.88
2225.618	494.88
2229.575	490.88
2233.529	484.88
2237.479	479.88
2241.425	481.88
2245.368	477.88
2249.307	468.88
2253.243	473.88
2257.175	460.88
2261.104	460.88
2265.029	442.88
2268.95	442.88
2272.868	433.88
2276.783	433.88
2280.694	424.88
2284.601	419.88
2288.505	410.88
2292.405	407.88
2296.302	404.88
2300.195	394.88
2304.085	384.88
2307.971	376.88
2311.854	378.88
2315.734	370.88
2319.609	365.88
2323.482	357.88
2327.351	354.88
2331.216	359.88
2335.078	352.88
2338.937	346.88
2342.792	347.88
2346.643	348.88
2350.492	353.88
2354.336	347.88
2358.178	346.88
2362.015	351.88
2365.85	347.88
2369.681	345.88
2373.508	341.88
2377.333	341.88
2381.153	352.88
2384.971	346.88
2388.785	341.88
2392.595	342.88
2396.402	342.88
2400.206	334.88
2404.007	334.88
2407.804	336.88
2411.597	329.88
2415.388	335.88
2419.174	329.88
2422.958	322.88
2426.738	321.88
2430.515	321.88
2434.289	323.88
2438.059	320.88
2441.825	320.88
2445.589	319.88
2449.349	317.88
2453.106	310.88
2456.859	319.88
2460.61	303.88
2464.356	315.88
2468.1	302.88
2471.84	307.88
2475.577	295.88
2479.311	299.88
2483.041	295.88
2486.768	291.88
2490.492	307.88
2494.213	284.88
2497.93	290.88
2501.644	303.88
2505.355	295.88
2509.062	301.88
2512.766	285.88
2516.467	285.88
2520.165	291.88
2523.859	287.88
2527.551	289.88
2531.239	285.88
2534.923	283.88
2538.605	270.88
2542.283	285.88
2545.958	269.88
2549.63	273.88
2553.299	262.88
2556.964	267.88
2560.626	267.88
2564.285	274.88
2567.941	264.88
2571.594	269.88
2575.243	264.88
2578.89	265.88
2582.533	259.88
2586.173	254.88
2589.809	255.88
2593.443	252.88
2597.073	249.88
2600.701	257.88
2604.325	240.88
2607.946	244.88
2611.564	240.88
2615.178	240.88
2618.79	241.88
2622.398	237.88
2626.004	235.88
2629.606	230.88
2633.205	230.88
2636.801	232.88
2640.394	231.88
2643.983	226.88
2647.57	223.88
2651.153	223.88
2654.734	223.88
2658.311	223.88
2661.885	209.88
2665.456	216.88
2669.025	210.88
2672.589	210.88
2676.151	205.88
2679.71	208.88
2683.266	207.88
2686.819	201.88
2690.368	201.88
2693.915	203.88
2697.458	202.88
2700.999	193.88
2704.536	189.88
2708.071	188.88
2711.602	188.88
2715.13	185.88
2718.656	181.88
2722.178	183.88
2725.697	190.88
2729.214	195.88
2732.727	194.88
2736.237	189.88
2739.744	199.88
2743.249	196.88
2746.75	189.88
2750.248	195.88
2753.743	194.88
2757.236	195.88
2760.725	194.88
2764.211	184.88
2767.695	185.88
2771.175	187.88
2774.652	181.88
2778.127	182.88
2781.598	181.88
2785.067	182.88
2788.532	176.88
2791.995	182.88
2795.455	185.88
2798.911	182.88
2802.365	186.88
2805.816	185.88
2809.264	187.88
2812.709	184.88
2816.151	184.88
2819.59	186.88
2823.026	199.88
2826.46	190.88
2829.89	189.88
2833.318	196.88
2836.742	190.88
2840.164	190.88
2843.583	193.88
2846.999	199.88
2850.412	197.88
2853.822	199.88
2857.229	206.88
2860.634	213.88
2864.035	211.88
2867.434	214.88
2870.83	216.88
2874.223	220.88
2877.613	217.88
2881	221.88
2884.385	216.88
2887.766	225.88
2891.145	220.88
2894.521	219.88
2897.894	219.88
2901.264	225.88
2904.631	224.88
2907.996	226.88
2911.358	237.88
2914.717	245.88
2918.073	242.88
2921.426	243.88
2924.777	249.88
2928.124	252.88
2931.469	269.88
2934.811	268.88
2938.15	271.88
2941.487	272.88
2944.821	272.88
2948.152	281.88
2951.48	286.88
2954.805	290.88
2958.128	283.88
2961.447	296.88
2964.765	304.88
2968.079	309.88
2971.39	322.88
2974.699	323.88
2978.005	324.88
2981.308	342.88
2984.609	357.88
2987.907	352.88
2991.202	371.88
2994.494	384.88
2997.784	399.88
3001.07	402.88
3004.355	414.88
3007.636	416.88
3010.915	439.88
3014.191	438.88
3017.464	459.88
3020.734	459.88
3024.002	464.88
3027.267	470.88
3030.53	474.88
3033.789	478.88
3037.046	504.88
3040.301	510.88
3043.552	535.88
3046.801	541.88
3050.048	561.88
3053.291	572.88
3056.532	588.88
3059.771	599.88
3063.006	631.88
3066.239	641.88
3069.469	653.88
3072.697	684.88
3075.922	699.88
3079.144	719.88
3082.364	736.88
3085.581	741.88
3088.795	783.88
3092.007	785.88
3095.216	811.88
3098.423	826.88
3101.627	841.88
3104.828	867.88
3108.026	890.88
3111.222	904.88
3114.416	929.88
3117.607	943.88
3120.795	960.88
3123.98	985.88
3127.163	1016.88
3130.344	1031.88
3133.521	1059.88
3136.696	1081.88
3139.869	1103.88
3143.039	1111.88
3146.206	1136.88
3149.371	1148.88
3152.533	1172.88
3155.693	1178.88
3158.85	1188.88
3162.005	1188.88
3165.157	1188.88
3168.306	1205.88
3171.453	1192.88
3174.597	1199.88
3177.739	1203.88
3180.878	1235.88
3184.014	1210.88
3187.149	1212.88
3190.28	1224.88
3193.409	1228.88
3196.536	1239.88
3199.659	1231.88
3202.781	1252.88
3205.9	1237.88
3209.016	1239.88
3212.13	1246.88
3215.241	1238.88
3218.35	1233.88
3221.456	1214.88
3224.56	1200.88
3227.661	1212.88
3230.76	1184.88
3233.856	1168.88
3236.95	1167.88
3240.041	1161.88
3243.13	1154.88
3246.216	1137.88
3249.3	1143.88
3252.382	1124.88
3255.46	1124.88
3258.537	1120.88
3261.611	1102.88
3264.682	1105.88
3267.751	1096.88
3270.818	1091.88
3273.882	1094.88
3276.943	1095.88
3280.002	1081.88
3283.059	1067.88
3286.113	1044.88
3289.165	1032.88
3292.214	1031.88
3295.261	1000.88
3298.306	999.88
3301.348	978.88
3304.387	965.88
3307.425	955.88
3310.459	933.88
3313.492	926.88
3316.521	915.88
3319.549	908.88
3322.574	894.88
3325.597	899.88
3328.617	885.88
3331.635	884.88
3334.65	886.88
3337.663	873.88
3340.674	870.88
3343.682	878.88
3346.688	869.88
3349.691	852.88
3352.692	865.88
3355.691	842.88
3358.687	838.88
3361.681	836.88
3364.673	819.88
3367.662	810.88
3370.649	806.88
3373.633	808.88
3376.615	773.88
3379.595	776.88
3382.572	763.88
3385.547	751.88
3388.52	747.88
3391.49	737.88
3394.458	725.88
3397.424	716.88
3400.387	701.88
3403.348	697.88
3406.307	680.88
3409.263	681.88
3412.217	680.88
3415.168	671.88
3418.118	652.88
3421.065	647.88
3424.009	631.88
3426.951	624.88
3429.891	610.88
3432.829	623.88
3435.764	609.88
3438.697	590.88
3441.628	583.88
3444.557	562.88
3447.483	546.88
3450.407	522.88
3453.328	519.88
3456.247	497.88
3459.164	483.88
3462.079	472.88
3464.991	458.88
3467.902	451.88
3470.809	424.88
3473.715	419.88
3476.618	403.88
3479.519	389.88
3482.418	378.88
3485.315	369.88
3488.209	355.88
3491.101	342.88
3493.99	340.88
3496.878	327.88
3499.763	311.88
3502.646	309.88
3505.527	296.88
3508.405	278.88
3511.281	274.88
3514.155	270.88
3517.027	246.88
3519.897	236.88
3522.764	224.88
3525.629	215.88
3528.492	207.88
3531.352	182.88
3534.211	172.88
3537.067	164.88
3539.921	159.88
3542.773	146.88
3545.622	139.88
3548.469	131.88
3551.315	113.88
3554.157	114.88
3556.998	95.88
3559.837	96.88
3562.673	89.88
3565.507	76.88
3568.339	76.88
3571.169	66.88
3573.996	67.88
3576.822	59.88
3579.645	57.88
3582.466	51.88
3585.285	45.88
3588.101	37.88
3590.916	30.88
3593.728	28.88
3596.538	20.88
3599.346	17.88
3602.152	16.88
3604.956	6.88
3607.757	-1.12
3610.556	-1.12
3613.354	-2.12
3616.149	-7.12
3618.942	-13.12
3621.732	-15.12
3624.521	-19.12
3627.307	-24.12
3630.092	-23.12
3632.874	-32.12
3635.654	-32.12
3638.432	-37.12
3641.208	-35.12
3643.982	-38.12
3646.753	-40.12
3649.523	-44.12
3652.29	-44.12
3655.055	-49.12
3657.818	-53.12
3660.579	-50.12
3663.338	-58.12
3666.095	-54.12
3668.849	-67.12
3671.602	-64.12
3674.352	-69.12
3677.101	-68.12
3679.847	-72.12
3682.591	-73.12
3685.333	-75.12
3688.073	-73.12
3690.811	-79.12
3693.547	-78.12
3696.281	-83.12
3699.013	-84.12
3701.742	-86.12
3704.47	-84.12
3707.195	-89.12
3709.919	-85.12
3712.64	-91.12
3715.359	-89.12
3718.076	-91.12
3720.792	-90.12
3723.505	-91.12
3726.216	-92.12
3728.925	-94.12
3731.632	-98.12
3734.336	-97.12
3737.039	-98.12
3739.74	-100.12
3742.439	-95.12
3745.136	-98.12
3747.83	-98.12
3750.523	-101.12
3753.213	-95.12
3755.902	-100.12
3758.589	-95.12
3761.273	-100.12
3763.956	-103.12
3766.636	-101.12
3769.315	-106.12
3771.991	-108.12
3774.665	-104.12
3777.338	-106.12
3780.008	-106.12
3782.677	-106.12
3785.343	-107.12
3788.007	-106.12
3790.67	-106.12
3793.33	-109.12
3795.989	-105.12
3798.645	-107.12
3801.299	-107.12
3803.952	-108.12
3806.602	-105.12
3809.251	-104.12
3811.897	-106.12
3814.542	-110.12
3817.184	-105.12
3819.825	-104.12
3822.463	-106.12
3825.1	-111.12
3827.735	-108.12
3830.367	-111.12
3832.998	-114.12
3835.627	-114.12
3838.253	-114.12
3840.878	-118.12
3843.501	-111.12
3846.122	-115.12
3848.741	-112.12
3851.358	-115.12
3853.973	-111.12
3856.586	-116.12
3859.197	-114.12
3861.806	-117.12
3864.414	-113.12
3867.019	-117.12
3869.622	-114.12
3872.224	-111.12
3874.823	-110.12
3877.421	-104.12
3880.016	-106.12
3882.61	-101.12
3885.202	-101.12
3887.792	-105.12
3890.38	-109.12
3892.966	-111.12
3895.55	-116.12
3898.132	-117.12
3900.713	-119.12
3903.291	-112.12
3905.868	-116.12
3908.442	-117.12
3911.015	-118.12
3913.586	-119.12
3916.155	-115.12
3918.722	-117.12
3921.287	-118.12
3923.85	-119.12
3926.411	-115.12
3928.971	-122.12
3931.528	-118.12
3934.084	-123.12
3936.638	-117.12
3939.19	-117.12
3941.74	-113.12
3944.288	-116.12
3946.834	-115.12
3949.378	-115.12
3951.921	-117.12
3954.462	-115.12
3957	-117.12
3959.537	-121.12
3962.072	-117.12
3964.606	-118.12
3967.137	-115.12
3969.667	-119.12
3972.194	-113.12
3974.72	-118.12
3977.244	-116.12
3979.766	-116.12
3982.286	-114.12
3984.805	-120.12
3987.321	-120.12
3989.836	-120.12
3992.349	-118.12
3994.86	-117.12
3997.369	-120.12
3999.877	-115.12
4002.382	-115.12
4004.886	-113.12
4007.388	-120.12
4009.888	-116.12
4012.386	-113.12
4014.883	-114.12
4017.377	-114.12
4019.87	-116.12
4022.361	-117.12
4024.85	-115.12
4027.338	-116.12
4029.823	-117.12
4032.307	-119.12
4034.789	-117.12
4037.269	-119.12
4039.747	-117.12
4042.224	-112.12
4044.699	-119.12
4047.172	-119.12
4049.643	-120.12
4052.112	-117.12
4054.58	-119.12
4057.046	-122.12
4059.51	-117.12
4061.972	-118.12
4064.432	-118.12
4066.891	-117.12
4069.348	-116.12
4071.803	-113.12
4074.256	-113.12
4076.708	-114.12
4079.158	-117.12
4081.606	-115.12
4084.052	-116.12
4086.497	-114.12
4088.939	-115.12
4091.38	-118.12
4093.819	-119.12
4096.257	-121.12
4098.693	-122.12
4101.127	-125.12
4103.559	-122.12
4105.989	-78.12
4108.418	-72.12
4110.845	-73.12
4113.27	-71.12
4115.694	-58.12
4118.115	-56.12
4120.535	-120.12
4122.954	-115.12
4125.37	-116.12
4127.785	-116.12
4130.198	-115.12
4132.609	-115.12
4135.019	-120.12
4137.427	-125.12
4139.833	-126.12
4142.237	-124.12
