Data from 100000000CFU3_A_RamanShift_1.txt Node
Date: Thu Jan 26 11:14:33 IST 2017
User: aro
Spectrometer: QEPB0276
Trigger mode: 0
Integration Time (sec): 5.000000E0
Scans to average: 1
Electric dark correction enabled: true
Nonlinearity correction enabled: false
Boxcar width: 0
XAxis mode: Raman Shifts
Number of Pixels in Spectrum: 1044
>>>>>Begin Spectral Data<<<<<
160.701	-27.25
166.742	-3.25
172.777	74.75
178.805	292.75
184.826	807.75
190.841	1632.75
196.849	2482.75
202.85	3031.75
208.845	3114.75
214.833	3010.75
220.815	2882.75
226.789	2824.75
232.758	2736.75
238.719	2664.75
244.674	2570.75
250.623	2460.75
256.565	2350.75
262.5	2231.75
268.429	2156.75
274.351	2056.75
280.267	1993.75
286.176	1911.75
292.079	1855.75
297.975	1791.75
303.865	1749.75
309.748	1713.75
315.625	1676.75
321.495	1632.75
327.359	1628.75
333.217	1606.75
339.068	1613.75
344.912	1598.75
350.751	1576.75
356.583	1579.75
362.408	1580.75
368.227	1590.75
374.04	1591.75
379.847	1581.75
385.647	1605.75
391.44	1608.75
397.228	1618.75
403.009	1619.75
408.784	1620.75
414.553	1646.75
420.315	1641.75
426.071	1638.75
431.821	1646.75
437.565	1627.75
443.302	1637.75
449.033	1628.75
454.758	1625.75
460.477	1624.75
466.189	1603.75
471.896	1592.75
477.596	1584.75
483.29	1582.75
488.978	1569.75
494.66	1552.75
500.335	1535.75
506.005	1501.75
511.668	1467.75
517.325	1440.75
522.977	1410.75
528.622	1392.75
534.261	1373.75
539.894	1373.75
545.521	1357.75
551.141	1345.75
556.756	1332.75
562.365	1311.75
567.968	1314.75
573.565	1309.75
579.155	1294.75
584.74	1287.75
590.319	1279.75
595.892	1267.75
601.459	1252.75
607.02	1256.75
612.575	1243.75
618.124	1223.75
623.667	1207.75
629.204	1190.75
634.735	1173.75
640.261	1176.75
645.781	1173.75
651.294	1170.75
656.802	1172.75
662.304	1155.75
667.8	1151.75
673.29	1146.75
678.775	1158.75
684.254	1140.75
689.726	1132.75
695.193	1132.75
700.655	1123.75
706.11	1129.75
711.56	1120.75
717.004	1098.75
722.442	1099.75
727.874	1079.75
733.301	1086.75
738.722	1088.75
744.137	1059.75
749.547	1069.75
754.951	1059.75
760.349	1060.75
765.741	1068.75
771.128	1059.75
776.509	1054.75
781.885	1067.75
787.254	1066.75
792.618	1060.75
797.977	1048.75
803.33	1036.75
808.677	1040.75
814.019	1018.75
819.355	1013.75
824.686	1008.75
830.011	994.75
835.33	990.75
840.644	984.75
845.952	975.75
851.255	972.75
856.552	975.75
861.844	969.75
867.13	944.75
872.41	943.75
877.686	941.75
882.955	928.75
888.219	912.75
893.478	911.75
898.731	880.75
903.979	880.75
909.221	851.75
914.458	850.75
919.69	849.75
924.916	861.75
930.136	858.75
935.351	862.75
940.561	850.75
945.766	838.75
950.965	849.75
956.158	833.75
961.347	818.75
966.529	805.75
971.707	796.75
976.879	783.75
982.046	776.75
987.208	781.75
992.364	772.75
997.515	782.75
1002.66	792.75
1007.801	787.75
1012.936	794.75
1018.066	796.75
1023.19	816.75
1028.309	820.75
1033.423	803.75
1038.532	792.75
1043.636	798.75
1048.734	782.75
1053.827	788.75
1058.915	773.75
1063.998	781.75
1069.075	772.75
1074.147	762.75
1079.214	783.75
1084.276	784.75
1089.333	791.75
1094.385	783.75
1099.431	794.75
1104.472	805.75
1109.509	786.75
1114.54	776.75
1119.565	772.75
1124.586	769.75
1129.602	741.75
1134.613	737.75
1139.618	748.75
1144.619	742.75
1149.614	754.75
1154.604	766.75
1159.589	767.75
1164.57	758.75
1169.545	774.75
1174.515	748.75
1179.48	762.75
1184.44	750.75
1189.395	745.75
1194.345	748.75
1199.29	738.75
1204.23	743.75
1209.165	744.75
1214.095	754.75
1219.021	755.75
1223.941	775.75
1228.856	780.75
1233.766	784.75
1238.672	782.75
1243.572	764.75
1248.467	770.75
1253.358	762.75
1258.244	749.75
1263.124	742.75
1268	728.75
1272.871	710.75
1277.737	716.75
1282.599	711.75
1287.455	722.75
1292.306	724.75
1297.153	734.75
1301.995	732.75
1306.832	743.75
1311.664	734.75
1316.491	742.75
1321.314	729.75
1326.132	726.75
1330.945	714.75
1335.753	707.75
1340.556	701.75
1345.354	681.75
1350.148	680.75
1354.937	669.75
1359.722	659.75
1364.501	664.75
1369.276	668.75
1374.046	666.75
1378.811	654.75
1383.572	670.75
1388.327	668.75
1393.079	655.75
1397.825	658.75
1402.567	649.75
1407.304	645.75
1412.036	641.75
1416.764	638.75
1421.487	634.75
1426.205	643.75
1430.919	646.75
1435.628	666.75
1440.333	654.75
1445.032	664.75
1449.727	674.75
1454.418	668.75
1459.104	676.75
1463.785	660.75
1468.462	655.75
1473.134	649.75
1477.802	661.75
1482.465	651.75
1487.123	640.75
1491.777	650.75
1496.426	647.75
1501.071	644.75
1505.711	650.75
1510.347	681.75
1514.978	657.75
1519.604	682.75
1524.226	698.75
1528.844	677.75
1533.457	689.75
1538.065	679.75
1542.669	683.75
1547.269	689.75
1551.864	690.75
1556.454	693.75
1561.041	706.75
1565.622	707.75
1570.199	711.75
1574.772	719.75
1579.34	749.75
1583.904	750.75
1588.464	775.75
1593.019	783.75
1597.569	791.75
1602.115	790.75
1606.657	809.75
1611.195	815.75
1615.728	829.75
1620.256	822.75
1624.78	848.75
1629.3	852.75
1633.816	864.75
1638.327	886.75
1642.834	892.75
1647.336	905.75
1651.834	893.75
1656.328	899.75
1660.817	901.75
1665.302	869.75
1669.783	851.75
1674.259	826.75
1678.732	803.75
1683.199	774.75
1687.663	744.75
1692.122	723.75
1696.577	697.75
1701.028	677.75
1705.474	640.75
1709.917	626.75
1714.355	608.75
1718.788	599.75
1723.218	590.75
1727.643	575.75
1732.064	565.75
1736.481	542.75
1740.893	532.75
1745.301	523.75
1749.705	496.75
1754.105	485.75
1758.501	483.75
1762.893	471.75
1767.28	461.75
1771.663	459.75
1776.042	468.75
1780.417	455.75
1784.787	458.75
1789.154	456.75
1793.516	460.75
1797.874	454.75
1802.228	447.75
1806.578	453.75
1810.924	445.75
1815.266	427.75
1819.603	426.75
1823.937	419.75
1828.266	413.75
1832.591	410.75
1836.913	405.75
1841.23	413.75
1845.543	413.75
1849.852	415.75
1854.156	413.75
1858.457	418.75
1862.754	419.75
1867.047	418.75
1871.335	413.75
1875.62	422.75
1879.9	421.75
1884.177	418.75
1888.449	423.75
1892.718	419.75
1896.982	408.75
1901.243	419.75
1905.499	407.75
1909.752	411.75
1914	407.75
1918.245	414.75
1922.485	415.75
1926.722	414.75
1930.954	414.75
1935.183	421.75
1939.408	421.75
1943.628	411.75
1947.845	415.75
1952.058	424.75
1956.267	412.75
1960.472	409.75
1964.673	403.75
1968.87	398.75
1973.063	401.75
1977.252	391.75
1981.438	401.75
1985.619	403.75
1989.797	393.75
1993.971	397.75
1998.14	404.75
2002.306	408.75
2006.469	420.75
2010.627	406.75
2014.781	398.75
2018.932	407.75
2023.078	403.75
2027.221	396.75
2031.36	400.75
2035.495	399.75
2039.627	387.75
2043.754	392.75
2047.878	400.75
2051.998	401.75
2056.114	383.75
2060.226	395.75
2064.334	388.75
2068.439	398.75
2072.54	408.75
2076.637	404.75
2080.73	396.75
2084.82	399.75
2088.906	400.75
2092.988	404.75
2097.066	400.75
2101.14	403.75
2105.211	406.75
2109.278	390.75
2113.342	388.75
2117.401	389.75
2121.457	394.75
2125.509	398.75
2129.558	393.75
2133.602	384.75
2137.643	386.75
2141.681	383.75
2145.714	390.75
2149.744	386.75
2153.77	370.75
2157.793	371.75
2161.812	370.75
2165.827	359.75
2169.838	375.75
2173.846	353.75
2177.851	346.75
2181.851	339.75
2185.848	343.75
2189.841	331.75
2193.831	318.75
2197.817	328.75
2201.799	333.75
2205.778	317.75
2209.753	334.75
2213.725	310.75
2217.693	326.75
2221.657	326.75
2225.618	317.75
2229.575	324.75
2233.529	319.75
2237.479	320.75
2241.425	314.75
2245.368	307.75
2249.307	302.75
2253.243	299.75
2257.175	303.75
2261.104	287.75
2265.029	284.75
2268.95	279.75
2272.868	281.75
2276.783	281.75
2280.694	278.75
2284.601	261.75
2288.505	263.75
2292.405	256.75
2296.302	266.75
2300.195	263.75
2304.085	251.75
2307.971	242.75
2311.854	238.75
2315.734	238.75
2319.609	233.75
2323.482	229.75
2327.351	227.75
2331.216	226.75
2335.078	232.75
2338.937	229.75
2342.792	230.75
2346.643	226.75
2350.492	224.75
2354.336	214.75
2358.178	219.75
2362.015	219.75
2365.85	219.75
2369.681	219.75
2373.508	225.75
2377.333	223.75
2381.153	215.75
2384.971	221.75
2388.785	217.75
2392.595	215.75
2396.402	216.75
2400.206	213.75
2404.007	219.75
2407.804	214.75
2411.597	202.75
2415.388	210.75
2419.174	212.75
2422.958	213.75
2426.738	209.75
2430.515	209.75
2434.289	203.75
2438.059	208.75
2441.825	206.75
2445.589	196.75
2449.349	202.75
2453.106	198.75
2456.859	194.75
2460.61	196.75
2464.356	187.75
2468.1	181.75
2471.84	193.75
2475.577	184.75
2479.311	183.75
2483.041	189.75
2486.768	187.75
2490.492	188.75
2494.213	189.75
2497.93	177.75
2501.644	188.75
2505.355	185.75
2509.062	185.75
2512.766	182.75
2516.467	183.75
2520.165	179.75
2523.859	182.75
2527.551	186.75
2531.239	182.75
2534.923	180.75
2538.605	175.75
2542.283	177.75
2545.958	179.75
2549.63	170.75
2553.299	167.75
2556.964	166.75
2560.626	172.75
2564.285	166.75
2567.941	173.75
2571.594	164.75
2575.243	160.75
2578.89	165.75
2582.533	162.75
2586.173	161.75
2589.809	163.75
2593.443	158.75
2597.073	149.75
2600.701	152.75
2604.325	154.75
2607.946	150.75
2611.564	159.75
2615.178	154.75
2618.79	156.75
2622.398	149.75
2626.004	157.75
2629.606	145.75
2633.205	143.75
2636.801	147.75
2640.394	146.75
2643.983	144.75
2647.57	138.75
2651.153	147.75
2654.734	141.75
2658.311	134.75
2661.885	137.75
2665.456	139.75
2669.025	138.75
2672.589	135.75
2676.151	139.75
2679.71	130.75
2683.266	130.75
2686.819	128.75
2690.368	125.75
2693.915	121.75
2697.458	124.75
2700.999	122.75
2704.536	121.75
2708.071	123.75
2711.602	119.75
2715.13	117.75
2718.656	113.75
2722.178	118.75
2725.697	117.75
2729.214	116.75
2732.727	126.75
2736.237	121.75
2739.744	120.75
2743.249	128.75
2746.75	122.75
2750.248	122.75
2753.743	123.75
2757.236	124.75
2760.725	117.75
2764.211	115.75
2767.695	115.75
2771.175	115.75
2774.652	128.75
2778.127	122.75
2781.598	119.75
2785.067	123.75
2788.532	122.75
2791.995	120.75
2795.455	126.75
2798.911	116.75
2802.365	116.75
2805.816	121.75
2809.264	114.75
2812.709	116.75
2816.151	115.75
2819.59	123.75
2823.026	117.75
2826.46	129.75
2829.89	125.75
2833.318	123.75
2836.742	122.75
2840.164	125.75
2843.583	119.75
2846.999	132.75
2850.412	129.75
2853.822	128.75
2857.229	138.75
2860.634	128.75
2864.035	132.75
2867.434	132.75
2870.83	141.75
2874.223	141.75
2877.613	142.75
2881	142.75
2884.385	152.75
2887.766	151.75
2891.145	146.75
2894.521	140.75
2897.894	150.75
2901.264	151.75
2904.631	154.75
2907.996	155.75
2911.358	161.75
2914.717	165.75
2918.073	161.75
2921.426	165.75
2924.777	174.75
2928.124	169.75
2931.469	173.75
2934.811	176.75
2938.15	176.75
2941.487	178.75
2944.821	183.75
2948.152	185.75
2951.48	194.75
2954.805	190.75
2958.128	198.75
2961.447	194.75
2964.765	208.75
2968.079	209.75
2971.39	211.75
2974.699	218.75
2978.005	217.75
2981.308	224.75
2984.609	234.75
2987.907	240.75
2991.202	254.75
2994.494	256.75
2997.784	266.75
3001.07	267.75
3004.355	280.75
3007.636	287.75
3010.915	288.75
3014.191	299.75
3017.464	308.75
3020.734	306.75
3024.002	318.75
3027.267	326.75
3030.53	326.75
3033.789	337.75
3037.046	333.75
3040.301	345.75
3043.552	352.75
3046.801	368.75
3050.048	376.75
3053.291	393.75
3056.532	397.75
3059.771	410.75
3063.006	418.75
3066.239	431.75
3069.469	443.75
3072.697	456.75
3075.922	459.75
3079.144	482.75
3082.364	487.75
3085.581	501.75
3088.795	516.75
3092.007	533.75
3095.216	542.75
3098.423	563.75
3101.627	575.75
3104.828	573.75
3108.026	582.75
3111.222	618.75
3114.416	632.75
3117.607	650.75
3120.795	649.75
3123.98	673.75
3127.163	697.75
3130.344	698.75
3133.521	724.75
3136.696	737.75
3139.869	749.75
3143.039	766.75
3146.206	771.75
3149.371	787.75
3152.533	780.75
3155.693	794.75
3158.85	801.75
3162.005	800.75
3165.157	820.75
3168.306	819.75
3171.453	806.75
3174.597	819.75
3177.739	819.75
3180.878	819.75
3184.014	818.75
3187.149	834.75
3190.28	831.75
3193.409	837.75
3196.536	843.75
3199.659	836.75
3202.781	844.75
3205.9	842.75
3209.016	835.75
3212.13	849.75
3215.241	844.75
3218.35	825.75
3221.456	831.75
3224.56	827.75
3227.661	809.75
3230.76	808.75
3233.856	792.75
3236.95	787.75
3240.041	775.75
3243.13	783.75
3246.216	782.75
3249.3	768.75
3252.382	762.75
3255.46	773.75
3258.537	759.75
3261.611	749.75
3264.682	762.75
3267.751	747.75
3270.818	754.75
3273.882	736.75
3276.943	737.75
3280.002	734.75
3283.059	732.75
3286.113	718.75
3289.165	713.75
3292.214	700.75
3295.261	687.75
3298.306	688.75
3301.348	681.75
3304.387	650.75
3307.425	650.75
3310.459	640.75
3313.492	631.75
3316.521	612.75
3319.549	613.75
3322.574	617.75
3325.597	619.75
3328.617	615.75
3331.635	607.75
3334.65	590.75
3337.663	594.75
3340.674	604.75
3343.682	603.75
3346.688	593.75
3349.691	594.75
3352.692	581.75
3355.691	583.75
3358.687	573.75
3361.681	563.75
3364.673	561.75
3367.662	556.75
3370.649	542.75
3373.633	527.75
3376.615	535.75
3379.595	538.75
3382.572	515.75
3385.547	509.75
3388.52	503.75
3391.49	502.75
3394.458	488.75
3397.424	487.75
3400.387	478.75
3403.348	467.75
3406.307	469.75
3409.263	469.75
3412.217	458.75
3415.168	454.75
3418.118	454.75
3421.065	446.75
3424.009	431.75
3426.951	442.75
3429.891	419.75
3432.829	412.75
3435.764	406.75
3438.697	400.75
3441.628	395.75
3444.557	385.75
3447.483	376.75
3450.407	358.75
3453.328	346.75
3456.247	337.75
3459.164	325.75
3462.079	310.75
3464.991	303.75
3467.902	299.75
3470.809	287.75
3473.715	280.75
3476.618	270.75
3479.519	265.75
3482.418	264.75
3485.315	259.75
3488.209	249.75
3491.101	241.75
3493.99	231.75
3496.878	225.75
3499.763	207.75
3502.646	202.75
3505.527	204.75
3508.405	193.75
3511.281	186.75
3514.155	187.75
3517.027	170.75
3519.897	157.75
3522.764	153.75
3525.629	141.75
3528.492	134.75
3531.352	127.75
3534.211	118.75
3537.067	117.75
3539.921	109.75
3542.773	103.75
3545.622	89.75
3548.469	90.75
3551.315	83.75
3554.157	77.75
3556.998	69.75
3559.837	64.75
3562.673	67.75
3565.507	61.75
3568.339	56.75
3571.169	44.75
3573.996	48.75
3576.822	40.75
3579.645	39.75
3582.466	37.75
3585.285	30.75
3588.101	26.75
3590.916	25.75
3593.728	24.75
3596.538	16.75
3599.346	9.75
3602.152	1.75
3604.956	-3.25
3607.757	3.75
3610.556	-3.25
3613.354	-1.25
3616.149	-4.25
3618.942	-11.25
3621.732	-11.25
3624.521	-15.25
3627.307	-14.25
3630.092	-17.25
3632.874	-20.25
3635.654	-24.25
3638.432	-29.25
3641.208	-25.25
3643.982	-28.25
3646.753	-26.25
3649.523	-28.25
3652.29	-28.25
3655.055	-31.25
3657.818	-31.25
3660.579	-31.25
3663.338	-39.25
3666.095	-39.25
3668.849	-48.25
3671.602	-41.25
3674.352	-48.25
3677.101	-43.25
3679.847	-47.25
3682.591	-47.25
3685.333	-48.25
3688.073	-52.25
3690.811	-51.25
3693.547	-56.25
3696.281	-55.25
3699.013	-55.25
3701.742	-59.25
3704.47	-62.25
3707.195	-63.25
3709.919	-62.25
3712.64	-62.25
3715.359	-60.25
3718.076	-64.25
3720.792	-64.25
3723.505	-65.25
3726.216	-67.25
3728.925	-62.25
3731.632	-68.25
3734.336	-70.25
3737.039	-69.25
3739.74	-68.25
3742.439	-69.25
3745.136	-65.25
3747.83	-65.25
3750.523	-69.25
3753.213	-66.25
3755.902	-62.25
3758.589	-63.25
3761.273	-66.25
3763.956	-72.25
3766.636	-69.25
3769.315	-72.25
3771.991	-72.25
3774.665	-71.25
3777.338	-71.25
3780.008	-69.25
3782.677	-72.25
3785.343	-67.25
3788.007	-72.25
3790.67	-70.25
3793.33	-71.25
3795.989	-72.25
3798.645	-69.25
3801.299	-76.25
3803.952	-74.25
3806.602	-74.25
3809.251	-74.25
3811.897	-78.25
3814.542	-80.25
3817.184	-73.25
3819.825	-75.25
3822.463	-73.25
3825.1	-77.25
3827.735	-75.25
3830.367	-76.25
3832.998	-76.25
3835.627	-79.25
3838.253	-79.25
3840.878	-80.25
3843.501	-77.25
3846.122	-77.25
3848.741	-75.25
3851.358	-76.25
3853.973	-71.25
3856.586	-80.25
3859.197	-80.25
3861.806	-79.25
3864.414	-76.25
3867.019	-81.25
3869.622	-77.25
3872.224	-77.25
3874.823	-72.25
3877.421	-71.25
3880.016	-72.25
3882.61	-66.25
3885.202	-65.25
3887.792	-65.25
3890.38	-76.25
3892.966	-74.25
3895.55	-78.25
3898.132	-84.25
3900.713	-80.25
3903.291	-79.25
3905.868	-79.25
3908.442	-77.25
3911.015	-81.25
3913.586	-78.25
3916.155	-78.25
3918.722	-79.25
3921.287	-80.25
3923.85	-80.25
3926.411	-80.25
3928.971	-82.25
3931.528	-83.25
3934.084	-83.25
3936.638	-79.25
3939.19	-75.25
3941.74	-72.25
3944.288	-79.25
3946.834	-77.25
3949.378	-80.25
3951.921	-78.25
3954.462	-77.25
3957	-80.25
3959.537	-81.25
3962.072	-82.25
3964.606	-79.25
3967.137	-77.25
3969.667	-82.25
3972.194	-77.25
3974.72	-78.25
3977.244	-79.25
3979.766	-78.25
3982.286	-78.25
3984.805	-82.25
3987.321	-84.25
3989.836	-78.25
3992.349	-81.25
3994.86	-80.25
3997.369	-87.25
3999.877	-79.25
4002.382	-79.25
4004.886	-79.25
4007.388	-82.25
4009.888	-79.25
4012.386	-78.25
4014.883	-79.25
4017.377	-78.25
4019.87	-78.25
4022.361	-79.25
4024.85	-79.25
4027.338	-81.25
4029.823	-83.25
4032.307	-81.25
4034.789	-79.25
4037.269	-80.25
4039.747	-77.25
4042.224	-74.25
4044.699	-77.25
4047.172	-80.25
4049.643	-78.25
4052.112	-78.25
4054.58	-81.25
4057.046	-84.25
4059.51	-80.25
4061.972	-79.25
4064.432	-81.25
4066.891	-81.25
4069.348	-77.25
4071.803	-77.25
4074.256	-80.25
4076.708	-80.25
4079.158	-81.25
4081.606	-79.25
4084.052	-84.25
4086.497	-82.25
4088.939	-82.25
4091.38	-82.25
4093.819	-86.25
4096.257	-83.25
4098.693	-84.25
4101.127	-84.25
4103.559	-83.25
4105.989	-51.25
4108.418	-47.25
4110.845	-47.25
4113.27	-41.25
4115.694	-41.25
4118.115	-38.25
4120.535	-83.25
4122.954	-81.25
4125.37	-80.25
4127.785	-77.25
4130.198	-77.25
4132.609	-77.25
4135.019	-82.25
4137.427	-84.25
4139.833	-86.25
4142.237	-84.25
