Data from 100000000CFU1_B_RamanShift_1.txt Node
Date: Thu Jan 26 11:46:08 IST 2017
User: aro
Spectrometer: QEPB0276
Trigger mode: 0
Integration Time (sec): 5.000000E0
Scans to average: 1
Electric dark correction enabled: true
Nonlinearity correction enabled: false
Boxcar width: 0
XAxis mode: Raman Shifts
Number of Pixels in Spectrum: 1044
>>>>>Begin Spectral Data<<<<<
160.701	-23.5
166.742	1.5
172.777	70.5
178.805	289.5
184.826	796.5
190.841	1615.5
196.849	2509.5
202.85	3049.5
208.845	3200.5
214.833	3062.5
220.815	2961.5
226.789	2874.5
232.758	2806.5
238.719	2711.5
244.674	2598.5
250.623	2493.5
256.565	2401.5
262.5	2256.5
268.429	2175.5
274.351	2097.5
280.267	2007.5
286.176	1938.5
292.079	1874.5
297.975	1826.5
303.865	1780.5
309.748	1747.5
315.625	1698.5
321.495	1673.5
327.359	1655.5
333.217	1620.5
339.068	1607.5
344.912	1602.5
350.751	1592.5
356.583	1598.5
362.408	1609.5
368.227	1604.5
374.04	1630.5
379.847	1605.5
385.647	1611.5
391.44	1623.5
397.228	1636.5
403.009	1642.5
408.784	1655.5
414.553	1662.5
420.315	1652.5
426.071	1658.5
431.821	1652.5
437.565	1663.5
443.302	1668.5
449.033	1667.5
454.758	1639.5
460.477	1640.5
466.189	1641.5
471.896	1614.5
477.596	1611.5
483.29	1613.5
488.978	1584.5
494.66	1563.5
500.335	1547.5
506.005	1525.5
511.668	1486.5
517.325	1467.5
522.977	1449.5
528.622	1396.5
534.261	1396.5
539.894	1365.5
545.521	1371.5
551.141	1350.5
556.756	1343.5
562.365	1327.5
567.968	1334.5
573.565	1330.5
579.155	1314.5
584.74	1319.5
590.319	1307.5
595.892	1300.5
601.459	1274.5
607.02	1285.5
612.575	1268.5
618.124	1249.5
623.667	1233.5
629.204	1227.5
634.735	1200.5
640.261	1205.5
645.781	1197.5
651.294	1185.5
656.802	1175.5
662.304	1184.5
667.8	1172.5
673.29	1177.5
678.775	1148.5
684.254	1160.5
689.726	1152.5
695.193	1138.5
700.655	1130.5
706.11	1126.5
711.56	1106.5
717.004	1112.5
722.442	1121.5
727.874	1103.5
733.301	1107.5
738.722	1083.5
744.137	1099.5
749.547	1086.5
754.951	1079.5
760.349	1077.5
765.741	1076.5
771.128	1075.5
776.509	1071.5
781.885	1074.5
787.254	1081.5
792.618	1080.5
797.977	1059.5
803.33	1040.5
808.677	1040.5
814.019	1035.5
819.355	1025.5
824.686	1016.5
830.011	1006.5
835.33	1002.5
840.644	979.5
845.952	989.5
851.255	977.5
856.552	978.5
861.844	962.5
867.13	976.5
872.41	961.5
877.686	951.5
882.955	935.5
888.219	926.5
893.478	911.5
898.731	893.5
903.979	882.5
909.221	878.5
914.458	855.5
919.69	865.5
924.916	866.5
930.136	847.5
935.351	858.5
940.561	857.5
945.766	841.5
950.965	845.5
956.158	829.5
961.347	814.5
966.529	813.5
971.707	795.5
976.879	793.5
982.046	787.5
987.208	788.5
992.364	784.5
997.515	789.5
1002.66	783.5
1007.801	803.5
1012.936	803.5
1018.066	799.5
1023.19	814.5
1028.309	811.5
1033.423	806.5
1038.532	804.5
1043.636	816.5
1048.734	800.5
1053.827	795.5
1058.915	781.5
1063.998	784.5
1069.075	771.5
1074.147	768.5
1079.214	778.5
1084.276	791.5
1089.333	800.5
1094.385	789.5
1099.431	801.5
1104.472	797.5
1109.509	801.5
1114.54	778.5
1119.565	762.5
1124.586	763.5
1129.602	758.5
1134.613	753.5
1139.618	745.5
1144.619	746.5
1149.614	759.5
1154.604	754.5
1159.589	753.5
1164.57	759.5
1169.545	779.5
1174.515	770.5
1179.48	762.5
1184.44	754.5
1189.395	757.5
1194.345	749.5
1199.29	746.5
1204.23	748.5
1209.165	743.5
1214.095	749.5
1219.021	751.5
1223.941	755.5
1228.856	775.5
1233.766	789.5
1238.672	787.5
1243.572	785.5
1248.467	777.5
1253.358	752.5
1258.244	755.5
1263.124	737.5
1268	726.5
1272.871	723.5
1277.737	710.5
1282.599	714.5
1287.455	713.5
1292.306	714.5
1297.153	717.5
1301.995	730.5
1306.832	743.5
1311.664	733.5
1316.491	731.5
1321.314	728.5
1326.132	743.5
1330.945	709.5
1335.753	703.5
1340.556	686.5
1345.354	691.5
1350.148	682.5
1354.937	682.5
1359.722	670.5
1364.501	665.5
1369.276	673.5
1374.046	664.5
1378.811	662.5
1383.572	657.5
1388.327	664.5
1393.079	662.5
1397.825	642.5
1402.567	645.5
1407.304	638.5
1412.036	649.5
1416.764	635.5
1421.487	633.5
1426.205	634.5
1430.919	640.5
1435.628	659.5
1440.333	660.5
1445.032	665.5
1449.727	672.5
1454.418	674.5
1459.104	671.5
1463.785	656.5
1468.462	662.5
1473.134	645.5
1477.802	650.5
1482.465	648.5
1487.123	644.5
1491.777	648.5
1496.426	657.5
1501.071	660.5
1505.711	668.5
1510.347	669.5
1514.978	674.5
1519.604	683.5
1524.226	691.5
1528.844	690.5
1533.457	679.5
1538.065	687.5
1542.669	684.5
1547.269	679.5
1551.864	681.5
1556.454	695.5
1561.041	692.5
1565.622	699.5
1570.199	713.5
1574.772	720.5
1579.34	746.5
1583.904	754.5
1588.464	760.5
1593.019	784.5
1597.569	787.5
1602.115	791.5
1606.657	820.5
1611.195	812.5
1615.728	817.5
1620.256	829.5
1624.78	849.5
1629.3	863.5
1633.816	883.5
1638.327	875.5
1642.834	904.5
1647.336	892.5
1651.834	897.5
1656.328	900.5
1660.817	893.5
1665.302	875.5
1669.783	846.5
1674.259	845.5
1678.732	805.5
1683.199	778.5
1687.663	761.5
1692.122	728.5
1696.577	693.5
1701.028	671.5
1705.474	640.5
1709.917	626.5
1714.355	599.5
1718.788	605.5
1723.218	584.5
1727.643	566.5
1732.064	559.5
1736.481	554.5
1740.893	528.5
1745.301	517.5
1749.705	493.5
1754.105	478.5
1758.501	463.5
1762.893	460.5
1767.28	462.5
1771.663	457.5
1776.042	458.5
1780.417	460.5
1784.787	451.5
1789.154	457.5
1793.516	459.5
1797.874	452.5
1802.228	454.5
1806.578	446.5
1810.924	429.5
1815.266	423.5
1819.603	416.5
1823.937	414.5
1828.266	413.5
1832.591	410.5
1836.913	405.5
1841.23	407.5
1845.543	403.5
1849.852	409.5
1854.156	409.5
1858.457	404.5
1862.754	408.5
1867.047	410.5
1871.335	408.5
1875.62	407.5
1879.9	409.5
1884.177	409.5
1888.449	413.5
1892.718	402.5
1896.982	408.5
1901.243	412.5
1905.499	403.5
1909.752	418.5
1914	409.5
1918.245	409.5
1922.485	408.5
1926.722	411.5
1930.954	413.5
1935.183	419.5
1939.408	424.5
1943.628	417.5
1947.845	413.5
1952.058	426.5
1956.267	417.5
1960.472	404.5
1964.673	402.5
1968.87	398.5
1973.063	409.5
1977.252	383.5
1981.438	393.5
1985.619	388.5
1989.797	393.5
1993.971	394.5
1998.14	392.5
2002.306	407.5
2006.469	393.5
2010.627	399.5
2014.781	388.5
2018.932	394.5
2023.078	391.5
2027.221	397.5
2031.36	395.5
2035.495	387.5
2039.627	394.5
2043.754	390.5
2047.878	391.5
2051.998	389.5
2056.114	392.5
2060.226	387.5
2064.334	397.5
2068.439	399.5
2072.54	404.5
2076.637	399.5
2080.73	395.5
2084.82	405.5
2088.906	399.5
2092.988	398.5
2097.066	403.5
2101.14	389.5
2105.211	391.5
2109.278	392.5
2113.342	391.5
2117.401	382.5
2121.457	383.5
2125.509	381.5
2129.558	381.5
2133.602	383.5
2137.643	386.5
2141.681	374.5
2145.714	379.5
2149.744	383.5
2153.77	383.5
2157.793	367.5
2161.812	357.5
2165.827	360.5
2169.838	351.5
2173.846	353.5
2177.851	350.5
2181.851	342.5
2185.848	347.5
2189.841	337.5
2193.831	335.5
2197.817	335.5
2201.799	324.5
2205.778	326.5
2209.753	326.5
2213.725	326.5
2217.693	327.5
2221.657	311.5
2225.618	315.5
2229.575	303.5
2233.529	311.5
2237.479	321.5
2241.425	305.5
2245.368	303.5
2249.307	303.5
2253.243	300.5
2257.175	293.5
2261.104	282.5
2265.029	283.5
2268.95	286.5
2272.868	278.5
2276.783	267.5
2280.694	269.5
2284.601	268.5
2288.505	263.5
2292.405	252.5
2296.302	256.5
2300.195	246.5
2304.085	248.5
2307.971	240.5
2311.854	237.5
2315.734	233.5
2319.609	233.5
2323.482	221.5
2327.351	222.5
2331.216	220.5
2335.078	226.5
2338.937	222.5
2342.792	213.5
2346.643	217.5
2350.492	218.5
2354.336	213.5
2358.178	220.5
2362.015	221.5
2365.85	223.5
2369.681	218.5
2373.508	221.5
2377.333	218.5
2381.153	218.5
2384.971	215.5
2388.785	208.5
2392.595	211.5
2396.402	200.5
2400.206	204.5
2404.007	207.5
2407.804	201.5
2411.597	206.5
2415.388	199.5
2419.174	201.5
2422.958	204.5
2426.738	191.5
2430.515	203.5
2434.289	204.5
2438.059	204.5
2441.825	203.5
2445.589	195.5
2449.349	196.5
2453.106	188.5
2456.859	189.5
2460.61	192.5
2464.356	191.5
2468.1	187.5
2471.84	183.5
2475.577	182.5
2479.311	185.5
2483.041	187.5
2486.768	183.5
2490.492	187.5
2494.213	188.5
2497.93	179.5
2501.644	180.5
2505.355	181.5
2509.062	180.5
2512.766	174.5
2516.467	181.5
2520.165	183.5
2523.859	177.5
2527.551	172.5
2531.239	184.5
2534.923	175.5
2538.605	168.5
2542.283	170.5
2545.958	166.5
2549.63	171.5
2553.299	172.5
2556.964	166.5
2560.626	166.5
2564.285	176.5
2567.941	162.5
2571.594	159.5
2575.243	166.5
2578.89	167.5
2582.533	155.5
2586.173	155.5
2589.809	154.5
2593.443	154.5
2597.073	144.5
2600.701	144.5
2604.325	141.5
2607.946	146.5
2611.564	154.5
2615.178	146.5
2618.79	155.5
2622.398	151.5
2626.004	147.5
2629.606	148.5
2633.205	144.5
2636.801	139.5
2640.394	141.5
2643.983	136.5
2647.57	138.5
2651.153	143.5
2654.734	140.5
2658.311	127.5
2661.885	129.5
2665.456	129.5
2669.025	130.5
2672.589	125.5
2676.151	127.5
2679.71	126.5
2683.266	122.5
2686.819	123.5
2690.368	126.5
2693.915	120.5
2697.458	119.5
2700.999	120.5
2704.536	124.5
2708.071	117.5
2711.602	118.5
2715.13	113.5
2718.656	117.5
2722.178	118.5
2725.697	121.5
2729.214	121.5
2732.727	121.5
2736.237	119.5
2739.744	120.5
2743.249	125.5
2746.75	123.5
2750.248	122.5
2753.743	122.5
2757.236	118.5
2760.725	118.5
2764.211	116.5
2767.695	118.5
2771.175	111.5
2774.652	111.5
2778.127	118.5
2781.598	113.5
2785.067	115.5
2788.532	116.5
2791.995	114.5
2795.455	123.5
2798.911	113.5
2802.365	115.5
2805.816	121.5
2809.264	120.5
2812.709	119.5
2816.151	121.5
2819.59	120.5
2823.026	120.5
2826.46	122.5
2829.89	123.5
2833.318	125.5
2836.742	125.5
2840.164	128.5
2843.583	125.5
2846.999	121.5
2850.412	129.5
2853.822	131.5
2857.229	135.5
2860.634	134.5
2864.035	138.5
2867.434	137.5
2870.83	141.5
2874.223	142.5
2877.613	153.5
2881	148.5
2884.385	146.5
2887.766	140.5
2891.145	148.5
2894.521	145.5
2897.894	157.5
2901.264	150.5
2904.631	153.5
2907.996	152.5
2911.358	160.5
2914.717	166.5
2918.073	162.5
2921.426	165.5
2924.777	169.5
2928.124	170.5
2931.469	174.5
2934.811	176.5
2938.15	177.5
2941.487	182.5
2944.821	190.5
2948.152	191.5
2951.48	196.5
2954.805	194.5
2958.128	197.5
2961.447	205.5
2964.765	204.5
2968.079	211.5
2971.39	213.5
2974.699	215.5
2978.005	240.5
2981.308	234.5
2984.609	239.5
2987.907	247.5
2991.202	250.5
2994.494	259.5
2997.784	276.5
3001.07	279.5
3004.355	287.5
3007.636	290.5
3010.915	293.5
3014.191	305.5
3017.464	311.5
3020.734	318.5
3024.002	324.5
3027.267	321.5
3030.53	334.5
3033.789	340.5
3037.046	350.5
3040.301	351.5
3043.552	364.5
3046.801	376.5
3050.048	379.5
3053.291	402.5
3056.532	397.5
3059.771	419.5
3063.006	428.5
3066.239	449.5
3069.469	466.5
3072.697	473.5
3075.922	486.5
3079.144	489.5
3082.364	505.5
3085.581	525.5
3088.795	535.5
3092.007	559.5
3095.216	572.5
3098.423	581.5
3101.627	589.5
3104.828	597.5
3108.026	610.5
3111.222	630.5
3114.416	647.5
3117.607	658.5
3120.795	677.5
3123.98	692.5
3127.163	714.5
3130.344	733.5
3133.521	743.5
3136.696	753.5
3139.869	766.5
3143.039	792.5
3146.206	790.5
3149.371	803.5
3152.533	805.5
3155.693	817.5
3158.85	828.5
3162.005	837.5
3165.157	841.5
3168.306	844.5
3171.453	844.5
3174.597	861.5
3177.739	854.5
3180.878	852.5
3184.014	856.5
3187.149	865.5
3190.28	860.5
3193.409	857.5
3196.536	857.5
3199.659	868.5
3202.781	876.5
3205.9	864.5
3209.016	879.5
3212.13	875.5
3215.241	863.5
3218.35	868.5
3221.456	864.5
3224.56	835.5
3227.661	838.5
3230.76	830.5
3233.856	822.5
3236.95	811.5
3240.041	808.5
3243.13	793.5
3246.216	812.5
3249.3	799.5
3252.382	782.5
3255.46	788.5
3258.537	793.5
3261.611	773.5
3264.682	775.5
3267.751	783.5
3270.818	773.5
3273.882	774.5
3276.943	765.5
3280.002	763.5
3283.059	744.5
3286.113	746.5
3289.165	741.5
3292.214	722.5
3295.261	710.5
3298.306	705.5
3301.348	690.5
3304.387	680.5
3307.425	673.5
3310.459	662.5
3313.492	661.5
3316.521	643.5
3319.549	632.5
3322.574	631.5
3325.597	630.5
3328.617	626.5
3331.635	627.5
3334.65	619.5
3337.663	626.5
3340.674	622.5
3343.682	612.5
3346.688	608.5
3349.691	602.5
3352.692	603.5
3355.691	600.5
3358.687	602.5
3361.681	581.5
3364.673	593.5
3367.662	562.5
3370.649	566.5
3373.633	563.5
3376.615	551.5
3379.595	541.5
3382.572	537.5
3385.547	535.5
3388.52	523.5
3391.49	515.5
3394.458	512.5
3397.424	499.5
3400.387	495.5
3403.348	479.5
3406.307	484.5
3409.263	484.5
3412.217	474.5
3415.168	470.5
3418.118	476.5
3421.065	464.5
3424.009	454.5
3426.951	449.5
3429.891	430.5
3432.829	431.5
3435.764	421.5
3438.697	416.5
3441.628	410.5
3444.557	397.5
3447.483	387.5
3450.407	383.5
3453.328	361.5
3456.247	351.5
3459.164	342.5
3462.079	337.5
3464.991	317.5
3467.902	312.5
3470.809	299.5
3473.715	290.5
3476.618	288.5
3479.519	277.5
3482.418	277.5
3485.315	263.5
3488.209	257.5
3491.101	250.5
3493.99	236.5
3496.878	229.5
3499.763	233.5
3502.646	207.5
3505.527	214.5
3508.405	204.5
3511.281	194.5
3514.155	189.5
3517.027	189.5
3519.897	174.5
3522.764	156.5
3525.629	149.5
3528.492	149.5
3531.352	141.5
3534.211	122.5
3537.067	117.5
3539.921	116.5
3542.773	100.5
3545.622	100.5
3548.469	94.5
3551.315	87.5
3554.157	81.5
3556.998	75.5
3559.837	75.5
3562.673	66.5
3565.507	59.5
3568.339	55.5
3571.169	49.5
3573.996	49.5
3576.822	48.5
3579.645	35.5
3582.466	37.5
3585.285	29.5
3588.101	30.5
3590.916	31.5
3593.728	20.5
3596.538	18.5
3599.346	13.5
3602.152	5.5
3604.956	5.5
3607.757	3.5
3610.556	3.5
3613.354	-0.5
3616.149	-4.5
3618.942	-5.5
3621.732	-5.5
3624.521	-4.5
3627.307	-13.5
3630.092	-9.5
3632.874	-20.5
3635.654	-20.5
3638.432	-25.5
3641.208	-25.5
3643.982	-25.5
3646.753	-28.5
3649.523	-27.5
3652.29	-29.5
3655.055	-35.5
3657.818	-30.5
3660.579	-34.5
3663.338	-41.5
3666.095	-36.5
3668.849	-42.5
3671.602	-41.5
3674.352	-45.5
3677.101	-44.5
3679.847	-43.5
3682.591	-45.5
3685.333	-46.5
3688.073	-48.5
3690.811	-49.5
3693.547	-52.5
3696.281	-55.5
3699.013	-60.5
3701.742	-55.5
3704.47	-56.5
3707.195	-60.5
3709.919	-58.5
3712.64	-60.5
3715.359	-61.5
3718.076	-62.5
3720.792	-60.5
3723.505	-60.5
3726.216	-62.5
3728.925	-60.5
3731.632	-65.5
3734.336	-67.5
3737.039	-62.5
3739.74	-64.5
3742.439	-65.5
3745.136	-63.5
3747.83	-62.5
3750.523	-64.5
3753.213	-62.5
3755.902	-60.5
3758.589	-63.5
3761.273	-69.5
3763.956	-73.5
3766.636	-71.5
3769.315	-70.5
3771.991	-73.5
3774.665	-70.5
3777.338	-75.5
3780.008	-70.5
3782.677	-71.5
3785.343	-68.5
3788.007	-71.5
3790.67	-71.5
3793.33	-73.5
3795.989	-72.5
3798.645	-70.5
3801.299	-71.5
3803.952	-71.5
3806.602	-70.5
3809.251	-68.5
3811.897	-74.5
3814.542	-74.5
3817.184	-67.5
3819.825	-67.5
3822.463	-71.5
3825.1	-72.5
3827.735	-73.5
3830.367	-76.5
3832.998	-73.5
3835.627	-77.5
3838.253	-76.5
3840.878	-79.5
3843.501	-78.5
3846.122	-78.5
3848.741	-75.5
3851.358	-77.5
3853.973	-70.5
3856.586	-77.5
3859.197	-81.5
3861.806	-78.5
3864.414	-75.5
3867.019	-79.5
3869.622	-77.5
3872.224	-77.5
3874.823	-70.5
3877.421	-67.5
3880.016	-71.5
3882.61	-66.5
3885.202	-65.5
3887.792	-69.5
3890.38	-72.5
3892.966	-75.5
3895.55	-79.5
3898.132	-84.5
3900.713	-78.5
3903.291	-76.5
3905.868	-77.5
3908.442	-78.5
3911.015	-78.5
3913.586	-80.5
3916.155	-75.5
3918.722	-80.5
3921.287	-80.5
3923.85	-78.5
3926.411	-75.5
3928.971	-79.5
3931.528	-78.5
3934.084	-80.5
3936.638	-79.5
3939.19	-78.5
3941.74	-70.5
3944.288	-75.5
3946.834	-78.5
3949.378	-78.5
3951.921	-80.5
3954.462	-76.5
3957	-80.5
3959.537	-80.5
3962.072	-82.5
3964.606	-82.5
3967.137	-77.5
3969.667	-78.5
3972.194	-73.5
3974.72	-78.5
3977.244	-78.5
3979.766	-78.5
3982.286	-77.5
3984.805	-81.5
3987.321	-81.5
3989.836	-80.5
3992.349	-79.5
3994.86	-77.5
3997.369	-81.5
3999.877	-78.5
4002.382	-74.5
4004.886	-76.5
4007.388	-79.5
4009.888	-80.5
4012.386	-77.5
4014.883	-77.5
4017.377	-73.5
4019.87	-77.5
4022.361	-77.5
4024.85	-77.5
4027.338	-77.5
4029.823	-82.5
4032.307	-81.5
4034.789	-82.5
4037.269	-79.5
4039.747	-79.5
4042.224	-73.5
4044.699	-80.5
4047.172	-81.5
4049.643	-80.5
4052.112	-79.5
4054.58	-78.5
4057.046	-82.5
4059.51	-77.5
4061.972	-80.5
4064.432	-79.5
4066.891	-78.5
4069.348	-74.5
4071.803	-73.5
4074.256	-77.5
4076.708	-74.5
4079.158	-76.5
4081.606	-80.5
4084.052	-79.5
4086.497	-76.5
4088.939	-80.5
4091.38	-80.5
4093.819	-80.5
4096.257	-84.5
4098.693	-84.5
4101.127	-84.5
4103.559	-83.5
4105.989	-50.5
4108.418	-53.5
4110.845	-46.5
4113.27	-46.5
4115.694	-40.5
4118.115	-33.5
4120.535	-82.5
4122.954	-80.5
4125.37	-77.5
4127.785	-77.5
4130.198	-81.5
4132.609	-76.5
4135.019	-84.5
4137.427	-84.5
4139.833	-84.5
4142.237	-84.5
