Data from 100CFU2_A_RamanShift_1.txt Node
Date: Thu Jan 26 10:52:08 IST 2017
User: aro
Spectrometer: QEPB0276
Trigger mode: 0
Integration Time (sec): 5.000000E0
Scans to average: 1
Electric dark correction enabled: true
Nonlinearity correction enabled: false
Boxcar width: 0
XAxis mode: Raman Shifts
Number of Pixels in Spectrum: 1044
>>>>>Begin Spectral Data<<<<<
160.701	-39.25
166.742	-0.25
172.777	107.75
178.805	442.75
184.826	1208.75
190.841	2436.75
196.849	3739.75
202.85	4570.75
208.845	4714.75
214.833	4521.75
220.815	4373.75
226.789	4277.75
232.758	4179.75
238.719	4052.75
244.674	3885.75
250.623	3769.75
256.565	3585.75
262.5	3450.75
268.429	3286.75
274.351	3183.75
280.267	3052.75
286.176	2976.75
292.079	2868.75
297.975	2792.75
303.865	2704.75
309.748	2637.75
315.625	2581.75
321.495	2550.75
327.359	2507.75
333.217	2500.75
339.068	2477.75
344.912	2442.75
350.751	2437.75
356.583	2448.75
362.408	2435.75
368.227	2442.75
374.04	2444.75
379.847	2452.75
385.647	2452.75
391.44	2474.75
397.228	2485.75
403.009	2503.75
408.784	2507.75
414.553	2524.75
420.315	2537.75
426.071	2526.75
431.821	2516.75
437.565	2514.75
443.302	2526.75
449.033	2513.75
454.758	2493.75
460.477	2515.75
466.189	2489.75
471.896	2480.75
477.596	2468.75
483.29	2433.75
488.978	2436.75
494.66	2412.75
500.335	2406.75
506.005	2354.75
511.668	2313.75
517.325	2290.75
522.977	2233.75
528.622	2231.75
534.261	2221.75
539.894	2195.75
545.521	2169.75
551.141	2146.75
556.756	2152.75
562.365	2137.75
567.968	2122.75
573.565	2089.75
579.155	2072.75
584.74	2105.75
590.319	2075.75
595.892	2061.75
601.459	2043.75
607.02	2041.75
612.575	2039.75
618.124	2011.75
623.667	1993.75
629.204	1978.75
634.735	1950.75
640.261	1948.75
645.781	1935.75
651.294	1925.75
656.802	1918.75
662.304	1921.75
667.8	1909.75
673.29	1899.75
678.775	1902.75
684.254	1889.75
689.726	1890.75
695.193	1878.75
700.655	1884.75
706.11	1842.75
711.56	1841.75
717.004	1837.75
722.442	1817.75
727.874	1821.75
733.301	1809.75
738.722	1789.75
744.137	1792.75
749.547	1773.75
754.951	1804.75
760.349	1771.75
765.741	1774.75
771.128	1755.75
776.509	1767.75
781.885	1794.75
787.254	1788.75
792.618	1780.75
797.977	1752.75
803.33	1737.75
808.677	1732.75
814.019	1725.75
819.355	1706.75
824.686	1687.75
830.011	1666.75
835.33	1670.75
840.644	1668.75
845.952	1664.75
851.255	1660.75
856.552	1658.75
861.844	1660.75
867.13	1634.75
872.41	1623.75
877.686	1623.75
882.955	1594.75
888.219	1571.75
893.478	1553.75
898.731	1519.75
903.979	1535.75
909.221	1509.75
914.458	1503.75
919.69	1497.75
924.916	1493.75
930.136	1487.75
935.351	1480.75
940.561	1484.75
945.766	1502.75
950.965	1477.75
956.158	1465.75
961.347	1448.75
966.529	1441.75
971.707	1415.75
976.879	1392.75
982.046	1391.75
987.208	1374.75
992.364	1390.75
997.515	1403.75
1002.66	1413.75
1007.801	1403.75
1012.936	1423.75
1018.066	1425.75
1023.19	1435.75
1028.309	1455.75
1033.423	1436.75
1038.532	1449.75
1043.636	1408.75
1048.734	1404.75
1053.827	1403.75
1058.915	1380.75
1063.998	1365.75
1069.075	1373.75
1074.147	1371.75
1079.214	1387.75
1084.276	1399.75
1089.333	1394.75
1094.385	1412.75
1099.431	1435.75
1104.472	1423.75
1109.509	1419.75
1114.54	1400.75
1119.565	1382.75
1124.586	1368.75
1129.602	1349.75
1134.613	1345.75
1139.618	1358.75
1144.619	1347.75
1149.614	1342.75
1154.604	1370.75
1159.589	1369.75
1164.57	1375.75
1169.545	1374.75
1174.515	1384.75
1179.48	1397.75
1184.44	1380.75
1189.395	1374.75
1194.345	1343.75
1199.29	1341.75
1204.23	1342.75
1209.165	1367.75
1214.095	1372.75
1219.021	1390.75
1223.941	1379.75
1228.856	1396.75
1233.766	1403.75
1238.672	1392.75
1243.572	1391.75
1248.467	1377.75
1253.358	1384.75
1258.244	1339.75
1263.124	1318.75
1268	1317.75
1272.871	1311.75
1277.737	1295.75
1282.599	1301.75
1287.455	1304.75
1292.306	1301.75
1297.153	1327.75
1301.995	1345.75
1306.832	1355.75
1311.664	1341.75
1316.491	1334.75
1321.314	1329.75
1326.132	1333.75
1330.945	1305.75
1335.753	1296.75
1340.556	1279.75
1345.354	1265.75
1350.148	1263.75
1354.937	1267.75
1359.722	1259.75
1364.501	1235.75
1369.276	1224.75
1374.046	1222.75
1378.811	1198.75
1383.572	1193.75
1388.327	1196.75
1393.079	1200.75
1397.825	1186.75
1402.567	1193.75
1407.304	1172.75
1412.036	1176.75
1416.764	1168.75
1421.487	1167.75
1426.205	1177.75
1430.919	1189.75
1435.628	1208.75
1440.333	1221.75
1445.032	1220.75
1449.727	1226.75
1454.418	1247.75
1459.104	1238.75
1463.785	1222.75
1468.462	1218.75
1473.134	1208.75
1477.802	1191.75
1482.465	1175.75
1487.123	1188.75
1491.777	1178.75
1496.426	1177.75
1501.071	1193.75
1505.711	1202.75
1510.347	1212.75
1514.978	1226.75
1519.604	1227.75
1524.226	1233.75
1528.844	1236.75
1533.457	1240.75
1538.065	1233.75
1542.669	1241.75
1547.269	1225.75
1551.864	1232.75
1556.454	1239.75
1561.041	1241.75
1565.622	1250.75
1570.199	1258.75
1574.772	1283.75
1579.34	1308.75
1583.904	1322.75
1588.464	1351.75
1593.019	1355.75
1597.569	1368.75
1602.115	1383.75
1606.657	1400.75
1611.195	1401.75
1615.728	1414.75
1620.256	1431.75
1624.78	1451.75
1629.3	1468.75
1633.816	1475.75
1638.327	1511.75
1642.834	1513.75
1647.336	1545.75
1651.834	1527.75
1656.328	1527.75
1660.817	1532.75
1665.302	1483.75
1669.783	1482.75
1674.259	1453.75
1678.732	1406.75
1683.199	1352.75
1687.663	1316.75
1692.122	1274.75
1696.577	1238.75
1701.028	1179.75
1705.474	1130.75
1709.917	1094.75
1714.355	1091.75
1718.788	1078.75
1723.218	1063.75
1727.643	1050.75
1732.064	1013.75
1736.481	1007.75
1740.893	972.75
1745.301	959.75
1749.705	934.75
1754.105	917.75
1758.501	904.75
1762.893	876.75
1767.28	863.75
1771.663	881.75
1776.042	858.75
1780.417	856.75
1784.787	862.75
1789.154	860.75
1793.516	856.75
1797.874	861.75
1802.228	858.75
1806.578	852.75
1810.924	819.75
1815.266	815.75
1819.603	816.75
1823.937	793.75
1828.266	794.75
1832.591	778.75
1836.913	786.75
1841.23	798.75
1845.543	794.75
1849.852	779.75
1854.156	798.75
1858.457	790.75
1862.754	790.75
1867.047	793.75
1871.335	801.75
1875.62	808.75
1879.9	807.75
1884.177	795.75
1888.449	804.75
1892.718	801.75
1896.982	793.75
1901.243	794.75
1905.499	785.75
1909.752	787.75
1914	778.75
1918.245	787.75
1922.485	782.75
1926.722	781.75
1930.954	788.75
1935.183	796.75
1939.408	793.75
1943.628	785.75
1947.845	791.75
1952.058	800.75
1956.267	786.75
1960.472	772.75
1964.673	759.75
1968.87	760.75
1973.063	746.75
1977.252	745.75
1981.438	758.75
1985.619	750.75
1989.797	750.75
1993.971	749.75
1998.14	741.75
2002.306	749.75
2006.469	760.75
2010.627	767.75
2014.781	763.75
2018.932	753.75
2023.078	747.75
2027.221	745.75
2031.36	752.75
2035.495	738.75
2039.627	732.75
2043.754	738.75
2047.878	739.75
2051.998	727.75
2056.114	732.75
2060.226	728.75
2064.334	733.75
2068.439	740.75
2072.54	744.75
2076.637	749.75
2080.73	754.75
2084.82	751.75
2088.906	757.75
2092.988	746.75
2097.066	748.75
2101.14	739.75
2105.211	735.75
2109.278	727.75
2113.342	720.75
2117.401	725.75
2121.457	712.75
2125.509	719.75
2129.558	703.75
2133.602	708.75
2137.643	702.75
2141.681	683.75
2145.714	695.75
2149.744	704.75
2153.77	697.75
2157.793	684.75
2161.812	687.75
2165.827	677.75
2169.838	671.75
2173.846	647.75
2177.851	642.75
2181.851	653.75
2185.848	627.75
2189.841	630.75
2193.831	626.75
2197.817	613.75
2201.799	603.75
2205.778	612.75
2209.753	613.75
2213.725	611.75
2217.693	608.75
2221.657	604.75
2225.618	606.75
2229.575	606.75
2233.529	596.75
2237.479	586.75
2241.425	587.75
2245.368	588.75
2249.307	580.75
2253.243	571.75
2257.175	564.75
2261.104	547.75
2265.029	550.75
2268.95	538.75
2272.868	527.75
2276.783	517.75
2280.694	522.75
2284.601	517.75
2288.505	507.75
2292.405	492.75
2296.302	496.75
2300.195	483.75
2304.085	485.75
2307.971	476.75
2311.854	473.75
2315.734	466.75
2319.609	456.75
2323.482	444.75
2327.351	447.75
2331.216	447.75
2335.078	429.75
2338.937	421.75
2342.792	427.75
2346.643	434.75
2350.492	434.75
2354.336	427.75
2358.178	435.75
2362.015	424.75
2365.85	426.75
2369.681	423.75
2373.508	430.75
2377.333	434.75
2381.153	437.75
2384.971	426.75
2388.785	434.75
2392.595	427.75
2396.402	432.75
2400.206	424.75
2404.007	421.75
2407.804	413.75
2411.597	413.75
2415.388	413.75
2419.174	417.75
2422.958	412.75
2426.738	402.75
2430.515	403.75
2434.289	407.75
2438.059	403.75
2441.825	408.75
2445.589	402.75
2449.349	400.75
2453.106	389.75
2456.859	395.75
2460.61	380.75
2464.356	386.75
2468.1	379.75
2471.84	380.75
2475.577	374.75
2479.311	378.75
2483.041	378.75
2486.768	373.75
2490.492	378.75
2494.213	369.75
2497.93	374.75
2501.644	374.75
2505.355	375.75
2509.062	371.75
2512.766	380.75
2516.467	368.75
2520.165	367.75
2523.859	363.75
2527.551	367.75
2531.239	356.75
2534.923	355.75
2538.605	348.75
2542.283	349.75
2545.958	349.75
2549.63	346.75
2553.299	344.75
2556.964	336.75
2560.626	342.75
2564.285	347.75
2567.941	334.75
2571.594	334.75
2575.243	323.75
2578.89	327.75
2582.533	327.75
2586.173	331.75
2589.809	317.75
2593.443	313.75
2597.073	310.75
2600.701	312.75
2604.325	309.75
2607.946	312.75
2611.564	311.75
2615.178	312.75
2618.79	306.75
2622.398	308.75
2626.004	304.75
2629.606	299.75
2633.205	296.75
2636.801	295.75
2640.394	289.75
2643.983	282.75
2647.57	289.75
2651.153	296.75
2654.734	282.75
2658.311	285.75
2661.885	276.75
2665.456	279.75
2669.025	271.75
2672.589	271.75
2676.151	261.75
2679.71	258.75
2683.266	262.75
2686.819	265.75
2690.368	261.75
2693.915	262.75
2697.458	253.75
2700.999	257.75
2704.536	247.75
2708.071	246.75
2711.602	245.75
2715.13	239.75
2718.656	246.75
2722.178	234.75
2725.697	239.75
2729.214	240.75
2732.727	251.75
2736.237	236.75
2739.744	243.75
2743.249	241.75
2746.75	244.75
2750.248	247.75
2753.743	245.75
2757.236	250.75
2760.725	240.75
2764.211	232.75
2767.695	239.75
2771.175	232.75
2774.652	232.75
2778.127	228.75
2781.598	230.75
2785.067	227.75
2788.532	230.75
2791.995	230.75
2795.455	231.75
2798.911	224.75
2802.365	226.75
2805.816	228.75
2809.264	231.75
2812.709	232.75
2816.151	223.75
2819.59	237.75
2823.026	241.75
2826.46	236.75
2829.89	236.75
2833.318	228.75
2836.742	239.75
2840.164	229.75
2843.583	238.75
2846.999	240.75
2850.412	243.75
2853.822	238.75
2857.229	243.75
2860.634	248.75
2864.035	244.75
2867.434	253.75
2870.83	255.75
2874.223	255.75
2877.613	265.75
2881	267.75
2884.385	266.75
2887.766	268.75
2891.145	250.75
2894.521	256.75
2897.894	258.75
2901.264	264.75
2904.631	273.75
2907.996	268.75
2911.358	272.75
2914.717	276.75
2918.073	275.75
2921.426	274.75
2924.777	277.75
2928.124	283.75
2931.469	290.75
2934.811	285.75
2938.15	305.75
2941.487	299.75
2944.821	300.75
2948.152	315.75
2951.48	317.75
2954.805	319.75
2958.128	313.75
2961.447	326.75
2964.765	338.75
2968.079	331.75
2971.39	338.75
2974.699	347.75
2978.005	362.75
2981.308	359.75
2984.609	376.75
2987.907	387.75
2991.202	393.75
2994.494	402.75
2997.784	411.75
3001.07	421.75
3004.355	438.75
3007.636	438.75
3010.915	453.75
3014.191	456.75
3017.464	481.75
3020.734	470.75
3024.002	484.75
3027.267	487.75
3030.53	488.75
3033.789	502.75
3037.046	514.75
3040.301	528.75
3043.552	536.75
3046.801	550.75
3050.048	559.75
3053.291	581.75
3056.532	602.75
3059.771	610.75
3063.006	640.75
3066.239	646.75
3069.469	667.75
3072.697	688.75
3075.922	708.75
3079.144	717.75
3082.364	736.75
3085.581	752.75
3088.795	772.75
3092.007	785.75
3095.216	809.75
3098.423	832.75
3101.627	850.75
3104.828	859.75
3108.026	878.75
3111.222	894.75
3114.416	918.75
3117.607	948.75
3120.795	961.75
3123.98	966.75
3127.163	1002.75
3130.344	1024.75
3133.521	1057.75
3136.696	1071.75
3139.869	1079.75
3143.039	1109.75
3146.206	1108.75
3149.371	1140.75
3152.533	1152.75
3155.693	1159.75
3158.85	1170.75
3162.005	1151.75
3165.157	1167.75
3168.306	1189.75
3171.453	1188.75
3174.597	1190.75
3177.739	1187.75
3180.878	1186.75
3184.014	1188.75
3187.149	1193.75
3190.28	1185.75
3193.409	1199.75
3196.536	1213.75
3199.659	1200.75
3202.781	1204.75
3205.9	1219.75
3209.016	1220.75
3212.13	1221.75
3215.241	1211.75
3218.35	1192.75
3221.456	1174.75
3224.56	1188.75
3227.661	1171.75
3230.76	1150.75
3233.856	1148.75
3236.95	1135.75
3240.041	1106.75
3243.13	1105.75
3246.216	1100.75
3249.3	1102.75
3252.382	1097.75
3255.46	1093.75
3258.537	1100.75
3261.611	1079.75
3264.682	1080.75
3267.751	1093.75
3270.818	1075.75
3273.882	1066.75
3276.943	1044.75
3280.002	1060.75
3283.059	1041.75
3286.113	1024.75
3289.165	1012.75
3292.214	981.75
3295.261	985.75
3298.306	956.75
3301.348	964.75
3304.387	961.75
3307.425	926.75
3310.459	923.75
3313.492	907.75
3316.521	891.75
3319.549	884.75
3322.574	881.75
3325.597	864.75
3328.617	868.75
3331.635	854.75
3334.65	861.75
3337.663	847.75
3340.674	856.75
3343.682	849.75
3346.688	837.75
3349.691	828.75
3352.692	821.75
3355.691	806.75
3358.687	817.75
3361.681	813.75
3364.673	796.75
3367.662	786.75
3370.649	789.75
3373.633	766.75
3376.615	752.75
3379.595	752.75
3382.572	743.75
3385.547	733.75
3388.52	732.75
3391.49	698.75
3394.458	694.75
3397.424	680.75
3400.387	685.75
3403.348	662.75
3406.307	659.75
3409.263	665.75
3412.217	654.75
3415.168	651.75
3418.118	636.75
3421.065	624.75
3424.009	609.75
3426.951	616.75
3429.891	601.75
3432.829	591.75
3435.764	577.75
3438.697	572.75
3441.628	562.75
3444.557	550.75
3447.483	523.75
3450.407	511.75
3453.328	499.75
3456.247	481.75
3459.164	467.75
3462.079	452.75
3464.991	435.75
3467.902	419.75
3470.809	409.75
3473.715	398.75
3476.618	393.75
3479.519	381.75
3482.418	364.75
3485.315	357.75
3488.209	341.75
3491.101	337.75
3493.99	333.75
3496.878	303.75
3499.763	307.75
3502.646	293.75
3505.527	286.75
3508.405	268.75
3511.281	255.75
3514.155	247.75
3517.027	239.75
3519.897	226.75
3522.764	216.75
3525.629	202.75
3528.492	191.75
3531.352	176.75
3534.211	164.75
3537.067	159.75
3539.921	153.75
3542.773	135.75
3545.622	128.75
3548.469	121.75
3551.315	112.75
3554.157	99.75
3556.998	91.75
3559.837	85.75
3562.673	83.75
3565.507	78.75
3568.339	72.75
3571.169	67.75
3573.996	61.75
3576.822	54.75
3579.645	46.75
3582.466	44.75
3585.285	41.75
3588.101	37.75
3590.916	32.75
3593.728	26.75
3596.538	14.75
3599.346	8.75
3602.152	-0.25
3604.956	2.75
3607.757	-4.25
3610.556	-4.25
3613.354	-9.25
3616.149	-16.25
3618.942	-14.25
3621.732	-23.25
3624.521	-23.25
3627.307	-24.25
3630.092	-28.25
3632.874	-29.25
3635.654	-37.25
3638.432	-43.25
3641.208	-42.25
3643.982	-43.25
3646.753	-46.25
3649.523	-44.25
3652.29	-47.25
3655.055	-56.25
3657.818	-53.25
3660.579	-55.25
3663.338	-63.25
3666.095	-64.25
3668.849	-70.25
3671.602	-66.25
3674.352	-74.25
3677.101	-67.25
3679.847	-77.25
3682.591	-78.25
3685.333	-76.25
3688.073	-76.25
3690.811	-81.25
3693.547	-79.25
3696.281	-84.25
3699.013	-90.25
3701.742	-89.25
3704.47	-88.25
3707.195	-91.25
3709.919	-91.25
3712.64	-94.25
3715.359	-88.25
3718.076	-94.25
3720.792	-92.25
3723.505	-92.25
3726.216	-95.25
3728.925	-96.25
3731.632	-97.25
3734.336	-102.25
3737.039	-100.25
3739.74	-101.25
3742.439	-100.25
3745.136	-101.25
3747.83	-102.25
3750.523	-103.25
3753.213	-97.25
3755.902	-100.25
3758.589	-97.25
3761.273	-101.25
3763.956	-108.25
3766.636	-103.25
3769.315	-106.25
3771.991	-105.25
3774.665	-107.25
3777.338	-108.25
3780.008	-107.25
3782.677	-106.25
3785.343	-107.25
3788.007	-107.25
3790.67	-109.25
3793.33	-111.25
3795.989	-114.25
3798.645	-111.25
3801.299	-113.25
3803.952	-112.25
3806.602	-107.25
3809.251	-110.25
3811.897	-110.25
3814.542	-117.25
3817.184	-111.25
3819.825	-109.25
3822.463	-111.25
3825.1	-113.25
3827.735	-114.25
3830.367	-113.25
3832.998	-113.25
3835.627	-120.25
3838.253	-116.25
3840.878	-120.25
3843.501	-115.25
3846.122	-117.25
3848.741	-113.25
3851.358	-115.25
3853.973	-110.25
3856.586	-115.25
3859.197	-120.25
3861.806	-117.25
3864.414	-118.25
3867.019	-118.25
3869.622	-116.25
3872.224	-115.25
3874.823	-114.25
3877.421	-107.25
3880.016	-111.25
3882.61	-105.25
3885.202	-109.25
3887.792	-110.25
3890.38	-114.25
3892.966	-116.25
3895.55	-120.25
3898.132	-121.25
3900.713	-121.25
3903.291	-114.25
3905.868	-113.25
3908.442	-117.25
3911.015	-117.25
3913.586	-117.25
3916.155	-119.25
3918.722	-118.25
3921.287	-122.25
3923.85	-119.25
3926.411	-118.25
3928.971	-123.25
3931.528	-124.25
3934.084	-123.25
3936.638	-120.25
3939.19	-118.25
3941.74	-115.25
3944.288	-121.25
3946.834	-120.25
3949.378	-116.25
3951.921	-119.25
3954.462	-119.25
3957	-121.25
3959.537	-119.25
3962.072	-121.25
3964.606	-121.25
3967.137	-118.25
3969.667	-121.25
3972.194	-118.25
3974.72	-119.25
3977.244	-118.25
3979.766	-121.25
3982.286	-120.25
3984.805	-121.25
3987.321	-120.25
3989.836	-117.25
3992.349	-119.25
3994.86	-116.25
3997.369	-123.25
3999.877	-117.25
4002.382	-114.25
4004.886	-120.25
4007.388	-120.25
4009.888	-119.25
4012.386	-118.25
4014.883	-119.25
4017.377	-117.25
4019.87	-123.25
4022.361	-122.25
4024.85	-120.25
4027.338	-120.25
4029.823	-122.25
4032.307	-122.25
4034.789	-120.25
4037.269	-118.25
4039.747	-121.25
4042.224	-114.25
4044.699	-121.25
4047.172	-120.25
4049.643	-120.25
4052.112	-120.25
4054.58	-120.25
4057.046	-120.25
4059.51	-119.25
4061.972	-122.25
4064.432	-123.25
4066.891	-120.25
4069.348	-119.25
4071.803	-116.25
4074.256	-118.25
4076.708	-117.25
4079.158	-122.25
4081.606	-121.25
4084.052	-118.25
4086.497	-118.25
4088.939	-117.25
4091.38	-118.25
4093.819	-120.25
4096.257	-127.25
4098.693	-125.25
4101.127	-128.25
4103.559	-124.25
4105.989	-80.25
4108.418	-77.25
4110.845	-73.25
4113.27	-69.25
4115.694	-63.25
4118.115	-55.25
4120.535	-123.25
4122.954	-119.25
4125.37	-116.25
4127.785	-117.25
4130.198	-117.25
4132.609	-118.25
4135.019	-122.25
4137.427	-128.25
4139.833	-132.25
4142.237	-128.25
