Data from 100CFU3_A_RamanShift_1.txt Node
Date: Thu Jan 26 10:54:13 IST 2017
User: aro
Spectrometer: QEPB0276
Trigger mode: 0
Integration Time (sec): 5.000000E0
Scans to average: 1
Electric dark correction enabled: true
Nonlinearity correction enabled: false
Boxcar width: 0
XAxis mode: Raman Shifts
Number of Pixels in Spectrum: 1044
>>>>>Begin Spectral Data<<<<<
160.701	-34.25
166.742	-0.25
172.777	98.75
178.805	394.75
184.826	1094.75
190.841	2222.75
196.849	3409.75
202.85	4095.75
208.845	4235.75
214.833	4124.75
220.815	3971.75
226.789	3838.75
232.758	3730.75
238.719	3607.75
244.674	3487.75
250.623	3329.75
256.565	3208.75
262.5	3027.75
268.429	2888.75
274.351	2771.75
280.267	2682.75
286.176	2583.75
292.079	2480.75
297.975	2417.75
303.865	2326.75
309.748	2291.75
315.625	2239.75
321.495	2183.75
327.359	2165.75
333.217	2111.75
339.068	2103.75
344.912	2096.75
350.751	2093.75
356.583	2074.75
362.408	2076.75
368.227	2087.75
374.04	2094.75
379.847	2101.75
385.647	2100.75
391.44	2135.75
397.228	2116.75
403.009	2137.75
408.784	2153.75
414.553	2162.75
420.315	2170.75
426.071	2166.75
431.821	2176.75
437.565	2143.75
443.302	2167.75
449.033	2137.75
454.758	2135.75
460.477	2133.75
466.189	2104.75
471.896	2098.75
477.596	2072.75
483.29	2059.75
488.978	2075.75
494.66	2052.75
500.335	2033.75
506.005	1980.75
511.668	1952.75
517.325	1919.75
522.977	1887.75
528.622	1868.75
534.261	1850.75
539.894	1830.75
545.521	1807.75
551.141	1804.75
556.756	1803.75
562.365	1787.75
567.968	1763.75
573.565	1743.75
579.155	1753.75
584.74	1729.75
590.319	1725.75
595.892	1709.75
601.459	1685.75
607.02	1697.75
612.575	1677.75
618.124	1643.75
623.667	1632.75
629.204	1627.75
634.735	1619.75
640.261	1587.75
645.781	1579.75
651.294	1578.75
656.802	1580.75
662.304	1577.75
667.8	1570.75
673.29	1568.75
678.775	1551.75
684.254	1556.75
689.726	1528.75
695.193	1511.75
700.655	1508.75
706.11	1514.75
711.56	1497.75
717.004	1487.75
722.442	1487.75
727.874	1469.75
733.301	1457.75
738.722	1464.75
744.137	1453.75
749.547	1460.75
754.951	1447.75
760.349	1432.75
765.741	1422.75
771.128	1449.75
776.509	1435.75
781.885	1445.75
787.254	1444.75
792.618	1427.75
797.977	1427.75
803.33	1392.75
808.677	1392.75
814.019	1379.75
819.355	1370.75
824.686	1357.75
830.011	1337.75
835.33	1334.75
840.644	1333.75
845.952	1333.75
851.255	1327.75
856.552	1313.75
861.844	1318.75
867.13	1308.75
872.41	1287.75
877.686	1279.75
882.955	1260.75
888.219	1246.75
893.478	1224.75
898.731	1201.75
903.979	1181.75
909.221	1160.75
914.458	1174.75
919.69	1167.75
924.916	1172.75
930.136	1143.75
935.351	1151.75
940.561	1145.75
945.766	1158.75
950.965	1141.75
956.158	1134.75
961.347	1106.75
966.529	1112.75
971.707	1086.75
976.879	1071.75
982.046	1066.75
987.208	1058.75
992.364	1064.75
997.515	1062.75
1002.66	1069.75
1007.801	1081.75
1012.936	1095.75
1018.066	1098.75
1023.19	1110.75
1028.309	1103.75
1033.423	1103.75
1038.532	1099.75
1043.636	1092.75
1048.734	1087.75
1053.827	1078.75
1058.915	1059.75
1063.998	1053.75
1069.075	1055.75
1074.147	1046.75
1079.214	1046.75
1084.276	1077.75
1089.333	1075.75
1094.385	1091.75
1099.431	1090.75
1104.472	1089.75
1109.509	1077.75
1114.54	1061.75
1119.565	1059.75
1124.586	1051.75
1129.602	1039.75
1134.613	1025.75
1139.618	1019.75
1144.619	1024.75
1149.614	1027.75
1154.604	1033.75
1159.589	1033.75
1164.57	1036.75
1169.545	1048.75
1174.515	1048.75
1179.48	1050.75
1184.44	1040.75
1189.395	1037.75
1194.345	1021.75
1199.29	1031.75
1204.23	1020.75
1209.165	1025.75
1214.095	1031.75
1219.021	1047.75
1223.941	1055.75
1228.856	1069.75
1233.766	1055.75
1238.672	1078.75
1243.572	1068.75
1248.467	1067.75
1253.358	1037.75
1258.244	1037.75
1263.124	993.75
1268	1004.75
1272.871	994.75
1277.737	981.75
1282.599	986.75
1287.455	981.75
1292.306	996.75
1297.153	1002.75
1301.995	1015.75
1306.832	1015.75
1311.664	1008.75
1316.491	1028.75
1321.314	997.75
1326.132	996.75
1330.945	970.75
1335.753	965.75
1340.556	960.75
1345.354	954.75
1350.148	944.75
1354.937	941.75
1359.722	935.75
1364.501	914.75
1369.276	917.75
1374.046	922.75
1378.811	915.75
1383.572	915.75
1388.327	909.75
1393.079	905.75
1397.825	906.75
1402.567	891.75
1407.304	888.75
1412.036	891.75
1416.764	885.75
1421.487	888.75
1426.205	874.75
1430.919	896.75
1435.628	912.75
1440.333	925.75
1445.032	920.75
1449.727	929.75
1454.418	917.75
1459.104	940.75
1463.785	913.75
1468.462	901.75
1473.134	909.75
1477.802	908.75
1482.465	894.75
1487.123	892.75
1491.777	895.75
1496.426	893.75
1501.071	913.75
1505.711	907.75
1510.347	923.75
1514.978	946.75
1519.604	942.75
1524.226	949.75
1528.844	933.75
1533.457	946.75
1538.065	942.75
1542.669	933.75
1547.269	945.75
1551.864	946.75
1556.454	946.75
1561.041	973.75
1565.622	966.75
1570.199	988.75
1574.772	1010.75
1579.34	1027.75
1583.904	1034.75
1588.464	1048.75
1593.019	1072.75
1597.569	1097.75
1602.115	1101.75
1606.657	1094.75
1611.195	1133.75
1615.728	1125.75
1620.256	1154.75
1624.78	1164.75
1629.3	1167.75
1633.816	1204.75
1638.327	1203.75
1642.834	1231.75
1647.336	1245.75
1651.834	1248.75
1656.328	1236.75
1660.817	1219.75
1665.302	1198.75
1669.783	1191.75
1674.259	1146.75
1678.732	1109.75
1683.199	1059.75
1687.663	1027.75
1692.122	994.75
1696.577	952.75
1701.028	929.75
1705.474	871.75
1709.917	851.75
1714.355	824.75
1718.788	826.75
1723.218	808.75
1727.643	794.75
1732.064	774.75
1736.481	753.75
1740.893	731.75
1745.301	715.75
1749.705	702.75
1754.105	680.75
1758.501	671.75
1762.893	652.75
1767.28	645.75
1771.663	641.75
1776.042	641.75
1780.417	630.75
1784.787	650.75
1789.154	631.75
1793.516	632.75
1797.874	634.75
1802.228	620.75
1806.578	610.75
1810.924	601.75
1815.266	606.75
1819.603	600.75
1823.937	583.75
1828.266	575.75
1832.591	590.75
1836.913	560.75
1841.23	570.75
1845.543	579.75
1849.852	581.75
1854.156	572.75
1858.457	564.75
1862.754	573.75
1867.047	585.75
1871.335	576.75
1875.62	582.75
1879.9	571.75
1884.177	573.75
1888.449	576.75
1892.718	575.75
1896.982	568.75
1901.243	583.75
1905.499	571.75
1909.752	575.75
1914	559.75
1918.245	566.75
1922.485	573.75
1926.722	571.75
1930.954	567.75
1935.183	563.75
1939.408	582.75
1943.628	572.75
1947.845	572.75
1952.058	575.75
1956.267	578.75
1960.472	576.75
1964.673	563.75
1968.87	555.75
1973.063	543.75
1977.252	556.75
1981.438	546.75
1985.619	547.75
1989.797	545.75
1993.971	551.75
1998.14	559.75
2002.306	564.75
2006.469	559.75
2010.627	558.75
2014.781	556.75
2018.932	560.75
2023.078	557.75
2027.221	561.75
2031.36	548.75
2035.495	552.75
2039.627	542.75
2043.754	539.75
2047.878	545.75
2051.998	548.75
2056.114	542.75
2060.226	537.75
2064.334	535.75
2068.439	545.75
2072.54	556.75
2076.637	553.75
2080.73	558.75
2084.82	572.75
2088.906	565.75
2092.988	555.75
2097.066	564.75
2101.14	544.75
2105.211	543.75
2109.278	546.75
2113.342	534.75
2117.401	547.75
2121.457	535.75
2125.509	535.75
2129.558	534.75
2133.602	533.75
2137.643	530.75
2141.681	530.75
2145.714	522.75
2149.744	520.75
2153.77	521.75
2157.793	506.75
2161.812	503.75
2165.827	505.75
2169.838	490.75
2173.846	483.75
2177.851	476.75
2181.851	476.75
2185.848	459.75
2189.841	458.75
2193.831	458.75
2197.817	453.75
2201.799	453.75
2205.778	454.75
2209.753	469.75
2213.725	460.75
2217.693	458.75
2221.657	452.75
2225.618	446.75
2229.575	444.75
2233.529	439.75
2237.479	437.75
2241.425	431.75
2245.368	425.75
2249.307	421.75
2253.243	414.75
2257.175	418.75
2261.104	411.75
2265.029	393.75
2268.95	389.75
2272.868	386.75
2276.783	380.75
2280.694	385.75
2284.601	374.75
2288.505	369.75
2292.405	374.75
2296.302	362.75
2300.195	361.75
2304.085	354.75
2307.971	344.75
2311.854	347.75
2315.734	336.75
2319.609	329.75
2323.482	315.75
2327.351	320.75
2331.216	326.75
2335.078	317.75
2338.937	318.75
2342.792	316.75
2346.643	314.75
2350.492	317.75
2354.336	313.75
2358.178	312.75
2362.015	306.75
2365.85	312.75
2369.681	309.75
2373.508	319.75
2377.333	312.75
2381.153	309.75
2384.971	315.75
2388.785	306.75
2392.595	298.75
2396.402	303.75
2400.206	306.75
2404.007	301.75
2407.804	298.75
2411.597	299.75
2415.388	291.75
2419.174	304.75
2422.958	292.75
2426.738	298.75
2430.515	298.75
2434.289	296.75
2438.059	294.75
2441.825	299.75
2445.589	285.75
2449.349	288.75
2453.106	274.75
2456.859	281.75
2460.61	276.75
2464.356	280.75
2468.1	267.75
2471.84	265.75
2475.577	268.75
2479.311	264.75
2483.041	266.75
2486.768	272.75
2490.492	269.75
2494.213	273.75
2497.93	268.75
2501.644	265.75
2505.355	261.75
2509.062	270.75
2512.766	267.75
2516.467	267.75
2520.165	263.75
2523.859	255.75
2527.551	262.75
2531.239	252.75
2534.923	255.75
2538.605	251.75
2542.283	244.75
2545.958	245.75
2549.63	244.75
2553.299	235.75
2556.964	239.75
2560.626	235.75
2564.285	244.75
2567.941	241.75
2571.594	241.75
2575.243	238.75
2578.89	231.75
2582.533	229.75
2586.173	234.75
2589.809	230.75
2593.443	228.75
2597.073	224.75
2600.701	226.75
2604.325	217.75
2607.946	217.75
2611.564	220.75
2615.178	218.75
2618.79	208.75
2622.398	217.75
2626.004	209.75
2629.606	216.75
2633.205	207.75
2636.801	212.75
2640.394	207.75
2643.983	194.75
2647.57	203.75
2651.153	202.75
2654.734	203.75
2658.311	197.75
2661.885	198.75
2665.456	187.75
2669.025	192.75
2672.589	190.75
2676.151	182.75
2679.71	184.75
2683.266	180.75
2686.819	181.75
2690.368	185.75
2693.915	179.75
2697.458	176.75
2700.999	172.75
2704.536	173.75
2708.071	172.75
2711.602	170.75
2715.13	169.75
2718.656	172.75
2722.178	173.75
2725.697	165.75
2729.214	168.75
2732.727	174.75
2736.237	175.75
2739.744	171.75
2743.249	169.75
2746.75	169.75
2750.248	176.75
2753.743	170.75
2757.236	166.75
2760.725	154.75
2764.211	160.75
2767.695	165.75
2771.175	167.75
2774.652	160.75
2778.127	166.75
2781.598	166.75
2785.067	161.75
2788.532	172.75
2791.995	162.75
2795.455	171.75
2798.911	166.75
2802.365	165.75
2805.816	177.75
2809.264	169.75
2812.709	169.75
2816.151	165.75
2819.59	164.75
2823.026	172.75
2826.46	166.75
2829.89	173.75
2833.318	174.75
2836.742	168.75
2840.164	168.75
2843.583	166.75
2846.999	178.75
2850.412	181.75
2853.822	185.75
2857.229	183.75
2860.634	192.75
2864.035	194.75
2867.434	197.75
2870.83	198.75
2874.223	196.75
2877.613	198.75
2881	199.75
2884.385	199.75
2887.766	207.75
2891.145	197.75
2894.521	191.75
2897.894	205.75
2901.264	201.75
2904.631	207.75
2907.996	210.75
2911.358	214.75
2914.717	221.75
2918.073	214.75
2921.426	227.75
2924.777	226.75
2928.124	230.75
2931.469	231.75
2934.811	242.75
2938.15	241.75
2941.487	244.75
2944.821	255.75
2948.152	254.75
2951.48	257.75
2954.805	263.75
2958.128	263.75
2961.447	275.75
2964.765	273.75
2968.079	278.75
2971.39	284.75
2974.699	288.75
2978.005	297.75
2981.308	310.75
2984.609	318.75
2987.907	324.75
2991.202	332.75
2994.494	346.75
2997.784	363.75
3001.07	371.75
3004.355	376.75
3007.636	394.75
3010.915	390.75
3014.191	393.75
3017.464	410.75
3020.734	412.75
3024.002	418.75
3027.267	432.75
3030.53	432.75
3033.789	436.75
3037.046	447.75
3040.301	461.75
3043.552	480.75
3046.801	487.75
3050.048	505.75
3053.291	523.75
3056.532	529.75
3059.771	559.75
3063.006	576.75
3066.239	586.75
3069.469	604.75
3072.697	623.75
3075.922	633.75
3079.144	649.75
3082.364	666.75
3085.581	682.75
3088.795	693.75
3092.007	717.75
3095.216	737.75
3098.423	760.75
3101.627	770.75
3104.828	783.75
3108.026	808.75
3111.222	827.75
3114.416	842.75
3117.607	858.75
3120.795	866.75
3123.98	904.75
3127.163	926.75
3130.344	949.75
3133.521	956.75
3136.696	992.75
3139.869	1013.75
3143.039	1025.75
3146.206	1029.75
3149.371	1045.75
3152.533	1043.75
3155.693	1070.75
3158.85	1070.75
3162.005	1079.75
3165.157	1100.75
3168.306	1100.75
3171.453	1107.75
3174.597	1105.75
3177.739	1111.75
3180.878	1099.75
3184.014	1108.75
3187.149	1119.75
3190.28	1119.75
3193.409	1131.75
3196.536	1130.75
3199.659	1119.75
3202.781	1133.75
3205.9	1146.75
3209.016	1146.75
3212.13	1135.75
3215.241	1125.75
3218.35	1120.75
3221.456	1119.75
3224.56	1113.75
3227.661	1076.75
3230.76	1066.75
3233.856	1059.75
3236.95	1058.75
3240.041	1054.75
3243.13	1040.75
3246.216	1031.75
3249.3	1029.75
3252.382	1027.75
3255.46	1005.75
3258.537	1017.75
3261.611	1003.75
3264.682	1001.75
3267.751	996.75
3270.818	991.75
3273.882	979.75
3276.943	971.75
3280.002	973.75
3283.059	970.75
3286.113	966.75
3289.165	948.75
3292.214	940.75
3295.261	923.75
3298.306	904.75
3301.348	899.75
3304.387	877.75
3307.425	859.75
3310.459	853.75
3313.492	855.75
3316.521	833.75
3319.549	822.75
3322.574	810.75
3325.597	817.75
3328.617	805.75
3331.635	804.75
3334.65	809.75
3337.663	791.75
3340.674	795.75
3343.682	780.75
3346.688	784.75
3349.691	787.75
3352.692	772.75
3355.691	770.75
3358.687	773.75
3361.681	745.75
3364.673	752.75
3367.662	740.75
3370.649	730.75
3373.633	716.75
3376.615	723.75
3379.595	704.75
3382.572	682.75
3385.547	684.75
3388.52	670.75
3391.49	664.75
3394.458	653.75
3397.424	642.75
3400.387	637.75
3403.348	631.75
3406.307	614.75
3409.263	618.75
3412.217	613.75
3415.168	603.75
3418.118	596.75
3421.065	592.75
3424.009	578.75
3426.951	567.75
3429.891	566.75
3432.829	558.75
3435.764	542.75
3438.697	521.75
3441.628	520.75
3444.557	503.75
3447.483	499.75
3450.407	475.75
3453.328	466.75
3456.247	453.75
3459.164	432.75
3462.079	425.75
3464.991	409.75
3467.902	408.75
3470.809	391.75
3473.715	382.75
3476.618	356.75
3479.519	357.75
3482.418	340.75
3485.315	341.75
3488.209	323.75
3491.101	317.75
3493.99	304.75
3496.878	283.75
3499.763	289.75
3502.646	264.75
3505.527	266.75
3508.405	247.75
3511.281	236.75
3514.155	230.75
3517.027	219.75
3519.897	212.75
3522.764	202.75
3525.629	186.75
3528.492	176.75
3531.352	166.75
3534.211	154.75
3537.067	151.75
3539.921	137.75
3542.773	129.75
3545.622	118.75
3548.469	113.75
3551.315	107.75
3554.157	98.75
3556.998	87.75
3559.837	84.75
3562.673	75.75
3565.507	68.75
3568.339	59.75
3571.169	58.75
3573.996	56.75
3576.822	49.75
3579.645	47.75
3582.466	43.75
3585.285	34.75
3588.101	35.75
3590.916	26.75
3593.728	24.75
3596.538	10.75
3599.346	8.75
3602.152	2.75
3604.956	5.75
3607.757	-3.25
3610.556	-6.25
3613.354	-9.25
3616.149	-9.25
3618.942	-12.25
3621.732	-11.25
3624.521	-19.25
3627.307	-25.25
3630.092	-21.25
3632.874	-25.25
3635.654	-32.25
3638.432	-34.25
3641.208	-31.25
3643.982	-33.25
3646.753	-43.25
3649.523	-45.25
3652.29	-43.25
3655.055	-48.25
3657.818	-51.25
3660.579	-54.25
3663.338	-55.25
3666.095	-61.25
3668.849	-62.25
3671.602	-65.25
3674.352	-65.25
3677.101	-67.25
3679.847	-64.25
3682.591	-71.25
3685.333	-67.25
3688.073	-68.25
3690.811	-75.25
3693.547	-73.25
3696.281	-74.25
3699.013	-76.25
3701.742	-80.25
3704.47	-81.25
3707.195	-88.25
3709.919	-83.25
3712.64	-86.25
3715.359	-86.25
3718.076	-89.25
3720.792	-88.25
3723.505	-86.25
3726.216	-86.25
3728.925	-85.25
3731.632	-89.25
3734.336	-89.25
3737.039	-92.25
3739.74	-91.25
3742.439	-93.25
3745.136	-93.25
3747.83	-92.25
3750.523	-94.25
3753.213	-87.25
3755.902	-89.25
3758.589	-93.25
3761.273	-96.25
3763.956	-101.25
3766.636	-99.25
3769.315	-101.25
3771.991	-99.25
3774.665	-91.25
3777.338	-98.25
3780.008	-96.25
3782.677	-95.25
3785.343	-96.25
3788.007	-97.25
3790.67	-97.25
3793.33	-98.25
3795.989	-101.25
3798.645	-98.25
3801.299	-102.25
3803.952	-102.25
3806.602	-102.25
3809.251	-98.25
3811.897	-106.25
3814.542	-105.25
3817.184	-100.25
3819.825	-99.25
3822.463	-101.25
3825.1	-103.25
3827.735	-100.25
3830.367	-99.25
3832.998	-102.25
3835.627	-105.25
3838.253	-101.25
3840.878	-108.25
3843.501	-102.25
3846.122	-100.25
3848.741	-102.25
3851.358	-102.25
3853.973	-99.25
3856.586	-108.25
3859.197	-107.25
3861.806	-111.25
3864.414	-108.25
3867.019	-111.25
3869.622	-109.25
3872.224	-108.25
3874.823	-103.25
3877.421	-95.25
3880.016	-103.25
3882.61	-93.25
3885.202	-90.25
3887.792	-99.25
3890.38	-97.25
3892.966	-103.25
3895.55	-104.25
3898.132	-110.25
3900.713	-109.25
3903.291	-104.25
3905.868	-106.25
3908.442	-105.25
3911.015	-108.25
3913.586	-107.25
3916.155	-105.25
3918.722	-113.25
3921.287	-114.25
3923.85	-111.25
3926.411	-110.25
3928.971	-110.25
3931.528	-110.25
3934.084	-110.25
3936.638	-110.25
3939.19	-106.25
3941.74	-101.25
3944.288	-109.25
3946.834	-106.25
3949.378	-108.25
3951.921	-109.25
3954.462	-108.25
3957	-110.25
3959.537	-113.25
3962.072	-112.25
3964.606	-110.25
3967.137	-110.25
3969.667	-110.25
3972.194	-104.25
3974.72	-107.25
3977.244	-108.25
3979.766	-107.25
3982.286	-107.25
3984.805	-109.25
3987.321	-107.25
3989.836	-106.25
3992.349	-109.25
3994.86	-102.25
3997.369	-111.25
3999.877	-105.25
4002.382	-106.25
4004.886	-107.25
4007.388	-107.25
4009.888	-106.25
4012.386	-107.25
4014.883	-108.25
4017.377	-108.25
4019.87	-111.25
4022.361	-111.25
4024.85	-110.25
4027.338	-111.25
4029.823	-110.25
4032.307	-108.25
4034.789	-108.25
4037.269	-108.25
4039.747	-108.25
4042.224	-104.25
4044.699	-105.25
4047.172	-110.25
4049.643	-107.25
4052.112	-108.25
4054.58	-111.25
4057.046	-114.25
4059.51	-107.25
4061.972	-110.25
4064.432	-108.25
4066.891	-110.25
4069.348	-108.25
4071.803	-106.25
4074.256	-109.25
4076.708	-109.25
4079.158	-110.25
4081.606	-110.25
4084.052	-110.25
4086.497	-107.25
4088.939	-108.25
4091.38	-109.25
4093.819	-108.25
4096.257	-114.25
4098.693	-117.25
4101.127	-116.25
4103.559	-112.25
4105.989	-71.25
4108.418	-70.25
4110.845	-70.25
4113.27	-64.25
4115.694	-57.25
4118.115	-50.25
4120.535	-110.25
4122.954	-108.25
4125.37	-106.25
4127.785	-106.25
4130.198	-105.25
4132.609	-107.25
4135.019	-112.25
4137.427	-115.25
4139.833	-117.25
4142.237	-114.25
