Data from 100CFU1_A_RamanShift_1.txt Node
Date: Thu Jan 26 10:50:48 IST 2017
User: aro
Spectrometer: QEPB0276
Trigger mode: 0
Integration Time (sec): 5.000000E0
Scans to average: 1
Electric dark correction enabled: true
Nonlinearity correction enabled: false
Boxcar width: 0
XAxis mode: Raman Shifts
Number of Pixels in Spectrum: 1044
>>>>>Begin Spectral Data<<<<<
160.701	-34.25
166.742	-3.25
172.777	97.75
178.805	412.75
184.826	1124.75
190.841	2276.75
196.849	3593.75
202.85	4359.75
208.845	4406.75
214.833	4248.75
220.815	4018.75
226.789	3950.75
232.758	3848.75
238.719	3701.75
244.674	3580.75
250.623	3429.75
256.565	3258.75
262.5	3130.75
268.429	2965.75
274.351	2873.75
280.267	2780.75
286.176	2664.75
292.079	2578.75
297.975	2485.75
303.865	2398.75
309.748	2358.75
315.625	2315.75
321.495	2254.75
327.359	2210.75
333.217	2201.75
339.068	2199.75
344.912	2159.75
350.751	2167.75
356.583	2149.75
362.408	2170.75
368.227	2149.75
374.04	2153.75
379.847	2169.75
385.647	2166.75
391.44	2201.75
397.228	2193.75
403.009	2221.75
408.784	2229.75
414.553	2236.75
420.315	2237.75
426.071	2228.75
431.821	2225.75
437.565	2250.75
443.302	2230.75
449.033	2226.75
454.758	2223.75
460.477	2212.75
466.189	2195.75
471.896	2183.75
477.596	2180.75
483.29	2169.75
488.978	2152.75
494.66	2138.75
500.335	2108.75
506.005	2086.75
511.668	2032.75
517.325	1998.75
522.977	1961.75
528.622	1946.75
534.261	1908.75
539.894	1908.75
545.521	1904.75
551.141	1869.75
556.756	1872.75
562.365	1860.75
567.968	1856.75
573.565	1825.75
579.155	1821.75
584.74	1826.75
590.319	1799.75
595.892	1780.75
601.459	1777.75
607.02	1772.75
612.575	1745.75
618.124	1730.75
623.667	1701.75
629.204	1705.75
634.735	1691.75
640.261	1685.75
645.781	1669.75
651.294	1648.75
656.802	1648.75
662.304	1634.75
667.8	1643.75
673.29	1633.75
678.775	1615.75
684.254	1607.75
689.726	1596.75
695.193	1613.75
700.655	1593.75
706.11	1584.75
711.56	1562.75
717.004	1563.75
722.442	1559.75
727.874	1531.75
733.301	1532.75
738.722	1529.75
744.137	1536.75
749.547	1532.75
754.951	1512.75
760.349	1498.75
765.741	1508.75
771.128	1499.75
776.509	1516.75
781.885	1515.75
787.254	1496.75
792.618	1497.75
797.977	1496.75
803.33	1472.75
808.677	1468.75
814.019	1443.75
819.355	1438.75
824.686	1428.75
830.011	1411.75
835.33	1409.75
840.644	1398.75
845.952	1389.75
851.255	1400.75
856.552	1379.75
861.844	1376.75
867.13	1365.75
872.41	1354.75
877.686	1349.75
882.955	1330.75
888.219	1300.75
893.478	1299.75
898.731	1284.75
903.979	1253.75
909.221	1247.75
914.458	1234.75
919.69	1202.75
924.916	1233.75
930.136	1242.75
935.351	1222.75
940.561	1224.75
945.766	1217.75
950.965	1200.75
956.158	1208.75
961.347	1175.75
966.529	1167.75
971.707	1154.75
976.879	1150.75
982.046	1127.75
987.208	1137.75
992.364	1119.75
997.515	1146.75
1002.66	1138.75
1007.801	1150.75
1012.936	1142.75
1018.066	1169.75
1023.19	1177.75
1028.309	1179.75
1033.423	1180.75
1038.532	1176.75
1043.636	1152.75
1048.734	1150.75
1053.827	1128.75
1058.915	1125.75
1063.998	1116.75
1069.075	1105.75
1074.147	1109.75
1079.214	1132.75
1084.276	1143.75
1089.333	1146.75
1094.385	1142.75
1099.431	1161.75
1104.472	1146.75
1109.509	1149.75
1114.54	1125.75
1119.565	1118.75
1124.586	1108.75
1129.602	1105.75
1134.613	1090.75
1139.618	1088.75
1144.619	1090.75
1149.614	1102.75
1154.604	1101.75
1159.589	1097.75
1164.57	1119.75
1169.545	1116.75
1174.515	1109.75
1179.48	1114.75
1184.44	1107.75
1189.395	1087.75
1194.345	1072.75
1199.29	1093.75
1204.23	1077.75
1209.165	1094.75
1214.095	1102.75
1219.021	1109.75
1223.941	1123.75
1228.856	1127.75
1233.766	1133.75
1238.672	1122.75
1243.572	1120.75
1248.467	1123.75
1253.358	1103.75
1258.244	1098.75
1263.124	1071.75
1268	1065.75
1272.871	1047.75
1277.737	1044.75
1282.599	1039.75
1287.455	1037.75
1292.306	1038.75
1297.153	1064.75
1301.995	1062.75
1306.832	1073.75
1311.664	1069.75
1316.491	1074.75
1321.314	1069.75
1326.132	1074.75
1330.945	1046.75
1335.753	1035.75
1340.556	1036.75
1345.354	1023.75
1350.148	1019.75
1354.937	996.75
1359.722	995.75
1364.501	980.75
1369.276	976.75
1374.046	956.75
1378.811	954.75
1383.572	949.75
1388.327	970.75
1393.079	970.75
1397.825	954.75
1402.567	949.75
1407.304	944.75
1412.036	935.75
1416.764	939.75
1421.487	944.75
1426.205	936.75
1430.919	945.75
1435.628	962.75
1440.333	984.75
1445.032	980.75
1449.727	975.75
1454.418	989.75
1459.104	979.75
1463.785	994.75
1468.462	978.75
1473.134	956.75
1477.802	957.75
1482.465	963.75
1487.123	950.75
1491.777	948.75
1496.426	963.75
1501.071	977.75
1505.711	959.75
1510.347	970.75
1514.978	989.75
1519.604	988.75
1524.226	994.75
1528.844	1003.75
1533.457	993.75
1538.065	993.75
1542.669	973.75
1547.269	983.75
1551.864	997.75
1556.454	1015.75
1561.041	1012.75
1565.622	1016.75
1570.199	1034.75
1574.772	1039.75
1579.34	1078.75
1583.904	1100.75
1588.464	1111.75
1593.019	1117.75
1597.569	1130.75
1602.115	1138.75
1606.657	1156.75
1611.195	1162.75
1615.728	1174.75
1620.256	1190.75
1624.78	1204.75
1629.3	1223.75
1633.816	1248.75
1638.327	1272.75
1642.834	1299.75
1647.336	1281.75
1651.834	1293.75
1656.328	1288.75
1660.817	1280.75
1665.302	1274.75
1669.783	1239.75
1674.259	1201.75
1678.732	1170.75
1683.199	1123.75
1687.663	1088.75
1692.122	1056.75
1696.577	1004.75
1701.028	959.75
1705.474	918.75
1709.917	896.75
1714.355	887.75
1718.788	862.75
1723.218	858.75
1727.643	827.75
1732.064	823.75
1736.481	807.75
1740.893	771.75
1745.301	761.75
1749.705	738.75
1754.105	722.75
1758.501	694.75
1762.893	688.75
1767.28	691.75
1771.663	682.75
1776.042	677.75
1780.417	676.75
1784.787	675.75
1789.154	670.75
1793.516	675.75
1797.874	679.75
1802.228	675.75
1806.578	645.75
1810.924	643.75
1815.266	623.75
1819.603	623.75
1823.937	631.75
1828.266	615.75
1832.591	609.75
1836.913	614.75
1841.23	607.75
1845.543	609.75
1849.852	608.75
1854.156	607.75
1858.457	616.75
1862.754	610.75
1867.047	617.75
1871.335	616.75
1875.62	621.75
1879.9	626.75
1884.177	625.75
1888.449	613.75
1892.718	628.75
1896.982	619.75
1901.243	609.75
1905.499	624.75
1909.752	614.75
1914	610.75
1918.245	598.75
1922.485	605.75
1926.722	619.75
1930.954	615.75
1935.183	606.75
1939.408	615.75
1943.628	602.75
1947.845	619.75
1952.058	622.75
1956.267	619.75
1960.472	597.75
1964.673	601.75
1968.87	592.75
1973.063	590.75
1977.252	585.75
1981.438	593.75
1985.619	579.75
1989.797	578.75
1993.971	578.75
1998.14	597.75
2002.306	584.75
2006.469	592.75
2010.627	594.75
2014.781	586.75
2018.932	588.75
2023.078	598.75
2027.221	573.75
2031.36	583.75
2035.495	594.75
2039.627	575.75
2043.754	570.75
2047.878	572.75
2051.998	583.75
2056.114	583.75
2060.226	573.75
2064.334	582.75
2068.439	579.75
2072.54	586.75
2076.637	586.75
2080.73	584.75
2084.82	583.75
2088.906	593.75
2092.988	594.75
2097.066	588.75
2101.14	575.75
2105.211	582.75
2109.278	580.75
2113.342	572.75
2117.401	567.75
2121.457	573.75
2125.509	573.75
2129.558	571.75
2133.602	553.75
2137.643	562.75
2141.681	558.75
2145.714	546.75
2149.744	562.75
2153.77	544.75
2157.793	531.75
2161.812	543.75
2165.827	531.75
2169.838	531.75
2173.846	517.75
2177.851	512.75
2181.851	497.75
2185.848	505.75
2189.841	501.75
2193.831	495.75
2197.817	490.75
2201.799	482.75
2205.778	484.75
2209.753	479.75
2213.725	478.75
2217.693	473.75
2221.657	480.75
2225.618	468.75
2229.575	478.75
2233.529	473.75
2237.479	469.75
2241.425	465.75
2245.368	454.75
2249.307	441.75
2253.243	446.75
2257.175	445.75
2261.104	431.75
2265.029	424.75
2268.95	420.75
2272.868	410.75
2276.783	409.75
2280.694	402.75
2284.601	398.75
2288.505	393.75
2292.405	391.75
2296.302	388.75
2300.195	375.75
2304.085	381.75
2307.971	365.75
2311.854	367.75
2315.734	356.75
2319.609	355.75
2323.482	341.75
2327.351	344.75
2331.216	348.75
2335.078	342.75
2338.937	328.75
2342.792	335.75
2346.643	335.75
2350.492	333.75
2354.336	332.75
2358.178	333.75
2362.015	332.75
2365.85	329.75
2369.681	329.75
2373.508	331.75
2377.333	334.75
2381.153	344.75
2384.971	330.75
2388.785	336.75
2392.595	329.75
2396.402	321.75
2400.206	332.75
2404.007	315.75
2407.804	327.75
2411.597	317.75
2415.388	315.75
2419.174	313.75
2422.958	310.75
2426.738	309.75
2430.515	314.75
2434.289	319.75
2438.059	307.75
2441.825	309.75
2445.589	302.75
2449.349	305.75
2453.106	295.75
2456.859	298.75
2460.61	308.75
2464.356	296.75
2468.1	288.75
2471.84	292.75
2475.577	289.75
2479.311	284.75
2483.041	282.75
2486.768	293.75
2490.492	283.75
2494.213	280.75
2497.93	277.75
2501.644	284.75
2505.355	282.75
2509.062	292.75
2512.766	283.75
2516.467	285.75
2520.165	286.75
2523.859	271.75
2527.551	278.75
2531.239	273.75
2534.923	272.75
2538.605	257.75
2542.283	269.75
2545.958	257.75
2549.63	266.75
2553.299	259.75
2556.964	260.75
2560.626	251.75
2564.285	257.75
2567.941	248.75
2571.594	254.75
2575.243	252.75
2578.89	254.75
2582.533	243.75
2586.173	238.75
2589.809	239.75
2593.443	241.75
2597.073	239.75
2600.701	239.75
2604.325	227.75
2607.946	229.75
2611.564	237.75
2615.178	226.75
2618.79	234.75
2622.398	233.75
2626.004	231.75
2629.606	225.75
2633.205	222.75
2636.801	223.75
2640.394	222.75
2643.983	213.75
2647.57	221.75
2651.153	210.75
2654.734	216.75
2658.311	201.75
2661.885	205.75
2665.456	196.75
2669.025	207.75
2672.589	204.75
2676.151	200.75
2679.71	194.75
2683.266	195.75
2686.819	202.75
2690.368	195.75
2693.915	193.75
2697.458	192.75
2700.999	187.75
2704.536	179.75
2708.071	190.75
2711.602	180.75
2715.13	177.75
2718.656	173.75
2722.178	174.75
2725.697	178.75
2729.214	177.75
2732.727	188.75
2736.237	182.75
2739.744	191.75
2743.249	189.75
2746.75	181.75
2750.248	184.75
2753.743	186.75
2757.236	186.75
2760.725	188.75
2764.211	172.75
2767.695	179.75
2771.175	170.75
2774.652	171.75
2778.127	165.75
2781.598	177.75
2785.067	167.75
2788.532	183.75
2791.995	173.75
2795.455	178.75
2798.911	169.75
2802.365	181.75
2805.816	181.75
2809.264	183.75
2812.709	175.75
2816.151	178.75
2819.59	179.75
2823.026	171.75
2826.46	177.75
2829.89	177.75
2833.318	180.75
2836.742	185.75
2840.164	184.75
2843.583	179.75
2846.999	182.75
2850.412	185.75
2853.822	188.75
2857.229	198.75
2860.634	198.75
2864.035	204.75
2867.434	206.75
2870.83	204.75
2874.223	209.75
2877.613	206.75
2881	212.75
2884.385	212.75
2887.766	215.75
2891.145	207.75
2894.521	206.75
2897.894	213.75
2901.264	215.75
2904.631	213.75
2907.996	224.75
2911.358	221.75
2914.717	223.75
2918.073	231.75
2921.426	227.75
2924.777	250.75
2928.124	238.75
2931.469	241.75
2934.811	249.75
2938.15	252.75
2941.487	253.75
2944.821	266.75
2948.152	262.75
2951.48	265.75
2954.805	268.75
2958.128	282.75
2961.447	285.75
2964.765	286.75
2968.079	292.75
2971.39	301.75
2974.699	313.75
2978.005	306.75
2981.308	322.75
2984.609	324.75
2987.907	333.75
2991.202	339.75
2994.494	346.75
2997.784	369.75
3001.07	379.75
3004.355	384.75
3007.636	403.75
3010.915	405.75
3014.191	421.75
3017.464	437.75
3020.734	429.75
3024.002	450.75
3027.267	446.75
3030.53	453.75
3033.789	468.75
3037.046	478.75
3040.301	485.75
3043.552	490.75
3046.801	503.75
3050.048	514.75
3053.291	538.75
3056.532	553.75
3059.771	567.75
3063.006	585.75
3066.239	608.75
3069.469	614.75
3072.697	642.75
3075.922	657.75
3079.144	673.75
3082.364	693.75
3085.581	700.75
3088.795	729.75
3092.007	740.75
3095.216	757.75
3098.423	769.75
3101.627	795.75
3104.828	802.75
3108.026	828.75
3111.222	847.75
3114.416	863.75
3117.607	877.75
3120.795	892.75
3123.98	916.75
3127.163	943.75
3130.344	968.75
3133.521	989.75
3136.696	999.75
3139.869	1034.75
3143.039	1062.75
3146.206	1058.75
3149.371	1071.75
3152.533	1087.75
3155.693	1086.75
3158.85	1096.75
3162.005	1087.75
3165.157	1110.75
3168.306	1121.75
3171.453	1110.75
3174.597	1115.75
3177.739	1113.75
3180.878	1126.75
3184.014	1142.75
3187.149	1140.75
3190.28	1133.75
3193.409	1146.75
3196.536	1148.75
3199.659	1166.75
3202.781	1160.75
3205.9	1159.75
3209.016	1173.75
3212.13	1163.75
3215.241	1159.75
3218.35	1136.75
3221.456	1125.75
3224.56	1116.75
3227.661	1107.75
3230.76	1101.75
3233.856	1093.75
3236.95	1076.75
3240.041	1074.75
3243.13	1054.75
3246.216	1063.75
3249.3	1062.75
3252.382	1034.75
3255.46	1032.75
3258.537	1023.75
3261.611	1027.75
3264.682	1031.75
3267.751	1011.75
3270.818	1007.75
3273.882	1010.75
3276.943	1001.75
3280.002	991.75
3283.059	993.75
3286.113	985.75
3289.165	975.75
3292.214	956.75
3295.261	935.75
3298.306	926.75
3301.348	912.75
3304.387	894.75
3307.425	886.75
3310.459	852.75
3313.492	869.75
3316.521	851.75
3319.549	843.75
3322.574	832.75
3325.597	823.75
3328.617	829.75
3331.635	825.75
3334.65	813.75
3337.663	813.75
3340.674	800.75
3343.682	804.75
3346.688	797.75
3349.691	800.75
3352.692	787.75
3355.691	776.75
3358.687	772.75
3361.681	777.75
3364.673	757.75
3367.662	741.75
3370.649	749.75
3373.633	731.75
3376.615	718.75
3379.595	711.75
3382.572	707.75
3385.547	698.75
3388.52	682.75
3391.49	673.75
3394.458	663.75
3397.424	658.75
3400.387	642.75
3403.348	641.75
3406.307	639.75
3409.263	637.75
3412.217	623.75
3415.168	611.75
3418.118	602.75
3421.065	595.75
3424.009	596.75
3426.951	581.75
3429.891	562.75
3432.829	562.75
3435.764	549.75
3438.697	531.75
3441.628	535.75
3444.557	513.75
3447.483	498.75
3450.407	489.75
3453.328	467.75
3456.247	460.75
3459.164	434.75
3462.079	426.75
3464.991	414.75
3467.902	407.75
3470.809	394.75
3473.715	380.75
3476.618	370.75
3479.519	359.75
3482.418	338.75
3485.315	338.75
3488.209	327.75
3491.101	314.75
3493.99	307.75
3496.878	286.75
3499.763	281.75
3502.646	277.75
3505.527	280.75
3508.405	260.75
3511.281	242.75
3514.155	237.75
3517.027	224.75
3519.897	217.75
3522.764	203.75
3525.629	187.75
3528.492	176.75
3531.352	168.75
3534.211	156.75
3537.067	143.75
3539.921	139.75
3542.773	136.75
3545.622	115.75
3548.469	113.75
3551.315	104.75
3554.157	96.75
3556.998	94.75
3559.837	85.75
3562.673	81.75
3565.507	74.75
3568.339	66.75
3571.169	60.75
3573.996	59.75
3576.822	51.75
3579.645	51.75
3582.466	46.75
3585.285	34.75
3588.101	34.75
3590.916	25.75
3593.728	23.75
3596.538	16.75
3599.346	5.75
3602.152	2.75
3604.956	-1.25
3607.757	0.75
3610.556	-4.25
3613.354	-13.25
3616.149	-10.25
3618.942	-14.25
3621.732	-11.25
3624.521	-16.25
3627.307	-28.25
3630.092	-31.25
3632.874	-27.25
3635.654	-34.25
3638.432	-37.25
3641.208	-39.25
3643.982	-37.25
3646.753	-45.25
3649.523	-45.25
3652.29	-46.25
3655.055	-48.25
3657.818	-51.25
3660.579	-45.25
3663.338	-54.25
3666.095	-57.25
3668.849	-65.25
3671.602	-61.25
3674.352	-64.25
3677.101	-65.25
3679.847	-68.25
3682.591	-69.25
3685.333	-70.25
3688.073	-73.25
3690.811	-74.25
3693.547	-76.25
3696.281	-79.25
3699.013	-83.25
3701.742	-84.25
3704.47	-82.25
3707.195	-81.25
3709.919	-81.25
3712.64	-90.25
3715.359	-83.25
3718.076	-90.25
3720.792	-84.25
3723.505	-88.25
3726.216	-90.25
3728.925	-90.25
3731.632	-93.25
3734.336	-99.25
3737.039	-96.25
3739.74	-97.25
3742.439	-94.25
3745.136	-93.25
3747.83	-95.25
3750.523	-95.25
3753.213	-90.25
3755.902	-93.25
3758.589	-92.25
3761.273	-96.25
3763.956	-99.25
3766.636	-98.25
3769.315	-100.25
3771.991	-102.25
3774.665	-99.25
3777.338	-103.25
3780.008	-102.25
3782.677	-101.25
3785.343	-99.25
3788.007	-98.25
3790.67	-101.25
3793.33	-102.25
3795.989	-102.25
3798.645	-103.25
3801.299	-104.25
3803.952	-101.25
3806.602	-96.25
3809.251	-100.25
3811.897	-103.25
3814.542	-105.25
3817.184	-106.25
3819.825	-102.25
3822.463	-105.25
3825.1	-106.25
3827.735	-107.25
3830.367	-106.25
3832.998	-107.25
3835.627	-107.25
3838.253	-104.25
3840.878	-109.25
3843.501	-107.25
3846.122	-109.25
3848.741	-106.25
3851.358	-105.25
3853.973	-100.25
3856.586	-109.25
3859.197	-112.25
3861.806	-112.25
3864.414	-111.25
3867.019	-115.25
3869.622	-110.25
3872.224	-110.25
3874.823	-106.25
3877.421	-99.25
3880.016	-102.25
3882.61	-95.25
3885.202	-97.25
3887.792	-100.25
3890.38	-103.25
3892.966	-105.25
3895.55	-108.25
3898.132	-111.25
3900.713	-113.25
3903.291	-111.25
3905.868	-110.25
3908.442	-115.25
3911.015	-115.25
3913.586	-115.25
3916.155	-109.25
3918.722	-113.25
3921.287	-110.25
3923.85	-109.25
3926.411	-106.25
3928.971	-114.25
3931.528	-109.25
3934.084	-114.25
3936.638	-113.25
3939.19	-109.25
3941.74	-105.25
3944.288	-112.25
3946.834	-112.25
3949.378	-113.25
3951.921	-114.25
3954.462	-109.25
3957	-115.25
3959.537	-113.25
3962.072	-112.25
3964.606	-110.25
3967.137	-106.25
3969.667	-112.25
3972.194	-107.25
3974.72	-110.25
3977.244	-109.25
3979.766	-111.25
3982.286	-109.25
3984.805	-112.25
3987.321	-111.25
3989.836	-112.25
3992.349	-115.25
3994.86	-109.25
3997.369	-116.25
3999.877	-110.25
4002.382	-110.25
4004.886	-109.25
4007.388	-112.25
4009.888	-107.25
4012.386	-107.25
4014.883	-111.25
4017.377	-108.25
4019.87	-110.25
4022.361	-114.25
4024.85	-113.25
4027.338	-113.25
4029.823	-116.25
4032.307	-111.25
4034.789	-114.25
4037.269	-113.25
4039.747	-112.25
4042.224	-104.25
4044.699	-114.25
4047.172	-112.25
4049.643	-111.25
4052.112	-112.25
4054.58	-113.25
4057.046	-114.25
4059.51	-110.25
4061.972	-112.25
4064.432	-111.25
4066.891	-114.25
4069.348	-112.25
4071.803	-108.25
4074.256	-114.25
4076.708	-111.25
4079.158	-112.25
4081.606	-110.25
4084.052	-112.25
4086.497	-108.25
4088.939	-110.25
4091.38	-110.25
4093.819	-110.25
4096.257	-114.25
4098.693	-116.25
4101.127	-118.25
4103.559	-112.25
4105.989	-77.25
4108.418	-78.25
4110.845	-68.25
4113.27	-67.25
4115.694	-59.25
4118.115	-57.25
4120.535	-112.25
4122.954	-110.25
4125.37	-106.25
4127.785	-110.25
4130.198	-109.25
4132.609	-111.25
4135.019	-115.25
4137.427	-119.25
4139.833	-121.25
4142.237	-117.25
