Data from I0.5_T15s_Bsub_water_1-1_1_RamanShift_1.txt Node
Date: Mon Mar 13 14:31:32 IST 2017
User: aro
Spectrometer: QEPB0276
Trigger mode: 0
Integration Time (sec): 1.500000E1
Scans to average: 1
Electric dark correction enabled: true
Nonlinearity correction enabled: false
Boxcar width: 0
XAxis mode: Raman Shifts
Number of Pixels in Spectrum: 1044
>>>>>Begin Spectral Data<<<<<
160.701	-28.25
166.742	0.75
172.777	91.75
178.805	373.75
184.826	1081.75
190.841	2297.75
196.849	3683.75
202.85	4589.75
208.845	4832.75
214.833	4714.75
220.815	4594.75
226.789	4518.75
232.758	4427.75
238.719	4338.75
244.674	4128.75
250.623	3829.75
256.565	3596.75
262.5	3371.75
268.429	3306.75
274.351	3452.75
280.267	3588.75
286.176	3546.75
292.079	3481.75
297.975	3400.75
303.865	3313.75
309.748	3251.75
315.625	3192.75
321.495	3129.75
327.359	3089.75
333.217	3045.75
339.068	3057.75
344.912	3014.75
350.751	2996.75
356.583	2959.75
362.408	2982.75
368.227	2934.75
374.04	2920.75
379.847	2950.75
385.647	2871.75
391.44	2703.75
397.228	2362.75
403.009	2083.75
408.784	1761.75
414.553	1157.75
420.315	609.75
426.071	1295.75
431.821	2503.75
437.565	2906.75
443.302	2937.75
449.033	2961.75
454.758	2938.75
460.477	2954.75
466.189	2937.75
471.896	2927.75
477.596	2942.75
483.29	2904.75
488.978	2889.75
494.66	2891.75
500.335	2867.75
506.005	2847.75
511.668	2788.75
517.325	2733.75
522.977	2719.75
528.622	2707.75
534.261	2652.75
539.894	2666.75
545.521	2662.75
551.141	2645.75
556.756	2636.75
562.365	2629.75
567.968	2611.75
573.565	2617.75
579.155	2631.75
584.74	2595.75
590.319	2622.75
595.892	2585.75
601.459	2588.75
607.02	2565.75
612.575	2539.75
618.124	2537.75
623.667	2504.75
629.204	2438.75
634.735	2278.75
640.261	2110.75
645.781	2115.75
651.294	2304.75
656.802	2427.75
662.304	2470.75
667.8	2450.75
673.29	2452.75
678.775	2440.75
684.254	2466.75
689.726	2451.75
695.193	2451.75
700.655	2431.75
706.11	2409.75
711.56	2402.75
717.004	2383.75
722.442	2403.75
727.874	2375.75
733.301	2388.75
738.722	2388.75
744.137	2363.75
749.547	2382.75
754.951	2375.75
760.349	2398.75
765.741	2376.75
771.128	2387.75
776.509	2400.75
781.885	2384.75
787.254	2389.75
792.618	2396.75
797.977	2355.75
803.33	2373.75
808.677	2354.75
814.019	2342.75
819.355	2304.75
824.686	2295.75
830.011	2275.75
835.33	2214.75
840.644	1980.75
845.952	1590.75
851.255	1513.75
856.552	1825.75
861.844	1930.75
867.13	1412.75
872.41	922.75
877.686	1348.75
882.955	2010.75
888.219	2250.75
893.478	2253.75
898.731	2223.75
903.979	2204.75
909.221	2190.75
914.458	2191.75
919.69	2199.75
924.916	2224.75
930.136	2215.75
935.351	2227.75
940.561	2219.75
945.766	2212.75
950.965	2230.75
956.158	2211.75
961.347	2195.75
966.529	2158.75
971.707	2161.75
976.879	2143.75
982.046	2122.75
987.208	2108.75
992.364	2087.75
997.515	2035.75
1002.66	1861.75
1007.801	1767.75
1012.936	1936.75
1018.066	2154.75
1023.19	2229.75
1028.309	2251.75
1033.423	2246.75
1038.532	2252.75
1043.636	2237.75
1048.734	2214.75
1053.827	2197.75
1058.915	2164.75
1063.998	2161.75
1069.075	2146.75
1074.147	2189.75
1079.214	2199.75
1084.276	2201.75
1089.333	2208.75
1094.385	2247.75
1099.431	2261.75
1104.472	2270.75
1109.509	2250.75
1114.54	2221.75
1119.565	2223.75
1124.586	2178.75
1129.602	2161.75
1134.613	2169.75
1139.618	2143.75
1144.619	2129.75
1149.614	2153.75
1154.604	2167.75
1159.589	2158.75
1164.57	2194.75
1169.545	2192.75
1174.515	2215.75
1179.48	2191.75
1184.44	2180.75
1189.395	2176.75
1194.345	2146.75
1199.29	2129.75
1204.23	2078.75
1209.165	2090.75
1214.095	2175.75
1219.021	2220.75
1223.941	2242.75
1228.856	2265.75
1233.766	2266.75
1238.672	2285.75
1243.572	2288.75
1248.467	2267.75
1253.358	2230.75
1258.244	2220.75
1263.124	2178.75
1268	2109.75
1272.871	2105.75
1277.737	2099.75
1282.599	2095.75
1287.455	2127.75
1292.306	2117.75
1297.153	2165.75
1301.995	2168.75
1306.832	2191.75
1311.664	2188.75
1316.491	2196.75
1321.314	2193.75
1326.132	2166.75
1330.945	2141.75
1335.753	2119.75
1340.556	2069.75
1345.354	2074.75
1350.148	2058.75
1354.937	2053.75
1359.722	2051.75
1364.501	2052.75
1369.276	2097.75
1374.046	2111.75
1378.811	2123.75
1383.572	2130.75
1388.327	2109.75
1393.079	2091.75
1397.825	2061.75
1402.567	2041.75
1407.304	2012.75
1412.036	2014.75
1416.764	2001.75
1421.487	1991.75
1426.205	1990.75
1430.919	2039.75
1435.628	2026.75
1440.333	2059.75
1445.032	2072.75
1449.727	2067.75
1454.418	2083.75
1459.104	2077.75
1463.785	2059.75
1468.462	2030.75
1473.134	2040.75
1477.802	2014.75
1482.465	2007.75
1487.123	2014.75
1491.777	2004.75
1496.426	2023.75
1501.071	2025.75
1505.711	2072.75
1510.347	2092.75
1514.978	2090.75
1519.604	2116.75
1524.226	2141.75
1528.844	2121.75
1533.457	2148.75
1538.065	2132.75
1542.669	2112.75
1547.269	2120.75
1551.864	2105.75
1556.454	2132.75
1561.041	2121.75
1565.622	2132.75
1570.199	2147.75
1574.772	2178.75
1579.34	2172.75
1583.904	2176.75
1588.464	2217.75
1593.019	2205.75
1597.569	2220.75
1602.115	2216.75
1606.657	2216.75
1611.195	2205.75
1615.728	2210.75
1620.256	2225.75
1624.78	2201.75
1629.3	2244.75
1633.816	2259.75
1638.327	2292.75
1642.834	2293.75
1647.336	2311.75
1651.834	2321.75
1656.328	2348.75
1660.817	2334.75
1665.302	2295.75
1669.783	2273.75
1674.259	2235.75
1678.732	2205.75
1683.199	2159.75
1687.663	2096.75
1692.122	2039.75
1696.577	2015.75
1701.028	2000.75
1705.474	1981.75
1709.917	1948.75
1714.355	1939.75
1718.788	1943.75
1723.218	1922.75
1727.643	1871.75
1732.064	1871.75
1736.481	1846.75
1740.893	1800.75
1745.301	1766.75
1749.705	1737.75
1754.105	1699.75
1758.501	1666.75
1762.893	1638.75
1767.28	1555.75
1771.663	1405.75
1776.042	557.75
1780.417	-439.25
1784.787	64.75
1789.154	1276.75
1793.516	1604.75
1797.874	1659.75
1802.228	1681.75
1806.578	1695.75
1810.924	1703.75
1815.266	1689.75
1819.603	1670.75
1823.937	1647.75
1828.266	1631.75
1832.591	1627.75
1836.913	1612.75
1841.23	1598.75
1845.543	1602.75
1849.852	1608.75
1854.156	1595.75
1858.457	1595.75
1862.754	1583.75
1867.047	1585.75
1871.335	1610.75
1875.62	1611.75
1879.9	1610.75
1884.177	1609.75
1888.449	1597.75
1892.718	1557.75
1896.982	1331.75
1901.243	1124.75
1905.499	1244.75
1909.752	1502.75
1914	1564.75
1918.245	1567.75
1922.485	1574.75
1926.722	1598.75
1930.954	1606.75
1935.183	1621.75
1939.408	1633.75
1943.628	1623.75
1947.845	1637.75
1952.058	1640.75
1956.267	1620.75
1960.472	1616.75
1964.673	1606.75
1968.87	1572.75
1973.063	1565.75
1977.252	1570.75
1981.438	1551.75
1985.619	1549.75
1989.797	1534.75
1993.971	1547.75
1998.14	1538.75
2002.306	1561.75
2006.469	1571.75
2010.627	1566.75
2014.781	1542.75
2018.932	1555.75
2023.078	1559.75
2027.221	1537.75
2031.36	1528.75
2035.495	1501.75
2039.627	1510.75
2043.754	1471.75
2047.878	1447.75
2051.998	1453.75
2056.114	1469.75
2060.226	1488.75
2064.334	1480.75
2068.439	1501.75
2072.54	1508.75
2076.637	1524.75
2080.73	1517.75
2084.82	1527.75
2088.906	1527.75
2092.988	1513.75
2097.066	1506.75
2101.14	1503.75
2105.211	1494.75
2109.278	1488.75
2113.342	1488.75
2117.401	1487.75
2121.457	1484.75
2125.509	1460.75
2129.558	1471.75
2133.602	1455.75
2137.643	1456.75
2141.681	1440.75
2145.714	1451.75
2149.744	1452.75
2153.77	1452.75
2157.793	1430.75
2161.812	1407.75
2165.827	1387.75
2169.838	1386.75
2173.846	1343.75
2177.851	1347.75
2181.851	1320.75
2185.848	1326.75
2189.841	1309.75
2193.831	1301.75
2197.817	1298.75
2201.799	1292.75
2205.778	1288.75
2209.753	1287.75
2213.725	1284.75
2217.693	1313.75
2221.657	1320.75
2225.618	1311.75
2229.575	1300.75
2233.529	1266.75
2237.479	1280.75
2241.425	1272.75
2245.368	1260.75
2249.307	1243.75
2253.243	1242.75
2257.175	1237.75
2261.104	1216.75
2265.029	1207.75
2268.95	1196.75
2272.868	1190.75
2276.783	1197.75
2280.694	1169.75
2284.601	1155.75
2288.505	1148.75
2292.405	1139.75
2296.302	1125.75
2300.195	1104.75
2304.085	1082.75
2307.971	1080.75
2311.854	1079.75
2315.734	1075.75
2319.609	1036.75
2323.482	1045.75
2327.351	1027.75
2331.216	1020.75
2335.078	1021.75
2338.937	1009.75
2342.792	1004.75
2346.643	1003.75
2350.492	1006.75
2354.336	990.75
2358.178	994.75
2362.015	997.75
2365.85	987.75
2369.681	998.75
2373.508	991.75
2377.333	974.75
2381.153	921.75
2384.971	706.75
2388.785	640.75
2392.595	805.75
2396.402	942.75
2400.206	972.75
2404.007	958.75
2407.804	954.75
2411.597	948.75
2415.388	942.75
2419.174	955.75
2422.958	958.75
2426.738	957.75
2430.515	963.75
2434.289	955.75
2438.059	960.75
2441.825	948.75
2445.589	943.75
2449.349	934.75
2453.106	919.75
2456.859	919.75
2460.61	910.75
2464.356	903.75
2468.1	898.75
2471.84	897.75
2475.577	872.75
2479.311	868.75
2483.041	879.75
2486.768	908.75
2490.492	886.75
2494.213	895.75
2497.93	904.75
2501.644	892.75
2505.355	890.75
2509.062	901.75
2512.766	884.75
2516.467	865.75
2520.165	804.75
2523.859	813.75
2527.551	840.75
2531.239	826.75
2534.923	830.75
2538.605	843.75
2542.283	838.75
2545.958	859.75
2549.63	848.75
2553.299	847.75
2556.964	834.75
2560.626	829.75
2564.285	845.75
2567.941	832.75
2571.594	814.75
2575.243	825.75
2578.89	812.75
2582.533	804.75
2586.173	801.75
2589.809	801.75
2593.443	800.75
2597.073	779.75
2600.701	778.75
2604.325	763.75
2607.946	774.75
2611.564	766.75
2615.178	784.75
2618.79	771.75
2622.398	773.75
2626.004	755.75
2629.606	761.75
2633.205	768.75
2636.801	772.75
2640.394	756.75
2643.983	739.75
2647.57	737.75
2651.153	726.75
2654.734	732.75
2658.311	709.75
2661.885	701.75
2665.456	695.75
2669.025	683.75
2672.589	676.75
2676.151	684.75
2679.71	673.75
2683.266	673.75
2686.819	663.75
2690.368	655.75
2693.915	641.75
2697.458	635.75
2700.999	634.75
2704.536	629.75
2708.071	607.75
2711.602	614.75
2715.13	606.75
2718.656	583.75
2722.178	600.75
2725.697	580.75
2729.214	591.75
2732.727	604.75
2736.237	585.75
2739.744	592.75
2743.249	597.75
2746.75	597.75
2750.248	597.75
2753.743	615.75
2757.236	595.75
2760.725	609.75
2764.211	591.75
2767.695	601.75
2771.175	592.75
2774.652	578.75
2778.127	581.75
2781.598	584.75
2785.067	563.75
2788.532	556.75
2791.995	559.75
2795.455	536.75
2798.911	510.75
2802.365	526.75
2805.816	519.75
2809.264	513.75
2812.709	518.75
2816.151	492.75
2819.59	495.75
2823.026	484.75
2826.46	497.75
2829.89	469.75
2833.318	453.75
2836.742	428.75
2840.164	414.75
2843.583	404.75
2846.999	380.75
2850.412	353.75
2853.822	319.75
2857.229	276.75
2860.634	225.75
2864.035	142.75
2867.434	46.75
2870.83	-152.25
2874.223	-945.25
2877.613	-2686.25
2881	-2937.25
2884.385	-1329.25
2887.766	-278.25
2891.145	-20.25
2894.521	117.75
2897.894	206.75
2901.264	244.75
2904.631	285.75
2907.996	340.75
2911.358	364.75
2914.717	393.75
2918.073	399.75
2921.426	415.75
2924.777	431.75
2928.124	427.75
2931.469	422.75
2934.811	444.75
2938.15	442.75
2941.487	431.75
2944.821	426.75
2948.152	423.75
2951.48	420.75
2954.805	407.75
2958.128	448.75
2961.447	452.75
2964.765	453.75
2968.079	469.75
2971.39	483.75
2974.699	487.75
2978.005	497.75
2981.308	512.75
2984.609	513.75
2987.907	524.75
2991.202	517.75
2994.494	502.75
2997.784	494.75
3001.07	485.75
3004.355	476.75
3007.636	476.75
3010.915	495.75
3014.191	525.75
3017.464	554.75
3020.734	562.75
3024.002	601.75
3027.267	599.75
3030.53	600.75
3033.789	617.75
3037.046	646.75
3040.301	634.75
3043.552	641.75
3046.801	653.75
3050.048	654.75
3053.291	654.75
3056.532	670.75
3059.771	679.75
3063.006	665.75
3066.239	680.75
3069.469	673.75
3072.697	689.75
3075.922	692.75
3079.144	725.75
3082.364	784.75
3085.581	795.75
3088.795	823.75
3092.007	844.75
3095.216	855.75
3098.423	872.75
3101.627	870.75
3104.828	888.75
3108.026	906.75
3111.222	908.75
3114.416	932.75
3117.607	918.75
3120.795	934.75
3123.98	927.75
3127.163	951.75
3130.344	968.75
3133.521	973.75
3136.696	998.75
3139.869	1018.75
3143.039	1065.75
3146.206	1074.75
3149.371	1099.75
3152.533	1103.75
3155.693	1112.75
3158.85	1101.75
3162.005	1110.75
3165.157	1116.75
3168.306	1103.75
3171.453	1106.75
3174.597	1096.75
3177.739	1090.75
3180.878	1042.75
3184.014	1033.75
3187.149	1019.75
3190.28	1013.75
3193.409	1022.75
3196.536	1043.75
3199.659	1061.75
3202.781	1098.75
3205.9	1106.75
3209.016	1109.75
3212.13	1119.75
3215.241	1126.75
3218.35	1108.75
3221.456	1100.75
3224.56	1077.75
3227.661	1063.75
3230.76	1062.75
3233.856	1025.75
3236.95	1022.75
3240.041	997.75
3243.13	968.75
3246.216	961.75
3249.3	956.75
3252.382	969.75
3255.46	962.75
3258.537	988.75
3261.611	1001.75
3264.682	1017.75
3267.751	1013.75
3270.818	1013.75
3273.882	1015.75
3276.943	1014.75
3280.002	1016.75
3283.059	983.75
3286.113	971.75
3289.165	941.75
3292.214	939.75
3295.261	926.75
3298.306	893.75
3301.348	857.75
3304.387	826.75
3307.425	812.75
3310.459	789.75
3313.492	789.75
3316.521	784.75
3319.549	790.75
3322.574	778.75
3325.597	785.75
3328.617	781.75
3331.635	783.75
3334.65	777.75
3337.663	774.75
3340.674	770.75
3343.682	758.75
3346.688	758.75
3349.691	726.75
3352.692	705.75
3355.691	679.75
3358.687	637.75
3361.681	608.75
3364.673	603.75
3367.662	565.75
3370.649	566.75
3373.633	607.75
3376.615	621.75
3379.595	639.75
3382.572	649.75
3385.547	653.75
3388.52	650.75
3391.49	639.75
3394.458	630.75
3397.424	620.75
3400.387	626.75
3403.348	609.75
3406.307	588.75
3409.263	581.75
3412.217	553.75
3415.168	526.75
3418.118	501.75
3421.065	470.75
3424.009	420.75
3426.951	394.75
3429.891	377.75
3432.829	373.75
3435.764	377.75
3438.697	380.75
3441.628	380.75
3444.557	380.75
3447.483	389.75
3450.407	382.75
3453.328	357.75
3456.247	349.75
3459.164	348.75
3462.079	299.75
3464.991	255.75
3467.902	195.75
3470.809	120.75
3473.715	8.75
3476.618	-126.25
3479.519	-332.25
3482.418	-550.25
3485.315	-734.25
3488.209	-891.25
3491.101	-944.25
3493.99	-914.25
3496.878	-866.25
3499.763	-829.25
3502.646	-857.25
3505.527	-916.25
3508.405	-969.25
3511.281	-947.25
3514.155	-852.25
3517.027	-778.25
3519.897	-700.25
3522.764	-690.25
3525.629	-677.25
3528.492	-721.25
3531.352	-804.25
3534.211	-938.25
3537.067	-1121.25
3539.921	-1280.25
3542.773	-1413.25
3545.622	-1483.25
3548.469	-1414.25
3551.315	-1282.25
3554.157	-1096.25
3556.998	-921.25
3559.837	-757.25
3562.673	-628.25
3565.507	-522.25
3568.339	-436.25
3571.169	-398.25
3573.996	-382.25
3576.822	-387.25
3579.645	-529.25
3582.466	-1170.25
3585.285	-1780.25
3588.101	-1750.25
3590.916	-1163.25
3593.728	-826.25
3596.538	-816.25
3599.346	-898.25
3602.152	-992.25
3604.956	-1038.25
3607.757	-1047.25
3610.556	-1019.25
3613.354	-956.25
3616.149	-881.25
3618.942	-786.25
3621.732	-709.25
3624.521	-643.25
3627.307	-578.25
3630.092	-540.25
3632.874	-502.25
3635.654	-476.25
3638.432	-467.25
3641.208	-475.25
3643.982	-493.25
3646.753	-530.25
3649.523	-580.25
3652.29	-609.25
3655.055	-632.25
3657.818	-659.25
3660.579	-661.25
3663.338	-630.25
3666.095	-590.25
3668.849	-526.25
3671.602	-464.25
3674.352	-400.25
3677.101	-337.25
3679.847	-287.25
3682.591	-254.25
3685.333	-225.25
3688.073	-197.25
3690.811	-176.25
3693.547	-175.25
3696.281	-156.25
3699.013	-163.25
3701.742	-152.25
3704.47	-151.25
3707.195	-160.25
3709.919	-154.25
3712.64	-158.25
3715.359	-154.25
3718.076	-160.25
3720.792	-150.25
3723.505	-146.25
3726.216	-142.25
3728.925	-139.25
3731.632	-130.25
3734.336	-124.25
3737.039	-117.25
3739.74	-111.25
3742.439	-117.25
3745.136	-110.25
3747.83	-103.25
3750.523	-108.25
3753.213	-106.25
3755.902	-107.25
3758.589	-115.25
3761.273	-112.25
3763.956	-110.25
3766.636	-118.25
3769.315	-121.25
3771.991	-129.25
3774.665	-131.25
3777.338	-141.25
3780.008	-139.25
3782.677	-147.25
3785.343	-143.25
3788.007	-151.25
3790.67	-139.25
3793.33	-145.25
3795.989	-136.25
3798.645	-136.25
3801.299	-129.25
3803.952	-129.25
3806.602	-124.25
3809.251	-120.25
3811.897	-121.25
3814.542	-121.25
3817.184	-117.25
3819.825	-116.25
3822.463	-116.25
3825.1	-119.25
3827.735	-116.25
3830.367	-122.25
3832.998	-121.25
3835.627	-115.25
3838.253	-115.25
3840.878	-117.25
3843.501	-117.25
3846.122	-113.25
3848.741	-114.25
3851.358	-115.25
3853.973	-110.25
3856.586	-112.25
3859.197	-112.25
3861.806	-112.25
3864.414	-109.25
3867.019	-110.25
3869.622	-110.25
3872.224	-115.25
3874.823	-110.25
3877.421	-113.25
3880.016	-115.25
3882.61	-113.25
3885.202	-114.25
3887.792	-120.25
3890.38	-120.25
3892.966	-120.25
3895.55	-117.25
3898.132	-119.25
3900.713	-117.25
3903.291	-116.25
3905.868	-117.25
3908.442	-111.25
3911.015	-113.25
3913.586	-110.25
3916.155	-112.25
3918.722	-108.25
3921.287	-106.25
3923.85	-110.25
3926.411	-109.25
3928.971	-110.25
3931.528	-114.25
3934.084	-113.25
3936.638	-114.25
3939.19	-116.25
3941.74	-112.25
3944.288	-118.25
3946.834	-119.25
3949.378	-116.25
3951.921	-121.25
3954.462	-117.25
3957	-119.25
3959.537	-115.25
3962.072	-112.25
3964.606	-116.25
3967.137	-113.25
3969.667	-110.25
3972.194	-110.25
3974.72	-107.25
3977.244	-105.25
3979.766	-110.25
3982.286	-108.25
3984.805	-104.25
3987.321	-103.25
3989.836	-108.25
3992.349	-114.25
3994.86	-110.25
3997.369	-108.25
3999.877	-105.25
4002.382	-111.25
4004.886	-110.25
4007.388	-105.25
4009.888	-107.25
4012.386	-106.25
4014.883	-104.25
4017.377	-107.25
4019.87	-105.25
4022.361	-108.25
4024.85	-103.25
4027.338	-101.25
4029.823	-105.25
4032.307	-108.25
4034.789	-104.25
4037.269	-109.25
4039.747	-106.25
4042.224	-110.25
4044.699	-110.25
4047.172	-106.25
4049.643	-112.25
4052.112	-109.25
4054.58	-116.25
4057.046	-112.25
4059.51	-112.25
4061.972	-115.25
4064.432	-114.25
4066.891	-114.25
4069.348	-120.25
4071.803	-140.25
4074.256	-212.25
4076.708	-332.25
4079.158	-339.25
4081.606	-244.25
4084.052	-179.25
4086.497	-143.25
4088.939	-130.25
4091.38	-123.25
4093.819	-122.25
4096.257	-110.25
4098.693	-106.25
4101.127	-108.25
4103.559	-106.25
4105.989	-68.25
4108.418	-61.25
4110.845	-62.25
4113.27	-59.25
4115.694	-54.25
4118.115	-39.25
4120.535	-121.25
4122.954	-119.25
4125.37	-120.25
4127.785	-128.25
4130.198	-173.25
4132.609	-225.25
4135.019	-109.25
4137.427	-111.25
4139.833	-109.25
4142.237	-108.25
