Data from I0.5_T10s_Bsub_water_1-10^4_1_RamanShift_1.txt Node
Date: Mon Mar 13 14:03:47 IST 2017
User: aro
Spectrometer: QEPB0276
Trigger mode: 0
Integration Time (sec): 1.000000E1
Scans to average: 1
Electric dark correction enabled: true
Nonlinearity correction enabled: false
Boxcar width: 0
XAxis mode: Raman Shifts
Number of Pixels in Spectrum: 1044
>>>>>Begin Spectral Data<<<<<
160.701	-20.38
166.742	-0.38
172.777	67.62
178.805	294.62
184.826	817.62
190.841	1774.62
196.849	2832.62
202.85	3509.62
208.845	3727.62
214.833	3604.62
220.815	3481.62
226.789	3441.62
232.758	3380.62
238.719	3325.62
244.674	3259.62
250.623	3147.62
256.565	3033.62
262.5	2923.62
268.429	2852.62
274.351	2766.62
280.267	2726.62
286.176	2649.62
292.079	2582.62
297.975	2516.62
303.865	2452.62
309.748	2411.62
315.625	2357.62
321.495	2312.62
327.359	2276.62
333.217	2254.62
339.068	2206.62
344.912	2214.62
350.751	2182.62
356.583	2174.62
362.408	2144.62
368.227	2148.62
374.04	2140.62
379.847	2137.62
385.647	2162.62
391.44	2149.62
397.228	2144.62
403.009	2156.62
408.784	2158.62
414.553	2155.62
420.315	2158.62
426.071	2166.62
431.821	2150.62
437.565	2153.62
443.302	2136.62
449.033	2159.62
454.758	2138.62
460.477	2135.62
466.189	2104.62
471.896	2101.62
477.596	2097.62
483.29	2099.62
488.978	2087.62
494.66	2064.62
500.335	2037.62
506.005	2049.62
511.668	2007.62
517.325	1981.62
522.977	1960.62
528.622	1940.62
534.261	1918.62
539.894	1918.62
545.521	1893.62
551.141	1897.62
556.756	1899.62
562.365	1889.62
567.968	1888.62
573.565	1879.62
579.155	1849.62
584.74	1854.62
590.319	1858.62
595.892	1827.62
601.459	1834.62
607.02	1817.62
612.575	1801.62
618.124	1786.62
623.667	1772.62
629.204	1759.62
634.735	1765.62
640.261	1750.62
645.781	1738.62
651.294	1751.62
656.802	1731.62
662.304	1733.62
667.8	1740.62
673.29	1723.62
678.775	1754.62
684.254	1728.62
689.726	1719.62
695.193	1702.62
700.655	1701.62
706.11	1707.62
711.56	1674.62
717.004	1678.62
722.442	1684.62
727.874	1678.62
733.301	1661.62
738.722	1661.62
744.137	1668.62
749.547	1666.62
754.951	1654.62
760.349	1649.62
765.741	1644.62
771.128	1681.62
776.509	1667.62
781.885	1670.62
787.254	1671.62
792.618	1665.62
797.977	1654.62
803.33	1637.62
808.677	1643.62
814.019	1644.62
819.355	1621.62
824.686	1618.62
830.011	1598.62
835.33	1615.62
840.644	1612.62
845.952	1597.62
851.255	1614.62
856.552	1609.62
861.844	1609.62
867.13	1596.62
872.41	1622.62
877.686	1590.62
882.955	1589.62
888.219	1572.62
893.478	1569.62
898.731	1529.62
903.979	1526.62
909.221	1526.62
914.458	1511.62
919.69	1509.62
924.916	1524.62
930.136	1528.62
935.351	1531.62
940.561	1517.62
945.766	1527.62
950.965	1519.62
956.158	1510.62
961.347	1491.62
966.529	1473.62
971.707	1470.62
976.879	1456.62
982.046	1442.62
987.208	1445.62
992.364	1450.62
997.515	1473.62
1002.66	1483.62
1007.801	1469.62
1012.936	1505.62
1018.066	1505.62
1023.19	1522.62
1028.309	1524.62
1033.423	1519.62
1038.532	1517.62
1043.636	1501.62
1048.734	1496.62
1053.827	1468.62
1058.915	1470.62
1063.998	1471.62
1069.075	1471.62
1074.147	1473.62
1079.214	1492.62
1084.276	1489.62
1089.333	1493.62
1094.385	1514.62
1099.431	1531.62
1104.472	1533.62
1109.509	1507.62
1114.54	1498.62
1119.565	1498.62
1124.586	1471.62
1129.602	1462.62
1134.613	1439.62
1139.618	1448.62
1144.619	1458.62
1149.614	1453.62
1154.604	1472.62
1159.589	1475.62
1164.57	1490.62
1169.545	1487.62
1174.515	1474.62
1179.48	1513.62
1184.44	1475.62
1189.395	1477.62
1194.345	1463.62
1199.29	1471.62
1204.23	1469.62
1209.165	1482.62
1214.095	1494.62
1219.021	1481.62
1223.941	1518.62
1228.856	1525.62
1233.766	1535.62
1238.672	1535.62
1243.572	1516.62
1248.467	1521.62
1253.358	1513.62
1258.244	1484.62
1263.124	1479.62
1268	1461.62
1272.871	1436.62
1277.737	1411.62
1282.599	1421.62
1287.455	1432.62
1292.306	1456.62
1297.153	1454.62
1301.995	1463.62
1306.832	1484.62
1311.664	1481.62
1316.491	1487.62
1321.314	1472.62
1326.132	1476.62
1330.945	1460.62
1335.753	1419.62
1340.556	1394.62
1345.354	1382.62
1350.148	1365.62
1354.937	1368.62
1359.722	1365.62
1364.501	1397.62
1369.276	1395.62
1374.046	1425.62
1378.811	1417.62
1383.572	1425.62
1388.327	1401.62
1393.079	1404.62
1397.825	1399.62
1402.567	1369.62
1407.304	1356.62
1412.036	1357.62
1416.764	1345.62
1421.487	1337.62
1426.205	1346.62
1430.919	1358.62
1435.628	1373.62
1440.333	1375.62
1445.032	1396.62
1449.727	1390.62
1454.418	1410.62
1459.104	1393.62
1463.785	1376.62
1468.462	1374.62
1473.134	1367.62
1477.802	1360.62
1482.465	1356.62
1487.123	1352.62
1491.777	1343.62
1496.426	1360.62
1501.071	1396.62
1505.711	1388.62
1510.347	1432.62
1514.978	1424.62
1519.604	1441.62
1524.226	1463.62
1528.844	1439.62
1533.457	1456.62
1538.065	1452.62
1542.669	1450.62
1547.269	1430.62
1551.864	1461.62
1556.454	1436.62
1561.041	1445.62
1565.622	1452.62
1570.199	1462.62
1574.772	1466.62
1579.34	1469.62
1583.904	1492.62
1588.464	1508.62
1593.019	1514.62
1597.569	1517.62
1602.115	1497.62
1606.657	1519.62
1611.195	1523.62
1615.728	1518.62
1620.256	1514.62
1624.78	1533.62
1629.3	1545.62
1633.816	1554.62
1638.327	1579.62
1642.834	1589.62
1647.336	1595.62
1651.834	1598.62
1656.328	1605.62
1660.817	1617.62
1665.302	1614.62
1669.783	1579.62
1674.259	1559.62
1678.732	1517.62
1683.199	1471.62
1687.663	1438.62
1692.122	1408.62
1696.577	1370.62
1701.028	1363.62
1705.474	1353.62
1709.917	1334.62
1714.355	1342.62
1718.788	1307.62
1723.218	1292.62
1727.643	1280.62
1732.064	1251.62
1736.481	1237.62
1740.893	1228.62
1745.301	1196.62
1749.705	1167.62
1754.105	1162.62
1758.501	1122.62
1762.893	1113.62
1767.28	1108.62
1771.663	1106.62
1776.042	1103.62
1780.417	1099.62
1784.787	1104.62
1789.154	1124.62
1793.516	1133.62
1797.874	1153.62
1802.228	1161.62
1806.578	1159.62
1810.924	1135.62
1815.266	1146.62
1819.603	1118.62
1823.937	1105.62
1828.266	1089.62
1832.591	1079.62
1836.913	1076.62
1841.23	1060.62
1845.543	1057.62
1849.852	1073.62
1854.156	1059.62
1858.457	1062.62
1862.754	1081.62
1867.047	1066.62
1871.335	1074.62
1875.62	1064.62
1879.9	1088.62
1884.177	1069.62
1888.449	1067.62
1892.718	1084.62
1896.982	1074.62
1901.243	1059.62
1905.499	1057.62
1909.752	1059.62
1914	1062.62
1918.245	1063.62
1922.485	1073.62
1926.722	1081.62
1930.954	1081.62
1935.183	1090.62
1939.408	1091.62
1943.628	1105.62
1947.845	1103.62
1952.058	1100.62
1956.267	1094.62
1960.472	1096.62
1964.673	1077.62
1968.87	1086.62
1973.063	1061.62
1977.252	1052.62
1981.438	1047.62
1985.619	1037.62
1989.797	1048.62
1993.971	1034.62
1998.14	1035.62
2002.306	1033.62
2006.469	1037.62
2010.627	1044.62
2014.781	1042.62
2018.932	1034.62
2023.078	1034.62
2027.221	1004.62
2031.36	1013.62
2035.495	1004.62
2039.627	997.62
2043.754	993.62
2047.878	984.62
2051.998	980.62
2056.114	991.62
2060.226	981.62
2064.334	999.62
2068.439	997.62
2072.54	1009.62
2076.637	1016.62
2080.73	1011.62
2084.82	1002.62
2088.906	1016.62
2092.988	1013.62
2097.066	1016.62
2101.14	1013.62
2105.211	990.62
2109.278	994.62
2113.342	994.62
2117.401	1001.62
2121.457	983.62
2125.509	977.62
2129.558	975.62
2133.602	969.62
2137.643	970.62
2141.681	963.62
2145.714	973.62
2149.744	970.62
2153.77	957.62
2157.793	952.62
2161.812	952.62
2165.827	938.62
2169.838	924.62
2173.846	899.62
2177.851	892.62
2181.851	876.62
2185.848	883.62
2189.841	880.62
2193.831	879.62
2197.817	865.62
2201.799	861.62
2205.778	859.62
2209.753	866.62
2213.725	867.62
2217.693	864.62
2221.657	862.62
2225.618	874.62
2229.575	867.62
2233.529	857.62
2237.479	857.62
2241.425	850.62
2245.368	841.62
2249.307	829.62
2253.243	815.62
2257.175	814.62
2261.104	808.62
2265.029	789.62
2268.95	791.62
2272.868	780.62
2276.783	782.62
2280.694	781.62
2284.601	777.62
2288.505	762.62
2292.405	755.62
2296.302	758.62
2300.195	742.62
2304.085	735.62
2307.971	726.62
2311.854	711.62
2315.734	708.62
2319.609	703.62
2323.482	687.62
2327.351	680.62
2331.216	682.62
2335.078	680.62
2338.937	669.62
2342.792	664.62
2346.643	669.62
2350.492	665.62
2354.336	650.62
2358.178	662.62
2362.015	662.62
2365.85	657.62
2369.681	669.62
2373.508	661.62
2377.333	665.62
2381.153	668.62
2384.971	667.62
2388.785	668.62
2392.595	662.62
2396.402	664.62
2400.206	661.62
2404.007	651.62
2407.804	666.62
2411.597	648.62
2415.388	644.62
2419.174	652.62
2422.958	638.62
2426.738	628.62
2430.515	639.62
2434.289	637.62
2438.059	629.62
2441.825	626.62
2445.589	619.62
2449.349	618.62
2453.106	614.62
2456.859	614.62
2460.61	604.62
2464.356	604.62
2468.1	599.62
2471.84	608.62
2475.577	602.62
2479.311	578.62
2483.041	597.62
2486.768	600.62
2490.492	599.62
2494.213	593.62
2497.93	602.62
2501.644	605.62
2505.355	592.62
2509.062	597.62
2512.766	589.62
2516.467	596.62
2520.165	583.62
2523.859	582.62
2527.551	575.62
2531.239	567.62
2534.923	573.62
2538.605	567.62
2542.283	565.62
2545.958	577.62
2549.63	561.62
2553.299	567.62
2556.964	554.62
2560.626	569.62
2564.285	551.62
2567.941	545.62
2571.594	558.62
2575.243	550.62
2578.89	540.62
2582.533	530.62
2586.173	536.62
2589.809	533.62
2593.443	530.62
2597.073	530.62
2600.701	521.62
2604.325	516.62
2607.946	528.62
2611.564	524.62
2615.178	510.62
2618.79	530.62
2622.398	513.62
2626.004	512.62
2629.606	504.62
2633.205	504.62
2636.801	501.62
2640.394	505.62
2643.983	491.62
2647.57	486.62
2651.153	476.62
2654.734	476.62
2658.311	468.62
2661.885	458.62
2665.456	463.62
2669.025	460.62
2672.589	452.62
2676.151	446.62
2679.71	441.62
2683.266	444.62
2686.819	437.62
2690.368	441.62
2693.915	435.62
2697.458	421.62
2700.999	429.62
2704.536	409.62
2708.071	414.62
2711.602	399.62
2715.13	411.62
2718.656	401.62
2722.178	397.62
2725.697	396.62
2729.214	408.62
2732.727	411.62
2736.237	404.62
2739.744	404.62
2743.249	404.62
2746.75	405.62
2750.248	403.62
2753.743	401.62
2757.236	409.62
2760.725	393.62
2764.211	409.62
2767.695	404.62
2771.175	399.62
2774.652	403.62
2778.127	394.62
2781.598	393.62
2785.067	390.62
2788.532	385.62
2791.995	385.62
2795.455	396.62
2798.911	387.62
2802.365	386.62
2805.816	376.62
2809.264	379.62
2812.709	368.62
2816.151	368.62
2819.59	374.62
2823.026	379.62
2826.46	369.62
2829.89	384.62
2833.318	365.62
2836.742	373.62
2840.164	362.62
2843.583	359.62
2846.999	361.62
2850.412	369.62
2853.822	369.62
2857.229	371.62
2860.634	369.62
2864.035	376.62
2867.434	377.62
2870.83	379.62
2874.223	379.62
2877.613	381.62
2881	371.62
2884.385	363.62
2887.766	359.62
2891.145	363.62
2894.521	361.62
2897.894	367.62
2901.264	361.62
2904.631	352.62
2907.996	360.62
2911.358	367.62
2914.717	360.62
2918.073	361.62
2921.426	353.62
2924.777	363.62
2928.124	359.62
2931.469	365.62
2934.811	364.62
2938.15	367.62
2941.487	374.62
2944.821	375.62
2948.152	367.62
2951.48	383.62
2954.805	383.62
2958.128	377.62
2961.447	376.62
2964.765	384.62
2968.079	386.62
2971.39	385.62
2974.699	392.62
2978.005	394.62
2981.308	400.62
2984.609	413.62
2987.907	409.62
2991.202	426.62
2994.494	424.62
2997.784	436.62
3001.07	437.62
3004.355	462.62
3007.636	456.62
3010.915	455.62
3014.191	459.62
3017.464	469.62
3020.734	463.62
3024.002	464.62
3027.267	473.62
3030.53	483.62
3033.789	481.62
3037.046	489.62
3040.301	487.62
3043.552	491.62
3046.801	507.62
3050.048	518.62
3053.291	517.62
3056.532	534.62
3059.771	541.62
3063.006	564.62
3066.239	560.62
3069.469	579.62
3072.697	593.62
3075.922	586.62
3079.144	604.62
3082.364	619.62
3085.581	632.62
3088.795	636.62
3092.007	658.62
3095.216	664.62
3098.423	679.62
3101.627	687.62
3104.828	700.62
3108.026	709.62
3111.222	720.62
3114.416	740.62
3117.607	746.62
3120.795	756.62
3123.98	769.62
3127.163	787.62
3130.344	802.62
3133.521	827.62
3136.696	830.62
3139.869	836.62
3143.039	853.62
3146.206	852.62
3149.371	869.62
3152.533	877.62
3155.693	899.62
3158.85	884.62
3162.005	899.62
3165.157	903.62
3168.306	904.62
3171.453	897.62
3174.597	893.62
3177.739	907.62
3180.878	906.62
3184.014	916.62
3187.149	911.62
3190.28	902.62
3193.409	898.62
3196.536	912.62
3199.659	918.62
3202.781	915.62
3205.9	912.62
3209.016	924.62
3212.13	906.62
3215.241	905.62
3218.35	903.62
3221.456	911.62
3224.56	899.62
3227.661	887.62
3230.76	880.62
3233.856	870.62
3236.95	862.62
3240.041	861.62
3243.13	838.62
3246.216	840.62
3249.3	838.62
3252.382	827.62
3255.46	832.62
3258.537	820.62
3261.611	814.62
3264.682	812.62
3267.751	820.62
3270.818	821.62
3273.882	813.62
3276.943	819.62
3280.002	810.62
3283.059	794.62
3286.113	797.62
3289.165	778.62
3292.214	759.62
3295.261	747.62
3298.306	749.62
3301.348	737.62
3304.387	714.62
3307.425	709.62
3310.459	688.62
3313.492	672.62
3316.521	678.62
3319.549	668.62
3322.574	663.62
3325.597	652.62
3328.617	649.62
3331.635	646.62
3334.65	644.62
3337.663	639.62
3340.674	625.62
3343.682	630.62
3346.688	620.62
3349.691	642.62
3352.692	625.62
3355.691	628.62
3358.687	614.62
3361.681	602.62
3364.673	593.62
3367.662	593.62
3370.649	588.62
3373.633	575.62
3376.615	578.62
3379.595	573.62
3382.572	553.62
3385.547	548.62
3388.52	538.62
3391.49	534.62
3394.458	527.62
3397.424	512.62
3400.387	511.62
3403.348	510.62
3406.307	496.62
3409.263	502.62
3412.217	485.62
3415.168	483.62
3418.118	480.62
3421.065	476.62
3424.009	475.62
3426.951	456.62
3429.891	447.62
3432.829	447.62
3435.764	441.62
3438.697	431.62
3441.628	422.62
3444.557	410.62
3447.483	401.62
3450.407	392.62
3453.328	379.62
3456.247	364.62
3459.164	356.62
3462.079	355.62
3464.991	340.62
3467.902	326.62
3470.809	313.62
3473.715	311.62
3476.618	302.62
3479.519	295.62
3482.418	283.62
3485.315	276.62
3488.209	266.62
3491.101	262.62
3493.99	257.62
3496.878	248.62
3499.763	237.62
3502.646	234.62
3505.527	222.62
3508.405	222.62
3511.281	214.62
3514.155	202.62
3517.027	186.62
3519.897	179.62
3522.764	175.62
3525.629	165.62
3528.492	158.62
3531.352	150.62
3534.211	139.62
3537.067	136.62
3539.921	123.62
3542.773	124.62
3545.622	118.62
3548.469	112.62
3551.315	107.62
3554.157	97.62
3556.998	87.62
3559.837	87.62
3562.673	78.62
3565.507	77.62
3568.339	74.62
3571.169	66.62
3573.996	55.62
3576.822	56.62
3579.645	51.62
3582.466	46.62
3585.285	42.62
3588.101	37.62
3590.916	31.62
3593.728	33.62
3596.538	26.62
3599.346	20.62
3602.152	19.62
3604.956	14.62
3607.757	16.62
3610.556	9.62
3613.354	4.62
3616.149	5.62
3618.942	2.62
3621.732	-0.38
3624.521	-0.38
3627.307	-9.38
3630.092	-8.38
3632.874	-5.38
3635.654	-14.38
3638.432	-15.38
3641.208	-11.38
3643.982	-13.38
3646.753	-15.38
3649.523	-22.38
3652.29	-21.38
3655.055	-26.38
3657.818	-28.38
3660.579	-32.38
3663.338	-34.38
3666.095	-34.38
3668.849	-33.38
3671.602	-32.38
3674.352	-35.38
3677.101	-46.38
3679.847	-46.38
3682.591	-44.38
3685.333	-42.38
3688.073	-52.38
3690.811	-46.38
3693.547	-49.38
3696.281	-54.38
3699.013	-51.38
3701.742	-48.38
3704.47	-50.38
3707.195	-54.38
3709.919	-55.38
3712.64	-55.38
3715.359	-52.38
3718.076	-56.38
3720.792	-51.38
3723.505	-57.38
3726.216	-61.38
3728.925	-59.38
3731.632	-58.38
3734.336	-52.38
3737.039	-63.38
3739.74	-56.38
3742.439	-63.38
3745.136	-65.38
3747.83	-60.38
3750.523	-61.38
3753.213	-65.38
3755.902	-67.38
3758.589	-71.38
3761.273	-70.38
3763.956	-64.38
3766.636	-69.38
3769.315	-68.38
3771.991	-67.38
3774.665	-66.38
3777.338	-72.38
3780.008	-63.38
3782.677	-68.38
3785.343	-63.38
3788.007	-66.38
3790.67	-66.38
3793.33	-67.38
3795.989	-67.38
3798.645	-69.38
3801.299	-70.38
3803.952	-70.38
3806.602	-71.38
3809.251	-74.38
3811.897	-72.38
3814.542	-75.38
3817.184	-73.38
3819.825	-73.38
3822.463	-78.38
3825.1	-75.38
3827.735	-78.38
3830.367	-77.38
3832.998	-74.38
3835.627	-76.38
3838.253	-73.38
3840.878	-74.38
3843.501	-74.38
3846.122	-74.38
3848.741	-77.38
3851.358	-72.38
3853.973	-74.38
3856.586	-75.38
3859.197	-73.38
3861.806	-71.38
3864.414	-65.38
3867.019	-73.38
3869.622	-72.38
3872.224	-73.38
3874.823	-75.38
3877.421	-76.38
3880.016	-70.38
3882.61	-69.38
3885.202	-71.38
3887.792	-76.38
3890.38	-76.38
3892.966	-79.38
3895.55	-79.38
3898.132	-79.38
3900.713	-82.38
3903.291	-82.38
3905.868	-82.38
3908.442	-80.38
3911.015	-79.38
3913.586	-79.38
3916.155	-75.38
3918.722	-74.38
3921.287	-75.38
3923.85	-79.38
3926.411	-78.38
3928.971	-78.38
3931.528	-76.38
3934.084	-80.38
3936.638	-76.38
3939.19	-80.38
3941.74	-77.38
3944.288	-80.38
3946.834	-77.38
3949.378	-86.38
3951.921	-81.38
3954.462	-86.38
3957	-82.38
3959.537	-83.38
3962.072	-80.38
3964.606	-81.38
3967.137	-82.38
3969.667	-81.38
3972.194	-84.38
3974.72	-85.38
3977.244	-79.38
3979.766	-80.38
3982.286	-80.38
3984.805	-75.38
3987.321	-77.38
3989.836	-73.38
3992.349	-74.38
3994.86	-75.38
3997.369	-80.38
3999.877	-78.38
4002.382	-80.38
4004.886	-77.38
4007.388	-80.38
4009.888	-77.38
4012.386	-74.38
4014.883	-79.38
4017.377	-85.38
4019.87	-81.38
4022.361	-81.38
4024.85	-81.38
4027.338	-82.38
4029.823	-81.38
4032.307	-82.38
4034.789	-80.38
4037.269	-82.38
4039.747	-79.38
4042.224	-81.38
4044.699	-75.38
4047.172	-77.38
4049.643	-80.38
4052.112	-76.38
4054.58	-74.38
4057.046	-73.38
4059.51	-76.38
4061.972	-79.38
4064.432	-79.38
4066.891	-84.38
4069.348	-74.38
4071.803	-78.38
4074.256	-81.38
4076.708	-75.38
4079.158	-79.38
4081.606	-78.38
4084.052	-82.38
4086.497	-80.38
4088.939	-81.38
4091.38	-84.38
4093.819	-83.38
4096.257	-85.38
4098.693	-88.38
4101.127	-85.38
4103.559	-86.38
4105.989	-54.38
4108.418	-51.38
4110.845	-52.38
4113.27	-47.38
4115.694	-42.38
4118.115	-32.38
4120.535	-89.38
4122.954	-85.38
4125.37	-85.38
4127.785	-84.38
4130.198	-82.38
4132.609	-82.38
4135.019	-86.38
4137.427	-87.38
4139.833	-86.38
4142.237	-81.38
