Data from I0.5_T10s_Bsub_water_1-1_1_RamanShift_1.txt Node
Date: Mon Mar 13 14:10:57 IST 2017
User: aro
Spectrometer: QEPB0276
Trigger mode: 0
Integration Time (sec): 1.000000E1
Scans to average: 1
Electric dark correction enabled: true
Nonlinearity correction enabled: false
Boxcar width: 0
XAxis mode: Raman Shifts
Number of Pixels in Spectrum: 1044
>>>>>Begin Spectral Data<<<<<
160.701	-17.5
166.742	3.5
172.777	65.5
178.805	244.5
184.826	737.5
190.841	1549.5
196.849	2483.5
202.85	3094.5
208.845	3250.5
214.833	3181.5
220.815	3091.5
226.789	3050.5
232.758	3022.5
238.719	2961.5
244.674	2894.5
250.623	2823.5
256.565	2724.5
262.5	2629.5
268.429	2565.5
274.351	2501.5
280.267	2470.5
286.176	2417.5
292.079	2360.5
297.975	2325.5
303.865	2265.5
309.748	2218.5
315.625	2173.5
321.495	2141.5
327.359	2101.5
333.217	2085.5
339.068	2062.5
344.912	2061.5
350.751	2048.5
356.583	2030.5
362.408	1999.5
368.227	2014.5
374.04	1983.5
379.847	1993.5
385.647	2011.5
391.44	2000.5
397.228	2002.5
403.009	2009.5
408.784	2010.5
414.553	2007.5
420.315	2020.5
426.071	2018.5
431.821	2009.5
437.565	2010.5
443.302	1993.5
449.033	1996.5
454.758	2005.5
460.477	1995.5
466.189	1981.5
471.896	1966.5
477.596	1967.5
483.29	1964.5
488.978	1964.5
494.66	1940.5
500.335	1937.5
506.005	1910.5
511.668	1886.5
517.325	1852.5
522.977	1856.5
528.622	1816.5
534.261	1818.5
539.894	1799.5
545.521	1790.5
551.141	1801.5
556.756	1787.5
562.365	1802.5
567.968	1772.5
573.565	1769.5
579.155	1770.5
584.74	1754.5
590.319	1766.5
595.892	1744.5
601.459	1727.5
607.02	1734.5
612.575	1712.5
618.124	1699.5
623.667	1699.5
629.204	1688.5
634.735	1672.5
640.261	1663.5
645.781	1653.5
651.294	1666.5
656.802	1653.5
662.304	1650.5
667.8	1657.5
673.29	1647.5
678.775	1665.5
684.254	1659.5
689.726	1645.5
695.193	1662.5
700.655	1639.5
706.11	1611.5
711.56	1619.5
717.004	1627.5
722.442	1606.5
727.874	1615.5
733.301	1588.5
738.722	1624.5
744.137	1584.5
749.547	1590.5
754.951	1604.5
760.349	1603.5
765.741	1601.5
771.128	1616.5
776.509	1608.5
781.885	1610.5
787.254	1602.5
792.618	1604.5
797.977	1606.5
803.33	1587.5
808.677	1572.5
814.019	1573.5
819.355	1550.5
824.686	1559.5
830.011	1560.5
835.33	1557.5
840.644	1556.5
845.952	1552.5
851.255	1550.5
856.552	1559.5
861.844	1560.5
867.13	1566.5
872.41	1542.5
877.686	1563.5
882.955	1535.5
888.219	1504.5
893.478	1497.5
898.731	1500.5
903.979	1476.5
909.221	1476.5
914.458	1462.5
919.69	1473.5
924.916	1477.5
930.136	1483.5
935.351	1496.5
940.561	1499.5
945.766	1488.5
950.965	1495.5
956.158	1468.5
961.347	1458.5
966.529	1452.5
971.707	1435.5
976.879	1411.5
982.046	1386.5
987.208	1403.5
992.364	1415.5
997.515	1400.5
1002.66	1434.5
1007.801	1452.5
1012.936	1458.5
1018.066	1472.5
1023.19	1490.5
1028.309	1481.5
1033.423	1478.5
1038.532	1485.5
1043.636	1457.5
1048.734	1459.5
1053.827	1439.5
1058.915	1437.5
1063.998	1425.5
1069.075	1427.5
1074.147	1429.5
1079.214	1455.5
1084.276	1455.5
1089.333	1453.5
1094.385	1466.5
1099.431	1481.5
1104.472	1502.5
1109.509	1481.5
1114.54	1471.5
1119.565	1461.5
1124.586	1439.5
1129.602	1416.5
1134.613	1426.5
1139.618	1421.5
1144.619	1420.5
1149.614	1417.5
1154.604	1441.5
1159.589	1439.5
1164.57	1427.5
1169.545	1439.5
1174.515	1448.5
1179.48	1432.5
1184.44	1452.5
1189.395	1439.5
1194.345	1441.5
1199.29	1422.5
1204.23	1429.5
1209.165	1430.5
1214.095	1469.5
1219.021	1446.5
1223.941	1480.5
1228.856	1491.5
1233.766	1484.5
1238.672	1509.5
1243.572	1489.5
1248.467	1484.5
1253.358	1464.5
1258.244	1442.5
1263.124	1428.5
1268	1397.5
1272.871	1414.5
1277.737	1383.5
1282.599	1379.5
1287.455	1377.5
1292.306	1388.5
1297.153	1419.5
1301.995	1418.5
1306.832	1439.5
1311.664	1436.5
1316.491	1442.5
1321.314	1433.5
1326.132	1433.5
1330.945	1397.5
1335.753	1382.5
1340.556	1369.5
1345.354	1319.5
1350.148	1319.5
1354.937	1318.5
1359.722	1317.5
1364.501	1330.5
1369.276	1344.5
1374.046	1364.5
1378.811	1388.5
1383.572	1385.5
1388.327	1375.5
1393.079	1361.5
1397.825	1336.5
1402.567	1328.5
1407.304	1306.5
1412.036	1299.5
1416.764	1299.5
1421.487	1293.5
1426.205	1301.5
1430.919	1290.5
1435.628	1331.5
1440.333	1341.5
1445.032	1354.5
1449.727	1354.5
1454.418	1342.5
1459.104	1352.5
1463.785	1350.5
1468.462	1325.5
1473.134	1329.5
1477.802	1296.5
1482.465	1289.5
1487.123	1311.5
1491.777	1306.5
1496.426	1313.5
1501.071	1342.5
1505.711	1335.5
1510.347	1355.5
1514.978	1367.5
1519.604	1379.5
1524.226	1389.5
1528.844	1387.5
1533.457	1377.5
1538.065	1378.5
1542.669	1373.5
1547.269	1378.5
1551.864	1356.5
1556.454	1391.5
1561.041	1385.5
1565.622	1393.5
1570.199	1379.5
1574.772	1407.5
1579.34	1392.5
1583.904	1420.5
1588.464	1418.5
1593.019	1442.5
1597.569	1435.5
1602.115	1437.5
1606.657	1430.5
1611.195	1428.5
1615.728	1420.5
1620.256	1440.5
1624.78	1444.5
1629.3	1455.5
1633.816	1452.5
1638.327	1470.5
1642.834	1500.5
1647.336	1479.5
1651.834	1502.5
1656.328	1527.5
1660.817	1513.5
1665.302	1506.5
1669.783	1473.5
1674.259	1456.5
1678.732	1425.5
1683.199	1392.5
1687.663	1359.5
1692.122	1334.5
1696.577	1278.5
1701.028	1282.5
1705.474	1272.5
1709.917	1278.5
1714.355	1254.5
1718.788	1239.5
1723.218	1243.5
1727.643	1231.5
1732.064	1202.5
1736.481	1191.5
1740.893	1168.5
1745.301	1147.5
1749.705	1137.5
1754.105	1120.5
1758.501	1095.5
1762.893	1063.5
1767.28	1060.5
1771.663	1051.5
1776.042	1054.5
1780.417	1072.5
1784.787	1071.5
1789.154	1084.5
1793.516	1091.5
1797.874	1100.5
1802.228	1099.5
1806.578	1102.5
1810.924	1113.5
1815.266	1095.5
1819.603	1077.5
1823.937	1059.5
1828.266	1040.5
1832.591	1051.5
1836.913	1029.5
1841.23	1019.5
1845.543	1023.5
1849.852	1025.5
1854.156	1022.5
1858.457	1027.5
1862.754	1031.5
1867.047	1036.5
1871.335	1051.5
1875.62	1053.5
1879.9	1042.5
1884.177	1040.5
1888.449	1029.5
1892.718	1031.5
1896.982	1022.5
1901.243	1010.5
1905.499	1011.5
1909.752	1009.5
1914	1018.5
1918.245	1015.5
1922.485	1023.5
1926.722	1033.5
1930.954	1037.5
1935.183	1038.5
1939.408	1042.5
1943.628	1040.5
1947.845	1042.5
1952.058	1049.5
1956.267	1042.5
1960.472	1042.5
1964.673	1033.5
1968.87	1017.5
1973.063	997.5
1977.252	1000.5
1981.438	995.5
1985.619	989.5
1989.797	990.5
1993.971	999.5
1998.14	983.5
2002.306	974.5
2006.469	995.5
2010.627	990.5
2014.781	997.5
2018.932	982.5
2023.078	977.5
2027.221	976.5
2031.36	966.5
2035.495	947.5
2039.627	954.5
2043.754	944.5
2047.878	951.5
2051.998	945.5
2056.114	940.5
2060.226	936.5
2064.334	947.5
2068.439	939.5
2072.54	955.5
2076.637	960.5
2080.73	967.5
2084.82	961.5
2088.906	959.5
2092.988	948.5
2097.066	966.5
2101.14	949.5
2105.211	955.5
2109.278	951.5
2113.342	941.5
2117.401	922.5
2121.457	931.5
2125.509	937.5
2129.558	921.5
2133.602	922.5
2137.643	909.5
2141.681	917.5
2145.714	924.5
2149.744	912.5
2153.77	905.5
2157.793	907.5
2161.812	894.5
2165.827	892.5
2169.838	866.5
2173.846	861.5
2177.851	854.5
2181.851	845.5
2185.848	838.5
2189.841	826.5
2193.831	825.5
2197.817	837.5
2201.799	830.5
2205.778	824.5
2209.753	823.5
2213.725	820.5
2217.693	817.5
2221.657	819.5
2225.618	832.5
2229.575	815.5
2233.529	817.5
2237.479	804.5
2241.425	809.5
2245.368	794.5
2249.307	787.5
2253.243	789.5
2257.175	764.5
2261.104	770.5
2265.029	761.5
2268.95	755.5
2272.868	760.5
2276.783	736.5
2280.694	733.5
2284.601	748.5
2288.505	736.5
2292.405	723.5
2296.302	731.5
2300.195	717.5
2304.085	703.5
2307.971	702.5
2311.854	691.5
2315.734	686.5
2319.609	669.5
2323.482	653.5
2327.351	647.5
2331.216	646.5
2335.078	642.5
2338.937	647.5
2342.792	638.5
2346.643	634.5
2350.492	636.5
2354.336	647.5
2358.178	641.5
2362.015	645.5
2365.85	652.5
2369.681	639.5
2373.508	645.5
2377.333	649.5
2381.153	640.5
2384.971	623.5
2388.785	638.5
2392.595	627.5
2396.402	629.5
2400.206	627.5
2404.007	629.5
2407.804	624.5
2411.597	608.5
2415.388	620.5
2419.174	627.5
2422.958	608.5
2426.738	614.5
2430.515	607.5
2434.289	611.5
2438.059	594.5
2441.825	603.5
2445.589	596.5
2449.349	596.5
2453.106	589.5
2456.859	588.5
2460.61	580.5
2464.356	581.5
2468.1	577.5
2471.84	574.5
2475.577	573.5
2479.311	562.5
2483.041	574.5
2486.768	570.5
2490.492	570.5
2494.213	568.5
2497.93	561.5
2501.644	568.5
2505.355	573.5
2509.062	560.5
2512.766	570.5
2516.467	563.5
2520.165	556.5
2523.859	566.5
2527.551	549.5
2531.239	552.5
2534.923	550.5
2538.605	546.5
2542.283	541.5
2545.958	548.5
2549.63	540.5
2553.299	547.5
2556.964	548.5
2560.626	544.5
2564.285	535.5
2567.941	524.5
2571.594	529.5
2575.243	518.5
2578.89	516.5
2582.533	505.5
2586.173	526.5
2589.809	517.5
2593.443	505.5
2597.073	511.5
2600.701	490.5
2604.325	491.5
2607.946	508.5
2611.564	491.5
2615.178	496.5
2618.79	498.5
2622.398	490.5
2626.004	491.5
2629.606	485.5
2633.205	489.5
2636.801	475.5
2640.394	477.5
2643.983	474.5
2647.57	466.5
2651.153	461.5
2654.734	454.5
2658.311	463.5
2661.885	455.5
2665.456	452.5
2669.025	445.5
2672.589	437.5
2676.151	444.5
2679.71	442.5
2683.266	427.5
2686.819	427.5
2690.368	425.5
2693.915	417.5
2697.458	417.5
2700.999	402.5
2704.536	397.5
2708.071	397.5
2711.602	390.5
2715.13	388.5
2718.656	377.5
2722.178	383.5
2725.697	394.5
2729.214	386.5
2732.727	390.5
2736.237	383.5
2739.744	395.5
2743.249	397.5
2746.75	396.5
2750.248	385.5
2753.743	399.5
2757.236	402.5
2760.725	387.5
2764.211	392.5
2767.695	394.5
2771.175	385.5
2774.652	378.5
2778.127	384.5
2781.598	370.5
2785.067	376.5
2788.532	372.5
2791.995	365.5
2795.455	368.5
2798.911	365.5
2802.365	363.5
2805.816	370.5
2809.264	352.5
2812.709	361.5
2816.151	358.5
2819.59	366.5
2823.026	361.5
2826.46	359.5
2829.89	356.5
2833.318	356.5
2836.742	351.5
2840.164	350.5
2843.583	346.5
2846.999	348.5
2850.412	343.5
2853.822	351.5
2857.229	352.5
2860.634	352.5
2864.035	359.5
2867.434	357.5
2870.83	360.5
2874.223	363.5
2877.613	362.5
2881	350.5
2884.385	349.5
2887.766	358.5
2891.145	351.5
2894.521	344.5
2897.894	350.5
2901.264	348.5
2904.631	340.5
2907.996	344.5
2911.358	337.5
2914.717	343.5
2918.073	333.5
2921.426	345.5
2924.777	340.5
2928.124	341.5
2931.469	345.5
2934.811	345.5
2938.15	352.5
2941.487	353.5
2944.821	353.5
2948.152	344.5
2951.48	346.5
2954.805	348.5
2958.128	344.5
2961.447	353.5
2964.765	358.5
2968.079	355.5
2971.39	352.5
2974.699	358.5
2978.005	367.5
2981.308	359.5
2984.609	363.5
2987.907	377.5
2991.202	388.5
2994.494	377.5
2997.784	381.5
3001.07	396.5
3004.355	409.5
3007.636	403.5
3010.915	411.5
3014.191	411.5
3017.464	414.5
3020.734	428.5
3024.002	428.5
3027.267	420.5
3030.53	428.5
3033.789	440.5
3037.046	439.5
3040.301	437.5
3043.552	446.5
3046.801	452.5
3050.048	446.5
3053.291	458.5
3056.532	472.5
3059.771	465.5
3063.006	489.5
3066.239	501.5
3069.469	509.5
3072.697	514.5
3075.922	519.5
3079.144	529.5
3082.364	540.5
3085.581	549.5
3088.795	558.5
3092.007	578.5
3095.216	586.5
3098.423	587.5
3101.627	598.5
3104.828	615.5
3108.026	614.5
3111.222	626.5
3114.416	639.5
3117.607	642.5
3120.795	654.5
3123.98	673.5
3127.163	682.5
3130.344	696.5
3133.521	693.5
3136.696	714.5
3139.869	727.5
3143.039	739.5
3146.206	741.5
3149.371	741.5
3152.533	757.5
3155.693	763.5
3158.85	754.5
3162.005	764.5
3165.157	770.5
3168.306	771.5
3171.453	764.5
3174.597	774.5
3177.739	775.5
3180.878	776.5
3184.014	768.5
3187.149	767.5
3190.28	764.5
3193.409	774.5
3196.536	779.5
3199.659	788.5
3202.781	780.5
3205.9	785.5
3209.016	777.5
3212.13	784.5
3215.241	784.5
3218.35	762.5
3221.456	745.5
3224.56	754.5
3227.661	739.5
3230.76	751.5
3233.856	740.5
3236.95	724.5
3240.041	733.5
3243.13	709.5
3246.216	719.5
3249.3	717.5
3252.382	699.5
3255.46	692.5
3258.537	707.5
3261.611	699.5
3264.682	695.5
3267.751	690.5
3270.818	684.5
3273.882	683.5
3276.943	695.5
3280.002	689.5
3283.059	676.5
3286.113	675.5
3289.165	655.5
3292.214	646.5
3295.261	638.5
3298.306	622.5
3301.348	616.5
3304.387	605.5
3307.425	602.5
3310.459	590.5
3313.492	585.5
3316.521	581.5
3319.549	562.5
3322.574	556.5
3325.597	555.5
3328.617	551.5
3331.635	546.5
3334.65	535.5
3337.663	541.5
3340.674	527.5
3343.682	534.5
3346.688	535.5
3349.691	526.5
3352.692	523.5
3355.691	527.5
3358.687	523.5
3361.681	504.5
3364.673	502.5
3367.662	504.5
3370.649	492.5
3373.633	496.5
3376.615	482.5
3379.595	478.5
3382.572	481.5
3385.547	468.5
3388.52	452.5
3391.49	451.5
3394.458	438.5
3397.424	445.5
3400.387	431.5
3403.348	427.5
3406.307	421.5
3409.263	422.5
3412.217	410.5
3415.168	409.5
3418.118	403.5
3421.065	404.5
3424.009	392.5
3426.951	380.5
3429.891	381.5
3432.829	381.5
3435.764	375.5
3438.697	361.5
3441.628	362.5
3444.557	345.5
3447.483	337.5
3450.407	334.5
3453.328	322.5
3456.247	308.5
3459.164	307.5
3462.079	296.5
3464.991	287.5
3467.902	272.5
3470.809	270.5
3473.715	258.5
3476.618	257.5
3479.519	251.5
3482.418	244.5
3485.315	233.5
3488.209	236.5
3491.101	219.5
3493.99	217.5
3496.878	205.5
3499.763	205.5
3502.646	201.5
3505.527	188.5
3508.405	184.5
3511.281	173.5
3514.155	171.5
3517.027	162.5
3519.897	150.5
3522.764	149.5
3525.629	144.5
3528.492	135.5
3531.352	127.5
3534.211	118.5
3537.067	120.5
3539.921	102.5
3542.773	101.5
3545.622	98.5
3548.469	97.5
3551.315	87.5
3554.157	85.5
3556.998	79.5
3559.837	70.5
3562.673	66.5
3565.507	62.5
3568.339	60.5
3571.169	59.5
3573.996	55.5
3576.822	43.5
3579.645	42.5
3582.466	40.5
3585.285	38.5
3588.101	31.5
3590.916	32.5
3593.728	30.5
3596.538	22.5
3599.346	22.5
3602.152	19.5
3604.956	9.5
3607.757	12.5
3610.556	5.5
3613.354	3.5
3616.149	1.5
3618.942	3.5
3621.732	-2.5
3624.521	-3.5
3627.307	-2.5
3630.092	-8.5
3632.874	-9.5
3635.654	-8.5
3638.432	-11.5
3641.208	-8.5
3643.982	-16.5
3646.753	-17.5
3649.523	-18.5
3652.29	-20.5
3655.055	-24.5
3657.818	-21.5
3660.579	-26.5
3663.338	-27.5
3666.095	-24.5
3668.849	-28.5
3671.602	-27.5
3674.352	-32.5
3677.101	-38.5
3679.847	-36.5
3682.591	-40.5
3685.333	-35.5
3688.073	-43.5
3690.811	-40.5
3693.547	-44.5
3696.281	-44.5
3699.013	-47.5
3701.742	-44.5
3704.47	-47.5
3707.195	-47.5
3709.919	-43.5
3712.64	-47.5
3715.359	-50.5
3718.076	-39.5
3720.792	-46.5
3723.505	-48.5
3726.216	-49.5
3728.925	-47.5
3731.632	-48.5
3734.336	-44.5
3737.039	-51.5
3739.74	-49.5
3742.439	-49.5
3745.136	-52.5
3747.83	-53.5
3750.523	-54.5
3753.213	-54.5
3755.902	-56.5
3758.589	-60.5
3761.273	-61.5
3763.956	-56.5
3766.636	-58.5
3769.315	-60.5
3771.991	-59.5
3774.665	-57.5
3777.338	-61.5
3780.008	-60.5
3782.677	-59.5
3785.343	-55.5
3788.007	-57.5
3790.67	-62.5
3793.33	-57.5
3795.989	-61.5
3798.645	-54.5
3801.299	-61.5
3803.952	-62.5
3806.602	-60.5
3809.251	-63.5
3811.897	-63.5
3814.542	-60.5
3817.184	-64.5
3819.825	-61.5
3822.463	-65.5
3825.1	-61.5
3827.735	-63.5
3830.367	-64.5
3832.998	-61.5
3835.627	-68.5
3838.253	-64.5
3840.878	-67.5
3843.501	-66.5
3846.122	-63.5
3848.741	-66.5
3851.358	-63.5
3853.973	-64.5
3856.586	-69.5
3859.197	-63.5
3861.806	-58.5
3864.414	-59.5
3867.019	-67.5
3869.622	-63.5
3872.224	-62.5
3874.823	-62.5
3877.421	-63.5
3880.016	-59.5
3882.61	-54.5
3885.202	-61.5
3887.792	-61.5
3890.38	-65.5
3892.966	-61.5
3895.55	-65.5
3898.132	-64.5
3900.713	-67.5
3903.291	-70.5
3905.868	-69.5
3908.442	-69.5
3911.015	-70.5
3913.586	-69.5
3916.155	-67.5
3918.722	-67.5
3921.287	-68.5
3923.85	-67.5
3926.411	-71.5
3928.971	-69.5
3931.528	-70.5
3934.084	-72.5
3936.638	-68.5
3939.19	-68.5
3941.74	-68.5
3944.288	-70.5
3946.834	-68.5
3949.378	-70.5
3951.921	-68.5
3954.462	-69.5
3957	-73.5
3959.537	-64.5
3962.072	-65.5
3964.606	-67.5
3967.137	-69.5
3969.667	-69.5
3972.194	-73.5
3974.72	-67.5
3977.244	-65.5
3979.766	-63.5
3982.286	-68.5
3984.805	-64.5
3987.321	-70.5
3989.836	-64.5
3992.349	-64.5
3994.86	-68.5
3997.369	-73.5
3999.877	-66.5
4002.382	-70.5
4004.886	-67.5
4007.388	-69.5
4009.888	-69.5
4012.386	-67.5
4014.883	-70.5
4017.377	-72.5
4019.87	-69.5
4022.361	-70.5
4024.85	-67.5
4027.338	-73.5
4029.823	-64.5
4032.307	-70.5
4034.789	-67.5
4037.269	-70.5
4039.747	-69.5
4042.224	-70.5
4044.699	-62.5
4047.172	-66.5
4049.643	-66.5
4052.112	-69.5
4054.58	-67.5
4057.046	-66.5
4059.51	-63.5
4061.972	-68.5
4064.432	-64.5
4066.891	-72.5
4069.348	-66.5
4071.803	-63.5
4074.256	-70.5
4076.708	-67.5
4079.158	-64.5
4081.606	-68.5
4084.052	-70.5
4086.497	-68.5
4088.939	-65.5
4091.38	-74.5
4093.819	-70.5
4096.257	-73.5
4098.693	-74.5
4101.127	-72.5
4103.559	-72.5
4105.989	-44.5
4108.418	-41.5
4110.845	-42.5
4113.27	-41.5
4115.694	-37.5
4118.115	-24.5
4120.535	-73.5
4122.954	-74.5
4125.37	-73.5
4127.785	-72.5
4130.198	-73.5
4132.609	-73.5
4135.019	-76.5
4137.427	-74.5
4139.833	-74.5
4142.237	-70.5
