Data from I0.5_T10s_Bsub_water_0_3_RamanShift_1.txt Node
Date: Mon Mar 13 14:02:17 IST 2017
User: aro
Spectrometer: QEPB0276
Trigger mode: 0
Integration Time (sec): 1.000000E1
Scans to average: 1
Electric dark correction enabled: true
Nonlinearity correction enabled: false
Boxcar width: 0
XAxis mode: Raman Shifts
Number of Pixels in Spectrum: 1044
>>>>>Begin Spectral Data<<<<<
160.701	-19.5
166.742	-1.5
172.777	77.5
178.805	293.5
184.826	842.5
190.841	1785.5
196.849	2892.5
202.85	3615.5
208.845	3796.5
214.833	3695.5
220.815	3581.5
226.789	3532.5
232.758	3477.5
238.719	3406.5
244.674	3337.5
250.623	3239.5
256.565	3129.5
262.5	3040.5
268.429	2964.5
274.351	2883.5
280.267	2830.5
286.176	2762.5
292.079	2720.5
297.975	2635.5
303.865	2599.5
309.748	2533.5
315.625	2466.5
321.495	2416.5
327.359	2410.5
333.217	2350.5
339.068	2332.5
344.912	2302.5
350.751	2286.5
356.583	2282.5
362.408	2246.5
368.227	2263.5
374.04	2243.5
379.847	2256.5
385.647	2248.5
391.44	2244.5
397.228	2252.5
403.009	2260.5
408.784	2256.5
414.553	2243.5
420.315	2270.5
426.071	2251.5
431.821	2255.5
437.565	2237.5
443.302	2243.5
449.033	2220.5
454.758	2217.5
460.477	2212.5
466.189	2214.5
471.896	2208.5
477.596	2191.5
483.29	2182.5
488.978	2174.5
494.66	2165.5
500.335	2146.5
506.005	2139.5
511.668	2086.5
517.325	2055.5
522.977	2036.5
528.622	2037.5
534.261	1991.5
539.894	2005.5
545.521	1996.5
551.141	1980.5
556.756	1989.5
562.365	1984.5
567.968	1963.5
573.565	1955.5
579.155	1952.5
584.74	1957.5
590.319	1936.5
595.892	1927.5
601.459	1928.5
607.02	1903.5
612.575	1897.5
618.124	1890.5
623.667	1875.5
629.204	1868.5
634.735	1855.5
640.261	1854.5
645.781	1831.5
651.294	1838.5
656.802	1849.5
662.304	1831.5
667.8	1828.5
673.29	1830.5
678.775	1814.5
684.254	1832.5
689.726	1820.5
695.193	1802.5
700.655	1804.5
706.11	1817.5
711.56	1802.5
717.004	1788.5
722.442	1765.5
727.874	1777.5
733.301	1778.5
738.722	1761.5
744.137	1751.5
749.547	1764.5
754.951	1751.5
760.349	1755.5
765.741	1754.5
771.128	1777.5
776.509	1776.5
781.885	1790.5
787.254	1796.5
792.618	1783.5
797.977	1779.5
803.33	1763.5
808.677	1744.5
814.019	1761.5
819.355	1723.5
824.686	1740.5
830.011	1736.5
835.33	1725.5
840.644	1725.5
845.952	1716.5
851.255	1731.5
856.552	1736.5
861.844	1727.5
867.13	1716.5
872.41	1724.5
877.686	1730.5
882.955	1704.5
888.219	1701.5
893.478	1668.5
898.731	1657.5
903.979	1633.5
909.221	1632.5
914.458	1632.5
919.69	1627.5
924.916	1634.5
930.136	1641.5
935.351	1649.5
940.561	1656.5
945.766	1660.5
950.965	1655.5
956.158	1642.5
961.347	1645.5
966.529	1617.5
971.707	1594.5
976.879	1582.5
982.046	1564.5
987.208	1564.5
992.364	1558.5
997.515	1570.5
1002.66	1590.5
1007.801	1593.5
1012.936	1625.5
1018.066	1649.5
1023.19	1638.5
1028.309	1652.5
1033.423	1637.5
1038.532	1638.5
1043.636	1622.5
1048.734	1626.5
1053.827	1615.5
1058.915	1612.5
1063.998	1588.5
1069.075	1606.5
1074.147	1595.5
1079.214	1628.5
1084.276	1613.5
1089.333	1645.5
1094.385	1669.5
1099.431	1662.5
1104.472	1668.5
1109.509	1658.5
1114.54	1653.5
1119.565	1643.5
1124.586	1618.5
1129.602	1594.5
1134.613	1608.5
1139.618	1578.5
1144.619	1576.5
1149.614	1592.5
1154.604	1603.5
1159.589	1597.5
1164.57	1626.5
1169.545	1635.5
1174.515	1650.5
1179.48	1621.5
1184.44	1620.5
1189.395	1619.5
1194.345	1602.5
1199.29	1600.5
1204.23	1602.5
1209.165	1620.5
1214.095	1633.5
1219.021	1650.5
1223.941	1634.5
1228.856	1668.5
1233.766	1681.5
1238.672	1679.5
1243.572	1677.5
1248.467	1690.5
1253.358	1658.5
1258.244	1639.5
1263.124	1620.5
1268	1613.5
1272.871	1580.5
1277.737	1575.5
1282.599	1575.5
1287.455	1568.5
1292.306	1594.5
1297.153	1618.5
1301.995	1625.5
1306.832	1620.5
1311.664	1630.5
1316.491	1643.5
1321.314	1635.5
1326.132	1609.5
1330.945	1587.5
1335.753	1586.5
1340.556	1552.5
1345.354	1533.5
1350.148	1519.5
1354.937	1511.5
1359.722	1528.5
1364.501	1523.5
1369.276	1534.5
1374.046	1565.5
1378.811	1583.5
1383.572	1570.5
1388.327	1565.5
1393.079	1539.5
1397.825	1535.5
1402.567	1509.5
1407.304	1499.5
1412.036	1498.5
1416.764	1470.5
1421.487	1483.5
1426.205	1483.5
1430.919	1503.5
1435.628	1514.5
1440.333	1523.5
1445.032	1542.5
1449.727	1548.5
1454.418	1559.5
1459.104	1557.5
1463.785	1536.5
1468.462	1533.5
1473.134	1498.5
1477.802	1502.5
1482.465	1497.5
1487.123	1499.5
1491.777	1505.5
1496.426	1510.5
1501.071	1520.5
1505.711	1535.5
1510.347	1552.5
1514.978	1570.5
1519.604	1582.5
1524.226	1593.5
1528.844	1596.5
1533.457	1609.5
1538.065	1602.5
1542.669	1590.5
1547.269	1603.5
1551.864	1581.5
1556.454	1585.5
1561.041	1599.5
1565.622	1586.5
1570.199	1588.5
1574.772	1613.5
1579.34	1618.5
1583.904	1644.5
1588.464	1655.5
1593.019	1664.5
1597.569	1669.5
1602.115	1662.5
1606.657	1650.5
1611.195	1659.5
1615.728	1644.5
1620.256	1636.5
1624.78	1670.5
1629.3	1686.5
1633.816	1683.5
1638.327	1703.5
1642.834	1744.5
1647.336	1734.5
1651.834	1748.5
1656.328	1762.5
1660.817	1756.5
1665.302	1747.5
1669.783	1728.5
1674.259	1682.5
1678.732	1659.5
1683.199	1610.5
1687.663	1586.5
1692.122	1526.5
1696.577	1500.5
1701.028	1514.5
1705.474	1489.5
1709.917	1465.5
1714.355	1469.5
1718.788	1450.5
1723.218	1430.5
1727.643	1421.5
1732.064	1395.5
1736.481	1394.5
1740.893	1365.5
1745.301	1330.5
1749.705	1303.5
1754.105	1300.5
1758.501	1257.5
1762.893	1259.5
1767.28	1236.5
1771.663	1227.5
1776.042	1237.5
1780.417	1243.5
1784.787	1247.5
1789.154	1277.5
1793.516	1285.5
1797.874	1284.5
1802.228	1288.5
1806.578	1298.5
1810.924	1289.5
1815.266	1275.5
1819.603	1266.5
1823.937	1248.5
1828.266	1229.5
1832.591	1212.5
1836.913	1218.5
1841.23	1205.5
1845.543	1195.5
1849.852	1195.5
1854.156	1206.5
1858.457	1202.5
1862.754	1204.5
1867.047	1215.5
1871.335	1214.5
1875.62	1206.5
1879.9	1225.5
1884.177	1220.5
1888.449	1219.5
1892.718	1211.5
1896.982	1202.5
1901.243	1209.5
1905.499	1199.5
1909.752	1211.5
1914	1208.5
1918.245	1203.5
1922.485	1193.5
1926.722	1211.5
1930.954	1216.5
1935.183	1215.5
1939.408	1236.5
1943.628	1218.5
1947.845	1240.5
1952.058	1248.5
1956.267	1244.5
1960.472	1228.5
1964.673	1192.5
1968.87	1218.5
1973.063	1181.5
1977.252	1187.5
1981.438	1185.5
1985.619	1172.5
1989.797	1169.5
1993.971	1154.5
1998.14	1162.5
2002.306	1166.5
2006.469	1161.5
2010.627	1154.5
2014.781	1169.5
2018.932	1160.5
2023.078	1160.5
2027.221	1157.5
2031.36	1141.5
2035.495	1127.5
2039.627	1114.5
2043.754	1109.5
2047.878	1103.5
2051.998	1116.5
2056.114	1111.5
2060.226	1118.5
2064.334	1106.5
2068.439	1128.5
2072.54	1123.5
2076.637	1143.5
2080.73	1125.5
2084.82	1139.5
2088.906	1124.5
2092.988	1150.5
2097.066	1132.5
2101.14	1133.5
2105.211	1113.5
2109.278	1130.5
2113.342	1114.5
2117.401	1106.5
2121.457	1105.5
2125.509	1121.5
2129.558	1094.5
2133.602	1094.5
2137.643	1084.5
2141.681	1086.5
2145.714	1087.5
2149.744	1081.5
2153.77	1096.5
2157.793	1075.5
2161.812	1055.5
2165.827	1058.5
2169.838	1026.5
2173.846	1018.5
2177.851	1017.5
2181.851	998.5
2185.848	987.5
2189.841	987.5
2193.831	983.5
2197.817	979.5
2201.799	982.5
2205.778	967.5
2209.753	976.5
2213.725	984.5
2217.693	985.5
2221.657	987.5
2225.618	980.5
2229.575	977.5
2233.529	977.5
2237.479	965.5
2241.425	972.5
2245.368	943.5
2249.307	946.5
2253.243	929.5
2257.175	912.5
2261.104	914.5
2265.029	896.5
2268.95	896.5
2272.868	892.5
2276.783	888.5
2280.694	885.5
2284.601	869.5
2288.505	863.5
2292.405	863.5
2296.302	858.5
2300.195	843.5
2304.085	839.5
2307.971	831.5
2311.854	809.5
2315.734	811.5
2319.609	804.5
2323.482	780.5
2327.351	770.5
2331.216	779.5
2335.078	761.5
2338.937	764.5
2342.792	765.5
2346.643	763.5
2350.492	755.5
2354.336	749.5
2358.178	771.5
2362.015	762.5
2365.85	764.5
2369.681	761.5
2373.508	752.5
2377.333	767.5
2381.153	763.5
2384.971	759.5
2388.785	763.5
2392.595	756.5
2396.402	745.5
2400.206	757.5
2404.007	750.5
2407.804	735.5
2411.597	733.5
2415.388	737.5
2419.174	726.5
2422.958	737.5
2426.738	747.5
2430.515	730.5
2434.289	731.5
2438.059	723.5
2441.825	729.5
2445.589	728.5
2449.349	724.5
2453.106	716.5
2456.859	700.5
2460.61	697.5
2464.356	690.5
2468.1	685.5
2471.84	684.5
2475.577	695.5
2479.311	684.5
2483.041	687.5
2486.768	699.5
2490.492	680.5
2494.213	683.5
2497.93	688.5
2501.644	670.5
2505.355	680.5
2509.062	686.5
2512.766	683.5
2516.467	679.5
2520.165	680.5
2523.859	681.5
2527.551	683.5
2531.239	667.5
2534.923	658.5
2538.605	659.5
2542.283	657.5
2545.958	649.5
2549.63	659.5
2553.299	651.5
2556.964	660.5
2560.626	648.5
2564.285	639.5
2567.941	631.5
2571.594	640.5
2575.243	641.5
2578.89	634.5
2582.533	629.5
2586.173	620.5
2589.809	620.5
2593.443	601.5
2597.073	607.5
2600.701	604.5
2604.325	602.5
2607.946	599.5
2611.564	598.5
2615.178	602.5
2618.79	596.5
2622.398	597.5
2626.004	594.5
2629.606	589.5
2633.205	587.5
2636.801	576.5
2640.394	575.5
2643.983	587.5
2647.57	564.5
2651.153	560.5
2654.734	551.5
2658.311	552.5
2661.885	543.5
2665.456	555.5
2669.025	542.5
2672.589	534.5
2676.151	533.5
2679.71	531.5
2683.266	514.5
2686.819	520.5
2690.368	514.5
2693.915	510.5
2697.458	487.5
2700.999	487.5
2704.536	481.5
2708.071	481.5
2711.602	467.5
2715.13	465.5
2718.656	464.5
2722.178	454.5
2725.697	469.5
2729.214	466.5
2732.727	469.5
2736.237	458.5
2739.744	470.5
2743.249	473.5
2746.75	472.5
2750.248	480.5
2753.743	479.5
2757.236	474.5
2760.725	476.5
2764.211	477.5
2767.695	468.5
2771.175	461.5
2774.652	460.5
2778.127	466.5
2781.598	449.5
2785.067	457.5
2788.532	446.5
2791.995	449.5
2795.455	459.5
2798.911	439.5
2802.365	446.5
2805.816	432.5
2809.264	443.5
2812.709	434.5
2816.151	421.5
2819.59	438.5
2823.026	434.5
2826.46	436.5
2829.89	429.5
2833.318	421.5
2836.742	433.5
2840.164	424.5
2843.583	428.5
2846.999	424.5
2850.412	431.5
2853.822	428.5
2857.229	437.5
2860.634	415.5
2864.035	435.5
2867.434	432.5
2870.83	434.5
2874.223	433.5
2877.613	426.5
2881	428.5
2884.385	430.5
2887.766	421.5
2891.145	417.5
2894.521	409.5
2897.894	414.5
2901.264	419.5
2904.631	413.5
2907.996	406.5
2911.358	406.5
2914.717	405.5
2918.073	404.5
2921.426	407.5
2924.777	410.5
2928.124	399.5
2931.469	413.5
2934.811	421.5
2938.15	415.5
2941.487	419.5
2944.821	407.5
2948.152	414.5
2951.48	424.5
2954.805	415.5
2958.128	422.5
2961.447	422.5
2964.765	417.5
2968.079	426.5
2971.39	430.5
2974.699	437.5
2978.005	437.5
2981.308	441.5
2984.609	440.5
2987.907	455.5
2991.202	458.5
2994.494	465.5
2997.784	473.5
3001.07	470.5
3004.355	482.5
3007.636	487.5
3010.915	488.5
3014.191	490.5
3017.464	506.5
3020.734	501.5
3024.002	500.5
3027.267	509.5
3030.53	510.5
3033.789	511.5
3037.046	511.5
3040.301	530.5
3043.552	527.5
3046.801	527.5
3050.048	542.5
3053.291	546.5
3056.532	566.5
3059.771	577.5
3063.006	584.5
3066.239	588.5
3069.469	601.5
3072.697	614.5
3075.922	626.5
3079.144	640.5
3082.364	645.5
3085.581	657.5
3088.795	652.5
3092.007	675.5
3095.216	684.5
3098.423	700.5
3101.627	707.5
3104.828	715.5
3108.026	719.5
3111.222	732.5
3114.416	751.5
3117.607	764.5
3120.795	770.5
3123.98	800.5
3127.163	806.5
3130.344	825.5
3133.521	825.5
3136.696	856.5
3139.869	865.5
3143.039	884.5
3146.206	881.5
3149.371	887.5
3152.533	889.5
3155.693	914.5
3158.85	904.5
3162.005	900.5
3165.157	912.5
3168.306	900.5
3171.453	913.5
3174.597	910.5
3177.739	910.5
3180.878	904.5
3184.014	902.5
3187.149	912.5
3190.28	907.5
3193.409	922.5
3196.536	912.5
3199.659	914.5
3202.781	924.5
3205.9	920.5
3209.016	937.5
3212.13	921.5
3215.241	915.5
3218.35	918.5
3221.456	901.5
3224.56	895.5
3227.661	886.5
3230.76	881.5
3233.856	872.5
3236.95	873.5
3240.041	855.5
3243.13	845.5
3246.216	843.5
3249.3	831.5
3252.382	836.5
3255.46	824.5
3258.537	830.5
3261.611	829.5
3264.682	824.5
3267.751	824.5
3270.818	813.5
3273.882	809.5
3276.943	818.5
3280.002	804.5
3283.059	791.5
3286.113	781.5
3289.165	765.5
3292.214	761.5
3295.261	753.5
3298.306	739.5
3301.348	724.5
3304.387	713.5
3307.425	714.5
3310.459	700.5
3313.492	684.5
3316.521	672.5
3319.549	670.5
3322.574	658.5
3325.597	655.5
3328.617	645.5
3331.635	642.5
3334.65	635.5
3337.663	644.5
3340.674	647.5
3343.682	639.5
3346.688	635.5
3349.691	629.5
3352.692	623.5
3355.691	625.5
3358.687	613.5
3361.681	602.5
3364.673	604.5
3367.662	586.5
3370.649	581.5
3373.633	571.5
3376.615	570.5
3379.595	564.5
3382.572	559.5
3385.547	543.5
3388.52	534.5
3391.49	539.5
3394.458	522.5
3397.424	519.5
3400.387	513.5
3403.348	520.5
3406.307	509.5
3409.263	495.5
3412.217	489.5
3415.168	488.5
3418.118	481.5
3421.065	460.5
3424.009	463.5
3426.951	456.5
3429.891	449.5
3432.829	443.5
3435.764	435.5
3438.697	424.5
3441.628	417.5
3444.557	409.5
3447.483	401.5
3450.407	388.5
3453.328	378.5
3456.247	372.5
3459.164	362.5
3462.079	350.5
3464.991	340.5
3467.902	331.5
3470.809	312.5
3473.715	308.5
3476.618	298.5
3479.519	286.5
3482.418	286.5
3485.315	282.5
3488.209	269.5
3491.101	259.5
3493.99	258.5
3496.878	248.5
3499.763	234.5
3502.646	229.5
3505.527	221.5
3508.405	218.5
3511.281	203.5
3514.155	201.5
3517.027	190.5
3519.897	179.5
3522.764	173.5
3525.629	170.5
3528.492	159.5
3531.352	147.5
3534.211	139.5
3537.067	141.5
3539.921	131.5
3542.773	123.5
3545.622	119.5
3548.469	107.5
3551.315	106.5
3554.157	94.5
3556.998	92.5
3559.837	83.5
3562.673	71.5
3565.507	71.5
3568.339	73.5
3571.169	64.5
3573.996	61.5
3576.822	51.5
3579.645	49.5
3582.466	49.5
3585.285	37.5
3588.101	38.5
3590.916	35.5
3593.728	35.5
3596.538	34.5
3599.346	27.5
3602.152	22.5
3604.956	20.5
3607.757	20.5
3610.556	18.5
3613.354	12.5
3616.149	14.5
3618.942	2.5
3621.732	-0.5
3624.521	-0.5
3627.307	-5.5
3630.092	-5.5
3632.874	-8.5
3635.654	-7.5
3638.432	-16.5
3641.208	-17.5
3643.982	-18.5
3646.753	-17.5
3649.523	-22.5
3652.29	-25.5
3655.055	-25.5
3657.818	-29.5
3660.579	-27.5
3663.338	-28.5
3666.095	-31.5
3668.849	-35.5
3671.602	-34.5
3674.352	-32.5
3677.101	-40.5
3679.847	-38.5
3682.591	-38.5
3685.333	-34.5
3688.073	-48.5
3690.811	-44.5
3693.547	-44.5
3696.281	-47.5
3699.013	-50.5
3701.742	-46.5
3704.47	-49.5
3707.195	-53.5
3709.919	-51.5
3712.64	-52.5
3715.359	-52.5
3718.076	-54.5
3720.792	-54.5
3723.505	-59.5
3726.216	-59.5
3728.925	-58.5
3731.632	-60.5
3734.336	-53.5
3737.039	-60.5
3739.74	-61.5
3742.439	-63.5
3745.136	-63.5
3747.83	-61.5
3750.523	-59.5
3753.213	-60.5
3755.902	-65.5
3758.589	-69.5
3761.273	-69.5
3763.956	-62.5
3766.636	-64.5
3769.315	-67.5
3771.991	-65.5
3774.665	-65.5
3777.338	-69.5
3780.008	-63.5
3782.677	-67.5
3785.343	-61.5
3788.007	-65.5
3790.67	-68.5
3793.33	-68.5
3795.989	-68.5
3798.645	-67.5
3801.299	-71.5
3803.952	-70.5
3806.602	-72.5
3809.251	-75.5
3811.897	-74.5
3814.542	-73.5
3817.184	-72.5
3819.825	-69.5
3822.463	-73.5
3825.1	-73.5
3827.735	-77.5
3830.367	-79.5
3832.998	-72.5
3835.627	-75.5
3838.253	-71.5
3840.878	-75.5
3843.501	-70.5
3846.122	-73.5
3848.741	-76.5
3851.358	-71.5
3853.973	-72.5
3856.586	-75.5
3859.197	-68.5
3861.806	-70.5
3864.414	-72.5
3867.019	-74.5
3869.622	-72.5
3872.224	-75.5
3874.823	-75.5
3877.421	-75.5
3880.016	-71.5
3882.61	-70.5
3885.202	-68.5
3887.792	-68.5
3890.38	-79.5
3892.966	-76.5
3895.55	-77.5
3898.132	-80.5
3900.713	-81.5
3903.291	-85.5
3905.868	-82.5
3908.442	-76.5
3911.015	-82.5
3913.586	-76.5
3916.155	-72.5
3918.722	-75.5
3921.287	-76.5
3923.85	-76.5
3926.411	-76.5
3928.971	-77.5
3931.528	-76.5
3934.084	-75.5
3936.638	-77.5
3939.19	-82.5
3941.74	-79.5
3944.288	-78.5
3946.834	-82.5
3949.378	-85.5
3951.921	-84.5
3954.462	-81.5
3957	-85.5
3959.537	-78.5
3962.072	-82.5
3964.606	-82.5
3967.137	-82.5
3969.667	-80.5
3972.194	-84.5
3974.72	-83.5
3977.244	-80.5
3979.766	-76.5
3982.286	-77.5
3984.805	-75.5
3987.321	-81.5
3989.836	-72.5
3992.349	-75.5
3994.86	-77.5
3997.369	-81.5
3999.877	-77.5
4002.382	-78.5
4004.886	-76.5
4007.388	-85.5
4009.888	-76.5
4012.386	-78.5
4014.883	-79.5
4017.377	-82.5
4019.87	-79.5
4022.361	-80.5
4024.85	-77.5
4027.338	-82.5
4029.823	-78.5
4032.307	-83.5
4034.789	-80.5
4037.269	-84.5
4039.747	-81.5
4042.224	-83.5
4044.699	-81.5
4047.172	-80.5
4049.643	-80.5
4052.112	-80.5
4054.58	-78.5
4057.046	-77.5
4059.51	-77.5
4061.972	-80.5
4064.432	-80.5
4066.891	-83.5
4069.348	-74.5
4071.803	-79.5
4074.256	-80.5
4076.708	-76.5
4079.158	-74.5
4081.606	-76.5
4084.052	-81.5
4086.497	-82.5
4088.939	-79.5
4091.38	-83.5
4093.819	-81.5
4096.257	-80.5
4098.693	-86.5
4101.127	-87.5
4103.559	-85.5
4105.989	-55.5
4108.418	-50.5
4110.845	-48.5
4113.27	-45.5
4115.694	-36.5
4118.115	-31.5
4120.535	-83.5
4122.954	-84.5
4125.37	-84.5
4127.785	-81.5
4130.198	-83.5
4132.609	-83.5
4135.019	-86.5
4137.427	-90.5
4139.833	-88.5
4142.237	-84.5
