Data from I0.5_T5s_Bsub_water_1-10^4_3_RamanShift_1.txt Node
Date: Mon Mar 13 13:49:55 IST 2017
User: aro
Spectrometer: QEPB0276
Trigger mode: 0
Integration Time (sec): 5.000000E0
Scans to average: 1
Electric dark correction enabled: true
Nonlinearity correction enabled: false
Boxcar width: 0
XAxis mode: Raman Shifts
Number of Pixels in Spectrum: 1044
>>>>>Begin Spectral Data<<<<<
160.701	-11.75
166.742	0.25
172.777	32.25
178.805	148.25
184.826	433.25
190.841	904.25
196.849	1466.25
202.85	1817.25
208.845	1913.25
214.833	1853.25
220.815	1806.25
226.789	1771.25
232.758	1744.25
238.719	1717.25
244.674	1649.25
250.623	1608.25
256.565	1551.25
262.5	1493.25
268.429	1476.25
274.351	1419.25
280.267	1375.25
286.176	1340.25
292.079	1325.25
297.975	1295.25
303.865	1247.25
309.748	1226.25
315.625	1201.25
321.495	1175.25
327.359	1163.25
333.217	1137.25
339.068	1127.25
344.912	1121.25
350.751	1122.25
356.583	1102.25
362.408	1104.25
368.227	1092.25
374.04	1084.25
379.847	1094.25
385.647	1095.25
391.44	1097.25
397.228	1092.25
403.009	1091.25
408.784	1105.25
414.553	1099.25
420.315	1095.25
426.071	1099.25
431.821	1086.25
437.565	1082.25
443.302	1089.25
449.033	1090.25
454.758	1087.25
460.477	1070.25
466.189	1071.25
471.896	1071.25
477.596	1057.25
483.29	1061.25
488.978	1073.25
494.66	1051.25
500.335	1039.25
506.005	1030.25
511.668	1009.25
517.325	1003.25
522.977	998.25
528.622	984.25
534.261	975.25
539.894	969.25
545.521	956.25
551.141	973.25
556.756	959.25
562.365	949.25
567.968	950.25
573.565	947.25
579.155	946.25
584.74	946.25
590.319	935.25
595.892	933.25
601.459	928.25
607.02	927.25
612.575	914.25
618.124	924.25
623.667	893.25
629.204	899.25
634.735	894.25
640.261	881.25
645.781	887.25
651.294	871.25
656.802	878.25
662.304	884.25
667.8	867.25
673.29	878.25
678.775	867.25
684.254	861.25
689.726	881.25
695.193	868.25
700.655	858.25
706.11	863.25
711.56	865.25
717.004	857.25
722.442	849.25
727.874	843.25
733.301	859.25
738.722	849.25
744.137	840.25
749.547	842.25
754.951	846.25
760.349	838.25
765.741	838.25
771.128	845.25
776.509	829.25
781.885	857.25
787.254	843.25
792.618	844.25
797.977	842.25
803.33	830.25
808.677	828.25
814.019	834.25
819.355	825.25
824.686	806.25
830.011	819.25
835.33	805.25
840.644	819.25
845.952	813.25
851.255	825.25
856.552	824.25
861.844	806.25
867.13	812.25
872.41	816.25
877.686	813.25
882.955	808.25
888.219	804.25
893.478	796.25
898.731	776.25
903.979	772.25
909.221	753.25
914.458	764.25
919.69	769.25
924.916	767.25
930.136	760.25
935.351	773.25
940.561	775.25
945.766	769.25
950.965	767.25
956.158	773.25
961.347	758.25
966.529	750.25
971.707	763.25
976.879	733.25
982.046	732.25
987.208	726.25
992.364	731.25
997.515	735.25
1002.66	739.25
1007.801	747.25
1012.936	760.25
1018.066	763.25
1023.19	770.25
1028.309	768.25
1033.423	761.25
1038.532	770.25
1043.636	755.25
1048.734	757.25
1053.827	759.25
1058.915	742.25
1063.998	739.25
1069.075	729.25
1074.147	737.25
1079.214	744.25
1084.276	748.25
1089.333	761.25
1094.385	754.25
1099.431	775.25
1104.472	762.25
1109.509	773.25
1114.54	764.25
1119.565	744.25
1124.586	736.25
1129.602	747.25
1134.613	737.25
1139.618	736.25
1144.619	727.25
1149.614	745.25
1154.604	739.25
1159.589	747.25
1164.57	750.25
1169.545	756.25
1174.515	755.25
1179.48	754.25
1184.44	756.25
1189.395	738.25
1194.345	738.25
1199.29	733.25
1204.23	738.25
1209.165	745.25
1214.095	755.25
1219.021	759.25
1223.941	761.25
1228.856	774.25
1233.766	779.25
1238.672	761.25
1243.572	760.25
1248.467	769.25
1253.358	763.25
1258.244	746.25
1263.124	740.25
1268	731.25
1272.871	726.25
1277.737	734.25
1282.599	717.25
1287.455	729.25
1292.306	730.25
1297.153	735.25
1301.995	745.25
1306.832	756.25
1311.664	753.25
1316.491	748.25
1321.314	755.25
1326.132	730.25
1330.945	723.25
1335.753	711.25
1340.556	708.25
1345.354	692.25
1350.148	691.25
1354.937	683.25
1359.722	693.25
1364.501	684.25
1369.276	710.25
1374.046	720.25
1378.811	716.25
1383.572	737.25
1388.327	728.25
1393.079	715.25
1397.825	710.25
1402.567	704.25
1407.304	686.25
1412.036	675.25
1416.764	674.25
1421.487	687.25
1426.205	680.25
1430.919	683.25
1435.628	683.25
1440.333	689.25
1445.032	692.25
1449.727	705.25
1454.418	714.25
1459.104	706.25
1463.785	696.25
1468.462	691.25
1473.134	694.25
1477.802	679.25
1482.465	669.25
1487.123	672.25
1491.777	682.25
1496.426	685.25
1501.071	701.25
1505.711	713.25
1510.347	709.25
1514.978	721.25
1519.604	718.25
1524.226	732.25
1528.844	735.25
1533.457	740.25
1538.065	737.25
1542.669	731.25
1547.269	740.25
1551.864	746.25
1556.454	726.25
1561.041	727.25
1565.622	734.25
1570.199	736.25
1574.772	744.25
1579.34	741.25
1583.904	758.25
1588.464	753.25
1593.019	767.25
1597.569	768.25
1602.115	759.25
1606.657	758.25
1611.195	764.25
1615.728	767.25
1620.256	765.25
1624.78	765.25
1629.3	788.25
1633.816	788.25
1638.327	797.25
1642.834	806.25
1647.336	802.25
1651.834	824.25
1656.328	820.25
1660.817	820.25
1665.302	800.25
1669.783	802.25
1674.259	779.25
1678.732	760.25
1683.199	750.25
1687.663	724.25
1692.122	702.25
1696.577	685.25
1701.028	682.25
1705.474	683.25
1709.917	683.25
1714.355	665.25
1718.788	665.25
1723.218	647.25
1727.643	637.25
1732.064	626.25
1736.481	626.25
1740.893	611.25
1745.301	601.25
1749.705	601.25
1754.105	586.25
1758.501	572.25
1762.893	561.25
1767.28	556.25
1771.663	552.25
1776.042	550.25
1780.417	570.25
1784.787	558.25
1789.154	574.25
1793.516	571.25
1797.874	575.25
1802.228	573.25
1806.578	577.25
1810.924	587.25
1815.266	568.25
1819.603	563.25
1823.937	559.25
1828.266	552.25
1832.591	538.25
1836.913	528.25
1841.23	544.25
1845.543	540.25
1849.852	537.25
1854.156	527.25
1858.457	541.25
1862.754	533.25
1867.047	543.25
1871.335	539.25
1875.62	545.25
1879.9	550.25
1884.177	539.25
1888.449	540.25
1892.718	547.25
1896.982	538.25
1901.243	543.25
1905.499	533.25
1909.752	537.25
1914	541.25
1918.245	533.25
1922.485	529.25
1926.722	537.25
1930.954	541.25
1935.183	541.25
1939.408	548.25
1943.628	544.25
1947.845	541.25
1952.058	550.25
1956.267	544.25
1960.472	551.25
1964.673	536.25
1968.87	528.25
1973.063	533.25
1977.252	531.25
1981.438	526.25
1985.619	521.25
1989.797	531.25
1993.971	522.25
1998.14	521.25
2002.306	523.25
2006.469	522.25
2010.627	522.25
2014.781	521.25
2018.932	515.25
2023.078	518.25
2027.221	509.25
2031.36	504.25
2035.495	508.25
2039.627	507.25
2043.754	503.25
2047.878	485.25
2051.998	504.25
2056.114	505.25
2060.226	499.25
2064.334	498.25
2068.439	494.25
2072.54	506.25
2076.637	498.25
2080.73	512.25
2084.82	511.25
2088.906	510.25
2092.988	504.25
2097.066	504.25
2101.14	507.25
2105.211	494.25
2109.278	500.25
2113.342	495.25
2117.401	498.25
2121.457	493.25
2125.509	495.25
2129.558	497.25
2133.602	486.25
2137.643	502.25
2141.681	492.25
2145.714	491.25
2149.744	491.25
2153.77	482.25
2157.793	489.25
2161.812	480.25
2165.827	469.25
2169.838	466.25
2173.846	460.25
2177.851	454.25
2181.851	452.25
2185.848	450.25
2189.841	441.25
2193.831	435.25
2197.817	433.25
2201.799	429.25
2205.778	429.25
2209.753	432.25
2213.725	431.25
2217.693	433.25
2221.657	433.25
2225.618	426.25
2229.575	425.25
2233.529	429.25
2237.479	428.25
2241.425	428.25
2245.368	414.25
2249.307	415.25
2253.243	413.25
2257.175	411.25
2261.104	411.25
2265.029	406.25
2268.95	399.25
2272.868	397.25
2276.783	389.25
2280.694	389.25
2284.601	374.25
2288.505	389.25
2292.405	375.25
2296.302	380.25
2300.195	372.25
2304.085	364.25
2307.971	363.25
2311.854	353.25
2315.734	358.25
2319.609	348.25
2323.482	339.25
2327.351	337.25
2331.216	346.25
2335.078	333.25
2338.937	334.25
2342.792	334.25
2346.643	336.25
2350.492	344.25
2354.336	337.25
2358.178	341.25
2362.015	336.25
2365.85	331.25
2369.681	335.25
2373.508	334.25
2377.333	339.25
2381.153	329.25
2384.971	328.25
2388.785	330.25
2392.595	334.25
2396.402	329.25
2400.206	330.25
2404.007	320.25
2407.804	322.25
2411.597	331.25
2415.388	324.25
2419.174	308.25
2422.958	309.25
2426.738	315.25
2430.515	319.25
2434.289	307.25
2438.059	328.25
2441.825	319.25
2445.589	309.25
2449.349	309.25
2453.106	310.25
2456.859	307.25
2460.61	297.25
2464.356	290.25
2468.1	299.25
2471.84	295.25
2475.577	295.25
2479.311	287.25
2483.041	295.25
2486.768	298.25
2490.492	297.25
2494.213	296.25
2497.93	293.25
2501.644	294.25
2505.355	296.25
2509.062	299.25
2512.766	298.25
2516.467	297.25
2520.165	298.25
2523.859	293.25
2527.551	288.25
2531.239	285.25
2534.923	291.25
2538.605	283.25
2542.283	285.25
2545.958	278.25
2549.63	281.25
2553.299	281.25
2556.964	281.25
2560.626	269.25
2564.285	263.25
2567.941	278.25
2571.594	266.25
2575.243	273.25
2578.89	269.25
2582.533	267.25
2586.173	271.25
2589.809	259.25
2593.443	268.25
2597.073	263.25
2600.701	257.25
2604.325	255.25
2607.946	262.25
2611.564	259.25
2615.178	262.25
2618.79	264.25
2622.398	266.25
2626.004	255.25
2629.606	245.25
2633.205	250.25
2636.801	247.25
2640.394	255.25
2643.983	245.25
2647.57	233.25
2651.153	241.25
2654.734	238.25
2658.311	231.25
2661.885	229.25
2665.456	226.25
2669.025	229.25
2672.589	227.25
2676.151	219.25
2679.71	220.25
2683.266	225.25
2686.819	218.25
2690.368	226.25
2693.915	215.25
2697.458	211.25
2700.999	211.25
2704.536	215.25
2708.071	209.25
2711.602	209.25
2715.13	204.25
2718.656	204.25
2722.178	205.25
2725.697	198.25
2729.214	201.25
2732.727	202.25
2736.237	201.25
2739.744	208.25
2743.249	208.25
2746.75	199.25
2750.248	198.25
2753.743	197.25
2757.236	202.25
2760.725	200.25
2764.211	192.25
2767.695	202.25
2771.175	197.25
2774.652	198.25
2778.127	196.25
2781.598	202.25
2785.067	193.25
2788.532	191.25
2791.995	192.25
2795.455	190.25
2798.911	200.25
2802.365	192.25
2805.816	197.25
2809.264	193.25
2812.709	193.25
2816.151	185.25
2819.59	187.25
2823.026	187.25
2826.46	184.25
2829.89	183.25
2833.318	179.25
2836.742	178.25
2840.164	173.25
2843.583	184.25
2846.999	179.25
2850.412	181.25
2853.822	177.25
2857.229	179.25
2860.634	183.25
2864.035	182.25
2867.434	179.25
2870.83	190.25
2874.223	185.25
2877.613	189.25
2881	191.25
2884.385	184.25
2887.766	182.25
2891.145	187.25
2894.521	182.25
2897.894	191.25
2901.264	182.25
2904.631	187.25
2907.996	180.25
2911.358	185.25
2914.717	176.25
2918.073	177.25
2921.426	180.25
2924.777	182.25
2928.124	179.25
2931.469	185.25
2934.811	186.25
2938.15	182.25
2941.487	185.25
2944.821	193.25
2948.152	189.25
2951.48	184.25
2954.805	187.25
2958.128	197.25
2961.447	191.25
2964.765	191.25
2968.079	194.25
2971.39	198.25
2974.699	193.25
2978.005	202.25
2981.308	207.25
2984.609	200.25
2987.907	213.25
2991.202	213.25
2994.494	219.25
2997.784	218.25
3001.07	226.25
3004.355	231.25
3007.636	234.25
3010.915	228.25
3014.191	237.25
3017.464	231.25
3020.734	238.25
3024.002	229.25
3027.267	240.25
3030.53	242.25
3033.789	242.25
3037.046	247.25
3040.301	249.25
3043.552	259.25
3046.801	257.25
3050.048	261.25
3053.291	269.25
3056.532	277.25
3059.771	279.25
3063.006	283.25
3066.239	287.25
3069.469	301.25
3072.697	308.25
3075.922	312.25
3079.144	325.25
3082.364	320.25
3085.581	331.25
3088.795	323.25
3092.007	335.25
3095.216	343.25
3098.423	343.25
3101.627	363.25
3104.828	362.25
3108.026	372.25
3111.222	368.25
3114.416	371.25
3117.607	384.25
3120.795	397.25
3123.98	397.25
3127.163	407.25
3130.344	412.25
3133.521	417.25
3136.696	433.25
3139.869	433.25
3143.039	445.25
3146.206	452.25
3149.371	459.25
3152.533	455.25
3155.693	465.25
3158.85	458.25
3162.005	459.25
3165.157	459.25
3168.306	468.25
3171.453	461.25
3174.597	463.25
3177.739	469.25
3180.878	464.25
3184.014	464.25
3187.149	459.25
3190.28	473.25
3193.409	470.25
3196.536	476.25
3199.659	470.25
3202.781	471.25
3205.9	470.25
3209.016	475.25
3212.13	465.25
3215.241	458.25
3218.35	468.25
3221.456	460.25
3224.56	457.25
3227.661	448.25
3230.76	450.25
3233.856	445.25
3236.95	442.25
3240.041	440.25
3243.13	430.25
3246.216	442.25
3249.3	431.25
3252.382	425.25
3255.46	427.25
3258.537	424.25
3261.611	418.25
3264.682	419.25
3267.751	412.25
3270.818	417.25
3273.882	421.25
3276.943	412.25
3280.002	407.25
3283.059	402.25
3286.113	395.25
3289.165	388.25
3292.214	392.25
3295.261	384.25
3298.306	378.25
3301.348	372.25
3304.387	368.25
3307.425	356.25
3310.459	356.25
3313.492	351.25
3316.521	352.25
3319.549	342.25
3322.574	334.25
3325.597	341.25
3328.617	334.25
3331.635	334.25
3334.65	328.25
3337.663	331.25
3340.674	319.25
3343.682	317.25
3346.688	315.25
3349.691	316.25
3352.692	324.25
3355.691	322.25
3358.687	308.25
3361.681	311.25
3364.673	309.25
3367.662	301.25
3370.649	300.25
3373.633	290.25
3376.615	293.25
3379.595	283.25
3382.572	283.25
3385.547	283.25
3388.52	276.25
3391.49	269.25
3394.458	270.25
3397.424	262.25
3400.387	264.25
3403.348	258.25
3406.307	253.25
3409.263	259.25
3412.217	246.25
3415.168	242.25
3418.118	246.25
3421.065	245.25
3424.009	237.25
3426.951	234.25
3429.891	231.25
3432.829	231.25
3435.764	217.25
3438.697	225.25
3441.628	215.25
3444.557	200.25
3447.483	205.25
3450.407	195.25
3453.328	188.25
3456.247	180.25
3459.164	175.25
3462.079	178.25
3464.991	169.25
3467.902	168.25
3470.809	162.25
3473.715	158.25
3476.618	148.25
3479.519	143.25
3482.418	142.25
3485.315	141.25
3488.209	132.25
3491.101	130.25
3493.99	127.25
3496.878	125.25
3499.763	121.25
3502.646	117.25
3505.527	115.25
3508.405	110.25
3511.281	108.25
3514.155	105.25
3517.027	93.25
3519.897	93.25
3522.764	89.25
3525.629	85.25
3528.492	79.25
3531.352	74.25
3534.211	70.25
3537.067	70.25
3539.921	62.25
3542.773	54.25
3545.622	53.25
3548.469	42.25
3551.315	43.25
3554.157	45.25
3556.998	44.25
3559.837	41.25
3562.673	35.25
3565.507	37.25
3568.339	34.25
3571.169	35.25
3573.996	33.25
3576.822	26.25
3579.645	29.25
3582.466	28.25
3585.285	24.25
3588.101	19.25
3590.916	21.25
3593.728	18.25
3596.538	12.25
3599.346	11.25
3602.152	10.25
3604.956	8.25
3607.757	4.25
3610.556	1.25
3613.354	7.25
3616.149	3.25
3618.942	-5.75
3621.732	-6.75
3624.521	-4.75
3627.307	-8.75
3630.092	-2.75
3632.874	-5.75
3635.654	-5.75
3638.432	-9.75
3641.208	-6.75
3643.982	-8.75
3646.753	-9.75
3649.523	-7.75
3652.29	-9.75
3655.055	-8.75
3657.818	-13.75
3660.579	-14.75
3663.338	-14.75
3666.095	-17.75
3668.849	-15.75
3671.602	-16.75
3674.352	-17.75
3677.101	-23.75
3679.847	-23.75
3682.591	-23.75
3685.333	-23.75
3688.073	-23.75
3690.811	-25.75
3693.547	-26.75
3696.281	-23.75
3699.013	-28.75
3701.742	-27.75
3704.47	-26.75
3707.195	-26.75
3709.919	-26.75
3712.64	-29.75
3715.359	-31.75
3718.076	-29.75
3720.792	-28.75
3723.505	-28.75
3726.216	-28.75
3728.925	-29.75
3731.632	-29.75
3734.336	-28.75
3737.039	-31.75
3739.74	-34.75
3742.439	-33.75
3745.136	-34.75
3747.83	-32.75
3750.523	-32.75
3753.213	-30.75
3755.902	-33.75
3758.589	-28.75
3761.273	-29.75
3763.956	-30.75
3766.636	-32.75
3769.315	-32.75
3771.991	-33.75
3774.665	-35.75
3777.338	-33.75
3780.008	-33.75
3782.677	-32.75
3785.343	-31.75
3788.007	-39.75
3790.67	-40.75
3793.33	-39.75
3795.989	-36.75
3798.645	-38.75
3801.299	-37.75
3803.952	-40.75
3806.602	-38.75
3809.251	-35.75
3811.897	-40.75
3814.542	-33.75
3817.184	-37.75
3819.825	-35.75
3822.463	-36.75
3825.1	-32.75
3827.735	-35.75
3830.367	-38.75
3832.998	-31.75
3835.627	-33.75
3838.253	-35.75
3840.878	-34.75
3843.501	-36.75
3846.122	-33.75
3848.741	-37.75
3851.358	-33.75
3853.973	-37.75
3856.586	-36.75
3859.197	-37.75
3861.806	-39.75
3864.414	-40.75
3867.019	-41.75
3869.622	-40.75
3872.224	-39.75
3874.823	-40.75
3877.421	-36.75
3880.016	-40.75
3882.61	-40.75
3885.202	-34.75
3887.792	-36.75
3890.38	-38.75
3892.966	-39.75
3895.55	-39.75
3898.132	-38.75
3900.713	-39.75
3903.291	-32.75
3905.868	-35.75
3908.442	-40.75
3911.015	-42.75
3913.586	-38.75
3916.155	-40.75
3918.722	-39.75
3921.287	-40.75
3923.85	-38.75
3926.411	-41.75
3928.971	-38.75
3931.528	-42.75
3934.084	-44.75
3936.638	-42.75
3939.19	-40.75
3941.74	-41.75
3944.288	-42.75
3946.834	-43.75
3949.378	-40.75
3951.921	-40.75
3954.462	-41.75
3957	-41.75
3959.537	-39.75
3962.072	-38.75
3964.606	-35.75
3967.137	-38.75
3969.667	-35.75
3972.194	-39.75
3974.72	-38.75
3977.244	-38.75
3979.766	-36.75
3982.286	-37.75
3984.805	-37.75
3987.321	-39.75
3989.836	-36.75
3992.349	-39.75
3994.86	-41.75
3997.369	-40.75
3999.877	-40.75
4002.382	-40.75
4004.886	-40.75
4007.388	-42.75
4009.888	-42.75
4012.386	-39.75
4014.883	-42.75
4017.377	-40.75
4019.87	-40.75
4022.361	-40.75
4024.85	-41.75
4027.338	-38.75
4029.823	-34.75
4032.307	-37.75
4034.789	-40.75
4037.269	-41.75
4039.747	-40.75
4042.224	-34.75
4044.699	-38.75
4047.172	-41.75
4049.643	-39.75
4052.112	-35.75
4054.58	-39.75
4057.046	-37.75
4059.51	-36.75
4061.972	-39.75
4064.432	-39.75
4066.891	-38.75
4069.348	-40.75
4071.803	-43.75
4074.256	-42.75
4076.708	-43.75
4079.158	-42.75
4081.606	-41.75
4084.052	-42.75
4086.497	-39.75
4088.939	-42.75
4091.38	-43.75
4093.819	-36.75
4096.257	-40.75
4098.693	-38.75
4101.127	-43.75
4103.559	-42.75
4105.989	-28.75
4108.418	-26.75
4110.845	-20.75
4113.27	-19.75
4115.694	-20.75
4118.115	-17.75
4120.535	-40.75
4122.954	-38.75
4125.37	-36.75
4127.785	-39.75
4130.198	-37.75
4132.609	-39.75
4135.019	-43.75
4137.427	-42.75
4139.833	-39.75
4142.237	-42.75
