Data from I0.5_T15s_Bsub_water_1-1_2_RamanShift_1.txt Node
Date: Mon Mar 13 14:32:32 IST 2017
User: aro
Spectrometer: QEPB0276
Trigger mode: 0
Integration Time (sec): 1.500000E1
Scans to average: 1
Electric dark correction enabled: true
Nonlinearity correction enabled: false
Boxcar width: 0
XAxis mode: Raman Shifts
Number of Pixels in Spectrum: 1044
>>>>>Begin Spectral Data<<<<<
160.701	-25.25
166.742	-0.25
172.777	93.75
178.805	368.75
184.826	1085.75
190.841	2314.75
196.849	3698.75
202.85	4577.75
208.845	4825.75
214.833	4697.75
220.815	4546.75
226.789	4487.75
232.758	4396.75
238.719	4279.75
244.674	4054.75
250.623	3798.75
256.565	3517.75
262.5	3322.75
268.429	3252.75
274.351	3398.75
280.267	3524.75
286.176	3466.75
292.079	3425.75
297.975	3336.75
303.865	3246.75
309.748	3192.75
315.625	3124.75
321.495	3052.75
327.359	3021.75
333.217	2987.75
339.068	2974.75
344.912	2939.75
350.751	2941.75
356.583	2899.75
362.408	2894.75
368.227	2882.75
374.04	2871.75
379.847	2854.75
385.647	2808.75
391.44	2630.75
397.228	2302.75
403.009	2008.75
408.784	1677.75
414.553	1102.75
420.315	528.75
426.071	1213.75
431.821	2391.75
437.565	2801.75
443.302	2866.75
449.033	2864.75
454.758	2850.75
460.477	2855.75
466.189	2840.75
471.896	2833.75
477.596	2830.75
483.29	2842.75
488.978	2834.75
494.66	2805.75
500.335	2759.75
506.005	2742.75
511.668	2689.75
517.325	2683.75
522.977	2633.75
528.622	2609.75
534.261	2576.75
539.894	2567.75
545.521	2542.75
551.141	2554.75
556.756	2529.75
562.365	2528.75
567.968	2500.75
573.565	2512.75
579.155	2520.75
584.74	2488.75
590.319	2510.75
595.892	2490.75
601.459	2472.75
607.02	2477.75
612.575	2448.75
618.124	2402.75
623.667	2397.75
629.204	2360.75
634.735	2184.75
640.261	2032.75
645.781	2051.75
651.294	2184.75
656.802	2353.75
662.304	2363.75
667.8	2342.75
673.29	2336.75
678.775	2357.75
684.254	2336.75
689.726	2318.75
695.193	2338.75
700.655	2327.75
706.11	2318.75
711.56	2311.75
717.004	2304.75
722.442	2271.75
727.874	2272.75
733.301	2270.75
738.722	2276.75
744.137	2267.75
749.547	2269.75
754.951	2271.75
760.349	2264.75
765.741	2263.75
771.128	2265.75
776.509	2279.75
781.885	2264.75
787.254	2294.75
792.618	2276.75
797.977	2257.75
803.33	2252.75
808.677	2243.75
814.019	2244.75
819.355	2207.75
824.686	2187.75
830.011	2177.75
835.33	2132.75
840.644	1853.75
845.952	1457.75
851.255	1369.75
856.552	1667.75
861.844	1813.75
867.13	1291.75
872.41	798.75
877.686	1188.75
882.955	1865.75
888.219	2093.75
893.478	2129.75
898.731	2104.75
903.979	2082.75
909.221	2092.75
914.458	2088.75
919.69	2075.75
924.916	2084.75
930.136	2098.75
935.351	2099.75
940.561	2109.75
945.766	2087.75
950.965	2101.75
956.158	2089.75
961.347	2061.75
966.529	2060.75
971.707	2016.75
976.879	1995.75
982.046	1980.75
987.208	1961.75
992.364	1945.75
997.515	1906.75
1002.66	1739.75
1007.801	1614.75
1012.936	1789.75
1018.066	2042.75
1023.19	2098.75
1028.309	2099.75
1033.423	2116.75
1038.532	2118.75
1043.636	2103.75
1048.734	2068.75
1053.827	2049.75
1058.915	2028.75
1063.998	2036.75
1069.075	2029.75
1074.147	2029.75
1079.214	2039.75
1084.276	2072.75
1089.333	2079.75
1094.385	2111.75
1099.431	2129.75
1104.472	2132.75
1109.509	2102.75
1114.54	2094.75
1119.565	2048.75
1124.586	2045.75
1129.602	2018.75
1134.613	2014.75
1139.618	2004.75
1144.619	2006.75
1149.614	1998.75
1154.604	2012.75
1159.589	2042.75
1164.57	2047.75
1169.545	2047.75
1174.515	2083.75
1179.48	2029.75
1184.44	2051.75
1189.395	2043.75
1194.345	2032.75
1199.29	1975.75
1204.23	1924.75
1209.165	1966.75
1214.095	2040.75
1219.021	2088.75
1223.941	2110.75
1228.856	2144.75
1233.766	2129.75
1238.672	2134.75
1243.572	2142.75
1248.467	2109.75
1253.358	2101.75
1258.244	2056.75
1263.124	2043.75
1268	1984.75
1272.871	1967.75
1277.737	1973.75
1282.599	1975.75
1287.455	1996.75
1292.306	2010.75
1297.153	2012.75
1301.995	2038.75
1306.832	2047.75
1311.664	2043.75
1316.491	2075.75
1321.314	2056.75
1326.132	2029.75
1330.945	2022.75
1335.753	1996.75
1340.556	1945.75
1345.354	1906.75
1350.148	1894.75
1354.937	1905.75
1359.722	1902.75
1364.501	1921.75
1369.276	1977.75
1374.046	1951.75
1378.811	1964.75
1383.572	1981.75
1388.327	1969.75
1393.079	1967.75
1397.825	1930.75
1402.567	1898.75
1407.304	1884.75
1412.036	1868.75
1416.764	1870.75
1421.487	1862.75
1426.205	1860.75
1430.919	1903.75
1435.628	1896.75
1440.333	1941.75
1445.032	1941.75
1449.727	1948.75
1454.418	1938.75
1459.104	1939.75
1463.785	1926.75
1468.462	1901.75
1473.134	1891.75
1477.802	1869.75
1482.465	1875.75
1487.123	1878.75
1491.777	1877.75
1496.426	1875.75
1501.071	1905.75
1505.711	1928.75
1510.347	1950.75
1514.978	1952.75
1519.604	1988.75
1524.226	2005.75
1528.844	1999.75
1533.457	2020.75
1538.065	2010.75
1542.669	1997.75
1547.269	1998.75
1551.864	1968.75
1556.454	1976.75
1561.041	1983.75
1565.622	1999.75
1570.199	2011.75
1574.772	2025.75
1579.34	2037.75
1583.904	2056.75
1588.464	2067.75
1593.019	2091.75
1597.569	2090.75
1602.115	2073.75
1606.657	2098.75
1611.195	2091.75
1615.728	2089.75
1620.256	2088.75
1624.78	2097.75
1629.3	2125.75
1633.816	2149.75
1638.327	2145.75
1642.834	2183.75
1647.336	2203.75
1651.834	2234.75
1656.328	2220.75
1660.817	2209.75
1665.302	2186.75
1669.783	2151.75
1674.259	2112.75
1678.732	2077.75
1683.199	2039.75
1687.663	1976.75
1692.122	1925.75
1696.577	1872.75
1701.028	1873.75
1705.474	1869.75
1709.917	1859.75
1714.355	1832.75
1718.788	1803.75
1723.218	1771.75
1727.643	1757.75
1732.064	1732.75
1736.481	1710.75
1740.893	1685.75
1745.301	1676.75
1749.705	1624.75
1754.105	1567.75
1758.501	1541.75
1762.893	1513.75
1767.28	1442.75
1771.663	1285.75
1776.042	450.75
1780.417	-560.25
1784.787	-52.25
1789.154	1158.75
1793.516	1461.75
1797.874	1550.75
1802.228	1564.75
1806.578	1569.75
1810.924	1568.75
1815.266	1548.75
1819.603	1570.75
1823.937	1535.75
1828.266	1514.75
1832.591	1498.75
1836.913	1499.75
1841.23	1485.75
1845.543	1493.75
1849.852	1470.75
1854.156	1482.75
1858.457	1480.75
1862.754	1470.75
1867.047	1483.75
1871.335	1493.75
1875.62	1496.75
1879.9	1498.75
1884.177	1501.75
1888.449	1469.75
1892.718	1437.75
1896.982	1218.75
1901.243	996.75
1905.499	1095.75
1909.752	1383.75
1914	1427.75
1918.245	1445.75
1922.485	1449.75
1926.722	1468.75
1930.954	1493.75
1935.183	1503.75
1939.408	1511.75
1943.628	1498.75
1947.845	1520.75
1952.058	1529.75
1956.267	1541.75
1960.472	1510.75
1964.673	1497.75
1968.87	1493.75
1973.063	1455.75
1977.252	1461.75
1981.438	1427.75
1985.619	1431.75
1989.797	1428.75
1993.971	1437.75
1998.14	1423.75
2002.306	1441.75
2006.469	1455.75
2010.627	1455.75
2014.781	1462.75
2018.932	1437.75
2023.078	1449.75
2027.221	1428.75
2031.36	1417.75
2035.495	1402.75
2039.627	1389.75
2043.754	1378.75
2047.878	1372.75
2051.998	1338.75
2056.114	1348.75
2060.226	1384.75
2064.334	1390.75
2068.439	1398.75
2072.54	1408.75
2076.637	1404.75
2080.73	1413.75
2084.82	1414.75
2088.906	1424.75
2092.988	1410.75
2097.066	1412.75
2101.14	1403.75
2105.211	1393.75
2109.278	1393.75
2113.342	1390.75
2117.401	1385.75
2121.457	1392.75
2125.509	1377.75
2129.558	1356.75
2133.602	1354.75
2137.643	1356.75
2141.681	1338.75
2145.714	1344.75
2149.744	1338.75
2153.77	1344.75
2157.793	1335.75
2161.812	1320.75
2165.827	1302.75
2169.838	1288.75
2173.846	1274.75
2177.851	1260.75
2181.851	1249.75
2185.848	1241.75
2189.841	1216.75
2193.831	1219.75
2197.817	1218.75
2201.799	1206.75
2205.778	1208.75
2209.753	1213.75
2213.725	1207.75
2217.693	1202.75
2221.657	1198.75
2225.618	1193.75
2229.575	1217.75
2233.529	1215.75
2237.479	1193.75
2241.425	1191.75
2245.368	1179.75
2249.307	1164.75
2253.243	1171.75
2257.175	1154.75
2261.104	1127.75
2265.029	1134.75
2268.95	1117.75
2272.868	1117.75
2276.783	1112.75
2280.694	1079.75
2284.601	1083.75
2288.505	1059.75
2292.405	1054.75
2296.302	1053.75
2300.195	1025.75
2304.085	1022.75
2307.971	1015.75
2311.854	1010.75
2315.734	992.75
2319.609	977.75
2323.482	967.75
2327.351	962.75
2331.216	943.75
2335.078	944.75
2338.937	935.75
2342.792	924.75
2346.643	930.75
2350.492	933.75
2354.336	923.75
2358.178	930.75
2362.015	930.75
2365.85	929.75
2369.681	923.75
2373.508	910.75
2377.333	904.75
2381.153	850.75
2384.971	636.75
2388.785	571.75
2392.595	742.75
2396.402	857.75
2400.206	883.75
2404.007	879.75
2407.804	888.75
2411.597	882.75
2415.388	876.75
2419.174	872.75
2422.958	882.75
2426.738	865.75
2430.515	874.75
2434.289	879.75
2438.059	872.75
2441.825	866.75
2445.589	878.75
2449.349	861.75
2453.106	854.75
2456.859	860.75
2460.61	851.75
2464.356	836.75
2468.1	834.75
2471.84	815.75
2475.577	826.75
2479.311	829.75
2483.041	817.75
2486.768	818.75
2490.492	821.75
2494.213	823.75
2497.93	826.75
2501.644	828.75
2505.355	824.75
2509.062	826.75
2512.766	836.75
2516.467	799.75
2520.165	745.75
2523.859	743.75
2527.551	780.75
2531.239	775.75
2534.923	771.75
2538.605	773.75
2542.283	768.75
2545.958	783.75
2549.63	774.75
2553.299	778.75
2556.964	776.75
2560.626	779.75
2564.285	775.75
2567.941	754.75
2571.594	759.75
2575.243	750.75
2578.89	745.75
2582.533	746.75
2586.173	757.75
2589.809	748.75
2593.443	735.75
2597.073	722.75
2600.701	718.75
2604.325	714.75
2607.946	708.75
2611.564	710.75
2615.178	718.75
2618.79	719.75
2622.398	731.75
2626.004	718.75
2629.606	714.75
2633.205	707.75
2636.801	700.75
2640.394	691.75
2643.983	679.75
2647.57	691.75
2651.153	663.75
2654.734	660.75
2658.311	650.75
2661.885	634.75
2665.456	638.75
2669.025	629.75
2672.589	623.75
2676.151	622.75
2679.71	611.75
2683.266	617.75
2686.819	613.75
2690.368	590.75
2693.915	596.75
2697.458	587.75
2700.999	575.75
2704.536	575.75
2708.071	567.75
2711.602	564.75
2715.13	568.75
2718.656	552.75
2722.178	547.75
2725.697	545.75
2729.214	540.75
2732.727	546.75
2736.237	544.75
2739.744	541.75
2743.249	552.75
2746.75	554.75
2750.248	560.75
2753.743	554.75
2757.236	546.75
2760.725	558.75
2764.211	551.75
2767.695	544.75
2771.175	534.75
2774.652	528.75
2778.127	530.75
2781.598	525.75
2785.067	512.75
2788.532	499.75
2791.995	497.75
2795.455	479.75
2798.911	477.75
2802.365	485.75
2805.816	468.75
2809.264	475.75
2812.709	461.75
2816.151	452.75
2819.59	444.75
2823.026	446.75
2826.46	433.75
2829.89	417.75
2833.318	403.75
2836.742	397.75
2840.164	387.75
2843.583	358.75
2846.999	342.75
2850.412	308.75
2853.822	291.75
2857.229	231.75
2860.634	186.75
2864.035	109.75
2867.434	3.75
2870.83	-206.25
2874.223	-981.25
2877.613	-2729.25
2881	-2984.25
2884.385	-1370.25
2887.766	-309.25
2891.145	-60.25
2894.521	75.75
2897.894	149.75
2901.264	216.75
2904.631	262.75
2907.996	295.75
2911.358	330.75
2914.717	345.75
2918.073	356.75
2921.426	385.75
2924.777	379.75
2928.124	393.75
2931.469	405.75
2934.811	408.75
2938.15	394.75
2941.487	402.75
2944.821	382.75
2948.152	387.75
2951.48	381.75
2954.805	391.75
2958.128	405.75
2961.447	411.75
2964.765	424.75
2968.079	436.75
2971.39	461.75
2974.699	470.75
2978.005	468.75
2981.308	488.75
2984.609	484.75
2987.907	476.75
2991.202	476.75
2994.494	475.75
2997.784	474.75
3001.07	465.75
3004.355	453.75
3007.636	458.75
3010.915	468.75
3014.191	500.75
3017.464	529.75
3020.734	555.75
3024.002	568.75
3027.267	582.75
3030.53	592.75
3033.789	595.75
3037.046	609.75
3040.301	630.75
3043.552	617.75
3046.801	631.75
3050.048	656.75
3053.291	642.75
3056.532	653.75
3059.771	646.75
3063.006	661.75
3066.239	649.75
3069.469	648.75
3072.697	670.75
3075.922	684.75
3079.144	706.75
3082.364	746.75
3085.581	778.75
3088.795	799.75
3092.007	823.75
3095.216	843.75
3098.423	850.75
3101.627	872.75
3104.828	877.75
3108.026	902.75
3111.222	913.75
3114.416	908.75
3117.607	925.75
3120.795	950.75
3123.98	961.75
3127.163	946.75
3130.344	968.75
3133.521	974.75
3136.696	1009.75
3139.869	1036.75
3143.039	1036.75
3146.206	1077.75
3149.371	1088.75
3152.533	1098.75
3155.693	1122.75
3158.85	1107.75
3162.005	1122.75
3165.157	1127.75
3168.306	1120.75
3171.453	1120.75
3174.597	1107.75
3177.739	1090.75
3180.878	1061.75
3184.014	1054.75
3187.149	1041.75
3190.28	1008.75
3193.409	1036.75
3196.536	1047.75
3199.659	1072.75
3202.781	1089.75
3205.9	1106.75
3209.016	1122.75
3212.13	1143.75
3215.241	1135.75
3218.35	1128.75
3221.456	1110.75
3224.56	1108.75
3227.661	1085.75
3230.76	1064.75
3233.856	1054.75
3236.95	1040.75
3240.041	1005.75
3243.13	974.75
3246.216	967.75
3249.3	974.75
3252.382	967.75
3255.46	962.75
3258.537	1003.75
3261.611	996.75
3264.682	998.75
3267.751	1018.75
3270.818	1027.75
3273.882	1014.75
3276.943	1011.75
3280.002	988.75
3283.059	991.75
3286.113	979.75
3289.165	959.75
3292.214	955.75
3295.261	930.75
3298.306	908.75
3301.348	870.75
3304.387	830.75
3307.425	803.75
3310.459	798.75
3313.492	804.75
3316.521	790.75
3319.549	800.75
3322.574	794.75
3325.597	798.75
3328.617	787.75
3331.635	799.75
3334.65	781.75
3337.663	785.75
3340.674	774.75
3343.682	762.75
3346.688	749.75
3349.691	751.75
3352.692	720.75
3355.691	693.75
3358.687	650.75
3361.681	634.75
3364.673	605.75
3367.662	587.75
3370.649	584.75
3373.633	612.75
3376.615	633.75
3379.595	650.75
3382.572	659.75
3385.547	667.75
3388.52	655.75
3391.49	644.75
3394.458	638.75
3397.424	636.75
3400.387	627.75
3403.348	616.75
3406.307	604.75
3409.263	584.75
3412.217	565.75
3415.168	541.75
3418.118	505.75
3421.065	477.75
3424.009	430.75
3426.951	417.75
3429.891	393.75
3432.829	382.75
3435.764	379.75
3438.697	381.75
3441.628	381.75
3444.557	392.75
3447.483	367.75
3450.407	382.75
3453.328	364.75
3456.247	334.75
3459.164	329.75
3462.079	299.75
3464.991	263.75
3467.902	202.75
3470.809	119.75
3473.715	11.75
3476.618	-126.25
3479.519	-344.25
3482.418	-546.25
3485.315	-737.25
3488.209	-881.25
3491.101	-939.25
3493.99	-906.25
3496.878	-860.25
3499.763	-829.25
3502.646	-850.25
3505.527	-916.25
3508.405	-974.25
3511.281	-940.25
3514.155	-850.25
3517.027	-775.25
3519.897	-696.25
3522.764	-683.25
3525.629	-681.25
3528.492	-714.25
3531.352	-805.25
3534.211	-941.25
3537.067	-1120.25
3539.921	-1277.25
3542.773	-1418.25
3545.622	-1474.25
3548.469	-1413.25
3551.315	-1287.25
3554.157	-1106.25
3556.998	-924.25
3559.837	-761.25
3562.673	-631.25
3565.507	-527.25
3568.339	-439.25
3571.169	-394.25
3573.996	-384.25
3576.822	-391.25
3579.645	-526.25
3582.466	-1167.25
3585.285	-1780.25
3588.101	-1739.25
3590.916	-1164.25
3593.728	-821.25
3596.538	-822.25
3599.346	-902.25
3602.152	-988.25
3604.956	-1048.25
3607.757	-1045.25
3610.556	-1014.25
3613.354	-961.25
3616.149	-887.25
3618.942	-792.25
3621.732	-707.25
3624.521	-650.25
3627.307	-576.25
3630.092	-539.25
3632.874	-506.25
3635.654	-473.25
3638.432	-467.25
3641.208	-480.25
3643.982	-487.25
3646.753	-524.25
3649.523	-579.25
3652.29	-610.25
3655.055	-635.25
3657.818	-655.25
3660.579	-662.25
3663.338	-625.25
3666.095	-594.25
3668.849	-529.25
3671.602	-469.25
3674.352	-396.25
3677.101	-340.25
3679.847	-288.25
3682.591	-260.25
3685.333	-221.25
3688.073	-204.25
3690.811	-176.25
3693.547	-175.25
3696.281	-162.25
3699.013	-161.25
3701.742	-154.25
3704.47	-153.25
3707.195	-159.25
3709.919	-155.25
3712.64	-155.25
3715.359	-161.25
3718.076	-158.25
3720.792	-147.25
3723.505	-148.25
3726.216	-139.25
3728.925	-136.25
3731.632	-135.25
3734.336	-128.25
3737.039	-111.25
3739.74	-115.25
3742.439	-118.25
3745.136	-108.25
3747.83	-109.25
3750.523	-112.25
3753.213	-112.25
3755.902	-109.25
3758.589	-114.25
3761.273	-114.25
3763.956	-112.25
3766.636	-123.25
3769.315	-124.25
3771.991	-129.25
3774.665	-133.25
3777.338	-143.25
3780.008	-145.25
3782.677	-144.25
3785.343	-140.25
3788.007	-148.25
3790.67	-144.25
3793.33	-141.25
3795.989	-134.25
3798.645	-135.25
3801.299	-127.25
3803.952	-129.25
3806.602	-128.25
3809.251	-127.25
3811.897	-128.25
3814.542	-124.25
3817.184	-123.25
3819.825	-122.25
3822.463	-121.25
3825.1	-127.25
3827.735	-123.25
3830.367	-121.25
3832.998	-119.25
3835.627	-113.25
3838.253	-114.25
3840.878	-115.25
3843.501	-118.25
3846.122	-113.25
3848.741	-113.25
3851.358	-116.25
3853.973	-113.25
3856.586	-114.25
3859.197	-111.25
3861.806	-115.25
3864.414	-108.25
3867.019	-115.25
3869.622	-108.25
3872.224	-120.25
3874.823	-112.25
3877.421	-114.25
3880.016	-115.25
3882.61	-114.25
3885.202	-117.25
3887.792	-118.25
3890.38	-119.25
3892.966	-118.25
3895.55	-118.25
3898.132	-115.25
3900.713	-122.25
3903.291	-117.25
3905.868	-116.25
3908.442	-113.25
3911.015	-113.25
3913.586	-110.25
3916.155	-110.25
3918.722	-105.25
3921.287	-112.25
3923.85	-113.25
3926.411	-114.25
3928.971	-113.25
3931.528	-114.25
3934.084	-119.25
3936.638	-117.25
3939.19	-118.25
3941.74	-117.25
3944.288	-118.25
3946.834	-120.25
3949.378	-117.25
3951.921	-124.25
3954.462	-117.25
3957	-120.25
3959.537	-116.25
3962.072	-116.25
3964.606	-120.25
3967.137	-116.25
3969.667	-114.25
3972.194	-107.25
3974.72	-112.25
3977.244	-113.25
3979.766	-106.25
3982.286	-111.25
3984.805	-108.25
3987.321	-105.25
3989.836	-107.25
3992.349	-109.25
3994.86	-110.25
3997.369	-107.25
3999.877	-112.25
4002.382	-113.25
4004.886	-109.25
4007.388	-103.25
4009.888	-109.25
4012.386	-107.25
4014.883	-107.25
4017.377	-106.25
4019.87	-111.25
4022.361	-107.25
4024.85	-107.25
4027.338	-104.25
4029.823	-101.25
4032.307	-102.25
4034.789	-103.25
4037.269	-109.25
4039.747	-105.25
4042.224	-110.25
4044.699	-113.25
4047.172	-105.25
4049.643	-111.25
4052.112	-113.25
4054.58	-121.25
4057.046	-115.25
4059.51	-111.25
4061.972	-114.25
4064.432	-110.25
4066.891	-113.25
4069.348	-123.25
4071.803	-131.25
4074.256	-212.25
4076.708	-336.25
4079.158	-341.25
4081.606	-243.25
4084.052	-179.25
4086.497	-145.25
4088.939	-127.25
4091.38	-124.25
4093.819	-123.25
4096.257	-107.25
4098.693	-108.25
4101.127	-109.25
4103.559	-105.25
4105.989	-70.25
4108.418	-62.25
4110.845	-67.25
4113.27	-59.25
4115.694	-58.25
4118.115	-41.25
4120.535	-121.25
4122.954	-124.25
4125.37	-123.25
4127.785	-129.25
4130.198	-176.25
4132.609	-224.25
4135.019	-109.25
4137.427	-107.25
4139.833	-108.25
4142.237	-112.25
