Data from I0.5_T5s_Bsub_water_1-10^2_1_RamanShift_1.txt Node
Date: Mon Mar 13 13:51:15 IST 2017
User: aro
Spectrometer: QEPB0276
Trigger mode: 0
Integration Time (sec): 5.000000E0
Scans to average: 1
Electric dark correction enabled: true
Nonlinearity correction enabled: false
Boxcar width: 0
XAxis mode: Raman Shifts
Number of Pixels in Spectrum: 1044
>>>>>Begin Spectral Data<<<<<
160.701	-10.62
166.742	-0.62
172.777	37.38
178.805	142.38
184.826	424.38
190.841	891.38
196.849	1439.38
202.85	1816.38
208.845	1895.38
214.833	1835.38
220.815	1794.38
226.789	1755.38
232.758	1745.38
238.719	1700.38
244.674	1654.38
250.623	1614.38
256.565	1568.38
262.5	1522.38
268.429	1481.38
274.351	1437.38
280.267	1391.38
286.176	1360.38
292.079	1334.38
297.975	1316.38
303.865	1279.38
309.748	1238.38
315.625	1217.38
321.495	1207.38
327.359	1164.38
333.217	1164.38
339.068	1155.38
344.912	1132.38
350.751	1125.38
356.583	1112.38
362.408	1115.38
368.227	1106.38
374.04	1087.38
379.847	1104.38
385.647	1107.38
391.44	1109.38
397.228	1108.38
403.009	1109.38
408.784	1112.38
414.553	1109.38
420.315	1093.38
426.071	1118.38
431.821	1114.38
437.565	1102.38
443.302	1089.38
449.033	1094.38
454.758	1084.38
460.477	1099.38
466.189	1088.38
471.896	1095.38
477.596	1088.38
483.29	1077.38
488.978	1076.38
494.66	1068.38
500.335	1058.38
506.005	1044.38
511.668	1033.38
517.325	1019.38
522.977	1008.38
528.622	995.38
534.261	998.38
539.894	993.38
545.521	975.38
551.141	986.38
556.756	976.38
562.365	981.38
567.968	963.38
573.565	965.38
579.155	967.38
584.74	958.38
590.319	949.38
595.892	958.38
601.459	953.38
607.02	928.38
612.575	933.38
618.124	928.38
623.667	932.38
629.204	923.38
634.735	919.38
640.261	908.38
645.781	905.38
651.294	909.38
656.802	888.38
662.304	897.38
667.8	907.38
673.29	902.38
678.775	908.38
684.254	895.38
689.726	881.38
695.193	892.38
700.655	889.38
706.11	881.38
711.56	883.38
717.004	884.38
722.442	889.38
727.874	874.38
733.301	873.38
738.722	869.38
744.137	872.38
749.547	878.38
754.951	873.38
760.349	875.38
765.741	866.38
771.128	864.38
776.509	878.38
781.885	884.38
787.254	873.38
792.618	871.38
797.977	872.38
803.33	864.38
808.677	870.38
814.019	852.38
819.355	855.38
824.686	842.38
830.011	837.38
835.33	842.38
840.644	840.38
845.952	840.38
851.255	845.38
856.552	864.38
861.844	837.38
867.13	834.38
872.41	850.38
877.686	842.38
882.955	829.38
888.219	814.38
893.478	821.38
898.731	819.38
903.979	800.38
909.221	805.38
914.458	805.38
919.69	812.38
924.916	803.38
930.136	811.38
935.351	798.38
940.561	796.38
945.766	821.38
950.965	809.38
956.158	797.38
961.347	790.38
966.529	792.38
971.707	767.38
976.879	780.38
982.046	752.38
987.208	762.38
992.364	765.38
997.515	764.38
1002.66	777.38
1007.801	790.38
1012.936	807.38
1018.066	804.38
1023.19	804.38
1028.309	798.38
1033.423	813.38
1038.532	816.38
1043.636	800.38
1048.734	789.38
1053.827	789.38
1058.915	777.38
1063.998	780.38
1069.075	772.38
1074.147	778.38
1079.214	789.38
1084.276	791.38
1089.333	796.38
1094.385	812.38
1099.431	813.38
1104.472	812.38
1109.509	817.38
1114.54	814.38
1119.565	796.38
1124.586	792.38
1129.602	777.38
1134.613	783.38
1139.618	785.38
1144.619	768.38
1149.614	781.38
1154.604	796.38
1159.589	782.38
1164.57	790.38
1169.545	795.38
1174.515	786.38
1179.48	783.38
1184.44	794.38
1189.395	772.38
1194.345	782.38
1199.29	784.38
1204.23	779.38
1209.165	793.38
1214.095	791.38
1219.021	798.38
1223.941	805.38
1228.856	810.38
1233.766	807.38
1238.672	827.38
1243.572	819.38
1248.467	808.38
1253.358	805.38
1258.244	800.38
1263.124	786.38
1268	781.38
1272.871	765.38
1277.737	766.38
1282.599	759.38
1287.455	766.38
1292.306	769.38
1297.153	787.38
1301.995	778.38
1306.832	795.38
1311.664	801.38
1316.491	798.38
1321.314	789.38
1326.132	783.38
1330.945	773.38
1335.753	764.38
1340.556	749.38
1345.354	746.38
1350.148	739.38
1354.937	733.38
1359.722	736.38
1364.501	737.38
1369.276	754.38
1374.046	757.38
1378.811	772.38
1383.572	771.38
1388.327	765.38
1393.079	759.38
1397.825	739.38
1402.567	730.38
1407.304	735.38
1412.036	725.38
1416.764	733.38
1421.487	730.38
1426.205	718.38
1430.919	733.38
1435.628	735.38
1440.333	746.38
1445.032	753.38
1449.727	762.38
1454.418	751.38
1459.104	753.38
1463.785	740.38
1468.462	736.38
1473.134	734.38
1477.802	738.38
1482.465	730.38
1487.123	727.38
1491.777	736.38
1496.426	731.38
1501.071	747.38
1505.711	752.38
1510.347	761.38
1514.978	774.38
1519.604	776.38
1524.226	785.38
1528.844	781.38
1533.457	787.38
1538.065	786.38
1542.669	770.38
1547.269	775.38
1551.864	775.38
1556.454	763.38
1561.041	789.38
1565.622	782.38
1570.199	773.38
1574.772	783.38
1579.34	786.38
1583.904	802.38
1588.464	814.38
1593.019	814.38
1597.569	822.38
1602.115	816.38
1606.657	814.38
1611.195	804.38
1615.728	809.38
1620.256	812.38
1624.78	827.38
1629.3	821.38
1633.816	816.38
1638.327	841.38
1642.834	840.38
1647.336	845.38
1651.834	865.38
1656.328	856.38
1660.817	858.38
1665.302	849.38
1669.783	840.38
1674.259	819.38
1678.732	813.38
1683.199	788.38
1687.663	765.38
1692.122	739.38
1696.577	733.38
1701.028	736.38
1705.474	725.38
1709.917	723.38
1714.355	706.38
1718.788	710.38
1723.218	703.38
1727.643	682.38
1732.064	685.38
1736.481	679.38
1740.893	659.38
1745.301	645.38
1749.705	631.38
1754.105	620.38
1758.501	613.38
1762.893	592.38
1767.28	604.38
1771.663	589.38
1776.042	588.38
1780.417	593.38
1784.787	599.38
1789.154	607.38
1793.516	614.38
1797.874	618.38
1802.228	624.38
1806.578	629.38
1810.924	620.38
1815.266	618.38
1819.603	620.38
1823.937	610.38
1828.266	596.38
1832.591	576.38
1836.913	586.38
1841.23	572.38
1845.543	577.38
1849.852	577.38
1854.156	577.38
1858.457	582.38
1862.754	584.38
1867.047	592.38
1871.335	587.38
1875.62	588.38
1879.9	582.38
1884.177	581.38
1888.449	580.38
1892.718	586.38
1896.982	577.38
1901.243	566.38
1905.499	571.38
1909.752	568.38
1914	573.38
1918.245	584.38
1922.485	576.38
1926.722	587.38
1930.954	576.38
1935.183	585.38
1939.408	602.38
1943.628	593.38
1947.845	580.38
1952.058	596.38
1956.267	600.38
1960.472	586.38
1964.673	590.38
1968.87	583.38
1973.063	571.38
1977.252	563.38
1981.438	570.38
1985.619	556.38
1989.797	557.38
1993.971	560.38
1998.14	560.38
2002.306	560.38
2006.469	566.38
2010.627	560.38
2014.781	563.38
2018.932	565.38
2023.078	561.38
2027.221	555.38
2031.36	542.38
2035.495	538.38
2039.627	541.38
2043.754	542.38
2047.878	532.38
2051.998	539.38
2056.114	523.38
2060.226	537.38
2064.334	535.38
2068.439	530.38
2072.54	540.38
2076.637	540.38
2080.73	536.38
2084.82	550.38
2088.906	541.38
2092.988	547.38
2097.066	544.38
2101.14	533.38
2105.211	544.38
2109.278	545.38
2113.342	542.38
2117.401	528.38
2121.457	534.38
2125.509	538.38
2129.558	529.38
2133.602	537.38
2137.643	526.38
2141.681	526.38
2145.714	533.38
2149.744	519.38
2153.77	527.38
2157.793	520.38
2161.812	515.38
2165.827	505.38
2169.838	502.38
2173.846	500.38
2177.851	486.38
2181.851	484.38
2185.848	479.38
2189.841	473.38
2193.831	476.38
2197.817	450.38
2201.799	472.38
2205.778	460.38
2209.753	474.38
2213.725	473.38
2217.693	461.38
2221.657	471.38
2225.618	471.38
2229.575	474.38
2233.529	464.38
2237.479	466.38
2241.425	467.38
2245.368	461.38
2249.307	443.38
2253.243	445.38
2257.175	430.38
2261.104	441.38
2265.029	431.38
2268.95	425.38
2272.868	430.38
2276.783	414.38
2280.694	418.38
2284.601	415.38
2288.505	415.38
2292.405	405.38
2296.302	410.38
2300.195	407.38
2304.085	401.38
2307.971	393.38
2311.854	391.38
2315.734	384.38
2319.609	381.38
2323.482	381.38
2327.351	370.38
2331.216	367.38
2335.078	367.38
2338.937	364.38
2342.792	361.38
2346.643	361.38
2350.492	358.38
2354.336	363.38
2358.178	368.38
2362.015	364.38
2365.85	362.38
2369.681	365.38
2373.508	361.38
2377.333	366.38
2381.153	370.38
2384.971	368.38
2388.785	362.38
2392.595	363.38
2396.402	354.38
2400.206	358.38
2404.007	355.38
2407.804	349.38
2411.597	347.38
2415.388	357.38
2419.174	358.38
2422.958	351.38
2426.738	352.38
2430.515	354.38
2434.289	348.38
2438.059	346.38
2441.825	342.38
2445.589	340.38
2449.349	331.38
2453.106	332.38
2456.859	336.38
2460.61	327.38
2464.356	329.38
2468.1	326.38
2471.84	326.38
2475.577	325.38
2479.311	323.38
2483.041	325.38
2486.768	324.38
2490.492	320.38
2494.213	322.38
2497.93	324.38
2501.644	322.38
2505.355	328.38
2509.062	312.38
2512.766	325.38
2516.467	324.38
2520.165	332.38
2523.859	323.38
2527.551	318.38
2531.239	320.38
2534.923	307.38
2538.605	313.38
2542.283	308.38
2545.958	314.38
2549.63	307.38
2553.299	310.38
2556.964	305.38
2560.626	298.38
2564.285	302.38
2567.941	297.38
2571.594	299.38
2575.243	298.38
2578.89	291.38
2582.533	298.38
2586.173	297.38
2589.809	294.38
2593.443	296.38
2597.073	296.38
2600.701	292.38
2604.325	283.38
2607.946	291.38
2611.564	297.38
2615.178	287.38
2618.79	288.38
2622.398	285.38
2626.004	277.38
2629.606	272.38
2633.205	272.38
2636.801	270.38
2640.394	264.38
2643.983	266.38
2647.57	271.38
2651.153	261.38
2654.734	269.38
2658.311	253.38
2661.885	252.38
2665.456	246.38
2669.025	260.38
2672.589	252.38
2676.151	249.38
2679.71	249.38
2683.266	246.38
2686.819	253.38
2690.368	243.38
2693.915	233.38
2697.458	238.38
2700.999	229.38
2704.536	235.38
2708.071	225.38
2711.602	224.38
2715.13	225.38
2718.656	222.38
2722.178	214.38
2725.697	212.38
2729.214	219.38
2732.727	218.38
2736.237	215.38
2739.744	218.38
2743.249	218.38
2746.75	216.38
2750.248	228.38
2753.743	221.38
2757.236	218.38
2760.725	222.38
2764.211	222.38
2767.695	218.38
2771.175	222.38
2774.652	219.38
2778.127	224.38
2781.598	223.38
2785.067	215.38
2788.532	216.38
2791.995	217.38
2795.455	210.38
2798.911	220.38
2802.365	217.38
2805.816	207.38
2809.264	207.38
2812.709	203.38
2816.151	207.38
2819.59	202.38
2823.026	202.38
2826.46	195.38
2829.89	204.38
2833.318	201.38
2836.742	199.38
2840.164	198.38
2843.583	197.38
2846.999	205.38
2850.412	193.38
2853.822	201.38
2857.229	202.38
2860.634	205.38
2864.035	200.38
2867.434	203.38
2870.83	201.38
2874.223	205.38
2877.613	203.38
2881	198.38
2884.385	200.38
2887.766	196.38
2891.145	203.38
2894.521	201.38
2897.894	191.38
2901.264	202.38
2904.631	194.38
2907.996	193.38
2911.358	197.38
2914.717	195.38
2918.073	198.38
2921.426	195.38
2924.777	188.38
2928.124	194.38
2931.469	193.38
2934.811	189.38
2938.15	206.38
2941.487	199.38
2944.821	198.38
2948.152	204.38
2951.48	208.38
2954.805	201.38
2958.128	201.38
2961.447	208.38
2964.765	210.38
2968.079	211.38
2971.39	214.38
2974.699	210.38
2978.005	208.38
2981.308	208.38
2984.609	218.38
2987.907	217.38
2991.202	225.38
2994.494	226.38
2997.784	225.38
3001.07	227.38
3004.355	237.38
3007.636	240.38
3010.915	246.38
3014.191	241.38
3017.464	239.38
3020.734	246.38
3024.002	242.38
3027.267	250.38
3030.53	253.38
3033.789	252.38
3037.046	254.38
3040.301	259.38
3043.552	269.38
3046.801	266.38
3050.048	270.38
3053.291	272.38
3056.532	277.38
3059.771	281.38
3063.006	282.38
3066.239	289.38
3069.469	303.38
3072.697	309.38
3075.922	317.38
3079.144	315.38
3082.364	320.38
3085.581	320.38
3088.795	335.38
3092.007	338.38
3095.216	341.38
3098.423	349.38
3101.627	349.38
3104.828	366.38
3108.026	373.38
3111.222	375.38
3114.416	381.38
3117.607	389.38
3120.795	397.38
3123.98	394.38
3127.163	422.38
3130.344	412.38
3133.521	426.38
3136.696	433.38
3139.869	442.38
3143.039	436.38
3146.206	446.38
3149.371	443.38
3152.533	448.38
3155.693	455.38
3158.85	455.38
3162.005	454.38
3165.157	460.38
3168.306	467.38
3171.453	460.38
3174.597	456.38
3177.739	461.38
3180.878	474.38
3184.014	454.38
3187.149	453.38
3190.28	459.38
3193.409	465.38
3196.536	466.38
3199.659	477.38
3202.781	462.38
3205.9	466.38
3209.016	466.38
3212.13	464.38
3215.241	466.38
3218.35	463.38
3221.456	462.38
3224.56	453.38
3227.661	444.38
3230.76	443.38
3233.856	430.38
3236.95	433.38
3240.041	429.38
3243.13	436.38
3246.216	427.38
3249.3	429.38
3252.382	435.38
3255.46	424.38
3258.537	419.38
3261.611	421.38
3264.682	418.38
3267.751	412.38
3270.818	415.38
3273.882	408.38
3276.943	409.38
3280.002	412.38
3283.059	408.38
3286.113	399.38
3289.165	388.38
3292.214	389.38
3295.261	377.38
3298.306	372.38
3301.348	368.38
3304.387	362.38
3307.425	353.38
3310.459	351.38
3313.492	352.38
3316.521	342.38
3319.549	336.38
3322.574	339.38
3325.597	331.38
3328.617	332.38
3331.635	332.38
3334.65	326.38
3337.663	314.38
3340.674	330.38
3343.682	315.38
3346.688	322.38
3349.691	312.38
3352.692	310.38
3355.691	312.38
3358.687	317.38
3361.681	301.38
3364.673	291.38
3367.662	302.38
3370.649	299.38
3373.633	286.38
3376.615	287.38
3379.595	282.38
3382.572	280.38
3385.547	268.38
3388.52	273.38
3391.49	272.38
3394.458	265.38
3397.424	259.38
3400.387	259.38
3403.348	259.38
3406.307	249.38
3409.263	245.38
3412.217	251.38
3415.168	248.38
3418.118	241.38
3421.065	236.38
3424.009	240.38
3426.951	229.38
3429.891	229.38
3432.829	226.38
3435.764	224.38
3438.697	214.38
3441.628	211.38
3444.557	210.38
3447.483	195.38
3450.407	197.38
3453.328	196.38
3456.247	187.38
3459.164	178.38
3462.079	177.38
3464.991	172.38
3467.902	168.38
3470.809	162.38
3473.715	159.38
3476.618	157.38
3479.519	146.38
3482.418	139.38
3485.315	140.38
3488.209	135.38
3491.101	130.38
3493.99	131.38
3496.878	124.38
3499.763	124.38
3502.646	121.38
3505.527	116.38
3508.405	111.38
3511.281	107.38
3514.155	103.38
3517.027	94.38
3519.897	101.38
3522.764	88.38
3525.629	85.38
3528.492	81.38
3531.352	76.38
3534.211	73.38
3537.067	64.38
3539.921	62.38
3542.773	60.38
3545.622	57.38
3548.469	50.38
3551.315	41.38
3554.157	44.38
3556.998	44.38
3559.837	44.38
3562.673	38.38
3565.507	35.38
3568.339	40.38
3571.169	33.38
3573.996	32.38
3576.822	28.38
3579.645	26.38
3582.466	29.38
3585.285	24.38
3588.101	23.38
3590.916	17.38
3593.728	14.38
3596.538	12.38
3599.346	18.38
3602.152	10.38
3604.956	7.38
3607.757	7.38
3610.556	9.38
3613.354	7.38
3616.149	1.38
3618.942	1.38
3621.732	0.38
3624.521	-10.62
3627.307	-1.62
3630.092	-5.62
3632.874	-6.62
3635.654	-4.62
3638.432	-5.62
3641.208	-8.62
3643.982	-7.62
3646.753	-10.62
3649.523	-11.62
3652.29	-12.62
3655.055	-9.62
3657.818	-13.62
3660.579	-16.62
3663.338	-14.62
3666.095	-16.62
3668.849	-18.62
3671.602	-19.62
3674.352	-18.62
3677.101	-20.62
3679.847	-17.62
3682.591	-23.62
3685.333	-21.62
3688.073	-22.62
3690.811	-23.62
3693.547	-25.62
3696.281	-26.62
3699.013	-27.62
3701.742	-26.62
3704.47	-30.62
3707.195	-29.62
3709.919	-28.62
3712.64	-27.62
3715.359	-27.62
3718.076	-29.62
3720.792	-29.62
3723.505	-27.62
3726.216	-29.62
3728.925	-30.62
3731.632	-29.62
3734.336	-32.62
3737.039	-34.62
3739.74	-27.62
3742.439	-27.62
3745.136	-31.62
3747.83	-28.62
3750.523	-27.62
3753.213	-34.62
3755.902	-29.62
3758.589	-30.62
3761.273	-33.62
3763.956	-31.62
3766.636	-35.62
3769.315	-35.62
3771.991	-32.62
3774.665	-31.62
3777.338	-33.62
3780.008	-35.62
3782.677	-39.62
3785.343	-37.62
3788.007	-33.62
3790.67	-37.62
3793.33	-38.62
3795.989	-39.62
3798.645	-33.62
3801.299	-33.62
3803.952	-32.62
3806.602	-31.62
3809.251	-33.62
3811.897	-33.62
3814.542	-35.62
3817.184	-33.62
3819.825	-32.62
3822.463	-34.62
3825.1	-34.62
3827.735	-35.62
3830.367	-35.62
3832.998	-37.62
3835.627	-37.62
3838.253	-34.62
3840.878	-38.62
3843.501	-38.62
3846.122	-39.62
3848.741	-41.62
3851.358	-40.62
3853.973	-40.62
3856.586	-40.62
3859.197	-37.62
3861.806	-34.62
3864.414	-38.62
3867.019	-36.62
3869.622	-36.62
3872.224	-37.62
3874.823	-34.62
3877.421	-32.62
3880.016	-29.62
3882.61	-32.62
3885.202	-34.62
3887.792	-30.62
3890.38	-37.62
3892.966	-38.62
3895.55	-40.62
3898.132	-37.62
3900.713	-37.62
3903.291	-38.62
3905.868	-41.62
3908.442	-40.62
3911.015	-43.62
3913.586	-41.62
3916.155	-43.62
3918.722	-42.62
3921.287	-44.62
3923.85	-40.62
3926.411	-42.62
3928.971	-42.62
3931.528	-41.62
3934.084	-40.62
3936.638	-40.62
3939.19	-39.62
3941.74	-42.62
3944.288	-39.62
3946.834	-38.62
3949.378	-40.62
3951.921	-39.62
3954.462	-38.62
3957	-41.62
3959.537	-40.62
3962.072	-39.62
3964.606	-38.62
3967.137	-41.62
3969.667	-40.62
3972.194	-41.62
3974.72	-43.62
3977.244	-37.62
3979.766	-41.62
3982.286	-38.62
3984.805	-41.62
3987.321	-39.62
3989.836	-39.62
3992.349	-41.62
3994.86	-40.62
3997.369	-42.62
3999.877	-40.62
4002.382	-42.62
4004.886	-41.62
4007.388	-38.62
4009.888	-41.62
4012.386	-36.62
4014.883	-36.62
4017.377	-39.62
4019.87	-38.62
4022.361	-39.62
4024.85	-39.62
4027.338	-38.62
4029.823	-38.62
4032.307	-42.62
4034.789	-42.62
4037.269	-40.62
4039.747	-40.62
4042.224	-40.62
4044.699	-45.62
4047.172	-40.62
4049.643	-40.62
4052.112	-41.62
4054.58	-37.62
4057.046	-38.62
4059.51	-39.62
4061.972	-38.62
4064.432	-38.62
4066.891	-41.62
4069.348	-38.62
4071.803	-36.62
4074.256	-40.62
4076.708	-36.62
4079.158	-40.62
4081.606	-38.62
4084.052	-38.62
4086.497	-38.62
4088.939	-41.62
4091.38	-40.62
4093.819	-40.62
4096.257	-42.62
4098.693	-43.62
4101.127	-44.62
4103.559	-40.62
4105.989	-28.62
4108.418	-26.62
4110.845	-25.62
4113.27	-24.62
4115.694	-23.62
4118.115	-16.62
4120.535	-43.62
4122.954	-42.62
4125.37	-40.62
4127.785	-41.62
4130.198	-39.62
4132.609	-42.62
4135.019	-41.62
4137.427	-44.62
4139.833	-41.62
4142.237	-40.62
