Data from I0.5_T10s_Bsub_water_0_2_RamanShift_1.txt Node
Date: Mon Mar 13 14:00:37 IST 2017
User: aro
Spectrometer: QEPB0276
Trigger mode: 0
Integration Time (sec): 1.000000E1
Scans to average: 1
Electric dark correction enabled: true
Nonlinearity correction enabled: false
Boxcar width: 0
XAxis mode: Raman Shifts
Number of Pixels in Spectrum: 1044
>>>>>Begin Spectral Data<<<<<
160.701	-17.25
166.742	-0.25
172.777	72.75
178.805	291.75
184.826	850.75
190.841	1820.75
196.849	2910.75
202.85	3644.75
208.845	3819.75
214.833	3745.75
220.815	3606.75
226.789	3557.75
232.758	3496.75
238.719	3460.75
244.674	3375.75
250.623	3281.75
256.565	3170.75
262.5	3060.75
268.429	2979.75
274.351	2908.75
280.267	2844.75
286.176	2761.75
292.079	2719.75
297.975	2662.75
303.865	2595.75
309.748	2553.75
315.625	2483.75
321.495	2439.75
327.359	2415.75
333.217	2368.75
339.068	2360.75
344.912	2348.75
350.751	2315.75
356.583	2307.75
362.408	2281.75
368.227	2271.75
374.04	2256.75
379.847	2267.75
385.647	2271.75
391.44	2253.75
397.228	2272.75
403.009	2267.75
408.784	2271.75
414.553	2275.75
420.315	2279.75
426.071	2280.75
431.821	2240.75
437.565	2251.75
443.302	2264.75
449.033	2251.75
454.758	2236.75
460.477	2231.75
466.189	2224.75
471.896	2200.75
477.596	2217.75
483.29	2177.75
488.978	2199.75
494.66	2195.75
500.335	2155.75
506.005	2137.75
511.668	2099.75
517.325	2062.75
522.977	2068.75
528.622	2032.75
534.261	2016.75
539.894	2019.75
545.521	2003.75
551.141	2006.75
556.756	2015.75
562.365	1989.75
567.968	1977.75
573.565	1991.75
579.155	1975.75
584.74	1982.75
590.319	1935.75
595.892	1952.75
601.459	1925.75
607.02	1905.75
612.575	1904.75
618.124	1900.75
623.667	1891.75
629.204	1886.75
634.735	1860.75
640.261	1853.75
645.781	1850.75
651.294	1850.75
656.802	1822.75
662.304	1843.75
667.8	1835.75
673.29	1840.75
678.775	1850.75
684.254	1824.75
689.726	1818.75
695.193	1819.75
700.655	1796.75
706.11	1813.75
711.56	1804.75
717.004	1806.75
722.442	1784.75
727.874	1778.75
733.301	1779.75
738.722	1768.75
744.137	1766.75
749.547	1776.75
754.951	1772.75
760.349	1770.75
765.741	1778.75
771.128	1789.75
776.509	1788.75
781.885	1783.75
787.254	1787.75
792.618	1792.75
797.977	1784.75
803.33	1770.75
808.677	1750.75
814.019	1764.75
819.355	1747.75
824.686	1727.75
830.011	1735.75
835.33	1724.75
840.644	1718.75
845.952	1727.75
851.255	1725.75
856.552	1742.75
861.844	1731.75
867.13	1734.75
872.41	1731.75
877.686	1722.75
882.955	1706.75
888.219	1704.75
893.478	1672.75
898.731	1661.75
903.979	1634.75
909.221	1627.75
914.458	1630.75
919.69	1639.75
924.916	1638.75
930.136	1641.75
935.351	1660.75
940.561	1671.75
945.766	1660.75
950.965	1663.75
956.158	1630.75
961.347	1627.75
966.529	1608.75
971.707	1586.75
976.879	1565.75
982.046	1560.75
987.208	1568.75
992.364	1557.75
997.515	1578.75
1002.66	1587.75
1007.801	1608.75
1012.936	1613.75
1018.066	1629.75
1023.19	1658.75
1028.309	1637.75
1033.423	1663.75
1038.532	1644.75
1043.636	1642.75
1048.734	1616.75
1053.827	1608.75
1058.915	1621.75
1063.998	1604.75
1069.075	1598.75
1074.147	1595.75
1079.214	1611.75
1084.276	1616.75
1089.333	1627.75
1094.385	1652.75
1099.431	1643.75
1104.472	1668.75
1109.509	1663.75
1114.54	1655.75
1119.565	1633.75
1124.586	1601.75
1129.602	1590.75
1134.613	1573.75
1139.618	1578.75
1144.619	1585.75
1149.614	1605.75
1154.604	1595.75
1159.589	1624.75
1164.57	1618.75
1169.545	1631.75
1174.515	1632.75
1179.48	1637.75
1184.44	1619.75
1189.395	1595.75
1194.345	1609.75
1199.29	1600.75
1204.23	1597.75
1209.165	1613.75
1214.095	1602.75
1219.021	1643.75
1223.941	1648.75
1228.856	1657.75
1233.766	1670.75
1238.672	1680.75
1243.572	1661.75
1248.467	1652.75
1253.358	1656.75
1258.244	1623.75
1263.124	1592.75
1268	1578.75
1272.871	1565.75
1277.737	1576.75
1282.599	1553.75
1287.455	1560.75
1292.306	1570.75
1297.153	1587.75
1301.995	1618.75
1306.832	1601.75
1311.664	1622.75
1316.491	1627.75
1321.314	1629.75
1326.132	1584.75
1330.945	1583.75
1335.753	1564.75
1340.556	1551.75
1345.354	1521.75
1350.148	1490.75
1354.937	1498.75
1359.722	1516.75
1364.501	1513.75
1369.276	1542.75
1374.046	1558.75
1378.811	1566.75
1383.572	1557.75
1388.327	1556.75
1393.079	1537.75
1397.825	1527.75
1402.567	1506.75
1407.304	1505.75
1412.036	1475.75
1416.764	1477.75
1421.487	1469.75
1426.205	1472.75
1430.919	1476.75
1435.628	1508.75
1440.333	1517.75
1445.032	1546.75
1449.727	1529.75
1454.418	1533.75
1459.104	1554.75
1463.785	1544.75
1468.462	1514.75
1473.134	1506.75
1477.802	1500.75
1482.465	1501.75
1487.123	1492.75
1491.777	1504.75
1496.426	1492.75
1501.071	1522.75
1505.711	1545.75
1510.347	1549.75
1514.978	1567.75
1519.604	1601.75
1524.226	1589.75
1528.844	1600.75
1533.457	1590.75
1538.065	1584.75
1542.669	1584.75
1547.269	1576.75
1551.864	1574.75
1556.454	1577.75
1561.041	1577.75
1565.622	1601.75
1570.199	1597.75
1574.772	1599.75
1579.34	1603.75
1583.904	1645.75
1588.464	1640.75
1593.019	1635.75
1597.569	1647.75
1602.115	1654.75
1606.657	1650.75
1611.195	1651.75
1615.728	1636.75
1620.256	1649.75
1624.78	1654.75
1629.3	1665.75
1633.816	1706.75
1638.327	1703.75
1642.834	1730.75
1647.336	1727.75
1651.834	1746.75
1656.328	1728.75
1660.817	1745.75
1665.302	1740.75
1669.783	1711.75
1674.259	1683.75
1678.732	1636.75
1683.199	1599.75
1687.663	1549.75
1692.122	1517.75
1696.577	1499.75
1701.028	1482.75
1705.474	1479.75
1709.917	1463.75
1714.355	1467.75
1718.788	1443.75
1723.218	1432.75
1727.643	1410.75
1732.064	1389.75
1736.481	1372.75
1740.893	1355.75
1745.301	1324.75
1749.705	1309.75
1754.105	1273.75
1758.501	1255.75
1762.893	1234.75
1767.28	1221.75
1771.663	1218.75
1776.042	1219.75
1780.417	1224.75
1784.787	1228.75
1789.154	1260.75
1793.516	1261.75
1797.874	1261.75
1802.228	1282.75
1806.578	1296.75
1810.924	1285.75
1815.266	1266.75
1819.603	1242.75
1823.937	1227.75
1828.266	1200.75
1832.591	1197.75
1836.913	1194.75
1841.23	1183.75
1845.543	1196.75
1849.852	1174.75
1854.156	1177.75
1858.457	1182.75
1862.754	1188.75
1867.047	1176.75
1871.335	1206.75
1875.62	1211.75
1879.9	1195.75
1884.177	1199.75
1888.449	1200.75
1892.718	1203.75
1896.982	1190.75
1901.243	1178.75
1905.499	1168.75
1909.752	1181.75
1914	1185.75
1918.245	1193.75
1922.485	1188.75
1926.722	1208.75
1930.954	1203.75
1935.183	1188.75
1939.408	1215.75
1943.628	1216.75
1947.845	1209.75
1952.058	1227.75
1956.267	1211.75
1960.472	1212.75
1964.673	1190.75
1968.87	1197.75
1973.063	1152.75
1977.252	1168.75
1981.438	1166.75
1985.619	1159.75
1989.797	1150.75
1993.971	1155.75
1998.14	1153.75
2002.306	1160.75
2006.469	1152.75
2010.627	1145.75
2014.781	1157.75
2018.932	1147.75
2023.078	1150.75
2027.221	1124.75
2031.36	1137.75
2035.495	1109.75
2039.627	1104.75
2043.754	1097.75
2047.878	1105.75
2051.998	1093.75
2056.114	1096.75
2060.226	1095.75
2064.334	1105.75
2068.439	1103.75
2072.54	1113.75
2076.637	1110.75
2080.73	1116.75
2084.82	1128.75
2088.906	1127.75
2092.988	1117.75
2097.066	1131.75
2101.14	1125.75
2105.211	1108.75
2109.278	1103.75
2113.342	1103.75
2117.401	1095.75
2121.457	1101.75
2125.509	1098.75
2129.558	1093.75
2133.602	1074.75
2137.643	1076.75
2141.681	1084.75
2145.714	1070.75
2149.744	1070.75
2153.77	1057.75
2157.793	1065.75
2161.812	1050.75
2165.827	1040.75
2169.838	1034.75
2173.846	1007.75
2177.851	997.75
2181.851	993.75
2185.848	973.75
2189.841	963.75
2193.831	978.75
2197.817	955.75
2201.799	966.75
2205.778	951.75
2209.753	951.75
2213.725	966.75
2217.693	957.75
2221.657	951.75
2225.618	951.75
2229.575	961.75
2233.529	947.75
2237.479	950.75
2241.425	956.75
2245.368	926.75
2249.307	926.75
2253.243	919.75
2257.175	904.75
2261.104	888.75
2265.029	875.75
2268.95	885.75
2272.868	883.75
2276.783	879.75
2280.694	863.75
2284.601	855.75
2288.505	860.75
2292.405	835.75
2296.302	834.75
2300.195	839.75
2304.085	827.75
2307.971	801.75
2311.854	806.75
2315.734	787.75
2319.609	790.75
2323.482	762.75
2327.351	767.75
2331.216	752.75
2335.078	746.75
2338.937	749.75
2342.792	751.75
2346.643	757.75
2350.492	738.75
2354.336	750.75
2358.178	742.75
2362.015	744.75
2365.85	754.75
2369.681	754.75
2373.508	769.75
2377.333	751.75
2381.153	743.75
2384.971	741.75
2388.785	748.75
2392.595	735.75
2396.402	740.75
2400.206	737.75
2404.007	732.75
2407.804	723.75
2411.597	713.75
2415.388	729.75
2419.174	717.75
2422.958	707.75
2426.738	713.75
2430.515	729.75
2434.289	720.75
2438.059	712.75
2441.825	711.75
2445.589	703.75
2449.349	707.75
2453.106	696.75
2456.859	688.75
2460.61	685.75
2464.356	673.75
2468.1	675.75
2471.84	669.75
2475.577	667.75
2479.311	662.75
2483.041	684.75
2486.768	670.75
2490.492	668.75
2494.213	669.75
2497.93	672.75
2501.644	662.75
2505.355	669.75
2509.062	671.75
2512.766	667.75
2516.467	668.75
2520.165	660.75
2523.859	661.75
2527.551	654.75
2531.239	640.75
2534.923	640.75
2538.605	644.75
2542.283	640.75
2545.958	631.75
2549.63	638.75
2553.299	623.75
2556.964	636.75
2560.626	620.75
2564.285	627.75
2567.941	618.75
2571.594	613.75
2575.243	610.75
2578.89	616.75
2582.533	611.75
2586.173	603.75
2589.809	609.75
2593.443	577.75
2597.073	615.75
2600.701	599.75
2604.325	597.75
2607.946	593.75
2611.564	597.75
2615.178	596.75
2618.79	579.75
2622.398	578.75
2626.004	573.75
2629.606	573.75
2633.205	567.75
2636.801	572.75
2640.394	563.75
2643.983	556.75
2647.57	550.75
2651.153	548.75
2654.734	538.75
2658.311	527.75
2661.885	522.75
2665.456	523.75
2669.025	517.75
2672.589	517.75
2676.151	510.75
2679.71	516.75
2683.266	499.75
2686.819	500.75
2690.368	501.75
2693.915	487.75
2697.458	481.75
2700.999	484.75
2704.536	462.75
2708.071	460.75
2711.602	461.75
2715.13	468.75
2718.656	454.75
2722.178	451.75
2725.697	444.75
2729.214	451.75
2732.727	455.75
2736.237	445.75
2739.744	449.75
2743.249	462.75
2746.75	462.75
2750.248	461.75
2753.743	463.75
2757.236	458.75
2760.725	456.75
2764.211	463.75
2767.695	456.75
2771.175	450.75
2774.652	453.75
2778.127	444.75
2781.598	442.75
2785.067	434.75
2788.532	425.75
2791.995	437.75
2795.455	434.75
2798.911	425.75
2802.365	434.75
2805.816	429.75
2809.264	420.75
2812.709	413.75
2816.151	421.75
2819.59	428.75
2823.026	418.75
2826.46	418.75
2829.89	416.75
2833.318	413.75
2836.742	411.75
2840.164	412.75
2843.583	419.75
2846.999	407.75
2850.412	423.75
2853.822	420.75
2857.229	420.75
2860.634	416.75
2864.035	415.75
2867.434	412.75
2870.83	428.75
2874.223	418.75
2877.613	419.75
2881	413.75
2884.385	403.75
2887.766	411.75
2891.145	405.75
2894.521	405.75
2897.894	413.75
2901.264	401.75
2904.631	402.75
2907.996	403.75
2911.358	394.75
2914.717	400.75
2918.073	405.75
2921.426	403.75
2924.777	403.75
2928.124	397.75
2931.469	409.75
2934.811	403.75
2938.15	407.75
2941.487	417.75
2944.821	409.75
2948.152	407.75
2951.48	413.75
2954.805	407.75
2958.128	414.75
2961.447	403.75
2964.765	428.75
2968.079	414.75
2971.39	420.75
2974.699	422.75
2978.005	429.75
2981.308	430.75
2984.609	445.75
2987.907	452.75
2991.202	442.75
2994.494	457.75
2997.784	468.75
3001.07	464.75
3004.355	487.75
3007.636	492.75
3010.915	491.75
3014.191	494.75
3017.464	512.75
3020.734	504.75
3024.002	502.75
3027.267	510.75
3030.53	508.75
3033.789	507.75
3037.046	510.75
3040.301	504.75
3043.552	527.75
3046.801	532.75
3050.048	534.75
3053.291	542.75
3056.532	558.75
3059.771	571.75
3063.006	585.75
3066.239	589.75
3069.469	601.75
3072.697	615.75
3075.922	626.75
3079.144	650.75
3082.364	643.75
3085.581	657.75
3088.795	665.75
3092.007	682.75
3095.216	698.75
3098.423	703.75
3101.627	705.75
3104.828	728.75
3108.026	741.75
3111.222	752.75
3114.416	745.75
3117.607	771.75
3120.795	778.75
3123.98	792.75
3127.163	807.75
3130.344	826.75
3133.521	849.75
3136.696	835.75
3139.869	872.75
3143.039	885.75
3146.206	889.75
3149.371	888.75
3152.533	902.75
3155.693	911.75
3158.85	908.75
3162.005	909.75
3165.157	899.75
3168.306	916.75
3171.453	914.75
3174.597	913.75
3177.739	918.75
3180.878	924.75
3184.014	915.75
3187.149	915.75
3190.28	928.75
3193.409	921.75
3196.536	917.75
3199.659	940.75
3202.781	932.75
3205.9	930.75
3209.016	932.75
3212.13	923.75
3215.241	935.75
3218.35	921.75
3221.456	914.75
3224.56	901.75
3227.661	890.75
3230.76	882.75
3233.856	878.75
3236.95	879.75
3240.041	869.75
3243.13	855.75
3246.216	862.75
3249.3	845.75
3252.382	848.75
3255.46	833.75
3258.537	848.75
3261.611	834.75
3264.682	836.75
3267.751	839.75
3270.818	817.75
3273.882	822.75
3276.943	818.75
3280.002	809.75
3283.059	793.75
3286.113	800.75
3289.165	769.75
3292.214	781.75
3295.261	756.75
3298.306	745.75
3301.348	736.75
3304.387	718.75
3307.425	708.75
3310.459	703.75
3313.492	699.75
3316.521	697.75
3319.549	670.75
3322.574	665.75
3325.597	659.75
3328.617	658.75
3331.635	656.75
3334.65	641.75
3337.663	639.75
3340.674	649.75
3343.682	629.75
3346.688	643.75
3349.691	629.75
3352.692	633.75
3355.691	632.75
3358.687	625.75
3361.681	608.75
3364.673	616.75
3367.662	588.75
3370.649	575.75
3373.633	592.75
3376.615	569.75
3379.595	562.75
3382.572	551.75
3385.547	547.75
3388.52	551.75
3391.49	539.75
3394.458	526.75
3397.424	530.75
3400.387	516.75
3403.348	513.75
3406.307	501.75
3409.263	509.75
3412.217	485.75
3415.168	488.75
3418.118	491.75
3421.065	479.75
3424.009	477.75
3426.951	470.75
3429.891	462.75
3432.829	449.75
3435.764	438.75
3438.697	438.75
3441.628	422.75
3444.557	409.75
3447.483	405.75
3450.407	397.75
3453.328	380.75
3456.247	377.75
3459.164	360.75
3462.079	353.75
3464.991	343.75
3467.902	323.75
3470.809	326.75
3473.715	309.75
3476.618	300.75
3479.519	297.75
3482.418	286.75
3485.315	281.75
3488.209	259.75
3491.101	267.75
3493.99	257.75
3496.878	250.75
3499.763	238.75
3502.646	233.75
3505.527	239.75
3508.405	219.75
3511.281	215.75
3514.155	207.75
3517.027	194.75
3519.897	184.75
3522.764	174.75
3525.629	168.75
3528.492	163.75
3531.352	150.75
3534.211	142.75
3537.067	139.75
3539.921	125.75
3542.773	116.75
3545.622	120.75
3548.469	101.75
3551.315	102.75
3554.157	100.75
3556.998	81.75
3559.837	85.75
3562.673	77.75
3565.507	73.75
3568.339	66.75
3571.169	68.75
3573.996	57.75
3576.822	49.75
3579.645	48.75
3582.466	42.75
3585.285	39.75
3588.101	37.75
3590.916	31.75
3593.728	34.75
3596.538	28.75
3599.346	21.75
3602.152	27.75
3604.956	15.75
3607.757	19.75
3610.556	6.75
3613.354	5.75
3616.149	2.75
3618.942	-0.25
3621.732	-0.25
3624.521	-5.25
3627.307	-9.25
3630.092	-9.25
3632.874	-9.25
3635.654	-13.25
3638.432	-23.25
3641.208	-12.25
3643.982	-20.25
3646.753	-22.25
3649.523	-20.25
3652.29	-26.25
3655.055	-28.25
3657.818	-26.25
3660.579	-30.25
3663.338	-25.25
3666.095	-31.25
3668.849	-37.25
3671.602	-34.25
3674.352	-39.25
3677.101	-39.25
3679.847	-43.25
3682.591	-44.25
3685.333	-41.25
3688.073	-53.25
3690.811	-53.25
3693.547	-52.25
3696.281	-58.25
3699.013	-57.25
3701.742	-51.25
3704.47	-54.25
3707.195	-56.25
3709.919	-56.25
3712.64	-57.25
3715.359	-54.25
3718.076	-56.25
3720.792	-55.25
3723.505	-60.25
3726.216	-59.25
3728.925	-57.25
3731.632	-59.25
3734.336	-55.25
3737.039	-63.25
3739.74	-60.25
3742.439	-62.25
3745.136	-62.25
3747.83	-62.25
3750.523	-64.25
3753.213	-67.25
3755.902	-69.25
3758.589	-73.25
3761.273	-71.25
3763.956	-70.25
3766.636	-70.25
3769.315	-70.25
3771.991	-70.25
3774.665	-73.25
3777.338	-70.25
3780.008	-67.25
3782.677	-69.25
3785.343	-66.25
3788.007	-65.25
3790.67	-72.25
3793.33	-68.25
3795.989	-72.25
3798.645	-72.25
3801.299	-71.25
3803.952	-75.25
3806.602	-74.25
3809.251	-74.25
3811.897	-79.25
3814.542	-74.25
3817.184	-76.25
3819.825	-78.25
3822.463	-74.25
3825.1	-73.25
3827.735	-73.25
3830.367	-80.25
3832.998	-77.25
3835.627	-77.25
3838.253	-72.25
3840.878	-76.25
3843.501	-76.25
3846.122	-73.25
3848.741	-78.25
3851.358	-73.25
3853.973	-77.25
3856.586	-80.25
3859.197	-75.25
3861.806	-74.25
3864.414	-74.25
3867.019	-82.25
3869.622	-77.25
3872.224	-79.25
3874.823	-79.25
3877.421	-79.25
3880.016	-73.25
3882.61	-70.25
3885.202	-70.25
3887.792	-74.25
3890.38	-78.25
3892.966	-77.25
3895.55	-79.25
3898.132	-80.25
3900.713	-84.25
3903.291	-85.25
3905.868	-83.25
3908.442	-84.25
3911.015	-82.25
3913.586	-82.25
3916.155	-79.25
3918.722	-77.25
3921.287	-86.25
3923.85	-78.25
3926.411	-85.25
3928.971	-81.25
3931.528	-82.25
3934.084	-83.25
3936.638	-83.25
3939.19	-82.25
3941.74	-82.25
3944.288	-80.25
3946.834	-82.25
3949.378	-85.25
3951.921	-85.25
3954.462	-82.25
3957	-85.25
3959.537	-81.25
3962.072	-80.25
3964.606	-81.25
3967.137	-79.25
3969.667	-81.25
3972.194	-84.25
3974.72	-85.25
3977.244	-84.25
3979.766	-83.25
3982.286	-87.25
3984.805	-81.25
3987.321	-86.25
3989.836	-77.25
3992.349	-80.25
3994.86	-80.25
3997.369	-83.25
3999.877	-80.25
4002.382	-81.25
4004.886	-78.25
4007.388	-84.25
4009.888	-78.25
4012.386	-77.25
4014.883	-81.25
4017.377	-80.25
4019.87	-81.25
4022.361	-84.25
4024.85	-83.25
4027.338	-89.25
4029.823	-82.25
4032.307	-87.25
4034.789	-87.25
4037.269	-86.25
4039.747	-83.25
4042.224	-89.25
4044.699	-81.25
4047.172	-85.25
4049.643	-80.25
4052.112	-80.25
4054.58	-81.25
4057.046	-79.25
4059.51	-74.25
4061.972	-78.25
4064.432	-78.25
4066.891	-83.25
4069.348	-78.25
4071.803	-82.25
4074.256	-84.25
4076.708	-85.25
4079.158	-80.25
4081.606	-82.25
4084.052	-83.25
4086.497	-85.25
4088.939	-85.25
4091.38	-86.25
4093.819	-86.25
4096.257	-88.25
4098.693	-89.25
4101.127	-86.25
4103.559	-85.25
4105.989	-58.25
4108.418	-51.25
4110.845	-48.25
4113.27	-45.25
4115.694	-39.25
4118.115	-32.25
4120.535	-85.25
4122.954	-87.25
4125.37	-88.25
4127.785	-83.25
4130.198	-82.25
4132.609	-85.25
4135.019	-88.25
4137.427	-87.25
4139.833	-87.25
4142.237	-84.25
