Data from I0.5_T5s_Bsub_water_1-10^2_3_RamanShift_1.txt Node
Date: Mon Mar 13 13:53:45 IST 2017
User: aro
Spectrometer: QEPB0276
Trigger mode: 0
Integration Time (sec): 5.000000E0
Scans to average: 1
Electric dark correction enabled: true
Nonlinearity correction enabled: false
Boxcar width: 0
XAxis mode: Raman Shifts
Number of Pixels in Spectrum: 1044
>>>>>Begin Spectral Data<<<<<
160.701	-13.62
166.742	1.38
172.777	36.38
178.805	140.38
184.826	420.38
190.841	904.38
196.849	1437.38
202.85	1805.38
208.845	1869.38
214.833	1849.38
220.815	1779.38
226.789	1760.38
232.758	1717.38
238.719	1676.38
244.674	1644.38
250.623	1584.38
256.565	1526.38
262.5	1482.38
268.429	1446.38
274.351	1376.38
280.267	1360.38
286.176	1337.38
292.079	1318.38
297.975	1251.38
303.865	1213.38
309.748	1187.38
315.625	1183.38
321.495	1156.38
327.359	1137.38
333.217	1115.38
339.068	1103.38
344.912	1101.38
350.751	1096.38
356.583	1084.38
362.408	1076.38
368.227	1072.38
374.04	1060.38
379.847	1079.38
385.647	1060.38
391.44	1056.38
397.228	1061.38
403.009	1077.38
408.784	1073.38
414.553	1064.38
420.315	1064.38
426.071	1074.38
431.821	1067.38
437.565	1075.38
443.302	1060.38
449.033	1061.38
454.758	1060.38
460.477	1050.38
466.189	1051.38
471.896	1036.38
477.596	1049.38
483.29	1046.38
488.978	1038.38
494.66	1023.38
500.335	1028.38
506.005	1016.38
511.668	992.38
517.325	984.38
522.977	970.38
528.622	951.38
534.261	937.38
539.894	942.38
545.521	948.38
551.141	940.38
556.756	926.38
562.365	931.38
567.968	925.38
573.565	919.38
579.155	920.38
584.74	905.38
590.319	921.38
595.892	909.38
601.459	908.38
607.02	895.38
612.575	880.38
618.124	892.38
623.667	874.38
629.204	880.38
634.735	879.38
640.261	863.38
645.781	859.38
651.294	853.38
656.802	859.38
662.304	857.38
667.8	846.38
673.29	851.38
678.775	861.38
684.254	857.38
689.726	825.38
695.193	848.38
700.655	844.38
706.11	818.38
711.56	841.38
717.004	817.38
722.442	817.38
727.874	815.38
733.301	829.38
738.722	821.38
744.137	814.38
749.547	825.38
754.951	807.38
760.349	824.38
765.741	823.38
771.128	817.38
776.509	822.38
781.885	824.38
787.254	807.38
792.618	813.38
797.977	814.38
803.33	813.38
808.677	796.38
814.019	801.38
819.355	789.38
824.686	789.38
830.011	788.38
835.33	770.38
840.644	790.38
845.952	783.38
851.255	795.38
856.552	775.38
861.844	779.38
867.13	784.38
872.41	772.38
877.686	767.38
882.955	762.38
888.219	754.38
893.478	754.38
898.731	738.38
903.979	746.38
909.221	742.38
914.458	727.38
919.69	734.38
924.916	747.38
930.136	747.38
935.351	746.38
940.561	749.38
945.766	722.38
950.965	736.38
956.158	729.38
961.347	726.38
966.529	731.38
971.707	706.38
976.879	694.38
982.046	696.38
987.208	694.38
992.364	692.38
997.515	700.38
1002.66	691.38
1007.801	710.38
1012.936	722.38
1018.066	728.38
1023.19	739.38
1028.309	725.38
1033.423	731.38
1038.532	731.38
1043.636	726.38
1048.734	737.38
1053.827	720.38
1058.915	716.38
1063.998	705.38
1069.075	706.38
1074.147	705.38
1079.214	714.38
1084.276	726.38
1089.333	712.38
1094.385	724.38
1099.431	734.38
1104.472	728.38
1109.509	728.38
1114.54	730.38
1119.565	707.38
1124.586	705.38
1129.602	710.38
1134.613	704.38
1139.618	693.38
1144.619	688.38
1149.614	710.38
1154.604	719.38
1159.589	713.38
1164.57	715.38
1169.545	715.38
1174.515	721.38
1179.48	718.38
1184.44	715.38
1189.395	707.38
1194.345	713.38
1199.29	709.38
1204.23	709.38
1209.165	716.38
1214.095	720.38
1219.021	726.38
1223.941	720.38
1228.856	724.38
1233.766	727.38
1238.672	734.38
1243.572	730.38
1248.467	739.38
1253.358	727.38
1258.244	723.38
1263.124	720.38
1268	691.38
1272.871	693.38
1277.737	697.38
1282.599	688.38
1287.455	700.38
1292.306	692.38
1297.153	700.38
1301.995	698.38
1306.832	707.38
1311.664	707.38
1316.491	714.38
1321.314	704.38
1326.132	695.38
1330.945	693.38
1335.753	681.38
1340.556	675.38
1345.354	658.38
1350.148	654.38
1354.937	655.38
1359.722	661.38
1364.501	660.38
1369.276	669.38
1374.046	680.38
1378.811	695.38
1383.572	694.38
1388.327	675.38
1393.079	674.38
1397.825	679.38
1402.567	650.38
1407.304	661.38
1412.036	633.38
1416.764	642.38
1421.487	640.38
1426.205	649.38
1430.919	650.38
1435.628	648.38
1440.333	651.38
1445.032	661.38
1449.727	667.38
1454.418	666.38
1459.104	673.38
1463.785	666.38
1468.462	655.38
1473.134	641.38
1477.802	643.38
1482.465	640.38
1487.123	643.38
1491.777	648.38
1496.426	648.38
1501.071	659.38
1505.711	659.38
1510.347	679.38
1514.978	678.38
1519.604	681.38
1524.226	698.38
1528.844	691.38
1533.457	704.38
1538.065	703.38
1542.669	689.38
1547.269	685.38
1551.864	692.38
1556.454	682.38
1561.041	686.38
1565.622	688.38
1570.199	698.38
1574.772	697.38
1579.34	702.38
1583.904	724.38
1588.464	699.38
1593.019	718.38
1597.569	741.38
1602.115	730.38
1606.657	730.38
1611.195	725.38
1615.728	725.38
1620.256	713.38
1624.78	745.38
1629.3	738.38
1633.816	750.38
1638.327	768.38
1642.834	759.38
1647.336	767.38
1651.834	775.38
1656.328	776.38
1660.817	765.38
1665.302	763.38
1669.783	756.38
1674.259	741.38
1678.732	733.38
1683.199	712.38
1687.663	689.38
1692.122	663.38
1696.577	653.38
1701.028	641.38
1705.474	645.38
1709.917	645.38
1714.355	627.38
1718.788	623.38
1723.218	618.38
1727.643	613.38
1732.064	596.38
1736.481	588.38
1740.893	587.38
1745.301	567.38
1749.705	552.38
1754.105	543.38
1758.501	534.38
1762.893	530.38
1767.28	527.38
1771.663	512.38
1776.042	514.38
1780.417	524.38
1784.787	529.38
1789.154	539.38
1793.516	529.38
1797.874	527.38
1802.228	538.38
1806.578	546.38
1810.924	553.38
1815.266	531.38
1819.603	524.38
1823.937	523.38
1828.266	520.38
1832.591	505.38
1836.913	506.38
1841.23	497.38
1845.543	517.38
1849.852	504.38
1854.156	499.38
1858.457	501.38
1862.754	501.38
1867.047	506.38
1871.335	507.38
1875.62	494.38
1879.9	500.38
1884.177	515.38
1888.449	502.38
1892.718	503.38
1896.982	501.38
1901.243	506.38
1905.499	493.38
1909.752	485.38
1914	502.38
1918.245	495.38
1922.485	498.38
1926.722	504.38
1930.954	509.38
1935.183	521.38
1939.408	521.38
1943.628	521.38
1947.845	511.38
1952.058	511.38
1956.267	516.38
1960.472	499.38
1964.673	513.38
1968.87	499.38
1973.063	496.38
1977.252	488.38
1981.438	498.38
1985.619	491.38
1989.797	479.38
1993.971	484.38
1998.14	488.38
2002.306	477.38
2006.469	475.38
2010.627	484.38
2014.781	495.38
2018.932	479.38
2023.078	479.38
2027.221	471.38
2031.36	477.38
2035.495	473.38
2039.627	474.38
2043.754	477.38
2047.878	458.38
2051.998	468.38
2056.114	461.38
2060.226	458.38
2064.334	460.38
2068.439	461.38
2072.54	467.38
2076.637	474.38
2080.73	469.38
2084.82	468.38
2088.906	471.38
2092.988	464.38
2097.066	466.38
2101.14	469.38
2105.211	464.38
2109.278	471.38
2113.342	465.38
2117.401	467.38
2121.457	458.38
2125.509	467.38
2129.558	466.38
2133.602	465.38
2137.643	452.38
2141.681	453.38
2145.714	457.38
2149.744	455.38
2153.77	448.38
2157.793	448.38
2161.812	436.38
2165.827	438.38
2169.838	423.38
2173.846	420.38
2177.851	425.38
2181.851	410.38
2185.848	413.38
2189.841	408.38
2193.831	404.38
2197.817	406.38
2201.799	407.38
2205.778	398.38
2209.753	407.38
2213.725	406.38
2217.693	399.38
2221.657	403.38
2225.618	394.38
2229.575	402.38
2233.529	401.38
2237.479	403.38
2241.425	396.38
2245.368	398.38
2249.307	386.38
2253.243	380.38
2257.175	378.38
2261.104	368.38
2265.029	367.38
2268.95	377.38
2272.868	358.38
2276.783	349.38
2280.694	364.38
2284.601	357.38
2288.505	354.38
2292.405	350.38
2296.302	355.38
2300.195	348.38
2304.085	342.38
2307.971	346.38
2311.854	334.38
2315.734	330.38
2319.609	333.38
2323.482	325.38
2327.351	320.38
2331.216	310.38
2335.078	310.38
2338.937	313.38
2342.792	303.38
2346.643	307.38
2350.492	312.38
2354.336	305.38
2358.178	308.38
2362.015	310.38
2365.85	311.38
2369.681	309.38
2373.508	305.38
2377.333	317.38
2381.153	306.38
2384.971	309.38
2388.785	315.38
2392.595	311.38
2396.402	312.38
2400.206	307.38
2404.007	304.38
2407.804	305.38
2411.597	297.38
2415.388	300.38
2419.174	298.38
2422.958	302.38
2426.738	294.38
2430.515	298.38
2434.289	294.38
2438.059	292.38
2441.825	296.38
2445.589	288.38
2449.349	284.38
2453.106	283.38
2456.859	283.38
2460.61	278.38
2464.356	278.38
2468.1	281.38
2471.84	276.38
2475.577	280.38
2479.311	273.38
2483.041	265.38
2486.768	274.38
2490.492	271.38
2494.213	272.38
2497.93	272.38
2501.644	271.38
2505.355	273.38
2509.062	272.38
2512.766	270.38
2516.467	272.38
2520.165	267.38
2523.859	270.38
2527.551	264.38
2531.239	267.38
2534.923	264.38
2538.605	263.38
2542.283	262.38
2545.958	262.38
2549.63	258.38
2553.299	267.38
2556.964	259.38
2560.626	252.38
2564.285	253.38
2567.941	255.38
2571.594	250.38
2575.243	249.38
2578.89	244.38
2582.533	240.38
2586.173	243.38
2589.809	247.38
2593.443	246.38
2597.073	247.38
2600.701	240.38
2604.325	242.38
2607.946	235.38
2611.564	237.38
2615.178	243.38
2618.79	240.38
2622.398	238.38
2626.004	244.38
2629.606	234.38
2633.205	241.38
2636.801	231.38
2640.394	231.38
2643.983	226.38
2647.57	231.38
2651.153	211.38
2654.734	225.38
2658.311	218.38
2661.885	211.38
2665.456	213.38
2669.025	204.38
2672.589	213.38
2676.151	206.38
2679.71	209.38
2683.266	203.38
2686.819	202.38
2690.368	204.38
2693.915	198.38
2697.458	196.38
2700.999	196.38
2704.536	200.38
2708.071	187.38
2711.602	191.38
2715.13	185.38
2718.656	189.38
2722.178	188.38
2725.697	189.38
2729.214	184.38
2732.727	186.38
2736.237	182.38
2739.744	181.38
2743.249	186.38
2746.75	187.38
2750.248	190.38
2753.743	193.38
2757.236	183.38
2760.725	189.38
2764.211	181.38
2767.695	183.38
2771.175	183.38
2774.652	191.38
2778.127	188.38
2781.598	182.38
2785.067	177.38
2788.532	179.38
2791.995	183.38
2795.455	178.38
2798.911	181.38
2802.365	179.38
2805.816	177.38
2809.264	171.38
2812.709	174.38
2816.151	176.38
2819.59	177.38
2823.026	170.38
2826.46	177.38
2829.89	173.38
2833.318	167.38
2836.742	169.38
2840.164	168.38
2843.583	168.38
2846.999	169.38
2850.412	174.38
2853.822	177.38
2857.229	170.38
2860.634	174.38
2864.035	175.38
2867.434	177.38
2870.83	174.38
2874.223	182.38
2877.613	174.38
2881	171.38
2884.385	169.38
2887.766	169.38
2891.145	176.38
2894.521	171.38
2897.894	168.38
2901.264	173.38
2904.631	171.38
2907.996	171.38
2911.358	173.38
2914.717	166.38
2918.073	177.38
2921.426	171.38
2924.777	172.38
2928.124	174.38
2931.469	175.38
2934.811	171.38
2938.15	178.38
2941.487	181.38
2944.821	175.38
2948.152	185.38
2951.48	181.38
2954.805	176.38
2958.128	184.38
2961.447	180.38
2964.765	184.38
2968.079	185.38
2971.39	186.38
2974.699	186.38
2978.005	196.38
2981.308	196.38
2984.609	200.38
2987.907	197.38
2991.202	212.38
2994.494	210.38
2997.784	215.38
3001.07	211.38
3004.355	219.38
3007.636	218.38
3010.915	225.38
3014.191	227.38
3017.464	229.38
3020.734	229.38
3024.002	231.38
3027.267	235.38
3030.53	240.38
3033.789	243.38
3037.046	240.38
3040.301	247.38
3043.552	245.38
3046.801	252.38
3050.048	256.38
3053.291	263.38
3056.532	263.38
3059.771	271.38
3063.006	278.38
3066.239	281.38
3069.469	289.38
3072.697	303.38
3075.922	297.38
3079.144	300.38
3082.364	311.38
3085.581	326.38
3088.795	324.38
3092.007	330.38
3095.216	339.38
3098.423	344.38
3101.627	353.38
3104.828	354.38
3108.026	356.38
3111.222	371.38
3114.416	381.38
3117.607	390.38
3120.795	391.38
3123.98	391.38
3127.163	400.38
3130.344	402.38
3133.521	414.38
3136.696	428.38
3139.869	439.38
3143.039	430.38
3146.206	434.38
3149.371	444.38
3152.533	440.38
3155.693	453.38
3158.85	455.38
3162.005	456.38
3165.157	457.38
3168.306	463.38
3171.453	470.38
3174.597	473.38
3177.739	459.38
3180.878	460.38
3184.014	464.38
3187.149	464.38
3190.28	463.38
3193.409	466.38
3196.536	473.38
3199.659	477.38
3202.781	468.38
3205.9	474.38
3209.016	462.38
3212.13	462.38
3215.241	459.38
3218.35	455.38
3221.456	456.38
3224.56	446.38
3227.661	449.38
3230.76	442.38
3233.856	438.38
3236.95	429.38
3240.041	434.38
3243.13	437.38
3246.216	429.38
3249.3	436.38
3252.382	427.38
3255.46	418.38
3258.537	418.38
3261.611	420.38
3264.682	421.38
3267.751	419.38
3270.818	411.38
3273.882	422.38
3276.943	419.38
3280.002	410.38
3283.059	409.38
3286.113	393.38
3289.165	397.38
3292.214	382.38
3295.261	378.38
3298.306	374.38
3301.348	371.38
3304.387	360.38
3307.425	357.38
3310.459	352.38
3313.492	344.38
3316.521	342.38
3319.549	344.38
3322.574	348.38
3325.597	338.38
3328.617	336.38
3331.635	325.38
3334.65	336.38
3337.663	334.38
3340.674	327.38
3343.682	321.38
3346.688	328.38
3349.691	315.38
3352.692	320.38
3355.691	313.38
3358.687	313.38
3361.681	309.38
3364.673	305.38
3367.662	295.38
3370.649	296.38
3373.633	299.38
3376.615	297.38
3379.595	286.38
3382.572	276.38
3385.547	275.38
3388.52	273.38
3391.49	277.38
3394.458	265.38
3397.424	263.38
3400.387	266.38
3403.348	259.38
3406.307	249.38
3409.263	249.38
3412.217	254.38
3415.168	244.38
3418.118	249.38
3421.065	236.38
3424.009	240.38
3426.951	235.38
3429.891	226.38
3432.829	225.38
3435.764	224.38
3438.697	221.38
3441.628	211.38
3444.557	212.38
3447.483	212.38
3450.407	199.38
3453.328	203.38
3456.247	192.38
3459.164	185.38
3462.079	181.38
3464.991	174.38
3467.902	171.38
3470.809	162.38
3473.715	157.38
3476.618	156.38
3479.519	153.38
3482.418	147.38
3485.315	143.38
3488.209	137.38
3491.101	131.38
3493.99	125.38
3496.878	123.38
3499.763	123.38
3502.646	121.38
3505.527	116.38
3508.405	108.38
3511.281	103.38
3514.155	108.38
3517.027	99.38
3519.897	98.38
3522.764	92.38
3525.629	89.38
3528.492	81.38
3531.352	74.38
3534.211	72.38
3537.067	70.38
3539.921	65.38
3542.773	69.38
3545.622	57.38
3548.469	51.38
3551.315	45.38
3554.157	52.38
3556.998	41.38
3559.837	36.38
3562.673	38.38
3565.507	32.38
3568.339	32.38
3571.169	36.38
3573.996	28.38
3576.822	29.38
3579.645	25.38
3582.466	29.38
3585.285	25.38
3588.101	21.38
3590.916	19.38
3593.728	19.38
3596.538	18.38
3599.346	13.38
3602.152	8.38
3604.956	12.38
3607.757	5.38
3610.556	5.38
3613.354	1.38
3616.149	2.38
3618.942	-0.62
3621.732	1.38
3624.521	-9.62
3627.307	-3.62
3630.092	-7.62
3632.874	-5.62
3635.654	-5.62
3638.432	-4.62
3641.208	-10.62
3643.982	-4.62
3646.753	-10.62
3649.523	-7.62
3652.29	-9.62
3655.055	-5.62
3657.818	-11.62
3660.579	-11.62
3663.338	-14.62
3666.095	-11.62
3668.849	-16.62
3671.602	-18.62
3674.352	-19.62
3677.101	-19.62
3679.847	-23.62
3682.591	-23.62
3685.333	-21.62
3688.073	-24.62
3690.811	-25.62
3693.547	-26.62
3696.281	-25.62
3699.013	-26.62
3701.742	-23.62
3704.47	-26.62
3707.195	-26.62
3709.919	-27.62
3712.64	-27.62
3715.359	-24.62
3718.076	-26.62
3720.792	-26.62
3723.505	-26.62
3726.216	-27.62
3728.925	-28.62
3731.632	-28.62
3734.336	-32.62
3737.039	-28.62
3739.74	-28.62
3742.439	-27.62
3745.136	-32.62
3747.83	-27.62
3750.523	-33.62
3753.213	-29.62
3755.902	-31.62
3758.589	-33.62
3761.273	-31.62
3763.956	-30.62
3766.636	-32.62
3769.315	-32.62
3771.991	-30.62
3774.665	-32.62
3777.338	-33.62
3780.008	-30.62
3782.677	-34.62
3785.343	-32.62
3788.007	-32.62
3790.67	-38.62
3793.33	-37.62
3795.989	-41.62
3798.645	-35.62
3801.299	-34.62
3803.952	-34.62
3806.602	-33.62
3809.251	-31.62
3811.897	-33.62
3814.542	-33.62
3817.184	-35.62
3819.825	-31.62
3822.463	-35.62
3825.1	-36.62
3827.735	-32.62
3830.367	-35.62
3832.998	-39.62
3835.627	-36.62
3838.253	-36.62
3840.878	-34.62
3843.501	-38.62
3846.122	-36.62
3848.741	-39.62
3851.358	-38.62
3853.973	-41.62
3856.586	-37.62
3859.197	-36.62
3861.806	-33.62
3864.414	-33.62
3867.019	-33.62
3869.622	-36.62
3872.224	-32.62
3874.823	-32.62
3877.421	-32.62
3880.016	-31.62
3882.61	-31.62
3885.202	-33.62
3887.792	-31.62
3890.38	-34.62
3892.966	-40.62
3895.55	-36.62
3898.132	-37.62
3900.713	-40.62
3903.291	-40.62
3905.868	-38.62
3908.442	-40.62
3911.015	-43.62
3913.586	-41.62
3916.155	-40.62
3918.722	-40.62
3921.287	-41.62
3923.85	-38.62
3926.411	-37.62
3928.971	-39.62
3931.528	-36.62
3934.084	-32.62
3936.638	-34.62
3939.19	-37.62
3941.74	-39.62
3944.288	-37.62
3946.834	-39.62
3949.378	-40.62
3951.921	-37.62
3954.462	-39.62
3957	-42.62
3959.537	-37.62
3962.072	-41.62
3964.606	-41.62
3967.137	-40.62
3969.667	-43.62
3972.194	-39.62
3974.72	-43.62
3977.244	-38.62
3979.766	-38.62
3982.286	-40.62
3984.805	-42.62
3987.321	-38.62
3989.836	-36.62
3992.349	-39.62
3994.86	-38.62
3997.369	-38.62
3999.877	-36.62
4002.382	-42.62
4004.886	-39.62
4007.388	-39.62
4009.888	-39.62
4012.386	-37.62
4014.883	-39.62
4017.377	-40.62
4019.87	-40.62
4022.361	-41.62
4024.85	-39.62
4027.338	-38.62
4029.823	-39.62
4032.307	-42.62
4034.789	-39.62
4037.269	-41.62
4039.747	-38.62
4042.224	-43.62
4044.699	-43.62
4047.172	-36.62
4049.643	-37.62
4052.112	-38.62
4054.58	-40.62
4057.046	-35.62
4059.51	-39.62
4061.972	-37.62
4064.432	-37.62
4066.891	-39.62
4069.348	-37.62
4071.803	-36.62
4074.256	-39.62
4076.708	-38.62
4079.158	-38.62
4081.606	-39.62
4084.052	-39.62
4086.497	-40.62
4088.939	-42.62
4091.38	-38.62
4093.819	-40.62
4096.257	-43.62
4098.693	-39.62
4101.127	-41.62
4103.559	-37.62
4105.989	-25.62
4108.418	-22.62
4110.845	-20.62
4113.27	-24.62
4115.694	-24.62
4118.115	-17.62
4120.535	-38.62
4122.954	-40.62
4125.37	-38.62
4127.785	-40.62
4130.198	-36.62
4132.609	-40.62
4135.019	-37.62
4137.427	-42.62
4139.833	-41.62
4142.237	-42.62
