Data from I0.5_T15s_Bsub_water_0_2_RamanShift_1.txt Node
Date: Mon Mar 13 14:16:47 IST 2017
User: aro
Spectrometer: QEPB0276
Trigger mode: 0
Integration Time (sec): 1.500000E1
Scans to average: 1
Electric dark correction enabled: true
Nonlinearity correction enabled: false
Boxcar width: 0
XAxis mode: Raman Shifts
Number of Pixels in Spectrum: 1044
>>>>>Begin Spectral Data<<<<<
160.701	-32.25
166.742	5.75
172.777	107.75
178.805	418.75
184.826	1237.75
190.841	2641.75
196.849	4239.75
202.85	5314.75
208.845	5572.75
214.833	5443.75
220.815	5338.75
226.789	5211.75
232.758	5141.75
238.719	4972.75
244.674	4816.75
250.623	4456.75
256.565	4205.75
262.5	3975.75
268.429	3902.75
274.351	4036.75
280.267	4155.75
286.176	4098.75
292.079	4020.75
297.975	3940.75
303.865	3785.75
309.748	3728.75
315.625	3649.75
321.495	3592.75
327.359	3544.75
333.217	3491.75
339.068	3466.75
344.912	3435.75
350.751	3392.75
356.583	3383.75
362.408	3368.75
368.227	3320.75
374.04	3324.75
379.847	3314.75
385.647	3253.75
391.44	3064.75
397.228	2765.75
403.009	2441.75
408.784	2134.75
414.553	1534.75
420.315	986.75
426.071	1667.75
431.821	2853.75
437.565	3292.75
443.302	3304.75
449.033	3317.75
454.758	3299.75
460.477	3301.75
466.189	3291.75
471.896	3237.75
477.596	3281.75
483.29	3245.75
488.978	3250.75
494.66	3214.75
500.335	3209.75
506.005	3157.75
511.668	3121.75
517.325	3067.75
522.977	3068.75
528.622	3024.75
534.261	3016.75
539.894	2994.75
545.521	2953.75
551.141	2938.75
556.756	2972.75
562.365	2935.75
567.968	2943.75
573.565	2931.75
579.155	2906.75
584.74	2917.75
590.319	2907.75
595.892	2885.75
601.459	2883.75
607.02	2864.75
612.575	2842.75
618.124	2818.75
623.667	2811.75
629.204	2750.75
634.735	2592.75
640.261	2407.75
645.781	2416.75
651.294	2604.75
656.802	2709.75
662.304	2750.75
667.8	2746.75
673.29	2749.75
678.775	2761.75
684.254	2746.75
689.726	2733.75
695.193	2742.75
700.655	2737.75
706.11	2703.75
711.56	2701.75
717.004	2677.75
722.442	2662.75
727.874	2671.75
733.301	2686.75
738.722	2652.75
744.137	2662.75
749.547	2667.75
754.951	2682.75
760.349	2644.75
765.741	2664.75
771.128	2669.75
776.509	2695.75
781.885	2688.75
787.254	2679.75
792.618	2690.75
797.977	2657.75
803.33	2665.75
808.677	2642.75
814.019	2603.75
819.355	2608.75
824.686	2577.75
830.011	2542.75
835.33	2481.75
840.644	2250.75
845.952	1871.75
851.255	1766.75
856.552	2100.75
861.844	2217.75
867.13	1693.75
872.41	1201.75
877.686	1637.75
882.955	2281.75
888.219	2541.75
893.478	2530.75
898.731	2471.75
903.979	2456.75
909.221	2494.75
914.458	2477.75
919.69	2481.75
924.916	2477.75
930.136	2494.75
935.351	2488.75
940.561	2495.75
945.766	2503.75
950.965	2496.75
956.158	2491.75
961.347	2436.75
966.529	2442.75
971.707	2412.75
976.879	2397.75
982.046	2352.75
987.208	2351.75
992.364	2355.75
997.515	2306.75
1002.66	2100.75
1007.801	2006.75
1012.936	2192.75
1018.066	2420.75
1023.19	2484.75
1028.309	2505.75
1033.423	2541.75
1038.532	2529.75
1043.636	2493.75
1048.734	2494.75
1053.827	2473.75
1058.915	2456.75
1063.998	2426.75
1069.075	2428.75
1074.147	2448.75
1079.214	2459.75
1084.276	2473.75
1089.333	2516.75
1094.385	2518.75
1099.431	2551.75
1104.472	2545.75
1109.509	2539.75
1114.54	2519.75
1119.565	2492.75
1124.586	2440.75
1129.602	2428.75
1134.613	2429.75
1139.618	2417.75
1144.619	2428.75
1149.614	2423.75
1154.604	2434.75
1159.589	2460.75
1164.57	2453.75
1169.545	2477.75
1174.515	2503.75
1179.48	2466.75
1184.44	2458.75
1189.395	2460.75
1194.345	2458.75
1199.29	2399.75
1204.23	2343.75
1209.165	2365.75
1214.095	2438.75
1219.021	2514.75
1223.941	2527.75
1228.856	2549.75
1233.766	2546.75
1238.672	2560.75
1243.572	2561.75
1248.467	2539.75
1253.358	2529.75
1258.244	2495.75
1263.124	2471.75
1268	2400.75
1272.871	2383.75
1277.737	2395.75
1282.599	2402.75
1287.455	2412.75
1292.306	2416.75
1297.153	2453.75
1301.995	2468.75
1306.832	2483.75
1311.664	2487.75
1316.491	2484.75
1321.314	2482.75
1326.132	2448.75
1330.945	2422.75
1335.753	2395.75
1340.556	2364.75
1345.354	2319.75
1350.148	2293.75
1354.937	2272.75
1359.722	2281.75
1364.501	2311.75
1369.276	2361.75
1374.046	2378.75
1378.811	2425.75
1383.572	2410.75
1388.327	2386.75
1393.079	2370.75
1397.825	2346.75
1402.567	2314.75
1407.304	2301.75
1412.036	2301.75
1416.764	2292.75
1421.487	2262.75
1426.205	2268.75
1430.919	2283.75
1435.628	2340.75
1440.333	2343.75
1445.032	2349.75
1449.727	2373.75
1454.418	2369.75
1459.104	2352.75
1463.785	2351.75
1468.462	2318.75
1473.134	2301.75
1477.802	2285.75
1482.465	2301.75
1487.123	2259.75
1491.777	2299.75
1496.426	2285.75
1501.071	2329.75
1505.711	2362.75
1510.347	2370.75
1514.978	2409.75
1519.604	2435.75
1524.226	2457.75
1528.844	2444.75
1533.457	2450.75
1538.065	2467.75
1542.669	2421.75
1547.269	2412.75
1551.864	2435.75
1556.454	2441.75
1561.041	2413.75
1565.622	2430.75
1570.199	2441.75
1574.772	2472.75
1579.34	2490.75
1583.904	2497.75
1588.464	2517.75
1593.019	2512.75
1597.569	2549.75
1602.115	2545.75
1606.657	2516.75
1611.195	2513.75
1615.728	2515.75
1620.256	2535.75
1624.78	2534.75
1629.3	2551.75
1633.816	2574.75
1638.327	2588.75
1642.834	2609.75
1647.336	2676.75
1651.834	2657.75
1656.328	2654.75
1660.817	2671.75
1665.302	2653.75
1669.783	2606.75
1674.259	2558.75
1678.732	2520.75
1683.199	2455.75
1687.663	2385.75
1692.122	2338.75
1696.577	2293.75
1701.028	2257.75
1705.474	2270.75
1709.917	2274.75
1714.355	2258.75
1718.788	2230.75
1723.218	2186.75
1727.643	2173.75
1732.064	2147.75
1736.481	2118.75
1740.893	2078.75
1745.301	2020.75
1749.705	1984.75
1754.105	1965.75
1758.501	1922.75
1762.893	1872.75
1767.28	1796.75
1771.663	1626.75
1776.042	787.75
1780.417	-195.25
1784.787	311.75
1789.154	1514.75
1793.516	1822.75
1797.874	1916.75
1802.228	1949.75
1806.578	1966.75
1810.924	1965.75
1815.266	1938.75
1819.603	1963.75
1823.937	1918.75
1828.266	1872.75
1832.591	1856.75
1836.913	1858.75
1841.23	1844.75
1845.543	1857.75
1849.852	1830.75
1854.156	1857.75
1858.457	1855.75
1862.754	1836.75
1867.047	1854.75
1871.335	1860.75
1875.62	1848.75
1879.9	1855.75
1884.177	1856.75
1888.449	1825.75
1892.718	1777.75
1896.982	1575.75
1901.243	1361.75
1905.499	1474.75
1909.752	1735.75
1914	1812.75
1918.245	1809.75
1922.485	1811.75
1926.722	1845.75
1930.954	1856.75
1935.183	1870.75
1939.408	1898.75
1943.628	1891.75
1947.845	1902.75
1952.058	1908.75
1956.267	1888.75
1960.472	1875.75
1964.673	1878.75
1968.87	1873.75
1973.063	1806.75
1977.252	1820.75
1981.438	1807.75
1985.619	1799.75
1989.797	1804.75
1993.971	1807.75
1998.14	1788.75
2002.306	1805.75
2006.469	1809.75
2010.627	1816.75
2014.781	1815.75
2018.932	1789.75
2023.078	1816.75
2027.221	1793.75
2031.36	1761.75
2035.495	1741.75
2039.627	1748.75
2043.754	1717.75
2047.878	1704.75
2051.998	1675.75
2056.114	1692.75
2060.226	1724.75
2064.334	1743.75
2068.439	1737.75
2072.54	1748.75
2076.637	1749.75
2080.73	1768.75
2084.82	1770.75
2088.906	1760.75
2092.988	1763.75
2097.066	1743.75
2101.14	1715.75
2105.211	1728.75
2109.278	1734.75
2113.342	1702.75
2117.401	1713.75
2121.457	1695.75
2125.509	1704.75
2129.558	1705.75
2133.602	1691.75
2137.643	1696.75
2141.681	1686.75
2145.714	1690.75
2149.744	1673.75
2153.77	1670.75
2157.793	1642.75
2161.812	1658.75
2165.827	1617.75
2169.838	1615.75
2173.846	1587.75
2177.851	1554.75
2181.851	1568.75
2185.848	1520.75
2189.841	1540.75
2193.831	1525.75
2197.817	1523.75
2201.799	1500.75
2205.778	1509.75
2209.753	1492.75
2213.725	1501.75
2217.693	1518.75
2221.657	1496.75
2225.618	1522.75
2229.575	1516.75
2233.529	1501.75
2237.479	1498.75
2241.425	1489.75
2245.368	1468.75
2249.307	1467.75
2253.243	1438.75
2257.175	1416.75
2261.104	1411.75
2265.029	1409.75
2268.95	1385.75
2272.868	1389.75
2276.783	1374.75
2280.694	1366.75
2284.601	1361.75
2288.505	1349.75
2292.405	1336.75
2296.302	1331.75
2300.195	1301.75
2304.085	1271.75
2307.971	1252.75
2311.854	1265.75
2315.734	1252.75
2319.609	1223.75
2323.482	1217.75
2327.351	1198.75
2331.216	1195.75
2335.078	1186.75
2338.937	1170.75
2342.792	1164.75
2346.643	1173.75
2350.492	1165.75
2354.336	1160.75
2358.178	1168.75
2362.015	1162.75
2365.85	1160.75
2369.681	1156.75
2373.508	1155.75
2377.333	1136.75
2381.153	1072.75
2384.971	872.75
2388.785	816.75
2392.595	970.75
2396.402	1097.75
2400.206	1113.75
2404.007	1114.75
2407.804	1114.75
2411.597	1119.75
2415.388	1115.75
2419.174	1119.75
2422.958	1109.75
2426.738	1104.75
2430.515	1113.75
2434.289	1106.75
2438.059	1097.75
2441.825	1116.75
2445.589	1092.75
2449.349	1085.75
2453.106	1072.75
2456.859	1054.75
2460.61	1064.75
2464.356	1056.75
2468.1	1045.75
2471.84	1025.75
2475.577	1025.75
2479.311	1036.75
2483.041	1026.75
2486.768	1047.75
2490.492	1044.75
2494.213	1040.75
2497.93	1059.75
2501.644	1054.75
2505.355	1034.75
2509.062	1051.75
2512.766	1031.75
2516.467	1013.75
2520.165	968.75
2523.859	959.75
2527.551	996.75
2531.239	979.75
2534.923	978.75
2538.605	994.75
2542.283	979.75
2545.958	985.75
2549.63	988.75
2553.299	984.75
2556.964	976.75
2560.626	976.75
2564.285	973.75
2567.941	970.75
2571.594	970.75
2575.243	944.75
2578.89	953.75
2582.533	944.75
2586.173	947.75
2589.809	928.75
2593.443	924.75
2597.073	924.75
2600.701	916.75
2604.325	899.75
2607.946	906.75
2611.564	916.75
2615.178	903.75
2618.79	918.75
2622.398	920.75
2626.004	908.75
2629.606	894.75
2633.205	891.75
2636.801	885.75
2640.394	892.75
2643.983	875.75
2647.57	857.75
2651.153	844.75
2654.734	861.75
2658.311	830.75
2661.885	822.75
2665.456	820.75
2669.025	794.75
2672.589	804.75
2676.151	801.75
2679.71	790.75
2683.266	781.75
2686.819	781.75
2690.368	776.75
2693.915	749.75
2697.458	756.75
2700.999	743.75
2704.536	733.75
2708.071	725.75
2711.602	717.75
2715.13	703.75
2718.656	692.75
2722.178	701.75
2725.697	699.75
2729.214	693.75
2732.727	702.75
2736.237	688.75
2739.744	687.75
2743.249	713.75
2746.75	697.75
2750.248	705.75
2753.743	714.75
2757.236	707.75
2760.725	725.75
2764.211	714.75
2767.695	687.75
2771.175	693.75
2774.652	690.75
2778.127	681.75
2781.598	667.75
2785.067	658.75
2788.532	659.75
2791.995	643.75
2795.455	635.75
2798.911	626.75
2802.365	619.75
2805.816	613.75
2809.264	624.75
2812.709	601.75
2816.151	596.75
2819.59	593.75
2823.026	583.75
2826.46	570.75
2829.89	565.75
2833.318	547.75
2836.742	528.75
2840.164	524.75
2843.583	494.75
2846.999	466.75
2850.412	450.75
2853.822	409.75
2857.229	375.75
2860.634	324.75
2864.035	255.75
2867.434	140.75
2870.83	-60.25
2874.223	-850.25
2877.613	-2589.25
2881	-2835.25
2884.385	-1245.25
2887.766	-170.25
2891.145	89.75
2894.521	205.75
2897.894	290.75
2901.264	348.75
2904.631	376.75
2907.996	430.75
2911.358	451.75
2914.717	469.75
2918.073	482.75
2921.426	507.75
2924.777	516.75
2928.124	528.75
2931.469	534.75
2934.811	531.75
2938.15	523.75
2941.487	519.75
2944.821	520.75
2948.152	512.75
2951.48	511.75
2954.805	510.75
2958.128	515.75
2961.447	542.75
2964.765	547.75
2968.079	551.75
2971.39	563.75
2974.699	581.75
2978.005	581.75
2981.308	599.75
2984.609	603.75
2987.907	601.75
2991.202	587.75
2994.494	594.75
2997.784	588.75
3001.07	581.75
3004.355	562.75
3007.636	578.75
3010.915	593.75
3014.191	617.75
3017.464	641.75
3020.734	659.75
3024.002	687.75
3027.267	696.75
3030.53	707.75
3033.789	718.75
3037.046	734.75
3040.301	742.75
3043.552	747.75
3046.801	752.75
3050.048	758.75
3053.291	773.75
3056.532	783.75
3059.771	764.75
3063.006	781.75
3066.239	779.75
3069.469	788.75
3072.697	802.75
3075.922	818.75
3079.144	841.75
3082.364	883.75
3085.581	909.75
3088.795	948.75
3092.007	957.75
3095.216	981.75
3098.423	979.75
3101.627	1009.75
3104.828	1015.75
3108.026	1040.75
3111.222	1053.75
3114.416	1063.75
3117.607	1056.75
3120.795	1081.75
3123.98	1072.75
3127.163	1098.75
3130.344	1101.75
3133.521	1127.75
3136.696	1147.75
3139.869	1169.75
3143.039	1195.75
3146.206	1219.75
3149.371	1244.75
3152.533	1238.75
3155.693	1255.75
3158.85	1266.75
3162.005	1254.75
3165.157	1279.75
3168.306	1251.75
3171.453	1247.75
3174.597	1256.75
3177.739	1240.75
3180.878	1234.75
3184.014	1208.75
3187.149	1178.75
3190.28	1164.75
3193.409	1184.75
3196.536	1207.75
3199.659	1218.75
3202.781	1248.75
3205.9	1259.75
3209.016	1289.75
3212.13	1280.75
3215.241	1267.75
3218.35	1265.75
3221.456	1253.75
3224.56	1245.75
3227.661	1233.75
3230.76	1196.75
3233.856	1175.75
3236.95	1153.75
3240.041	1135.75
3243.13	1119.75
3246.216	1111.75
3249.3	1088.75
3252.382	1103.75
3255.46	1105.75
3258.537	1128.75
3261.611	1138.75
3264.682	1132.75
3267.751	1152.75
3270.818	1147.75
3273.882	1136.75
3276.943	1136.75
3280.002	1128.75
3283.059	1111.75
3286.113	1112.75
3289.165	1081.75
3292.214	1058.75
3295.261	1034.75
3298.306	1014.75
3301.348	989.75
3304.387	927.75
3307.425	916.75
3310.459	911.75
3313.492	904.75
3316.521	903.75
3319.549	884.75
3322.574	889.75
3325.597	891.75
3328.617	884.75
3331.635	880.75
3334.65	875.75
3337.663	865.75
3340.674	859.75
3343.682	862.75
3346.688	849.75
3349.691	828.75
3352.692	813.75
3355.691	768.75
3358.687	735.75
3361.681	723.75
3364.673	701.75
3367.662	676.75
3370.649	666.75
3373.633	687.75
3376.615	720.75
3379.595	739.75
3382.572	743.75
3385.547	742.75
3388.52	758.75
3391.49	721.75
3394.458	717.75
3397.424	709.75
3400.387	710.75
3403.348	683.75
3406.307	689.75
3409.263	661.75
3412.217	638.75
3415.168	605.75
3418.118	591.75
3421.065	553.75
3424.009	500.75
3426.951	477.75
3429.891	464.75
3432.829	439.75
3435.764	446.75
3438.697	443.75
3441.628	455.75
3444.557	445.75
3447.483	441.75
3450.407	431.75
3453.328	420.75
3456.247	407.75
3459.164	387.75
3462.079	350.75
3464.991	309.75
3467.902	252.75
3470.809	179.75
3473.715	51.75
3476.618	-85.25
3479.519	-298.25
3482.418	-508.25
3485.315	-689.25
3488.209	-847.25
3491.101	-898.25
3493.99	-874.25
3496.878	-829.25
3499.763	-787.25
3502.646	-825.25
3505.527	-887.25
3508.405	-943.25
3511.281	-907.25
3514.155	-828.25
3517.027	-745.25
3519.897	-677.25
3522.764	-658.25
3525.629	-651.25
3528.492	-694.25
3531.352	-776.25
3534.211	-923.25
3537.067	-1108.25
3539.921	-1261.25
3542.773	-1402.25
3545.622	-1459.25
3548.469	-1405.25
3551.315	-1276.25
3554.157	-1088.25
3556.998	-912.25
3559.837	-755.25
3562.673	-619.25
3565.507	-520.25
3568.339	-431.25
3571.169	-394.25
3573.996	-374.25
3576.822	-381.25
3579.645	-521.25
3582.466	-1160.25
3585.285	-1778.25
3588.101	-1737.25
3590.916	-1162.25
3593.728	-824.25
3596.538	-815.25
3599.346	-898.25
3602.152	-987.25
3604.956	-1043.25
3607.757	-1044.25
3610.556	-1015.25
3613.354	-956.25
3616.149	-877.25
3618.942	-787.25
3621.732	-709.25
3624.521	-647.25
3627.307	-578.25
3630.092	-541.25
3632.874	-505.25
3635.654	-478.25
3638.432	-466.25
3641.208	-478.25
3643.982	-500.25
3646.753	-531.25
3649.523	-592.25
3652.29	-617.25
3655.055	-640.25
3657.818	-668.25
3660.579	-669.25
3663.338	-638.25
3666.095	-602.25
3668.849	-538.25
3671.602	-482.25
3674.352	-408.25
3677.101	-345.25
3679.847	-300.25
3682.591	-261.25
3685.333	-229.25
3688.073	-207.25
3690.811	-187.25
3693.547	-179.25
3696.281	-168.25
3699.013	-169.25
3701.742	-164.25
3704.47	-161.25
3707.195	-167.25
3709.919	-167.25
3712.64	-163.25
3715.359	-168.25
3718.076	-172.25
3720.792	-163.25
3723.505	-160.25
3726.216	-152.25
3728.925	-145.25
3731.632	-138.25
3734.336	-134.25
3737.039	-127.25
3739.74	-128.25
3742.439	-128.25
3745.136	-123.25
3747.83	-116.25
3750.523	-122.25
3753.213	-117.25
3755.902	-117.25
3758.589	-128.25
3761.273	-125.25
3763.956	-127.25
3766.636	-135.25
3769.315	-136.25
3771.991	-140.25
3774.665	-142.25
3777.338	-154.25
3780.008	-155.25
3782.677	-159.25
3785.343	-158.25
3788.007	-156.25
3790.67	-151.25
3793.33	-154.25
3795.989	-149.25
3798.645	-144.25
3801.299	-137.25
3803.952	-141.25
3806.602	-141.25
3809.251	-135.25
3811.897	-136.25
3814.542	-134.25
3817.184	-135.25
3819.825	-133.25
3822.463	-130.25
3825.1	-135.25
3827.735	-134.25
3830.367	-138.25
3832.998	-135.25
3835.627	-129.25
3838.253	-128.25
3840.878	-132.25
3843.501	-130.25
3846.122	-129.25
3848.741	-130.25
3851.358	-132.25
3853.973	-129.25
3856.586	-126.25
3859.197	-124.25
3861.806	-123.25
3864.414	-121.25
3867.019	-130.25
3869.622	-126.25
3872.224	-127.25
3874.823	-127.25
3877.421	-126.25
3880.016	-128.25
3882.61	-129.25
3885.202	-132.25
3887.792	-134.25
3890.38	-137.25
3892.966	-132.25
3895.55	-137.25
3898.132	-130.25
3900.713	-134.25
3903.291	-134.25
3905.868	-134.25
3908.442	-129.25
3911.015	-128.25
3913.586	-128.25
3916.155	-128.25
3918.722	-126.25
3921.287	-124.25
3923.85	-125.25
3926.411	-126.25
3928.971	-123.25
3931.528	-126.25
3934.084	-127.25
3936.638	-129.25
3939.19	-128.25
3941.74	-130.25
3944.288	-132.25
3946.834	-131.25
3949.378	-132.25
3951.921	-133.25
3954.462	-129.25
3957	-133.25
3959.537	-128.25
3962.072	-130.25
3964.606	-134.25
3967.137	-133.25
3969.667	-129.25
3972.194	-128.25
3974.72	-129.25
3977.244	-126.25
3979.766	-120.25
3982.286	-123.25
3984.805	-122.25
3987.321	-122.25
3989.836	-123.25
3992.349	-124.25
3994.86	-122.25
3997.369	-122.25
3999.877	-125.25
4002.382	-129.25
4004.886	-128.25
4007.388	-118.25
4009.888	-125.25
4012.386	-120.25
4014.883	-122.25
4017.377	-122.25
4019.87	-121.25
4022.361	-122.25
4024.85	-114.25
4027.338	-118.25
4029.823	-118.25
4032.307	-124.25
4034.789	-118.25
4037.269	-122.25
4039.747	-120.25
4042.224	-122.25
4044.699	-126.25
4047.172	-121.25
4049.643	-123.25
4052.112	-124.25
4054.58	-133.25
4057.046	-125.25
4059.51	-130.25
4061.972	-132.25
4064.432	-132.25
4066.891	-131.25
4069.348	-138.25
4071.803	-153.25
4074.256	-234.25
4076.708	-351.25
4079.158	-358.25
4081.606	-258.25
4084.052	-195.25
4086.497	-162.25
4088.939	-146.25
4091.38	-138.25
4093.819	-135.25
4096.257	-124.25
4098.693	-125.25
4101.127	-125.25
4103.559	-123.25
4105.989	-78.25
4108.418	-68.25
4110.845	-75.25
4113.27	-69.25
4115.694	-60.25
4118.115	-44.25
4120.535	-136.25
4122.954	-132.25
4125.37	-132.25
4127.785	-142.25
4130.198	-186.25
4132.609	-238.25
4135.019	-124.25
4137.427	-124.25
4139.833	-125.25
4142.237	-126.25
