Data from I0.5_T10s_Bsub_water_1-1_3_RamanShift_1.txt Node
Date: Mon Mar 13 14:13:17 IST 2017
User: aro
Spectrometer: QEPB0276
Trigger mode: 0
Integration Time (sec): 1.000000E1
Scans to average: 1
Electric dark correction enabled: true
Nonlinearity correction enabled: false
Boxcar width: 0
XAxis mode: Raman Shifts
Number of Pixels in Spectrum: 1044
>>>>>Begin Spectral Data<<<<<
160.701	-21.62
166.742	0.38
172.777	67.38
178.805	256.38
184.826	735.38
190.841	1576.38
196.849	2526.38
202.85	3144.38
208.845	3301.38
214.833	3197.38
220.815	3121.38
226.789	3055.38
232.758	3030.38
238.719	2969.38
244.674	2890.38
250.623	2782.38
256.565	2734.38
262.5	2638.38
268.429	2565.38
274.351	2482.38
280.267	2432.38
286.176	2359.38
292.079	2321.38
297.975	2270.38
303.865	2210.38
309.748	2173.38
315.625	2119.38
321.495	2090.38
327.359	2070.38
333.217	2016.38
339.068	2010.38
344.912	1992.38
350.751	1975.38
356.583	1989.38
362.408	1949.38
368.227	1939.38
374.04	1941.38
379.847	1930.38
385.647	1955.38
391.44	1942.38
397.228	1959.38
403.009	1975.38
408.784	1963.38
414.553	1968.38
420.315	1975.38
426.071	1957.38
431.821	1959.38
437.565	1958.38
443.302	1967.38
449.033	1954.38
454.758	1951.38
460.477	1950.38
466.189	1940.38
471.896	1919.38
477.596	1907.38
483.29	1897.38
488.978	1897.38
494.66	1890.38
500.335	1886.38
506.005	1874.38
511.668	1813.38
517.325	1789.38
522.977	1783.38
528.622	1782.38
534.261	1744.38
539.894	1751.38
545.521	1742.38
551.141	1728.38
556.756	1723.38
562.365	1713.38
567.968	1723.38
573.565	1707.38
579.155	1704.38
584.74	1687.38
590.319	1691.38
595.892	1681.38
601.459	1669.38
607.02	1643.38
612.575	1658.38
618.124	1650.38
623.667	1619.38
629.204	1618.38
634.735	1608.38
640.261	1598.38
645.781	1600.38
651.294	1591.38
656.802	1591.38
662.304	1574.38
667.8	1593.38
673.29	1570.38
678.775	1582.38
684.254	1567.38
689.726	1573.38
695.193	1574.38
700.655	1570.38
706.11	1561.38
711.56	1540.38
717.004	1529.38
722.442	1513.38
727.874	1522.38
733.301	1514.38
738.722	1516.38
744.137	1502.38
749.547	1512.38
754.951	1515.38
760.349	1511.38
765.741	1510.38
771.128	1522.38
776.509	1518.38
781.885	1530.38
787.254	1511.38
792.618	1531.38
797.977	1520.38
803.33	1511.38
808.677	1501.38
814.019	1496.38
819.355	1498.38
824.686	1479.38
830.011	1469.38
835.33	1469.38
840.644	1470.38
845.952	1483.38
851.255	1464.38
856.552	1478.38
861.844	1464.38
867.13	1475.38
872.41	1477.38
877.686	1466.38
882.955	1450.38
888.219	1427.38
893.478	1426.38
898.731	1392.38
903.979	1380.38
909.221	1390.38
914.458	1366.38
919.69	1383.38
924.916	1379.38
930.136	1381.38
935.351	1387.38
940.561	1402.38
945.766	1390.38
950.965	1388.38
956.158	1382.38
961.347	1361.38
966.529	1358.38
971.707	1348.38
976.879	1321.38
982.046	1314.38
987.208	1318.38
992.364	1308.38
997.515	1309.38
1002.66	1333.38
1007.801	1346.38
1012.936	1359.38
1018.066	1368.38
1023.19	1364.38
1028.309	1382.38
1033.423	1397.38
1038.532	1383.38
1043.636	1372.38
1048.734	1359.38
1053.827	1349.38
1058.915	1332.38
1063.998	1343.38
1069.075	1336.38
1074.147	1332.38
1079.214	1349.38
1084.276	1351.38
1089.333	1376.38
1094.385	1387.38
1099.431	1377.38
1104.472	1400.38
1109.509	1380.38
1114.54	1373.38
1119.565	1352.38
1124.586	1351.38
1129.602	1325.38
1134.613	1306.38
1139.618	1309.38
1144.619	1324.38
1149.614	1309.38
1154.604	1330.38
1159.589	1331.38
1164.57	1348.38
1169.545	1363.38
1174.515	1359.38
1179.48	1351.38
1184.44	1347.38
1189.395	1328.38
1194.345	1323.38
1199.29	1335.38
1204.23	1315.38
1209.165	1338.38
1214.095	1346.38
1219.021	1354.38
1223.941	1367.38
1228.856	1387.38
1233.766	1391.38
1238.672	1390.38
1243.572	1388.38
1248.467	1380.38
1253.358	1338.38
1258.244	1348.38
1263.124	1332.38
1268	1323.38
1272.871	1295.38
1277.737	1283.38
1282.599	1289.38
1287.455	1304.38
1292.306	1312.38
1297.153	1315.38
1301.995	1312.38
1306.832	1330.38
1311.664	1338.38
1316.491	1338.38
1321.314	1326.38
1326.132	1326.38
1330.945	1305.38
1335.753	1285.38
1340.556	1272.38
1345.354	1250.38
1350.148	1250.38
1354.937	1211.38
1359.722	1246.38
1364.501	1241.38
1369.276	1280.38
1374.046	1276.38
1378.811	1286.38
1383.572	1290.38
1388.327	1284.38
1393.079	1269.38
1397.825	1256.38
1402.567	1227.38
1407.304	1228.38
1412.036	1213.38
1416.764	1208.38
1421.487	1205.38
1426.205	1201.38
1430.919	1211.38
1435.628	1231.38
1440.333	1247.38
1445.032	1251.38
1449.727	1258.38
1454.418	1253.38
1459.104	1258.38
1463.785	1249.38
1468.462	1231.38
1473.134	1229.38
1477.802	1213.38
1482.465	1211.38
1487.123	1225.38
1491.777	1234.38
1496.426	1236.38
1501.071	1224.38
1505.711	1258.38
1510.347	1283.38
1514.978	1288.38
1519.604	1290.38
1524.226	1298.38
1528.844	1317.38
1533.457	1307.38
1538.065	1303.38
1542.669	1288.38
1547.269	1285.38
1551.864	1284.38
1556.454	1283.38
1561.041	1294.38
1565.622	1294.38
1570.199	1309.38
1574.772	1317.38
1579.34	1326.38
1583.904	1342.38
1588.464	1334.38
1593.019	1349.38
1597.569	1353.38
1602.115	1353.38
1606.657	1359.38
1611.195	1359.38
1615.728	1347.38
1620.256	1356.38
1624.78	1360.38
1629.3	1393.38
1633.816	1381.38
1638.327	1403.38
1642.834	1428.38
1647.336	1429.38
1651.834	1432.38
1656.328	1431.38
1660.817	1440.38
1665.302	1435.38
1669.783	1405.38
1674.259	1394.38
1678.732	1371.38
1683.199	1319.38
1687.663	1289.38
1692.122	1260.38
1696.577	1232.38
1701.028	1219.38
1705.474	1203.38
1709.917	1194.38
1714.355	1183.38
1718.788	1175.38
1723.218	1165.38
1727.643	1138.38
1732.064	1113.38
1736.481	1114.38
1740.893	1089.38
1745.301	1068.38
1749.705	1048.38
1754.105	1024.38
1758.501	1017.38
1762.893	1001.38
1767.28	984.38
1771.663	996.38
1776.042	990.38
1780.417	994.38
1784.787	1012.38
1789.154	1007.38
1793.516	1013.38
1797.874	1031.38
1802.228	1029.38
1806.578	1030.38
1810.924	1022.38
1815.266	1012.38
1819.603	1004.38
1823.937	979.38
1828.266	981.38
1832.591	968.38
1836.913	949.38
1841.23	953.38
1845.543	964.38
1849.852	939.38
1854.156	944.38
1858.457	948.38
1862.754	961.38
1867.047	955.38
1871.335	964.38
1875.62	967.38
1879.9	971.38
1884.177	948.38
1888.449	954.38
1892.718	961.38
1896.982	949.38
1901.243	952.38
1905.499	960.38
1909.752	944.38
1914	946.38
1918.245	950.38
1922.485	951.38
1926.722	957.38
1930.954	970.38
1935.183	969.38
1939.408	971.38
1943.628	968.38
1947.845	979.38
1952.058	979.38
1956.267	978.38
1960.472	966.38
1964.673	968.38
1968.87	941.38
1973.063	942.38
1977.252	939.38
1981.438	927.38
1985.619	912.38
1989.797	912.38
1993.971	916.38
1998.14	911.38
2002.306	917.38
2006.469	917.38
2010.627	912.38
2014.781	924.38
2018.932	908.38
2023.078	911.38
2027.221	909.38
2031.36	894.38
2035.495	891.38
2039.627	890.38
2043.754	882.38
2047.878	879.38
2051.998	873.38
2056.114	897.38
2060.226	879.38
2064.334	879.38
2068.439	891.38
2072.54	905.38
2076.637	891.38
2080.73	899.38
2084.82	907.38
2088.906	902.38
2092.988	890.38
2097.066	900.38
2101.14	892.38
2105.211	893.38
2109.278	888.38
2113.342	886.38
2117.401	871.38
2121.457	873.38
2125.509	861.38
2129.558	865.38
2133.602	864.38
2137.643	850.38
2141.681	865.38
2145.714	866.38
2149.744	859.38
2153.77	859.38
2157.793	842.38
2161.812	832.38
2165.827	820.38
2169.838	817.38
2173.846	801.38
2177.851	796.38
2181.851	790.38
2185.848	793.38
2189.841	781.38
2193.831	782.38
2197.817	768.38
2201.799	766.38
2205.778	767.38
2209.753	777.38
2213.725	766.38
2217.693	761.38
2221.657	757.38
2225.618	770.38
2229.575	769.38
2233.529	760.38
2237.479	747.38
2241.425	746.38
2245.368	739.38
2249.307	735.38
2253.243	733.38
2257.175	718.38
2261.104	713.38
2265.029	700.38
2268.95	701.38
2272.868	693.38
2276.783	688.38
2280.694	686.38
2284.601	680.38
2288.505	664.38
2292.405	680.38
2296.302	671.38
2300.195	659.38
2304.085	649.38
2307.971	653.38
2311.854	632.38
2315.734	627.38
2319.609	615.38
2323.482	598.38
2327.351	601.38
2331.216	596.38
2335.078	600.38
2338.937	586.38
2342.792	582.38
2346.643	584.38
2350.492	577.38
2354.336	590.38
2358.178	594.38
2362.015	583.38
2365.85	585.38
2369.681	587.38
2373.508	593.38
2377.333	583.38
2381.153	584.38
2384.971	583.38
2388.785	585.38
2392.595	574.38
2396.402	566.38
2400.206	566.38
2404.007	579.38
2407.804	569.38
2411.597	565.38
2415.388	557.38
2419.174	570.38
2422.958	567.38
2426.738	551.38
2430.515	551.38
2434.289	552.38
2438.059	548.38
2441.825	553.38
2445.589	541.38
2449.349	543.38
2453.106	533.38
2456.859	540.38
2460.61	528.38
2464.356	540.38
2468.1	527.38
2471.84	525.38
2475.577	526.38
2479.311	526.38
2483.041	518.38
2486.768	515.38
2490.492	528.38
2494.213	523.38
2497.93	518.38
2501.644	519.38
2505.355	518.38
2509.062	523.38
2512.766	522.38
2516.467	511.38
2520.165	507.38
2523.859	513.38
2527.551	509.38
2531.239	494.38
2534.923	503.38
2538.605	491.38
2542.283	488.38
2545.958	492.38
2549.63	485.38
2553.299	488.38
2556.964	492.38
2560.626	491.38
2564.285	482.38
2567.941	474.38
2571.594	483.38
2575.243	480.38
2578.89	478.38
2582.533	469.38
2586.173	471.38
2589.809	462.38
2593.443	467.38
2597.073	459.38
2600.701	460.38
2604.325	451.38
2607.946	464.38
2611.564	450.38
2615.178	450.38
2618.79	449.38
2622.398	440.38
2626.004	449.38
2629.606	445.38
2633.205	445.38
2636.801	431.38
2640.394	424.38
2643.983	425.38
2647.57	413.38
2651.153	418.38
2654.734	421.38
2658.311	409.38
2661.885	400.38
2665.456	404.38
2669.025	402.38
2672.589	405.38
2676.151	399.38
2679.71	392.38
2683.266	393.38
2686.819	381.38
2690.368	385.38
2693.915	374.38
2697.458	378.38
2700.999	368.38
2704.536	364.38
2708.071	366.38
2711.602	355.38
2715.13	359.38
2718.656	349.38
2722.178	341.38
2725.697	356.38
2729.214	348.38
2732.727	354.38
2736.237	353.38
2739.744	348.38
2743.249	360.38
2746.75	360.38
2750.248	349.38
2753.743	354.38
2757.236	356.38
2760.725	363.38
2764.211	354.38
2767.695	350.38
2771.175	350.38
2774.652	346.38
2778.127	340.38
2781.598	348.38
2785.067	340.38
2788.532	332.38
2791.995	333.38
2795.455	336.38
2798.911	341.38
2802.365	333.38
2805.816	336.38
2809.264	335.38
2812.709	324.38
2816.151	324.38
2819.59	329.38
2823.026	326.38
2826.46	325.38
2829.89	324.38
2833.318	326.38
2836.742	317.38
2840.164	315.38
2843.583	329.38
2846.999	316.38
2850.412	332.38
2853.822	321.38
2857.229	325.38
2860.634	330.38
2864.035	330.38
2867.434	327.38
2870.83	327.38
2874.223	322.38
2877.613	332.38
2881	315.38
2884.385	322.38
2887.766	328.38
2891.145	323.38
2894.521	308.38
2897.894	309.38
2901.264	310.38
2904.631	310.38
2907.996	305.38
2911.358	311.38
2914.717	317.38
2918.073	311.38
2921.426	309.38
2924.777	324.38
2928.124	316.38
2931.469	330.38
2934.811	334.38
2938.15	330.38
2941.487	333.38
2944.821	326.38
2948.152	324.38
2951.48	337.38
2954.805	332.38
2958.128	331.38
2961.447	340.38
2964.765	339.38
2968.079	344.38
2971.39	343.38
2974.699	347.38
2978.005	351.38
2981.308	349.38
2984.609	358.38
2987.907	369.38
2991.202	376.38
2994.494	372.38
2997.784	383.38
3001.07	391.38
3004.355	399.38
3007.636	397.38
3010.915	407.38
3014.191	410.38
3017.464	413.38
3020.734	404.38
3024.002	415.38
3027.267	419.38
3030.53	430.38
3033.789	427.38
3037.046	424.38
3040.301	434.38
3043.552	449.38
3046.801	442.38
3050.048	458.38
3053.291	449.38
3056.532	465.38
3059.771	483.38
3063.006	493.38
3066.239	502.38
3069.469	517.38
3072.697	536.38
3075.922	528.38
3079.144	551.38
3082.364	554.38
3085.581	559.38
3088.795	573.38
3092.007	580.38
3095.216	596.38
3098.423	601.38
3101.627	606.38
3104.828	625.38
3108.026	628.38
3111.222	643.38
3114.416	652.38
3117.607	671.38
3120.795	673.38
3123.98	678.38
3127.163	710.38
3130.344	722.38
3133.521	742.38
3136.696	747.38
3139.869	749.38
3143.039	771.38
3146.206	772.38
3149.371	786.38
3152.533	787.38
3155.693	803.38
3158.85	788.38
3162.005	799.38
3165.157	802.38
3168.306	812.38
3171.453	801.38
3174.597	805.38
3177.739	817.38
3180.878	803.38
3184.014	807.38
3187.149	818.38
3190.28	794.38
3193.409	818.38
3196.536	810.38
3199.659	823.38
3202.781	809.38
3205.9	837.38
3209.016	827.38
3212.13	813.38
3215.241	826.38
3218.35	803.38
3221.456	804.38
3224.56	797.38
3227.661	782.38
3230.76	778.38
3233.856	776.38
3236.95	781.38
3240.041	760.38
3243.13	758.38
3246.216	761.38
3249.3	750.38
3252.382	748.38
3255.46	754.38
3258.537	739.38
3261.611	737.38
3264.682	750.38
3267.751	725.38
3270.818	724.38
3273.882	727.38
3276.943	726.38
3280.002	724.38
3283.059	712.38
3286.113	704.38
3289.165	692.38
3292.214	692.38
3295.261	669.38
3298.306	662.38
3301.348	649.38
3304.387	645.38
3307.425	637.38
3310.459	626.38
3313.492	609.38
3316.521	612.38
3319.549	606.38
3322.574	582.38
3325.597	584.38
3328.617	583.38
3331.635	574.38
3334.65	583.38
3337.663	568.38
3340.674	570.38
3343.682	570.38
3346.688	570.38
3349.691	563.38
3352.692	569.38
3355.691	554.38
3358.687	546.38
3361.681	543.38
3364.673	540.38
3367.662	538.38
3370.649	522.38
3373.633	520.38
3376.615	512.38
3379.595	494.38
3382.572	499.38
3385.547	494.38
3388.52	485.38
3391.49	486.38
3394.458	463.38
3397.424	465.38
3400.387	455.38
3403.348	456.38
3406.307	452.38
3409.263	450.38
3412.217	440.38
3415.168	429.38
3418.118	433.38
3421.065	419.38
3424.009	422.38
3426.951	418.38
3429.891	403.38
3432.829	403.38
3435.764	402.38
3438.697	398.38
3441.628	379.38
3444.557	359.38
3447.483	359.38
3450.407	352.38
3453.328	348.38
3456.247	327.38
3459.164	319.38
3462.079	314.38
3464.991	307.38
3467.902	286.38
3470.809	285.38
3473.715	278.38
3476.618	270.38
3479.519	259.38
3482.418	249.38
3485.315	253.38
3488.209	250.38
3491.101	239.38
3493.99	228.38
3496.878	221.38
3499.763	212.38
3502.646	202.38
3505.527	208.38
3508.405	190.38
3511.281	192.38
3514.155	181.38
3517.027	178.38
3519.897	163.38
3522.764	163.38
3525.629	149.38
3528.492	144.38
3531.352	133.38
3534.211	129.38
3537.067	127.38
3539.921	109.38
3542.773	110.38
3545.622	107.38
3548.469	101.38
3551.315	92.38
3554.157	85.38
3556.998	77.38
3559.837	71.38
3562.673	71.38
3565.507	65.38
3568.339	63.38
3571.169	54.38
3573.996	55.38
3576.822	41.38
3579.645	38.38
3582.466	44.38
3585.285	36.38
3588.101	34.38
3590.916	34.38
3593.728	26.38
3596.538	24.38
3599.346	29.38
3602.152	23.38
3604.956	13.38
3607.757	18.38
3610.556	6.38
3613.354	6.38
3616.149	5.38
3618.942	0.38
3621.732	1.38
3624.521	1.38
3627.307	-4.62
3630.092	-6.62
3632.874	-8.62
3635.654	-6.62
3638.432	-16.62
3641.208	-10.62
3643.982	-10.62
3646.753	-19.62
3649.523	-18.62
3652.29	-21.62
3655.055	-26.62
3657.818	-23.62
3660.579	-26.62
3663.338	-24.62
3666.095	-31.62
3668.849	-34.62
3671.602	-31.62
3674.352	-33.62
3677.101	-35.62
3679.847	-36.62
3682.591	-38.62
3685.333	-40.62
3688.073	-46.62
3690.811	-43.62
3693.547	-44.62
3696.281	-48.62
3699.013	-49.62
3701.742	-46.62
3704.47	-48.62
3707.195	-45.62
3709.919	-53.62
3712.64	-50.62
3715.359	-50.62
3718.076	-46.62
3720.792	-48.62
3723.505	-51.62
3726.216	-51.62
3728.925	-49.62
3731.632	-46.62
3734.336	-49.62
3737.039	-52.62
3739.74	-47.62
3742.439	-55.62
3745.136	-54.62
3747.83	-55.62
3750.523	-51.62
3753.213	-59.62
3755.902	-56.62
3758.589	-60.62
3761.273	-59.62
3763.956	-57.62
3766.636	-59.62
3769.315	-61.62
3771.991	-61.62
3774.665	-59.62
3777.338	-65.62
3780.008	-61.62
3782.677	-64.62
3785.343	-60.62
3788.007	-58.62
3790.67	-63.62
3793.33	-63.62
3795.989	-63.62
3798.645	-57.62
3801.299	-61.62
3803.952	-60.62
3806.602	-63.62
3809.251	-64.62
3811.897	-63.62
3814.542	-64.62
3817.184	-62.62
3819.825	-62.62
3822.463	-68.62
3825.1	-66.62
3827.735	-67.62
3830.367	-70.62
3832.998	-67.62
3835.627	-68.62
3838.253	-63.62
3840.878	-69.62
3843.501	-69.62
3846.122	-67.62
3848.741	-67.62
3851.358	-67.62
3853.973	-67.62
3856.586	-71.62
3859.197	-62.62
3861.806	-63.62
3864.414	-63.62
3867.019	-68.62
3869.622	-69.62
3872.224	-66.62
3874.823	-67.62
3877.421	-67.62
3880.016	-63.62
3882.61	-58.62
3885.202	-63.62
3887.792	-68.62
3890.38	-67.62
3892.966	-68.62
3895.55	-67.62
3898.132	-69.62
3900.713	-73.62
3903.291	-69.62
3905.868	-69.62
3908.442	-70.62
3911.015	-72.62
3913.586	-65.62
3916.155	-66.62
3918.722	-66.62
3921.287	-64.62
3923.85	-66.62
3926.411	-69.62
3928.971	-69.62
3931.528	-70.62
3934.084	-69.62
3936.638	-68.62
3939.19	-71.62
3941.74	-69.62
3944.288	-70.62
3946.834	-70.62
3949.378	-73.62
3951.921	-71.62
3954.462	-75.62
3957	-77.62
3959.537	-70.62
3962.072	-74.62
3964.606	-73.62
3967.137	-72.62
3969.667	-73.62
3972.194	-75.62
3974.72	-72.62
3977.244	-71.62
3979.766	-69.62
3982.286	-71.62
3984.805	-68.62
3987.321	-70.62
3989.836	-67.62
3992.349	-68.62
3994.86	-67.62
3997.369	-69.62
3999.877	-65.62
4002.382	-70.62
4004.886	-65.62
4007.388	-70.62
4009.888	-67.62
4012.386	-69.62
4014.883	-70.62
4017.377	-71.62
4019.87	-69.62
4022.361	-72.62
4024.85	-69.62
4027.338	-73.62
4029.823	-70.62
4032.307	-70.62
4034.789	-68.62
4037.269	-72.62
4039.747	-71.62
4042.224	-74.62
4044.699	-71.62
4047.172	-70.62
4049.643	-72.62
4052.112	-71.62
4054.58	-70.62
4057.046	-68.62
4059.51	-69.62
4061.972	-70.62
4064.432	-69.62
4066.891	-72.62
4069.348	-65.62
4071.803	-69.62
4074.256	-70.62
4076.708	-68.62
4079.158	-67.62
4081.606	-71.62
4084.052	-73.62
4086.497	-70.62
4088.939	-68.62
4091.38	-73.62
4093.819	-70.62
4096.257	-74.62
4098.693	-76.62
4101.127	-75.62
4103.559	-73.62
4105.989	-46.62
4108.418	-41.62
4110.845	-42.62
4113.27	-40.62
4115.694	-39.62
4118.115	-25.62
4120.535	-72.62
4122.954	-74.62
4125.37	-75.62
4127.785	-71.62
4130.198	-69.62
4132.609	-71.62
4135.019	-72.62
4137.427	-76.62
4139.833	-78.62
4142.237	-74.62
