Data from I0.75_T10s_Bsub_water_1-10^2_3_RamanShift_1.txt Node
Date: Mon Mar 13 15:34:27 IST 2017
User: aro
Spectrometer: QEPB0276
Trigger mode: 0
Integration Time (sec): 1.000000E1
Scans to average: 1
Electric dark correction enabled: true
Nonlinearity correction enabled: false
Boxcar width: 0
XAxis mode: Raman Shifts
Number of Pixels in Spectrum: 1044
>>>>>Begin Spectral Data<<<<<
160.701	-53.38
166.742	13.62
172.777	176.62
178.805	706.62
184.826	2068.62
190.841	4402.62
196.849	7059.62
202.85	8888.62
208.845	9345.62
214.833	9117.62
220.815	8833.62
226.789	8673.62
232.758	8549.62
238.719	8386.62
244.674	8156.62
250.623	7927.62
256.565	7665.62
262.5	7445.62
268.429	7213.62
274.351	6979.62
280.267	6849.62
286.176	6661.62
292.079	6535.62
297.975	6323.62
303.865	6170.62
309.748	6079.62
315.625	5924.62
321.495	5821.62
327.359	5687.62
333.217	5631.62
339.068	5582.62
344.912	5508.62
350.751	5465.62
356.583	5379.62
362.408	5368.62
368.227	5375.62
374.04	5353.62
379.847	5359.62
385.647	5325.62
391.44	5360.62
397.228	5366.62
403.009	5345.62
408.784	5381.62
414.553	5370.62
420.315	5396.62
426.071	5361.62
431.821	5361.62
437.565	5361.62
443.302	5360.62
449.033	5362.62
454.758	5292.62
460.477	5285.62
466.189	5306.62
471.896	5242.62
477.596	5246.62
483.29	5208.62
488.978	5196.62
494.66	5184.62
500.335	5143.62
506.005	5053.62
511.668	4994.62
517.325	4941.62
522.977	4886.62
528.622	4842.62
534.261	4818.62
539.894	4771.62
545.521	4750.62
551.141	4741.62
556.756	4751.62
562.365	4731.62
567.968	4710.62
573.565	4712.62
579.155	4674.62
584.74	4664.62
590.319	4653.62
595.892	4602.62
601.459	4602.62
607.02	4592.62
612.575	4558.62
618.124	4521.62
623.667	4464.62
629.204	4464.62
634.735	4468.62
640.261	4443.62
645.781	4376.62
651.294	4385.62
656.802	4372.62
662.304	4384.62
667.8	4392.62
673.29	4344.62
678.775	4367.62
684.254	4346.62
689.726	4344.62
695.193	4342.62
700.655	4283.62
706.11	4305.62
711.56	4289.62
717.004	4275.62
722.442	4264.62
727.874	4238.62
733.301	4205.62
738.722	4222.62
744.137	4186.62
749.547	4223.62
754.951	4226.62
760.349	4236.62
765.741	4213.62
771.128	4221.62
776.509	4242.62
781.885	4240.62
787.254	4262.62
792.618	4237.62
797.977	4242.62
803.33	4183.62
808.677	4178.62
814.019	4144.62
819.355	4135.62
824.686	4114.62
830.011	4090.62
835.33	4105.62
840.644	4085.62
845.952	4131.62
851.255	4116.62
856.552	4116.62
861.844	4095.62
867.13	4104.62
872.41	4112.62
877.686	4118.62
882.955	4077.62
888.219	4039.62
893.478	3999.62
898.731	3953.62
903.979	3902.62
909.221	3878.62
914.458	3875.62
919.69	3874.62
924.916	3874.62
930.136	3903.62
935.351	3928.62
940.561	3915.62
945.766	3901.62
950.965	3886.62
956.158	3862.62
961.347	3829.62
966.529	3804.62
971.707	3769.62
976.879	3756.62
982.046	3720.62
987.208	3725.62
992.364	3724.62
997.515	3750.62
1002.66	3773.62
1007.801	3815.62
1012.936	3870.62
1018.066	3909.62
1023.19	3911.62
1028.309	3961.62
1033.423	3906.62
1038.532	3905.62
1043.636	3908.62
1048.734	3864.62
1053.827	3820.62
1058.915	3791.62
1063.998	3786.62
1069.075	3774.62
1074.147	3777.62
1079.214	3846.62
1084.276	3854.62
1089.333	3867.62
1094.385	3915.62
1099.431	3901.62
1104.472	3946.62
1109.509	3940.62
1114.54	3900.62
1119.565	3843.62
1124.586	3814.62
1129.602	3795.62
1134.613	3775.62
1139.618	3761.62
1144.619	3754.62
1149.614	3807.62
1154.604	3788.62
1159.589	3848.62
1164.57	3839.62
1169.545	3892.62
1174.515	3858.62
1179.48	3866.62
1184.44	3815.62
1189.395	3807.62
1194.345	3839.62
1199.29	3797.62
1204.23	3806.62
1209.165	3811.62
1214.095	3839.62
1219.021	3893.62
1223.941	3946.62
1228.856	3963.62
1233.766	3959.62
1238.672	3960.62
1243.572	3960.62
1248.467	3957.62
1253.358	3939.62
1258.244	3853.62
1263.124	3818.62
1268	3765.62
1272.871	3752.62
1277.737	3736.62
1282.599	3719.62
1287.455	3757.62
1292.306	3764.62
1297.153	3774.62
1301.995	3829.62
1306.832	3854.62
1311.664	3859.62
1316.491	3878.62
1321.314	3848.62
1326.132	3827.62
1330.945	3758.62
1335.753	3717.62
1340.556	3678.62
1345.354	3576.62
1350.148	3568.62
1354.937	3566.62
1359.722	3568.62
1364.501	3620.62
1369.276	3680.62
1374.046	3701.62
1378.811	3715.62
1383.572	3747.62
1388.327	3707.62
1393.079	3682.62
1397.825	3647.62
1402.567	3592.62
1407.304	3560.62
1412.036	3533.62
1416.764	3521.62
1421.487	3519.62
1426.205	3529.62
1430.919	3523.62
1435.628	3594.62
1440.333	3614.62
1445.032	3647.62
1449.727	3675.62
1454.418	3652.62
1459.104	3696.62
1463.785	3642.62
1468.462	3607.62
1473.134	3564.62
1477.802	3570.62
1482.465	3555.62
1487.123	3520.62
1491.777	3551.62
1496.426	3587.62
1501.071	3620.62
1505.711	3664.62
1510.347	3705.62
1514.978	3728.62
1519.604	3781.62
1524.226	3811.62
1528.844	3805.62
1533.457	3780.62
1538.065	3792.62
1542.669	3823.62
1547.269	3759.62
1551.864	3779.62
1556.454	3786.62
1561.041	3775.62
1565.622	3811.62
1570.199	3819.62
1574.772	3835.62
1579.34	3869.62
1583.904	3913.62
1588.464	3950.62
1593.019	3923.62
1597.569	3959.62
1602.115	3965.62
1606.657	3952.62
1611.195	3939.62
1615.728	3931.62
1620.256	3939.62
1624.78	3978.62
1629.3	3987.62
1633.816	4049.62
1638.327	4075.62
1642.834	4134.62
1647.336	4147.62
1651.834	4194.62
1656.328	4182.62
1660.817	4168.62
1665.302	4164.62
1669.783	4107.62
1674.259	4036.62
1678.732	3968.62
1683.199	3855.62
1687.663	3730.62
1692.122	3644.62
1696.577	3566.62
1701.028	3535.62
1705.474	3519.62
1709.917	3511.62
1714.355	3481.62
1718.788	3436.62
1723.218	3407.62
1727.643	3373.62
1732.064	3323.62
1736.481	3261.62
1740.893	3234.62
1745.301	3139.62
1749.705	3085.62
1754.105	3052.62
1758.501	2988.62
1762.893	2955.62
1767.28	2912.62
1771.663	2927.62
1776.042	2896.62
1780.417	2908.62
1784.787	2935.62
1789.154	2962.62
1793.516	3003.62
1797.874	3041.62
1802.228	3076.62
1806.578	3065.62
1810.924	3064.62
1815.266	3017.62
1819.603	2989.62
1823.937	2956.62
1828.266	2898.62
1832.591	2878.62
1836.913	2849.62
1841.23	2830.62
1845.543	2841.62
1849.852	2830.62
1854.156	2820.62
1858.457	2839.62
1862.754	2847.62
1867.047	2859.62
1871.335	2860.62
1875.62	2861.62
1879.9	2875.62
1884.177	2856.62
1888.449	2868.62
1892.718	2864.62
1896.982	2829.62
1901.243	2835.62
1905.499	2824.62
1909.752	2821.62
1914	2800.62
1918.245	2818.62
1922.485	2837.62
1926.722	2841.62
1930.954	2871.62
1935.183	2891.62
1939.408	2932.62
1943.628	2913.62
1947.845	2921.62
1952.058	2909.62
1956.267	2928.62
1960.472	2893.62
1964.673	2871.62
1968.87	2840.62
1973.063	2814.62
1977.252	2800.62
1981.438	2783.62
1985.619	2775.62
1989.797	2770.62
1993.971	2771.62
1998.14	2746.62
2002.306	2756.62
2006.469	2764.62
2010.627	2771.62
2014.781	2761.62
2018.932	2774.62
2023.078	2752.62
2027.221	2711.62
2031.36	2685.62
2035.495	2687.62
2039.627	2645.62
2043.754	2649.62
2047.878	2605.62
2051.998	2619.62
2056.114	2635.62
2060.226	2631.62
2064.334	2627.62
2068.439	2644.62
2072.54	2657.62
2076.637	2676.62
2080.73	2687.62
2084.82	2674.62
2088.906	2682.62
2092.988	2684.62
2097.066	2675.62
2101.14	2674.62
2105.211	2659.62
2109.278	2638.62
2113.342	2633.62
2117.401	2637.62
2121.457	2608.62
2125.509	2617.62
2129.558	2609.62
2133.602	2593.62
2137.643	2603.62
2141.681	2576.62
2145.714	2583.62
2149.744	2575.62
2153.77	2565.62
2157.793	2551.62
2161.812	2518.62
2165.827	2474.62
2169.838	2452.62
2173.846	2441.62
2177.851	2388.62
2181.851	2372.62
2185.848	2352.62
2189.841	2342.62
2193.831	2316.62
2197.817	2317.62
2201.799	2312.62
2205.778	2292.62
2209.753	2302.62
2213.725	2300.62
2217.693	2298.62
2221.657	2302.62
2225.618	2315.62
2229.575	2289.62
2233.529	2279.62
2237.479	2302.62
2241.425	2267.62
2245.368	2235.62
2249.307	2220.62
2253.243	2179.62
2257.175	2180.62
2261.104	2161.62
2265.029	2142.62
2268.95	2125.62
2272.868	2102.62
2276.783	2094.62
2280.694	2091.62
2284.601	2043.62
2288.505	2061.62
2292.405	2035.62
2296.302	2011.62
2300.195	1985.62
2304.085	1989.62
2307.971	1944.62
2311.854	1940.62
2315.734	1902.62
2319.609	1877.62
2323.482	1838.62
2327.351	1819.62
2331.216	1835.62
2335.078	1797.62
2338.937	1798.62
2342.792	1789.62
2346.643	1775.62
2350.492	1778.62
2354.336	1804.62
2358.178	1795.62
2362.015	1783.62
2365.85	1788.62
2369.681	1800.62
2373.508	1800.62
2377.333	1812.62
2381.153	1809.62
2384.971	1808.62
2388.785	1781.62
2392.595	1777.62
2396.402	1754.62
2400.206	1746.62
2404.007	1734.62
2407.804	1738.62
2411.597	1732.62
2415.388	1737.62
2419.174	1728.62
2422.958	1727.62
2426.738	1721.62
2430.515	1695.62
2434.289	1703.62
2438.059	1703.62
2441.825	1691.62
2445.589	1685.62
2449.349	1656.62
2453.106	1660.62
2456.859	1665.62
2460.61	1633.62
2464.356	1620.62
2468.1	1622.62
2471.84	1619.62
2475.577	1606.62
2479.311	1587.62
2483.041	1594.62
2486.768	1601.62
2490.492	1607.62
2494.213	1604.62
2497.93	1612.62
2501.644	1591.62
2505.355	1595.62
2509.062	1582.62
2512.766	1601.62
2516.467	1572.62
2520.165	1574.62
2523.859	1576.62
2527.551	1574.62
2531.239	1567.62
2534.923	1549.62
2538.605	1528.62
2542.283	1529.62
2545.958	1536.62
2549.63	1529.62
2553.299	1523.62
2556.964	1518.62
2560.626	1503.62
2564.285	1499.62
2567.941	1491.62
2571.594	1476.62
2575.243	1463.62
2578.89	1455.62
2582.533	1446.62
2586.173	1450.62
2589.809	1429.62
2593.443	1417.62
2597.073	1435.62
2600.701	1435.62
2604.325	1404.62
2607.946	1410.62
2611.564	1407.62
2615.178	1411.62
2618.79	1400.62
2622.398	1392.62
2626.004	1390.62
2629.606	1386.62
2633.205	1376.62
2636.801	1339.62
2640.394	1339.62
2643.983	1312.62
2647.57	1317.62
2651.153	1308.62
2654.734	1271.62
2658.311	1285.62
2661.885	1255.62
2665.456	1243.62
2669.025	1251.62
2672.589	1255.62
2676.151	1229.62
2679.71	1212.62
2683.266	1213.62
2686.819	1204.62
2690.368	1179.62
2693.915	1169.62
2697.458	1151.62
2700.999	1141.62
2704.536	1129.62
2708.071	1122.62
2711.602	1118.62
2715.13	1102.62
2718.656	1082.62
2722.178	1099.62
2725.697	1089.62
2729.214	1083.62
2732.727	1092.62
2736.237	1089.62
2739.744	1087.62
2743.249	1096.62
2746.75	1098.62
2750.248	1103.62
2753.743	1107.62
2757.236	1104.62
2760.725	1098.62
2764.211	1100.62
2767.695	1094.62
2771.175	1061.62
2774.652	1072.62
2778.127	1057.62
2781.598	1056.62
2785.067	1047.62
2788.532	1047.62
2791.995	1048.62
2795.455	1045.62
2798.911	1045.62
2802.365	1034.62
2805.816	1042.62
2809.264	1027.62
2812.709	1020.62
2816.151	1003.62
2819.59	1015.62
2823.026	1014.62
2826.46	1003.62
2829.89	994.62
2833.318	986.62
2836.742	972.62
2840.164	1003.62
2843.583	975.62
2846.999	988.62
2850.412	983.62
2853.822	983.62
2857.229	996.62
2860.634	996.62
2864.035	1010.62
2867.434	1011.62
2870.83	995.62
2874.223	1014.62
2877.613	1015.62
2881	1006.62
2884.385	1006.62
2887.766	994.62
2891.145	989.62
2894.521	991.62
2897.894	983.62
2901.264	973.62
2904.631	951.62
2907.996	951.62
2911.358	963.62
2914.717	956.62
2918.073	960.62
2921.426	962.62
2924.777	968.62
2928.124	971.62
2931.469	972.62
2934.811	975.62
2938.15	993.62
2941.487	1000.62
2944.821	979.62
2948.152	981.62
2951.48	972.62
2954.805	1005.62
2958.128	991.62
2961.447	991.62
2964.765	979.62
2968.079	992.62
2971.39	998.62
2974.699	1022.62
2978.005	1031.62
2981.308	1053.62
2984.609	1059.62
2987.907	1072.62
2991.202	1080.62
2994.494	1104.62
2997.784	1123.62
3001.07	1135.62
3004.355	1163.62
3007.636	1164.62
3010.915	1192.62
3014.191	1177.62
3017.464	1199.62
3020.734	1212.62
3024.002	1225.62
3027.267	1199.62
3030.53	1219.62
3033.789	1225.62
3037.046	1248.62
3040.301	1252.62
3043.552	1272.62
3046.801	1275.62
3050.048	1300.62
3053.291	1312.62
3056.532	1349.62
3059.771	1372.62
3063.006	1388.62
3066.239	1420.62
3069.469	1459.62
3072.697	1480.62
3075.922	1519.62
3079.144	1538.62
3082.364	1561.62
3085.581	1573.62
3088.795	1636.62
3092.007	1630.62
3095.216	1667.62
3098.423	1692.62
3101.627	1710.62
3104.828	1740.62
3108.026	1770.62
3111.222	1775.62
3114.416	1841.62
3117.607	1865.62
3120.795	1903.62
3123.98	1931.62
3127.163	1967.62
3130.344	1980.62
3133.521	2029.62
3136.696	2060.62
3139.869	2096.62
3143.039	2117.62
3146.206	2160.62
3149.371	2165.62
3152.533	2164.62
3155.693	2224.62
3158.85	2178.62
3162.005	2213.62
3165.157	2210.62
3168.306	2209.62
3171.453	2232.62
3174.597	2201.62
3177.739	2208.62
3180.878	2202.62
3184.014	2214.62
3187.149	2230.62
3190.28	2238.62
3193.409	2231.62
3196.536	2208.62
3199.659	2241.62
3202.781	2231.62
3205.9	2244.62
3209.016	2258.62
3212.13	2225.62
3215.241	2199.62
3218.35	2213.62
3221.456	2182.62
3224.56	2164.62
3227.661	2147.62
3230.76	2120.62
3233.856	2099.62
3236.95	2069.62
3240.041	2070.62
3243.13	2051.62
3246.216	2026.62
3249.3	2046.62
3252.382	2023.62
3255.46	2014.62
3258.537	2004.62
3261.611	1989.62
3264.682	1990.62
3267.751	1969.62
3270.818	1980.62
3273.882	1958.62
3276.943	1948.62
3280.002	1934.62
3283.059	1920.62
3286.113	1906.62
3289.165	1864.62
3292.214	1837.62
3295.261	1819.62
3298.306	1789.62
3301.348	1755.62
3304.387	1717.62
3307.425	1706.62
3310.459	1695.62
3313.492	1665.62
3316.521	1658.62
3319.549	1611.62
3322.574	1605.62
3325.597	1585.62
3328.617	1584.62
3331.635	1559.62
3334.65	1577.62
3337.663	1541.62
3340.674	1539.62
3343.682	1534.62
3346.688	1539.62
3349.691	1517.62
3352.692	1497.62
3355.691	1518.62
3358.687	1498.62
3361.681	1477.62
3364.673	1447.62
3367.662	1431.62
3370.649	1400.62
3373.633	1400.62
3376.615	1370.62
3379.595	1364.62
3382.572	1335.62
3385.547	1315.62
3388.52	1303.62
3391.49	1285.62
3394.458	1270.62
3397.424	1247.62
3400.387	1236.62
3403.348	1230.62
3406.307	1204.62
3409.263	1195.62
3412.217	1179.62
3415.168	1163.62
3418.118	1167.62
3421.065	1156.62
3424.009	1148.62
3426.951	1119.62
3429.891	1098.62
3432.829	1061.62
3435.764	1063.62
3438.697	1047.62
3441.628	1013.62
3444.557	987.62
3447.483	960.62
3450.407	933.62
3453.328	909.62
3456.247	884.62
3459.164	853.62
3462.079	857.62
3464.991	800.62
3467.902	794.62
3470.809	763.62
3473.715	736.62
3476.618	717.62
3479.519	687.62
3482.418	677.62
3485.315	654.62
3488.209	639.62
3491.101	615.62
3493.99	608.62
3496.878	591.62
3499.763	560.62
3502.646	570.62
3505.527	540.62
3508.405	518.62
3511.281	499.62
3514.155	481.62
3517.027	461.62
3519.897	442.62
3522.764	414.62
3525.629	403.62
3528.492	379.62
3531.352	360.62
3534.211	350.62
3537.067	324.62
3539.921	310.62
3542.773	281.62
3545.622	275.62
3548.469	256.62
3551.315	235.62
3554.157	236.62
3556.998	210.62
3559.837	206.62
3562.673	189.62
3565.507	176.62
3568.339	177.62
3571.169	159.62
3573.996	155.62
3576.822	136.62
3579.645	130.62
3582.466	110.62
3585.285	106.62
3588.101	93.62
3590.916	86.62
3593.728	71.62
3596.538	66.62
3599.346	60.62
3602.152	47.62
3604.956	32.62
3607.757	27.62
3610.556	17.62
3613.354	13.62
3616.149	8.62
3618.942	-3.38
3621.732	-6.38
3624.521	-9.38
3627.307	-16.38
3630.092	-15.38
3632.874	-15.38
3635.654	-22.38
3638.432	-25.38
3641.208	-38.38
3643.982	-36.38
3646.753	-41.38
3649.523	-45.38
3652.29	-53.38
3655.055	-61.38
3657.818	-64.38
3660.579	-65.38
3663.338	-74.38
3666.095	-80.38
3668.849	-87.38
3671.602	-90.38
3674.352	-92.38
3677.101	-95.38
3679.847	-100.38
3682.591	-106.38
3685.333	-114.38
3688.073	-116.38
3690.811	-120.38
3693.547	-117.38
3696.281	-125.38
3699.013	-123.38
3701.742	-130.38
3704.47	-125.38
3707.195	-132.38
3709.919	-135.38
3712.64	-135.38
3715.359	-136.38
3718.076	-142.38
3720.792	-139.38
3723.505	-142.38
3726.216	-147.38
3728.925	-148.38
3731.632	-142.38
3734.336	-145.38
3737.039	-151.38
3739.74	-148.38
3742.439	-147.38
3745.136	-154.38
3747.83	-150.38
3750.523	-147.38
3753.213	-153.38
3755.902	-153.38
3758.589	-154.38
3761.273	-155.38
3763.956	-156.38
3766.636	-157.38
3769.315	-162.38
3771.991	-164.38
3774.665	-162.38
3777.338	-167.38
3780.008	-161.38
3782.677	-165.38
3785.343	-168.38
3788.007	-169.38
3790.67	-169.38
3793.33	-172.38
3795.989	-173.38
3798.645	-177.38
3801.299	-171.38
3803.952	-174.38
3806.602	-179.38
3809.251	-178.38
3811.897	-177.38
3814.542	-178.38
3817.184	-177.38
3819.825	-179.38
3822.463	-181.38
3825.1	-179.38
3827.735	-174.38
3830.367	-179.38
3832.998	-179.38
3835.627	-179.38
3838.253	-179.38
3840.878	-181.38
3843.501	-178.38
3846.122	-183.38
3848.741	-180.38
3851.358	-181.38
3853.973	-183.38
3856.586	-185.38
3859.197	-188.38
3861.806	-184.38
3864.414	-187.38
3867.019	-186.38
3869.622	-187.38
3872.224	-185.38
3874.823	-185.38
3877.421	-182.38
3880.016	-179.38
3882.61	-175.38
3885.202	-178.38
3887.792	-182.38
3890.38	-187.38
3892.966	-191.38
3895.55	-195.38
3898.132	-195.38
3900.713	-192.38
3903.291	-195.38
3905.868	-197.38
3908.442	-194.38
3911.015	-192.38
3913.586	-192.38
3916.155	-193.38
3918.722	-195.38
3921.287	-197.38
3923.85	-197.38
3926.411	-196.38
3928.971	-193.38
3931.528	-198.38
3934.084	-197.38
3936.638	-194.38
3939.19	-199.38
3941.74	-196.38
3944.288	-200.38
3946.834	-196.38
3949.378	-200.38
3951.921	-202.38
3954.462	-193.38
3957	-201.38
3959.537	-199.38
3962.072	-200.38
3964.606	-199.38
3967.137	-197.38
3969.667	-200.38
3972.194	-196.38
3974.72	-197.38
3977.244	-196.38
3979.766	-192.38
3982.286	-196.38
3984.805	-198.38
3987.321	-193.38
3989.836	-199.38
3992.349	-196.38
3994.86	-190.38
3997.369	-194.38
3999.877	-191.38
4002.382	-195.38
4004.886	-196.38
4007.388	-192.38
4009.888	-198.38
4012.386	-198.38
4014.883	-196.38
4017.377	-197.38
4019.87	-193.38
4022.361	-193.38
4024.85	-198.38
4027.338	-198.38
4029.823	-194.38
4032.307	-198.38
4034.789	-199.38
4037.269	-196.38
4039.747	-195.38
4042.224	-202.38
4044.699	-199.38
4047.172	-198.38
4049.643	-195.38
4052.112	-196.38
4054.58	-200.38
4057.046	-198.38
4059.51	-199.38
4061.972	-194.38
4064.432	-195.38
4066.891	-193.38
4069.348	-195.38
4071.803	-198.38
4074.256	-193.38
4076.708	-191.38
4079.158	-201.38
4081.606	-193.38
4084.052	-195.38
4086.497	-195.38
4088.939	-196.38
4091.38	-193.38
4093.819	-194.38
4096.257	-207.38
4098.693	-209.38
4101.127	-211.38
4103.559	-206.38
4105.989	-136.38
4108.418	-127.38
4110.845	-118.38
4113.27	-113.38
4115.694	-95.38
4118.115	-78.38
4120.535	-196.38
4122.954	-197.38
4125.37	-197.38
4127.785	-200.38
4130.198	-199.38
4132.609	-202.38
4135.019	-212.38
4137.427	-207.38
4139.833	-212.38
4142.237	-211.38
