Data from I0.75_T10s_Bsub_water_1-1_1_RamanShift_1.txt Node
Date: Mon Mar 13 15:35:27 IST 2017
User: aro
Spectrometer: QEPB0276
Trigger mode: 0
Integration Time (sec): 1.000000E1
Scans to average: 1
Electric dark correction enabled: true
Nonlinearity correction enabled: false
Boxcar width: 0
XAxis mode: Raman Shifts
Number of Pixels in Spectrum: 1044
>>>>>Begin Spectral Data<<<<<
160.701	-45.25
166.742	7.75
172.777	155.75
178.805	610.75
184.826	1749.75
190.841	3726.75
196.849	5994.75
202.85	7497.75
208.845	7886.75
214.833	7667.75
220.815	7439.75
226.789	7348.75
232.758	7227.75
238.719	7098.75
244.674	6893.75
250.623	6714.75
256.565	6517.75
262.5	6284.75
268.429	6122.75
274.351	5935.75
280.267	5825.75
286.176	5685.75
292.079	5584.75
297.975	5451.75
303.865	5325.75
309.748	5172.75
315.625	5114.75
321.495	4998.75
327.359	4934.75
333.217	4893.75
339.068	4790.75
344.912	4791.75
350.751	4701.75
356.583	4666.75
362.408	4635.75
368.227	4635.75
374.04	4623.75
379.847	4623.75
385.647	4610.75
391.44	4631.75
397.228	4644.75
403.009	4659.75
408.784	4639.75
414.553	4656.75
420.315	4654.75
426.071	4654.75
431.821	4672.75
437.565	4645.75
443.302	4649.75
449.033	4622.75
454.758	4597.75
460.477	4582.75
466.189	4573.75
471.896	4567.75
477.596	4567.75
483.29	4550.75
488.978	4507.75
494.66	4456.75
500.335	4457.75
506.005	4393.75
511.668	4373.75
517.325	4278.75
522.977	4241.75
528.622	4208.75
534.261	4170.75
539.894	4126.75
545.521	4136.75
551.141	4106.75
556.756	4100.75
562.365	4106.75
567.968	4091.75
573.565	4068.75
579.155	4072.75
584.74	4056.75
590.319	4058.75
595.892	4007.75
601.459	3976.75
607.02	4000.75
612.575	3946.75
618.124	3898.75
623.667	3878.75
629.204	3851.75
634.735	3824.75
640.261	3831.75
645.781	3801.75
651.294	3814.75
656.802	3810.75
662.304	3803.75
667.8	3816.75
673.29	3795.75
678.775	3823.75
684.254	3785.75
689.726	3799.75
695.193	3767.75
700.655	3749.75
706.11	3746.75
711.56	3739.75
717.004	3707.75
722.442	3703.75
727.874	3697.75
733.301	3666.75
738.722	3692.75
744.137	3698.75
749.547	3686.75
754.951	3686.75
760.349	3678.75
765.741	3679.75
771.128	3687.75
776.509	3709.75
781.885	3732.75
787.254	3751.75
792.618	3732.75
797.977	3699.75
803.33	3673.75
808.677	3655.75
814.019	3616.75
819.355	3630.75
824.686	3601.75
830.011	3605.75
835.33	3610.75
840.644	3579.75
845.952	3601.75
851.255	3587.75
856.552	3609.75
861.844	3599.75
867.13	3603.75
872.41	3601.75
877.686	3608.75
882.955	3569.75
888.219	3517.75
893.478	3480.75
898.731	3459.75
903.979	3449.75
909.221	3414.75
914.458	3427.75
919.69	3413.75
924.916	3443.75
930.136	3423.75
935.351	3436.75
940.561	3444.75
945.766	3425.75
950.965	3439.75
956.158	3432.75
961.347	3411.75
966.529	3373.75
971.707	3312.75
976.879	3277.75
982.046	3280.75
987.208	3261.75
992.364	3270.75
997.515	3297.75
1002.66	3331.75
1007.801	3348.75
1012.936	3405.75
1018.066	3433.75
1023.19	3442.75
1028.309	3458.75
1033.423	3438.75
1038.532	3420.75
1043.636	3433.75
1048.734	3389.75
1053.827	3381.75
1058.915	3359.75
1063.998	3343.75
1069.075	3344.75
1074.147	3344.75
1079.214	3343.75
1084.276	3396.75
1089.333	3408.75
1094.385	3447.75
1099.431	3476.75
1104.472	3486.75
1109.509	3499.75
1114.54	3422.75
1119.565	3395.75
1124.586	3362.75
1129.602	3338.75
1134.613	3319.75
1139.618	3302.75
1144.619	3321.75
1149.614	3341.75
1154.604	3349.75
1159.589	3364.75
1164.57	3373.75
1169.545	3408.75
1174.515	3401.75
1179.48	3409.75
1184.44	3388.75
1189.395	3379.75
1194.345	3360.75
1199.29	3349.75
1204.23	3356.75
1209.165	3368.75
1214.095	3395.75
1219.021	3431.75
1223.941	3449.75
1228.856	3468.75
1233.766	3489.75
1238.672	3483.75
1243.572	3478.75
1248.467	3481.75
1253.358	3464.75
1258.244	3412.75
1263.124	3374.75
1268	3321.75
1272.871	3310.75
1277.737	3291.75
1282.599	3275.75
1287.455	3267.75
1292.306	3312.75
1297.153	3322.75
1301.995	3363.75
1306.832	3385.75
1311.664	3401.75
1316.491	3401.75
1321.314	3398.75
1326.132	3359.75
1330.945	3337.75
1335.753	3266.75
1340.556	3201.75
1345.354	3164.75
1350.148	3120.75
1354.937	3117.75
1359.722	3112.75
1364.501	3141.75
1369.276	3210.75
1374.046	3238.75
1378.811	3280.75
1383.572	3294.75
1388.327	3284.75
1393.079	3256.75
1397.825	3203.75
1402.567	3152.75
1407.304	3126.75
1412.036	3083.75
1416.764	3055.75
1421.487	3068.75
1426.205	3093.75
1430.919	3121.75
1435.628	3148.75
1440.333	3164.75
1445.032	3203.75
1449.727	3220.75
1454.418	3227.75
1459.104	3192.75
1463.785	3183.75
1468.462	3153.75
1473.134	3123.75
1477.802	3104.75
1482.465	3100.75
1487.123	3093.75
1491.777	3087.75
1496.426	3121.75
1501.071	3162.75
1505.711	3190.75
1510.347	3233.75
1514.978	3275.75
1519.604	3296.75
1524.226	3323.75
1528.844	3330.75
1533.457	3300.75
1538.065	3342.75
1542.669	3305.75
1547.269	3304.75
1551.864	3298.75
1556.454	3290.75
1561.041	3300.75
1565.622	3304.75
1570.199	3320.75
1574.772	3340.75
1579.34	3369.75
1583.904	3411.75
1588.464	3420.75
1593.019	3465.75
1597.569	3443.75
1602.115	3440.75
1606.657	3414.75
1611.195	3416.75
1615.728	3396.75
1620.256	3415.75
1624.78	3428.75
1629.3	3471.75
1633.816	3526.75
1638.327	3504.75
1642.834	3554.75
1647.336	3617.75
1651.834	3603.75
1656.328	3629.75
1660.817	3619.75
1665.302	3618.75
1669.783	3551.75
1674.259	3478.75
1678.732	3406.75
1683.199	3322.75
1687.663	3235.75
1692.122	3150.75
1696.577	3097.75
1701.028	3090.75
1705.474	3063.75
1709.917	3078.75
1714.355	3047.75
1718.788	3022.75
1723.218	2970.75
1727.643	2917.75
1732.064	2896.75
1736.481	2845.75
1740.893	2782.75
1745.301	2764.75
1749.705	2710.75
1754.105	2663.75
1758.501	2622.75
1762.893	2582.75
1767.28	2546.75
1771.663	2529.75
1776.042	2504.75
1780.417	2537.75
1784.787	2548.75
1789.154	2596.75
1793.516	2620.75
1797.874	2650.75
1802.228	2658.75
1806.578	2703.75
1810.924	2655.75
1815.266	2648.75
1819.603	2594.75
1823.937	2583.75
1828.266	2535.75
1832.591	2511.75
1836.913	2492.75
1841.23	2494.75
1845.543	2462.75
1849.852	2462.75
1854.156	2479.75
1858.457	2481.75
1862.754	2496.75
1867.047	2495.75
1871.335	2502.75
1875.62	2503.75
1879.9	2496.75
1884.177	2472.75
1888.449	2483.75
1892.718	2481.75
1896.982	2469.75
1901.243	2454.75
1905.499	2454.75
1909.752	2451.75
1914	2455.75
1918.245	2460.75
1922.485	2479.75
1926.722	2482.75
1930.954	2534.75
1935.183	2515.75
1939.408	2539.75
1943.628	2533.75
1947.845	2531.75
1952.058	2538.75
1956.267	2545.75
1960.472	2531.75
1964.673	2496.75
1968.87	2478.75
1973.063	2462.75
1977.252	2435.75
1981.438	2425.75
1985.619	2396.75
1989.797	2386.75
1993.971	2402.75
1998.14	2407.75
2002.306	2418.75
2006.469	2413.75
2010.627	2407.75
2014.781	2410.75
2018.932	2409.75
2023.078	2401.75
2027.221	2372.75
2031.36	2355.75
2035.495	2325.75
2039.627	2294.75
2043.754	2287.75
2047.878	2279.75
2051.998	2263.75
2056.114	2276.75
2060.226	2257.75
2064.334	2287.75
2068.439	2296.75
2072.54	2300.75
2076.637	2329.75
2080.73	2345.75
2084.82	2327.75
2088.906	2328.75
2092.988	2333.75
2097.066	2334.75
2101.14	2306.75
2105.211	2293.75
2109.278	2298.75
2113.342	2274.75
2117.401	2276.75
2121.457	2274.75
2125.509	2260.75
2129.558	2240.75
2133.602	2248.75
2137.643	2252.75
2141.681	2260.75
2145.714	2251.75
2149.744	2227.75
2153.77	2221.75
2157.793	2221.75
2161.812	2166.75
2165.827	2170.75
2169.838	2137.75
2173.846	2112.75
2177.851	2084.75
2181.851	2062.75
2185.848	2037.75
2189.841	2026.75
2193.831	2006.75
2197.817	2009.75
2201.799	2000.75
2205.778	1986.75
2209.753	1986.75
2213.725	1983.75
2217.693	1990.75
2221.657	2007.75
2225.618	1994.75
2229.575	1999.75
2233.529	1992.75
2237.479	1964.75
2241.425	1943.75
2245.368	1943.75
2249.307	1921.75
2253.243	1907.75
2257.175	1870.75
2261.104	1859.75
2265.029	1850.75
2268.95	1820.75
2272.868	1835.75
2276.783	1812.75
2280.694	1821.75
2284.601	1787.75
2288.505	1771.75
2292.405	1752.75
2296.302	1751.75
2300.195	1744.75
2304.085	1714.75
2307.971	1705.75
2311.854	1648.75
2315.734	1634.75
2319.609	1615.75
2323.482	1604.75
2327.351	1593.75
2331.216	1563.75
2335.078	1567.75
2338.937	1567.75
2342.792	1533.75
2346.643	1542.75
2350.492	1560.75
2354.336	1548.75
2358.178	1534.75
2362.015	1550.75
2365.85	1546.75
2369.681	1562.75
2373.508	1569.75
2377.333	1557.75
2381.153	1552.75
2384.971	1559.75
2388.785	1536.75
2392.595	1521.75
2396.402	1535.75
2400.206	1509.75
2404.007	1512.75
2407.804	1501.75
2411.597	1488.75
2415.388	1502.75
2419.174	1492.75
2422.958	1488.75
2426.738	1508.75
2430.515	1482.75
2434.289	1466.75
2438.059	1458.75
2441.825	1465.75
2445.589	1458.75
2449.349	1442.75
2453.106	1433.75
2456.859	1407.75
2460.61	1420.75
2464.356	1405.75
2468.1	1392.75
2471.84	1378.75
2475.577	1390.75
2479.311	1396.75
2483.041	1382.75
2486.768	1390.75
2490.492	1387.75
2494.213	1408.75
2497.93	1388.75
2501.644	1385.75
2505.355	1383.75
2509.062	1385.75
2512.766	1355.75
2516.467	1384.75
2520.165	1382.75
2523.859	1368.75
2527.551	1375.75
2531.239	1339.75
2534.923	1346.75
2538.605	1341.75
2542.283	1323.75
2545.958	1323.75
2549.63	1329.75
2553.299	1334.75
2556.964	1329.75
2560.626	1298.75
2564.285	1289.75
2567.941	1282.75
2571.594	1289.75
2575.243	1290.75
2578.89	1280.75
2582.533	1248.75
2586.173	1249.75
2589.809	1249.75
2593.443	1259.75
2597.073	1251.75
2600.701	1232.75
2604.325	1220.75
2607.946	1227.75
2611.564	1223.75
2615.178	1222.75
2618.79	1217.75
2622.398	1206.75
2626.004	1213.75
2629.606	1201.75
2633.205	1183.75
2636.801	1180.75
2640.394	1184.75
2643.983	1158.75
2647.57	1133.75
2651.153	1130.75
2654.734	1120.75
2658.311	1111.75
2661.885	1098.75
2665.456	1102.75
2669.025	1085.75
2672.589	1079.75
2676.151	1074.75
2679.71	1066.75
2683.266	1054.75
2686.819	1030.75
2690.368	1032.75
2693.915	1028.75
2697.458	1009.75
2700.999	1006.75
2704.536	978.75
2708.071	964.75
2711.602	971.75
2715.13	953.75
2718.656	949.75
2722.178	942.75
2725.697	936.75
2729.214	935.75
2732.727	944.75
2736.237	940.75
2739.744	933.75
2743.249	943.75
2746.75	954.75
2750.248	956.75
2753.743	942.75
2757.236	958.75
2760.725	948.75
2764.211	953.75
2767.695	951.75
2771.175	937.75
2774.652	934.75
2778.127	941.75
2781.598	927.75
2785.067	933.75
2788.532	906.75
2791.995	907.75
2795.455	912.75
2798.911	913.75
2802.365	921.75
2805.816	898.75
2809.264	908.75
2812.709	893.75
2816.151	874.75
2819.59	873.75
2823.026	872.75
2826.46	869.75
2829.89	867.75
2833.318	857.75
2836.742	866.75
2840.164	862.75
2843.583	866.75
2846.999	877.75
2850.412	859.75
2853.822	854.75
2857.229	853.75
2860.634	875.75
2864.035	863.75
2867.434	867.75
2870.83	869.75
2874.223	879.75
2877.613	884.75
2881	861.75
2884.385	860.75
2887.766	856.75
2891.145	846.75
2894.521	856.75
2897.894	840.75
2901.264	843.75
2904.631	831.75
2907.996	826.75
2911.358	830.75
2914.717	836.75
2918.073	824.75
2921.426	817.75
2924.777	839.75
2928.124	829.75
2931.469	838.75
2934.811	838.75
2938.15	849.75
2941.487	852.75
2944.821	846.75
2948.152	846.75
2951.48	847.75
2954.805	849.75
2958.128	856.75
2961.447	857.75
2964.765	846.75
2968.079	866.75
2971.39	869.75
2974.699	886.75
2978.005	881.75
2981.308	903.75
2984.609	924.75
2987.907	936.75
2991.202	935.75
2994.494	954.75
2997.784	976.75
3001.07	980.75
3004.355	1003.75
3007.636	1009.75
3010.915	1015.75
3014.191	1021.75
3017.464	1044.75
3020.734	1025.75
3024.002	1039.75
3027.267	1029.75
3030.53	1034.75
3033.789	1045.75
3037.046	1066.75
3040.301	1079.75
3043.552	1076.75
3046.801	1097.75
3050.048	1116.75
3053.291	1138.75
3056.532	1165.75
3059.771	1177.75
3063.006	1208.75
3066.239	1211.75
3069.469	1245.75
3072.697	1280.75
3075.922	1295.75
3079.144	1327.75
3082.364	1354.75
3085.581	1354.75
3088.795	1376.75
3092.007	1383.75
3095.216	1430.75
3098.423	1430.75
3101.627	1473.75
3104.828	1497.75
3108.026	1523.75
3111.222	1530.75
3114.416	1548.75
3117.607	1576.75
3120.795	1623.75
3123.98	1640.75
3127.163	1659.75
3130.344	1683.75
3133.521	1722.75
3136.696	1757.75
3139.869	1787.75
3143.039	1804.75
3146.206	1814.75
3149.371	1842.75
3152.533	1863.75
3155.693	1870.75
3158.85	1875.75
3162.005	1888.75
3165.157	1871.75
3168.306	1896.75
3171.453	1885.75
3174.597	1886.75
3177.739	1902.75
3180.878	1896.75
3184.014	1894.75
3187.149	1911.75
3190.28	1895.75
3193.409	1909.75
3196.536	1909.75
3199.659	1906.75
3202.781	1917.75
3205.9	1909.75
3209.016	1907.75
3212.13	1893.75
3215.241	1893.75
3218.35	1869.75
3221.456	1862.75
3224.56	1832.75
3227.661	1826.75
3230.76	1821.75
3233.856	1806.75
3236.95	1785.75
3240.041	1762.75
3243.13	1751.75
3246.216	1731.75
3249.3	1758.75
3252.382	1725.75
3255.46	1721.75
3258.537	1721.75
3261.611	1716.75
3264.682	1708.75
3267.751	1702.75
3270.818	1681.75
3273.882	1678.75
3276.943	1668.75
3280.002	1657.75
3283.059	1632.75
3286.113	1617.75
3289.165	1589.75
3292.214	1585.75
3295.261	1558.75
3298.306	1520.75
3301.348	1501.75
3304.387	1484.75
3307.425	1464.75
3310.459	1425.75
3313.492	1418.75
3316.521	1396.75
3319.549	1376.75
3322.574	1371.75
3325.597	1359.75
3328.617	1340.75
3331.635	1328.75
3334.65	1322.75
3337.663	1321.75
3340.674	1318.75
3343.682	1313.75
3346.688	1301.75
3349.691	1294.75
3352.692	1286.75
3355.691	1273.75
3358.687	1252.75
3361.681	1253.75
3364.673	1245.75
3367.662	1221.75
3370.649	1206.75
3373.633	1190.75
3376.615	1182.75
3379.595	1152.75
3382.572	1149.75
3385.547	1115.75
3388.52	1109.75
3391.49	1091.75
3394.458	1069.75
3397.424	1058.75
3400.387	1043.75
3403.348	1038.75
3406.307	1024.75
3409.263	998.75
3412.217	999.75
3415.168	994.75
3418.118	991.75
3421.065	977.75
3424.009	956.75
3426.951	957.75
3429.891	948.75
3432.829	906.75
3435.764	903.75
3438.697	886.75
3441.628	865.75
3444.557	846.75
3447.483	811.75
3450.407	799.75
3453.328	774.75
3456.247	762.75
3459.164	735.75
3462.079	727.75
3464.991	680.75
3467.902	675.75
3470.809	657.75
3473.715	647.75
3476.618	616.75
3479.519	603.75
3482.418	594.75
3485.315	574.75
3488.209	557.75
3491.101	524.75
3493.99	525.75
3496.878	511.75
3499.763	487.75
3502.646	475.75
3505.527	455.75
3508.405	437.75
3511.281	435.75
3514.155	406.75
3517.027	399.75
3519.897	371.75
3522.764	354.75
3525.629	333.75
3528.492	321.75
3531.352	306.75
3534.211	291.75
3537.067	271.75
3539.921	256.75
3542.773	251.75
3545.622	235.75
3548.469	219.75
3551.315	206.75
3554.157	195.75
3556.998	179.75
3559.837	177.75
3562.673	165.75
3565.507	156.75
3568.339	143.75
3571.169	130.75
3573.996	124.75
3576.822	114.75
3579.645	112.75
3582.466	99.75
3585.285	92.75
3588.101	81.75
3590.916	73.75
3593.728	63.75
3596.538	59.75
3599.346	46.75
3602.152	44.75
3604.956	35.75
3607.757	31.75
3610.556	16.75
3613.354	17.75
3616.149	9.75
3618.942	4.75
3621.732	-1.25
3624.521	0.75
3627.307	-11.25
3630.092	-15.25
3632.874	-20.25
3635.654	-25.25
3638.432	-22.25
3641.208	-28.25
3643.982	-37.25
3646.753	-33.25
3649.523	-48.25
3652.29	-51.25
3655.055	-55.25
3657.818	-58.25
3660.579	-65.25
3663.338	-65.25
3666.095	-71.25
3668.849	-72.25
3671.602	-74.25
3674.352	-78.25
3677.101	-81.25
3679.847	-90.25
3682.591	-94.25
3685.333	-100.25
3688.073	-95.25
3690.811	-96.25
3693.547	-100.25
3696.281	-104.25
3699.013	-108.25
3701.742	-108.25
3704.47	-107.25
3707.195	-112.25
3709.919	-112.25
3712.64	-117.25
3715.359	-118.25
3718.076	-123.25
3720.792	-117.25
3723.505	-120.25
3726.216	-121.25
3728.925	-131.25
3731.632	-128.25
3734.336	-128.25
3737.039	-130.25
3739.74	-131.25
3742.439	-125.25
3745.136	-131.25
3747.83	-126.25
3750.523	-130.25
3753.213	-134.25
3755.902	-134.25
3758.589	-136.25
3761.273	-134.25
3763.956	-138.25
3766.636	-137.25
3769.315	-139.25
3771.991	-139.25
3774.665	-139.25
3777.338	-145.25
3780.008	-141.25
3782.677	-145.25
3785.343	-144.25
3788.007	-147.25
3790.67	-149.25
3793.33	-146.25
3795.989	-147.25
3798.645	-150.25
3801.299	-147.25
3803.952	-149.25
3806.602	-153.25
3809.251	-153.25
3811.897	-150.25
3814.542	-151.25
3817.184	-153.25
3819.825	-151.25
3822.463	-160.25
3825.1	-152.25
3827.735	-151.25
3830.367	-151.25
3832.998	-152.25
3835.627	-156.25
3838.253	-153.25
3840.878	-157.25
3843.501	-154.25
3846.122	-153.25
3848.741	-155.25
3851.358	-158.25
3853.973	-156.25
3856.586	-161.25
3859.197	-157.25
3861.806	-154.25
3864.414	-161.25
3867.019	-160.25
3869.622	-159.25
3872.224	-161.25
3874.823	-157.25
3877.421	-155.25
3880.016	-155.25
3882.61	-150.25
3885.202	-146.25
3887.792	-155.25
3890.38	-162.25
3892.966	-163.25
3895.55	-166.25
3898.132	-166.25
3900.713	-166.25
3903.291	-166.25
3905.868	-166.25
3908.442	-163.25
3911.015	-168.25
3913.586	-168.25
3916.155	-162.25
3918.722	-170.25
3921.287	-170.25
3923.85	-172.25
3926.411	-169.25
3928.971	-167.25
3931.528	-169.25
3934.084	-167.25
3936.638	-168.25
3939.19	-170.25
3941.74	-173.25
3944.288	-171.25
3946.834	-173.25
3949.378	-172.25
3951.921	-174.25
3954.462	-165.25
3957	-175.25
3959.537	-175.25
3962.072	-171.25
3964.606	-167.25
3967.137	-171.25
3969.667	-168.25
3972.194	-167.25
3974.72	-166.25
3977.244	-167.25
3979.766	-171.25
3982.286	-167.25
3984.805	-170.25
3987.321	-164.25
3989.836	-170.25
3992.349	-167.25
3994.86	-162.25
3997.369	-167.25
3999.877	-163.25
4002.382	-165.25
4004.886	-168.25
4007.388	-165.25
4009.888	-167.25
4012.386	-166.25
4014.883	-170.25
4017.377	-169.25
4019.87	-167.25
4022.361	-167.25
4024.85	-168.25
4027.338	-172.25
4029.823	-171.25
4032.307	-176.25
4034.789	-173.25
4037.269	-170.25
4039.747	-172.25
4042.224	-170.25
4044.699	-174.25
4047.172	-173.25
4049.643	-167.25
4052.112	-166.25
4054.58	-172.25
4057.046	-173.25
4059.51	-165.25
4061.972	-168.25
4064.432	-165.25
4066.891	-166.25
4069.348	-166.25
4071.803	-170.25
4074.256	-168.25
4076.708	-166.25
4079.158	-172.25
4081.606	-165.25
4084.052	-170.25
4086.497	-170.25
4088.939	-173.25
4091.38	-171.25
4093.819	-164.25
4096.257	-183.25
4098.693	-182.25
4101.127	-181.25
4103.559	-179.25
4105.989	-118.25
4108.418	-111.25
4110.845	-103.25
4113.27	-97.25
4115.694	-85.25
4118.115	-64.25
4120.535	-173.25
4122.954	-169.25
4125.37	-167.25
4127.785	-173.25
4130.198	-172.25
4132.609	-173.25
4135.019	-182.25
4137.427	-182.25
4139.833	-183.25
4142.237	-181.25
