Data from I0.75_T5s_Bsub_water_1-1_1_RamanShift_1.txt Node
Date: Mon Mar 13 15:15:22 IST 2017
User: aro
Spectrometer: QEPB0276
Trigger mode: 0
Integration Time (sec): 5.000000E0
Scans to average: 1
Electric dark correction enabled: true
Nonlinearity correction enabled: false
Boxcar width: 0
XAxis mode: Raman Shifts
Number of Pixels in Spectrum: 1044
>>>>>Begin Spectral Data<<<<<
160.701	-24.12
166.742	1.88
172.777	75.88
178.805	314.88
184.826	904.88
190.841	1916.88
196.849	3070.88
202.85	3823.88
208.845	4001.88
214.833	3905.88
220.815	3801.88
226.789	3717.88
232.758	3682.88
238.719	3589.88
244.674	3487.88
250.623	3393.88
256.565	3290.88
262.5	3164.88
268.429	3073.88
274.351	2997.88
280.267	2923.88
286.176	2838.88
292.079	2768.88
297.975	2715.88
303.865	2655.88
309.748	2587.88
315.625	2516.88
321.495	2500.88
327.359	2460.88
333.217	2418.88
339.068	2402.88
344.912	2370.88
350.751	2352.88
356.583	2318.88
362.408	2328.88
368.227	2322.88
374.04	2318.88
379.847	2317.88
385.647	2301.88
391.44	2307.88
397.228	2308.88
403.009	2314.88
408.784	2308.88
414.553	2315.88
420.315	2323.88
426.071	2332.88
431.821	2343.88
437.565	2339.88
443.302	2331.88
449.033	2323.88
454.758	2313.88
460.477	2294.88
466.189	2311.88
471.896	2294.88
477.596	2268.88
483.29	2264.88
488.978	2259.88
494.66	2243.88
500.335	2231.88
506.005	2205.88
511.668	2178.88
517.325	2154.88
522.977	2108.88
528.622	2091.88
534.261	2072.88
539.894	2064.88
545.521	2038.88
551.141	2050.88
556.756	2065.88
562.365	2059.88
567.968	2053.88
573.565	2032.88
579.155	2031.88
584.74	2019.88
590.319	2010.88
595.892	2014.88
601.459	2004.88
607.02	1992.88
612.575	1974.88
618.124	1950.88
623.667	1938.88
629.204	1922.88
634.735	1926.88
640.261	1930.88
645.781	1917.88
651.294	1902.88
656.802	1899.88
662.304	1895.88
667.8	1878.88
673.29	1891.88
678.775	1875.88
684.254	1884.88
689.726	1886.88
695.193	1860.88
700.655	1861.88
706.11	1850.88
711.56	1845.88
717.004	1832.88
722.442	1844.88
727.874	1813.88
733.301	1834.88
738.722	1806.88
744.137	1822.88
749.547	1816.88
754.951	1824.88
760.349	1823.88
765.741	1821.88
771.128	1833.88
776.509	1834.88
781.885	1839.88
787.254	1836.88
792.618	1828.88
797.977	1815.88
803.33	1807.88
808.677	1811.88
814.019	1792.88
819.355	1787.88
824.686	1766.88
830.011	1748.88
835.33	1764.88
840.644	1760.88
845.952	1766.88
851.255	1747.88
856.552	1765.88
861.844	1762.88
867.13	1772.88
872.41	1757.88
877.686	1755.88
882.955	1733.88
888.219	1704.88
893.478	1713.88
898.731	1687.88
903.979	1668.88
909.221	1647.88
914.458	1670.88
919.69	1649.88
924.916	1644.88
930.136	1661.88
935.351	1682.88
940.561	1676.88
945.766	1661.88
950.965	1674.88
956.158	1659.88
961.347	1656.88
966.529	1639.88
971.707	1622.88
976.879	1601.88
982.046	1585.88
987.208	1578.88
992.364	1590.88
997.515	1604.88
1002.66	1614.88
1007.801	1624.88
1012.936	1642.88
1018.066	1647.88
1023.19	1649.88
1028.309	1668.88
1033.423	1658.88
1038.532	1660.88
1043.636	1647.88
1048.734	1636.88
1053.827	1636.88
1058.915	1603.88
1063.998	1604.88
1069.075	1598.88
1074.147	1610.88
1079.214	1635.88
1084.276	1622.88
1089.333	1641.88
1094.385	1654.88
1099.431	1661.88
1104.472	1657.88
1109.509	1662.88
1114.54	1639.88
1119.565	1617.88
1124.586	1618.88
1129.602	1613.88
1134.613	1603.88
1139.618	1613.88
1144.619	1590.88
1149.614	1608.88
1154.604	1606.88
1159.589	1605.88
1164.57	1614.88
1169.545	1612.88
1174.515	1642.88
1179.48	1641.88
1184.44	1620.88
1189.395	1627.88
1194.345	1619.88
1199.29	1587.88
1204.23	1617.88
1209.165	1619.88
1214.095	1633.88
1219.021	1637.88
1223.941	1670.88
1228.856	1667.88
1233.766	1659.88
1238.672	1668.88
1243.572	1681.88
1248.467	1661.88
1253.358	1652.88
1258.244	1620.88
1263.124	1603.88
1268	1595.88
1272.871	1566.88
1277.737	1572.88
1282.599	1563.88
1287.455	1578.88
1292.306	1587.88
1297.153	1587.88
1301.995	1609.88
1306.832	1597.88
1311.664	1621.88
1316.491	1625.88
1321.314	1609.88
1326.132	1582.88
1330.945	1584.88
1335.753	1560.88
1340.556	1546.88
1345.354	1519.88
1350.148	1493.88
1354.937	1485.88
1359.722	1485.88
1364.501	1508.88
1369.276	1525.88
1374.046	1550.88
1378.811	1568.88
1383.572	1576.88
1388.327	1562.88
1393.079	1541.88
1397.825	1514.88
1402.567	1509.88
1407.304	1487.88
1412.036	1452.88
1416.764	1456.88
1421.487	1468.88
1426.205	1451.88
1430.919	1483.88
1435.628	1490.88
1440.333	1497.88
1445.032	1522.88
1449.727	1520.88
1454.418	1534.88
1459.104	1525.88
1463.785	1520.88
1468.462	1490.88
1473.134	1498.88
1477.802	1467.88
1482.465	1483.88
1487.123	1478.88
1491.777	1489.88
1496.426	1470.88
1501.071	1510.88
1505.711	1532.88
1510.347	1542.88
1514.978	1553.88
1519.604	1576.88
1524.226	1578.88
1528.844	1599.88
1533.457	1585.88
1538.065	1584.88
1542.669	1577.88
1547.269	1586.88
1551.864	1557.88
1556.454	1576.88
1561.041	1573.88
1565.622	1576.88
1570.199	1574.88
1574.772	1603.88
1579.34	1621.88
1583.904	1625.88
1588.464	1645.88
1593.019	1644.88
1597.569	1632.88
1602.115	1647.88
1606.657	1639.88
1611.195	1640.88
1615.728	1613.88
1620.256	1658.88
1624.78	1638.88
1629.3	1652.88
1633.816	1693.88
1638.327	1699.88
1642.834	1722.88
1647.336	1725.88
1651.834	1740.88
1656.328	1756.88
1660.817	1726.88
1665.302	1711.88
1669.783	1712.88
1674.259	1683.88
1678.732	1663.88
1683.199	1590.88
1687.663	1555.88
1692.122	1515.88
1696.577	1468.88
1701.028	1487.88
1705.474	1444.88
1709.917	1464.88
1714.355	1440.88
1718.788	1439.88
1723.218	1400.88
1727.643	1393.88
1732.064	1348.88
1736.481	1338.88
1740.893	1314.88
1745.301	1290.88
1749.705	1278.88
1754.105	1241.88
1758.501	1221.88
1762.893	1203.88
1767.28	1179.88
1771.663	1187.88
1776.042	1181.88
1780.417	1184.88
1784.787	1197.88
1789.154	1219.88
1793.516	1232.88
1797.874	1235.88
1802.228	1242.88
1806.578	1253.88
1810.924	1254.88
1815.266	1228.88
1819.603	1226.88
1823.937	1202.88
1828.266	1183.88
1832.591	1171.88
1836.913	1154.88
1841.23	1148.88
1845.543	1166.88
1849.852	1142.88
1854.156	1145.88
1858.457	1147.88
1862.754	1146.88
1867.047	1164.88
1871.335	1163.88
1875.62	1162.88
1879.9	1165.88
1884.177	1164.88
1888.449	1172.88
1892.718	1152.88
1896.982	1150.88
1901.243	1141.88
1905.499	1144.88
1909.752	1142.88
1914	1145.88
1918.245	1148.88
1922.485	1154.88
1926.722	1171.88
1930.954	1161.88
1935.183	1162.88
1939.408	1184.88
1943.628	1166.88
1947.845	1188.88
1952.058	1183.88
1956.267	1179.88
1960.472	1168.88
1964.673	1158.88
1968.87	1170.88
1973.063	1140.88
1977.252	1129.88
1981.438	1131.88
1985.619	1116.88
1989.797	1117.88
1993.971	1108.88
1998.14	1129.88
2002.306	1108.88
2006.469	1103.88
2010.627	1128.88
2014.781	1111.88
2018.932	1110.88
2023.078	1105.88
2027.221	1097.88
2031.36	1084.88
2035.495	1088.88
2039.627	1075.88
2043.754	1071.88
2047.878	1049.88
2051.998	1056.88
2056.114	1063.88
2060.226	1071.88
2064.334	1071.88
2068.439	1068.88
2072.54	1071.88
2076.637	1076.88
2080.73	1108.88
2084.82	1083.88
2088.906	1094.88
2092.988	1078.88
2097.066	1075.88
2101.14	1079.88
2105.211	1069.88
2109.278	1066.88
2113.342	1065.88
2117.401	1062.88
2121.457	1073.88
2125.509	1067.88
2129.558	1050.88
2133.602	1049.88
2137.643	1053.88
2141.681	1038.88
2145.714	1035.88
2149.744	1041.88
2153.77	1023.88
2157.793	1019.88
2161.812	1002.88
2165.827	994.88
2169.838	987.88
2173.846	967.88
2177.851	970.88
2181.851	957.88
2185.848	936.88
2189.841	936.88
2193.831	931.88
2197.817	932.88
2201.799	938.88
2205.778	914.88
2209.753	914.88
2213.725	913.88
2217.693	910.88
2221.657	929.88
2225.618	914.88
2229.575	918.88
2233.529	910.88
2237.479	915.88
2241.425	906.88
2245.368	891.88
2249.307	887.88
2253.243	866.88
2257.175	881.88
2261.104	857.88
2265.029	848.88
2268.95	837.88
2272.868	825.88
2276.783	820.88
2280.694	818.88
2284.601	817.88
2288.505	809.88
2292.405	794.88
2296.302	801.88
2300.195	788.88
2304.085	778.88
2307.971	774.88
2311.854	769.88
2315.734	744.88
2319.609	735.88
2323.482	730.88
2327.351	715.88
2331.216	703.88
2335.078	716.88
2338.937	717.88
2342.792	708.88
2346.643	690.88
2350.492	711.88
2354.336	706.88
2358.178	709.88
2362.015	704.88
2365.85	706.88
2369.681	710.88
2373.508	714.88
2377.333	712.88
2381.153	702.88
2384.971	710.88
2388.785	702.88
2392.595	702.88
2396.402	695.88
2400.206	694.88
2404.007	683.88
2407.804	679.88
2411.597	678.88
2415.388	682.88
2419.174	669.88
2422.958	676.88
2426.738	672.88
2430.515	668.88
2434.289	665.88
2438.059	655.88
2441.825	659.88
2445.589	645.88
2449.349	642.88
2453.106	649.88
2456.859	641.88
2460.61	645.88
2464.356	631.88
2468.1	640.88
2471.84	629.88
2475.577	632.88
2479.311	638.88
2483.041	620.88
2486.768	624.88
2490.492	632.88
2494.213	631.88
2497.93	629.88
2501.644	626.88
2505.355	633.88
2509.062	629.88
2512.766	627.88
2516.467	612.88
2520.165	628.88
2523.859	615.88
2527.551	605.88
2531.239	598.88
2534.923	599.88
2538.605	596.88
2542.283	595.88
2545.958	592.88
2549.63	588.88
2553.299	585.88
2556.964	581.88
2560.626	594.88
2564.285	588.88
2567.941	575.88
2571.594	582.88
2575.243	571.88
2578.89	572.88
2582.533	576.88
2586.173	570.88
2589.809	570.88
2593.443	563.88
2597.073	570.88
2600.701	561.88
2604.325	554.88
2607.946	558.88
2611.564	557.88
2615.178	554.88
2618.79	559.88
2622.398	545.88
2626.004	538.88
2629.606	535.88
2633.205	540.88
2636.801	522.88
2640.394	524.88
2643.983	512.88
2647.57	504.88
2651.153	501.88
2654.734	494.88
2658.311	487.88
2661.885	499.88
2665.456	499.88
2669.025	496.88
2672.589	490.88
2676.151	477.88
2679.71	476.88
2683.266	467.88
2686.819	471.88
2690.368	468.88
2693.915	446.88
2697.458	456.88
2700.999	447.88
2704.536	437.88
2708.071	443.88
2711.602	427.88
2715.13	437.88
2718.656	422.88
2722.178	412.88
2725.697	414.88
2729.214	409.88
2732.727	415.88
2736.237	426.88
2739.744	423.88
2743.249	420.88
2746.75	429.88
2750.248	431.88
2753.743	428.88
2757.236	431.88
2760.725	424.88
2764.211	433.88
2767.695	420.88
2771.175	427.88
2774.652	428.88
2778.127	420.88
2781.598	419.88
2785.067	410.88
2788.532	411.88
2791.995	411.88
2795.455	414.88
2798.911	424.88
2802.365	417.88
2805.816	396.88
2809.264	403.88
2812.709	408.88
2816.151	404.88
2819.59	395.88
2823.026	393.88
2826.46	396.88
2829.89	396.88
2833.318	391.88
2836.742	392.88
2840.164	388.88
2843.583	396.88
2846.999	386.88
2850.412	384.88
2853.822	388.88
2857.229	391.88
2860.634	386.88
2864.035	392.88
2867.434	398.88
2870.83	398.88
2874.223	403.88
2877.613	388.88
2881	387.88
2884.385	391.88
2887.766	398.88
2891.145	388.88
2894.521	393.88
2897.894	376.88
2901.264	385.88
2904.631	383.88
2907.996	385.88
2911.358	382.88
2914.717	384.88
2918.073	386.88
2921.426	387.88
2924.777	389.88
2928.124	393.88
2931.469	388.88
2934.811	389.88
2938.15	394.88
2941.487	407.88
2944.821	407.88
2948.152	405.88
2951.48	399.88
2954.805	408.88
2958.128	404.88
2961.447	404.88
2964.765	402.88
2968.079	405.88
2971.39	410.88
2974.699	425.88
2978.005	428.88
2981.308	423.88
2984.609	441.88
2987.907	441.88
2991.202	460.88
2994.494	466.88
2997.784	460.88
3001.07	477.88
3004.355	476.88
3007.636	490.88
3010.915	498.88
3014.191	507.88
3017.464	510.88
3020.734	510.88
3024.002	501.88
3027.267	507.88
3030.53	522.88
3033.789	520.88
3037.046	518.88
3040.301	526.88
3043.552	550.88
3046.801	564.88
3050.048	563.88
3053.291	585.88
3056.532	589.88
3059.771	592.88
3063.006	609.88
3066.239	620.88
3069.469	631.88
3072.697	652.88
3075.922	667.88
3079.144	685.88
3082.364	686.88
3085.581	693.88
3088.795	710.88
3092.007	715.88
3095.216	721.88
3098.423	732.88
3101.627	754.88
3104.828	763.88
3108.026	772.88
3111.222	794.88
3114.416	808.88
3117.607	824.88
3120.795	829.88
3123.98	856.88
3127.163	869.88
3130.344	883.88
3133.521	898.88
3136.696	921.88
3139.869	935.88
3143.039	954.88
3146.206	964.88
3149.371	966.88
3152.533	972.88
3155.693	987.88
3158.85	990.88
3162.005	989.88
3165.157	978.88
3168.306	991.88
3171.453	1000.88
3174.597	995.88
3177.739	1011.88
3180.878	992.88
3184.014	999.88
3187.149	995.88
3190.28	998.88
3193.409	1004.88
3196.536	996.88
3199.659	1014.88
3202.781	1011.88
3205.9	1009.88
3209.016	1004.88
3212.13	997.88
3215.241	998.88
3218.35	992.88
3221.456	983.88
3224.56	984.88
3227.661	983.88
3230.76	968.88
3233.856	949.88
3236.95	946.88
3240.041	928.88
3243.13	925.88
3246.216	924.88
3249.3	918.88
3252.382	920.88
3255.46	920.88
3258.537	921.88
3261.611	918.88
3264.682	914.88
3267.751	896.88
3270.818	909.88
3273.882	888.88
3276.943	903.88
3280.002	876.88
3283.059	877.88
3286.113	864.88
3289.165	853.88
3292.214	836.88
3295.261	827.88
3298.306	806.88
3301.348	796.88
3304.387	783.88
3307.425	773.88
3310.459	775.88
3313.492	754.88
3316.521	736.88
3319.549	735.88
3322.574	729.88
3325.597	718.88
3328.617	718.88
3331.635	705.88
3334.65	714.88
3337.663	699.88
3340.674	685.88
3343.682	704.88
3346.688	684.88
3349.691	686.88
3352.692	686.88
3355.691	684.88
3358.687	676.88
3361.681	674.88
3364.673	659.88
3367.662	648.88
3370.649	640.88
3373.633	636.88
3376.615	630.88
3379.595	614.88
3382.572	601.88
3385.547	596.88
3388.52	589.88
3391.49	586.88
3394.458	576.88
3397.424	577.88
3400.387	561.88
3403.348	558.88
3406.307	553.88
3409.263	539.88
3412.217	531.88
3415.168	530.88
3418.118	527.88
3421.065	523.88
3424.009	519.88
3426.951	514.88
3429.891	498.88
3432.829	494.88
3435.764	481.88
3438.697	468.88
3441.628	458.88
3444.557	449.88
3447.483	435.88
3450.407	422.88
3453.328	427.88
3456.247	400.88
3459.164	389.88
3462.079	370.88
3464.991	373.88
3467.902	350.88
3470.809	349.88
3473.715	335.88
3476.618	331.88
3479.519	315.88
3482.418	317.88
3485.315	302.88
3488.209	296.88
3491.101	289.88
3493.99	285.88
3496.878	272.88
3499.763	267.88
3502.646	258.88
3505.527	243.88
3508.405	236.88
3511.281	235.88
3514.155	223.88
3517.027	214.88
3519.897	199.88
3522.764	195.88
3525.629	182.88
3528.492	172.88
3531.352	157.88
3534.211	150.88
3537.067	148.88
3539.921	135.88
3542.773	137.88
3545.622	122.88
3548.469	114.88
3551.315	107.88
3554.157	106.88
3556.998	98.88
3559.837	94.88
3562.673	87.88
3565.507	84.88
3568.339	87.88
3571.169	76.88
3573.996	67.88
3576.822	68.88
3579.645	56.88
3582.466	54.88
3585.285	47.88
3588.101	46.88
3590.916	41.88
3593.728	31.88
3596.538	30.88
3599.346	24.88
3602.152	19.88
3604.956	15.88
3607.757	12.88
3610.556	9.88
3613.354	8.88
3616.149	2.88
3618.942	1.88
3621.732	-1.12
3624.521	-2.12
3627.307	-5.12
3630.092	-7.12
3632.874	-7.12
3635.654	-10.12
3638.432	-16.12
3641.208	-16.12
3643.982	-19.12
3646.753	-23.12
3649.523	-23.12
3652.29	-28.12
3655.055	-26.12
3657.818	-36.12
3660.579	-33.12
3663.338	-34.12
3666.095	-36.12
3668.849	-40.12
3671.602	-38.12
3674.352	-41.12
3677.101	-39.12
3679.847	-47.12
3682.591	-46.12
3685.333	-47.12
3688.073	-50.12
3690.811	-54.12
3693.547	-52.12
3696.281	-51.12
3699.013	-54.12
3701.742	-60.12
3704.47	-58.12
3707.195	-57.12
3709.919	-63.12
3712.64	-61.12
3715.359	-59.12
3718.076	-61.12
3720.792	-62.12
3723.505	-67.12
3726.216	-64.12
3728.925	-68.12
3731.632	-64.12
3734.336	-69.12
3737.039	-66.12
3739.74	-68.12
3742.439	-71.12
3745.136	-66.12
3747.83	-67.12
3750.523	-69.12
3753.213	-66.12
3755.902	-64.12
3758.589	-72.12
3761.273	-70.12
3763.956	-68.12
3766.636	-73.12
3769.315	-71.12
3771.991	-71.12
3774.665	-74.12
3777.338	-78.12
3780.008	-76.12
3782.677	-79.12
3785.343	-75.12
3788.007	-78.12
3790.67	-79.12
3793.33	-82.12
3795.989	-75.12
3798.645	-81.12
3801.299	-80.12
3803.952	-79.12
3806.602	-83.12
3809.251	-76.12
3811.897	-81.12
3814.542	-75.12
3817.184	-80.12
3819.825	-81.12
3822.463	-76.12
3825.1	-79.12
3827.735	-79.12
3830.367	-81.12
3832.998	-79.12
3835.627	-80.12
3838.253	-80.12
3840.878	-78.12
3843.501	-78.12
3846.122	-78.12
3848.741	-80.12
3851.358	-82.12
3853.973	-81.12
3856.586	-82.12
3859.197	-81.12
3861.806	-85.12
3864.414	-86.12
3867.019	-83.12
3869.622	-84.12
3872.224	-84.12
3874.823	-83.12
3877.421	-81.12
3880.016	-80.12
3882.61	-78.12
3885.202	-77.12
3887.792	-80.12
3890.38	-78.12
3892.966	-81.12
3895.55	-83.12
3898.132	-81.12
3900.713	-81.12
3903.291	-85.12
3905.868	-84.12
3908.442	-86.12
3911.015	-90.12
3913.586	-85.12
3916.155	-82.12
3918.722	-85.12
3921.287	-86.12
3923.85	-87.12
3926.411	-83.12
3928.971	-83.12
3931.528	-87.12
3934.084	-91.12
3936.638	-90.12
3939.19	-90.12
3941.74	-92.12
3944.288	-92.12
3946.834	-92.12
3949.378	-90.12
3951.921	-92.12
3954.462	-90.12
3957	-86.12
3959.537	-92.12
3962.072	-91.12
3964.606	-87.12
3967.137	-90.12
3969.667	-86.12
3972.194	-85.12
3974.72	-85.12
3977.244	-84.12
3979.766	-86.12
3982.286	-85.12
3984.805	-85.12
3987.321	-86.12
3989.836	-89.12
3992.349	-89.12
3994.86	-86.12
3997.369	-85.12
3999.877	-90.12
4002.382	-87.12
4004.886	-89.12
4007.388	-93.12
4009.888	-89.12
4012.386	-92.12
4014.883	-91.12
4017.377	-87.12
4019.87	-91.12
4022.361	-89.12
4024.85	-90.12
4027.338	-91.12
4029.823	-84.12
4032.307	-86.12
4034.789	-86.12
4037.269	-87.12
4039.747	-85.12
4042.224	-86.12
4044.699	-86.12
4047.172	-87.12
4049.643	-85.12
4052.112	-84.12
4054.58	-83.12
4057.046	-85.12
4059.51	-85.12
4061.972	-88.12
4064.432	-87.12
4066.891	-86.12
4069.348	-85.12
4071.803	-88.12
4074.256	-90.12
4076.708	-89.12
4079.158	-90.12
4081.606	-91.12
4084.052	-89.12
4086.497	-88.12
4088.939	-88.12
4091.38	-89.12
4093.819	-89.12
4096.257	-93.12
4098.693	-93.12
4101.127	-90.12
4103.559	-93.12
4105.989	-58.12
4108.418	-53.12
4110.845	-54.12
4113.27	-48.12
4115.694	-41.12
4118.115	-34.12
4120.535	-86.12
4122.954	-89.12
4125.37	-93.12
4127.785	-89.12
4130.198	-90.12
4132.609	-88.12
4135.019	-94.12
4137.427	-93.12
4139.833	-90.12
4142.237	-91.12
