Data from I0.75_T10s_Bsub_water_0_2_RamanShift_1.txt Node
Date: Mon Mar 13 15:26:37 IST 2017
User: aro
Spectrometer: QEPB0276
Trigger mode: 0
Integration Time (sec): 1.000000E1
Scans to average: 1
Electric dark correction enabled: true
Nonlinearity correction enabled: false
Boxcar width: 0
XAxis mode: Raman Shifts
Number of Pixels in Spectrum: 1044
>>>>>Begin Spectral Data<<<<<
160.701	-61.75
166.742	12.25
172.777	194.25
178.805	772.25
184.826	2233.25
190.841	4758.25
196.849	7684.25
202.85	9571.25
208.845	10054.25
214.833	9791.25
220.815	9537.25
226.789	9390.25
232.758	9261.25
238.719	9072.25
244.674	8876.25
250.623	8616.25
256.565	8364.25
262.5	8084.25
268.429	7911.25
274.351	7685.25
280.267	7516.25
286.176	7381.25
292.079	7188.25
297.975	7040.25
303.865	6840.25
309.748	6702.25
315.625	6590.25
321.495	6447.25
327.359	6372.25
333.217	6272.25
339.068	6194.25
344.912	6129.25
350.751	6117.25
356.583	6045.25
362.408	6026.25
368.227	5998.25
374.04	5979.25
379.847	5962.25
385.647	5962.25
391.44	5999.25
397.228	5975.25
403.009	5999.25
408.784	5986.25
414.553	6034.25
420.315	6026.25
426.071	6013.25
431.821	6010.25
437.565	6004.25
443.302	6005.25
449.033	5992.25
454.758	5969.25
460.477	5936.25
466.189	5967.25
471.896	5941.25
477.596	5911.25
483.29	5852.25
488.978	5859.25
494.66	5819.25
500.335	5792.25
506.005	5734.25
511.668	5653.25
517.325	5610.25
522.977	5545.25
528.622	5495.25
534.261	5482.25
539.894	5409.25
545.521	5440.25
551.141	5413.25
556.756	5367.25
562.365	5380.25
567.968	5363.25
573.565	5322.25
579.155	5310.25
584.74	5300.25
590.319	5284.25
595.892	5251.25
601.459	5253.25
607.02	5213.25
612.575	5194.25
618.124	5156.25
623.667	5104.25
629.204	5091.25
634.735	5048.25
640.261	5046.25
645.781	5036.25
651.294	5011.25
656.802	5013.25
662.304	4994.25
667.8	5020.25
673.29	5015.25
678.775	4979.25
684.254	4978.25
689.726	4983.25
695.193	4964.25
700.655	4944.25
706.11	4937.25
711.56	4927.25
717.004	4928.25
722.442	4870.25
727.874	4853.25
733.301	4886.25
738.722	4843.25
744.137	4837.25
749.547	4823.25
754.951	4825.25
760.349	4837.25
765.741	4864.25
771.128	4865.25
776.509	4872.25
781.885	4922.25
787.254	4882.25
792.618	4883.25
797.977	4859.25
803.33	4835.25
808.677	4779.25
814.019	4770.25
819.355	4750.25
824.686	4706.25
830.011	4748.25
835.33	4722.25
840.644	4728.25
845.952	4740.25
851.255	4753.25
856.552	4734.25
861.844	4752.25
867.13	4762.25
872.41	4735.25
877.686	4722.25
882.955	4703.25
888.219	4679.25
893.478	4619.25
898.731	4571.25
903.979	4531.25
909.221	4501.25
914.458	4480.25
919.69	4538.25
924.916	4536.25
930.136	4561.25
935.351	4565.25
940.561	4529.25
945.766	4528.25
950.965	4549.25
956.158	4520.25
961.347	4485.25
966.529	4448.25
971.707	4388.25
976.879	4364.25
982.046	4318.25
987.208	4311.25
992.364	4332.25
997.515	4358.25
1002.66	4390.25
1007.801	4465.25
1012.936	4492.25
1018.066	4523.25
1023.19	4593.25
1028.309	4568.25
1033.423	4586.25
1038.532	4563.25
1043.636	4533.25
1048.734	4478.25
1053.827	4457.25
1058.915	4437.25
1063.998	4375.25
1069.075	4390.25
1074.147	4415.25
1079.214	4439.25
1084.276	4479.25
1089.333	4518.25
1094.385	4561.25
1099.431	4599.25
1104.472	4602.25
1109.509	4580.25
1114.54	4536.25
1119.565	4535.25
1124.586	4434.25
1129.602	4418.25
1134.613	4416.25
1139.618	4385.25
1144.619	4395.25
1149.614	4437.25
1154.604	4441.25
1159.589	4479.25
1164.57	4497.25
1169.545	4508.25
1174.515	4514.25
1179.48	4498.25
1184.44	4489.25
1189.395	4463.25
1194.345	4436.25
1199.29	4404.25
1204.23	4451.25
1209.165	4489.25
1214.095	4484.25
1219.021	4534.25
1223.941	4573.25
1228.856	4620.25
1233.766	4616.25
1238.672	4636.25
1243.572	4589.25
1248.467	4581.25
1253.358	4537.25
1258.244	4522.25
1263.124	4455.25
1268	4407.25
1272.871	4367.25
1277.737	4340.25
1282.599	4331.25
1287.455	4321.25
1292.306	4385.25
1297.153	4401.25
1301.995	4415.25
1306.832	4468.25
1311.664	4484.25
1316.491	4459.25
1321.314	4467.25
1326.132	4411.25
1330.945	4362.25
1335.753	4306.25
1340.556	4220.25
1345.354	4112.25
1350.148	4073.25
1354.937	4057.25
1359.722	4092.25
1364.501	4171.25
1369.276	4247.25
1374.046	4316.25
1378.811	4395.25
1383.572	4392.25
1388.327	4387.25
1393.079	4299.25
1397.825	4259.25
1402.567	4177.25
1407.304	4120.25
1412.036	4105.25
1416.764	4070.25
1421.487	4071.25
1426.205	4107.25
1430.919	4121.25
1435.628	4142.25
1440.333	4186.25
1445.032	4192.25
1449.727	4233.25
1454.418	4231.25
1459.104	4214.25
1463.785	4172.25
1468.462	4148.25
1473.134	4100.25
1477.802	4065.25
1482.465	4065.25
1487.123	4031.25
1491.777	4076.25
1496.426	4107.25
1501.071	4136.25
1505.711	4187.25
1510.347	4274.25
1514.978	4349.25
1519.604	4380.25
1524.226	4409.25
1528.844	4390.25
1533.457	4425.25
1538.065	4423.25
1542.669	4386.25
1547.269	4348.25
1551.864	4362.25
1556.454	4351.25
1561.041	4392.25
1565.622	4376.25
1570.199	4393.25
1574.772	4401.25
1579.34	4472.25
1583.904	4490.25
1588.464	4497.25
1593.019	4526.25
1597.569	4529.25
1602.115	4532.25
1606.657	4515.25
1611.195	4498.25
1615.728	4467.25
1620.256	4481.25
1624.78	4533.25
1629.3	4517.25
1633.816	4596.25
1638.327	4625.25
1642.834	4647.25
1647.336	4717.25
1651.834	4743.25
1656.328	4732.25
1660.817	4731.25
1665.302	4693.25
1669.783	4656.25
1674.259	4594.25
1678.732	4473.25
1683.199	4337.25
1687.663	4247.25
1692.122	4114.25
1696.577	4059.25
1701.028	4081.25
1705.474	4119.25
1709.917	4128.25
1714.355	4095.25
1718.788	4014.25
1723.218	3948.25
1727.643	3882.25
1732.064	3844.25
1736.481	3770.25
1740.893	3724.25
1745.301	3654.25
1749.705	3592.25
1754.105	3522.25
1758.501	3474.25
1762.893	3398.25
1767.28	3376.25
1771.663	3354.25
1776.042	3312.25
1780.417	3367.25
1784.787	3379.25
1789.154	3445.25
1793.516	3497.25
1797.874	3527.25
1802.228	3573.25
1806.578	3600.25
1810.924	3563.25
1815.266	3546.25
1819.603	3499.25
1823.937	3463.25
1828.266	3421.25
1832.591	3369.25
1836.913	3341.25
1841.23	3323.25
1845.543	3291.25
1849.852	3312.25
1854.156	3295.25
1858.457	3319.25
1862.754	3324.25
1867.047	3319.25
1871.335	3317.25
1875.62	3324.25
1879.9	3309.25
1884.177	3317.25
1888.449	3304.25
1892.718	3308.25
1896.982	3274.25
1901.243	3266.25
1905.499	3256.25
1909.752	3245.25
1914	3279.25
1918.245	3268.25
1922.485	3306.25
1926.722	3311.25
1930.954	3342.25
1935.183	3362.25
1939.408	3382.25
1943.628	3400.25
1947.845	3391.25
1952.058	3405.25
1956.267	3383.25
1960.472	3353.25
1964.673	3336.25
1968.87	3309.25
1973.063	3273.25
1977.252	3250.25
1981.438	3220.25
1985.619	3219.25
1989.797	3201.25
1993.971	3199.25
1998.14	3189.25
2002.306	3211.25
2006.469	3191.25
2010.627	3195.25
2014.781	3185.25
2018.932	3158.25
2023.078	3166.25
2027.221	3150.25
2031.36	3126.25
2035.495	3069.25
2039.627	3047.25
2043.754	3053.25
2047.878	3023.25
2051.998	3019.25
2056.114	2970.25
2060.226	3000.25
2064.334	3002.25
2068.439	3037.25
2072.54	3037.25
2076.637	3066.25
2080.73	3086.25
2084.82	3052.25
2088.906	3068.25
2092.988	3080.25
2097.066	3065.25
2101.14	3052.25
2105.211	3033.25
2109.278	3024.25
2113.342	3009.25
2117.401	3004.25
2121.457	2987.25
2125.509	3002.25
2129.558	2986.25
2133.602	2974.25
2137.643	2979.25
2141.681	2940.25
2145.714	2960.25
2149.744	2947.25
2153.77	2947.25
2157.793	2897.25
2161.812	2883.25
2165.827	2848.25
2169.838	2815.25
2173.846	2787.25
2177.851	2750.25
2181.851	2720.25
2185.848	2692.25
2189.841	2675.25
2193.831	2658.25
2197.817	2624.25
2201.799	2628.25
2205.778	2630.25
2209.753	2617.25
2213.725	2638.25
2217.693	2622.25
2221.657	2637.25
2225.618	2603.25
2229.575	2620.25
2233.529	2601.25
2237.479	2597.25
2241.425	2582.25
2245.368	2540.25
2249.307	2541.25
2253.243	2491.25
2257.175	2477.25
2261.104	2436.25
2265.029	2420.25
2268.95	2391.25
2272.868	2375.25
2276.783	2374.25
2280.694	2362.25
2284.601	2343.25
2288.505	2317.25
2292.405	2313.25
2296.302	2282.25
2300.195	2280.25
2304.085	2251.25
2307.971	2211.25
2311.854	2180.25
2315.734	2150.25
2319.609	2123.25
2323.482	2111.25
2327.351	2080.25
2331.216	2040.25
2335.078	2068.25
2338.937	2017.25
2342.792	2024.25
2346.643	2022.25
2350.492	2042.25
2354.336	2025.25
2358.178	2023.25
2362.015	2031.25
2365.85	2019.25
2369.681	2047.25
2373.508	2033.25
2377.333	2025.25
2381.153	2033.25
2384.971	2001.25
2388.785	2001.25
2392.595	1994.25
2396.402	1983.25
2400.206	1969.25
2404.007	1970.25
2407.804	1964.25
2411.597	1943.25
2415.388	1938.25
2419.174	1937.25
2422.958	1937.25
2426.738	1904.25
2430.515	1909.25
2434.289	1906.25
2438.059	1904.25
2441.825	1867.25
2445.589	1893.25
2449.349	1873.25
2453.106	1854.25
2456.859	1836.25
2460.61	1830.25
2464.356	1822.25
2468.1	1795.25
2471.84	1788.25
2475.577	1789.25
2479.311	1789.25
2483.041	1781.25
2486.768	1805.25
2490.492	1801.25
2494.213	1794.25
2497.93	1793.25
2501.644	1801.25
2505.355	1784.25
2509.062	1792.25
2512.766	1792.25
2516.467	1765.25
2520.165	1793.25
2523.859	1748.25
2527.551	1765.25
2531.239	1754.25
2534.923	1733.25
2538.605	1714.25
2542.283	1733.25
2545.958	1716.25
2549.63	1709.25
2553.299	1699.25
2556.964	1698.25
2560.626	1690.25
2564.285	1685.25
2567.941	1674.25
2571.594	1663.25
2575.243	1659.25
2578.89	1646.25
2582.533	1629.25
2586.173	1636.25
2589.809	1610.25
2593.443	1614.25
2597.073	1596.25
2600.701	1603.25
2604.325	1608.25
2607.946	1587.25
2611.564	1579.25
2615.178	1579.25
2618.79	1579.25
2622.398	1575.25
2626.004	1566.25
2629.606	1557.25
2633.205	1545.25
2636.801	1538.25
2640.394	1524.25
2643.983	1513.25
2647.57	1487.25
2651.153	1470.25
2654.734	1454.25
2658.311	1453.25
2661.885	1442.25
2665.456	1416.25
2669.025	1430.25
2672.589	1404.25
2676.151	1394.25
2679.71	1400.25
2683.266	1365.25
2686.819	1348.25
2690.368	1337.25
2693.915	1324.25
2697.458	1316.25
2700.999	1281.25
2704.536	1273.25
2708.071	1250.25
2711.602	1234.25
2715.13	1225.25
2718.656	1226.25
2722.178	1208.25
2725.697	1214.25
2729.214	1205.25
2732.727	1225.25
2736.237	1226.25
2739.744	1221.25
2743.249	1216.25
2746.75	1237.25
2750.248	1229.25
2753.743	1237.25
2757.236	1254.25
2760.725	1227.25
2764.211	1229.25
2767.695	1232.25
2771.175	1241.25
2774.652	1229.25
2778.127	1221.25
2781.598	1226.25
2785.067	1195.25
2788.532	1187.25
2791.995	1195.25
2795.455	1198.25
2798.911	1187.25
2802.365	1190.25
2805.816	1180.25
2809.264	1174.25
2812.709	1155.25
2816.151	1153.25
2819.59	1135.25
2823.026	1147.25
2826.46	1139.25
2829.89	1110.25
2833.318	1117.25
2836.742	1117.25
2840.164	1120.25
2843.583	1110.25
2846.999	1120.25
2850.412	1103.25
2853.822	1114.25
2857.229	1129.25
2860.634	1117.25
2864.035	1119.25
2867.434	1122.25
2870.83	1138.25
2874.223	1141.25
2877.613	1137.25
2881	1114.25
2884.385	1120.25
2887.766	1120.25
2891.145	1124.25
2894.521	1095.25
2897.894	1091.25
2901.264	1081.25
2904.631	1079.25
2907.996	1080.25
2911.358	1070.25
2914.717	1065.25
2918.073	1072.25
2921.426	1071.25
2924.777	1080.25
2928.124	1075.25
2931.469	1082.25
2934.811	1090.25
2938.15	1098.25
2941.487	1093.25
2944.821	1080.25
2948.152	1092.25
2951.48	1086.25
2954.805	1091.25
2958.128	1093.25
2961.447	1077.25
2964.765	1092.25
2968.079	1087.25
2971.39	1087.25
2974.699	1106.25
2978.005	1135.25
2981.308	1141.25
2984.609	1169.25
2987.907	1183.25
2991.202	1189.25
2994.494	1211.25
2997.784	1236.25
3001.07	1247.25
3004.355	1277.25
3007.636	1274.25
3010.915	1300.25
3014.191	1307.25
3017.464	1295.25
3020.734	1308.25
3024.002	1322.25
3027.267	1339.25
3030.53	1308.25
3033.789	1326.25
3037.046	1348.25
3040.301	1362.25
3043.552	1359.25
3046.801	1382.25
3050.048	1400.25
3053.291	1435.25
3056.532	1446.25
3059.771	1467.25
3063.006	1497.25
3066.239	1545.25
3069.469	1549.25
3072.697	1601.25
3075.922	1621.25
3079.144	1639.25
3082.364	1693.25
3085.581	1676.25
3088.795	1716.25
3092.007	1751.25
3095.216	1782.25
3098.423	1798.25
3101.627	1838.25
3104.828	1859.25
3108.026	1866.25
3111.222	1909.25
3114.416	1956.25
3117.607	1989.25
3120.795	2025.25
3123.98	2058.25
3127.163	2057.25
3130.344	2119.25
3133.521	2151.25
3136.696	2189.25
3139.869	2216.25
3143.039	2252.25
3146.206	2282.25
3149.371	2308.25
3152.533	2308.25
3155.693	2328.25
3158.85	2317.25
3162.005	2334.25
3165.157	2333.25
3168.306	2337.25
3171.453	2338.25
3174.597	2330.25
3177.739	2315.25
3180.878	2348.25
3184.014	2356.25
3187.149	2366.25
3190.28	2341.25
3193.409	2377.25
3196.536	2385.25
3199.659	2382.25
3202.781	2368.25
3205.9	2378.25
3209.016	2374.25
3212.13	2347.25
3215.241	2344.25
3218.35	2343.25
3221.456	2317.25
3224.56	2306.25
3227.661	2270.25
3230.76	2254.25
3233.856	2228.25
3236.95	2203.25
3240.041	2219.25
3243.13	2183.25
3246.216	2144.25
3249.3	2157.25
3252.382	2149.25
3255.46	2117.25
3258.537	2135.25
3261.611	2146.25
3264.682	2117.25
3267.751	2123.25
3270.818	2098.25
3273.882	2108.25
3276.943	2076.25
3280.002	2067.25
3283.059	2051.25
3286.113	2006.25
3289.165	1997.25
3292.214	1959.25
3295.261	1942.25
3298.306	1890.25
3301.348	1869.25
3304.387	1829.25
3307.425	1796.25
3310.459	1772.25
3313.492	1759.25
3316.521	1734.25
3319.549	1725.25
3322.574	1700.25
3325.597	1679.25
3328.617	1672.25
3331.635	1655.25
3334.65	1644.25
3337.663	1650.25
3340.674	1630.25
3343.682	1624.25
3346.688	1620.25
3349.691	1612.25
3352.692	1600.25
3355.691	1582.25
3358.687	1570.25
3361.681	1553.25
3364.673	1534.25
3367.662	1508.25
3370.649	1507.25
3373.633	1472.25
3376.615	1470.25
3379.595	1434.25
3382.572	1424.25
3385.547	1394.25
3388.52	1366.25
3391.49	1349.25
3394.458	1325.25
3397.424	1331.25
3400.387	1301.25
3403.348	1291.25
3406.307	1283.25
3409.263	1254.25
3412.217	1259.25
3415.168	1228.25
3418.118	1224.25
3421.065	1204.25
3424.009	1199.25
3426.951	1174.25
3429.891	1179.25
3432.829	1146.25
3435.764	1126.25
3438.697	1092.25
3441.628	1077.25
3444.557	1049.25
3447.483	1021.25
3450.407	983.25
3453.328	965.25
3456.247	931.25
3459.164	915.25
3462.079	886.25
3464.991	861.25
3467.902	835.25
3470.809	810.25
3473.715	793.25
3476.618	768.25
3479.519	744.25
3482.418	719.25
3485.315	704.25
3488.209	691.25
3491.101	668.25
3493.99	640.25
3496.878	641.25
3499.763	610.25
3502.646	581.25
3505.527	568.25
3508.405	555.25
3511.281	532.25
3514.155	516.25
3517.027	493.25
3519.897	471.25
3522.764	454.25
3525.629	431.25
3528.492	402.25
3531.352	384.25
3534.211	369.25
3537.067	337.25
3539.921	322.25
3542.773	301.25
3545.622	290.25
3548.469	271.25
3551.315	256.25
3554.157	242.25
3556.998	220.25
3559.837	214.25
3562.673	200.25
3565.507	199.25
3568.339	179.25
3571.169	166.25
3573.996	164.25
3576.822	151.25
3579.645	131.25
3582.466	130.25
3585.285	115.25
3588.101	104.25
3590.916	93.25
3593.728	88.25
3596.538	65.25
3599.346	56.25
3602.152	59.25
3604.956	41.25
3607.757	31.25
3610.556	28.25
3613.354	17.25
3616.149	5.25
3618.942	5.25
3621.732	-11.75
3624.521	-13.75
3627.307	-20.75
3630.092	-17.75
3632.874	-25.75
3635.654	-32.75
3638.432	-29.75
3641.208	-38.75
3643.982	-49.75
3646.753	-55.75
3649.523	-57.75
3652.29	-56.75
3655.055	-72.75
3657.818	-72.75
3660.579	-77.75
3663.338	-84.75
3666.095	-95.75
3668.849	-97.75
3671.602	-95.75
3674.352	-98.75
3677.101	-108.75
3679.847	-106.75
3682.591	-119.75
3685.333	-122.75
3688.073	-116.75
3690.811	-122.75
3693.547	-130.75
3696.281	-131.75
3699.013	-130.75
3701.742	-135.75
3704.47	-134.75
3707.195	-138.75
3709.919	-145.75
3712.64	-142.75
3715.359	-142.75
3718.076	-146.75
3720.792	-154.75
3723.505	-149.75
3726.216	-156.75
3728.925	-160.75
3731.632	-158.75
3734.336	-159.75
3737.039	-164.75
3739.74	-161.75
3742.439	-162.75
3745.136	-166.75
3747.83	-167.75
3750.523	-161.75
3753.213	-168.75
3755.902	-171.75
3758.589	-171.75
3761.273	-169.75
3763.956	-174.75
3766.636	-174.75
3769.315	-174.75
3771.991	-177.75
3774.665	-179.75
3777.338	-183.75
3780.008	-178.75
3782.677	-179.75
3785.343	-183.75
3788.007	-181.75
3790.67	-183.75
3793.33	-180.75
3795.989	-189.75
3798.645	-185.75
3801.299	-187.75
3803.952	-185.75
3806.602	-188.75
3809.251	-185.75
3811.897	-188.75
3814.542	-189.75
3817.184	-192.75
3819.825	-189.75
3822.463	-193.75
3825.1	-189.75
3827.735	-191.75
3830.367	-196.75
3832.998	-194.75
3835.627	-194.75
3838.253	-195.75
3840.878	-194.75
3843.501	-195.75
3846.122	-198.75
3848.741	-196.75
3851.358	-201.75
3853.973	-201.75
3856.586	-202.75
3859.197	-202.75
3861.806	-198.75
3864.414	-204.75
3867.019	-204.75
3869.622	-205.75
3872.224	-203.75
3874.823	-201.75
3877.421	-200.75
3880.016	-195.75
3882.61	-191.75
3885.202	-192.75
3887.792	-194.75
3890.38	-198.75
3892.966	-201.75
3895.55	-208.75
3898.132	-209.75
3900.713	-209.75
3903.291	-206.75
3905.868	-209.75
3908.442	-205.75
3911.015	-207.75
3913.586	-209.75
3916.155	-205.75
3918.722	-206.75
3921.287	-214.75
3923.85	-208.75
3926.411	-213.75
3928.971	-213.75
3931.528	-212.75
3934.084	-212.75
3936.638	-209.75
3939.19	-210.75
3941.74	-215.75
3944.288	-211.75
3946.834	-211.75
3949.378	-216.75
3951.921	-219.75
3954.462	-216.75
3957	-219.75
3959.537	-216.75
3962.072	-216.75
3964.606	-216.75
3967.137	-217.75
3969.667	-212.75
3972.194	-212.75
3974.72	-217.75
3977.244	-212.75
3979.766	-213.75
3982.286	-211.75
3984.805	-210.75
3987.321	-209.75
3989.836	-212.75
3992.349	-206.75
3994.86	-204.75
3997.369	-210.75
3999.877	-205.75
4002.382	-205.75
4004.886	-205.75
4007.388	-204.75
4009.888	-208.75
4012.386	-211.75
4014.883	-208.75
4017.377	-209.75
4019.87	-210.75
4022.361	-206.75
4024.85	-213.75
4027.338	-213.75
4029.823	-211.75
4032.307	-215.75
4034.789	-214.75
4037.269	-212.75
4039.747	-213.75
4042.224	-216.75
4044.699	-214.75
4047.172	-219.75
4049.643	-212.75
4052.112	-211.75
4054.58	-213.75
4057.046	-218.75
4059.51	-212.75
4061.972	-217.75
4064.432	-209.75
4066.891	-213.75
4069.348	-213.75
4071.803	-211.75
4074.256	-208.75
4076.708	-211.75
4079.158	-214.75
4081.606	-209.75
4084.052	-207.75
4086.497	-212.75
4088.939	-212.75
4091.38	-209.75
4093.819	-208.75
4096.257	-226.75
4098.693	-226.75
4101.127	-224.75
4103.559	-224.75
4105.989	-145.75
4108.418	-137.75
4110.845	-129.75
4113.27	-118.75
4115.694	-103.75
4118.115	-84.75
4120.535	-215.75
4122.954	-212.75
4125.37	-212.75
4127.785	-215.75
4130.198	-214.75
4132.609	-213.75
4135.019	-228.75
4137.427	-227.75
4139.833	-232.75
4142.237	-227.75
