Data from I0.75_T15s_Bsub_water_1-10^2_2_RamanShift_1.txt Node
Date: Mon Mar 13 15:56:21 IST 2017
User: aro
Spectrometer: QEPB0276
Trigger mode: 0
Integration Time (sec): 1.500000E1
Scans to average: 1
Electric dark correction enabled: true
Nonlinearity correction enabled: false
Boxcar width: 0
XAxis mode: Raman Shifts
Number of Pixels in Spectrum: 1044
>>>>>Begin Spectral Data<<<<<
160.701	-77.62
166.742	9.38
172.777	254.38
178.805	1045.38
184.826	3003.38
190.841	6489.38
196.849	10438.38
202.85	13070.38
208.845	13774.38
214.833	13418.38
220.815	12980.38
226.789	12781.38
232.758	12579.38
238.719	12341.38
244.674	12035.38
250.623	11718.38
256.565	11380.38
262.5	10979.38
268.429	10643.38
274.351	10378.38
280.267	10094.38
286.176	9887.38
292.079	9649.38
297.975	9492.38
303.865	9259.38
309.748	8993.38
315.625	8867.38
321.495	8648.38
327.359	8510.38
333.217	8369.38
339.068	8246.38
344.912	8216.38
350.751	8141.38
356.583	8049.38
362.408	8034.38
368.227	7991.38
374.04	7990.38
379.847	7927.38
385.647	7926.38
391.44	7945.38
397.228	7993.38
403.009	8007.38
408.784	7991.38
414.553	7969.38
420.315	7986.38
426.071	7982.38
431.821	7971.38
437.565	7955.38
443.302	7952.38
449.033	7903.38
454.758	7875.38
460.477	7832.38
466.189	7801.38
471.896	7766.38
477.596	7698.38
483.29	7738.38
488.978	7698.38
494.66	7633.38
500.335	7602.38
506.005	7515.38
511.668	7432.38
517.325	7321.38
522.977	7248.38
528.622	7161.38
534.261	7050.38
539.894	7089.38
545.521	7007.38
551.141	6999.38
556.756	7000.38
562.365	6977.38
567.968	6973.38
573.565	6904.38
579.155	6879.38
584.74	6886.38
590.319	6824.38
595.892	6853.38
601.459	6773.38
607.02	6769.38
612.575	6696.38
618.124	6636.38
623.667	6616.38
629.204	6587.38
634.735	6544.38
640.261	6519.38
645.781	6469.38
651.294	6487.38
656.802	6473.38
662.304	6474.38
667.8	6440.38
673.29	6468.38
678.775	6451.38
684.254	6422.38
689.726	6391.38
695.193	6387.38
700.655	6377.38
706.11	6337.38
711.56	6313.38
717.004	6320.38
722.442	6227.38
727.874	6267.38
733.301	6223.38
738.722	6209.38
744.137	6217.38
749.547	6225.38
754.951	6235.38
760.349	6220.38
765.741	6223.38
771.128	6248.38
776.509	6272.38
781.885	6276.38
787.254	6301.38
792.618	6231.38
797.977	6269.38
803.33	6197.38
808.677	6164.38
814.019	6116.38
819.355	6099.38
824.686	6070.38
830.011	6065.38
835.33	6060.38
840.644	6046.38
845.952	6057.38
851.255	6082.38
856.552	6071.38
861.844	6072.38
867.13	6054.38
872.41	6003.38
877.686	5996.38
882.955	5993.38
888.219	5904.38
893.478	5897.38
898.731	5828.38
903.979	5797.38
909.221	5723.38
914.458	5706.38
919.69	5750.38
924.916	5740.38
930.136	5740.38
935.351	5772.38
940.561	5765.38
945.766	5759.38
950.965	5748.38
956.158	5713.38
961.347	5725.38
966.529	5638.38
971.707	5581.38
976.879	5534.38
982.046	5468.38
987.208	5472.38
992.364	5508.38
997.515	5520.38
1002.66	5554.38
1007.801	5628.38
1012.936	5672.38
1018.066	5731.38
1023.19	5800.38
1028.309	5818.38
1033.423	5794.38
1038.532	5780.38
1043.636	5756.38
1048.734	5722.38
1053.827	5654.38
1058.915	5605.38
1063.998	5575.38
1069.075	5569.38
1074.147	5598.38
1079.214	5653.38
1084.276	5684.38
1089.333	5737.38
1094.385	5798.38
1099.431	5814.38
1104.472	5848.38
1109.509	5808.38
1114.54	5768.38
1119.565	5678.38
1124.586	5640.38
1129.602	5606.38
1134.613	5580.38
1139.618	5552.38
1144.619	5577.38
1149.614	5581.38
1154.604	5604.38
1159.589	5643.38
1164.57	5706.38
1169.545	5675.38
1174.515	5739.38
1179.48	5711.38
1184.44	5679.38
1189.395	5635.38
1194.345	5645.38
1199.29	5595.38
1204.23	5620.38
1209.165	5686.38
1214.095	5688.38
1219.021	5759.38
1223.941	5800.38
1228.856	5872.38
1233.766	5836.38
1238.672	5881.38
1243.572	5859.38
1248.467	5855.38
1253.358	5798.38
1258.244	5748.38
1263.124	5661.38
1268	5560.38
1272.871	5550.38
1277.737	5520.38
1282.599	5542.38
1287.455	5554.38
1292.306	5544.38
1297.153	5609.38
1301.995	5605.38
1306.832	5694.38
1311.664	5703.38
1316.491	5729.38
1321.314	5716.38
1326.132	5661.38
1330.945	5583.38
1335.753	5545.38
1340.556	5479.38
1345.354	5357.38
1350.148	5354.38
1354.937	5349.38
1359.722	5366.38
1364.501	5395.38
1369.276	5422.38
1374.046	5465.38
1378.811	5507.38
1383.572	5460.38
1388.327	5463.38
1393.079	5406.38
1397.825	5388.38
1402.567	5300.38
1407.304	5261.38
1412.036	5208.38
1416.764	5200.38
1421.487	5211.38
1426.205	5217.38
1430.919	5245.38
1435.628	5335.38
1440.333	5379.38
1445.032	5385.38
1449.727	5446.38
1454.418	5441.38
1459.104	5433.38
1463.785	5417.38
1468.462	5379.38
1473.134	5323.38
1477.802	5281.38
1482.465	5274.38
1487.123	5249.38
1491.777	5277.38
1496.426	5316.38
1501.071	5366.38
1505.711	5405.38
1510.347	5494.38
1514.978	5531.38
1519.604	5555.38
1524.226	5638.38
1528.844	5603.38
1533.457	5600.38
1538.065	5635.38
1542.669	5594.38
1547.269	5546.38
1551.864	5558.38
1556.454	5559.38
1561.041	5572.38
1565.622	5618.38
1570.199	5591.38
1574.772	5698.38
1579.34	5684.38
1583.904	5794.38
1588.464	5837.38
1593.019	5868.38
1597.569	5875.38
1602.115	5857.38
1606.657	5825.38
1611.195	5846.38
1615.728	5838.38
1620.256	5846.38
1624.78	5872.38
1629.3	5945.38
1633.816	6033.38
1638.327	6028.38
1642.834	6081.38
1647.336	6142.38
1651.834	6194.38
1656.328	6210.38
1660.817	6186.38
1665.302	6170.38
1669.783	6079.38
1674.259	5987.38
1678.732	5857.38
1683.199	5716.38
1687.663	5557.38
1692.122	5463.38
1696.577	5327.38
1701.028	5237.38
1705.474	5207.38
1709.917	5143.38
1714.355	5099.38
1718.788	5063.38
1723.218	4992.38
1727.643	4962.38
1732.064	4889.38
1736.481	4805.38
1740.893	4766.38
1745.301	4634.38
1749.705	4564.38
1754.105	4519.38
1758.501	4437.38
1762.893	4393.38
1767.28	4316.38
1771.663	4302.38
1776.042	4307.38
1780.417	4331.38
1784.787	4402.38
1789.154	4397.38
1793.516	4438.38
1797.874	4457.38
1802.228	4497.38
1806.578	4520.38
1810.924	4484.38
1815.266	4429.38
1819.603	4386.38
1823.937	4309.38
1828.266	4257.38
1832.591	4210.38
1836.913	4192.38
1841.23	4189.38
1845.543	4157.38
1849.852	4142.38
1854.156	4181.38
1858.457	4183.38
1862.754	4197.38
1867.047	4200.38
1871.335	4237.38
1875.62	4203.38
1879.9	4236.38
1884.177	4252.38
1888.449	4201.38
1892.718	4204.38
1896.982	4205.38
1901.243	4189.38
1905.499	4179.38
1909.752	4162.38
1914	4179.38
1918.245	4185.38
1922.485	4232.38
1926.722	4238.38
1930.954	4227.38
1935.183	4263.38
1939.408	4297.38
1943.628	4299.38
1947.845	4309.38
1952.058	4275.38
1956.267	4267.38
1960.472	4259.38
1964.673	4233.38
1968.87	4173.38
1973.063	4151.38
1977.252	4090.38
1981.438	4083.38
1985.619	4044.38
1989.797	4039.38
1993.971	4064.38
1998.14	4061.38
2002.306	4054.38
2006.469	4083.38
2010.627	4063.38
2014.781	4091.38
2018.932	4096.38
2023.078	4045.38
2027.221	4019.38
2031.36	3966.38
2035.495	3957.38
2039.627	3935.38
2043.754	3897.38
2047.878	3868.38
2051.998	3873.38
2056.114	3874.38
2060.226	3898.38
2064.334	3905.38
2068.439	3938.38
2072.54	3931.38
2076.637	3951.38
2080.73	3973.38
2084.82	3974.38
2088.906	3961.38
2092.988	3989.38
2097.066	3984.38
2101.14	3969.38
2105.211	4018.38
2109.278	3894.38
2113.342	3882.38
2117.401	3868.38
2121.457	3856.38
2125.509	3864.38
2129.558	3869.38
2133.602	3857.38
2137.643	3828.38
2141.681	3827.38
2145.714	3800.38
2149.744	3806.38
2153.77	3771.38
2157.793	3731.38
2161.812	3709.38
2165.827	3679.38
2169.838	3631.38
2173.846	3583.38
2177.851	3558.38
2181.851	3493.38
2185.848	3454.38
2189.841	3447.38
2193.831	3417.38
2197.817	3402.38
2201.799	3412.38
2205.778	3404.38
2209.753	3390.38
2213.725	3406.38
2217.693	3411.38
2221.657	3414.38
2225.618	3414.38
2229.575	3412.38
2233.529	3412.38
2237.479	3400.38
2241.425	3338.38
2245.368	3326.38
2249.307	3303.38
2253.243	3239.38
2257.175	3210.38
2261.104	3186.38
2265.029	3170.38
2268.95	3148.38
2272.868	3090.38
2276.783	3078.38
2280.694	3075.38
2284.601	3036.38
2288.505	3033.38
2292.405	2988.38
2296.302	2958.38
2300.195	2951.38
2304.085	2912.38
2307.971	2886.38
2311.854	2829.38
2315.734	2809.38
2319.609	2760.38
2323.482	2745.38
2327.351	2696.38
2331.216	2701.38
2335.078	2692.38
2338.937	2675.38
2342.792	2652.38
2346.643	2643.38
2350.492	2645.38
2354.336	2654.38
2358.178	2653.38
2362.015	2677.38
2365.85	2679.38
2369.681	2677.38
2373.508	2659.38
2377.333	2667.38
2381.153	2675.38
2384.971	2666.38
2388.785	2641.38
2392.595	2629.38
2396.402	2601.38
2400.206	2599.38
2404.007	2591.38
2407.804	2591.38
2411.597	2591.38
2415.388	2563.38
2419.174	2568.38
2422.958	2555.38
2426.738	2560.38
2430.515	2543.38
2434.289	2550.38
2438.059	2522.38
2441.825	2520.38
2445.589	2501.38
2449.349	2495.38
2453.106	2458.38
2456.859	2481.38
2460.61	2449.38
2464.356	2425.38
2468.1	2428.38
2471.84	2401.38
2475.577	2405.38
2479.311	2424.38
2483.041	2416.38
2486.768	2394.38
2490.492	2420.38
2494.213	2411.38
2497.93	2397.38
2501.644	2418.38
2505.355	2403.38
2509.062	2374.38
2512.766	2383.38
2516.467	2381.38
2520.165	2386.38
2523.859	2351.38
2527.551	2340.38
2531.239	2342.38
2534.923	2307.38
2538.605	2282.38
2542.283	2281.38
2545.958	2278.38
2549.63	2277.38
2553.299	2269.38
2556.964	2244.38
2560.626	2241.38
2564.285	2251.38
2567.941	2227.38
2571.594	2218.38
2575.243	2206.38
2578.89	2190.38
2582.533	2154.38
2586.173	2173.38
2589.809	2157.38
2593.443	2140.38
2597.073	2136.38
2600.701	2119.38
2604.325	2120.38
2607.946	2105.38
2611.564	2129.38
2615.178	2102.38
2618.79	2090.38
2622.398	2094.38
2626.004	2071.38
2629.606	2059.38
2633.205	2043.38
2636.801	2031.38
2640.394	2012.38
2643.983	1991.38
2647.57	1960.38
2651.153	1950.38
2654.734	1935.38
2658.311	1914.38
2661.885	1884.38
2665.456	1881.38
2669.025	1869.38
2672.589	1861.38
2676.151	1847.38
2679.71	1831.38
2683.266	1825.38
2686.819	1789.38
2690.368	1778.38
2693.915	1745.38
2697.458	1734.38
2700.999	1700.38
2704.536	1699.38
2708.071	1683.38
2711.602	1653.38
2715.13	1653.38
2718.656	1625.38
2722.178	1628.38
2725.697	1622.38
2729.214	1622.38
2732.727	1641.38
2736.237	1649.38
2739.744	1647.38
2743.249	1646.38
2746.75	1659.38
2750.248	1666.38
2753.743	1642.38
2757.236	1634.38
2760.725	1624.38
2764.211	1645.38
2767.695	1614.38
2771.175	1617.38
2774.652	1589.38
2778.127	1576.38
2781.598	1568.38
2785.067	1578.38
2788.532	1563.38
2791.995	1555.38
2795.455	1544.38
2798.911	1538.38
2802.365	1555.38
2805.816	1530.38
2809.264	1525.38
2812.709	1535.38
2816.151	1489.38
2819.59	1517.38
2823.026	1484.38
2826.46	1488.38
2829.89	1499.38
2833.318	1477.38
2836.742	1468.38
2840.164	1475.38
2843.583	1468.38
2846.999	1470.38
2850.412	1487.38
2853.822	1470.38
2857.229	1492.38
2860.634	1483.38
2864.035	1498.38
2867.434	1485.38
2870.83	1509.38
2874.223	1488.38
2877.613	1500.38
2881	1477.38
2884.385	1501.38
2887.766	1464.38
2891.145	1457.38
2894.521	1465.38
2897.894	1438.38
2901.264	1450.38
2904.631	1424.38
2907.996	1434.38
2911.358	1420.38
2914.717	1428.38
2918.073	1446.38
2921.426	1442.38
2924.777	1436.38
2928.124	1441.38
2931.469	1447.38
2934.811	1469.38
2938.15	1466.38
2941.487	1481.38
2944.821	1473.38
2948.152	1472.38
2951.48	1461.38
2954.805	1480.38
2958.128	1462.38
2961.447	1485.38
2964.765	1489.38
2968.079	1493.38
2971.39	1496.38
2974.699	1523.38
2978.005	1542.38
2981.308	1559.38
2984.609	1582.38
2987.907	1604.38
2991.202	1630.38
2994.494	1636.38
2997.784	1673.38
3001.07	1694.38
3004.355	1731.38
3007.636	1765.38
3010.915	1761.38
3014.191	1792.38
3017.464	1785.38
3020.734	1777.38
3024.002	1799.38
3027.267	1802.38
3030.53	1835.38
3033.789	1835.38
3037.046	1850.38
3040.301	1865.38
3043.552	1877.38
3046.801	1916.38
3050.048	1932.38
3053.291	1971.38
3056.532	2023.38
3059.771	2051.38
3063.006	2080.38
3066.239	2142.38
3069.469	2168.38
3072.697	2237.38
3075.922	2260.38
3079.144	2303.38
3082.364	2361.38
3085.581	2397.38
3088.795	2387.38
3092.007	2438.38
3095.216	2481.38
3098.423	2511.38
3101.627	2561.38
3104.828	2580.38
3108.026	2646.38
3111.222	2683.38
3114.416	2745.38
3117.607	2773.38
3120.795	2828.38
3123.98	2862.38
3127.163	2931.38
3130.344	2991.38
3133.521	3015.38
3136.696	3075.38
3139.869	3126.38
3143.039	3174.38
3146.206	3203.38
3149.371	3248.38
3152.533	3278.38
3155.693	3268.38
3158.85	3280.38
3162.005	3295.38
3165.157	3314.38
3168.306	3328.38
3171.453	3305.38
3174.597	3312.38
3177.739	3320.38
3180.878	3325.38
3184.014	3337.38
3187.149	3313.38
3190.28	3343.38
3193.409	3364.38
3196.536	3351.38
3199.659	3375.38
3202.781	3364.38
3205.9	3363.38
3209.016	3355.38
3212.13	3364.38
3215.241	3331.38
3218.35	3316.38
3221.456	3292.38
3224.56	3266.38
3227.661	3239.38
3230.76	3206.38
3233.856	3167.38
3236.95	3159.38
3240.041	3114.38
3243.13	3108.38
3246.216	3082.38
3249.3	3076.38
3252.382	3050.38
3255.46	3027.38
3258.537	3045.38
3261.611	3031.38
3264.682	3028.38
3267.751	3001.38
3270.818	2983.38
3273.882	2982.38
3276.943	2975.38
3280.002	2914.38
3283.059	2909.38
3286.113	2886.38
3289.165	2846.38
3292.214	2813.38
3295.261	2756.38
3298.306	2689.38
3301.348	2660.38
3304.387	2608.38
3307.425	2585.38
3310.459	2552.38
3313.492	2517.38
3316.521	2488.38
3319.549	2430.38
3322.574	2425.38
3325.597	2410.38
3328.617	2390.38
3331.635	2356.38
3334.65	2347.38
3337.663	2343.38
3340.674	2330.38
3343.682	2313.38
3346.688	2330.38
3349.691	2295.38
3352.692	2292.38
3355.691	2274.38
3358.687	2253.38
3361.681	2240.38
3364.673	2190.38
3367.662	2172.38
3370.649	2141.38
3373.633	2140.38
3376.615	2077.38
3379.595	2056.38
3382.572	2022.38
3385.547	1999.38
3388.52	1985.38
3391.49	1946.38
3394.458	1914.38
3397.424	1887.38
3400.387	1867.38
3403.348	1851.38
3406.307	1816.38
3409.263	1819.38
3412.217	1793.38
3415.168	1786.38
3418.118	1759.38
3421.065	1730.38
3424.009	1717.38
3426.951	1712.38
3429.891	1680.38
3432.829	1663.38
3435.764	1609.38
3438.697	1575.38
3441.628	1550.38
3444.557	1500.38
3447.483	1470.38
3450.407	1430.38
3453.328	1379.38
3456.247	1346.38
3459.164	1318.38
3462.079	1260.38
3464.991	1230.38
3467.902	1206.38
3470.809	1164.38
3473.715	1141.38
3476.618	1114.38
3479.519	1085.38
3482.418	1035.38
3485.315	1017.38
3488.209	992.38
3491.101	979.38
3493.99	938.38
3496.878	923.38
3499.763	883.38
3502.646	861.38
3505.527	837.38
3508.405	806.38
3511.281	778.38
3514.155	749.38
3517.027	716.38
3519.897	684.38
3522.764	654.38
3525.629	622.38
3528.492	593.38
3531.352	569.38
3534.211	533.38
3537.067	489.38
3539.921	476.38
3542.773	462.38
3545.622	433.38
3548.469	400.38
3551.315	378.38
3554.157	349.38
3556.998	332.38
3559.837	340.38
3562.673	312.38
3565.507	291.38
3568.339	268.38
3571.169	266.38
3573.996	243.38
3576.822	230.38
3579.645	212.38
3582.466	191.38
3585.285	185.38
3588.101	158.38
3590.916	147.38
3593.728	133.38
3596.538	118.38
3599.346	106.38
3602.152	90.38
3604.956	79.38
3607.757	64.38
3610.556	54.38
3613.354	38.38
3616.149	33.38
3618.942	18.38
3621.732	13.38
3624.521	-1.62
3627.307	-4.62
3630.092	-4.62
3632.874	-10.62
3635.654	-25.62
3638.432	-33.62
3641.208	-45.62
3643.982	-52.62
3646.753	-62.62
3649.523	-67.62
3652.29	-73.62
3655.055	-79.62
3657.818	-90.62
3660.579	-100.62
3663.338	-106.62
3666.095	-111.62
3668.849	-117.62
3671.602	-123.62
3674.352	-129.62
3677.101	-137.62
3679.847	-141.62
3682.591	-148.62
3685.333	-153.62
3688.073	-158.62
3690.811	-159.62
3693.547	-168.62
3696.281	-173.62
3699.013	-173.62
3701.742	-177.62
3704.47	-179.62
3707.195	-185.62
3709.919	-188.62
3712.64	-189.62
3715.359	-193.62
3718.076	-193.62
3720.792	-196.62
3723.505	-201.62
3726.216	-203.62
3728.925	-213.62
3731.632	-210.62
3734.336	-220.62
3737.039	-217.62
3739.74	-219.62
3742.439	-224.62
3745.136	-215.62
3747.83	-223.62
3750.523	-227.62
3753.213	-224.62
3755.902	-228.62
3758.589	-230.62
3761.273	-228.62
3763.956	-234.62
3766.636	-231.62
3769.315	-238.62
3771.991	-241.62
3774.665	-241.62
3777.338	-238.62
3780.008	-241.62
3782.677	-244.62
3785.343	-238.62
3788.007	-243.62
3790.67	-247.62
3793.33	-244.62
3795.989	-247.62
3798.645	-245.62
3801.299	-255.62
3803.952	-254.62
3806.602	-253.62
3809.251	-250.62
3811.897	-257.62
3814.542	-262.62
3817.184	-257.62
3819.825	-256.62
3822.463	-264.62
3825.1	-259.62
3827.735	-259.62
3830.367	-264.62
3832.998	-261.62
3835.627	-262.62
3838.253	-265.62
3840.878	-266.62
3843.501	-269.62
3846.122	-269.62
3848.741	-266.62
3851.358	-265.62
3853.973	-271.62
3856.586	-271.62
3859.197	-269.62
3861.806	-271.62
3864.414	-273.62
3867.019	-275.62
3869.622	-278.62
3872.224	-273.62
3874.823	-274.62
3877.421	-266.62
3880.016	-263.62
3882.61	-260.62
3885.202	-258.62
3887.792	-264.62
3890.38	-269.62
3892.966	-274.62
3895.55	-282.62
3898.132	-283.62
3900.713	-281.62
3903.291	-282.62
3905.868	-287.62
3908.442	-285.62
3911.015	-289.62
3913.586	-290.62
3916.155	-286.62
3918.722	-287.62
3921.287	-282.62
3923.85	-285.62
3926.411	-287.62
3928.971	-294.62
3931.528	-286.62
3934.084	-288.62
3936.638	-289.62
3939.19	-285.62
3941.74	-290.62
3944.288	-292.62
3946.834	-296.62
3949.378	-290.62
3951.921	-295.62
3954.462	-294.62
3957	-292.62
3959.537	-292.62
3962.072	-288.62
3964.606	-285.62
3967.137	-291.62
3969.667	-293.62
3972.194	-289.62
3974.72	-295.62
3977.244	-288.62
3979.766	-286.62
3982.286	-288.62
3984.805	-290.62
3987.321	-282.62
3989.836	-289.62
3992.349	-285.62
3994.86	-287.62
3997.369	-282.62
3999.877	-287.62
4002.382	-294.62
4004.886	-286.62
4007.388	-285.62
4009.888	-287.62
4012.386	-284.62
4014.883	-289.62
4017.377	-285.62
4019.87	-283.62
4022.361	-285.62
4024.85	-285.62
4027.338	-284.62
4029.823	-287.62
4032.307	-283.62
4034.789	-288.62
4037.269	-288.62
4039.747	-285.62
4042.224	-292.62
4044.699	-288.62
4047.172	-288.62
4049.643	-287.62
4052.112	-287.62
4054.58	-289.62
4057.046	-289.62
4059.51	-292.62
4061.972	-292.62
4064.432	-286.62
4066.891	-292.62
4069.348	-292.62
4071.803	-287.62
4074.256	-293.62
4076.708	-286.62
4079.158	-288.62
4081.606	-292.62
4084.052	-288.62
4086.497	-288.62
4088.939	-292.62
4091.38	-294.62
4093.819	-293.62
4096.257	-310.62
4098.693	-308.62
4101.127	-305.62
4103.559	-304.62
4105.989	-190.62
4108.418	-184.62
4110.845	-173.62
4113.27	-162.62
4115.694	-135.62
4118.115	-116.62
4120.535	-295.62
4122.954	-293.62
4125.37	-290.62
4127.785	-294.62
4130.198	-293.62
4132.609	-298.62
4135.019	-305.62
4137.427	-307.62
4139.833	-306.62
4142.237	-311.62
