Data from I0.75_T10s_Bsub_water_1-1_2_RamanShift_1.txt Node
Date: Mon Mar 13 15:36:27 IST 2017
User: aro
Spectrometer: QEPB0276
Trigger mode: 0
Integration Time (sec): 1.000000E1
Scans to average: 1
Electric dark correction enabled: true
Nonlinearity correction enabled: false
Boxcar width: 0
XAxis mode: Raman Shifts
Number of Pixels in Spectrum: 1044
>>>>>Begin Spectral Data<<<<<
160.701	-47.25
166.742	9.75
172.777	155.75
178.805	628.75
184.826	1802.75
190.841	3797.75
196.849	6131.75
202.85	7678.75
208.845	8084.75
214.833	7897.75
220.815	7635.75
226.789	7523.75
232.758	7463.75
238.719	7310.75
244.674	7128.75
250.623	6907.75
256.565	6667.75
262.5	6430.75
268.429	6269.75
274.351	6128.75
280.267	5993.75
286.176	5835.75
292.079	5684.75
297.975	5554.75
303.865	5438.75
309.748	5325.75
315.625	5238.75
321.495	5142.75
327.359	5074.75
333.217	4979.75
339.068	4933.75
344.912	4914.75
350.751	4876.75
356.583	4839.75
362.408	4786.75
368.227	4786.75
374.04	4774.75
379.847	4760.75
385.647	4757.75
391.44	4779.75
397.228	4797.75
403.009	4787.75
408.784	4783.75
414.553	4790.75
420.315	4802.75
426.071	4828.75
431.821	4802.75
437.565	4786.75
443.302	4773.75
449.033	4754.75
454.758	4771.75
460.477	4743.75
466.189	4756.75
471.896	4687.75
477.596	4701.75
483.29	4720.75
488.978	4694.75
494.66	4639.75
500.335	4596.75
506.005	4557.75
511.668	4467.75
517.325	4444.75
522.977	4413.75
528.622	4358.75
534.261	4323.75
539.894	4303.75
545.521	4286.75
551.141	4273.75
556.756	4239.75
562.365	4252.75
567.968	4237.75
573.565	4186.75
579.155	4225.75
584.74	4203.75
590.319	4176.75
595.892	4149.75
601.459	4136.75
607.02	4102.75
612.575	4092.75
618.124	4063.75
623.667	4055.75
629.204	4018.75
634.735	3997.75
640.261	3974.75
645.781	3960.75
651.294	3956.75
656.802	3980.75
662.304	3926.75
667.8	3958.75
673.29	3945.75
678.775	3936.75
684.254	3914.75
689.726	3911.75
695.193	3923.75
700.655	3902.75
706.11	3903.75
711.56	3877.75
717.004	3835.75
722.442	3868.75
727.874	3812.75
733.301	3809.75
738.722	3783.75
744.137	3821.75
749.547	3800.75
754.951	3807.75
760.349	3790.75
765.741	3808.75
771.128	3827.75
776.509	3840.75
781.885	3827.75
787.254	3828.75
792.618	3834.75
797.977	3838.75
803.33	3803.75
808.677	3781.75
814.019	3745.75
819.355	3751.75
824.686	3712.75
830.011	3725.75
835.33	3710.75
840.644	3707.75
845.952	3715.75
851.255	3715.75
856.552	3711.75
861.844	3695.75
867.13	3699.75
872.41	3717.75
877.686	3697.75
882.955	3689.75
888.219	3658.75
893.478	3590.75
898.731	3565.75
903.979	3548.75
909.221	3481.75
914.458	3499.75
919.69	3534.75
924.916	3515.75
930.136	3542.75
935.351	3558.75
940.561	3534.75
945.766	3540.75
950.965	3518.75
956.158	3524.75
961.347	3488.75
966.529	3450.75
971.707	3414.75
976.879	3389.75
982.046	3343.75
987.208	3358.75
992.364	3366.75
997.515	3391.75
1002.66	3416.75
1007.801	3477.75
1012.936	3482.75
1018.066	3519.75
1023.19	3540.75
1028.309	3566.75
1033.423	3515.75
1038.532	3545.75
1043.636	3526.75
1048.734	3468.75
1053.827	3417.75
1058.915	3406.75
1063.998	3389.75
1069.075	3415.75
1074.147	3428.75
1079.214	3451.75
1084.276	3448.75
1089.333	3505.75
1094.385	3541.75
1099.431	3537.75
1104.472	3550.75
1109.509	3552.75
1114.54	3504.75
1119.565	3475.75
1124.586	3438.75
1129.602	3408.75
1134.613	3396.75
1139.618	3402.75
1144.619	3380.75
1149.614	3410.75
1154.604	3435.75
1159.589	3444.75
1164.57	3469.75
1169.545	3485.75
1174.515	3480.75
1179.48	3479.75
1184.44	3454.75
1189.395	3443.75
1194.345	3429.75
1199.29	3421.75
1204.23	3439.75
1209.165	3451.75
1214.095	3475.75
1219.021	3496.75
1223.941	3541.75
1228.856	3554.75
1233.766	3554.75
1238.672	3589.75
1243.572	3573.75
1248.467	3567.75
1253.358	3489.75
1258.244	3473.75
1263.124	3426.75
1268	3386.75
1272.871	3364.75
1277.737	3348.75
1282.599	3346.75
1287.455	3330.75
1292.306	3375.75
1297.153	3378.75
1301.995	3420.75
1306.832	3448.75
1311.664	3452.75
1316.491	3450.75
1321.314	3446.75
1326.132	3413.75
1330.945	3360.75
1335.753	3309.75
1340.556	3284.75
1345.354	3230.75
1350.148	3187.75
1354.937	3172.75
1359.722	3198.75
1364.501	3222.75
1369.276	3275.75
1374.046	3310.75
1378.811	3362.75
1383.572	3364.75
1388.327	3350.75
1393.079	3315.75
1397.825	3272.75
1402.567	3214.75
1407.304	3193.75
1412.036	3158.75
1416.764	3142.75
1421.487	3134.75
1426.205	3151.75
1430.919	3155.75
1435.628	3183.75
1440.333	3219.75
1445.032	3254.75
1449.727	3247.75
1454.418	3275.75
1459.104	3273.75
1463.785	3238.75
1468.462	3219.75
1473.134	3179.75
1477.802	3139.75
1482.465	3131.75
1487.123	3112.75
1491.777	3159.75
1496.426	3166.75
1501.071	3212.75
1505.711	3224.75
1510.347	3277.75
1514.978	3316.75
1519.604	3341.75
1524.226	3370.75
1528.844	3384.75
1533.457	3361.75
1538.065	3367.75
1542.669	3363.75
1547.269	3338.75
1551.864	3335.75
1556.454	3335.75
1561.041	3341.75
1565.622	3357.75
1570.199	3378.75
1574.772	3403.75
1579.34	3428.75
1583.904	3448.75
1588.464	3474.75
1593.019	3509.75
1597.569	3527.75
1602.115	3499.75
1606.657	3484.75
1611.195	3487.75
1615.728	3451.75
1620.256	3492.75
1624.78	3483.75
1629.3	3524.75
1633.816	3560.75
1638.327	3589.75
1642.834	3621.75
1647.336	3667.75
1651.834	3706.75
1656.328	3664.75
1660.817	3666.75
1665.302	3632.75
1669.783	3639.75
1674.259	3586.75
1678.732	3461.75
1683.199	3375.75
1687.663	3290.75
1692.122	3215.75
1696.577	3104.75
1701.028	3129.75
1705.474	3137.75
1709.917	3148.75
1714.355	3077.75
1718.788	3037.75
1723.218	3003.75
1727.643	2965.75
1732.064	2936.75
1736.481	2873.75
1740.893	2817.75
1745.301	2768.75
1749.705	2735.75
1754.105	2675.75
1758.501	2643.75
1762.893	2582.75
1767.28	2567.75
1771.663	2557.75
1776.042	2537.75
1780.417	2537.75
1784.787	2555.75
1789.154	2597.75
1793.516	2640.75
1797.874	2672.75
1802.228	2671.75
1806.578	2720.75
1810.924	2697.75
1815.266	2658.75
1819.603	2633.75
1823.937	2595.75
1828.266	2550.75
1832.591	2521.75
1836.913	2503.75
1841.23	2488.75
1845.543	2470.75
1849.852	2468.75
1854.156	2484.75
1858.457	2477.75
1862.754	2486.75
1867.047	2501.75
1871.335	2498.75
1875.62	2507.75
1879.9	2515.75
1884.177	2502.75
1888.449	2490.75
1892.718	2475.75
1896.982	2470.75
1901.243	2475.75
1905.499	2453.75
1909.752	2449.75
1914	2462.75
1918.245	2477.75
1922.485	2485.75
1926.722	2495.75
1930.954	2498.75
1935.183	2524.75
1939.408	2543.75
1943.628	2548.75
1947.845	2552.75
1952.058	2554.75
1956.267	2557.75
1960.472	2513.75
1964.673	2500.75
1968.87	2485.75
1973.063	2449.75
1977.252	2453.75
1981.438	2418.75
1985.619	2434.75
1989.797	2415.75
1993.971	2389.75
1998.14	2414.75
2002.306	2418.75
2006.469	2402.75
2010.627	2411.75
2014.781	2388.75
2018.932	2402.75
2023.078	2397.75
2027.221	2370.75
2031.36	2357.75
2035.495	2323.75
2039.627	2318.75
2043.754	2288.75
2047.878	2301.75
2051.998	2272.75
2056.114	2279.75
2060.226	2273.75
2064.334	2297.75
2068.439	2323.75
2072.54	2316.75
2076.637	2328.75
2080.73	2341.75
2084.82	2335.75
2088.906	2336.75
2092.988	2338.75
2097.066	2331.75
2101.14	2310.75
2105.211	2286.75
2109.278	2285.75
2113.342	2287.75
2117.401	2276.75
2121.457	2270.75
2125.509	2258.75
2129.558	2267.75
2133.602	2248.75
2137.643	2258.75
2141.681	2283.75
2145.714	2244.75
2149.744	2241.75
2153.77	2238.75
2157.793	2207.75
2161.812	2188.75
2165.827	2159.75
2169.838	2132.75
2173.846	2113.75
2177.851	2101.75
2181.851	2063.75
2185.848	2048.75
2189.841	2017.75
2193.831	2009.75
2197.817	2004.75
2201.799	1995.75
2205.778	2007.75
2209.753	1992.75
2213.725	1997.75
2217.693	1995.75
2221.657	1998.75
2225.618	1990.75
2229.575	1975.75
2233.529	1974.75
2237.479	1962.75
2241.425	1958.75
2245.368	1931.75
2249.307	1906.75
2253.243	1891.75
2257.175	1886.75
2261.104	1850.75
2265.029	1858.75
2268.95	1846.75
2272.868	1831.75
2276.783	1820.75
2280.694	1789.75
2284.601	1778.75
2288.505	1761.75
2292.405	1754.75
2296.302	1736.75
2300.195	1717.75
2304.085	1721.75
2307.971	1678.75
2311.854	1653.75
2315.734	1630.75
2319.609	1627.75
2323.482	1592.75
2327.351	1578.75
2331.216	1577.75
2335.078	1557.75
2338.937	1541.75
2342.792	1537.75
2346.643	1540.75
2350.492	1534.75
2354.336	1542.75
2358.178	1531.75
2362.015	1540.75
2365.85	1542.75
2369.681	1551.75
2373.508	1552.75
2377.333	1553.75
2381.153	1549.75
2384.971	1541.75
2388.785	1544.75
2392.595	1523.75
2396.402	1514.75
2400.206	1506.75
2404.007	1508.75
2407.804	1501.75
2411.597	1491.75
2415.388	1476.75
2419.174	1491.75
2422.958	1485.75
2426.738	1484.75
2430.515	1478.75
2434.289	1477.75
2438.059	1455.75
2441.825	1453.75
2445.589	1451.75
2449.349	1440.75
2453.106	1415.75
2456.859	1414.75
2460.61	1401.75
2464.356	1396.75
2468.1	1376.75
2471.84	1383.75
2475.577	1386.75
2479.311	1387.75
2483.041	1379.75
2486.768	1394.75
2490.492	1383.75
2494.213	1380.75
2497.93	1383.75
2501.644	1376.75
2505.355	1380.75
2509.062	1377.75
2512.766	1370.75
2516.467	1364.75
2520.165	1352.75
2523.859	1362.75
2527.551	1346.75
2531.239	1338.75
2534.923	1326.75
2538.605	1321.75
2542.283	1323.75
2545.958	1306.75
2549.63	1315.75
2553.299	1321.75
2556.964	1290.75
2560.626	1310.75
2564.285	1269.75
2567.941	1286.75
2571.594	1275.75
2575.243	1262.75
2578.89	1242.75
2582.533	1245.75
2586.173	1237.75
2589.809	1237.75
2593.443	1232.75
2597.073	1238.75
2600.701	1223.75
2604.325	1231.75
2607.946	1211.75
2611.564	1203.75
2615.178	1225.75
2618.79	1199.75
2622.398	1195.75
2626.004	1191.75
2629.606	1185.75
2633.205	1172.75
2636.801	1172.75
2640.394	1165.75
2643.983	1143.75
2647.57	1133.75
2651.153	1128.75
2654.734	1103.75
2658.311	1106.75
2661.885	1087.75
2665.456	1078.75
2669.025	1072.75
2672.589	1060.75
2676.151	1068.75
2679.71	1043.75
2683.266	1049.75
2686.819	1016.75
2690.368	1018.75
2693.915	994.75
2697.458	983.75
2700.999	985.75
2704.536	965.75
2708.071	959.75
2711.602	950.75
2715.13	935.75
2718.656	933.75
2722.178	927.75
2725.697	917.75
2729.214	916.75
2732.727	936.75
2736.237	929.75
2739.744	934.75
2743.249	933.75
2746.75	943.75
2750.248	951.75
2753.743	939.75
2757.236	949.75
2760.725	946.75
2764.211	945.75
2767.695	926.75
2771.175	931.75
2774.652	938.75
2778.127	923.75
2781.598	910.75
2785.067	918.75
2788.532	902.75
2791.995	899.75
2795.455	892.75
2798.911	900.75
2802.365	898.75
2805.816	892.75
2809.264	880.75
2812.709	880.75
2816.151	865.75
2819.59	867.75
2823.026	873.75
2826.46	866.75
2829.89	838.75
2833.318	851.75
2836.742	848.75
2840.164	861.75
2843.583	852.75
2846.999	860.75
2850.412	845.75
2853.822	840.75
2857.229	851.75
2860.634	845.75
2864.035	864.75
2867.434	862.75
2870.83	854.75
2874.223	854.75
2877.613	856.75
2881	855.75
2884.385	859.75
2887.766	853.75
2891.145	853.75
2894.521	835.75
2897.894	848.75
2901.264	829.75
2904.631	831.75
2907.996	837.75
2911.358	832.75
2914.717	826.75
2918.073	833.75
2921.426	828.75
2924.777	830.75
2928.124	844.75
2931.469	836.75
2934.811	840.75
2938.15	852.75
2941.487	851.75
2944.821	853.75
2948.152	853.75
2951.48	846.75
2954.805	861.75
2958.128	856.75
2961.447	853.75
2964.765	857.75
2968.079	882.75
2971.39	874.75
2974.699	891.75
2978.005	912.75
2981.308	913.75
2984.609	925.75
2987.907	944.75
2991.202	953.75
2994.494	956.75
2997.784	982.75
3001.07	994.75
3004.355	1007.75
3007.636	1035.75
3010.915	1037.75
3014.191	1054.75
3017.464	1057.75
3020.734	1050.75
3024.002	1045.75
3027.267	1065.75
3030.53	1073.75
3033.789	1071.75
3037.046	1081.75
3040.301	1097.75
3043.552	1112.75
3046.801	1122.75
3050.048	1143.75
3053.291	1154.75
3056.532	1173.75
3059.771	1209.75
3063.006	1246.75
3066.239	1241.75
3069.469	1265.75
3072.697	1308.75
3075.922	1342.75
3079.144	1365.75
3082.364	1374.75
3085.581	1394.75
3088.795	1419.75
3092.007	1446.75
3095.216	1470.75
3098.423	1489.75
3101.627	1516.75
3104.828	1543.75
3108.026	1564.75
3111.222	1595.75
3114.416	1617.75
3117.607	1646.75
3120.795	1671.75
3123.98	1707.75
3127.163	1733.75
3130.344	1776.75
3133.521	1796.75
3136.696	1824.75
3139.869	1867.75
3143.039	1877.75
3146.206	1912.75
3149.371	1914.75
3152.533	1937.75
3155.693	1945.75
3158.85	1947.75
3162.005	1959.75
3165.157	1974.75
3168.306	1973.75
3171.453	1971.75
3174.597	1963.75
3177.739	1977.75
3180.878	1962.75
3184.014	1986.75
3187.149	1969.75
3190.28	1974.75
3193.409	1967.75
3196.536	1994.75
3199.659	1970.75
3202.781	2000.75
3205.9	2003.75
3209.016	1980.75
3212.13	1977.75
3215.241	1986.75
3218.35	1974.75
3221.456	1940.75
3224.56	1909.75
3227.661	1907.75
3230.76	1887.75
3233.856	1867.75
3236.95	1851.75
3240.041	1848.75
3243.13	1831.75
3246.216	1819.75
3249.3	1801.75
3252.382	1779.75
3255.46	1803.75
3258.537	1775.75
3261.611	1782.75
3264.682	1767.75
3267.751	1763.75
3270.818	1756.75
3273.882	1761.75
3276.943	1742.75
3280.002	1739.75
3283.059	1694.75
3286.113	1696.75
3289.165	1672.75
3292.214	1641.75
3295.261	1621.75
3298.306	1586.75
3301.348	1564.75
3304.387	1559.75
3307.425	1517.75
3310.459	1481.75
3313.492	1484.75
3316.521	1466.75
3319.549	1439.75
3322.574	1434.75
3325.597	1415.75
3328.617	1420.75
3331.635	1405.75
3334.65	1389.75
3337.663	1369.75
3340.674	1362.75
3343.682	1368.75
3346.688	1357.75
3349.691	1356.75
3352.692	1331.75
3355.691	1337.75
3358.687	1330.75
3361.681	1311.75
3364.673	1308.75
3367.662	1272.75
3370.649	1262.75
3373.633	1244.75
3376.615	1218.75
3379.595	1199.75
3382.572	1186.75
3385.547	1168.75
3388.52	1150.75
3391.49	1144.75
3394.458	1128.75
3397.424	1108.75
3400.387	1095.75
3403.348	1085.75
3406.307	1071.75
3409.263	1069.75
3412.217	1051.75
3415.168	1042.75
3418.118	1028.75
3421.065	1025.75
3424.009	1015.75
3426.951	1004.75
3429.891	982.75
3432.829	967.75
3435.764	934.75
3438.697	921.75
3441.628	899.75
3444.557	879.75
3447.483	861.75
3450.407	844.75
3453.328	803.75
3456.247	796.75
3459.164	778.75
3462.079	746.75
3464.991	724.75
3467.902	697.75
3470.809	679.75
3473.715	655.75
3476.618	633.75
3479.519	627.75
3482.418	607.75
3485.315	593.75
3488.209	580.75
3491.101	563.75
3493.99	537.75
3496.878	544.75
3499.763	521.75
3502.646	498.75
3505.527	489.75
3508.405	464.75
3511.281	447.75
3514.155	439.75
3517.027	403.75
3519.897	397.75
3522.764	373.75
3525.629	362.75
3528.492	343.75
3531.352	327.75
3534.211	308.75
3537.067	287.75
3539.921	270.75
3542.773	258.75
3545.622	238.75
3548.469	238.75
3551.315	210.75
3554.157	200.75
3556.998	194.75
3559.837	179.75
3562.673	174.75
3565.507	165.75
3568.339	164.75
3571.169	151.75
3573.996	139.75
3576.822	125.75
3579.645	119.75
3582.466	108.75
3585.285	102.75
3588.101	86.75
3590.916	80.75
3593.728	69.75
3596.538	66.75
3599.346	51.75
3602.152	43.75
3604.956	33.75
3607.757	28.75
3610.556	23.75
3613.354	15.75
3616.149	9.75
3618.942	3.75
3621.732	-0.25
3624.521	-10.25
3627.307	-7.25
3630.092	-12.25
3632.874	-20.25
3635.654	-20.25
3638.432	-25.25
3641.208	-26.25
3643.982	-35.25
3646.753	-40.25
3649.523	-48.25
3652.29	-48.25
3655.055	-55.25
3657.818	-64.25
3660.579	-54.25
3663.338	-70.25
3666.095	-75.25
3668.849	-75.25
3671.602	-81.25
3674.352	-77.25
3677.101	-86.25
3679.847	-89.25
3682.591	-99.25
3685.333	-103.25
3688.073	-97.25
3690.811	-100.25
3693.547	-112.25
3696.281	-106.25
3699.013	-106.25
3701.742	-110.25
3704.47	-110.25
3707.195	-117.25
3709.919	-122.25
3712.64	-117.25
3715.359	-118.25
3718.076	-127.25
3720.792	-120.25
3723.505	-121.25
3726.216	-127.25
3728.925	-128.25
3731.632	-126.25
3734.336	-132.25
3737.039	-131.25
3739.74	-130.25
3742.439	-133.25
3745.136	-133.25
3747.83	-130.25
3750.523	-133.25
3753.213	-134.25
3755.902	-138.25
3758.589	-132.25
3761.273	-139.25
3763.956	-141.25
3766.636	-139.25
3769.315	-139.25
3771.991	-144.25
3774.665	-147.25
3777.338	-153.25
3780.008	-147.25
3782.677	-146.25
3785.343	-146.25
3788.007	-146.25
3790.67	-143.25
3793.33	-152.25
3795.989	-150.25
3798.645	-156.25
3801.299	-154.25
3803.952	-157.25
3806.602	-160.25
3809.251	-152.25
3811.897	-157.25
3814.542	-159.25
3817.184	-158.25
3819.825	-157.25
3822.463	-162.25
3825.1	-155.25
3827.735	-158.25
3830.367	-158.25
3832.998	-155.25
3835.627	-162.25
3838.253	-161.25
3840.878	-162.25
3843.501	-160.25
3846.122	-157.25
3848.741	-158.25
3851.358	-163.25
3853.973	-162.25
3856.586	-164.25
3859.197	-161.25
3861.806	-162.25
3864.414	-164.25
3867.019	-164.25
3869.622	-166.25
3872.224	-164.25
3874.823	-160.25
3877.421	-160.25
3880.016	-159.25
3882.61	-156.25
3885.202	-155.25
3887.792	-160.25
3890.38	-165.25
3892.966	-166.25
3895.55	-171.25
3898.132	-172.25
3900.713	-171.25
3903.291	-173.25
3905.868	-174.25
3908.442	-169.25
3911.015	-173.25
3913.586	-176.25
3916.155	-169.25
3918.722	-175.25
3921.287	-175.25
3923.85	-174.25
3926.411	-176.25
3928.971	-174.25
3931.528	-175.25
3934.084	-175.25
3936.638	-173.25
3939.19	-175.25
3941.74	-178.25
3944.288	-175.25
3946.834	-174.25
3949.378	-177.25
3951.921	-176.25
3954.462	-174.25
3957	-178.25
3959.537	-178.25
3962.072	-175.25
3964.606	-174.25
3967.137	-174.25
3969.667	-175.25
3972.194	-172.25
3974.72	-175.25
3977.244	-174.25
3979.766	-176.25
3982.286	-170.25
3984.805	-170.25
3987.321	-169.25
3989.836	-171.25
3992.349	-172.25
3994.86	-169.25
3997.369	-173.25
3999.877	-167.25
4002.382	-172.25
4004.886	-174.25
4007.388	-169.25
4009.888	-175.25
4012.386	-172.25
4014.883	-172.25
4017.377	-173.25
4019.87	-171.25
4022.361	-169.25
4024.85	-173.25
4027.338	-176.25
4029.823	-176.25
4032.307	-179.25
4034.789	-180.25
4037.269	-175.25
4039.747	-176.25
4042.224	-177.25
4044.699	-180.25
4047.172	-179.25
4049.643	-174.25
4052.112	-174.25
4054.58	-174.25
4057.046	-176.25
4059.51	-176.25
4061.972	-175.25
4064.432	-172.25
4066.891	-169.25
4069.348	-173.25
4071.803	-172.25
4074.256	-172.25
4076.708	-169.25
4079.158	-174.25
4081.606	-172.25
4084.052	-173.25
4086.497	-171.25
4088.939	-173.25
4091.38	-172.25
4093.819	-172.25
4096.257	-185.25
4098.693	-184.25
4101.127	-185.25
4103.559	-184.25
4105.989	-114.25
4108.418	-112.25
4110.845	-107.25
4113.27	-96.25
4115.694	-85.25
4118.115	-67.25
4120.535	-172.25
4122.954	-176.25
4125.37	-174.25
4127.785	-177.25
4130.198	-173.25
4132.609	-175.25
4135.019	-189.25
4137.427	-183.25
4139.833	-186.25
4142.237	-188.25
