Data from I0.75_T15s_Bsub_water_1-10^2_1_RamanShift_1.txt Node
Date: Mon Mar 13 15:54:06 IST 2017
User: aro
Spectrometer: QEPB0276
Trigger mode: 0
Integration Time (sec): 1.500000E1
Scans to average: 1
Electric dark correction enabled: true
Nonlinearity correction enabled: false
Boxcar width: 0
XAxis mode: Raman Shifts
Number of Pixels in Spectrum: 1044
>>>>>Begin Spectral Data<<<<<
160.701	-76.75
166.742	7.25
172.777	276.25
178.805	1094.25
184.826	3194.25
190.841	6871.25
196.849	11120.25
202.85	13910.25
208.845	14570.25
214.833	14237.25
220.815	13820.25
226.789	13576.25
232.758	13395.25
238.719	13159.25
244.674	12824.25
250.623	12458.25
256.565	12098.25
262.5	11689.25
268.429	11319.25
274.351	11058.25
280.267	10820.25
286.176	10551.25
292.079	10343.25
297.975	10087.25
303.865	9794.25
309.748	9614.25
315.625	9400.25
321.495	9271.25
327.359	9133.25
333.217	8987.25
339.068	8904.25
344.912	8801.25
350.751	8739.25
356.583	8625.25
362.408	8579.25
368.227	8556.25
374.04	8539.25
379.847	8558.25
385.647	8499.25
391.44	8528.25
397.228	8528.25
403.009	8524.25
408.784	8545.25
414.553	8563.25
420.315	8564.25
426.071	8559.25
431.821	8510.25
437.565	8531.25
443.302	8491.25
449.033	8481.25
454.758	8461.25
460.477	8442.25
466.189	8376.25
471.896	8373.25
477.596	8356.25
483.29	8310.25
488.978	8236.25
494.66	8215.25
500.335	8150.25
506.005	8070.25
511.668	7927.25
517.325	7846.25
522.977	7784.25
528.622	7711.25
534.261	7670.25
539.894	7593.25
545.521	7625.25
551.141	7561.25
556.756	7559.25
562.365	7520.25
567.968	7495.25
573.565	7502.25
579.155	7470.25
584.74	7394.25
590.319	7420.25
595.892	7360.25
601.459	7357.25
607.02	7248.25
612.575	7235.25
618.124	7213.25
623.667	7182.25
629.204	7055.25
634.735	7046.25
640.261	7035.25
645.781	6992.25
651.294	6994.25
656.802	6999.25
662.304	6963.25
667.8	6984.25
673.29	6929.25
678.775	6958.25
684.254	6948.25
689.726	6930.25
695.193	6944.25
700.655	6853.25
706.11	6830.25
711.56	6809.25
717.004	6822.25
722.442	6760.25
727.874	6787.25
733.301	6729.25
738.722	6731.25
744.137	6721.25
749.547	6692.25
754.951	6723.25
760.349	6717.25
765.741	6741.25
771.128	6773.25
776.509	6739.25
781.885	6800.25
787.254	6750.25
792.618	6778.25
797.977	6727.25
803.33	6696.25
808.677	6710.25
814.019	6624.25
819.355	6601.25
824.686	6571.25
830.011	6521.25
835.33	6554.25
840.644	6549.25
845.952	6557.25
851.255	6608.25
856.552	6568.25
861.844	6568.25
867.13	6578.25
872.41	6575.25
877.686	6545.25
882.955	6515.25
888.219	6445.25
893.478	6380.25
898.731	6310.25
903.979	6260.25
909.221	6205.25
914.458	6223.25
919.69	6194.25
924.916	6217.25
930.136	6262.25
935.351	6253.25
940.561	6268.25
945.766	6276.25
950.965	6235.25
956.158	6216.25
961.347	6174.25
966.529	6121.25
971.707	6008.25
976.879	5974.25
982.046	5934.25
987.208	5921.25
992.364	5974.25
997.515	6010.25
1002.66	6049.25
1007.801	6088.25
1012.936	6197.25
1018.066	6235.25
1023.19	6281.25
1028.309	6294.25
1033.423	6278.25
1038.532	6240.25
1043.636	6243.25
1048.734	6161.25
1053.827	6090.25
1058.915	6080.25
1063.998	6039.25
1069.075	6057.25
1074.147	6071.25
1079.214	6112.25
1084.276	6175.25
1089.333	6239.25
1094.385	6292.25
1099.431	6330.25
1104.472	6319.25
1109.509	6303.25
1114.54	6212.25
1119.565	6192.25
1124.586	6126.25
1129.602	6086.25
1134.613	6057.25
1139.618	6089.25
1144.619	6053.25
1149.614	6082.25
1154.604	6120.25
1159.589	6130.25
1164.57	6173.25
1169.545	6213.25
1174.515	6181.25
1179.48	6204.25
1184.44	6181.25
1189.395	6114.25
1194.345	6064.25
1199.29	6098.25
1204.23	6115.25
1209.165	6153.25
1214.095	6177.25
1219.021	6208.25
1223.941	6294.25
1228.856	6353.25
1233.766	6358.25
1238.672	6369.25
1243.572	6356.25
1248.467	6367.25
1253.358	6299.25
1258.244	6197.25
1263.124	6121.25
1268	6062.25
1272.871	6023.25
1277.737	5999.25
1282.599	5994.25
1287.455	6003.25
1292.306	6028.25
1297.153	6049.25
1301.995	6140.25
1306.832	6145.25
1311.664	6202.25
1316.491	6204.25
1321.314	6171.25
1326.132	6137.25
1330.945	6056.25
1335.753	5966.25
1340.556	5865.25
1345.354	5794.25
1350.148	5689.25
1354.937	5676.25
1359.722	5703.25
1364.501	5759.25
1369.276	5878.25
1374.046	5939.25
1378.811	5951.25
1383.572	6014.25
1388.327	5936.25
1393.079	5883.25
1397.825	5829.25
1402.567	5722.25
1407.304	5687.25
1412.036	5635.25
1416.764	5630.25
1421.487	5606.25
1426.205	5652.25
1430.919	5679.25
1435.628	5743.25
1440.333	5782.25
1445.032	5843.25
1449.727	5844.25
1454.418	5848.25
1459.104	5887.25
1463.785	5796.25
1468.462	5781.25
1473.134	5705.25
1477.802	5657.25
1482.465	5641.25
1487.123	5628.25
1491.777	5661.25
1496.426	5710.25
1501.071	5772.25
1505.711	5819.25
1510.347	5886.25
1514.978	5972.25
1519.604	6041.25
1524.226	6054.25
1528.844	6085.25
1533.457	6072.25
1538.065	6061.25
1542.669	6057.25
1547.269	6044.25
1551.864	6006.25
1556.454	6016.25
1561.041	6036.25
1565.622	6046.25
1570.199	6057.25
1574.772	6152.25
1579.34	6188.25
1583.904	6218.25
1588.464	6262.25
1593.019	6280.25
1597.569	6268.25
1602.115	6306.25
1606.657	6274.25
1611.195	6243.25
1615.728	6244.25
1620.256	6272.25
1624.78	6307.25
1629.3	6358.25
1633.816	6394.25
1638.327	6442.25
1642.834	6539.25
1647.336	6573.25
1651.834	6604.25
1656.328	6626.25
1660.817	6625.25
1665.302	6546.25
1669.783	6480.25
1674.259	6378.25
1678.732	6269.25
1683.199	6095.25
1687.663	5910.25
1692.122	5767.25
1696.577	5667.25
1701.028	5652.25
1705.474	5619.25
1709.917	5575.25
1714.355	5537.25
1718.788	5463.25
1723.218	5408.25
1727.643	5376.25
1732.064	5281.25
1736.481	5208.25
1740.893	5136.25
1745.301	5020.25
1749.705	4951.25
1754.105	4859.25
1758.501	4777.25
1762.893	4730.25
1767.28	4705.25
1771.663	4634.25
1776.042	4639.25
1780.417	4666.25
1784.787	4669.25
1789.154	4742.25
1793.516	4776.25
1797.874	4887.25
1802.228	4889.25
1806.578	4876.25
1810.924	4870.25
1815.266	4795.25
1819.603	4786.25
1823.937	4695.25
1828.266	4640.25
1832.591	4573.25
1836.913	4533.25
1841.23	4526.25
1845.543	4509.25
1849.852	4529.25
1854.156	4509.25
1858.457	4522.25
1862.754	4525.25
1867.047	4545.25
1871.335	4568.25
1875.62	4590.25
1879.9	4576.25
1884.177	4570.25
1888.449	4534.25
1892.718	4519.25
1896.982	4522.25
1901.243	4496.25
1905.499	4491.25
1909.752	4478.25
1914	4490.25
1918.245	4485.25
1922.485	4529.25
1926.722	4561.25
1930.954	4550.25
1935.183	4588.25
1939.408	4595.25
1943.628	4611.25
1947.845	4630.25
1952.058	4651.25
1956.267	4648.25
1960.472	4591.25
1964.673	4557.25
1968.87	4509.25
1973.063	4490.25
1977.252	4448.25
1981.438	4436.25
1985.619	4394.25
1989.797	4382.25
1993.971	4382.25
1998.14	4385.25
2002.306	4383.25
2006.469	4411.25
2010.627	4404.25
2014.781	4381.25
2018.932	4366.25
2023.078	4363.25
2027.221	4337.25
2031.36	4284.25
2035.495	4263.25
2039.627	4227.25
2043.754	4169.25
2047.878	4175.25
2051.998	4162.25
2056.114	4170.25
2060.226	4178.25
2064.334	4179.25
2068.439	4167.25
2072.54	4213.25
2076.637	4229.25
2080.73	4252.25
2084.82	4234.25
2088.906	4235.25
2092.988	4237.25
2097.066	4240.25
2101.14	4172.25
2105.211	4201.25
2109.278	4175.25
2113.342	4144.25
2117.401	4146.25
2121.457	4133.25
2125.509	4127.25
2129.558	4136.25
2133.602	4114.25
2137.643	4092.25
2141.681	4097.25
2145.714	4092.25
2149.744	4052.25
2153.77	4070.25
2157.793	4014.25
2161.812	3989.25
2165.827	3943.25
2169.838	3895.25
2173.846	3874.25
2177.851	3798.25
2181.851	3749.25
2185.848	3718.25
2189.841	3696.25
2193.831	3683.25
2197.817	3662.25
2201.799	3662.25
2205.778	3665.25
2209.753	3636.25
2213.725	3660.25
2217.693	3653.25
2221.657	3648.25
2225.618	3671.25
2229.575	3650.25
2233.529	3628.25
2237.479	3640.25
2241.425	3598.25
2245.368	3548.25
2249.307	3503.25
2253.243	3480.25
2257.175	3438.25
2261.104	3418.25
2265.029	3398.25
2268.95	3369.25
2272.868	3351.25
2276.783	3314.25
2280.694	3283.25
2284.601	3253.25
2288.505	3242.25
2292.405	3199.25
2296.302	3191.25
2300.195	3155.25
2304.085	3132.25
2307.971	3073.25
2311.854	3051.25
2315.734	2996.25
2319.609	2960.25
2323.482	2935.25
2327.351	2883.25
2331.216	2885.25
2335.078	2851.25
2338.937	2848.25
2342.792	2846.25
2346.643	2827.25
2350.492	2818.25
2354.336	2830.25
2358.178	2817.25
2362.015	2851.25
2365.85	2852.25
2369.681	2838.25
2373.508	2850.25
2377.333	2831.25
2381.153	2839.25
2384.971	2856.25
2388.785	2834.25
2392.595	2814.25
2396.402	2800.25
2400.206	2786.25
2404.007	2756.25
2407.804	2754.25
2411.597	2755.25
2415.388	2729.25
2419.174	2755.25
2422.958	2718.25
2426.738	2725.25
2430.515	2700.25
2434.289	2702.25
2438.059	2697.25
2441.825	2700.25
2445.589	2660.25
2449.349	2662.25
2453.106	2644.25
2456.859	2612.25
2460.61	2599.25
2464.356	2540.25
2468.1	2550.25
2471.84	2532.25
2475.577	2537.25
2479.311	2534.25
2483.041	2544.25
2486.768	2536.25
2490.492	2541.25
2494.213	2526.25
2497.93	2514.25
2501.644	2517.25
2505.355	2533.25
2509.062	2527.25
2512.766	2527.25
2516.467	2514.25
2520.165	2499.25
2523.859	2485.25
2527.551	2470.25
2531.239	2462.25
2534.923	2443.25
2538.605	2431.25
2542.283	2406.25
2545.958	2414.25
2549.63	2402.25
2553.299	2398.25
2556.964	2397.25
2560.626	2380.25
2564.285	2365.25
2567.941	2353.25
2571.594	2343.25
2575.243	2337.25
2578.89	2320.25
2582.533	2312.25
2586.173	2300.25
2589.809	2279.25
2593.443	2282.25
2597.073	2260.25
2600.701	2247.25
2604.325	2263.25
2607.946	2222.25
2611.564	2242.25
2615.178	2232.25
2618.79	2243.25
2622.398	2237.25
2626.004	2199.25
2629.606	2195.25
2633.205	2147.25
2636.801	2151.25
2640.394	2128.25
2643.983	2114.25
2647.57	2070.25
2651.153	2059.25
2654.734	2031.25
2658.311	2044.25
2661.885	2002.25
2665.456	1993.25
2669.025	1983.25
2672.589	1965.25
2676.151	1963.25
2679.71	1955.25
2683.266	1911.25
2686.819	1906.25
2690.368	1860.25
2693.915	1854.25
2697.458	1843.25
2700.999	1816.25
2704.536	1792.25
2708.071	1795.25
2711.602	1762.25
2715.13	1744.25
2718.656	1734.25
2722.178	1722.25
2725.697	1725.25
2729.214	1713.25
2732.727	1726.25
2736.237	1733.25
2739.744	1730.25
2743.249	1716.25
2746.75	1745.25
2750.248	1741.25
2753.743	1768.25
2757.236	1742.25
2760.725	1753.25
2764.211	1737.25
2767.695	1710.25
2771.175	1704.25
2774.652	1703.25
2778.127	1675.25
2781.598	1684.25
2785.067	1660.25
2788.532	1658.25
2791.995	1648.25
2795.455	1640.25
2798.911	1641.25
2802.365	1643.25
2805.816	1641.25
2809.264	1615.25
2812.709	1612.25
2816.151	1619.25
2819.59	1601.25
2823.026	1594.25
2826.46	1595.25
2829.89	1589.25
2833.318	1574.25
2836.742	1578.25
2840.164	1570.25
2843.583	1571.25
2846.999	1562.25
2850.412	1545.25
2853.822	1570.25
2857.229	1566.25
2860.634	1580.25
2864.035	1577.25
2867.434	1602.25
2870.83	1584.25
2874.223	1592.25
2877.613	1583.25
2881	1592.25
2884.385	1591.25
2887.766	1578.25
2891.145	1558.25
2894.521	1548.25
2897.894	1546.25
2901.264	1528.25
2904.631	1540.25
2907.996	1522.25
2911.358	1510.25
2914.717	1506.25
2918.073	1526.25
2921.426	1505.25
2924.777	1514.25
2928.124	1521.25
2931.469	1529.25
2934.811	1526.25
2938.15	1551.25
2941.487	1574.25
2944.821	1550.25
2948.152	1554.25
2951.48	1557.25
2954.805	1547.25
2958.128	1540.25
2961.447	1556.25
2964.765	1566.25
2968.079	1575.25
2971.39	1571.25
2974.699	1598.25
2978.005	1608.25
2981.308	1634.25
2984.609	1634.25
2987.907	1668.25
2991.202	1706.25
2994.494	1705.25
2997.784	1741.25
3001.07	1758.25
3004.355	1805.25
3007.636	1836.25
3010.915	1849.25
3014.191	1852.25
3017.464	1860.25
3020.734	1893.25
3024.002	1874.25
3027.267	1882.25
3030.53	1894.25
3033.789	1901.25
3037.046	1943.25
3040.301	1970.25
3043.552	1970.25
3046.801	2010.25
3050.048	2042.25
3053.291	2059.25
3056.532	2112.25
3059.771	2154.25
3063.006	2173.25
3066.239	2221.25
3069.469	2282.25
3072.697	2326.25
3075.922	2343.25
3079.144	2377.25
3082.364	2453.25
3085.581	2489.25
3088.795	2490.25
3092.007	2532.25
3095.216	2569.25
3098.423	2605.25
3101.627	2654.25
3104.828	2699.25
3108.026	2732.25
3111.222	2778.25
3114.416	2816.25
3117.607	2879.25
3120.795	2923.25
3123.98	2954.25
3127.163	3044.25
3130.344	3084.25
3133.521	3144.25
3136.696	3196.25
3139.869	3244.25
3143.039	3287.25
3146.206	3311.25
3149.371	3336.25
3152.533	3375.25
3155.693	3368.25
3158.85	3387.25
3162.005	3410.25
3165.157	3432.25
3168.306	3436.25
3171.453	3409.25
3174.597	3433.25
3177.739	3417.25
3180.878	3422.25
3184.014	3405.25
3187.149	3426.25
3190.28	3448.25
3193.409	3453.25
3196.536	3467.25
3199.659	3464.25
3202.781	3479.25
3205.9	3479.25
3209.016	3450.25
3212.13	3462.25
3215.241	3443.25
3218.35	3427.25
3221.456	3371.25
3224.56	3325.25
3227.661	3335.25
3230.76	3284.25
3233.856	3242.25
3236.95	3212.25
3240.041	3210.25
3243.13	3201.25
3246.216	3158.25
3249.3	3155.25
3252.382	3139.25
3255.46	3104.25
3258.537	3099.25
3261.611	3069.25
3264.682	3075.25
3267.751	3096.25
3270.818	3061.25
3273.882	3084.25
3276.943	3034.25
3280.002	3006.25
3283.059	2955.25
3286.113	2945.25
3289.165	2898.25
3292.214	2874.25
3295.261	2795.25
3298.306	2772.25
3301.348	2734.25
3304.387	2698.25
3307.425	2653.25
3310.459	2631.25
3313.492	2574.25
3316.521	2548.25
3319.549	2531.25
3322.574	2493.25
3325.597	2479.25
3328.617	2447.25
3331.635	2414.25
3334.65	2417.25
3337.663	2406.25
3340.674	2393.25
3343.682	2385.25
3346.688	2397.25
3349.691	2373.25
3352.692	2347.25
3355.691	2357.25
3358.687	2291.25
3361.681	2297.25
3364.673	2271.25
3367.662	2223.25
3370.649	2192.25
3373.633	2163.25
3376.615	2146.25
3379.595	2107.25
3382.572	2074.25
3385.547	2046.25
3388.52	2022.25
3391.49	1994.25
3394.458	1977.25
3397.424	1942.25
3400.387	1937.25
3403.348	1912.25
3406.307	1875.25
3409.263	1859.25
3412.217	1853.25
3415.168	1825.25
3418.118	1808.25
3421.065	1799.25
3424.009	1750.25
3426.951	1726.25
3429.891	1701.25
3432.829	1680.25
3435.764	1640.25
3438.697	1627.25
3441.628	1577.25
3444.557	1527.25
3447.483	1506.25
3450.407	1447.25
3453.328	1420.25
3456.247	1394.25
3459.164	1332.25
3462.079	1294.25
3464.991	1257.25
3467.902	1227.25
3470.809	1175.25
3473.715	1161.25
3476.618	1122.25
3479.519	1101.25
3482.418	1050.25
3485.315	1040.25
3488.209	993.25
3491.101	979.25
3493.99	952.25
3496.878	933.25
3499.763	897.25
3502.646	892.25
3505.527	849.25
3508.405	825.25
3511.281	800.25
3514.155	763.25
3517.027	731.25
3519.897	691.25
3522.764	663.25
3525.629	630.25
3528.492	602.25
3531.352	566.25
3534.211	532.25
3537.067	514.25
3539.921	473.25
3542.773	446.25
3545.622	417.25
3548.469	401.25
3551.315	380.25
3554.157	359.25
3556.998	333.25
3559.837	316.25
3562.673	303.25
3565.507	298.25
3568.339	259.25
3571.169	240.25
3573.996	227.25
3576.822	205.25
3579.645	203.25
3582.466	182.25
3585.285	167.25
3588.101	147.25
3590.916	133.25
3593.728	123.25
3596.538	108.25
3599.346	91.25
3602.152	66.25
3604.956	65.25
3607.757	57.25
3610.556	34.25
3613.354	28.25
3616.149	18.25
3618.942	6.25
3621.732	4.25
3624.521	-11.75
3627.307	-22.75
3630.092	-23.75
3632.874	-35.75
3635.654	-39.75
3638.432	-42.75
3641.208	-54.75
3643.982	-54.75
3646.753	-66.75
3649.523	-82.75
3652.29	-88.75
3655.055	-87.75
3657.818	-98.75
3660.579	-112.75
3663.338	-119.75
3666.095	-121.75
3668.849	-132.75
3671.602	-141.75
3674.352	-152.75
3677.101	-151.75
3679.847	-158.75
3682.591	-164.75
3685.333	-172.75
3688.073	-175.75
3690.811	-178.75
3693.547	-182.75
3696.281	-183.75
3699.013	-193.75
3701.742	-191.75
3704.47	-198.75
3707.195	-201.75
3709.919	-211.75
3712.64	-206.75
3715.359	-221.75
3718.076	-215.75
3720.792	-218.75
3723.505	-222.75
3726.216	-227.75
3728.925	-231.75
3731.632	-228.75
3734.336	-237.75
3737.039	-234.75
3739.74	-239.75
3742.439	-236.75
3745.136	-237.75
3747.83	-244.75
3750.523	-242.75
3753.213	-244.75
3755.902	-245.75
3758.589	-244.75
3761.273	-247.75
3763.956	-253.75
3766.636	-247.75
3769.315	-253.75
3771.991	-253.75
3774.665	-255.75
3777.338	-255.75
3780.008	-256.75
3782.677	-256.75
3785.343	-257.75
3788.007	-257.75
3790.67	-261.75
3793.33	-257.75
3795.989	-262.75
3798.645	-267.75
3801.299	-272.75
3803.952	-269.75
3806.602	-272.75
3809.251	-270.75
3811.897	-273.75
3814.542	-277.75
3817.184	-274.75
3819.825	-274.75
3822.463	-280.75
3825.1	-273.75
3827.735	-279.75
3830.367	-285.75
3832.998	-285.75
3835.627	-281.75
3838.253	-285.75
3840.878	-278.75
3843.501	-285.75
3846.122	-284.75
3848.741	-295.75
3851.358	-284.75
3853.973	-293.75
3856.586	-292.75
3859.197	-289.75
3861.806	-293.75
3864.414	-292.75
3867.019	-294.75
3869.622	-295.75
3872.224	-294.75
3874.823	-289.75
3877.421	-283.75
3880.016	-282.75
3882.61	-273.75
3885.202	-279.75
3887.792	-284.75
3890.38	-288.75
3892.966	-292.75
3895.55	-297.75
3898.132	-299.75
3900.713	-297.75
3903.291	-299.75
3905.868	-299.75
3908.442	-300.75
3911.015	-305.75
3913.586	-308.75
3916.155	-307.75
3918.722	-299.75
3921.287	-304.75
3923.85	-302.75
3926.411	-302.75
3928.971	-309.75
3931.528	-302.75
3934.084	-307.75
3936.638	-306.75
3939.19	-305.75
3941.74	-308.75
3944.288	-309.75
3946.834	-308.75
3949.378	-305.75
3951.921	-311.75
3954.462	-311.75
3957	-309.75
3959.537	-312.75
3962.072	-306.75
3964.606	-306.75
3967.137	-307.75
3969.667	-308.75
3972.194	-306.75
3974.72	-306.75
3977.244	-304.75
3979.766	-307.75
3982.286	-306.75
3984.805	-301.75
3987.321	-303.75
3989.836	-306.75
3992.349	-306.75
3994.86	-304.75
3997.369	-303.75
3999.877	-308.75
4002.382	-306.75
4004.886	-299.75
4007.388	-307.75
4009.888	-302.75
4012.386	-301.75
4014.883	-304.75
4017.377	-303.75
4019.87	-305.75
4022.361	-302.75
4024.85	-299.75
4027.338	-306.75
4029.823	-310.75
4032.307	-307.75
4034.789	-304.75
4037.269	-305.75
4039.747	-305.75
4042.224	-307.75
4044.699	-305.75
4047.172	-306.75
4049.643	-306.75
4052.112	-309.75
4054.58	-305.75
4057.046	-306.75
4059.51	-308.75
4061.972	-307.75
4064.432	-303.75
4066.891	-308.75
4069.348	-307.75
4071.803	-305.75
4074.256	-307.75
4076.708	-302.75
4079.158	-307.75
4081.606	-310.75
4084.052	-309.75
4086.497	-309.75
4088.939	-311.75
4091.38	-311.75
4093.819	-307.75
4096.257	-328.75
4098.693	-329.75
4101.127	-327.75
4103.559	-323.75
4105.989	-205.75
4108.418	-204.75
4110.845	-190.75
4113.27	-170.75
4115.694	-145.75
4118.115	-128.75
4120.535	-310.75
4122.954	-308.75
4125.37	-306.75
4127.785	-305.75
4130.198	-308.75
4132.609	-307.75
4135.019	-323.75
4137.427	-326.75
4139.833	-321.75
4142.237	-328.75
