Data from I0.75_T5s_Bsub_water_1-10^2_2_RamanShift_1.txt Node
Date: Mon Mar 13 15:12:37 IST 2017
User: aro
Spectrometer: QEPB0276
Trigger mode: 0
Integration Time (sec): 5.000000E0
Scans to average: 1
Electric dark correction enabled: true
Nonlinearity correction enabled: false
Boxcar width: 0
XAxis mode: Raman Shifts
Number of Pixels in Spectrum: 1044
>>>>>Begin Spectral Data<<<<<
160.701	-28.75
166.742	5.25
172.777	87.25
178.805	352.25
184.826	1026.25
190.841	2192.25
196.849	3518.25
202.85	4410.25
208.845	4642.25
214.833	4509.25
220.815	4373.25
226.789	4323.25
232.758	4253.25
238.719	4199.25
244.674	4056.25
250.623	3943.25
256.565	3830.25
262.5	3721.25
268.429	3592.25
274.351	3507.25
280.267	3405.25
286.176	3341.25
292.079	3266.25
297.975	3185.25
303.865	3113.25
309.748	3041.25
315.625	2972.25
321.495	2927.25
327.359	2846.25
333.217	2857.25
339.068	2801.25
344.912	2779.25
350.751	2758.25
356.583	2724.25
362.408	2714.25
368.227	2697.25
374.04	2699.25
379.847	2677.25
385.647	2696.25
391.44	2691.25
397.228	2718.25
403.009	2669.25
408.784	2693.25
414.553	2692.25
420.315	2700.25
426.071	2689.25
431.821	2683.25
437.565	2674.25
443.302	2685.25
449.033	2679.25
454.758	2683.25
460.477	2663.25
466.189	2646.25
471.896	2644.25
477.596	2642.25
483.29	2616.25
488.978	2588.25
494.66	2595.25
500.335	2584.25
506.005	2543.25
511.668	2515.25
517.325	2497.25
522.977	2462.25
528.622	2443.25
534.261	2411.25
539.894	2406.25
545.521	2394.25
551.141	2391.25
556.756	2377.25
562.365	2377.25
567.968	2383.25
573.565	2370.25
579.155	2377.25
584.74	2349.25
590.319	2333.25
595.892	2331.25
601.459	2305.25
607.02	2315.25
612.575	2299.25
618.124	2270.25
623.667	2261.25
629.204	2260.25
634.735	2245.25
640.261	2226.25
645.781	2222.25
651.294	2218.25
656.802	2209.25
662.304	2203.25
667.8	2208.25
673.29	2204.25
678.775	2199.25
684.254	2192.25
689.726	2185.25
695.193	2184.25
700.655	2171.25
706.11	2151.25
711.56	2154.25
717.004	2137.25
722.442	2150.25
727.874	2143.25
733.301	2153.25
738.722	2130.25
744.137	2114.25
749.547	2112.25
754.951	2146.25
760.349	2138.25
765.741	2136.25
771.128	2140.25
776.509	2136.25
781.885	2136.25
787.254	2135.25
792.618	2155.25
797.977	2138.25
803.33	2113.25
808.677	2136.25
814.019	2098.25
819.355	2078.25
824.686	2092.25
830.011	2064.25
835.33	2070.25
840.644	2079.25
845.952	2070.25
851.255	2061.25
856.552	2084.25
861.844	2065.25
867.13	2084.25
872.41	2083.25
877.686	2072.25
882.955	2061.25
888.219	2038.25
893.478	2004.25
898.731	1995.25
903.979	1966.25
909.221	1953.25
914.458	1955.25
919.69	1959.25
924.916	1978.25
930.136	1987.25
935.351	1984.25
940.561	1981.25
945.766	1989.25
950.965	1980.25
956.158	1976.25
961.347	1959.25
966.529	1949.25
971.707	1915.25
976.879	1891.25
982.046	1877.25
987.208	1879.25
992.364	1874.25
997.515	1901.25
1002.66	1906.25
1007.801	1948.25
1012.936	1955.25
1018.066	1971.25
1023.19	1987.25
1028.309	1982.25
1033.423	1971.25
1038.532	1975.25
1043.636	1966.25
1048.734	1943.25
1053.827	1910.25
1058.915	1924.25
1063.998	1922.25
1069.075	1927.25
1074.147	1918.25
1079.214	1922.25
1084.276	1940.25
1089.333	1959.25
1094.385	1989.25
1099.431	2003.25
1104.472	1998.25
1109.509	2006.25
1114.54	1967.25
1119.565	1962.25
1124.586	1944.25
1129.602	1924.25
1134.613	1904.25
1139.618	1915.25
1144.619	1911.25
1149.614	1907.25
1154.604	1943.25
1159.589	1941.25
1164.57	1953.25
1169.545	1956.25
1174.515	1956.25
1179.48	1961.25
1184.44	1957.25
1189.395	1949.25
1194.345	1931.25
1199.29	1932.25
1204.23	1937.25
1209.165	1944.25
1214.095	1964.25
1219.021	1962.25
1223.941	2004.25
1228.856	2004.25
1233.766	2004.25
1238.672	2021.25
1243.572	2027.25
1248.467	2008.25
1253.358	1990.25
1258.244	1968.25
1263.124	1946.25
1268	1919.25
1272.871	1901.25
1277.737	1901.25
1282.599	1881.25
1287.455	1876.25
1292.306	1917.25
1297.153	1903.25
1301.995	1953.25
1306.832	1945.25
1311.664	1945.25
1316.491	1953.25
1321.314	1949.25
1326.132	1938.25
1330.945	1901.25
1335.753	1867.25
1340.556	1858.25
1345.354	1840.25
1350.148	1823.25
1354.937	1801.25
1359.722	1814.25
1364.501	1849.25
1369.276	1840.25
1374.046	1867.25
1378.811	1889.25
1383.572	1872.25
1388.327	1857.25
1393.079	1858.25
1397.825	1833.25
1402.567	1811.25
1407.304	1805.25
1412.036	1780.25
1416.764	1775.25
1421.487	1756.25
1426.205	1791.25
1430.919	1790.25
1435.628	1797.25
1440.333	1832.25
1445.032	1841.25
1449.727	1843.25
1454.418	1862.25
1459.104	1863.25
1463.785	1845.25
1468.462	1809.25
1473.134	1815.25
1477.802	1810.25
1482.465	1783.25
1487.123	1785.25
1491.777	1794.25
1496.426	1801.25
1501.071	1829.25
1505.711	1843.25
1510.347	1852.25
1514.978	1889.25
1519.604	1890.25
1524.226	1914.25
1528.844	1920.25
1533.457	1903.25
1538.065	1918.25
1542.669	1914.25
1547.269	1906.25
1551.864	1903.25
1556.454	1895.25
1561.041	1904.25
1565.622	1894.25
1570.199	1898.25
1574.772	1935.25
1579.34	1932.25
1583.904	1944.25
1588.464	1980.25
1593.019	1976.25
1597.569	1984.25
1602.115	1990.25
1606.657	1981.25
1611.195	1979.25
1615.728	1981.25
1620.256	1975.25
1624.78	2001.25
1629.3	2010.25
1633.816	2015.25
1638.327	2053.25
1642.834	2067.25
1647.336	2066.25
1651.834	2104.25
1656.328	2104.25
1660.817	2098.25
1665.302	2098.25
1669.783	2065.25
1674.259	2026.25
1678.732	1963.25
1683.199	1917.25
1687.663	1881.25
1692.122	1814.25
1696.577	1798.25
1701.028	1784.25
1705.474	1766.25
1709.917	1764.25
1714.355	1744.25
1718.788	1716.25
1723.218	1695.25
1727.643	1690.25
1732.064	1682.25
1736.481	1657.25
1740.893	1610.25
1745.301	1584.25
1749.705	1562.25
1754.105	1542.25
1758.501	1503.25
1762.893	1484.25
1767.28	1493.25
1771.663	1459.25
1776.042	1474.25
1780.417	1470.25
1784.787	1480.25
1789.154	1504.25
1793.516	1523.25
1797.874	1522.25
1802.228	1532.25
1806.578	1547.25
1810.924	1530.25
1815.266	1515.25
1819.603	1500.25
1823.937	1493.25
1828.266	1464.25
1832.591	1446.25
1836.913	1437.25
1841.23	1427.25
1845.543	1417.25
1849.852	1418.25
1854.156	1415.25
1858.457	1407.25
1862.754	1424.25
1867.047	1441.25
1871.335	1446.25
1875.62	1449.25
1879.9	1452.25
1884.177	1437.25
1888.449	1418.25
1892.718	1434.25
1896.982	1432.25
1901.243	1430.25
1905.499	1424.25
1909.752	1430.25
1914	1437.25
1918.245	1428.25
1922.485	1422.25
1926.722	1440.25
1930.954	1448.25
1935.183	1445.25
1939.408	1446.25
1943.628	1459.25
1947.845	1467.25
1952.058	1465.25
1956.267	1454.25
1960.472	1439.25
1964.673	1440.25
1968.87	1424.25
1973.063	1408.25
1977.252	1403.25
1981.438	1386.25
1985.619	1374.25
1989.797	1374.25
1993.971	1379.25
1998.14	1381.25
2002.306	1389.25
2006.469	1387.25
2010.627	1371.25
2014.781	1408.25
2018.932	1371.25
2023.078	1380.25
2027.221	1362.25
2031.36	1363.25
2035.495	1348.25
2039.627	1343.25
2043.754	1324.25
2047.878	1317.25
2051.998	1307.25
2056.114	1321.25
2060.226	1317.25
2064.334	1326.25
2068.439	1327.25
2072.54	1344.25
2076.637	1334.25
2080.73	1331.25
2084.82	1347.25
2088.906	1350.25
2092.988	1352.25
2097.066	1341.25
2101.14	1343.25
2105.211	1326.25
2109.278	1308.25
2113.342	1319.25
2117.401	1308.25
2121.457	1305.25
2125.509	1308.25
2129.558	1298.25
2133.602	1298.25
2137.643	1299.25
2141.681	1300.25
2145.714	1273.25
2149.744	1298.25
2153.77	1266.25
2157.793	1266.25
2161.812	1259.25
2165.827	1233.25
2169.838	1238.25
2173.846	1216.25
2177.851	1198.25
2181.851	1176.25
2185.848	1185.25
2189.841	1163.25
2193.831	1160.25
2197.817	1167.25
2201.799	1158.25
2205.778	1156.25
2209.753	1150.25
2213.725	1149.25
2217.693	1144.25
2221.657	1141.25
2225.618	1154.25
2229.575	1148.25
2233.529	1148.25
2237.479	1139.25
2241.425	1132.25
2245.368	1117.25
2249.307	1096.25
2253.243	1090.25
2257.175	1086.25
2261.104	1087.25
2265.029	1057.25
2268.95	1052.25
2272.868	1045.25
2276.783	1032.25
2280.694	1029.25
2284.601	1028.25
2288.505	1021.25
2292.405	1010.25
2296.302	1000.25
2300.195	987.25
2304.085	996.25
2307.971	977.25
2311.854	951.25
2315.734	937.25
2319.609	943.25
2323.482	915.25
2327.351	911.25
2331.216	918.25
2335.078	892.25
2338.937	911.25
2342.792	888.25
2346.643	885.25
2350.492	885.25
2354.336	893.25
2358.178	886.25
2362.015	902.25
2365.85	913.25
2369.681	902.25
2373.508	902.25
2377.333	905.25
2381.153	893.25
2384.971	895.25
2388.785	882.25
2392.595	885.25
2396.402	878.25
2400.206	880.25
2404.007	870.25
2407.804	872.25
2411.597	862.25
2415.388	860.25
2419.174	852.25
2422.958	859.25
2426.738	852.25
2430.515	848.25
2434.289	845.25
2438.059	842.25
2441.825	838.25
2445.589	843.25
2449.349	825.25
2453.106	816.25
2456.859	816.25
2460.61	807.25
2464.356	810.25
2468.1	805.25
2471.84	801.25
2475.577	788.25
2479.311	807.25
2483.041	789.25
2486.768	806.25
2490.492	807.25
2494.213	781.25
2497.93	797.25
2501.644	808.25
2505.355	801.25
2509.062	800.25
2512.766	799.25
2516.467	797.25
2520.165	792.25
2523.859	785.25
2527.551	784.25
2531.239	780.25
2534.923	770.25
2538.605	773.25
2542.283	772.25
2545.958	753.25
2549.63	747.25
2553.299	764.25
2556.964	757.25
2560.626	741.25
2564.285	738.25
2567.941	739.25
2571.594	727.25
2575.243	731.25
2578.89	725.25
2582.533	712.25
2586.173	723.25
2589.809	707.25
2593.443	710.25
2597.073	713.25
2600.701	703.25
2604.325	703.25
2607.946	696.25
2611.564	714.25
2615.178	698.25
2618.79	693.25
2622.398	698.25
2626.004	688.25
2629.606	687.25
2633.205	682.25
2636.801	681.25
2640.394	673.25
2643.983	661.25
2647.57	657.25
2651.153	643.25
2654.734	642.25
2658.311	633.25
2661.885	641.25
2665.456	620.25
2669.025	617.25
2672.589	622.25
2676.151	610.25
2679.71	598.25
2683.266	595.25
2686.819	608.25
2690.368	599.25
2693.915	575.25
2697.458	576.25
2700.999	577.25
2704.536	566.25
2708.071	558.25
2711.602	558.25
2715.13	547.25
2718.656	543.25
2722.178	547.25
2725.697	532.25
2729.214	532.25
2732.727	548.25
2736.237	538.25
2739.744	543.25
2743.249	537.25
2746.75	542.25
2750.248	544.25
2753.743	553.25
2757.236	548.25
2760.725	546.25
2764.211	540.25
2767.695	538.25
2771.175	538.25
2774.652	537.25
2778.127	536.25
2781.598	533.25
2785.067	527.25
2788.532	525.25
2791.995	521.25
2795.455	521.25
2798.911	517.25
2802.365	514.25
2805.816	513.25
2809.264	507.25
2812.709	510.25
2816.151	503.25
2819.59	506.25
2823.026	498.25
2826.46	489.25
2829.89	503.25
2833.318	485.25
2836.742	486.25
2840.164	489.25
2843.583	494.25
2846.999	489.25
2850.412	502.25
2853.822	493.25
2857.229	481.25
2860.634	490.25
2864.035	494.25
2867.434	505.25
2870.83	507.25
2874.223	502.25
2877.613	501.25
2881	495.25
2884.385	487.25
2887.766	494.25
2891.145	486.25
2894.521	487.25
2897.894	480.25
2901.264	478.25
2904.631	479.25
2907.996	477.25
2911.358	474.25
2914.717	483.25
2918.073	476.25
2921.426	468.25
2924.777	473.25
2928.124	470.25
2931.469	479.25
2934.811	482.25
2938.15	490.25
2941.487	483.25
2944.821	491.25
2948.152	483.25
2951.48	481.25
2954.805	479.25
2958.128	485.25
2961.447	486.25
2964.765	491.25
2968.079	492.25
2971.39	512.25
2974.699	501.25
2978.005	517.25
2981.308	509.25
2984.609	521.25
2987.907	527.25
2991.202	547.25
2994.494	545.25
2997.784	559.25
3001.07	577.25
3004.355	562.25
3007.636	575.25
3010.915	574.25
3014.191	580.25
3017.464	585.25
3020.734	587.25
3024.002	596.25
3027.267	593.25
3030.53	598.25
3033.789	596.25
3037.046	609.25
3040.301	606.25
3043.552	623.25
3046.801	628.25
3050.048	640.25
3053.291	654.25
3056.532	661.25
3059.771	674.25
3063.006	691.25
3066.239	706.25
3069.469	709.25
3072.697	740.25
3075.922	747.25
3079.144	749.25
3082.364	766.25
3085.581	775.25
3088.795	792.25
3092.007	805.25
3095.216	821.25
3098.423	837.25
3101.627	847.25
3104.828	853.25
3108.026	868.25
3111.222	880.25
3114.416	891.25
3117.607	913.25
3120.795	940.25
3123.98	938.25
3127.163	959.25
3130.344	964.25
3133.521	992.25
3136.696	1012.25
3139.869	1025.25
3143.039	1048.25
3146.206	1053.25
3149.371	1046.25
3152.533	1066.25
3155.693	1054.25
3158.85	1072.25
3162.005	1073.25
3165.157	1079.25
3168.306	1078.25
3171.453	1081.25
3174.597	1087.25
3177.739	1083.25
3180.878	1085.25
3184.014	1080.25
3187.149	1081.25
3190.28	1084.25
3193.409	1102.25
3196.536	1103.25
3199.659	1091.25
3202.781	1097.25
3205.9	1083.25
3209.016	1098.25
3212.13	1091.25
3215.241	1077.25
3218.35	1073.25
3221.456	1065.25
3224.56	1054.25
3227.661	1050.25
3230.76	1039.25
3233.856	1027.25
3236.95	1003.25
3240.041	1004.25
3243.13	1006.25
3246.216	994.25
3249.3	988.25
3252.382	994.25
3255.46	982.25
3258.537	986.25
3261.611	977.25
3264.682	987.25
3267.751	973.25
3270.818	955.25
3273.882	948.25
3276.943	951.25
3280.002	956.25
3283.059	939.25
3286.113	941.25
3289.165	920.25
3292.214	906.25
3295.261	893.25
3298.306	869.25
3301.348	853.25
3304.387	858.25
3307.425	840.25
3310.459	812.25
3313.492	817.25
3316.521	793.25
3319.549	790.25
3322.574	784.25
3325.597	785.25
3328.617	764.25
3331.635	762.25
3334.65	751.25
3337.663	754.25
3340.674	751.25
3343.682	757.25
3346.688	744.25
3349.691	743.25
3352.692	739.25
3355.691	740.25
3358.687	737.25
3361.681	721.25
3364.673	718.25
3367.662	702.25
3370.649	684.25
3373.633	675.25
3376.615	673.25
3379.595	671.25
3382.572	657.25
3385.547	641.25
3388.52	637.25
3391.49	621.25
3394.458	619.25
3397.424	603.25
3400.387	601.25
3403.348	592.25
3406.307	583.25
3409.263	588.25
3412.217	574.25
3415.168	571.25
3418.118	552.25
3421.065	567.25
3424.009	556.25
3426.951	551.25
3429.891	532.25
3432.829	523.25
3435.764	520.25
3438.697	511.25
3441.628	492.25
3444.557	486.25
3447.483	470.25
3450.407	454.25
3453.328	444.25
3456.247	435.25
3459.164	414.25
3462.079	400.25
3464.991	389.25
3467.902	377.25
3470.809	369.25
3473.715	361.25
3476.618	361.25
3479.519	338.25
3482.418	329.25
3485.315	325.25
3488.209	313.25
3491.101	302.25
3493.99	296.25
3496.878	279.25
3499.763	288.25
3502.646	275.25
3505.527	262.25
3508.405	249.25
3511.281	256.25
3514.155	224.25
3517.027	231.25
3519.897	217.25
3522.764	206.25
3525.629	186.25
3528.492	179.25
3531.352	169.25
3534.211	164.25
3537.067	153.25
3539.921	143.25
3542.773	132.25
3545.622	132.25
3548.469	121.25
3551.315	120.25
3554.157	110.25
3556.998	101.25
3559.837	97.25
3562.673	88.25
3565.507	81.25
3568.339	78.25
3571.169	78.25
3573.996	64.25
3576.822	58.25
3579.645	59.25
3582.466	56.25
3585.285	51.25
3588.101	47.25
3590.916	39.25
3593.728	30.25
3596.538	29.25
3599.346	26.25
3602.152	15.25
3604.956	17.25
3607.757	12.25
3610.556	5.25
3613.354	7.25
3616.149	2.25
3618.942	0.25
3621.732	-6.75
3624.521	-4.75
3627.307	-8.75
3630.092	-6.75
3632.874	-16.75
3635.654	-16.75
3638.432	-18.75
3641.208	-17.75
3643.982	-31.75
3646.753	-30.75
3649.523	-25.75
3652.29	-32.75
3655.055	-37.75
3657.818	-40.75
3660.579	-42.75
3663.338	-43.75
3666.095	-43.75
3668.849	-46.75
3671.602	-45.75
3674.352	-48.75
3677.101	-49.75
3679.847	-50.75
3682.591	-49.75
3685.333	-58.75
3688.073	-54.75
3690.811	-56.75
3693.547	-52.75
3696.281	-58.75
3699.013	-59.75
3701.742	-63.75
3704.47	-59.75
3707.195	-62.75
3709.919	-67.75
3712.64	-68.75
3715.359	-67.75
3718.076	-71.75
3720.792	-72.75
3723.505	-74.75
3726.216	-73.75
3728.925	-76.75
3731.632	-74.75
3734.336	-76.75
3737.039	-77.75
3739.74	-79.75
3742.439	-84.75
3745.136	-77.75
3747.83	-78.75
3750.523	-81.75
3753.213	-80.75
3755.902	-78.75
3758.589	-80.75
3761.273	-81.75
3763.956	-79.75
3766.636	-82.75
3769.315	-79.75
3771.991	-78.75
3774.665	-84.75
3777.338	-77.75
3780.008	-84.75
3782.677	-86.75
3785.343	-82.75
3788.007	-81.75
3790.67	-85.75
3793.33	-86.75
3795.989	-84.75
3798.645	-85.75
3801.299	-89.75
3803.952	-88.75
3806.602	-89.75
3809.251	-90.75
3811.897	-88.75
3814.542	-89.75
3817.184	-93.75
3819.825	-89.75
3822.463	-91.75
3825.1	-92.75
3827.735	-94.75
3830.367	-94.75
3832.998	-91.75
3835.627	-90.75
3838.253	-90.75
3840.878	-88.75
3843.501	-89.75
3846.122	-90.75
3848.741	-92.75
3851.358	-87.75
3853.973	-93.75
3856.586	-90.75
3859.197	-90.75
3861.806	-91.75
3864.414	-90.75
3867.019	-92.75
3869.622	-95.75
3872.224	-93.75
3874.823	-92.75
3877.421	-89.75
3880.016	-92.75
3882.61	-88.75
3885.202	-90.75
3887.792	-88.75
3890.38	-90.75
3892.966	-95.75
3895.55	-92.75
3898.132	-94.75
3900.713	-94.75
3903.291	-99.75
3905.868	-97.75
3908.442	-101.75
3911.015	-98.75
3913.586	-98.75
3916.155	-95.75
3918.722	-96.75
3921.287	-99.75
3923.85	-96.75
3926.411	-97.75
3928.971	-96.75
3931.528	-100.75
3934.084	-96.75
3936.638	-100.75
3939.19	-100.75
3941.74	-101.75
3944.288	-103.75
3946.834	-104.75
3949.378	-100.75
3951.921	-103.75
3954.462	-99.75
3957	-99.75
3959.537	-100.75
3962.072	-99.75
3964.606	-97.75
3967.137	-99.75
3969.667	-98.75
3972.194	-98.75
3974.72	-96.75
3977.244	-96.75
3979.766	-97.75
3982.286	-95.75
3984.805	-94.75
3987.321	-97.75
3989.836	-99.75
3992.349	-98.75
3994.86	-100.75
3997.369	-98.75
3999.877	-104.75
4002.382	-98.75
4004.886	-102.75
4007.388	-105.75
4009.888	-98.75
4012.386	-99.75
4014.883	-102.75
4017.377	-97.75
4019.87	-98.75
4022.361	-100.75
4024.85	-98.75
4027.338	-97.75
4029.823	-96.75
4032.307	-96.75
4034.789	-96.75
4037.269	-98.75
4039.747	-94.75
4042.224	-97.75
4044.699	-97.75
4047.172	-97.75
4049.643	-97.75
4052.112	-96.75
4054.58	-95.75
4057.046	-98.75
4059.51	-98.75
4061.972	-99.75
4064.432	-96.75
4066.891	-100.75
4069.348	-100.75
4071.803	-103.75
4074.256	-101.75
4076.708	-101.75
4079.158	-101.75
4081.606	-106.75
4084.052	-101.75
4086.497	-104.75
4088.939	-100.75
4091.38	-101.75
4093.819	-100.75
4096.257	-104.75
4098.693	-104.75
4101.127	-106.75
4103.559	-105.75
4105.989	-66.75
4108.418	-63.75
4110.845	-59.75
4113.27	-58.75
4115.694	-55.75
4118.115	-38.75
4120.535	-100.75
4122.954	-100.75
4125.37	-102.75
4127.785	-97.75
4130.198	-95.75
4132.609	-98.75
4135.019	-104.75
4137.427	-102.75
4139.833	-105.75
4142.237	-102.75
