Data from I0.75_T5s_Bsub_water_1-10^4_1_RamanShift_1.txt Node
Date: Mon Mar 13 15:08:32 IST 2017
User: aro
Spectrometer: QEPB0276
Trigger mode: 0
Integration Time (sec): 5.000000E0
Scans to average: 1
Electric dark correction enabled: true
Nonlinearity correction enabled: false
Boxcar width: 0
XAxis mode: Raman Shifts
Number of Pixels in Spectrum: 1044
>>>>>Begin Spectral Data<<<<<
160.701	-29.62
166.742	-1.62
172.777	92.38
178.805	362.38
184.826	1032.38
190.841	2227.38
196.849	3579.38
202.85	4452.38
208.845	4695.38
214.833	4581.38
220.815	4474.38
226.789	4350.38
232.758	4331.38
238.719	4230.38
244.674	4118.38
250.623	4032.38
256.565	3877.38
262.5	3768.38
268.429	3650.38
274.351	3538.38
280.267	3457.38
286.176	3384.38
292.079	3318.38
297.975	3243.38
303.865	3160.38
309.748	3074.38
315.625	3020.38
321.495	2996.38
327.359	2934.38
333.217	2884.38
339.068	2862.38
344.912	2826.38
350.751	2800.38
356.583	2787.38
362.408	2771.38
368.227	2763.38
374.04	2749.38
379.847	2761.38
385.647	2754.38
391.44	2743.38
397.228	2773.38
403.009	2742.38
408.784	2760.38
414.553	2755.38
420.315	2751.38
426.071	2757.38
431.821	2739.38
437.565	2754.38
443.302	2743.38
449.033	2731.38
454.758	2756.38
460.477	2736.38
466.189	2733.38
471.896	2724.38
477.596	2699.38
483.29	2692.38
488.978	2675.38
494.66	2681.38
500.335	2666.38
506.005	2604.38
511.668	2576.38
517.325	2556.38
522.977	2505.38
528.622	2490.38
534.261	2484.38
539.894	2449.38
545.521	2442.38
551.141	2438.38
556.756	2449.38
562.365	2432.38
567.968	2420.38
573.565	2426.38
579.155	2423.38
584.74	2400.38
590.319	2398.38
595.892	2368.38
601.459	2364.38
607.02	2366.38
612.575	2349.38
618.124	2328.38
623.667	2288.38
629.204	2299.38
634.735	2289.38
640.261	2300.38
645.781	2275.38
651.294	2262.38
656.802	2257.38
662.304	2258.38
667.8	2242.38
673.29	2251.38
678.775	2240.38
684.254	2227.38
689.726	2251.38
695.193	2234.38
700.655	2218.38
706.11	2192.38
711.56	2203.38
717.004	2186.38
722.442	2202.38
727.874	2175.38
733.301	2183.38
738.722	2176.38
744.137	2161.38
749.547	2164.38
754.951	2179.38
760.349	2183.38
765.741	2183.38
771.128	2205.38
776.509	2176.38
781.885	2188.38
787.254	2202.38
792.618	2212.38
797.977	2171.38
803.33	2150.38
808.677	2166.38
814.019	2147.38
819.355	2154.38
824.686	2128.38
830.011	2130.38
835.33	2131.38
840.644	2111.38
845.952	2121.38
851.255	2114.38
856.552	2131.38
861.844	2108.38
867.13	2126.38
872.41	2108.38
877.686	2122.38
882.955	2087.38
888.219	2049.38
893.478	2068.38
898.731	2023.38
903.979	2005.38
909.221	2012.38
914.458	1992.38
919.69	2013.38
924.916	2019.38
930.136	2021.38
935.351	2042.38
940.561	2026.38
945.766	2036.38
950.965	2028.38
956.158	1992.38
961.347	1987.38
966.529	1969.38
971.707	1934.38
976.879	1930.38
982.046	1931.38
987.208	1919.38
992.364	1925.38
997.515	1938.38
1002.66	1959.38
1007.801	1958.38
1012.936	1994.38
1018.066	2011.38
1023.19	2022.38
1028.309	2034.38
1033.423	2033.38
1038.532	2024.38
1043.636	1998.38
1048.734	1994.38
1053.827	1997.38
1058.915	1977.38
1063.998	1946.38
1069.075	1969.38
1074.147	1963.38
1079.214	1965.38
1084.276	1996.38
1089.333	2014.38
1094.385	2031.38
1099.431	2043.38
1104.472	2037.38
1109.509	2027.38
1114.54	2000.38
1119.565	1996.38
1124.586	1963.38
1129.602	1940.38
1134.613	1942.38
1139.618	1948.38
1144.619	1963.38
1149.614	1951.38
1154.604	1969.38
1159.589	1963.38
1164.57	1969.38
1169.545	2004.38
1174.515	1992.38
1179.48	1993.38
1184.44	1981.38
1189.395	1970.38
1194.345	1958.38
1199.29	1957.38
1204.23	1957.38
1209.165	1986.38
1214.095	1989.38
1219.021	2009.38
1223.941	2030.38
1228.856	2056.38
1233.766	2045.38
1238.672	2061.38
1243.572	2055.38
1248.467	2046.38
1253.358	2011.38
1258.244	1986.38
1263.124	1973.38
1268	1934.38
1272.871	1943.38
1277.737	1900.38
1282.599	1910.38
1287.455	1913.38
1292.306	1936.38
1297.153	1939.38
1301.995	1963.38
1306.832	1982.38
1311.664	1980.38
1316.491	1995.38
1321.314	1982.38
1326.132	1975.38
1330.945	1943.38
1335.753	1906.38
1340.556	1884.38
1345.354	1864.38
1350.148	1832.38
1354.937	1839.38
1359.722	1836.38
1364.501	1847.38
1369.276	1873.38
1374.046	1894.38
1378.811	1910.38
1383.572	1913.38
1388.327	1913.38
1393.079	1871.38
1397.825	1851.38
1402.567	1824.38
1407.304	1805.38
1412.036	1806.38
1416.764	1785.38
1421.487	1785.38
1426.205	1807.38
1430.919	1804.38
1435.628	1844.38
1440.333	1849.38
1445.032	1856.38
1449.727	1863.38
1454.418	1881.38
1459.104	1884.38
1463.785	1874.38
1468.462	1855.38
1473.134	1837.38
1477.802	1817.38
1482.465	1814.38
1487.123	1796.38
1491.777	1831.38
1496.426	1833.38
1501.071	1836.38
1505.711	1856.38
1510.347	1876.38
1514.978	1923.38
1519.604	1927.38
1524.226	1920.38
1528.844	1943.38
1533.457	1930.38
1538.065	1947.38
1542.669	1936.38
1547.269	1896.38
1551.864	1941.38
1556.454	1931.38
1561.041	1933.38
1565.622	1905.38
1570.199	1935.38
1574.772	1949.38
1579.34	1975.38
1583.904	1996.38
1588.464	1980.38
1593.019	2027.38
1597.569	2020.38
1602.115	2002.38
1606.657	1998.38
1611.195	2019.38
1615.728	1996.38
1620.256	1993.38
1624.78	2020.38
1629.3	2038.38
1633.816	2046.38
1638.327	2048.38
1642.834	2080.38
1647.336	2089.38
1651.834	2113.38
1656.328	2128.38
1660.817	2112.38
1665.302	2111.38
1669.783	2090.38
1674.259	2043.38
1678.732	2001.38
1683.199	1961.38
1687.663	1891.38
1692.122	1837.38
1696.577	1827.38
1701.028	1807.38
1705.474	1796.38
1709.917	1786.38
1714.355	1765.38
1718.788	1760.38
1723.218	1732.38
1727.643	1709.38
1732.064	1680.38
1736.481	1667.38
1740.893	1644.38
1745.301	1591.38
1749.705	1583.38
1754.105	1543.38
1758.501	1523.38
1762.893	1491.38
1767.28	1478.38
1771.663	1489.38
1776.042	1471.38
1780.417	1494.38
1784.787	1499.38
1789.154	1511.38
1793.516	1517.38
1797.874	1545.38
1802.228	1556.38
1806.578	1555.38
1810.924	1538.38
1815.266	1532.38
1819.603	1519.38
1823.937	1491.38
1828.266	1485.38
1832.591	1475.38
1836.913	1456.38
1841.23	1455.38
1845.543	1436.38
1849.852	1445.38
1854.156	1440.38
1858.457	1447.38
1862.754	1431.38
1867.047	1433.38
1871.335	1454.38
1875.62	1446.38
1879.9	1457.38
1884.177	1452.38
1888.449	1459.38
1892.718	1452.38
1896.982	1418.38
1901.243	1440.38
1905.499	1434.38
1909.752	1428.38
1914	1438.38
1918.245	1434.38
1922.485	1445.38
1926.722	1449.38
1930.954	1470.38
1935.183	1460.38
1939.408	1467.38
1943.628	1485.38
1947.845	1477.38
1952.058	1471.38
1956.267	1474.38
1960.472	1463.38
1964.673	1434.38
1968.87	1427.38
1973.063	1431.38
1977.252	1406.38
1981.438	1404.38
1985.619	1397.38
1989.797	1400.38
1993.971	1400.38
1998.14	1389.38
2002.306	1407.38
2006.469	1406.38
2010.627	1406.38
2014.781	1411.38
2018.932	1392.38
2023.078	1414.38
2027.221	1386.38
2031.36	1366.38
2035.495	1355.38
2039.627	1360.38
2043.754	1325.38
2047.878	1331.38
2051.998	1319.38
2056.114	1326.38
2060.226	1309.38
2064.334	1339.38
2068.439	1332.38
2072.54	1349.38
2076.637	1351.38
2080.73	1356.38
2084.82	1351.38
2088.906	1357.38
2092.988	1368.38
2097.066	1375.38
2101.14	1337.38
2105.211	1334.38
2109.278	1338.38
2113.342	1327.38
2117.401	1325.38
2121.457	1313.38
2125.509	1316.38
2129.558	1312.38
2133.602	1311.38
2137.643	1303.38
2141.681	1304.38
2145.714	1290.38
2149.744	1294.38
2153.77	1282.38
2157.793	1274.38
2161.812	1257.38
2165.827	1241.38
2169.838	1248.38
2173.846	1244.38
2177.851	1211.38
2181.851	1211.38
2185.848	1186.38
2189.841	1187.38
2193.831	1167.38
2197.817	1180.38
2201.799	1160.38
2205.778	1176.38
2209.753	1163.38
2213.725	1164.38
2217.693	1169.38
2221.657	1171.38
2225.618	1167.38
2229.575	1156.38
2233.529	1158.38
2237.479	1155.38
2241.425	1135.38
2245.368	1138.38
2249.307	1134.38
2253.243	1115.38
2257.175	1116.38
2261.104	1088.38
2265.029	1080.38
2268.95	1067.38
2272.868	1067.38
2276.783	1060.38
2280.694	1054.38
2284.601	1037.38
2288.505	1026.38
2292.405	1020.38
2296.302	1029.38
2300.195	1014.38
2304.085	1005.38
2307.971	995.38
2311.854	964.38
2315.734	959.38
2319.609	946.38
2323.482	948.38
2327.351	918.38
2331.216	921.38
2335.078	929.38
2338.937	919.38
2342.792	898.38
2346.643	903.38
2350.492	905.38
2354.336	907.38
2358.178	909.38
2362.015	906.38
2365.85	901.38
2369.681	912.38
2373.508	904.38
2377.333	896.38
2381.153	901.38
2384.971	895.38
2388.785	897.38
2392.595	891.38
2396.402	884.38
2400.206	890.38
2404.007	888.38
2407.804	879.38
2411.597	871.38
2415.388	877.38
2419.174	876.38
2422.958	866.38
2426.738	857.38
2430.515	862.38
2434.289	855.38
2438.059	856.38
2441.825	846.38
2445.589	855.38
2449.349	846.38
2453.106	835.38
2456.859	830.38
2460.61	824.38
2464.356	816.38
2468.1	815.38
2471.84	818.38
2475.577	802.38
2479.311	801.38
2483.041	799.38
2486.768	804.38
2490.492	795.38
2494.213	818.38
2497.93	797.38
2501.644	818.38
2505.355	819.38
2509.062	810.38
2512.766	808.38
2516.467	805.38
2520.165	805.38
2523.859	793.38
2527.551	798.38
2531.239	777.38
2534.923	778.38
2538.605	775.38
2542.283	770.38
2545.958	774.38
2549.63	773.38
2553.299	771.38
2556.964	753.38
2560.626	753.38
2564.285	747.38
2567.941	737.38
2571.594	748.38
2575.243	739.38
2578.89	740.38
2582.533	741.38
2586.173	732.38
2589.809	740.38
2593.443	727.38
2597.073	715.38
2600.701	720.38
2604.325	714.38
2607.946	712.38
2611.564	720.38
2615.178	715.38
2618.79	712.38
2622.398	696.38
2626.004	705.38
2629.606	698.38
2633.205	698.38
2636.801	692.38
2640.394	682.38
2643.983	672.38
2647.57	659.38
2651.153	639.38
2654.734	660.38
2658.311	639.38
2661.885	638.38
2665.456	636.38
2669.025	636.38
2672.589	629.38
2676.151	629.38
2679.71	620.38
2683.266	613.38
2686.819	608.38
2690.368	599.38
2693.915	591.38
2697.458	589.38
2700.999	570.38
2704.536	562.38
2708.071	571.38
2711.602	568.38
2715.13	574.38
2718.656	559.38
2722.178	541.38
2725.697	544.38
2729.214	552.38
2732.727	554.38
2736.237	563.38
2739.744	550.38
2743.249	560.38
2746.75	554.38
2750.248	542.38
2753.743	549.38
2757.236	558.38
2760.725	555.38
2764.211	560.38
2767.695	548.38
2771.175	547.38
2774.652	548.38
2778.127	546.38
2781.598	541.38
2785.067	543.38
2788.532	533.38
2791.995	530.38
2795.455	539.38
2798.911	529.38
2802.365	517.38
2805.816	524.38
2809.264	527.38
2812.709	519.38
2816.151	517.38
2819.59	513.38
2823.026	510.38
2826.46	504.38
2829.89	504.38
2833.318	503.38
2836.742	499.38
2840.164	502.38
2843.583	502.38
2846.999	495.38
2850.412	507.38
2853.822	499.38
2857.229	505.38
2860.634	511.38
2864.035	512.38
2867.434	510.38
2870.83	511.38
2874.223	510.38
2877.613	513.38
2881	513.38
2884.385	515.38
2887.766	504.38
2891.145	498.38
2894.521	484.38
2897.894	487.38
2901.264	496.38
2904.631	503.38
2907.996	482.38
2911.358	486.38
2914.717	480.38
2918.073	483.38
2921.426	481.38
2924.777	481.38
2928.124	484.38
2931.469	488.38
2934.811	497.38
2938.15	485.38
2941.487	507.38
2944.821	492.38
2948.152	502.38
2951.48	506.38
2954.805	489.38
2958.128	503.38
2961.447	500.38
2964.765	501.38
2968.079	507.38
2971.39	507.38
2974.699	526.38
2978.005	521.38
2981.308	529.38
2984.609	532.38
2987.907	532.38
2991.202	546.38
2994.494	556.38
2997.784	556.38
3001.07	571.38
3004.355	576.38
3007.636	583.38
3010.915	582.38
3014.191	596.38
3017.464	604.38
3020.734	609.38
3024.002	599.38
3027.267	602.38
3030.53	614.38
3033.789	603.38
3037.046	620.38
3040.301	620.38
3043.552	625.38
3046.801	640.38
3050.048	659.38
3053.291	663.38
3056.532	670.38
3059.771	696.38
3063.006	711.38
3066.239	717.38
3069.469	720.38
3072.697	750.38
3075.922	750.38
3079.144	766.38
3082.364	792.38
3085.581	801.38
3088.795	807.38
3092.007	808.38
3095.216	832.38
3098.423	841.38
3101.627	859.38
3104.828	883.38
3108.026	880.38
3111.222	895.38
3114.416	920.38
3117.607	925.38
3120.795	959.38
3123.98	971.38
3127.163	986.38
3130.344	1000.38
3133.521	1025.38
3136.696	1032.38
3139.869	1052.38
3143.039	1051.38
3146.206	1070.38
3149.371	1088.38
3152.533	1076.38
3155.693	1093.38
3158.85	1097.38
3162.005	1093.38
3165.157	1115.38
3168.306	1100.38
3171.453	1107.38
3174.597	1101.38
3177.739	1098.38
3180.878	1099.38
3184.014	1114.38
3187.149	1110.38
3190.28	1111.38
3193.409	1126.38
3196.536	1110.38
3199.659	1114.38
3202.781	1100.38
3205.9	1109.38
3209.016	1116.38
3212.13	1117.38
3215.241	1115.38
3218.35	1091.38
3221.456	1097.38
3224.56	1082.38
3227.661	1076.38
3230.76	1052.38
3233.856	1043.38
3236.95	1050.38
3240.041	1029.38
3243.13	1032.38
3246.216	1007.38
3249.3	1006.38
3252.382	1001.38
3255.46	1004.38
3258.537	1004.38
3261.611	995.38
3264.682	990.38
3267.751	999.38
3270.818	987.38
3273.882	989.38
3276.943	980.38
3280.002	980.38
3283.059	957.38
3286.113	954.38
3289.165	939.38
3292.214	924.38
3295.261	912.38
3298.306	888.38
3301.348	887.38
3304.387	868.38
3307.425	870.38
3310.459	840.38
3313.492	838.38
3316.521	835.38
3319.549	809.38
3322.574	809.38
3325.597	788.38
3328.617	785.38
3331.635	788.38
3334.65	813.38
3337.663	768.38
3340.674	770.38
3343.682	782.38
3346.688	766.38
3349.691	769.38
3352.692	763.38
3355.691	751.38
3358.687	736.38
3361.681	736.38
3364.673	736.38
3367.662	728.38
3370.649	708.38
3373.633	691.38
3376.615	685.38
3379.595	677.38
3382.572	668.38
3385.547	668.38
3388.52	654.38
3391.49	640.38
3394.458	631.38
3397.424	630.38
3400.387	611.38
3403.348	612.38
3406.307	615.38
3409.263	598.38
3412.217	594.38
3415.168	587.38
3418.118	578.38
3421.065	577.38
3424.009	570.38
3426.951	557.38
3429.891	561.38
3432.829	545.38
3435.764	541.38
3438.697	515.38
3441.628	499.38
3444.557	486.38
3447.483	475.38
3450.407	456.38
3453.328	453.38
3456.247	437.38
3459.164	433.38
3462.079	412.38
3464.991	397.38
3467.902	391.38
3470.809	385.38
3473.715	379.38
3476.618	352.38
3479.519	349.38
3482.418	343.38
3485.315	336.38
3488.209	324.38
3491.101	320.38
3493.99	307.38
3496.878	288.38
3499.763	286.38
3502.646	281.38
3505.527	270.38
3508.405	256.38
3511.281	246.38
3514.155	229.38
3517.027	229.38
3519.897	217.38
3522.764	208.38
3525.629	193.38
3528.492	186.38
3531.352	176.38
3534.211	172.38
3537.067	149.38
3539.921	149.38
3542.773	137.38
3545.622	132.38
3548.469	125.38
3551.315	115.38
3554.157	107.38
3556.998	106.38
3559.837	108.38
3562.673	89.38
3565.507	92.38
3568.339	82.38
3571.169	72.38
3573.996	76.38
3576.822	70.38
3579.645	59.38
3582.466	61.38
3585.285	49.38
3588.101	51.38
3590.916	37.38
3593.728	37.38
3596.538	28.38
3599.346	32.38
3602.152	18.38
3604.956	16.38
3607.757	11.38
3610.556	9.38
3613.354	9.38
3616.149	-0.62
3618.942	0.38
3621.732	-7.62
3624.521	-9.62
3627.307	-5.62
3630.092	-12.62
3632.874	-8.62
3635.654	-12.62
3638.432	-16.62
3641.208	-17.62
3643.982	-26.62
3646.753	-26.62
3649.523	-26.62
3652.29	-30.62
3655.055	-33.62
3657.818	-35.62
3660.579	-38.62
3663.338	-38.62
3666.095	-45.62
3668.849	-47.62
3671.602	-45.62
3674.352	-48.62
3677.101	-48.62
3679.847	-54.62
3682.591	-54.62
3685.333	-56.62
3688.073	-53.62
3690.811	-62.62
3693.547	-55.62
3696.281	-65.62
3699.013	-63.62
3701.742	-65.62
3704.47	-64.62
3707.195	-68.62
3709.919	-69.62
3712.64	-71.62
3715.359	-71.62
3718.076	-73.62
3720.792	-76.62
3723.505	-76.62
3726.216	-74.62
3728.925	-75.62
3731.632	-73.62
3734.336	-77.62
3737.039	-76.62
3739.74	-76.62
3742.439	-83.62
3745.136	-83.62
3747.83	-76.62
3750.523	-80.62
3753.213	-80.62
3755.902	-76.62
3758.589	-80.62
3761.273	-80.62
3763.956	-80.62
3766.636	-81.62
3769.315	-81.62
3771.991	-81.62
3774.665	-83.62
3777.338	-86.62
3780.008	-84.62
3782.677	-88.62
3785.343	-89.62
3788.007	-88.62
3790.67	-90.62
3793.33	-92.62
3795.989	-81.62
3798.645	-93.62
3801.299	-85.62
3803.952	-88.62
3806.602	-94.62
3809.251	-90.62
3811.897	-92.62
3814.542	-92.62
3817.184	-93.62
3819.825	-94.62
3822.463	-89.62
3825.1	-93.62
3827.735	-93.62
3830.367	-96.62
3832.998	-92.62
3835.627	-93.62
3838.253	-93.62
3840.878	-93.62
3843.501	-93.62
3846.122	-91.62
3848.741	-93.62
3851.358	-93.62
3853.973	-95.62
3856.586	-91.62
3859.197	-91.62
3861.806	-95.62
3864.414	-95.62
3867.019	-94.62
3869.622	-97.62
3872.224	-96.62
3874.823	-90.62
3877.421	-93.62
3880.016	-92.62
3882.61	-88.62
3885.202	-88.62
3887.792	-93.62
3890.38	-89.62
3892.966	-97.62
3895.55	-95.62
3898.132	-98.62
3900.713	-99.62
3903.291	-103.62
3905.868	-101.62
3908.442	-102.62
3911.015	-106.62
3913.586	-99.62
3916.155	-97.62
3918.722	-99.62
3921.287	-100.62
3923.85	-101.62
3926.411	-94.62
3928.971	-99.62
3931.528	-99.62
3934.084	-99.62
3936.638	-100.62
3939.19	-101.62
3941.74	-102.62
3944.288	-103.62
3946.834	-102.62
3949.378	-101.62
3951.921	-104.62
3954.462	-101.62
3957	-100.62
3959.537	-106.62
3962.072	-104.62
3964.606	-105.62
3967.137	-103.62
3969.667	-102.62
3972.194	-99.62
3974.72	-101.62
3977.244	-100.62
3979.766	-104.62
3982.286	-101.62
3984.805	-96.62
3987.321	-101.62
3989.836	-99.62
3992.349	-100.62
3994.86	-99.62
3997.369	-96.62
3999.877	-101.62
4002.382	-97.62
4004.886	-99.62
4007.388	-104.62
4009.888	-101.62
4012.386	-100.62
4014.883	-98.62
4017.377	-98.62
4019.87	-102.62
4022.361	-102.62
4024.85	-98.62
4027.338	-101.62
4029.823	-102.62
4032.307	-104.62
4034.789	-99.62
4037.269	-103.62
4039.747	-102.62
4042.224	-103.62
4044.699	-98.62
4047.172	-104.62
4049.643	-102.62
4052.112	-98.62
4054.58	-100.62
4057.046	-100.62
4059.51	-101.62
4061.972	-103.62
4064.432	-100.62
4066.891	-99.62
4069.348	-98.62
4071.803	-101.62
4074.256	-102.62
4076.708	-102.62
4079.158	-106.62
4081.606	-102.62
4084.052	-103.62
4086.497	-103.62
4088.939	-104.62
4091.38	-102.62
4093.819	-104.62
4096.257	-105.62
4098.693	-107.62
4101.127	-105.62
4103.559	-108.62
4105.989	-69.62
4108.418	-65.62
4110.845	-60.62
4113.27	-57.62
4115.694	-51.62
4118.115	-39.62
4120.535	-102.62
4122.954	-105.62
4125.37	-105.62
4127.785	-102.62
4130.198	-105.62
4132.609	-101.62
4135.019	-106.62
4137.427	-107.62
4139.833	-106.62
4142.237	-102.62
