Data from I0.75_T15s_Bsub_water_1-10^4_1_RamanShift_1.txt Node
Date: Mon Mar 13 15:48:52 IST 2017
User: aro
Spectrometer: QEPB0276
Trigger mode: 0
Integration Time (sec): 1.500000E1
Scans to average: 1
Electric dark correction enabled: true
Nonlinearity correction enabled: false
Boxcar width: 0
XAxis mode: Raman Shifts
Number of Pixels in Spectrum: 1044
>>>>>Begin Spectral Data<<<<<
160.701	-78.25
166.742	12.75
172.777	249.75
178.805	1073.75
184.826	3084.75
190.841	6675.75
196.849	10789.75
202.85	13516.75
208.845	14134.75
214.833	13781.75
220.815	13402.75
226.789	13154.75
232.758	12922.75
238.719	12671.75
244.674	12308.75
250.623	11931.75
256.565	11535.75
262.5	11161.75
268.429	10856.75
274.351	10558.75
280.267	10325.75
286.176	9991.75
292.079	9780.75
297.975	9566.75
303.865	9302.75
309.748	9120.75
315.625	8872.75
321.495	8757.75
327.359	8614.75
333.217	8510.75
339.068	8421.75
344.912	8285.75
350.751	8223.75
356.583	8200.75
362.408	8063.75
368.227	8071.75
374.04	8056.75
379.847	8045.75
385.647	8060.75
391.44	8087.75
397.228	8065.75
403.009	8039.75
408.784	8106.75
414.553	8068.75
420.315	8085.75
426.071	8139.75
431.821	8051.75
437.565	8063.75
443.302	8035.75
449.033	8011.75
454.758	8024.75
460.477	7948.75
466.189	7928.75
471.896	7874.75
477.596	7845.75
483.29	7835.75
488.978	7784.75
494.66	7776.75
500.335	7663.75
506.005	7594.75
511.668	7467.75
517.325	7381.75
522.977	7320.75
528.622	7229.75
534.261	7170.75
539.894	7126.75
545.521	7088.75
551.141	7110.75
556.756	7088.75
562.365	7055.75
567.968	7019.75
573.565	6971.75
579.155	6978.75
584.74	6972.75
590.319	6921.75
595.892	6896.75
601.459	6840.75
607.02	6819.75
612.575	6768.75
618.124	6701.75
623.667	6650.75
629.204	6632.75
634.735	6594.75
640.261	6524.75
645.781	6548.75
651.294	6475.75
656.802	6522.75
662.304	6493.75
667.8	6484.75
673.29	6469.75
678.775	6463.75
684.254	6453.75
689.726	6456.75
695.193	6438.75
700.655	6370.75
706.11	6357.75
711.56	6331.75
717.004	6282.75
722.442	6278.75
727.874	6270.75
733.301	6287.75
738.722	6198.75
744.137	6232.75
749.547	6244.75
754.951	6228.75
760.349	6238.75
765.741	6246.75
771.128	6221.75
776.509	6261.75
781.885	6244.75
787.254	6291.75
792.618	6251.75
797.977	6224.75
803.33	6174.75
808.677	6197.75
814.019	6124.75
819.355	6101.75
824.686	6101.75
830.011	6029.75
835.33	6048.75
840.644	6039.75
845.952	6009.75
851.255	6054.75
856.552	6040.75
861.844	6034.75
867.13	6025.75
872.41	6014.75
877.686	6023.75
882.955	6004.75
888.219	5943.75
893.478	5851.75
898.731	5785.75
903.979	5726.75
909.221	5713.75
914.458	5662.75
919.69	5686.75
924.916	5629.75
930.136	5682.75
935.351	5701.75
940.561	5760.75
945.766	5705.75
950.965	5696.75
956.158	5693.75
961.347	5607.75
966.529	5570.75
971.707	5485.75
976.879	5458.75
982.046	5422.75
987.208	5419.75
992.364	5392.75
997.515	5457.75
1002.66	5480.75
1007.801	5567.75
1012.936	5620.75
1018.066	5657.75
1023.19	5733.75
1028.309	5741.75
1033.423	5727.75
1038.532	5702.75
1043.636	5668.75
1048.734	5644.75
1053.827	5558.75
1058.915	5557.75
1063.998	5503.75
1069.075	5506.75
1074.147	5524.75
1079.214	5578.75
1084.276	5603.75
1089.333	5666.75
1094.385	5717.75
1099.431	5742.75
1104.472	5760.75
1109.509	5699.75
1114.54	5667.75
1119.565	5628.75
1124.586	5576.75
1129.602	5524.75
1134.613	5493.75
1139.618	5499.75
1144.619	5476.75
1149.614	5491.75
1154.604	5530.75
1159.589	5598.75
1164.57	5598.75
1169.545	5585.75
1174.515	5673.75
1179.48	5597.75
1184.44	5590.75
1189.395	5553.75
1194.345	5506.75
1199.29	5535.75
1204.23	5534.75
1209.165	5560.75
1214.095	5576.75
1219.021	5622.75
1223.941	5678.75
1228.856	5717.75
1233.766	5746.75
1238.672	5774.75
1243.572	5761.75
1248.467	5743.75
1253.358	5705.75
1258.244	5620.75
1263.124	5555.75
1268	5501.75
1272.871	5456.75
1277.737	5441.75
1282.599	5409.75
1287.455	5390.75
1292.306	5459.75
1297.153	5483.75
1301.995	5547.75
1306.832	5601.75
1311.664	5582.75
1316.491	5576.75
1321.314	5588.75
1326.132	5539.75
1330.945	5445.75
1335.753	5359.75
1340.556	5307.75
1345.354	5237.75
1350.148	5191.75
1354.937	5172.75
1359.722	5157.75
1364.501	5230.75
1369.276	5278.75
1374.046	5349.75
1378.811	5383.75
1383.572	5402.75
1388.327	5380.75
1393.079	5333.75
1397.825	5248.75
1402.567	5159.75
1407.304	5098.75
1412.036	5085.75
1416.764	5059.75
1421.487	5070.75
1426.205	5072.75
1430.919	5159.75
1435.628	5193.75
1440.333	5220.75
1445.032	5273.75
1449.727	5340.75
1454.418	5289.75
1459.104	5332.75
1463.785	5274.75
1468.462	5213.75
1473.134	5173.75
1477.802	5130.75
1482.465	5120.75
1487.123	5125.75
1491.777	5147.75
1496.426	5160.75
1501.071	5183.75
1505.711	5290.75
1510.347	5352.75
1514.978	5383.75
1519.604	5430.75
1524.226	5479.75
1528.844	5493.75
1533.457	5526.75
1538.065	5491.75
1542.669	5438.75
1547.269	5431.75
1551.864	5435.75
1556.454	5453.75
1561.041	5453.75
1565.622	5452.75
1570.199	5510.75
1574.772	5556.75
1579.34	5590.75
1583.904	5624.75
1588.464	5706.75
1593.019	5716.75
1597.569	5756.75
1602.115	5756.75
1606.657	5725.75
1611.195	5722.75
1615.728	5736.75
1620.256	5747.75
1624.78	5775.75
1629.3	5851.75
1633.816	5895.75
1638.327	5943.75
1642.834	6009.75
1647.336	6037.75
1651.834	6093.75
1656.328	6077.75
1660.817	6079.75
1665.302	6030.75
1669.783	5948.75
1674.259	5865.75
1678.732	5739.75
1683.199	5589.75
1687.663	5418.75
1692.122	5282.75
1696.577	5147.75
1701.028	5115.75
1705.474	5084.75
1709.917	5071.75
1714.355	5022.75
1718.788	4942.75
1723.218	4886.75
1727.643	4815.75
1732.064	4776.75
1736.481	4676.75
1740.893	4611.75
1745.301	4499.75
1749.705	4445.75
1754.105	4357.75
1758.501	4301.75
1762.893	4220.75
1767.28	4185.75
1771.663	4158.75
1776.042	4164.75
1780.417	4164.75
1784.787	4241.75
1789.154	4232.75
1793.516	4294.75
1797.874	4309.75
1802.228	4345.75
1806.578	4367.75
1810.924	4321.75
1815.266	4284.75
1819.603	4257.75
1823.937	4193.75
1828.266	4121.75
1832.591	4078.75
1836.913	4041.75
1841.23	4020.75
1845.543	4028.75
1849.852	4000.75
1854.156	4034.75
1858.457	4029.75
1862.754	4044.75
1867.047	4042.75
1871.335	4059.75
1875.62	4099.75
1879.9	4094.75
1884.177	4073.75
1888.449	4072.75
1892.718	4062.75
1896.982	4023.75
1901.243	3992.75
1905.499	3998.75
1909.752	4017.75
1914	4000.75
1918.245	4029.75
1922.485	4029.75
1926.722	4062.75
1930.954	4077.75
1935.183	4107.75
1939.408	4097.75
1943.628	4125.75
1947.845	4126.75
1952.058	4137.75
1956.267	4128.75
1960.472	4108.75
1964.673	4044.75
1968.87	4011.75
1973.063	4003.75
1977.252	3947.75
1981.438	3938.75
1985.619	3920.75
1989.797	3895.75
1993.971	3904.75
1998.14	3890.75
2002.306	3915.75
2006.469	3932.75
2010.627	3910.75
2014.781	3913.75
2018.932	3904.75
2023.078	3907.75
2027.221	3886.75
2031.36	3841.75
2035.495	3826.75
2039.627	3766.75
2043.754	3745.75
2047.878	3738.75
2051.998	3723.75
2056.114	3726.75
2060.226	3739.75
2064.334	3735.75
2068.439	3764.75
2072.54	3775.75
2076.637	3795.75
2080.73	3817.75
2084.82	3827.75
2088.906	3818.75
2092.988	3818.75
2097.066	3780.75
2101.14	3777.75
2105.211	3743.75
2109.278	3745.75
2113.342	3728.75
2117.401	3729.75
2121.457	3725.75
2125.509	3676.75
2129.558	3666.75
2133.602	3685.75
2137.643	3658.75
2141.681	3671.75
2145.714	3666.75
2149.744	3652.75
2153.77	3630.75
2157.793	3643.75
2161.812	3565.75
2165.827	3530.75
2169.838	3513.75
2173.846	3453.75
2177.851	3398.75
2181.851	3353.75
2185.848	3329.75
2189.841	3292.75
2193.831	3275.75
2197.817	3258.75
2201.799	3252.75
2205.778	3264.75
2209.753	3250.75
2213.725	3251.75
2217.693	3265.75
2221.657	3272.75
2225.618	3271.75
2229.575	3271.75
2233.529	3252.75
2237.479	3237.75
2241.425	3194.75
2245.368	3176.75
2249.307	3143.75
2253.243	3101.75
2257.175	3082.75
2261.104	3021.75
2265.029	3021.75
2268.95	3017.75
2272.868	2988.75
2276.783	2933.75
2280.694	2937.75
2284.601	2926.75
2288.505	2889.75
2292.405	2860.75
2296.302	2852.75
2300.195	2822.75
2304.085	2784.75
2307.971	2733.75
2311.854	2713.75
2315.734	2656.75
2319.609	2645.75
2323.482	2607.75
2327.351	2568.75
2331.216	2559.75
2335.078	2576.75
2338.937	2550.75
2342.792	2523.75
2346.643	2500.75
2350.492	2510.75
2354.336	2508.75
2358.178	2522.75
2362.015	2511.75
2365.85	2511.75
2369.681	2516.75
2373.508	2511.75
2377.333	2521.75
2381.153	2540.75
2384.971	2511.75
2388.785	2508.75
2392.595	2481.75
2396.402	2465.75
2400.206	2448.75
2404.007	2465.75
2407.804	2446.75
2411.597	2446.75
2415.388	2426.75
2419.174	2409.75
2422.958	2419.75
2426.738	2414.75
2430.515	2412.75
2434.289	2380.75
2438.059	2404.75
2441.825	2369.75
2445.589	2371.75
2449.349	2356.75
2453.106	2328.75
2456.859	2330.75
2460.61	2325.75
2464.356	2277.75
2468.1	2279.75
2471.84	2240.75
2475.577	2244.75
2479.311	2247.75
2483.041	2242.75
2486.768	2237.75
2490.492	2253.75
2494.213	2231.75
2497.93	2243.75
2501.644	2237.75
2505.355	2244.75
2509.062	2236.75
2512.766	2237.75
2516.467	2239.75
2520.165	2219.75
2523.859	2213.75
2527.551	2192.75
2531.239	2181.75
2534.923	2182.75
2538.605	2158.75
2542.283	2143.75
2545.958	2120.75
2549.63	2153.75
2553.299	2128.75
2556.964	2112.75
2560.626	2097.75
2564.285	2085.75
2567.941	2071.75
2571.594	2067.75
2575.243	2074.75
2578.89	2070.75
2582.533	2036.75
2586.173	2013.75
2589.809	2012.75
2593.443	2019.75
2597.073	1983.75
2600.701	1983.75
2604.325	1995.75
2607.946	1963.75
2611.564	1989.75
2615.178	1979.75
2618.79	1947.75
2622.398	1965.75
2626.004	1937.75
2629.606	1950.75
2633.205	1921.75
2636.801	1889.75
2640.394	1897.75
2643.983	1892.75
2647.57	1843.75
2651.153	1819.75
2654.734	1807.75
2658.311	1787.75
2661.885	1787.75
2665.456	1750.75
2669.025	1737.75
2672.589	1741.75
2676.151	1735.75
2679.71	1718.75
2683.266	1711.75
2686.819	1691.75
2690.368	1670.75
2693.915	1638.75
2697.458	1632.75
2700.999	1608.75
2704.536	1586.75
2708.071	1552.75
2711.602	1553.75
2715.13	1536.75
2718.656	1513.75
2722.178	1512.75
2725.697	1522.75
2729.214	1518.75
2732.727	1524.75
2736.237	1530.75
2739.744	1538.75
2743.249	1536.75
2746.75	1536.75
2750.248	1534.75
2753.743	1533.75
2757.236	1540.75
2760.725	1536.75
2764.211	1526.75
2767.695	1529.75
2771.175	1513.75
2774.652	1495.75
2778.127	1494.75
2781.598	1478.75
2785.067	1481.75
2788.532	1448.75
2791.995	1452.75
2795.455	1471.75
2798.911	1479.75
2802.365	1452.75
2805.816	1451.75
2809.264	1437.75
2812.709	1440.75
2816.151	1430.75
2819.59	1416.75
2823.026	1420.75
2826.46	1418.75
2829.89	1392.75
2833.318	1403.75
2836.742	1394.75
2840.164	1392.75
2843.583	1398.75
2846.999	1394.75
2850.412	1404.75
2853.822	1394.75
2857.229	1428.75
2860.634	1421.75
2864.035	1411.75
2867.434	1434.75
2870.83	1432.75
2874.223	1436.75
2877.613	1434.75
2881	1424.75
2884.385	1432.75
2887.766	1428.75
2891.145	1407.75
2894.521	1405.75
2897.894	1408.75
2901.264	1400.75
2904.631	1386.75
2907.996	1382.75
2911.358	1370.75
2914.717	1372.75
2918.073	1383.75
2921.426	1384.75
2924.777	1383.75
2928.124	1398.75
2931.469	1405.75
2934.811	1425.75
2938.15	1426.75
2941.487	1422.75
2944.821	1417.75
2948.152	1432.75
2951.48	1454.75
2954.805	1430.75
2958.128	1425.75
2961.447	1459.75
2964.765	1450.75
2968.079	1446.75
2971.39	1455.75
2974.699	1492.75
2978.005	1509.75
2981.308	1538.75
2984.609	1557.75
2987.907	1571.75
2991.202	1610.75
2994.494	1629.75
2997.784	1648.75
3001.07	1680.75
3004.355	1712.75
3007.636	1735.75
3010.915	1730.75
3014.191	1759.75
3017.464	1760.75
3020.734	1782.75
3024.002	1781.75
3027.267	1788.75
3030.53	1819.75
3033.789	1823.75
3037.046	1836.75
3040.301	1862.75
3043.552	1884.75
3046.801	1929.75
3050.048	1932.75
3053.291	1977.75
3056.532	2012.75
3059.771	2068.75
3063.006	2112.75
3066.239	2154.75
3069.469	2194.75
3072.697	2245.75
3075.922	2289.75
3079.144	2313.75
3082.364	2353.75
3085.581	2402.75
3088.795	2435.75
3092.007	2471.75
3095.216	2500.75
3098.423	2549.75
3101.627	2596.75
3104.828	2635.75
3108.026	2661.75
3111.222	2735.75
3114.416	2782.75
3117.607	2820.75
3120.795	2881.75
3123.98	2922.75
3127.163	2982.75
3130.344	3057.75
3133.521	3100.75
3136.696	3154.75
3139.869	3213.75
3143.039	3252.75
3146.206	3290.75
3149.371	3296.75
3152.533	3349.75
3155.693	3357.75
3158.85	3371.75
3162.005	3371.75
3165.157	3375.75
3168.306	3392.75
3171.453	3395.75
3174.597	3402.75
3177.739	3398.75
3180.878	3404.75
3184.014	3425.75
3187.149	3431.75
3190.28	3435.75
3193.409	3403.75
3196.536	3447.75
3199.659	3475.75
3202.781	3469.75
3205.9	3453.75
3209.016	3470.75
3212.13	3455.75
3215.241	3410.75
3218.35	3430.75
3221.456	3374.75
3224.56	3378.75
3227.661	3315.75
3230.76	3297.75
3233.856	3257.75
3236.95	3244.75
3240.041	3215.75
3243.13	3179.75
3246.216	3166.75
3249.3	3152.75
3252.382	3193.75
3255.46	3133.75
3258.537	3100.75
3261.611	3104.75
3264.682	3097.75
3267.751	3098.75
3270.818	3083.75
3273.882	3063.75
3276.943	3062.75
3280.002	3020.75
3283.059	2975.75
3286.113	2958.75
3289.165	2929.75
3292.214	2882.75
3295.261	2821.75
3298.306	2802.75
3301.348	2753.75
3304.387	2680.75
3307.425	2659.75
3310.459	2636.75
3313.492	2578.75
3316.521	2558.75
3319.549	2523.75
3322.574	2500.75
3325.597	2475.75
3328.617	2462.75
3331.635	2448.75
3334.65	2434.75
3337.663	2428.75
3340.674	2396.75
3343.682	2405.75
3346.688	2397.75
3349.691	2377.75
3352.692	2349.75
3355.691	2341.75
3358.687	2311.75
3361.681	2285.75
3364.673	2273.75
3367.662	2232.75
3370.649	2211.75
3373.633	2182.75
3376.615	2156.75
3379.595	2118.75
3382.572	2100.75
3385.547	2058.75
3388.52	2038.75
3391.49	2029.75
3394.458	1977.75
3397.424	1948.75
3400.387	1937.75
3403.348	1925.75
3406.307	1875.75
3409.263	1888.75
3412.217	1850.75
3415.168	1847.75
3418.118	1822.75
3421.065	1807.75
3424.009	1753.75
3426.951	1724.75
3429.891	1720.75
3432.829	1697.75
3435.764	1672.75
3438.697	1628.75
3441.628	1576.75
3444.557	1537.75
3447.483	1511.75
3450.407	1491.75
3453.328	1416.75
3456.247	1385.75
3459.164	1351.75
3462.079	1322.75
3464.991	1251.75
3467.902	1231.75
3470.809	1202.75
3473.715	1176.75
3476.618	1127.75
3479.519	1107.75
3482.418	1068.75
3485.315	1042.75
3488.209	1017.75
3491.101	1011.75
3493.99	980.75
3496.878	941.75
3499.763	914.75
3502.646	897.75
3505.527	857.75
3508.405	825.75
3511.281	802.75
3514.155	767.75
3517.027	736.75
3519.897	704.75
3522.764	680.75
3525.629	627.75
3528.492	607.75
3531.352	556.75
3534.211	556.75
3537.067	507.75
3539.921	488.75
3542.773	476.75
3545.622	434.75
3548.469	413.75
3551.315	387.75
3554.157	371.75
3556.998	395.75
3559.837	428.75
3562.673	311.75
3565.507	293.75
3568.339	271.75
3571.169	263.75
3573.996	237.75
3576.822	219.75
3579.645	205.75
3582.466	207.75
3585.285	176.75
3588.101	155.75
3590.916	141.75
3593.728	132.75
3596.538	111.75
3599.346	94.75
3602.152	84.75
3604.956	78.75
3607.757	67.75
3610.556	50.75
3613.354	35.75
3616.149	33.75
3618.942	12.75
3621.732	9.75
3624.521	-8.25
3627.307	-9.25
3630.092	-5.25
3632.874	-22.25
3635.654	-30.25
3638.432	-35.25
3641.208	-45.25
3643.982	-44.25
3646.753	-63.25
3649.523	-66.25
3652.29	-77.25
3655.055	-84.25
3657.818	-94.25
3660.579	-110.25
3663.338	-113.25
3666.095	-112.25
3668.849	-126.25
3671.602	-137.25
3674.352	-134.25
3677.101	-138.25
3679.847	-151.25
3682.591	-163.25
3685.333	-163.25
3688.073	-170.25
3690.811	-172.25
3693.547	-176.25
3696.281	-182.25
3699.013	-178.25
3701.742	-186.25
3704.47	-190.25
3707.195	-196.25
3709.919	-200.25
3712.64	-201.25
3715.359	-203.25
3718.076	-206.25
3720.792	-208.25
3723.505	-213.25
3726.216	-215.25
3728.925	-221.25
3731.632	-219.25
3734.336	-225.25
3737.039	-226.25
3739.74	-232.25
3742.439	-236.25
3745.136	-223.25
3747.83	-235.25
3750.523	-236.25
3753.213	-233.25
3755.902	-234.25
3758.589	-240.25
3761.273	-235.25
3763.956	-244.25
3766.636	-240.25
3769.315	-250.25
3771.991	-246.25
3774.665	-241.25
3777.338	-252.25
3780.008	-248.25
3782.677	-251.25
3785.343	-249.25
3788.007	-253.25
3790.67	-254.25
3793.33	-257.25
3795.989	-251.25
3798.645	-251.25
3801.299	-259.25
3803.952	-259.25
3806.602	-264.25
3809.251	-258.25
3811.897	-266.25
3814.542	-268.25
3817.184	-269.25
3819.825	-263.25
3822.463	-268.25
3825.1	-270.25
3827.735	-274.25
3830.367	-276.25
3832.998	-273.25
3835.627	-272.25
3838.253	-275.25
3840.878	-275.25
3843.501	-278.25
3846.122	-278.25
3848.741	-280.25
3851.358	-276.25
3853.973	-282.25
3856.586	-283.25
3859.197	-281.25
3861.806	-284.25
3864.414	-280.25
3867.019	-284.25
3869.622	-280.25
3872.224	-284.25
3874.823	-285.25
3877.421	-275.25
3880.016	-267.25
3882.61	-269.25
3885.202	-264.25
3887.792	-266.25
3890.38	-280.25
3892.966	-279.25
3895.55	-286.25
3898.132	-288.25
3900.713	-287.25
3903.291	-288.25
3905.868	-292.25
3908.442	-291.25
3911.015	-292.25
3913.586	-294.25
3916.155	-292.25
3918.722	-291.25
3921.287	-288.25
3923.85	-293.25
3926.411	-295.25
3928.971	-300.25
3931.528	-292.25
3934.084	-298.25
3936.638	-294.25
3939.19	-292.25
3941.74	-298.25
3944.288	-296.25
3946.834	-298.25
3949.378	-299.25
3951.921	-300.25
3954.462	-301.25
3957	-299.25
3959.537	-299.25
3962.072	-295.25
3964.606	-300.25
3967.137	-299.25
3969.667	-295.25
3972.194	-296.25
3974.72	-299.25
3977.244	-297.25
3979.766	-296.25
3982.286	-297.25
3984.805	-293.25
3987.321	-293.25
3989.836	-299.25
3992.349	-295.25
3994.86	-292.25
3997.369	-293.25
3999.877	-294.25
4002.382	-302.25
4004.886	-292.25
4007.388	-293.25
4009.888	-295.25
4012.386	-294.25
4014.883	-297.25
4017.377	-293.25
4019.87	-290.25
4022.361	-289.25
4024.85	-290.25
4027.338	-292.25
4029.823	-299.25
4032.307	-295.25
4034.789	-293.25
4037.269	-293.25
4039.747	-297.25
4042.224	-297.25
4044.699	-290.25
4047.172	-293.25
4049.643	-295.25
4052.112	-290.25
4054.58	-292.25
4057.046	-294.25
4059.51	-295.25
4061.972	-301.25
4064.432	-297.25
4066.891	-293.25
4069.348	-291.25
4071.803	-297.25
4074.256	-297.25
4076.708	-297.25
4079.158	-300.25
4081.606	-298.25
4084.052	-295.25
4086.497	-300.25
4088.939	-300.25
4091.38	-304.25
4093.819	-297.25
4096.257	-315.25
4098.693	-314.25
4101.127	-313.25
4103.559	-313.25
4105.989	-200.25
4108.418	-200.25
4110.845	-174.25
4113.27	-159.25
4115.694	-144.25
4118.115	-121.25
4120.535	-298.25
4122.954	-303.25
4125.37	-299.25
4127.785	-303.25
4130.198	-299.25
4132.609	-302.25
4135.019	-315.25
4137.427	-313.25
4139.833	-312.25
4142.237	-317.25
