Data from 100000000CFU1_A_RamanShift_1.txt Node
Date: Wed Jan 25 12:09:30 IST 2017
User: aro
Spectrometer: QEPB0276
Trigger mode: 0
Integration Time (sec): 5.000000E0
Scans to average: 1
Electric dark correction enabled: true
Nonlinearity correction enabled: false
Boxcar width: 0
XAxis mode: Raman Shifts
Number of Pixels in Spectrum: 1044
>>>>>Begin Spectral Data<<<<<
160.701	-25.25
166.742	-6.25
172.777	70.75
178.805	287.75
184.826	774.75
190.841	1554.75
196.849	2398.75
202.85	2934.75
208.845	3033.75
214.833	2940.75
220.815	2841.75
226.789	2757.75
232.758	2680.75
238.719	2600.75
244.674	2512.75
250.623	2393.75
256.565	2294.75
262.5	2196.75
268.429	2104.75
274.351	2038.75
280.267	1952.75
286.176	1900.75
292.079	1838.75
297.975	1769.75
303.865	1729.75
309.748	1691.75
315.625	1649.75
321.495	1622.75
327.359	1584.75
333.217	1580.75
339.068	1579.75
344.912	1548.75
350.751	1547.75
356.583	1555.75
362.408	1546.75
368.227	1556.75
374.04	1558.75
379.847	1571.75
385.647	1577.75
391.44	1580.75
397.228	1599.75
403.009	1606.75
408.784	1603.75
414.553	1618.75
420.315	1612.75
426.071	1602.75
431.821	1611.75
437.565	1615.75
443.302	1601.75
449.033	1599.75
454.758	1604.75
460.477	1590.75
466.189	1588.75
471.896	1567.75
477.596	1567.75
483.29	1559.75
488.978	1563.75
494.66	1550.75
500.335	1506.75
506.005	1484.75
511.668	1453.75
517.325	1429.75
522.977	1404.75
528.622	1380.75
534.261	1360.75
539.894	1348.75
545.521	1337.75
551.141	1319.75
556.756	1327.75
562.365	1304.75
567.968	1302.75
573.565	1297.75
579.155	1276.75
584.74	1286.75
590.319	1263.75
595.892	1267.75
601.459	1270.75
607.02	1249.75
612.575	1232.75
618.124	1220.75
623.667	1196.75
629.204	1185.75
634.735	1191.75
640.261	1174.75
645.781	1167.75
651.294	1165.75
656.802	1159.75
662.304	1160.75
667.8	1169.75
673.29	1148.75
678.775	1143.75
684.254	1137.75
689.726	1138.75
695.193	1121.75
700.655	1117.75
706.11	1096.75
711.56	1089.75
717.004	1097.75
722.442	1104.75
727.874	1097.75
733.301	1080.75
738.722	1076.75
744.137	1066.75
749.547	1076.75
754.951	1052.75
760.349	1082.75
765.741	1062.75
771.128	1063.75
776.509	1068.75
781.885	1068.75
787.254	1064.75
792.618	1055.75
797.977	1070.75
803.33	1041.75
808.677	1027.75
814.019	1031.75
819.355	1014.75
824.686	1011.75
830.011	1009.75
835.33	990.75
840.644	992.75
845.952	988.75
851.255	994.75
856.552	968.75
861.844	971.75
867.13	963.75
872.41	938.75
877.686	947.75
882.955	931.75
888.219	924.75
893.478	912.75
898.731	895.75
903.979	875.75
909.221	875.75
914.458	861.75
919.69	862.75
924.916	870.75
930.136	855.75
935.351	858.75
940.561	859.75
945.766	871.75
950.965	854.75
956.158	836.75
961.347	837.75
966.529	814.75
971.707	802.75
976.879	791.75
982.046	791.75
987.208	793.75
992.364	783.75
997.515	794.75
1002.66	790.75
1007.801	803.75
1012.936	816.75
1018.066	813.75
1023.19	821.75
1028.309	836.75
1033.423	821.75
1038.532	823.75
1043.636	812.75
1048.734	818.75
1053.827	791.75
1058.915	793.75
1063.998	785.75
1069.075	788.75
1074.147	784.75
1079.214	780.75
1084.276	804.75
1089.333	808.75
1094.385	815.75
1099.431	808.75
1104.472	814.75
1109.509	800.75
1114.54	795.75
1119.565	783.75
1124.586	773.75
1129.602	780.75
1134.613	766.75
1139.618	765.75
1144.619	754.75
1149.614	751.75
1154.604	759.75
1159.589	770.75
1164.57	792.75
1169.545	781.75
1174.515	779.75
1179.48	781.75
1184.44	776.75
1189.395	763.75
1194.345	770.75
1199.29	749.75
1204.23	775.75
1209.165	761.75
1214.095	766.75
1219.021	774.75
1223.941	791.75
1228.856	781.75
1233.766	790.75
1238.672	804.75
1243.572	799.75
1248.467	786.75
1253.358	777.75
1258.244	764.75
1263.124	745.75
1268	757.75
1272.871	739.75
1277.737	727.75
1282.599	722.75
1287.455	735.75
1292.306	726.75
1297.153	738.75
1301.995	758.75
1306.832	755.75
1311.664	754.75
1316.491	738.75
1321.314	750.75
1326.132	740.75
1330.945	732.75
1335.753	722.75
1340.556	715.75
1345.354	714.75
1350.148	701.75
1354.937	697.75
1359.722	697.75
1364.501	677.75
1369.276	688.75
1374.046	677.75
1378.811	690.75
1383.572	685.75
1388.327	679.75
1393.079	665.75
1397.825	672.75
1402.567	676.75
1407.304	654.75
1412.036	656.75
1416.764	652.75
1421.487	652.75
1426.205	648.75
1430.919	660.75
1435.628	670.75
1440.333	667.75
1445.032	674.75
1449.727	684.75
1454.418	687.75
1459.104	684.75
1463.785	685.75
1468.462	670.75
1473.134	662.75
1477.802	668.75
1482.465	663.75
1487.123	654.75
1491.777	666.75
1496.426	670.75
1501.071	677.75
1505.711	668.75
1510.347	689.75
1514.978	688.75
1519.604	689.75
1524.226	698.75
1528.844	714.75
1533.457	702.75
1538.065	707.75
1542.669	695.75
1547.269	703.75
1551.864	705.75
1556.454	714.75
1561.041	724.75
1565.622	711.75
1570.199	731.75
1574.772	738.75
1579.34	758.75
1583.904	758.75
1588.464	781.75
1593.019	789.75
1597.569	803.75
1602.115	797.75
1606.657	812.75
1611.195	815.75
1615.728	819.75
1620.256	838.75
1624.78	834.75
1629.3	860.75
1633.816	882.75
1638.327	889.75
1642.834	890.75
1647.336	896.75
1651.834	902.75
1656.328	897.75
1660.817	890.75
1665.302	885.75
1669.783	855.75
1674.259	840.75
1678.732	814.75
1683.199	784.75
1687.663	760.75
1692.122	742.75
1696.577	724.75
1701.028	692.75
1705.474	655.75
1709.917	641.75
1714.355	635.75
1718.788	622.75
1723.218	606.75
1727.643	584.75
1732.064	577.75
1736.481	554.75
1740.893	545.75
1745.301	531.75
1749.705	520.75
1754.105	510.75
1758.501	498.75
1762.893	485.75
1767.28	480.75
1771.663	473.75
1776.042	477.75
1780.417	468.75
1784.787	470.75
1789.154	479.75
1793.516	464.75
1797.874	472.75
1802.228	475.75
1806.578	469.75
1810.924	459.75
1815.266	446.75
1819.603	437.75
1823.937	430.75
1828.266	427.75
1832.591	435.75
1836.913	437.75
1841.23	421.75
1845.543	425.75
1849.852	424.75
1854.156	433.75
1858.457	431.75
1862.754	427.75
1867.047	434.75
1871.335	436.75
1875.62	438.75
1879.9	431.75
1884.177	434.75
1888.449	442.75
1892.718	426.75
1896.982	432.75
1901.243	426.75
1905.499	429.75
1909.752	428.75
1914	429.75
1918.245	423.75
1922.485	423.75
1926.722	439.75
1930.954	432.75
1935.183	439.75
1939.408	442.75
1943.628	433.75
1947.845	443.75
1952.058	441.75
1956.267	440.75
1960.472	425.75
1964.673	415.75
1968.87	417.75
1973.063	414.75
1977.252	415.75
1981.438	412.75
1985.619	416.75
1989.797	411.75
1993.971	410.75
1998.14	403.75
2002.306	415.75
2006.469	422.75
2010.627	417.75
2014.781	419.75
2018.932	419.75
2023.078	411.75
2027.221	422.75
2031.36	421.75
2035.495	403.75
2039.627	412.75
2043.754	410.75
2047.878	398.75
2051.998	413.75
2056.114	416.75
2060.226	401.75
2064.334	409.75
2068.439	402.75
2072.54	417.75
2076.637	414.75
2080.73	413.75
2084.82	426.75
2088.906	414.75
2092.988	426.75
2097.066	414.75
2101.14	415.75
2105.211	407.75
2109.278	413.75
2113.342	409.75
2117.401	417.75
2121.457	406.75
2125.509	402.75
2129.558	401.75
2133.602	399.75
2137.643	391.75
2141.681	393.75
2145.714	405.75
2149.744	385.75
2153.77	384.75
2157.793	390.75
2161.812	385.75
2165.827	373.75
2169.838	369.75
2173.846	374.75
2177.851	364.75
2181.851	367.75
2185.848	360.75
2189.841	355.75
2193.831	348.75
2197.817	344.75
2201.799	348.75
2205.778	331.75
2209.753	339.75
2213.725	329.75
2217.693	333.75
2221.657	341.75
2225.618	331.75
2229.575	330.75
2233.529	339.75
2237.479	334.75
2241.425	337.75
2245.368	324.75
2249.307	322.75
2253.243	318.75
2257.175	310.75
2261.104	308.75
2265.029	303.75
2268.95	292.75
2272.868	292.75
2276.783	290.75
2280.694	289.75
2284.601	288.75
2288.505	284.75
2292.405	277.75
2296.302	268.75
2300.195	276.75
2304.085	264.75
2307.971	262.75
2311.854	257.75
2315.734	257.75
2319.609	245.75
2323.482	236.75
2327.351	240.75
2331.216	251.75
2335.078	240.75
2338.937	239.75
2342.792	230.75
2346.643	226.75
2350.492	231.75
2354.336	236.75
2358.178	236.75
2362.015	231.75
2365.85	237.75
2369.681	228.75
2373.508	235.75
2377.333	231.75
2381.153	234.75
2384.971	233.75
2388.785	225.75
2392.595	228.75
2396.402	225.75
2400.206	222.75
2404.007	224.75
2407.804	220.75
2411.597	223.75
2415.388	223.75
2419.174	221.75
2422.958	224.75
2426.738	217.75
2430.515	219.75
2434.289	219.75
2438.059	222.75
2441.825	210.75
2445.589	205.75
2449.349	215.75
2453.106	209.75
2456.859	208.75
2460.61	212.75
2464.356	201.75
2468.1	199.75
2471.84	192.75
2475.577	189.75
2479.311	191.75
2483.041	198.75
2486.768	196.75
2490.492	192.75
2494.213	194.75
2497.93	200.75
2501.644	194.75
2505.355	198.75
2509.062	197.75
2512.766	191.75
2516.467	200.75
2520.165	203.75
2523.859	198.75
2527.551	196.75
2531.239	193.75
2534.923	191.75
2538.605	180.75
2542.283	180.75
2545.958	174.75
2549.63	181.75
2553.299	178.75
2556.964	186.75
2560.626	177.75
2564.285	180.75
2567.941	173.75
2571.594	175.75
2575.243	180.75
2578.89	168.75
2582.533	175.75
2586.173	171.75
2589.809	172.75
2593.443	164.75
2597.073	170.75
2600.701	161.75
2604.325	162.75
2607.946	162.75
2611.564	165.75
2615.178	163.75
2618.79	165.75
2622.398	158.75
2626.004	166.75
2629.606	161.75
2633.205	157.75
2636.801	158.75
2640.394	156.75
2643.983	159.75
2647.57	152.75
2651.153	150.75
2654.734	147.75
2658.311	145.75
2661.885	143.75
2665.456	139.75
2669.025	139.75
2672.589	141.75
2676.151	140.75
2679.71	137.75
2683.266	138.75
2686.819	133.75
2690.368	133.75
2693.915	137.75
2697.458	135.75
2700.999	132.75
2704.536	136.75
2708.071	127.75
2711.602	126.75
2715.13	124.75
2718.656	126.75
2722.178	125.75
2725.697	129.75
2729.214	125.75
2732.727	122.75
2736.237	133.75
2739.744	128.75
2743.249	131.75
2746.75	129.75
2750.248	138.75
2753.743	128.75
2757.236	132.75
2760.725	124.75
2764.211	122.75
2767.695	129.75
2771.175	122.75
2774.652	123.75
2778.127	117.75
2781.598	126.75
2785.067	122.75
2788.532	120.75
2791.995	126.75
2795.455	129.75
2798.911	133.75
2802.365	132.75
2805.816	129.75
2809.264	129.75
2812.709	135.75
2816.151	128.75
2819.59	124.75
2823.026	130.75
2826.46	127.75
2829.89	123.75
2833.318	126.75
2836.742	129.75
2840.164	136.75
2843.583	128.75
2846.999	134.75
2850.412	144.75
2853.822	143.75
2857.229	139.75
2860.634	139.75
2864.035	141.75
2867.434	141.75
2870.83	146.75
2874.223	155.75
2877.613	153.75
2881	145.75
2884.385	155.75
2887.766	145.75
2891.145	145.75
2894.521	149.75
2897.894	147.75
2901.264	158.75
2904.631	150.75
2907.996	160.75
2911.358	161.75
2914.717	171.75
2918.073	170.75
2921.426	170.75
2924.777	173.75
2928.124	169.75
2931.469	180.75
2934.811	171.75
2938.15	184.75
2941.487	179.75
2944.821	180.75
2948.152	185.75
2951.48	193.75
2954.805	186.75
2958.128	189.75
2961.447	198.75
2964.765	205.75
2968.079	214.75
2971.39	221.75
2974.699	223.75
2978.005	219.75
2981.308	231.75
2984.609	237.75
2987.907	246.75
2991.202	256.75
2994.494	260.75
2997.784	266.75
3001.07	279.75
3004.355	281.75
3007.636	282.75
3010.915	290.75
3014.191	297.75
3017.464	309.75
3020.734	318.75
3024.002	315.75
3027.267	316.75
3030.53	323.75
3033.789	339.75
3037.046	346.75
3040.301	353.75
3043.552	359.75
3046.801	368.75
3050.048	377.75
3053.291	382.75
3056.532	395.75
3059.771	398.75
3063.006	421.75
3066.239	430.75
3069.469	451.75
3072.697	462.75
3075.922	480.75
3079.144	489.75
3082.364	498.75
3085.581	517.75
3088.795	532.75
3092.007	531.75
3095.216	539.75
3098.423	554.75
3101.627	564.75
3104.828	581.75
3108.026	600.75
3111.222	599.75
3114.416	621.75
3117.607	640.75
3120.795	646.75
3123.98	673.75
3127.163	687.75
3130.344	703.75
3133.521	721.75
3136.696	731.75
3139.869	746.75
3143.039	763.75
3146.206	764.75
3149.371	781.75
3152.533	787.75
3155.693	787.75
3158.85	793.75
3162.005	794.75
3165.157	800.75
3168.306	812.75
3171.453	811.75
3174.597	812.75
3177.739	822.75
3180.878	824.75
3184.014	820.75
3187.149	836.75
3190.28	821.75
3193.409	836.75
3196.536	838.75
3199.659	822.75
3202.781	839.75
3205.9	836.75
3209.016	831.75
3212.13	833.75
3215.241	836.75
3218.35	824.75
3221.456	814.75
3224.56	815.75
3227.661	808.75
3230.76	800.75
3233.856	789.75
3236.95	781.75
3240.041	775.75
3243.13	774.75
3246.216	763.75
3249.3	768.75
3252.382	761.75
3255.46	754.75
3258.537	749.75
3261.611	748.75
3264.682	740.75
3267.751	736.75
3270.818	740.75
3273.882	741.75
3276.943	729.75
3280.002	719.75
3283.059	725.75
3286.113	708.75
3289.165	707.75
3292.214	694.75
3295.261	687.75
3298.306	667.75
3301.348	661.75
3304.387	646.75
3307.425	640.75
3310.459	638.75
3313.492	623.75
3316.521	613.75
3319.549	606.75
3322.574	598.75
3325.597	595.75
3328.617	597.75
3331.635	588.75
3334.65	587.75
3337.663	582.75
3340.674	590.75
3343.682	585.75
3346.688	591.75
3349.691	574.75
3352.692	579.75
3355.691	577.75
3358.687	554.75
3361.681	565.75
3364.673	548.75
3367.662	538.75
3370.649	530.75
3373.633	521.75
3376.615	521.75
3379.595	511.75
3382.572	505.75
3385.547	506.75
3388.52	494.75
3391.49	490.75
3394.458	489.75
3397.424	477.75
3400.387	472.75
3403.348	466.75
3406.307	461.75
3409.263	453.75
3412.217	450.75
3415.168	447.75
3418.118	445.75
3421.065	434.75
3424.009	429.75
3426.951	418.75
3429.891	417.75
3432.829	407.75
3435.764	407.75
3438.697	387.75
3441.628	386.75
3444.557	378.75
3447.483	369.75
3450.407	350.75
3453.328	350.75
3456.247	333.75
3459.164	326.75
3462.079	318.75
3464.991	303.75
3467.902	298.75
3470.809	284.75
3473.715	267.75
3476.618	269.75
3479.519	267.75
3482.418	249.75
3485.315	246.75
3488.209	245.75
3491.101	234.75
3493.99	225.75
3496.878	218.75
3499.763	210.75
3502.646	202.75
3505.527	203.75
3508.405	195.75
3511.281	185.75
3514.155	170.75
3517.027	165.75
3519.897	160.75
3522.764	149.75
3525.629	141.75
3528.492	131.75
3531.352	128.75
3534.211	121.75
3537.067	110.75
3539.921	112.75
3542.773	96.75
3545.622	97.75
3548.469	93.75
3551.315	84.75
3554.157	80.75
3556.998	65.75
3559.837	67.75
3562.673	62.75
3565.507	57.75
3568.339	50.75
3571.169	50.75
3573.996	47.75
3576.822	38.75
3579.645	39.75
3582.466	36.75
3585.285	33.75
3588.101	31.75
3590.916	23.75
3593.728	19.75
3596.538	18.75
3599.346	3.75
3602.152	6.75
3604.956	6.75
3607.757	4.75
3610.556	0.75
3613.354	-2.25
3616.149	-4.25
3618.942	-10.25
3621.732	-5.25
3624.521	-7.25
3627.307	-16.25
3630.092	-14.25
3632.874	-18.25
3635.654	-22.25
3638.432	-23.25
3641.208	-27.25
3643.982	-24.25
3646.753	-30.25
3649.523	-29.25
3652.29	-23.25
3655.055	-35.25
3657.818	-31.25
3660.579	-28.25
3663.338	-35.25
3666.095	-34.25
3668.849	-39.25
3671.602	-43.25
3674.352	-46.25
3677.101	-45.25
3679.847	-48.25
3682.591	-51.25
3685.333	-50.25
3688.073	-58.25
3690.811	-52.25
3693.547	-56.25
3696.281	-54.25
3699.013	-57.25
3701.742	-54.25
3704.47	-58.25
3707.195	-59.25
3709.919	-55.25
3712.64	-55.25
3715.359	-59.25
3718.076	-59.25
3720.792	-64.25
3723.505	-68.25
3726.216	-64.25
3728.925	-69.25
3731.632	-62.25
3734.336	-66.25
3737.039	-68.25
3739.74	-67.25
3742.439	-66.25
3745.136	-62.25
3747.83	-61.25
3750.523	-66.25
3753.213	-66.25
3755.902	-67.25
3758.589	-69.25
3761.273	-66.25
3763.956	-69.25
3766.636	-73.25
3769.315	-73.25
3771.991	-77.25
3774.665	-73.25
3777.338	-72.25
3780.008	-73.25
3782.677	-71.25
3785.343	-71.25
3788.007	-73.25
3790.67	-69.25
3793.33	-69.25
3795.989	-68.25
3798.645	-71.25
3801.299	-71.25
3803.952	-72.25
3806.602	-73.25
3809.251	-75.25
3811.897	-75.25
3814.542	-72.25
3817.184	-73.25
3819.825	-72.25
3822.463	-73.25
3825.1	-71.25
3827.735	-72.25
3830.367	-73.25
3832.998	-76.25
3835.627	-73.25
3838.253	-74.25
3840.878	-70.25
3843.501	-76.25
3846.122	-75.25
3848.741	-75.25
3851.358	-76.25
3853.973	-77.25
3856.586	-78.25
3859.197	-76.25
3861.806	-77.25
3864.414	-75.25
3867.019	-78.25
3869.622	-76.25
3872.224	-75.25
3874.823	-72.25
3877.421	-73.25
3880.016	-69.25
3882.61	-66.25
3885.202	-66.25
3887.792	-69.25
3890.38	-73.25
3892.966	-77.25
3895.55	-76.25
3898.132	-76.25
3900.713	-80.25
3903.291	-74.25
3905.868	-78.25
3908.442	-79.25
3911.015	-77.25
3913.586	-76.25
3916.155	-74.25
3918.722	-76.25
3921.287	-75.25
3923.85	-78.25
3926.411	-77.25
3928.971	-81.25
3931.528	-78.25
3934.084	-81.25
3936.638	-82.25
3939.19	-80.25
3941.74	-76.25
3944.288	-77.25
3946.834	-80.25
3949.378	-82.25
3951.921	-79.25
3954.462	-79.25
3957	-78.25
3959.537	-81.25
3962.072	-79.25
3964.606	-76.25
3967.137	-77.25
3969.667	-82.25
3972.194	-79.25
3974.72	-74.25
3977.244	-71.25
3979.766	-77.25
3982.286	-79.25
3984.805	-80.25
3987.321	-78.25
3989.836	-80.25
3992.349	-79.25
3994.86	-78.25
3997.369	-77.25
3999.877	-77.25
4002.382	-77.25
4004.886	-75.25
4007.388	-75.25
4009.888	-78.25
4012.386	-82.25
4014.883	-78.25
4017.377	-77.25
4019.87	-78.25
4022.361	-77.25
4024.85	-78.25
4027.338	-81.25
4029.823	-76.25
4032.307	-78.25
4034.789	-80.25
4037.269	-78.25
4039.747	-79.25
4042.224	-77.25
4044.699	-82.25
4047.172	-78.25
4049.643	-79.25
4052.112	-80.25
4054.58	-80.25
4057.046	-79.25
4059.51	-76.25
4061.972	-79.25
4064.432	-79.25
4066.891	-79.25
4069.348	-79.25
4071.803	-78.25
4074.256	-80.25
4076.708	-80.25
4079.158	-78.25
4081.606	-77.25
4084.052	-78.25
4086.497	-80.25
4088.939	-78.25
4091.38	-79.25
4093.819	-78.25
4096.257	-76.25
4098.693	-78.25
4101.127	-80.25
4103.559	-80.25
4105.989	-48.25
4108.418	-49.25
4110.845	-48.25
4113.27	-46.25
4115.694	-42.25
4118.115	-36.25
4120.535	-77.25
4122.954	-85.25
4125.37	-78.25
4127.785	-78.25
4130.198	-78.25
4132.609	-81.25
4135.019	-82.25
4137.427	-81.25
4139.833	-82.25
4142.237	-81.25
