Data from 100000000CFU2_B_RamanShift_2.txt Node
Date: Wed Jan 25 12:49:25 IST 2017
User: aro
Spectrometer: QEPB0276
Trigger mode: 0
Integration Time (sec): 5.000000E0
Scans to average: 1
Electric dark correction enabled: true
Nonlinearity correction enabled: false
Boxcar width: 0
XAxis mode: Raman Shifts
Number of Pixels in Spectrum: 1044
>>>>>Begin Spectral Data<<<<<
160.701	-26.5
166.742	-1.5
172.777	71.5
178.805	297.5
184.826	804.5
190.841	1634.5
196.849	2561.5
202.85	3141.5
208.845	3255.5
214.833	3142.5
220.815	3006.5
226.789	2916.5
232.758	2859.5
238.719	2774.5
244.674	2669.5
250.623	2564.5
256.565	2450.5
262.5	2341.5
268.429	2251.5
274.351	2157.5
280.267	2076.5
286.176	2016.5
292.079	1947.5
297.975	1901.5
303.865	1825.5
309.748	1792.5
315.625	1736.5
321.495	1708.5
327.359	1693.5
333.217	1666.5
339.068	1664.5
344.912	1664.5
350.751	1629.5
356.583	1635.5
362.408	1646.5
368.227	1638.5
374.04	1647.5
379.847	1654.5
385.647	1648.5
391.44	1648.5
397.228	1687.5
403.009	1693.5
408.784	1699.5
414.553	1712.5
420.315	1703.5
426.071	1720.5
431.821	1699.5
437.565	1696.5
443.302	1695.5
449.033	1685.5
454.758	1690.5
460.477	1685.5
466.189	1674.5
471.896	1677.5
477.596	1645.5
483.29	1645.5
488.978	1651.5
494.66	1635.5
500.335	1608.5
506.005	1584.5
511.668	1537.5
517.325	1507.5
522.977	1475.5
528.622	1464.5
534.261	1438.5
539.894	1423.5
545.521	1408.5
551.141	1406.5
556.756	1381.5
562.365	1400.5
567.968	1375.5
573.565	1370.5
579.155	1370.5
584.74	1350.5
590.319	1339.5
595.892	1352.5
601.459	1325.5
607.02	1309.5
612.575	1309.5
618.124	1294.5
623.667	1273.5
629.204	1277.5
634.735	1250.5
640.261	1241.5
645.781	1233.5
651.294	1237.5
656.802	1239.5
662.304	1225.5
667.8	1235.5
673.29	1231.5
678.775	1213.5
684.254	1200.5
689.726	1197.5
695.193	1207.5
700.655	1199.5
706.11	1175.5
711.56	1171.5
717.004	1158.5
722.442	1164.5
727.874	1147.5
733.301	1142.5
738.722	1133.5
744.137	1122.5
749.547	1132.5
754.951	1141.5
760.349	1131.5
765.741	1131.5
771.128	1140.5
776.509	1126.5
781.885	1136.5
787.254	1134.5
792.618	1135.5
797.977	1125.5
803.33	1107.5
808.677	1099.5
814.019	1104.5
819.355	1085.5
824.686	1075.5
830.011	1079.5
835.33	1047.5
840.644	1042.5
845.952	1042.5
851.255	1049.5
856.552	1037.5
861.844	1027.5
867.13	1027.5
872.41	1018.5
877.686	1004.5
882.955	1014.5
888.219	998.5
893.478	966.5
898.731	964.5
903.979	935.5
909.221	927.5
914.458	922.5
919.69	929.5
924.916	929.5
930.136	919.5
935.351	907.5
940.561	917.5
945.766	914.5
950.965	915.5
956.158	886.5
961.347	889.5
966.529	866.5
971.707	850.5
976.879	841.5
982.046	843.5
987.208	849.5
992.364	843.5
997.515	834.5
1002.66	847.5
1007.801	850.5
1012.936	874.5
1018.066	883.5
1023.19	879.5
1028.309	877.5
1033.423	867.5
1038.532	870.5
1043.636	853.5
1048.734	847.5
1053.827	849.5
1058.915	841.5
1063.998	842.5
1069.075	825.5
1074.147	829.5
1079.214	841.5
1084.276	854.5
1089.333	843.5
1094.385	866.5
1099.431	863.5
1104.472	877.5
1109.509	865.5
1114.54	859.5
1119.565	845.5
1124.586	826.5
1129.602	811.5
1134.613	814.5
1139.618	810.5
1144.619	822.5
1149.614	822.5
1154.604	826.5
1159.589	823.5
1164.57	822.5
1169.545	832.5
1174.515	832.5
1179.48	828.5
1184.44	836.5
1189.395	818.5
1194.345	811.5
1199.29	826.5
1204.23	808.5
1209.165	816.5
1214.095	816.5
1219.021	829.5
1223.941	829.5
1228.856	846.5
1233.766	848.5
1238.672	845.5
1243.572	833.5
1248.467	833.5
1253.358	823.5
1258.244	817.5
1263.124	802.5
1268	787.5
1272.871	789.5
1277.737	777.5
1282.599	781.5
1287.455	785.5
1292.306	789.5
1297.153	776.5
1301.995	792.5
1306.832	800.5
1311.664	803.5
1316.491	796.5
1321.314	800.5
1326.132	787.5
1330.945	796.5
1335.753	764.5
1340.556	766.5
1345.354	770.5
1350.148	756.5
1354.937	739.5
1359.722	734.5
1364.501	734.5
1369.276	726.5
1374.046	716.5
1378.811	720.5
1383.572	735.5
1388.327	733.5
1393.079	729.5
1397.825	721.5
1402.567	710.5
1407.304	706.5
1412.036	707.5
1416.764	700.5
1421.487	702.5
1426.205	711.5
1430.919	711.5
1435.628	725.5
1440.333	724.5
1445.032	728.5
1449.727	730.5
1454.418	753.5
1459.104	736.5
1463.785	731.5
1468.462	719.5
1473.134	731.5
1477.802	708.5
1482.465	695.5
1487.123	714.5
1491.777	713.5
1496.426	718.5
1501.071	725.5
1505.711	728.5
1510.347	730.5
1514.978	738.5
1519.604	757.5
1524.226	750.5
1528.844	760.5
1533.457	741.5
1538.065	753.5
1542.669	740.5
1547.269	743.5
1551.864	752.5
1556.454	765.5
1561.041	766.5
1565.622	770.5
1570.199	779.5
1574.772	801.5
1579.34	813.5
1583.904	819.5
1588.464	836.5
1593.019	848.5
1597.569	850.5
1602.115	865.5
1606.657	874.5
1611.195	877.5
1615.728	876.5
1620.256	913.5
1624.78	921.5
1629.3	926.5
1633.816	939.5
1638.327	947.5
1642.834	964.5
1647.336	973.5
1651.834	972.5
1656.328	965.5
1660.817	980.5
1665.302	939.5
1669.783	911.5
1674.259	913.5
1678.732	892.5
1683.199	854.5
1687.663	811.5
1692.122	789.5
1696.577	768.5
1701.028	739.5
1705.474	694.5
1709.917	686.5
1714.355	671.5
1718.788	661.5
1723.218	653.5
1727.643	642.5
1732.064	628.5
1736.481	605.5
1740.893	591.5
1745.301	580.5
1749.705	567.5
1754.105	546.5
1758.501	541.5
1762.893	532.5
1767.28	523.5
1771.663	512.5
1776.042	524.5
1780.417	508.5
1784.787	518.5
1789.154	509.5
1793.516	509.5
1797.874	517.5
1802.228	511.5
1806.578	502.5
1810.924	501.5
1815.266	495.5
1819.603	477.5
1823.937	483.5
1828.266	464.5
1832.591	458.5
1836.913	452.5
1841.23	454.5
1845.543	460.5
1849.852	463.5
1854.156	469.5
1858.457	467.5
1862.754	469.5
1867.047	469.5
1871.335	473.5
1875.62	474.5
1879.9	474.5
1884.177	477.5
1888.449	473.5
1892.718	474.5
1896.982	481.5
1901.243	477.5
1905.499	464.5
1909.752	474.5
1914	465.5
1918.245	460.5
1922.485	467.5
1926.722	468.5
1930.954	476.5
1935.183	467.5
1939.408	472.5
1943.628	470.5
1947.845	481.5
1952.058	481.5
1956.267	485.5
1960.472	468.5
1964.673	460.5
1968.87	459.5
1973.063	456.5
1977.252	452.5
1981.438	457.5
1985.619	456.5
1989.797	444.5
1993.971	443.5
1998.14	452.5
2002.306	446.5
2006.469	453.5
2010.627	455.5
2014.781	465.5
2018.932	463.5
2023.078	453.5
2027.221	453.5
2031.36	453.5
2035.495	444.5
2039.627	449.5
2043.754	446.5
2047.878	442.5
2051.998	443.5
2056.114	448.5
2060.226	455.5
2064.334	451.5
2068.439	455.5
2072.54	449.5
2076.637	457.5
2080.73	459.5
2084.82	459.5
2088.906	461.5
2092.988	458.5
2097.066	455.5
2101.14	455.5
2105.211	444.5
2109.278	444.5
2113.342	435.5
2117.401	451.5
2121.457	446.5
2125.509	438.5
2129.558	440.5
2133.602	433.5
2137.643	434.5
2141.681	438.5
2145.714	432.5
2149.744	427.5
2153.77	427.5
2157.793	431.5
2161.812	420.5
2165.827	411.5
2169.838	412.5
2173.846	409.5
2177.851	398.5
2181.851	400.5
2185.848	393.5
2189.841	388.5
2193.831	382.5
2197.817	378.5
2201.799	373.5
2205.778	365.5
2209.753	376.5
2213.725	370.5
2217.693	363.5
2221.657	372.5
2225.618	376.5
2229.575	370.5
2233.529	374.5
2237.479	370.5
2241.425	365.5
2245.368	356.5
2249.307	356.5
2253.243	346.5
2257.175	338.5
2261.104	333.5
2265.029	335.5
2268.95	332.5
2272.868	321.5
2276.783	323.5
2280.694	315.5
2284.601	316.5
2288.505	310.5
2292.405	307.5
2296.302	298.5
2300.195	297.5
2304.085	292.5
2307.971	290.5
2311.854	287.5
2315.734	286.5
2319.609	273.5
2323.482	270.5
2327.351	267.5
2331.216	266.5
2335.078	268.5
2338.937	261.5
2342.792	256.5
2346.643	259.5
2350.492	254.5
2354.336	257.5
2358.178	262.5
2362.015	263.5
2365.85	262.5
2369.681	262.5
2373.508	268.5
2377.333	265.5
2381.153	263.5
2384.971	257.5
2388.785	264.5
2392.595	265.5
2396.402	256.5
2400.206	255.5
2404.007	251.5
2407.804	252.5
2411.597	242.5
2415.388	243.5
2419.174	243.5
2422.958	244.5
2426.738	247.5
2430.515	244.5
2434.289	245.5
2438.059	250.5
2441.825	246.5
2445.589	246.5
2449.349	241.5
2453.106	243.5
2456.859	232.5
2460.61	232.5
2464.356	232.5
2468.1	227.5
2471.84	221.5
2475.577	224.5
2479.311	221.5
2483.041	226.5
2486.768	220.5
2490.492	227.5
2494.213	222.5
2497.93	225.5
2501.644	227.5
2505.355	229.5
2509.062	234.5
2512.766	231.5
2516.467	222.5
2520.165	218.5
2523.859	222.5
2527.551	221.5
2531.239	219.5
2534.923	206.5
2538.605	204.5
2542.283	209.5
2545.958	205.5
2549.63	204.5
2553.299	204.5
2556.964	203.5
2560.626	197.5
2564.285	199.5
2567.941	202.5
2571.594	201.5
2575.243	203.5
2578.89	198.5
2582.533	197.5
2586.173	200.5
2589.809	195.5
2593.443	198.5
2597.073	189.5
2600.701	186.5
2604.325	179.5
2607.946	183.5
2611.564	190.5
2615.178	189.5
2618.79	183.5
2622.398	183.5
2626.004	182.5
2629.606	178.5
2633.205	176.5
2636.801	182.5
2640.394	172.5
2643.983	170.5
2647.57	169.5
2651.153	176.5
2654.734	171.5
2658.311	168.5
2661.885	163.5
2665.456	159.5
2669.025	163.5
2672.589	158.5
2676.151	161.5
2679.71	163.5
2683.266	162.5
2686.819	157.5
2690.368	154.5
2693.915	152.5
2697.458	145.5
2700.999	148.5
2704.536	150.5
2708.071	141.5
2711.602	146.5
2715.13	147.5
2718.656	142.5
2722.178	150.5
2725.697	144.5
2729.214	146.5
2732.727	146.5
2736.237	154.5
2739.744	151.5
2743.249	151.5
2746.75	150.5
2750.248	156.5
2753.743	149.5
2757.236	149.5
2760.725	148.5
2764.211	141.5
2767.695	142.5
2771.175	136.5
2774.652	135.5
2778.127	138.5
2781.598	144.5
2785.067	143.5
2788.532	138.5
2791.995	136.5
2795.455	137.5
2798.911	143.5
2802.365	147.5
2805.816	145.5
2809.264	142.5
2812.709	148.5
2816.151	139.5
2819.59	143.5
2823.026	143.5
2826.46	137.5
2829.89	141.5
2833.318	135.5
2836.742	150.5
2840.164	146.5
2843.583	146.5
2846.999	156.5
2850.412	158.5
2853.822	152.5
2857.229	151.5
2860.634	158.5
2864.035	160.5
2867.434	164.5
2870.83	165.5
2874.223	166.5
2877.613	168.5
2881	164.5
2884.385	165.5
2887.766	169.5
2891.145	163.5
2894.521	165.5
2897.894	166.5
2901.264	176.5
2904.631	171.5
2907.996	179.5
2911.358	181.5
2914.717	181.5
2918.073	184.5
2921.426	183.5
2924.777	185.5
2928.124	197.5
2931.469	195.5
2934.811	204.5
2938.15	201.5
2941.487	202.5
2944.821	211.5
2948.152	212.5
2951.48	212.5
2954.805	212.5
2958.128	215.5
2961.447	219.5
2964.765	226.5
2968.079	224.5
2971.39	239.5
2974.699	242.5
2978.005	250.5
2981.308	256.5
2984.609	261.5
2987.907	276.5
2991.202	277.5
2994.494	288.5
2997.784	285.5
3001.07	295.5
3004.355	299.5
3007.636	313.5
3010.915	315.5
3014.191	333.5
3017.464	336.5
3020.734	334.5
3024.002	340.5
3027.267	345.5
3030.53	357.5
3033.789	358.5
3037.046	367.5
3040.301	376.5
3043.552	384.5
3046.801	390.5
3050.048	406.5
3053.291	418.5
3056.532	421.5
3059.771	440.5
3063.006	459.5
3066.239	469.5
3069.469	482.5
3072.697	503.5
3075.922	508.5
3079.144	525.5
3082.364	547.5
3085.581	545.5
3088.795	563.5
3092.007	573.5
3095.216	579.5
3098.423	599.5
3101.627	612.5
3104.828	625.5
3108.026	647.5
3111.222	644.5
3114.416	671.5
3117.607	681.5
3120.795	691.5
3123.98	721.5
3127.163	733.5
3130.344	758.5
3133.521	769.5
3136.696	784.5
3139.869	810.5
3143.039	799.5
3146.206	821.5
3149.371	833.5
3152.533	842.5
3155.693	847.5
3158.85	850.5
3162.005	858.5
3165.157	855.5
3168.306	868.5
3171.453	861.5
3174.597	881.5
3177.739	866.5
3180.878	874.5
3184.014	879.5
3187.149	876.5
3190.28	904.5
3193.409	893.5
3196.536	880.5
3199.659	900.5
3202.781	909.5
3205.9	911.5
3209.016	880.5
3212.13	891.5
3215.241	888.5
3218.35	902.5
3221.456	877.5
3224.56	878.5
3227.661	855.5
3230.76	852.5
3233.856	853.5
3236.95	840.5
3240.041	826.5
3243.13	820.5
3246.216	810.5
3249.3	813.5
3252.382	824.5
3255.46	793.5
3258.537	809.5
3261.611	805.5
3264.682	794.5
3267.751	801.5
3270.818	794.5
3273.882	787.5
3276.943	779.5
3280.002	778.5
3283.059	770.5
3286.113	759.5
3289.165	743.5
3292.214	743.5
3295.261	730.5
3298.306	720.5
3301.348	698.5
3304.387	694.5
3307.425	683.5
3310.459	678.5
3313.492	674.5
3316.521	655.5
3319.549	662.5
3322.574	649.5
3325.597	649.5
3328.617	632.5
3331.635	630.5
3334.65	637.5
3337.663	625.5
3340.674	626.5
3343.682	619.5
3346.688	620.5
3349.691	619.5
3352.692	613.5
3355.691	613.5
3358.687	606.5
3361.681	599.5
3364.673	592.5
3367.662	585.5
3370.649	575.5
3373.633	561.5
3376.615	556.5
3379.595	540.5
3382.572	538.5
3385.547	532.5
3388.52	527.5
3391.49	513.5
3394.458	523.5
3397.424	505.5
3400.387	509.5
3403.348	499.5
3406.307	498.5
3409.263	490.5
3412.217	489.5
3415.168	472.5
3418.118	469.5
3421.065	469.5
3424.009	451.5
3426.951	447.5
3429.891	449.5
3432.829	429.5
3435.764	428.5
3438.697	429.5
3441.628	400.5
3444.557	394.5
3447.483	396.5
3450.407	378.5
3453.328	375.5
3456.247	371.5
3459.164	352.5
3462.079	337.5
3464.991	324.5
3467.902	323.5
3470.809	312.5
3473.715	293.5
3476.618	284.5
3479.519	283.5
3482.418	269.5
3485.315	271.5
3488.209	255.5
3491.101	247.5
3493.99	246.5
3496.878	235.5
3499.763	224.5
3502.646	220.5
3505.527	207.5
3508.405	196.5
3511.281	194.5
3514.155	187.5
3517.027	174.5
3519.897	168.5
3522.764	164.5
3525.629	152.5
3528.492	142.5
3531.352	138.5
3534.211	133.5
3537.067	127.5
3539.921	113.5
3542.773	105.5
3545.622	105.5
3548.469	93.5
3551.315	85.5
3554.157	90.5
3556.998	76.5
3559.837	74.5
3562.673	67.5
3565.507	66.5
3568.339	63.5
3571.169	58.5
3573.996	48.5
3576.822	51.5
3579.645	44.5
3582.466	36.5
3585.285	37.5
3588.101	34.5
3590.916	25.5
3593.728	23.5
3596.538	18.5
3599.346	11.5
3602.152	14.5
3604.956	3.5
3607.757	10.5
3610.556	2.5
3613.354	2.5
3616.149	-6.5
3618.942	-8.5
3621.732	-4.5
3624.521	-14.5
3627.307	-13.5
3630.092	-13.5
3632.874	-18.5
3635.654	-15.5
3638.432	-19.5
3641.208	-23.5
3643.982	-24.5
3646.753	-25.5
3649.523	-29.5
3652.29	-27.5
3655.055	-34.5
3657.818	-31.5
3660.579	-33.5
3663.338	-39.5
3666.095	-39.5
3668.849	-42.5
3671.602	-47.5
3674.352	-47.5
3677.101	-48.5
3679.847	-49.5
3682.591	-48.5
3685.333	-48.5
3688.073	-49.5
3690.811	-52.5
3693.547	-55.5
3696.281	-53.5
3699.013	-56.5
3701.742	-55.5
3704.47	-61.5
3707.195	-61.5
3709.919	-60.5
3712.64	-62.5
3715.359	-59.5
3718.076	-65.5
3720.792	-66.5
3723.505	-67.5
3726.216	-64.5
3728.925	-65.5
3731.632	-63.5
3734.336	-66.5
3737.039	-67.5
3739.74	-65.5
3742.439	-66.5
3745.136	-67.5
3747.83	-64.5
3750.523	-63.5
3753.213	-65.5
3755.902	-67.5
3758.589	-72.5
3761.273	-69.5
3763.956	-73.5
3766.636	-75.5
3769.315	-74.5
3771.991	-78.5
3774.665	-80.5
3777.338	-74.5
3780.008	-75.5
3782.677	-73.5
3785.343	-72.5
3788.007	-70.5
3790.67	-70.5
3793.33	-71.5
3795.989	-68.5
3798.645	-70.5
3801.299	-72.5
3803.952	-72.5
3806.602	-72.5
3809.251	-75.5
3811.897	-76.5
3814.542	-76.5
3817.184	-78.5
3819.825	-80.5
3822.463	-78.5
3825.1	-74.5
3827.735	-75.5
3830.367	-77.5
3832.998	-75.5
3835.627	-73.5
3838.253	-71.5
3840.878	-70.5
3843.501	-74.5
3846.122	-77.5
3848.741	-73.5
3851.358	-77.5
3853.973	-76.5
3856.586	-84.5
3859.197	-75.5
3861.806	-80.5
3864.414	-81.5
3867.019	-81.5
3869.622	-77.5
3872.224	-79.5
3874.823	-72.5
3877.421	-74.5
3880.016	-69.5
3882.61	-66.5
3885.202	-73.5
3887.792	-69.5
3890.38	-75.5
3892.966	-77.5
3895.55	-77.5
3898.132	-77.5
3900.713	-80.5
3903.291	-78.5
3905.868	-81.5
3908.442	-82.5
3911.015	-82.5
3913.586	-83.5
3916.155	-81.5
3918.722	-79.5
3921.287	-81.5
3923.85	-83.5
3926.411	-77.5
3928.971	-81.5
3931.528	-77.5
3934.084	-84.5
3936.638	-82.5
3939.19	-78.5
3941.74	-80.5
3944.288	-82.5
3946.834	-85.5
3949.378	-84.5
3951.921	-83.5
3954.462	-84.5
3957	-83.5
3959.537	-84.5
3962.072	-81.5
3964.606	-78.5
3967.137	-79.5
3969.667	-81.5
3972.194	-80.5
3974.72	-80.5
3977.244	-77.5
3979.766	-81.5
3982.286	-83.5
3984.805	-80.5
3987.321	-80.5
3989.836	-80.5
3992.349	-82.5
3994.86	-81.5
3997.369	-80.5
3999.877	-76.5
4002.382	-80.5
4004.886	-78.5
4007.388	-79.5
4009.888	-82.5
4012.386	-82.5
4014.883	-78.5
4017.377	-81.5
4019.87	-81.5
4022.361	-80.5
4024.85	-81.5
4027.338	-82.5
4029.823	-78.5
4032.307	-81.5
4034.789	-79.5
4037.269	-82.5
4039.747	-83.5
4042.224	-77.5
4044.699	-81.5
4047.172	-78.5
4049.643	-80.5
4052.112	-78.5
4054.58	-81.5
4057.046	-80.5
4059.51	-80.5
4061.972	-85.5
4064.432	-84.5
4066.891	-84.5
4069.348	-82.5
4071.803	-80.5
4074.256	-83.5
4076.708	-81.5
4079.158	-79.5
4081.606	-80.5
4084.052	-78.5
4086.497	-80.5
4088.939	-77.5
4091.38	-81.5
4093.819	-79.5
4096.257	-80.5
4098.693	-83.5
4101.127	-85.5
4103.559	-83.5
4105.989	-54.5
4108.418	-54.5
4110.845	-50.5
4113.27	-48.5
4115.694	-38.5
4118.115	-34.5
4120.535	-79.5
4122.954	-84.5
4125.37	-82.5
4127.785	-83.5
4130.198	-86.5
4132.609	-84.5
4135.019	-85.5
4137.427	-86.5
4139.833	-84.5
4142.237	-84.5
