Data from 10000CFU1_B_RamanShift_1.txt Node
Date: Wed Jan 25 12:36:15 IST 2017
User: aro
Spectrometer: QEPB0276
Trigger mode: 0
Integration Time (sec): 5.000000E0
Scans to average: 1
Electric dark correction enabled: true
Nonlinearity correction enabled: false
Boxcar width: 0
XAxis mode: Raman Shifts
Number of Pixels in Spectrum: 1044
>>>>>Begin Spectral Data<<<<<
160.701	-34.12
166.742	-0.12
172.777	100.88
178.805	401.88
184.826	1106.88
190.841	2273.88
196.849	3544.88
202.85	4336.88
208.845	4509.88
214.833	4350.88
220.815	4204.88
226.789	4057.88
232.758	3953.88
238.719	3835.88
244.674	3690.88
250.623	3514.88
256.565	3364.88
262.5	3217.88
268.429	3059.88
274.351	2939.88
280.267	2832.88
286.176	2738.88
292.079	2646.88
297.975	2571.88
303.865	2460.88
309.748	2396.88
315.625	2366.88
321.495	2297.88
327.359	2270.88
333.217	2256.88
339.068	2218.88
344.912	2215.88
350.751	2210.88
356.583	2182.88
362.408	2201.88
368.227	2190.88
374.04	2200.88
379.847	2216.88
385.647	2229.88
391.44	2231.88
397.228	2245.88
403.009	2272.88
408.784	2250.88
414.553	2280.88
420.315	2278.88
426.071	2285.88
431.821	2284.88
437.565	2281.88
443.302	2292.88
449.033	2274.88
454.758	2259.88
460.477	2260.88
466.189	2252.88
471.896	2215.88
477.596	2192.88
483.29	2222.88
488.978	2192.88
494.66	2182.88
500.335	2154.88
506.005	2119.88
511.668	2089.88
517.325	2017.88
522.977	1999.88
528.622	1999.88
534.261	1971.88
539.894	1940.88
545.521	1922.88
551.141	1902.88
556.756	1888.88
562.365	1890.88
567.968	1892.88
573.565	1862.88
579.155	1847.88
584.74	1833.88
590.319	1834.88
595.892	1820.88
601.459	1800.88
607.02	1795.88
612.575	1762.88
618.124	1768.88
623.667	1719.88
629.204	1717.88
634.735	1702.88
640.261	1694.88
645.781	1672.88
651.294	1685.88
656.802	1665.88
662.304	1659.88
667.8	1648.88
673.29	1658.88
678.775	1639.88
684.254	1626.88
689.726	1632.88
695.193	1632.88
700.655	1621.88
706.11	1600.88
711.56	1574.88
717.004	1573.88
722.442	1552.88
727.874	1549.88
733.301	1549.88
738.722	1556.88
744.137	1541.88
749.547	1546.88
754.951	1519.88
760.349	1536.88
765.741	1519.88
771.128	1547.88
776.509	1521.88
781.885	1533.88
787.254	1513.88
792.618	1508.88
797.977	1495.88
803.33	1497.88
808.677	1479.88
814.019	1481.88
819.355	1445.88
824.686	1445.88
830.011	1434.88
835.33	1415.88
840.644	1409.88
845.952	1406.88
851.255	1406.88
856.552	1392.88
861.844	1385.88
867.13	1370.88
872.41	1376.88
877.686	1366.88
882.955	1343.88
888.219	1305.88
893.478	1293.88
898.731	1269.88
903.979	1271.88
909.221	1237.88
914.458	1234.88
919.69	1221.88
924.916	1234.88
930.136	1232.88
935.351	1240.88
940.561	1233.88
945.766	1220.88
950.965	1224.88
956.158	1193.88
961.347	1201.88
966.529	1168.88
971.707	1154.88
976.879	1136.88
982.046	1124.88
987.208	1135.88
992.364	1116.88
997.515	1130.88
1002.66	1135.88
1007.801	1155.88
1012.936	1153.88
1018.066	1172.88
1023.19	1192.88
1028.309	1166.88
1033.423	1182.88
1038.532	1167.88
1043.636	1157.88
1048.734	1142.88
1053.827	1135.88
1058.915	1118.88
1063.998	1127.88
1069.075	1116.88
1074.147	1136.88
1079.214	1122.88
1084.276	1147.88
1089.333	1144.88
1094.385	1156.88
1099.431	1160.88
1104.472	1161.88
1109.509	1137.88
1114.54	1133.88
1119.565	1119.88
1124.586	1110.88
1129.602	1086.88
1134.613	1088.88
1139.618	1088.88
1144.619	1072.88
1149.614	1084.88
1154.604	1094.88
1159.589	1111.88
1164.57	1119.88
1169.545	1119.88
1174.515	1117.88
1179.48	1115.88
1184.44	1096.88
1189.395	1100.88
1194.345	1090.88
1199.29	1083.88
1204.23	1075.88
1209.165	1102.88
1214.095	1091.88
1219.021	1116.88
1223.941	1115.88
1228.856	1136.88
1233.766	1129.88
1238.672	1125.88
1243.572	1134.88
1248.467	1104.88
1253.358	1121.88
1258.244	1094.88
1263.124	1079.88
1268	1070.88
1272.871	1054.88
1277.737	1055.88
1282.599	1043.88
1287.455	1057.88
1292.306	1062.88
1297.153	1068.88
1301.995	1069.88
1306.832	1078.88
1311.664	1072.88
1316.491	1076.88
1321.314	1074.88
1326.132	1069.88
1330.945	1063.88
1335.753	1047.88
1340.556	1041.88
1345.354	1015.88
1350.148	1016.88
1354.937	1002.88
1359.722	999.88
1364.501	989.88
1369.276	981.88
1374.046	982.88
1378.811	988.88
1383.572	976.88
1388.327	961.88
1393.079	967.88
1397.825	958.88
1402.567	955.88
1407.304	954.88
1412.036	944.88
1416.764	953.88
1421.487	944.88
1426.205	957.88
1430.919	968.88
1435.628	966.88
1440.333	986.88
1445.032	980.88
1449.727	986.88
1454.418	993.88
1459.104	990.88
1463.785	990.88
1468.462	977.88
1473.134	987.88
1477.802	981.88
1482.465	954.88
1487.123	965.88
1491.777	966.88
1496.426	973.88
1501.071	977.88
1505.711	974.88
1510.347	997.88
1514.978	1001.88
1519.604	1004.88
1524.226	1016.88
1528.844	1013.88
1533.457	1009.88
1538.065	993.88
1542.669	1004.88
1547.269	996.88
1551.864	1002.88
1556.454	1023.88
1561.041	1034.88
1565.622	1044.88
1570.199	1061.88
1574.772	1087.88
1579.34	1079.88
1583.904	1106.88
1588.464	1119.88
1593.019	1134.88
1597.569	1150.88
1602.115	1173.88
1606.657	1188.88
1611.195	1194.88
1615.728	1203.88
1620.256	1212.88
1624.78	1227.88
1629.3	1263.88
1633.816	1280.88
1638.327	1299.88
1642.834	1300.88
1647.336	1315.88
1651.834	1319.88
1656.328	1325.88
1660.817	1303.88
1665.302	1305.88
1669.783	1265.88
1674.259	1230.88
1678.732	1202.88
1683.199	1172.88
1687.663	1111.88
1692.122	1087.88
1696.577	1036.88
1701.028	991.88
1705.474	954.88
1709.917	923.88
1714.355	905.88
1718.788	894.88
1723.218	870.88
1727.643	853.88
1732.064	834.88
1736.481	807.88
1740.893	785.88
1745.301	766.88
1749.705	734.88
1754.105	719.88
1758.501	699.88
1762.893	710.88
1767.28	697.88
1771.663	678.88
1776.042	689.88
1780.417	682.88
1784.787	683.88
1789.154	685.88
1793.516	684.88
1797.874	668.88
1802.228	674.88
1806.578	665.88
1810.924	657.88
1815.266	638.88
1819.603	624.88
1823.937	623.88
1828.266	626.88
1832.591	608.88
1836.913	618.88
1841.23	618.88
1845.543	604.88
1849.852	597.88
1854.156	598.88
1858.457	608.88
1862.754	609.88
1867.047	610.88
1871.335	629.88
1875.62	624.88
1879.9	622.88
1884.177	640.88
1888.449	629.88
1892.718	624.88
1896.982	633.88
1901.243	616.88
1905.499	627.88
1909.752	625.88
1914	600.88
1918.245	609.88
1922.485	615.88
1926.722	611.88
1930.954	605.88
1935.183	624.88
1939.408	628.88
1943.628	634.88
1947.845	636.88
1952.058	629.88
1956.267	624.88
1960.472	616.88
1964.673	595.88
1968.87	595.88
1973.063	593.88
1977.252	593.88
1981.438	585.88
1985.619	588.88
1989.797	576.88
1993.971	583.88
1998.14	591.88
2002.306	591.88
2006.469	594.88
2010.627	595.88
2014.781	600.88
2018.932	600.88
2023.078	592.88
2027.221	593.88
2031.36	601.88
2035.495	595.88
2039.627	594.88
2043.754	585.88
2047.878	582.88
2051.998	575.88
2056.114	585.88
2060.226	594.88
2064.334	588.88
2068.439	587.88
2072.54	603.88
2076.637	602.88
2080.73	599.88
2084.82	604.88
2088.906	610.88
2092.988	602.88
2097.066	606.88
2101.14	595.88
2105.211	598.88
2109.278	586.88
2113.342	592.88
2117.401	586.88
2121.457	591.88
2125.509	568.88
2129.558	585.88
2133.602	575.88
2137.643	557.88
2141.681	567.88
2145.714	562.88
2149.744	553.88
2153.77	542.88
2157.793	557.88
2161.812	541.88
2165.827	543.88
2169.838	533.88
2173.846	520.88
2177.851	519.88
2181.851	508.88
2185.848	509.88
2189.841	503.88
2193.831	506.88
2197.817	495.88
2201.799	480.88
2205.778	487.88
2209.753	488.88
2213.725	482.88
2217.693	484.88
2221.657	483.88
2225.618	485.88
2229.575	477.88
2233.529	471.88
2237.479	477.88
2241.425	477.88
2245.368	459.88
2249.307	450.88
2253.243	453.88
2257.175	438.88
2261.104	429.88
2265.029	428.88
2268.95	426.88
2272.868	423.88
2276.783	410.88
2280.694	407.88
2284.601	404.88
2288.505	396.88
2292.405	400.88
2296.302	386.88
2300.195	385.88
2304.085	384.88
2307.971	374.88
2311.854	364.88
2315.734	357.88
2319.609	352.88
2323.482	346.88
2327.351	354.88
2331.216	341.88
2335.078	350.88
2338.937	347.88
2342.792	335.88
2346.643	322.88
2350.492	327.88
2354.336	328.88
2358.178	333.88
2362.015	326.88
2365.85	327.88
2369.681	327.88
2373.508	335.88
2377.333	340.88
2381.153	343.88
2384.971	332.88
2388.785	336.88
2392.595	330.88
2396.402	331.88
2400.206	329.88
2404.007	325.88
2407.804	318.88
2411.597	327.88
2415.388	314.88
2419.174	310.88
2422.958	325.88
2426.738	312.88
2430.515	313.88
2434.289	308.88
2438.059	314.88
2441.825	313.88
2445.589	313.88
2449.349	306.88
2453.106	310.88
2456.859	300.88
2460.61	305.88
2464.356	294.88
2468.1	295.88
2471.84	284.88
2475.577	287.88
2479.311	280.88
2483.041	293.88
2486.768	281.88
2490.492	289.88
2494.213	289.88
2497.93	287.88
2501.644	283.88
2505.355	287.88
2509.062	284.88
2512.766	288.88
2516.467	291.88
2520.165	286.88
2523.859	281.88
2527.551	277.88
2531.239	275.88
2534.923	259.88
2538.605	277.88
2542.283	263.88
2545.958	268.88
2549.63	267.88
2553.299	268.88
2556.964	257.88
2560.626	253.88
2564.285	259.88
2567.941	261.88
2571.594	263.88
2575.243	252.88
2578.89	252.88
2582.533	249.88
2586.173	253.88
2589.809	247.88
2593.443	250.88
2597.073	246.88
2600.701	237.88
2604.325	242.88
2607.946	244.88
2611.564	245.88
2615.178	229.88
2618.79	235.88
2622.398	235.88
2626.004	240.88
2629.606	229.88
2633.205	228.88
2636.801	228.88
2640.394	235.88
2643.983	219.88
2647.57	216.88
2651.153	217.88
2654.734	209.88
2658.311	210.88
2661.885	204.88
2665.456	211.88
2669.025	204.88
2672.589	201.88
2676.151	204.88
2679.71	201.88
2683.266	201.88
2686.819	195.88
2690.368	193.88
2693.915	200.88
2697.458	194.88
2700.999	189.88
2704.536	189.88
2708.071	188.88
2711.602	192.88
2715.13	184.88
2718.656	187.88
2722.178	178.88
2725.697	178.88
2729.214	184.88
2732.727	186.88
2736.237	195.88
2739.744	187.88
2743.249	188.88
2746.75	180.88
2750.248	188.88
2753.743	183.88
2757.236	192.88
2760.725	190.88
2764.211	187.88
2767.695	183.88
2771.175	178.88
2774.652	179.88
2778.127	171.88
2781.598	175.88
2785.067	179.88
2788.532	168.88
2791.995	181.88
2795.455	180.88
2798.911	176.88
2802.365	175.88
2805.816	172.88
2809.264	177.88
2812.709	184.88
2816.151	190.88
2819.59	183.88
2823.026	185.88
2826.46	182.88
2829.89	189.88
2833.318	192.88
2836.742	187.88
2840.164	195.88
2843.583	194.88
2846.999	193.88
2850.412	197.88
2853.822	200.88
2857.229	207.88
2860.634	207.88
2864.035	199.88
2867.434	204.88
2870.83	199.88
2874.223	216.88
2877.613	225.88
2881	218.88
2884.385	223.88
2887.766	227.88
2891.145	224.88
2894.521	218.88
2897.894	227.88
2901.264	225.88
2904.631	227.88
2907.996	239.88
2911.358	232.88
2914.717	246.88
2918.073	239.88
2921.426	240.88
2924.777	244.88
2928.124	251.88
2931.469	258.88
2934.811	254.88
2938.15	266.88
2941.487	266.88
2944.821	268.88
2948.152	282.88
2951.48	285.88
2954.805	289.88
2958.128	296.88
2961.447	300.88
2964.765	297.88
2968.079	314.88
2971.39	316.88
2974.699	321.88
2978.005	329.88
2981.308	341.88
2984.609	354.88
2987.907	366.88
2991.202	372.88
2994.494	380.88
2997.784	385.88
3001.07	394.88
3004.355	404.88
3007.636	419.88
3010.915	430.88
3014.191	447.88
3017.464	455.88
3020.734	450.88
3024.002	464.88
3027.267	466.88
3030.53	479.88
3033.789	492.88
3037.046	494.88
3040.301	513.88
3043.552	515.88
3046.801	545.88
3050.048	550.88
3053.291	562.88
3056.532	576.88
3059.771	602.88
3063.006	618.88
3066.239	643.88
3069.469	662.88
3072.697	690.88
3075.922	713.88
3079.144	710.88
3082.364	732.88
3085.581	750.88
3088.795	778.88
3092.007	798.88
3095.216	802.88
3098.423	818.88
3101.627	832.88
3104.828	865.88
3108.026	863.88
3111.222	895.88
3114.416	912.88
3117.607	942.88
3120.795	958.88
3123.98	987.88
3127.163	1009.88
3130.344	1030.88
3133.521	1053.88
3136.696	1071.88
3139.869	1089.88
3143.039	1116.88
3146.206	1126.88
3149.371	1142.88
3152.533	1147.88
3155.693	1164.88
3158.85	1173.88
3162.005	1181.88
3165.157	1195.88
3168.306	1210.88
3171.453	1190.88
3174.597	1197.88
3177.739	1197.88
3180.878	1210.88
3184.014	1213.88
3187.149	1218.88
3190.28	1213.88
3193.409	1234.88
3196.536	1220.88
3199.659	1215.88
3202.781	1229.88
3205.9	1250.88
3209.016	1229.88
3212.13	1233.88
3215.241	1237.88
3218.35	1228.88
3221.456	1206.88
3224.56	1204.88
3227.661	1174.88
3230.76	1197.88
3233.856	1175.88
3236.95	1160.88
3240.041	1146.88
3243.13	1136.88
3246.216	1143.88
3249.3	1132.88
3252.382	1107.88
3255.46	1113.88
3258.537	1112.88
3261.611	1109.88
3264.682	1098.88
3267.751	1090.88
3270.818	1110.88
3273.882	1078.88
3276.943	1064.88
3280.002	1070.88
3283.059	1069.88
3286.113	1055.88
3289.165	1023.88
3292.214	1032.88
3295.261	992.88
3298.306	987.88
3301.348	964.88
3304.387	960.88
3307.425	940.88
3310.459	936.88
3313.492	922.88
3316.521	912.88
3319.549	908.88
3322.574	887.88
3325.597	875.88
3328.617	865.88
3331.635	877.88
3334.65	877.88
3337.663	868.88
3340.674	866.88
3343.682	855.88
3346.688	857.88
3349.691	855.88
3352.692	844.88
3355.691	847.88
3358.687	829.88
3361.681	831.88
3364.673	812.88
3367.662	794.88
3370.649	779.88
3373.633	780.88
3376.615	766.88
3379.595	765.88
3382.572	745.88
3385.547	741.88
3388.52	725.88
3391.49	727.88
3394.458	712.88
3397.424	697.88
3400.387	690.88
3403.348	689.88
3406.307	675.88
3409.263	672.88
3412.217	665.88
3415.168	663.88
3418.118	655.88
3421.065	650.88
3424.009	636.88
3426.951	634.88
3429.891	629.88
3432.829	610.88
3435.764	598.88
3438.697	581.88
3441.628	565.88
3444.557	549.88
3447.483	542.88
3450.407	524.88
3453.328	510.88
3456.247	489.88
3459.164	473.88
3462.079	467.88
3464.991	444.88
3467.902	439.88
3470.809	422.88
3473.715	412.88
3476.618	397.88
3479.519	387.88
3482.418	372.88
3485.315	367.88
3488.209	357.88
3491.101	346.88
3493.99	336.88
3496.878	334.88
3499.763	309.88
3502.646	308.88
3505.527	285.88
3508.405	282.88
3511.281	275.88
3514.155	254.88
3517.027	239.88
3519.897	229.88
3522.764	232.88
3525.629	211.88
3528.492	209.88
3531.352	195.88
3534.211	179.88
3537.067	171.88
3539.921	164.88
3542.773	144.88
3545.622	141.88
3548.469	134.88
3551.315	128.88
3554.157	118.88
3556.998	105.88
3559.837	96.88
3562.673	99.88
3565.507	85.88
3568.339	84.88
3571.169	76.88
3573.996	64.88
3576.822	63.88
3579.645	57.88
3582.466	53.88
3585.285	48.88
3588.101	45.88
3590.916	38.88
3593.728	29.88
3596.538	24.88
3599.346	22.88
3602.152	17.88
3604.956	14.88
3607.757	9.88
3610.556	0.88
3613.354	0.88
3616.149	-10.12
3618.942	-3.12
3621.732	-13.12
3624.521	-8.12
3627.307	-18.12
3630.092	-20.12
3632.874	-19.12
3635.654	-23.12
3638.432	-27.12
3641.208	-30.12
3643.982	-30.12
3646.753	-38.12
3649.523	-35.12
3652.29	-35.12
3655.055	-46.12
3657.818	-41.12
3660.579	-42.12
3663.338	-51.12
3666.095	-54.12
3668.849	-57.12
3671.602	-64.12
3674.352	-62.12
3677.101	-65.12
3679.847	-67.12
3682.591	-68.12
3685.333	-67.12
3688.073	-74.12
3690.811	-70.12
3693.547	-74.12
3696.281	-74.12
3699.013	-80.12
3701.742	-74.12
3704.47	-80.12
3707.195	-82.12
3709.919	-81.12
3712.64	-83.12
3715.359	-81.12
3718.076	-86.12
3720.792	-91.12
3723.505	-88.12
3726.216	-91.12
3728.925	-87.12
3731.632	-92.12
3734.336	-89.12
3737.039	-88.12
3739.74	-86.12
3742.439	-88.12
3745.136	-91.12
3747.83	-89.12
3750.523	-94.12
3753.213	-91.12
3755.902	-92.12
3758.589	-97.12
3761.273	-94.12
3763.956	-96.12
3766.636	-104.12
3769.315	-99.12
3771.991	-99.12
3774.665	-105.12
3777.338	-96.12
3780.008	-101.12
3782.677	-97.12
3785.343	-100.12
3788.007	-96.12
3790.67	-96.12
3793.33	-100.12
3795.989	-98.12
3798.645	-99.12
3801.299	-97.12
3803.952	-99.12
3806.602	-101.12
3809.251	-103.12
3811.897	-103.12
3814.542	-106.12
3817.184	-106.12
3819.825	-105.12
3822.463	-108.12
3825.1	-104.12
3827.735	-104.12
3830.367	-101.12
3832.998	-106.12
3835.627	-102.12
3838.253	-99.12
3840.878	-99.12
3843.501	-104.12
3846.122	-106.12
3848.741	-102.12
3851.358	-103.12
3853.973	-106.12
3856.586	-106.12
3859.197	-102.12
3861.806	-107.12
3864.414	-108.12
3867.019	-110.12
3869.622	-106.12
3872.224	-107.12
3874.823	-102.12
3877.421	-104.12
3880.016	-97.12
3882.61	-94.12
3885.202	-96.12
3887.792	-95.12
3890.38	-101.12
3892.966	-105.12
3895.55	-106.12
3898.132	-105.12
3900.713	-108.12
3903.291	-105.12
3905.868	-108.12
3908.442	-111.12
3911.015	-108.12
3913.586	-112.12
3916.155	-105.12
3918.722	-108.12
3921.287	-109.12
3923.85	-111.12
3926.411	-106.12
3928.971	-115.12
3931.528	-110.12
3934.084	-112.12
3936.638	-112.12
3939.19	-110.12
3941.74	-109.12
3944.288	-110.12
3946.834	-113.12
3949.378	-112.12
3951.921	-111.12
3954.462	-109.12
3957	-109.12
3959.537	-109.12
3962.072	-109.12
3964.606	-111.12
3967.137	-109.12
3969.667	-109.12
3972.194	-109.12
3974.72	-110.12
3977.244	-104.12
3979.766	-108.12
3982.286	-111.12
3984.805	-110.12
3987.321	-110.12
3989.836	-110.12
3992.349	-107.12
3994.86	-108.12
3997.369	-106.12
3999.877	-108.12
4002.382	-107.12
4004.886	-107.12
4007.388	-103.12
4009.888	-106.12
4012.386	-109.12
4014.883	-110.12
4017.377	-108.12
4019.87	-111.12
4022.361	-109.12
4024.85	-111.12
4027.338	-114.12
4029.823	-111.12
4032.307	-111.12
4034.789	-113.12
4037.269	-109.12
4039.747	-109.12
4042.224	-107.12
4044.699	-107.12
4047.172	-104.12
4049.643	-108.12
4052.112	-110.12
4054.58	-111.12
4057.046	-107.12
4059.51	-111.12
4061.972	-111.12
4064.432	-112.12
4066.891	-113.12
4069.348	-112.12
4071.803	-113.12
4074.256	-117.12
4076.708	-112.12
4079.158	-108.12
4081.606	-110.12
4084.052	-107.12
4086.497	-108.12
4088.939	-106.12
4091.38	-109.12
4093.819	-107.12
4096.257	-110.12
4098.693	-112.12
4101.127	-116.12
4103.559	-113.12
4105.989	-71.12
4108.418	-71.12
4110.845	-68.12
4113.27	-61.12
4115.694	-56.12
4118.115	-49.12
4120.535	-109.12
4122.954	-113.12
4125.37	-110.12
4127.785	-110.12
4130.198	-114.12
4132.609	-114.12
4135.019	-117.12
4137.427	-117.12
4139.833	-116.12
4142.237	-118.12
