Data from 100000000CFU3_A_RamanShift_1.txt Node
Date: Wed Jan 25 12:11:25 IST 2017
User: aro
Spectrometer: QEPB0276
Trigger mode: 0
Integration Time (sec): 5.000000E0
Scans to average: 1
Electric dark correction enabled: true
Nonlinearity correction enabled: false
Boxcar width: 0
XAxis mode: Raman Shifts
Number of Pixels in Spectrum: 1044
>>>>>Begin Spectral Data<<<<<
160.701	-29.25
166.742	-2.25
172.777	70.75
178.805	278.75
184.826	750.75
190.841	1532.75
196.849	2374.75
202.85	2873.75
208.845	3001.75
214.833	2874.75
220.815	2770.75
226.789	2702.75
232.758	2649.75
238.719	2565.75
244.674	2468.75
250.623	2366.75
256.565	2227.75
262.5	2121.75
268.429	2040.75
274.351	1969.75
280.267	1874.75
286.176	1835.75
292.079	1781.75
297.975	1720.75
303.865	1655.75
309.748	1621.75
315.625	1576.75
321.495	1566.75
327.359	1552.75
333.217	1526.75
339.068	1515.75
344.912	1502.75
350.751	1497.75
356.583	1491.75
362.408	1499.75
368.227	1494.75
374.04	1511.75
379.847	1513.75
385.647	1523.75
391.44	1529.75
397.228	1530.75
403.009	1550.75
408.784	1549.75
414.553	1546.75
420.315	1571.75
426.071	1558.75
431.821	1552.75
437.565	1560.75
443.302	1555.75
449.033	1534.75
454.758	1537.75
460.477	1530.75
466.189	1552.75
471.896	1507.75
477.596	1504.75
483.29	1499.75
488.978	1506.75
494.66	1479.75
500.335	1449.75
506.005	1423.75
511.668	1403.75
517.325	1362.75
522.977	1326.75
528.622	1307.75
534.261	1299.75
539.894	1283.75
545.521	1260.75
551.141	1274.75
556.756	1248.75
562.365	1251.75
567.968	1250.75
573.565	1217.75
579.155	1220.75
584.74	1211.75
590.319	1197.75
595.892	1217.75
601.459	1200.75
607.02	1166.75
612.575	1165.75
618.124	1164.75
623.667	1150.75
629.204	1134.75
634.735	1109.75
640.261	1110.75
645.781	1089.75
651.294	1099.75
656.802	1092.75
662.304	1083.75
667.8	1091.75
673.29	1091.75
678.775	1066.75
684.254	1066.75
689.726	1052.75
695.193	1043.75
700.655	1056.75
706.11	1038.75
711.56	1039.75
717.004	1026.75
722.442	1011.75
727.874	1024.75
733.301	1001.75
738.722	1004.75
744.137	986.75
749.547	999.75
754.951	1008.75
760.349	997.75
765.741	977.75
771.128	984.75
776.509	997.75
781.885	988.75
787.254	975.75
792.618	982.75
797.977	982.75
803.33	974.75
808.677	951.75
814.019	955.75
819.355	944.75
824.686	924.75
830.011	934.75
835.33	922.75
840.644	916.75
845.952	931.75
851.255	906.75
856.552	907.75
861.844	902.75
867.13	877.75
872.41	862.75
877.686	864.75
882.955	849.75
888.219	847.75
893.478	829.75
898.731	814.75
903.979	814.75
909.221	801.75
914.458	781.75
919.69	794.75
924.916	796.75
930.136	773.75
935.351	769.75
940.561	787.75
945.766	777.75
950.965	772.75
956.158	754.75
961.347	752.75
966.529	734.75
971.707	731.75
976.879	713.75
982.046	715.75
987.208	708.75
992.364	713.75
997.515	715.75
1002.66	716.75
1007.801	728.75
1012.936	733.75
1018.066	729.75
1023.19	745.75
1028.309	726.75
1033.423	734.75
1038.532	730.75
1043.636	719.75
1048.734	717.75
1053.827	704.75
1058.915	716.75
1063.998	713.75
1069.075	704.75
1074.147	706.75
1079.214	703.75
1084.276	710.75
1089.333	716.75
1094.385	721.75
1099.431	725.75
1104.472	711.75
1109.509	725.75
1114.54	705.75
1119.565	693.75
1124.586	687.75
1129.602	694.75
1134.613	686.75
1139.618	682.75
1144.619	676.75
1149.614	688.75
1154.604	675.75
1159.589	694.75
1164.57	688.75
1169.545	690.75
1174.515	702.75
1179.48	691.75
1184.44	686.75
1189.395	684.75
1194.345	679.75
1199.29	670.75
1204.23	675.75
1209.165	675.75
1214.095	681.75
1219.021	690.75
1223.941	689.75
1228.856	696.75
1233.766	704.75
1238.672	713.75
1243.572	704.75
1248.467	686.75
1253.358	688.75
1258.244	683.75
1263.124	673.75
1268	658.75
1272.871	659.75
1277.737	645.75
1282.599	642.75
1287.455	655.75
1292.306	656.75
1297.153	650.75
1301.995	659.75
1306.832	660.75
1311.664	674.75
1316.491	665.75
1321.314	660.75
1326.132	645.75
1330.945	652.75
1335.753	637.75
1340.556	631.75
1345.354	624.75
1350.148	615.75
1354.937	615.75
1359.722	606.75
1364.501	603.75
1369.276	609.75
1374.046	593.75
1378.811	607.75
1383.572	598.75
1388.327	598.75
1393.079	601.75
1397.825	586.75
1402.567	590.75
1407.304	587.75
1412.036	573.75
1416.764	585.75
1421.487	573.75
1426.205	584.75
1430.919	578.75
1435.628	584.75
1440.333	587.75
1445.032	594.75
1449.727	601.75
1454.418	603.75
1459.104	598.75
1463.785	596.75
1468.462	598.75
1473.134	597.75
1477.802	585.75
1482.465	589.75
1487.123	586.75
1491.777	574.75
1496.426	590.75
1501.071	582.75
1505.711	592.75
1510.347	611.75
1514.978	607.75
1519.604	617.75
1524.226	614.75
1528.844	620.75
1533.457	624.75
1538.065	626.75
1542.669	617.75
1547.269	617.75
1551.864	618.75
1556.454	634.75
1561.041	639.75
1565.622	642.75
1570.199	633.75
1574.772	676.75
1579.34	680.75
1583.904	679.75
1588.464	699.75
1593.019	705.75
1597.569	729.75
1602.115	727.75
1606.657	738.75
1611.195	740.75
1615.728	747.75
1620.256	761.75
1624.78	780.75
1629.3	773.75
1633.816	796.75
1638.327	796.75
1642.834	824.75
1647.336	824.75
1651.834	821.75
1656.328	819.75
1660.817	814.75
1665.302	807.75
1669.783	788.75
1674.259	760.75
1678.732	724.75
1683.199	707.75
1687.663	687.75
1692.122	665.75
1696.577	631.75
1701.028	607.75
1705.474	588.75
1709.917	576.75
1714.355	549.75
1718.788	536.75
1723.218	537.75
1727.643	520.75
1732.064	511.75
1736.481	474.75
1740.893	472.75
1745.301	450.75
1749.705	446.75
1754.105	434.75
1758.501	419.75
1762.893	415.75
1767.28	414.75
1771.663	404.75
1776.042	411.75
1780.417	395.75
1784.787	406.75
1789.154	404.75
1793.516	396.75
1797.874	393.75
1802.228	400.75
1806.578	392.75
1810.924	399.75
1815.266	373.75
1819.603	379.75
1823.937	370.75
1828.266	365.75
1832.591	357.75
1836.913	357.75
1841.23	349.75
1845.543	348.75
1849.852	352.75
1854.156	358.75
1858.457	363.75
1862.754	363.75
1867.047	358.75
1871.335	368.75
1875.62	370.75
1879.9	359.75
1884.177	371.75
1888.449	367.75
1892.718	364.75
1896.982	371.75
1901.243	360.75
1905.499	361.75
1909.752	357.75
1914	356.75
1918.245	352.75
1922.485	347.75
1926.722	365.75
1930.954	365.75
1935.183	371.75
1939.408	365.75
1943.628	369.75
1947.845	368.75
1952.058	373.75
1956.267	365.75
1960.472	363.75
1964.673	358.75
1968.87	355.75
1973.063	352.75
1977.252	346.75
1981.438	340.75
1985.619	349.75
1989.797	342.75
1993.971	337.75
1998.14	351.75
2002.306	344.75
2006.469	352.75
2010.627	354.75
2014.781	352.75
2018.932	349.75
2023.078	354.75
2027.221	350.75
2031.36	347.75
2035.495	350.75
2039.627	349.75
2043.754	333.75
2047.878	339.75
2051.998	344.75
2056.114	344.75
2060.226	347.75
2064.334	346.75
2068.439	355.75
2072.54	357.75
2076.637	362.75
2080.73	353.75
2084.82	351.75
2088.906	353.75
2092.988	360.75
2097.066	355.75
2101.14	356.75
2105.211	344.75
2109.278	353.75
2113.342	342.75
2117.401	344.75
2121.457	346.75
2125.509	335.75
2129.558	337.75
2133.602	331.75
2137.643	339.75
2141.681	336.75
2145.714	333.75
2149.744	325.75
2153.77	326.75
2157.793	322.75
2161.812	323.75
2165.827	318.75
2169.838	316.75
2173.846	302.75
2177.851	300.75
2181.851	304.75
2185.848	297.75
2189.841	290.75
2193.831	287.75
2197.817	285.75
2201.799	282.75
2205.778	285.75
2209.753	272.75
2213.725	280.75
2217.693	280.75
2221.657	283.75
2225.618	286.75
2229.575	272.75
2233.529	270.75
2237.479	280.75
2241.425	273.75
2245.368	265.75
2249.307	263.75
2253.243	254.75
2257.175	251.75
2261.104	253.75
2265.029	242.75
2268.95	246.75
2272.868	239.75
2276.783	237.75
2280.694	225.75
2284.601	224.75
2288.505	225.75
2292.405	216.75
2296.302	218.75
2300.195	221.75
2304.085	215.75
2307.971	207.75
2311.854	204.75
2315.734	206.75
2319.609	188.75
2323.482	187.75
2327.351	200.75
2331.216	195.75
2335.078	189.75
2338.937	185.75
2342.792	180.75
2346.643	185.75
2350.492	182.75
2354.336	185.75
2358.178	188.75
2362.015	182.75
2365.85	185.75
2369.681	191.75
2373.508	189.75
2377.333	190.75
2381.153	191.75
2384.971	180.75
2388.785	190.75
2392.595	179.75
2396.402	180.75
2400.206	175.75
2404.007	170.75
2407.804	173.75
2411.597	177.75
2415.388	180.75
2419.174	169.75
2422.958	180.75
2426.738	170.75
2430.515	169.75
2434.289	170.75
2438.059	164.75
2441.825	172.75
2445.589	173.75
2449.349	163.75
2453.106	166.75
2456.859	165.75
2460.61	162.75
2464.356	159.75
2468.1	158.75
2471.84	157.75
2475.577	156.75
2479.311	148.75
2483.041	151.75
2486.768	156.75
2490.492	156.75
2494.213	149.75
2497.93	157.75
2501.644	150.75
2505.355	156.75
2509.062	160.75
2512.766	157.75
2516.467	150.75
2520.165	152.75
2523.859	149.75
2527.551	148.75
2531.239	147.75
2534.923	143.75
2538.605	143.75
2542.283	144.75
2545.958	135.75
2549.63	143.75
2553.299	136.75
2556.964	144.75
2560.626	136.75
2564.285	137.75
2567.941	142.75
2571.594	136.75
2575.243	137.75
2578.89	134.75
2582.533	140.75
2586.173	133.75
2589.809	127.75
2593.443	127.75
2597.073	126.75
2600.701	122.75
2604.325	120.75
2607.946	127.75
2611.564	128.75
2615.178	124.75
2618.79	123.75
2622.398	120.75
2626.004	127.75
2629.606	126.75
2633.205	118.75
2636.801	121.75
2640.394	118.75
2643.983	117.75
2647.57	118.75
2651.153	117.75
2654.734	106.75
2658.311	107.75
2661.885	110.75
2665.456	109.75
2669.025	110.75
2672.589	105.75
2676.151	107.75
2679.71	106.75
2683.266	100.75
2686.819	101.75
2690.368	104.75
2693.915	106.75
2697.458	101.75
2700.999	104.75
2704.536	97.75
2708.071	99.75
2711.602	95.75
2715.13	92.75
2718.656	93.75
2722.178	89.75
2725.697	93.75
2729.214	100.75
2732.727	94.75
2736.237	99.75
2739.744	96.75
2743.249	100.75
2746.75	100.75
2750.248	96.75
2753.743	101.75
2757.236	97.75
2760.725	97.75
2764.211	97.75
2767.695	100.75
2771.175	98.75
2774.652	95.75
2778.127	87.75
2781.598	94.75
2785.067	87.75
2788.532	90.75
2791.995	91.75
2795.455	95.75
2798.911	91.75
2802.365	99.75
2805.816	96.75
2809.264	94.75
2812.709	98.75
2816.151	96.75
2819.59	102.75
2823.026	101.75
2826.46	105.75
2829.89	101.75
2833.318	96.75
2836.742	101.75
2840.164	106.75
2843.583	105.75
2846.999	103.75
2850.412	110.75
2853.822	110.75
2857.229	109.75
2860.634	117.75
2864.035	114.75
2867.434	118.75
2870.83	124.75
2874.223	127.75
2877.613	124.75
2881	125.75
2884.385	129.75
2887.766	126.75
2891.145	118.75
2894.521	121.75
2897.894	122.75
2901.264	128.75
2904.631	134.75
2907.996	137.75
2911.358	143.75
2914.717	145.75
2918.073	138.75
2921.426	147.75
2924.777	145.75
2928.124	154.75
2931.469	155.75
2934.811	161.75
2938.15	155.75
2941.487	160.75
2944.821	165.75
2948.152	174.75
2951.48	174.75
2954.805	178.75
2958.128	180.75
2961.447	188.75
2964.765	191.75
2968.079	192.75
2971.39	201.75
2974.699	201.75
2978.005	211.75
2981.308	212.75
2984.609	229.75
2987.907	223.75
2991.202	234.75
2994.494	232.75
2997.784	249.75
3001.07	248.75
3004.355	255.75
3007.636	264.75
3010.915	280.75
3014.191	285.75
3017.464	281.75
3020.734	290.75
3024.002	298.75
3027.267	306.75
3030.53	309.75
3033.789	322.75
3037.046	325.75
3040.301	342.75
3043.552	332.75
3046.801	336.75
3050.048	356.75
3053.291	377.75
3056.532	371.75
3059.771	390.75
3063.006	412.75
3066.239	418.75
3069.469	433.75
3072.697	441.75
3075.922	455.75
3079.144	474.75
3082.364	477.75
3085.581	507.75
3088.795	505.75
3092.007	516.75
3095.216	534.75
3098.423	544.75
3101.627	559.75
3104.828	569.75
3108.026	586.75
3111.222	594.75
3114.416	619.75
3117.607	621.75
3120.795	642.75
3123.98	655.75
3127.163	665.75
3130.344	686.75
3133.521	709.75
3136.696	721.75
3139.869	738.75
3143.039	741.75
3146.206	761.75
3149.371	770.75
3152.533	780.75
3155.693	788.75
3158.85	775.75
3162.005	784.75
3165.157	799.75
3168.306	807.75
3171.453	789.75
3174.597	799.75
3177.739	807.75
3180.878	808.75
3184.014	826.75
3187.149	815.75
3190.28	819.75
3193.409	822.75
3196.536	836.75
3199.659	816.75
3202.781	831.75
3205.9	833.75
3209.016	817.75
3212.13	822.75
3215.241	831.75
3218.35	818.75
3221.456	819.75
3224.56	796.75
3227.661	798.75
3230.76	777.75
3233.856	773.75
3236.95	768.75
3240.041	766.75
3243.13	765.75
3246.216	754.75
3249.3	759.75
3252.382	748.75
3255.46	746.75
3258.537	743.75
3261.611	744.75
3264.682	737.75
3267.751	738.75
3270.818	732.75
3273.882	731.75
3276.943	724.75
3280.002	721.75
3283.059	717.75
3286.113	710.75
3289.165	693.75
3292.214	692.75
3295.261	671.75
3298.306	661.75
3301.348	664.75
3304.387	640.75
3307.425	644.75
3310.459	639.75
3313.492	625.75
3316.521	615.75
3319.549	606.75
3322.574	589.75
3325.597	602.75
3328.617	584.75
3331.635	580.75
3334.65	587.75
3337.663	584.75
3340.674	578.75
3343.682	581.75
3346.688	574.75
3349.691	574.75
3352.692	573.75
3355.691	561.75
3358.687	557.75
3361.681	549.75
3364.673	563.75
3367.662	530.75
3370.649	535.75
3373.633	521.75
3376.615	519.75
3379.595	519.75
3382.572	503.75
3385.547	499.75
3388.52	489.75
3391.49	485.75
3394.458	496.75
3397.424	466.75
3400.387	469.75
3403.348	459.75
3406.307	453.75
3409.263	454.75
3412.217	454.75
3415.168	437.75
3418.118	437.75
3421.065	424.75
3424.009	426.75
3426.951	424.75
3429.891	411.75
3432.829	403.75
3435.764	397.75
3438.697	393.75
3441.628	374.75
3444.557	367.75
3447.483	374.75
3450.407	353.75
3453.328	349.75
3456.247	325.75
3459.164	324.75
3462.079	308.75
3464.991	296.75
3467.902	289.75
3470.809	286.75
3473.715	267.75
3476.618	266.75
3479.519	255.75
3482.418	252.75
3485.315	238.75
3488.209	241.75
3491.101	229.75
3493.99	228.75
3496.878	220.75
3499.763	211.75
3502.646	203.75
3505.527	196.75
3508.405	189.75
3511.281	182.75
3514.155	168.75
3517.027	163.75
3519.897	155.75
3522.764	149.75
3525.629	139.75
3528.492	125.75
3531.352	126.75
3534.211	120.75
3537.067	109.75
3539.921	108.75
3542.773	98.75
3545.622	97.75
3548.469	92.75
3551.315	81.75
3554.157	80.75
3556.998	69.75
3559.837	63.75
3562.673	61.75
3565.507	57.75
3568.339	54.75
3571.169	49.75
3573.996	39.75
3576.822	42.75
3579.645	34.75
3582.466	33.75
3585.285	33.75
3588.101	28.75
3590.916	22.75
3593.728	20.75
3596.538	13.75
3599.346	11.75
3602.152	11.75
3604.956	2.75
3607.757	-1.25
3610.556	1.75
3613.354	-4.25
3616.149	-6.25
3618.942	-7.25
3621.732	-11.25
3624.521	-18.25
3627.307	-15.25
3630.092	-15.25
3632.874	-19.25
3635.654	-16.25
3638.432	-22.25
3641.208	-26.25
3643.982	-27.25
3646.753	-26.25
3649.523	-30.25
3652.29	-32.25
3655.055	-37.25
3657.818	-36.25
3660.579	-32.25
3663.338	-37.25
3666.095	-37.25
3668.849	-41.25
3671.602	-45.25
3674.352	-43.25
3677.101	-48.25
3679.847	-47.25
3682.591	-52.25
3685.333	-52.25
3688.073	-53.25
3690.811	-52.25
3693.547	-53.25
3696.281	-54.25
3699.013	-57.25
3701.742	-52.25
3704.47	-60.25
3707.195	-58.25
3709.919	-60.25
3712.64	-57.25
3715.359	-57.25
3718.076	-56.25
3720.792	-64.25
3723.505	-64.25
3726.216	-61.25
3728.925	-66.25
3731.632	-62.25
3734.336	-69.25
3737.039	-69.25
3739.74	-65.25
3742.439	-68.25
3745.136	-65.25
3747.83	-64.25
3750.523	-64.25
3753.213	-65.25
3755.902	-62.25
3758.589	-68.25
3761.273	-68.25
3763.956	-68.25
3766.636	-72.25
3769.315	-72.25
3771.991	-72.25
3774.665	-77.25
3777.338	-71.25
3780.008	-74.25
3782.677	-73.25
3785.343	-72.25
3788.007	-68.25
3790.67	-68.25
3793.33	-68.25
3795.989	-69.25
3798.645	-70.25
3801.299	-66.25
3803.952	-68.25
3806.602	-73.25
3809.251	-72.25
3811.897	-75.25
3814.542	-75.25
3817.184	-76.25
3819.825	-77.25
3822.463	-76.25
3825.1	-72.25
3827.735	-75.25
3830.367	-75.25
3832.998	-75.25
3835.627	-72.25
3838.253	-72.25
3840.878	-70.25
3843.501	-72.25
3846.122	-74.25
3848.741	-72.25
3851.358	-73.25
3853.973	-76.25
3856.586	-79.25
3859.197	-76.25
3861.806	-78.25
3864.414	-79.25
3867.019	-79.25
3869.622	-73.25
3872.224	-73.25
3874.823	-73.25
3877.421	-72.25
3880.016	-65.25
3882.61	-65.25
3885.202	-67.25
3887.792	-70.25
3890.38	-69.25
3892.966	-74.25
3895.55	-78.25
3898.132	-78.25
3900.713	-80.25
3903.291	-76.25
3905.868	-77.25
3908.442	-81.25
3911.015	-78.25
3913.586	-78.25
3916.155	-74.25
3918.722	-73.25
3921.287	-76.25
3923.85	-75.25
3926.411	-75.25
3928.971	-80.25
3931.528	-76.25
3934.084	-80.25
3936.638	-82.25
3939.19	-79.25
3941.74	-80.25
3944.288	-79.25
3946.834	-82.25
3949.378	-81.25
3951.921	-78.25
3954.462	-78.25
3957	-79.25
3959.537	-76.25
3962.072	-77.25
3964.606	-75.25
3967.137	-77.25
3969.667	-78.25
3972.194	-78.25
3974.72	-78.25
3977.244	-75.25
3979.766	-79.25
3982.286	-81.25
3984.805	-81.25
3987.321	-81.25
3989.836	-76.25
3992.349	-76.25
3994.86	-79.25
3997.369	-78.25
3999.877	-71.25
4002.382	-73.25
4004.886	-73.25
4007.388	-76.25
4009.888	-73.25
4012.386	-77.25
4014.883	-77.25
4017.377	-76.25
4019.87	-80.25
4022.361	-77.25
4024.85	-80.25
4027.338	-80.25
4029.823	-75.25
4032.307	-78.25
4034.789	-77.25
4037.269	-77.25
4039.747	-80.25
4042.224	-79.25
4044.699	-80.25
4047.172	-80.25
4049.643	-77.25
4052.112	-79.25
4054.58	-80.25
4057.046	-81.25
4059.51	-79.25
4061.972	-79.25
4064.432	-78.25
4066.891	-78.25
4069.348	-77.25
4071.803	-79.25
4074.256	-77.25
4076.708	-78.25
4079.158	-74.25
4081.606	-77.25
4084.052	-75.25
4086.497	-76.25
4088.939	-78.25
4091.38	-78.25
4093.819	-76.25
4096.257	-79.25
4098.693	-82.25
4101.127	-81.25
4103.559	-83.25
4105.989	-52.25
4108.418	-49.25
4110.845	-49.25
4113.27	-42.25
4115.694	-37.25
4118.115	-35.25
4120.535	-78.25
4122.954	-83.25
4125.37	-79.25
4127.785	-81.25
4130.198	-79.25
4132.609	-79.25
4135.019	-80.25
4137.427	-80.25
4139.833	-77.25
4142.237	-80.25
