Data from 100CFU3_B_RamanShift_1.txt Node
Date: Wed Jan 25 12:31:45 IST 2017
User: aro
Spectrometer: QEPB0276
Trigger mode: 0
Integration Time (sec): 5.000000E0
Scans to average: 1
Electric dark correction enabled: true
Nonlinearity correction enabled: false
Boxcar width: 0
XAxis mode: Raman Shifts
Number of Pixels in Spectrum: 1044
>>>>>Begin Spectral Data<<<<<
160.701	-34.5
166.742	-4.5
172.777	100.5
178.805	401.5
184.826	1102.5
190.841	2235.5
196.849	3529.5
202.85	4300.5
208.845	4466.5
214.833	4327.5
220.815	4169.5
226.789	4033.5
232.758	3927.5
238.719	3798.5
244.674	3673.5
250.623	3512.5
256.565	3366.5
262.5	3189.5
268.429	3077.5
274.351	2958.5
280.267	2852.5
286.176	2765.5
292.079	2642.5
297.975	2544.5
303.865	2502.5
309.748	2427.5
315.625	2373.5
321.495	2304.5
327.359	2287.5
333.217	2270.5
339.068	2236.5
344.912	2228.5
350.751	2216.5
356.583	2212.5
362.408	2212.5
368.227	2208.5
374.04	2211.5
379.847	2241.5
385.647	2217.5
391.44	2253.5
397.228	2259.5
403.009	2271.5
408.784	2280.5
414.553	2270.5
420.315	2293.5
426.071	2286.5
431.821	2292.5
437.565	2280.5
443.302	2268.5
449.033	2294.5
454.758	2261.5
460.477	2275.5
466.189	2241.5
471.896	2235.5
477.596	2199.5
483.29	2204.5
488.978	2200.5
494.66	2195.5
500.335	2186.5
506.005	2143.5
511.668	2091.5
517.325	2048.5
522.977	2025.5
528.622	1990.5
534.261	1982.5
539.894	1964.5
545.521	1967.5
551.141	1932.5
556.756	1934.5
562.365	1903.5
567.968	1891.5
573.565	1890.5
579.155	1886.5
584.74	1885.5
590.319	1862.5
595.892	1826.5
601.459	1826.5
607.02	1809.5
612.575	1813.5
618.124	1775.5
623.667	1767.5
629.204	1768.5
634.735	1747.5
640.261	1730.5
645.781	1706.5
651.294	1700.5
656.802	1697.5
662.304	1703.5
667.8	1700.5
673.29	1682.5
678.775	1690.5
684.254	1679.5
689.726	1669.5
695.193	1656.5
700.655	1646.5
706.11	1642.5
711.56	1625.5
717.004	1617.5
722.442	1605.5
727.874	1594.5
733.301	1585.5
738.722	1592.5
744.137	1572.5
749.547	1582.5
754.951	1583.5
760.349	1573.5
765.741	1574.5
771.128	1564.5
776.509	1577.5
781.885	1571.5
787.254	1565.5
792.618	1548.5
797.977	1545.5
803.33	1534.5
808.677	1533.5
814.019	1513.5
819.355	1496.5
824.686	1473.5
830.011	1474.5
835.33	1463.5
840.644	1458.5
845.952	1447.5
851.255	1457.5
856.552	1445.5
861.844	1435.5
867.13	1444.5
872.41	1415.5
877.686	1399.5
882.955	1389.5
888.219	1372.5
893.478	1335.5
898.731	1345.5
903.979	1301.5
909.221	1299.5
914.458	1294.5
919.69	1284.5
924.916	1300.5
930.136	1304.5
935.351	1287.5
940.561	1283.5
945.766	1287.5
950.965	1286.5
956.158	1272.5
961.347	1240.5
966.529	1231.5
971.707	1217.5
976.879	1190.5
982.046	1199.5
987.208	1181.5
992.364	1191.5
997.515	1191.5
1002.66	1179.5
1007.801	1186.5
1012.936	1234.5
1018.066	1224.5
1023.19	1236.5
1028.309	1247.5
1033.423	1236.5
1038.532	1233.5
1043.636	1205.5
1048.734	1216.5
1053.827	1190.5
1058.915	1188.5
1063.998	1195.5
1069.075	1174.5
1074.147	1169.5
1079.214	1183.5
1084.276	1206.5
1089.333	1217.5
1094.385	1215.5
1099.431	1218.5
1104.472	1206.5
1109.509	1224.5
1114.54	1196.5
1119.565	1186.5
1124.586	1183.5
1129.602	1167.5
1134.613	1158.5
1139.618	1143.5
1144.619	1166.5
1149.614	1152.5
1154.604	1161.5
1159.589	1168.5
1164.57	1169.5
1169.545	1183.5
1174.515	1187.5
1179.48	1181.5
1184.44	1181.5
1189.395	1159.5
1194.345	1161.5
1199.29	1168.5
1204.23	1160.5
1209.165	1160.5
1214.095	1170.5
1219.021	1176.5
1223.941	1188.5
1228.856	1199.5
1233.766	1195.5
1238.672	1193.5
1243.572	1203.5
1248.467	1186.5
1253.358	1176.5
1258.244	1174.5
1263.124	1131.5
1268	1123.5
1272.871	1118.5
1277.737	1118.5
1282.599	1098.5
1287.455	1104.5
1292.306	1113.5
1297.153	1109.5
1301.995	1120.5
1306.832	1142.5
1311.664	1149.5
1316.491	1148.5
1321.314	1143.5
1326.132	1120.5
1330.945	1126.5
1335.753	1112.5
1340.556	1103.5
1345.354	1087.5
1350.148	1091.5
1354.937	1083.5
1359.722	1072.5
1364.501	1071.5
1369.276	1058.5
1374.046	1035.5
1378.811	1028.5
1383.572	1023.5
1388.327	1011.5
1393.079	1028.5
1397.825	1025.5
1402.567	1005.5
1407.304	1008.5
1412.036	1002.5
1416.764	1009.5
1421.487	1012.5
1426.205	1008.5
1430.919	1021.5
1435.628	1015.5
1440.333	1040.5
1445.032	1052.5
1449.727	1052.5
1454.418	1062.5
1459.104	1059.5
1463.785	1055.5
1468.462	1039.5
1473.134	1034.5
1477.802	1030.5
1482.465	1023.5
1487.123	1014.5
1491.777	1030.5
1496.426	1042.5
1501.071	1036.5
1505.711	1048.5
1510.347	1059.5
1514.978	1060.5
1519.604	1069.5
1524.226	1077.5
1528.844	1068.5
1533.457	1063.5
1538.065	1066.5
1542.669	1066.5
1547.269	1069.5
1551.864	1061.5
1556.454	1083.5
1561.041	1088.5
1565.622	1099.5
1570.199	1100.5
1574.772	1132.5
1579.34	1146.5
1583.904	1162.5
1588.464	1184.5
1593.019	1199.5
1597.569	1204.5
1602.115	1212.5
1606.657	1234.5
1611.195	1246.5
1615.728	1257.5
1620.256	1272.5
1624.78	1289.5
1629.3	1310.5
1633.816	1326.5
1638.327	1351.5
1642.834	1363.5
1647.336	1365.5
1651.834	1387.5
1656.328	1372.5
1660.817	1368.5
1665.302	1340.5
1669.783	1319.5
1674.259	1268.5
1678.732	1247.5
1683.199	1214.5
1687.663	1172.5
1692.122	1127.5
1696.577	1082.5
1701.028	1051.5
1705.474	996.5
1709.917	963.5
1714.355	949.5
1718.788	947.5
1723.218	931.5
1727.643	918.5
1732.064	885.5
1736.481	866.5
1740.893	855.5
1745.301	827.5
1749.705	805.5
1754.105	791.5
1758.501	764.5
1762.893	754.5
1767.28	751.5
1771.663	751.5
1776.042	739.5
1780.417	737.5
1784.787	752.5
1789.154	749.5
1793.516	747.5
1797.874	728.5
1802.228	725.5
1806.578	735.5
1810.924	715.5
1815.266	693.5
1819.603	702.5
1823.937	693.5
1828.266	683.5
1832.591	669.5
1836.913	660.5
1841.23	662.5
1845.543	662.5
1849.852	670.5
1854.156	671.5
1858.457	672.5
1862.754	672.5
1867.047	678.5
1871.335	676.5
1875.62	686.5
1879.9	679.5
1884.177	689.5
1888.449	692.5
1892.718	684.5
1896.982	693.5
1901.243	671.5
1905.499	680.5
1909.752	679.5
1914	679.5
1918.245	669.5
1922.485	687.5
1926.722	679.5
1930.954	670.5
1935.183	674.5
1939.408	681.5
1943.628	685.5
1947.845	692.5
1952.058	682.5
1956.267	682.5
1960.472	678.5
1964.673	661.5
1968.87	670.5
1973.063	650.5
1977.252	652.5
1981.438	654.5
1985.619	645.5
1989.797	649.5
1993.971	649.5
1998.14	643.5
2002.306	645.5
2006.469	648.5
2010.627	662.5
2014.781	647.5
2018.932	657.5
2023.078	650.5
2027.221	653.5
2031.36	652.5
2035.495	642.5
2039.627	637.5
2043.754	650.5
2047.878	640.5
2051.998	644.5
2056.114	641.5
2060.226	645.5
2064.334	635.5
2068.439	630.5
2072.54	646.5
2076.637	660.5
2080.73	654.5
2084.82	655.5
2088.906	654.5
2092.988	648.5
2097.066	664.5
2101.14	648.5
2105.211	652.5
2109.278	638.5
2113.342	641.5
2117.401	628.5
2121.457	623.5
2125.509	621.5
2129.558	624.5
2133.602	620.5
2137.643	625.5
2141.681	623.5
2145.714	612.5
2149.744	617.5
2153.77	604.5
2157.793	611.5
2161.812	602.5
2165.827	583.5
2169.838	582.5
2173.846	573.5
2177.851	568.5
2181.851	566.5
2185.848	555.5
2189.841	556.5
2193.831	546.5
2197.817	547.5
2201.799	543.5
2205.778	542.5
2209.753	533.5
2213.725	528.5
2217.693	541.5
2221.657	529.5
2225.618	537.5
2229.575	530.5
2233.529	526.5
2237.479	525.5
2241.425	517.5
2245.368	504.5
2249.307	502.5
2253.243	498.5
2257.175	476.5
2261.104	481.5
2265.029	481.5
2268.95	472.5
2272.868	463.5
2276.783	467.5
2280.694	454.5
2284.601	448.5
2288.505	445.5
2292.405	451.5
2296.302	433.5
2300.195	430.5
2304.085	415.5
2307.971	417.5
2311.854	415.5
2315.734	395.5
2319.609	387.5
2323.482	389.5
2327.351	386.5
2331.216	399.5
2335.078	392.5
2338.937	375.5
2342.792	374.5
2346.643	364.5
2350.492	371.5
2354.336	361.5
2358.178	382.5
2362.015	382.5
2365.85	376.5
2369.681	379.5
2373.508	383.5
2377.333	382.5
2381.153	374.5
2384.971	380.5
2388.785	381.5
2392.595	372.5
2396.402	369.5
2400.206	357.5
2404.007	371.5
2407.804	368.5
2411.597	355.5
2415.388	354.5
2419.174	367.5
2422.958	362.5
2426.738	358.5
2430.515	358.5
2434.289	348.5
2438.059	348.5
2441.825	342.5
2445.589	345.5
2449.349	347.5
2453.106	342.5
2456.859	333.5
2460.61	341.5
2464.356	332.5
2468.1	332.5
2471.84	330.5
2475.577	339.5
2479.311	324.5
2483.041	322.5
2486.768	329.5
2490.492	325.5
2494.213	331.5
2497.93	326.5
2501.644	330.5
2505.355	316.5
2509.062	330.5
2512.766	327.5
2516.467	322.5
2520.165	325.5
2523.859	313.5
2527.551	326.5
2531.239	316.5
2534.923	305.5
2538.605	299.5
2542.283	308.5
2545.958	298.5
2549.63	304.5
2553.299	300.5
2556.964	292.5
2560.626	293.5
2564.285	301.5
2567.941	291.5
2571.594	287.5
2575.243	287.5
2578.89	284.5
2582.533	289.5
2586.173	284.5
2589.809	276.5
2593.443	285.5
2597.073	274.5
2600.701	265.5
2604.325	271.5
2607.946	267.5
2611.564	278.5
2615.178	273.5
2618.79	274.5
2622.398	265.5
2626.004	268.5
2629.606	264.5
2633.205	265.5
2636.801	259.5
2640.394	256.5
2643.983	245.5
2647.57	249.5
2651.153	244.5
2654.734	234.5
2658.311	239.5
2661.885	243.5
2665.456	237.5
2669.025	237.5
2672.589	235.5
2676.151	229.5
2679.71	235.5
2683.266	236.5
2686.819	232.5
2690.368	221.5
2693.915	219.5
2697.458	224.5
2700.999	219.5
2704.536	215.5
2708.071	215.5
2711.602	213.5
2715.13	207.5
2718.656	217.5
2722.178	220.5
2725.697	215.5
2729.214	219.5
2732.727	226.5
2736.237	223.5
2739.744	209.5
2743.249	217.5
2746.75	214.5
2750.248	222.5
2753.743	218.5
2757.236	210.5
2760.725	213.5
2764.211	206.5
2767.695	205.5
2771.175	204.5
2774.652	205.5
2778.127	199.5
2781.598	203.5
2785.067	194.5
2788.532	192.5
2791.995	206.5
2795.455	214.5
2798.911	203.5
2802.365	209.5
2805.816	207.5
2809.264	204.5
2812.709	216.5
2816.151	207.5
2819.59	209.5
2823.026	204.5
2826.46	199.5
2829.89	202.5
2833.318	201.5
2836.742	219.5
2840.164	211.5
2843.583	211.5
2846.999	222.5
2850.412	215.5
2853.822	226.5
2857.229	230.5
2860.634	229.5
2864.035	224.5
2867.434	239.5
2870.83	228.5
2874.223	233.5
2877.613	238.5
2881	232.5
2884.385	242.5
2887.766	238.5
2891.145	235.5
2894.521	235.5
2897.894	244.5
2901.264	240.5
2904.631	250.5
2907.996	249.5
2911.358	246.5
2914.717	260.5
2918.073	251.5
2921.426	257.5
2924.777	264.5
2928.124	268.5
2931.469	267.5
2934.811	274.5
2938.15	275.5
2941.487	284.5
2944.821	291.5
2948.152	293.5
2951.48	299.5
2954.805	297.5
2958.128	308.5
2961.447	322.5
2964.765	317.5
2968.079	328.5
2971.39	332.5
2974.699	343.5
2978.005	351.5
2981.308	351.5
2984.609	369.5
2987.907	365.5
2991.202	381.5
2994.494	391.5
2997.784	408.5
3001.07	409.5
3004.355	424.5
3007.636	437.5
3010.915	444.5
3014.191	459.5
3017.464	459.5
3020.734	467.5
3024.002	473.5
3027.267	467.5
3030.53	483.5
3033.789	496.5
3037.046	511.5
3040.301	518.5
3043.552	538.5
3046.801	534.5
3050.048	554.5
3053.291	568.5
3056.532	578.5
3059.771	608.5
3063.006	623.5
3066.239	640.5
3069.469	660.5
3072.697	690.5
3075.922	699.5
3079.144	711.5
3082.364	723.5
3085.581	743.5
3088.795	768.5
3092.007	788.5
3095.216	798.5
3098.423	823.5
3101.627	841.5
3104.828	848.5
3108.026	863.5
3111.222	885.5
3114.416	902.5
3117.607	920.5
3120.795	947.5
3123.98	960.5
3127.163	1003.5
3130.344	1017.5
3133.521	1046.5
3136.696	1060.5
3139.869	1086.5
3143.039	1097.5
3146.206	1120.5
3149.371	1120.5
3152.533	1153.5
3155.693	1159.5
3158.85	1156.5
3162.005	1166.5
3165.157	1175.5
3168.306	1176.5
3171.453	1179.5
3174.597	1195.5
3177.739	1174.5
3180.878	1179.5
3184.014	1187.5
3187.149	1186.5
3190.28	1182.5
3193.409	1205.5
3196.536	1217.5
3199.659	1205.5
3202.781	1223.5
3205.9	1222.5
3209.016	1201.5
3212.13	1213.5
3215.241	1206.5
3218.35	1197.5
3221.456	1182.5
3224.56	1185.5
3227.661	1162.5
3230.76	1163.5
3233.856	1157.5
3236.95	1131.5
3240.041	1125.5
3243.13	1114.5
3246.216	1116.5
3249.3	1103.5
3252.382	1088.5
3255.46	1097.5
3258.537	1090.5
3261.611	1078.5
3264.682	1085.5
3267.751	1052.5
3270.818	1079.5
3273.882	1063.5
3276.943	1060.5
3280.002	1055.5
3283.059	1027.5
3286.113	1018.5
3289.165	1022.5
3292.214	1006.5
3295.261	989.5
3298.306	957.5
3301.348	962.5
3304.387	943.5
3307.425	936.5
3310.459	915.5
3313.492	901.5
3316.521	901.5
3319.549	881.5
3322.574	877.5
3325.597	879.5
3328.617	862.5
3331.635	866.5
3334.65	863.5
3337.663	858.5
3340.674	838.5
3343.682	836.5
3346.688	847.5
3349.691	835.5
3352.692	827.5
3355.691	831.5
3358.687	812.5
3361.681	814.5
3364.673	796.5
3367.662	787.5
3370.649	774.5
3373.633	777.5
3376.615	753.5
3379.595	750.5
3382.572	735.5
3385.547	722.5
3388.52	721.5
3391.49	709.5
3394.458	699.5
3397.424	685.5
3400.387	687.5
3403.348	679.5
3406.307	674.5
3409.263	660.5
3412.217	640.5
3415.168	647.5
3418.118	648.5
3421.065	626.5
3424.009	629.5
3426.951	619.5
3429.891	603.5
3432.829	600.5
3435.764	580.5
3438.697	574.5
3441.628	565.5
3444.557	537.5
3447.483	532.5
3450.407	511.5
3453.328	499.5
3456.247	487.5
3459.164	473.5
3462.079	467.5
3464.991	443.5
3467.902	429.5
3470.809	409.5
3473.715	401.5
3476.618	385.5
3479.519	376.5
3482.418	362.5
3485.315	356.5
3488.209	351.5
3491.101	339.5
3493.99	335.5
3496.878	323.5
3499.763	312.5
3502.646	302.5
3505.527	290.5
3508.405	280.5
3511.281	265.5
3514.155	254.5
3517.027	239.5
3519.897	224.5
3522.764	216.5
3525.629	201.5
3528.492	196.5
3531.352	181.5
3534.211	174.5
3537.067	167.5
3539.921	158.5
3542.773	147.5
3545.622	143.5
3548.469	133.5
3551.315	122.5
3554.157	114.5
3556.998	109.5
3559.837	102.5
3562.673	93.5
3565.507	89.5
3568.339	81.5
3571.169	75.5
3573.996	71.5
3576.822	61.5
3579.645	59.5
3582.466	47.5
3585.285	45.5
3588.101	43.5
3590.916	40.5
3593.728	34.5
3596.538	32.5
3599.346	26.5
3602.152	16.5
3604.956	16.5
3607.757	11.5
3610.556	9.5
3613.354	-2.5
3616.149	-0.5
3618.942	-6.5
3621.732	-10.5
3624.521	-16.5
3627.307	-15.5
3630.092	-22.5
3632.874	-22.5
3635.654	-25.5
3638.432	-32.5
3641.208	-30.5
3643.982	-35.5
3646.753	-33.5
3649.523	-38.5
3652.29	-34.5
3655.055	-43.5
3657.818	-45.5
3660.579	-42.5
3663.338	-47.5
3666.095	-53.5
3668.849	-56.5
3671.602	-60.5
3674.352	-60.5
3677.101	-65.5
3679.847	-67.5
3682.591	-71.5
3685.333	-69.5
3688.073	-70.5
3690.811	-63.5
3693.547	-74.5
3696.281	-70.5
3699.013	-73.5
3701.742	-72.5
3704.47	-75.5
3707.195	-79.5
3709.919	-81.5
3712.64	-80.5
3715.359	-80.5
3718.076	-85.5
3720.792	-87.5
3723.505	-88.5
3726.216	-87.5
3728.925	-86.5
3731.632	-87.5
3734.336	-88.5
3737.039	-92.5
3739.74	-90.5
3742.439	-88.5
3745.136	-90.5
3747.83	-89.5
3750.523	-89.5
3753.213	-92.5
3755.902	-89.5
3758.589	-93.5
3761.273	-92.5
3763.956	-98.5
3766.636	-98.5
3769.315	-96.5
3771.991	-100.5
3774.665	-99.5
3777.338	-98.5
3780.008	-98.5
3782.677	-98.5
3785.343	-95.5
3788.007	-98.5
3790.67	-94.5
3793.33	-96.5
3795.989	-95.5
3798.645	-95.5
3801.299	-94.5
3803.952	-97.5
3806.602	-99.5
3809.251	-101.5
3811.897	-100.5
3814.542	-100.5
3817.184	-104.5
3819.825	-103.5
3822.463	-105.5
3825.1	-100.5
3827.735	-103.5
3830.367	-102.5
3832.998	-102.5
3835.627	-99.5
3838.253	-101.5
3840.878	-96.5
3843.501	-102.5
3846.122	-101.5
3848.741	-102.5
3851.358	-102.5
3853.973	-103.5
3856.586	-107.5
3859.197	-104.5
3861.806	-108.5
3864.414	-105.5
3867.019	-112.5
3869.622	-106.5
3872.224	-102.5
3874.823	-101.5
3877.421	-100.5
3880.016	-98.5
3882.61	-95.5
3885.202	-95.5
3887.792	-93.5
3890.38	-101.5
3892.966	-103.5
3895.55	-107.5
3898.132	-108.5
3900.713	-110.5
3903.291	-106.5
3905.868	-110.5
3908.442	-111.5
3911.015	-110.5
3913.586	-110.5
3916.155	-104.5
3918.722	-105.5
3921.287	-106.5
3923.85	-104.5
3926.411	-107.5
3928.971	-110.5
3931.528	-107.5
3934.084	-111.5
3936.638	-111.5
3939.19	-111.5
3941.74	-109.5
3944.288	-110.5
3946.834	-115.5
3949.378	-114.5
3951.921	-115.5
3954.462	-111.5
3957	-111.5
3959.537	-106.5
3962.072	-107.5
3964.606	-106.5
3967.137	-107.5
3969.667	-106.5
3972.194	-105.5
3974.72	-102.5
3977.244	-106.5
3979.766	-106.5
3982.286	-111.5
3984.805	-108.5
3987.321	-109.5
3989.836	-109.5
3992.349	-110.5
3994.86	-110.5
3997.369	-109.5
3999.877	-105.5
4002.382	-107.5
4004.886	-104.5
4007.388	-104.5
4009.888	-101.5
4012.386	-108.5
4014.883	-109.5
4017.377	-106.5
4019.87	-107.5
4022.361	-107.5
4024.85	-109.5
4027.338	-110.5
4029.823	-107.5
4032.307	-108.5
4034.789	-114.5
4037.269	-110.5
4039.747	-109.5
4042.224	-107.5
4044.699	-109.5
4047.172	-106.5
4049.643	-109.5
4052.112	-107.5
4054.58	-107.5
4057.046	-108.5
4059.51	-108.5
4061.972	-112.5
4064.432	-108.5
4066.891	-111.5
4069.348	-110.5
4071.803	-110.5
4074.256	-113.5
4076.708	-111.5
4079.158	-107.5
4081.606	-111.5
4084.052	-107.5
4086.497	-108.5
4088.939	-105.5
4091.38	-106.5
4093.819	-106.5
4096.257	-109.5
4098.693	-110.5
4101.127	-114.5
4103.559	-113.5
4105.989	-72.5
4108.418	-72.5
4110.845	-73.5
4113.27	-60.5
4115.694	-52.5
4118.115	-42.5
4120.535	-108.5
4122.954	-108.5
4125.37	-109.5
4127.785	-110.5
4130.198	-112.5
4132.609	-110.5
4135.019	-116.5
4137.427	-115.5
4139.833	-116.5
4142.237	-114.5
