Data from 100CFU2_A_RamanShift_1.txt Node
Date: Wed Jan 25 11:50:41 IST 2017
User: aro
Spectrometer: QEPB0276
Trigger mode: 0
Integration Time (sec): 5.000000E0
Scans to average: 1
Electric dark correction enabled: true
Nonlinearity correction enabled: false
Boxcar width: 0
XAxis mode: Raman Shifts
Number of Pixels in Spectrum: 1044
>>>>>Begin Spectral Data<<<<<
160.701	-39.5
166.742	-5.5
172.777	100.5
178.805	418.5
184.826	1131.5
190.841	2299.5
196.849	3541.5
202.85	4333.5
208.845	4547.5
214.833	4378.5
220.815	4191.5
226.789	4068.5
232.758	3998.5
238.719	3876.5
244.674	3713.5
250.623	3574.5
256.565	3390.5
262.5	3246.5
268.429	3137.5
274.351	2975.5
280.267	2899.5
286.176	2809.5
292.079	2704.5
297.975	2610.5
303.865	2557.5
309.748	2464.5
315.625	2408.5
321.495	2353.5
327.359	2331.5
333.217	2302.5
339.068	2269.5
344.912	2304.5
350.751	2257.5
356.583	2244.5
362.408	2256.5
368.227	2254.5
374.04	2256.5
379.847	2277.5
385.647	2277.5
391.44	2280.5
397.228	2303.5
403.009	2318.5
408.784	2337.5
414.553	2331.5
420.315	2341.5
426.071	2335.5
431.821	2348.5
437.565	2341.5
443.302	2326.5
449.033	2318.5
454.758	2301.5
460.477	2310.5
466.189	2293.5
471.896	2290.5
477.596	2278.5
483.29	2265.5
488.978	2261.5
494.66	2235.5
500.335	2208.5
506.005	2174.5
511.668	2133.5
517.325	2113.5
522.977	2076.5
528.622	2061.5
534.261	2024.5
539.894	2011.5
545.521	1991.5
551.141	1987.5
556.756	1993.5
562.365	1980.5
567.968	1956.5
573.565	1968.5
579.155	1918.5
584.74	1905.5
590.319	1928.5
595.892	1886.5
601.459	1890.5
607.02	1875.5
612.575	1844.5
618.124	1836.5
623.667	1816.5
629.204	1789.5
634.735	1785.5
640.261	1782.5
645.781	1767.5
651.294	1766.5
656.802	1767.5
662.304	1734.5
667.8	1744.5
673.29	1749.5
678.775	1728.5
684.254	1709.5
689.726	1728.5
695.193	1685.5
700.655	1719.5
706.11	1695.5
711.56	1693.5
717.004	1669.5
722.442	1663.5
727.874	1643.5
733.301	1658.5
738.722	1634.5
744.137	1624.5
749.547	1637.5
754.951	1626.5
760.349	1621.5
765.741	1621.5
771.128	1611.5
776.509	1618.5
781.885	1614.5
787.254	1611.5
792.618	1616.5
797.977	1591.5
803.33	1582.5
808.677	1588.5
814.019	1564.5
819.355	1553.5
824.686	1524.5
830.011	1512.5
835.33	1522.5
840.644	1510.5
845.952	1493.5
851.255	1499.5
856.552	1502.5
861.844	1488.5
867.13	1481.5
872.41	1469.5
877.686	1464.5
882.955	1452.5
888.219	1406.5
893.478	1417.5
898.731	1383.5
903.979	1367.5
909.221	1367.5
914.458	1344.5
919.69	1344.5
924.916	1340.5
930.136	1334.5
935.351	1346.5
940.561	1327.5
945.766	1325.5
950.965	1322.5
956.158	1310.5
961.347	1296.5
966.529	1289.5
971.707	1260.5
976.879	1252.5
982.046	1250.5
987.208	1237.5
992.364	1236.5
997.515	1238.5
1002.66	1263.5
1007.801	1257.5
1012.936	1263.5
1018.066	1287.5
1023.19	1291.5
1028.309	1290.5
1033.423	1301.5
1038.532	1298.5
1043.636	1279.5
1048.734	1252.5
1053.827	1245.5
1058.915	1237.5
1063.998	1221.5
1069.075	1216.5
1074.147	1230.5
1079.214	1229.5
1084.276	1254.5
1089.333	1260.5
1094.385	1273.5
1099.431	1264.5
1104.472	1263.5
1109.509	1287.5
1114.54	1261.5
1119.565	1225.5
1124.586	1218.5
1129.602	1223.5
1134.613	1205.5
1139.618	1212.5
1144.619	1213.5
1149.614	1214.5
1154.604	1210.5
1159.589	1230.5
1164.57	1234.5
1169.545	1234.5
1174.515	1226.5
1179.48	1228.5
1184.44	1223.5
1189.395	1215.5
1194.345	1216.5
1199.29	1216.5
1204.23	1208.5
1209.165	1207.5
1214.095	1214.5
1219.021	1239.5
1223.941	1235.5
1228.856	1245.5
1233.766	1248.5
1238.672	1251.5
1243.572	1271.5
1248.467	1253.5
1253.358	1233.5
1258.244	1224.5
1263.124	1195.5
1268	1180.5
1272.871	1164.5
1277.737	1173.5
1282.599	1175.5
1287.455	1152.5
1292.306	1172.5
1297.153	1173.5
1301.995	1184.5
1306.832	1200.5
1311.664	1198.5
1316.491	1200.5
1321.314	1206.5
1326.132	1172.5
1330.945	1165.5
1335.753	1155.5
1340.556	1155.5
1345.354	1143.5
1350.148	1123.5
1354.937	1128.5
1359.722	1113.5
1364.501	1086.5
1369.276	1093.5
1374.046	1074.5
1378.811	1085.5
1383.572	1078.5
1388.327	1081.5
1393.079	1078.5
1397.825	1065.5
1402.567	1070.5
1407.304	1054.5
1412.036	1044.5
1416.764	1049.5
1421.487	1037.5
1426.205	1052.5
1430.919	1065.5
1435.628	1076.5
1440.333	1095.5
1445.032	1086.5
1449.727	1102.5
1454.418	1091.5
1459.104	1105.5
1463.785	1084.5
1468.462	1077.5
1473.134	1079.5
1477.802	1055.5
1482.465	1059.5
1487.123	1054.5
1491.777	1060.5
1496.426	1073.5
1501.071	1087.5
1505.711	1082.5
1510.347	1086.5
1514.978	1098.5
1519.604	1105.5
1524.226	1114.5
1528.844	1111.5
1533.457	1113.5
1538.065	1114.5
1542.669	1108.5
1547.269	1119.5
1551.864	1110.5
1556.454	1112.5
1561.041	1119.5
1565.622	1144.5
1570.199	1154.5
1574.772	1178.5
1579.34	1182.5
1583.904	1209.5
1588.464	1237.5
1593.019	1246.5
1597.569	1255.5
1602.115	1256.5
1606.657	1269.5
1611.195	1274.5
1615.728	1289.5
1620.256	1318.5
1624.78	1322.5
1629.3	1353.5
1633.816	1375.5
1638.327	1393.5
1642.834	1400.5
1647.336	1405.5
1651.834	1428.5
1656.328	1413.5
1660.817	1404.5
1665.302	1389.5
1669.783	1351.5
1674.259	1306.5
1678.732	1288.5
1683.199	1254.5
1687.663	1211.5
1692.122	1162.5
1696.577	1106.5
1701.028	1058.5
1705.474	1034.5
1709.917	999.5
1714.355	986.5
1718.788	979.5
1723.218	954.5
1727.643	950.5
1732.064	928.5
1736.481	900.5
1740.893	897.5
1745.301	854.5
1749.705	840.5
1754.105	820.5
1758.501	794.5
1762.893	790.5
1767.28	775.5
1771.663	775.5
1776.042	767.5
1780.417	773.5
1784.787	786.5
1789.154	783.5
1793.516	769.5
1797.874	780.5
1802.228	774.5
1806.578	758.5
1810.924	750.5
1815.266	747.5
1819.603	727.5
1823.937	725.5
1828.266	716.5
1832.591	702.5
1836.913	713.5
1841.23	686.5
1845.543	705.5
1849.852	706.5
1854.156	688.5
1858.457	714.5
1862.754	705.5
1867.047	718.5
1871.335	716.5
1875.62	712.5
1879.9	710.5
1884.177	714.5
1888.449	724.5
1892.718	713.5
1896.982	704.5
1901.243	704.5
1905.499	711.5
1909.752	699.5
1914	700.5
1918.245	684.5
1922.485	695.5
1926.722	698.5
1930.954	713.5
1935.183	701.5
1939.408	725.5
1943.628	709.5
1947.845	716.5
1952.058	713.5
1956.267	709.5
1960.472	691.5
1964.673	688.5
1968.87	686.5
1973.063	687.5
1977.252	683.5
1981.438	676.5
1985.619	679.5
1989.797	662.5
1993.971	685.5
1998.14	673.5
2002.306	682.5
2006.469	689.5
2010.627	681.5
2014.781	688.5
2018.932	695.5
2023.078	677.5
2027.221	685.5
2031.36	672.5
2035.495	672.5
2039.627	675.5
2043.754	667.5
2047.878	654.5
2051.998	665.5
2056.114	653.5
2060.226	683.5
2064.334	658.5
2068.439	667.5
2072.54	679.5
2076.637	667.5
2080.73	685.5
2084.82	673.5
2088.906	677.5
2092.988	691.5
2097.066	686.5
2101.14	678.5
2105.211	666.5
2109.278	662.5
2113.342	659.5
2117.401	656.5
2121.457	650.5
2125.509	656.5
2129.558	657.5
2133.602	644.5
2137.643	640.5
2141.681	644.5
2145.714	642.5
2149.744	633.5
2153.77	639.5
2157.793	627.5
2161.812	619.5
2165.827	602.5
2169.838	613.5
2173.846	610.5
2177.851	585.5
2181.851	579.5
2185.848	574.5
2189.841	560.5
2193.831	571.5
2197.817	563.5
2201.799	558.5
2205.778	548.5
2209.753	560.5
2213.725	548.5
2217.693	551.5
2221.657	549.5
2225.618	560.5
2229.575	547.5
2233.529	553.5
2237.479	535.5
2241.425	548.5
2245.368	533.5
2249.307	526.5
2253.243	509.5
2257.175	524.5
2261.104	506.5
2265.029	496.5
2268.95	490.5
2272.868	489.5
2276.783	475.5
2280.694	468.5
2284.601	473.5
2288.505	464.5
2292.405	458.5
2296.302	451.5
2300.195	450.5
2304.085	441.5
2307.971	432.5
2311.854	426.5
2315.734	417.5
2319.609	419.5
2323.482	412.5
2327.351	401.5
2331.216	400.5
2335.078	405.5
2338.937	397.5
2342.792	394.5
2346.643	393.5
2350.492	389.5
2354.336	389.5
2358.178	394.5
2362.015	389.5
2365.85	398.5
2369.681	393.5
2373.508	403.5
2377.333	406.5
2381.153	396.5
2384.971	393.5
2388.785	392.5
2392.595	394.5
2396.402	387.5
2400.206	380.5
2404.007	384.5
2407.804	380.5
2411.597	371.5
2415.388	384.5
2419.174	383.5
2422.958	385.5
2426.738	375.5
2430.515	378.5
2434.289	370.5
2438.059	373.5
2441.825	379.5
2445.589	368.5
2449.349	373.5
2453.106	367.5
2456.859	364.5
2460.61	366.5
2464.356	355.5
2468.1	344.5
2471.84	344.5
2475.577	343.5
2479.311	336.5
2483.041	343.5
2486.768	340.5
2490.492	346.5
2494.213	344.5
2497.93	343.5
2501.644	343.5
2505.355	341.5
2509.062	342.5
2512.766	343.5
2516.467	334.5
2520.165	337.5
2523.859	334.5
2527.551	327.5
2531.239	331.5
2534.923	320.5
2538.605	322.5
2542.283	313.5
2545.958	318.5
2549.63	317.5
2553.299	321.5
2556.964	313.5
2560.626	305.5
2564.285	314.5
2567.941	300.5
2571.594	309.5
2575.243	307.5
2578.89	299.5
2582.533	303.5
2586.173	286.5
2589.809	300.5
2593.443	286.5
2597.073	287.5
2600.701	281.5
2604.325	289.5
2607.946	281.5
2611.564	284.5
2615.178	287.5
2618.79	284.5
2622.398	274.5
2626.004	278.5
2629.606	284.5
2633.205	279.5
2636.801	274.5
2640.394	267.5
2643.983	278.5
2647.57	269.5
2651.153	256.5
2654.734	254.5
2658.311	252.5
2661.885	256.5
2665.456	253.5
2669.025	246.5
2672.589	244.5
2676.151	250.5
2679.71	243.5
2683.266	247.5
2686.819	245.5
2690.368	236.5
2693.915	237.5
2697.458	231.5
2700.999	231.5
2704.536	235.5
2708.071	230.5
2711.602	226.5
2715.13	219.5
2718.656	221.5
2722.178	219.5
2725.697	223.5
2729.214	225.5
2732.727	225.5
2736.237	218.5
2739.744	224.5
2743.249	221.5
2746.75	231.5
2750.248	228.5
2753.743	227.5
2757.236	230.5
2760.725	221.5
2764.211	219.5
2767.695	215.5
2771.175	208.5
2774.652	216.5
2778.127	214.5
2781.598	211.5
2785.067	212.5
2788.532	217.5
2791.995	217.5
2795.455	219.5
2798.911	212.5
2802.365	220.5
2805.816	217.5
2809.264	226.5
2812.709	212.5
2816.151	214.5
2819.59	218.5
2823.026	223.5
2826.46	214.5
2829.89	215.5
2833.318	217.5
2836.742	217.5
2840.164	214.5
2843.583	218.5
2846.999	219.5
2850.412	226.5
2853.822	224.5
2857.229	231.5
2860.634	248.5
2864.035	240.5
2867.434	240.5
2870.83	241.5
2874.223	242.5
2877.613	243.5
2881	249.5
2884.385	250.5
2887.766	242.5
2891.145	241.5
2894.521	244.5
2897.894	243.5
2901.264	252.5
2904.631	248.5
2907.996	252.5
2911.358	247.5
2914.717	246.5
2918.073	257.5
2921.426	254.5
2924.777	267.5
2928.124	276.5
2931.469	281.5
2934.811	278.5
2938.15	283.5
2941.487	279.5
2944.821	285.5
2948.152	295.5
2951.48	287.5
2954.805	300.5
2958.128	314.5
2961.447	312.5
2964.765	321.5
2968.079	326.5
2971.39	339.5
2974.699	334.5
2978.005	347.5
2981.308	345.5
2984.609	354.5
2987.907	377.5
2991.202	386.5
2994.494	390.5
2997.784	397.5
3001.07	416.5
3004.355	419.5
3007.636	430.5
3010.915	436.5
3014.191	453.5
3017.464	456.5
3020.734	467.5
3024.002	465.5
3027.267	475.5
3030.53	477.5
3033.789	499.5
3037.046	510.5
3040.301	519.5
3043.552	526.5
3046.801	533.5
3050.048	545.5
3053.291	559.5
3056.532	579.5
3059.771	593.5
3063.006	611.5
3066.239	636.5
3069.469	663.5
3072.697	683.5
3075.922	688.5
3079.144	704.5
3082.364	729.5
3085.581	746.5
3088.795	751.5
3092.007	775.5
3095.216	784.5
3098.423	797.5
3101.627	817.5
3104.828	836.5
3108.026	859.5
3111.222	878.5
3114.416	888.5
3117.607	914.5
3120.795	948.5
3123.98	957.5
3127.163	997.5
3130.344	994.5
3133.521	1018.5
3136.696	1049.5
3139.869	1065.5
3143.039	1096.5
3146.206	1084.5
3149.371	1113.5
3152.533	1121.5
3155.693	1129.5
3158.85	1134.5
3162.005	1151.5
3165.157	1142.5
3168.306	1156.5
3171.453	1147.5
3174.597	1159.5
3177.739	1163.5
3180.878	1173.5
3184.014	1166.5
3187.149	1163.5
3190.28	1178.5
3193.409	1182.5
3196.536	1174.5
3199.659	1183.5
3202.781	1202.5
3205.9	1187.5
3209.016	1195.5
3212.13	1183.5
3215.241	1175.5
3218.35	1180.5
3221.456	1176.5
3224.56	1154.5
3227.661	1151.5
3230.76	1136.5
3233.856	1127.5
3236.95	1123.5
3240.041	1114.5
3243.13	1096.5
3246.216	1090.5
3249.3	1080.5
3252.382	1079.5
3255.46	1083.5
3258.537	1075.5
3261.611	1051.5
3264.682	1069.5
3267.751	1049.5
3270.818	1044.5
3273.882	1048.5
3276.943	1030.5
3280.002	1030.5
3283.059	1017.5
3286.113	1004.5
3289.165	999.5
3292.214	989.5
3295.261	965.5
3298.306	954.5
3301.348	945.5
3304.387	930.5
3307.425	917.5
3310.459	891.5
3313.492	886.5
3316.521	878.5
3319.549	869.5
3322.574	863.5
3325.597	856.5
3328.617	839.5
3331.635	842.5
3334.65	848.5
3337.663	830.5
3340.674	832.5
3343.682	839.5
3346.688	832.5
3349.691	834.5
3352.692	810.5
3355.691	802.5
3358.687	802.5
3361.681	794.5
3364.673	792.5
3367.662	772.5
3370.649	760.5
3373.633	753.5
3376.615	741.5
3379.595	728.5
3382.572	713.5
3385.547	710.5
3388.52	712.5
3391.49	713.5
3394.458	694.5
3397.424	680.5
3400.387	661.5
3403.348	655.5
3406.307	664.5
3409.263	654.5
3412.217	645.5
3415.168	632.5
3418.118	625.5
3421.065	618.5
3424.009	618.5
3426.951	602.5
3429.891	583.5
3432.829	592.5
3435.764	575.5
3438.697	546.5
3441.628	550.5
3444.557	524.5
3447.483	523.5
3450.407	511.5
3453.328	490.5
3456.247	468.5
3459.164	459.5
3462.079	457.5
3464.991	426.5
3467.902	408.5
3470.809	403.5
3473.715	388.5
3476.618	378.5
3479.519	362.5
3482.418	348.5
3485.315	350.5
3488.209	335.5
3491.101	330.5
3493.99	320.5
3496.878	307.5
3499.763	304.5
3502.646	290.5
3505.527	278.5
3508.405	271.5
3511.281	262.5
3514.155	250.5
3517.027	237.5
3519.897	219.5
3522.764	218.5
3525.629	189.5
3528.492	186.5
3531.352	177.5
3534.211	171.5
3537.067	158.5
3539.921	154.5
3542.773	140.5
3545.622	137.5
3548.469	125.5
3551.315	117.5
3554.157	103.5
3556.998	101.5
3559.837	92.5
3562.673	90.5
3565.507	81.5
3568.339	72.5
3571.169	74.5
3573.996	57.5
3576.822	54.5
3579.645	54.5
3582.466	43.5
3585.285	38.5
3588.101	37.5
3590.916	31.5
3593.728	27.5
3596.538	23.5
3599.346	15.5
3602.152	12.5
3604.956	6.5
3607.757	6.5
3610.556	0.5
3613.354	-4.5
3616.149	-8.5
3618.942	-13.5
3621.732	-16.5
3624.521	-15.5
3627.307	-17.5
3630.092	-23.5
3632.874	-31.5
3635.654	-30.5
3638.432	-36.5
3641.208	-35.5
3643.982	-36.5
3646.753	-42.5
3649.523	-42.5
3652.29	-42.5
3655.055	-49.5
3657.818	-50.5
3660.579	-49.5
3663.338	-55.5
3666.095	-60.5
3668.849	-61.5
3671.602	-65.5
3674.352	-64.5
3677.101	-65.5
3679.847	-67.5
3682.591	-72.5
3685.333	-74.5
3688.073	-74.5
3690.811	-74.5
3693.547	-81.5
3696.281	-81.5
3699.013	-82.5
3701.742	-77.5
3704.47	-82.5
3707.195	-80.5
3709.919	-82.5
3712.64	-84.5
3715.359	-89.5
3718.076	-90.5
3720.792	-92.5
3723.505	-96.5
3726.216	-90.5
3728.925	-94.5
3731.632	-90.5
3734.336	-91.5
3737.039	-94.5
3739.74	-93.5
3742.439	-93.5
3745.136	-95.5
3747.83	-91.5
3750.523	-97.5
3753.213	-95.5
3755.902	-95.5
3758.589	-99.5
3761.273	-97.5
3763.956	-97.5
3766.636	-96.5
3769.315	-99.5
3771.991	-102.5
3774.665	-106.5
3777.338	-101.5
3780.008	-104.5
3782.677	-100.5
3785.343	-102.5
3788.007	-98.5
3790.67	-100.5
3793.33	-102.5
3795.989	-99.5
3798.645	-100.5
3801.299	-99.5
3803.952	-105.5
3806.602	-103.5
3809.251	-106.5
3811.897	-110.5
3814.542	-106.5
3817.184	-105.5
3819.825	-104.5
3822.463	-104.5
3825.1	-104.5
3827.735	-103.5
3830.367	-105.5
3832.998	-107.5
3835.627	-107.5
3838.253	-108.5
3840.878	-106.5
3843.501	-105.5
3846.122	-110.5
3848.741	-105.5
3851.358	-106.5
3853.973	-107.5
3856.586	-112.5
3859.197	-107.5
3861.806	-113.5
3864.414	-113.5
3867.019	-111.5
3869.622	-110.5
3872.224	-110.5
3874.823	-106.5
3877.421	-103.5
3880.016	-102.5
3882.61	-97.5
3885.202	-102.5
3887.792	-101.5
3890.38	-105.5
3892.966	-109.5
3895.55	-110.5
3898.132	-112.5
3900.713	-110.5
3903.291	-110.5
3905.868	-110.5
3908.442	-111.5
3911.015	-114.5
3913.586	-111.5
3916.155	-111.5
3918.722	-111.5
3921.287	-114.5
3923.85	-112.5
3926.411	-108.5
3928.971	-114.5
3931.528	-110.5
3934.084	-112.5
3936.638	-115.5
3939.19	-115.5
3941.74	-115.5
3944.288	-115.5
3946.834	-117.5
3949.378	-115.5
3951.921	-116.5
3954.462	-115.5
3957	-114.5
3959.537	-112.5
3962.072	-110.5
3964.606	-112.5
3967.137	-111.5
3969.667	-113.5
3972.194	-112.5
3974.72	-110.5
3977.244	-111.5
3979.766	-108.5
3982.286	-116.5
3984.805	-118.5
3987.321	-111.5
3989.836	-115.5
3992.349	-113.5
3994.86	-112.5
3997.369	-108.5
3999.877	-110.5
4002.382	-108.5
4004.886	-110.5
4007.388	-109.5
4009.888	-108.5
4012.386	-113.5
4014.883	-113.5
4017.377	-112.5
4019.87	-114.5
4022.361	-113.5
4024.85	-113.5
4027.338	-114.5
4029.823	-108.5
4032.307	-112.5
4034.789	-112.5
4037.269	-116.5
4039.747	-114.5
4042.224	-112.5
4044.699	-116.5
4047.172	-113.5
4049.643	-114.5
4052.112	-111.5
4054.58	-113.5
4057.046	-112.5
4059.51	-111.5
4061.972	-113.5
4064.432	-115.5
4066.891	-112.5
4069.348	-113.5
4071.803	-115.5
4074.256	-116.5
4076.708	-113.5
4079.158	-113.5
4081.606	-113.5
4084.052	-110.5
4086.497	-110.5
4088.939	-109.5
4091.38	-114.5
4093.819	-113.5
4096.257	-113.5
4098.693	-116.5
4101.127	-119.5
4103.559	-118.5
4105.989	-75.5
4108.418	-74.5
4110.845	-71.5
4113.27	-63.5
4115.694	-59.5
4118.115	-50.5
4120.535	-114.5
4122.954	-118.5
4125.37	-116.5
4127.785	-113.5
4130.198	-114.5
4132.609	-115.5
4135.019	-117.5
4137.427	-118.5
4139.833	-117.5
4142.237	-120.5
