Data from 1CFU2_B_RamanShift_1.txt Node
Date: Wed Jan 25 12:23:05 IST 2017
User: aro
Spectrometer: QEPB0276
Trigger mode: 0
Integration Time (sec): 5.000000E0
Scans to average: 1
Electric dark correction enabled: true
Nonlinearity correction enabled: false
Boxcar width: 0
XAxis mode: Raman Shifts
Number of Pixels in Spectrum: 1044
>>>>>Begin Spectral Data<<<<<
160.701	-41.12
166.742	-4.12
172.777	104.88
178.805	448.88
184.826	1241.88
190.841	2528.88
196.849	3940.88
202.85	4807.88
208.845	4986.88
214.833	4811.88
220.815	4638.88
226.789	4510.88
232.758	4399.88
238.719	4239.88
244.674	4068.88
250.623	3901.88
256.565	3712.88
262.5	3526.88
268.429	3383.88
274.351	3233.88
280.267	3117.88
286.176	2989.88
292.079	2884.88
297.975	2792.88
303.865	2720.88
309.748	2642.88
315.625	2582.88
321.495	2519.88
327.359	2481.88
333.217	2448.88
339.068	2427.88
344.912	2415.88
350.751	2425.88
356.583	2400.88
362.408	2394.88
368.227	2410.88
374.04	2407.88
379.847	2410.88
385.647	2439.88
391.44	2448.88
397.228	2441.88
403.009	2474.88
408.784	2503.88
414.553	2475.88
420.315	2470.88
426.071	2470.88
431.821	2492.88
437.565	2482.88
443.302	2504.88
449.033	2474.88
454.758	2459.88
460.477	2456.88
466.189	2425.88
471.896	2434.88
477.596	2405.88
483.29	2420.88
488.978	2403.88
494.66	2381.88
500.335	2351.88
506.005	2323.88
511.668	2262.88
517.325	2218.88
522.977	2190.88
528.622	2163.88
534.261	2129.88
539.894	2106.88
545.521	2096.88
551.141	2071.88
556.756	2066.88
562.365	2062.88
567.968	2027.88
573.565	2029.88
579.155	2010.88
584.74	2003.88
590.319	1995.88
595.892	1978.88
601.459	1973.88
607.02	1942.88
612.575	1951.88
618.124	1897.88
623.667	1890.88
629.204	1894.88
634.735	1870.88
640.261	1831.88
645.781	1821.88
651.294	1820.88
656.802	1814.88
662.304	1817.88
667.8	1801.88
673.29	1806.88
678.775	1783.88
684.254	1783.88
689.726	1776.88
695.193	1772.88
700.655	1747.88
706.11	1731.88
711.56	1723.88
717.004	1719.88
722.442	1695.88
727.874	1686.88
733.301	1679.88
738.722	1674.88
744.137	1666.88
749.547	1662.88
754.951	1650.88
760.349	1663.88
765.741	1638.88
771.128	1640.88
776.509	1667.88
781.885	1652.88
787.254	1645.88
792.618	1651.88
797.977	1630.88
803.33	1620.88
808.677	1590.88
814.019	1593.88
819.355	1574.88
824.686	1561.88
830.011	1547.88
835.33	1542.88
840.644	1524.88
845.952	1514.88
851.255	1530.88
856.552	1502.88
861.844	1498.88
867.13	1490.88
872.41	1489.88
877.686	1479.88
882.955	1441.88
888.219	1443.88
893.478	1396.88
898.731	1375.88
903.979	1358.88
909.221	1355.88
914.458	1334.88
919.69	1334.88
924.916	1323.88
930.136	1345.88
935.351	1324.88
940.561	1315.88
945.766	1304.88
950.965	1305.88
956.158	1286.88
961.347	1292.88
966.529	1264.88
971.707	1245.88
976.879	1235.88
982.046	1209.88
987.208	1205.88
992.364	1206.88
997.515	1208.88
1002.66	1214.88
1007.801	1226.88
1012.936	1246.88
1018.066	1248.88
1023.19	1268.88
1028.309	1240.88
1033.423	1262.88
1038.532	1240.88
1043.636	1242.88
1048.734	1235.88
1053.827	1217.88
1058.915	1213.88
1063.998	1195.88
1069.075	1194.88
1074.147	1192.88
1079.214	1205.88
1084.276	1213.88
1089.333	1228.88
1094.385	1230.88
1099.431	1232.88
1104.472	1248.88
1109.509	1234.88
1114.54	1212.88
1119.565	1204.88
1124.586	1189.88
1129.602	1174.88
1134.613	1163.88
1139.618	1175.88
1144.619	1181.88
1149.614	1156.88
1154.604	1165.88
1159.589	1182.88
1164.57	1199.88
1169.545	1194.88
1174.515	1198.88
1179.48	1191.88
1184.44	1184.88
1189.395	1171.88
1194.345	1168.88
1199.29	1159.88
1204.23	1175.88
1209.165	1165.88
1214.095	1177.88
1219.021	1198.88
1223.941	1196.88
1228.856	1211.88
1233.766	1205.88
1238.672	1217.88
1243.572	1207.88
1248.467	1202.88
1253.358	1183.88
1258.244	1170.88
1263.124	1150.88
1268	1133.88
1272.871	1117.88
1277.737	1116.88
1282.599	1121.88
1287.455	1112.88
1292.306	1102.88
1297.153	1129.88
1301.995	1130.88
1306.832	1151.88
1311.664	1150.88
1316.491	1145.88
1321.314	1144.88
1326.132	1127.88
1330.945	1132.88
1335.753	1106.88
1340.556	1096.88
1345.354	1077.88
1350.148	1078.88
1354.937	1071.88
1359.722	1065.88
1364.501	1034.88
1369.276	1046.88
1374.046	1031.88
1378.811	1044.88
1383.572	1045.88
1388.327	1037.88
1393.079	1023.88
1397.825	1025.88
1402.567	1013.88
1407.304	1003.88
1412.036	1004.88
1416.764	997.88
1421.487	1009.88
1426.205	990.88
1430.919	1014.88
1435.628	1028.88
1440.333	1036.88
1445.032	1049.88
1449.727	1055.88
1454.418	1063.88
1459.104	1062.88
1463.785	1049.88
1468.462	1048.88
1473.134	1037.88
1477.802	1025.88
1482.465	1009.88
1487.123	1005.88
1491.777	1025.88
1496.426	1021.88
1501.071	1022.88
1505.711	1026.88
1510.347	1054.88
1514.978	1062.88
1519.604	1062.88
1524.226	1078.88
1528.844	1072.88
1533.457	1072.88
1538.065	1080.88
1542.669	1065.88
1547.269	1073.88
1551.864	1083.88
1556.454	1082.88
1561.041	1084.88
1565.622	1106.88
1570.199	1110.88
1574.772	1130.88
1579.34	1162.88
1583.904	1184.88
1588.464	1205.88
1593.019	1208.88
1597.569	1233.88
1602.115	1243.88
1606.657	1247.88
1611.195	1265.88
1615.728	1284.88
1620.256	1313.88
1624.78	1314.88
1629.3	1331.88
1633.816	1353.88
1638.327	1377.88
1642.834	1396.88
1647.336	1404.88
1651.834	1413.88
1656.328	1390.88
1660.817	1384.88
1665.302	1357.88
1669.783	1337.88
1674.259	1291.88
1678.732	1265.88
1683.199	1219.88
1687.663	1180.88
1692.122	1134.88
1696.577	1084.88
1701.028	1029.88
1705.474	1010.88
1709.917	965.88
1714.355	957.88
1718.788	940.88
1723.218	915.88
1727.643	899.88
1732.064	881.88
1736.481	848.88
1740.893	827.88
1745.301	809.88
1749.705	789.88
1754.105	754.88
1758.501	753.88
1762.893	720.88
1767.28	715.88
1771.663	714.88
1776.042	704.88
1780.417	714.88
1784.787	702.88
1789.154	719.88
1793.516	711.88
1797.874	705.88
1802.228	702.88
1806.578	691.88
1810.924	678.88
1815.266	664.88
1819.603	651.88
1823.937	646.88
1828.266	646.88
1832.591	637.88
1836.913	642.88
1841.23	631.88
1845.543	629.88
1849.852	629.88
1854.156	637.88
1858.457	632.88
1862.754	631.88
1867.047	655.88
1871.335	648.88
1875.62	650.88
1879.9	644.88
1884.177	654.88
1888.449	648.88
1892.718	635.88
1896.982	633.88
1901.243	639.88
1905.499	634.88
1909.752	630.88
1914	633.88
1918.245	633.88
1922.485	638.88
1926.722	639.88
1930.954	647.88
1935.183	641.88
1939.408	641.88
1943.628	633.88
1947.845	649.88
1952.058	635.88
1956.267	638.88
1960.472	625.88
1964.673	628.88
1968.87	623.88
1973.063	629.88
1977.252	610.88
1981.438	614.88
1985.619	604.88
1989.797	612.88
1993.971	611.88
1998.14	606.88
2002.306	606.88
2006.469	605.88
2010.627	617.88
2014.781	624.88
2018.932	624.88
2023.078	615.88
2027.221	616.88
2031.36	612.88
2035.495	616.88
2039.627	609.88
2043.754	609.88
2047.878	600.88
2051.998	594.88
2056.114	595.88
2060.226	606.88
2064.334	615.88
2068.439	624.88
2072.54	618.88
2076.637	624.88
2080.73	626.88
2084.82	632.88
2088.906	616.88
2092.988	630.88
2097.066	621.88
2101.14	607.88
2105.211	615.88
2109.278	604.88
2113.342	603.88
2117.401	609.88
2121.457	596.88
2125.509	596.88
2129.558	603.88
2133.602	600.88
2137.643	581.88
2141.681	600.88
2145.714	585.88
2149.744	575.88
2153.77	577.88
2157.793	576.88
2161.812	563.88
2165.827	566.88
2169.838	545.88
2173.846	541.88
2177.851	536.88
2181.851	536.88
2185.848	531.88
2189.841	531.88
2193.831	514.88
2197.817	508.88
2201.799	510.88
2205.778	503.88
2209.753	498.88
2213.725	498.88
2217.693	500.88
2221.657	513.88
2225.618	506.88
2229.575	495.88
2233.529	499.88
2237.479	489.88
2241.425	488.88
2245.368	474.88
2249.307	472.88
2253.243	461.88
2257.175	461.88
2261.104	450.88
2265.029	442.88
2268.95	441.88
2272.868	434.88
2276.783	435.88
2280.694	429.88
2284.601	415.88
2288.505	412.88
2292.405	403.88
2296.302	401.88
2300.195	403.88
2304.085	387.88
2307.971	383.88
2311.854	374.88
2315.734	372.88
2319.609	366.88
2323.482	368.88
2327.351	355.88
2331.216	360.88
2335.078	352.88
2338.937	346.88
2342.792	334.88
2346.643	345.88
2350.492	342.88
2354.336	347.88
2358.178	340.88
2362.015	339.88
2365.85	340.88
2369.681	341.88
2373.508	342.88
2377.333	340.88
2381.153	346.88
2384.971	347.88
2388.785	343.88
2392.595	344.88
2396.402	322.88
2400.206	330.88
2404.007	341.88
2407.804	331.88
2411.597	323.88
2415.388	324.88
2419.174	321.88
2422.958	327.88
2426.738	325.88
2430.515	322.88
2434.289	313.88
2438.059	315.88
2441.825	313.88
2445.589	325.88
2449.349	307.88
2453.106	309.88
2456.859	302.88
2460.61	309.88
2464.356	300.88
2468.1	299.88
2471.84	293.88
2475.577	294.88
2479.311	280.88
2483.041	295.88
2486.768	287.88
2490.492	291.88
2494.213	296.88
2497.93	286.88
2501.644	289.88
2505.355	289.88
2509.062	287.88
2512.766	292.88
2516.467	284.88
2520.165	286.88
2523.859	283.88
2527.551	281.88
2531.239	278.88
2534.923	272.88
2538.605	273.88
2542.283	266.88
2545.958	264.88
2549.63	270.88
2553.299	265.88
2556.964	265.88
2560.626	257.88
2564.285	272.88
2567.941	256.88
2571.594	253.88
2575.243	249.88
2578.89	253.88
2582.533	257.88
2586.173	240.88
2589.809	238.88
2593.443	246.88
2597.073	253.88
2600.701	238.88
2604.325	242.88
2607.946	237.88
2611.564	248.88
2615.178	242.88
2618.79	229.88
2622.398	231.88
2626.004	235.88
2629.606	231.88
2633.205	226.88
2636.801	230.88
2640.394	223.88
2643.983	217.88
2647.57	217.88
2651.153	209.88
2654.734	213.88
2658.311	213.88
2661.885	215.88
2665.456	204.88
2669.025	209.88
2672.589	208.88
2676.151	200.88
2679.71	214.88
2683.266	197.88
2686.819	201.88
2690.368	196.88
2693.915	203.88
2697.458	193.88
2700.999	187.88
2704.536	178.88
2708.071	184.88
2711.602	187.88
2715.13	182.88
2718.656	181.88
2722.178	183.88
2725.697	181.88
2729.214	184.88
2732.727	183.88
2736.237	190.88
2739.744	193.88
2743.249	189.88
2746.75	196.88
2750.248	188.88
2753.743	182.88
2757.236	189.88
2760.725	187.88
2764.211	178.88
2767.695	183.88
2771.175	176.88
2774.652	173.88
2778.127	179.88
2781.598	184.88
2785.067	173.88
2788.532	185.88
2791.995	179.88
2795.455	179.88
2798.911	186.88
2802.365	186.88
2805.816	191.88
2809.264	185.88
2812.709	185.88
2816.151	189.88
2819.59	186.88
2823.026	185.88
2826.46	182.88
2829.89	184.88
2833.318	191.88
2836.742	193.88
2840.164	193.88
2843.583	195.88
2846.999	199.88
2850.412	198.88
2853.822	210.88
2857.229	212.88
2860.634	212.88
2864.035	211.88
2867.434	220.88
2870.83	229.88
2874.223	224.88
2877.613	225.88
2881	226.88
2884.385	230.88
2887.766	228.88
2891.145	230.88
2894.521	231.88
2897.894	232.88
2901.264	238.88
2904.631	239.88
2907.996	240.88
2911.358	238.88
2914.717	249.88
2918.073	248.88
2921.426	258.88
2924.777	259.88
2928.124	266.88
2931.469	274.88
2934.811	265.88
2938.15	278.88
2941.487	289.88
2944.821	287.88
2948.152	293.88
2951.48	300.88
2954.805	314.88
2958.128	315.88
2961.447	316.88
2964.765	321.88
2968.079	328.88
2971.39	341.88
2974.699	343.88
2978.005	354.88
2981.308	370.88
2984.609	372.88
2987.907	383.88
2991.202	388.88
2994.494	402.88
2997.784	401.88
3001.07	430.88
3004.355	443.88
3007.636	451.88
3010.915	465.88
3014.191	477.88
3017.464	481.88
3020.734	496.88
3024.002	497.88
3027.267	517.88
3030.53	510.88
3033.789	518.88
3037.046	532.88
3040.301	557.88
3043.552	567.88
3046.801	573.88
3050.048	605.88
3053.291	608.88
3056.532	636.88
3059.771	659.88
3063.006	679.88
3066.239	698.88
3069.469	723.88
3072.697	735.88
3075.922	761.88
3079.144	784.88
3082.364	794.88
3085.581	821.88
3088.795	833.88
3092.007	841.88
3095.216	868.88
3098.423	891.88
3101.627	919.88
3104.828	942.88
3108.026	954.88
3111.222	975.88
3114.416	992.88
3117.607	1024.88
3120.795	1044.88
3123.98	1057.88
3127.163	1090.88
3130.344	1124.88
3133.521	1141.88
3136.696	1153.88
3139.869	1200.88
3143.039	1205.88
3146.206	1239.88
3149.371	1239.88
3152.533	1253.88
3155.693	1273.88
3158.85	1274.88
3162.005	1282.88
3165.157	1313.88
3168.306	1290.88
3171.453	1296.88
3174.597	1315.88
3177.739	1323.88
3180.878	1322.88
3184.014	1327.88
3187.149	1319.88
3190.28	1338.88
3193.409	1327.88
3196.536	1326.88
3199.659	1347.88
3202.781	1347.88
3205.9	1344.88
3209.016	1338.88
3212.13	1338.88
3215.241	1331.88
3218.35	1331.88
3221.456	1312.88
3224.56	1311.88
3227.661	1292.88
3230.76	1274.88
3233.856	1258.88
3236.95	1259.88
3240.041	1241.88
3243.13	1229.88
3246.216	1227.88
3249.3	1206.88
3252.382	1213.88
3255.46	1194.88
3258.537	1211.88
3261.611	1191.88
3264.682	1186.88
3267.751	1168.88
3270.818	1190.88
3273.882	1166.88
3276.943	1172.88
3280.002	1161.88
3283.059	1150.88
3286.113	1128.88
3289.165	1107.88
3292.214	1100.88
3295.261	1088.88
3298.306	1074.88
3301.348	1053.88
3304.387	1048.88
3307.425	1024.88
3310.459	1016.88
3313.492	1001.88
3316.521	985.88
3319.549	985.88
3322.574	966.88
3325.597	966.88
3328.617	963.88
3331.635	956.88
3334.65	932.88
3337.663	935.88
3340.674	937.88
3343.682	925.88
3346.688	921.88
3349.691	933.88
3352.692	921.88
3355.691	922.88
3358.687	902.88
3361.681	900.88
3364.673	880.88
3367.662	875.88
3370.649	858.88
3373.633	843.88
3376.615	831.88
3379.595	830.88
3382.572	815.88
3385.547	802.88
3388.52	785.88
3391.49	780.88
3394.458	767.88
3397.424	770.88
3400.387	754.88
3403.348	743.88
3406.307	726.88
3409.263	731.88
3412.217	723.88
3415.168	723.88
3418.118	724.88
3421.065	693.88
3424.009	688.88
3426.951	682.88
3429.891	672.88
3432.829	652.88
3435.764	645.88
3438.697	627.88
3441.628	609.88
3444.557	603.88
3447.483	589.88
3450.407	572.88
3453.328	555.88
3456.247	526.88
3459.164	516.88
3462.079	499.88
3464.991	490.88
3467.902	480.88
3470.809	463.88
3473.715	434.88
3476.618	419.88
3479.519	416.88
3482.418	405.88
3485.315	385.88
3488.209	384.88
3491.101	367.88
3493.99	361.88
3496.878	356.88
3499.763	346.88
3502.646	336.88
3505.527	317.88
3508.405	301.88
3511.281	294.88
3514.155	284.88
3517.027	267.88
3519.897	263.88
3522.764	239.88
3525.629	230.88
3528.492	209.88
3531.352	202.88
3534.211	192.88
3537.067	179.88
3539.921	167.88
3542.773	156.88
3545.622	149.88
3548.469	140.88
3551.315	133.88
3554.157	119.88
3556.998	110.88
3559.837	101.88
3562.673	101.88
3565.507	95.88
3568.339	88.88
3571.169	76.88
3573.996	74.88
3576.822	67.88
3579.645	58.88
3582.466	55.88
3585.285	48.88
3588.101	37.88
3590.916	32.88
3593.728	25.88
3596.538	21.88
3599.346	20.88
3602.152	16.88
3604.956	8.88
3607.757	9.88
3610.556	5.88
3613.354	1.88
3616.149	-9.12
3618.942	-9.12
3621.732	-10.12
3624.521	-16.12
3627.307	-21.12
3630.092	-21.12
3632.874	-25.12
3635.654	-27.12
3638.432	-35.12
3641.208	-36.12
3643.982	-38.12
3646.753	-41.12
3649.523	-49.12
3652.29	-47.12
3655.055	-55.12
3657.818	-49.12
3660.579	-56.12
3663.338	-59.12
3666.095	-61.12
3668.849	-61.12
3671.602	-64.12
3674.352	-73.12
3677.101	-71.12
3679.847	-72.12
3682.591	-73.12
3685.333	-76.12
3688.073	-86.12
3690.811	-79.12
3693.547	-86.12
3696.281	-84.12
3699.013	-84.12
3701.742	-85.12
3704.47	-93.12
3707.195	-88.12
3709.919	-92.12
3712.64	-91.12
3715.359	-91.12
3718.076	-93.12
3720.792	-98.12
3723.505	-97.12
3726.216	-98.12
3728.925	-103.12
3731.632	-100.12
3734.336	-102.12
3737.039	-101.12
3739.74	-102.12
3742.439	-102.12
3745.136	-103.12
3747.83	-98.12
3750.523	-100.12
3753.213	-104.12
3755.902	-104.12
3758.589	-106.12
3761.273	-104.12
3763.956	-109.12
3766.636	-112.12
3769.315	-106.12
3771.991	-112.12
3774.665	-113.12
3777.338	-110.12
3780.008	-112.12
3782.677	-113.12
3785.343	-115.12
3788.007	-111.12
3790.67	-109.12
3793.33	-111.12
3795.989	-111.12
3798.645	-111.12
3801.299	-110.12
3803.952	-112.12
3806.602	-110.12
3809.251	-115.12
3811.897	-117.12
3814.542	-113.12
3817.184	-114.12
3819.825	-116.12
3822.463	-116.12
3825.1	-117.12
3827.735	-115.12
3830.367	-116.12
3832.998	-121.12
3835.627	-118.12
3838.253	-117.12
3840.878	-115.12
3843.501	-116.12
3846.122	-118.12
3848.741	-116.12
3851.358	-118.12
3853.973	-119.12
3856.586	-121.12
3859.197	-113.12
3861.806	-122.12
3864.414	-119.12
3867.019	-120.12
3869.622	-116.12
3872.224	-120.12
3874.823	-117.12
3877.421	-115.12
3880.016	-110.12
3882.61	-108.12
3885.202	-109.12
3887.792	-110.12
3890.38	-115.12
3892.966	-119.12
3895.55	-118.12
3898.132	-119.12
3900.713	-121.12
3903.291	-119.12
3905.868	-120.12
3908.442	-123.12
3911.015	-120.12
3913.586	-119.12
3916.155	-119.12
3918.722	-119.12
3921.287	-119.12
3923.85	-125.12
3926.411	-123.12
3928.971	-125.12
3931.528	-122.12
3934.084	-125.12
3936.638	-126.12
3939.19	-121.12
3941.74	-122.12
3944.288	-124.12
3946.834	-123.12
3949.378	-123.12
3951.921	-124.12
3954.462	-121.12
3957	-123.12
3959.537	-121.12
3962.072	-122.12
3964.606	-122.12
3967.137	-121.12
3969.667	-123.12
3972.194	-123.12
3974.72	-124.12
3977.244	-121.12
3979.766	-123.12
3982.286	-122.12
3984.805	-120.12
3987.321	-122.12
3989.836	-120.12
3992.349	-123.12
3994.86	-123.12
3997.369	-117.12
3999.877	-119.12
4002.382	-118.12
4004.886	-118.12
4007.388	-118.12
4009.888	-119.12
4012.386	-124.12
4014.883	-122.12
4017.377	-121.12
4019.87	-122.12
4022.361	-124.12
4024.85	-124.12
4027.338	-121.12
4029.823	-122.12
4032.307	-119.12
4034.789	-123.12
4037.269	-123.12
4039.747	-122.12
4042.224	-117.12
4044.699	-123.12
4047.172	-119.12
4049.643	-120.12
4052.112	-121.12
4054.58	-122.12
4057.046	-124.12
4059.51	-122.12
4061.972	-123.12
4064.432	-127.12
4066.891	-124.12
4069.348	-121.12
4071.803	-124.12
4074.256	-124.12
4076.708	-124.12
4079.158	-117.12
4081.606	-121.12
4084.052	-121.12
4086.497	-119.12
4088.939	-122.12
4091.38	-122.12
4093.819	-123.12
4096.257	-124.12
4098.693	-124.12
4101.127	-125.12
4103.559	-126.12
4105.989	-81.12
4108.418	-80.12
4110.845	-79.12
4113.27	-73.12
4115.694	-66.12
4118.115	-56.12
4120.535	-123.12
4122.954	-126.12
4125.37	-125.12
4127.785	-125.12
4130.198	-128.12
4132.609	-123.12
4135.019	-128.12
4137.427	-129.12
4139.833	-125.12
4142.237	-126.12
