Data from R2_I=.35_T=20000ms_h=-4_RamanShift_12-56-28-719.txt Node
Date: Sun Apr 23 12:56:28 IDT 2017
User: aro
Spectrometer: QEPB0276
Trigger mode: 0
Integration Time (sec): 2.000000E1
Scans to average: 1
Electric dark correction enabled: true
Nonlinearity correction enabled: false
Boxcar width: 0
XAxis mode: Raman Shifts
Number of Pixels in Spectrum: 1044
>>>>>Begin Spectral Data<<<<<
160.701	5.38
166.742	5.38
172.777	20.38
178.805	42.38
184.826	96.38
190.841	163.38
196.849	271.38
202.85	325.38
208.845	337.38
214.833	319.38
220.815	317.38
226.789	322.38
232.758	293.38
238.719	297.38
244.674	292.38
250.623	279.38
256.565	272.38
262.5	269.38
268.429	265.38
274.351	265.38
280.267	253.38
286.176	246.38
292.079	244.38
297.975	228.38
303.865	212.38
309.748	203.38
315.625	200.38
321.495	187.38
327.359	189.38
333.217	179.38
339.068	180.38
344.912	181.38
350.751	184.38
356.583	180.38
362.408	174.38
368.227	185.38
374.04	186.38
379.847	198.38
385.647	205.38
391.44	218.38
397.228	220.38
403.009	239.38
408.784	284.38
414.553	335.38
420.315	445.38
426.071	558.38
431.821	674.38
437.565	732.38
443.302	718.38
449.033	614.38
454.758	491.38
460.477	409.38
466.189	324.38
471.896	284.38
477.596	225.38
483.29	214.38
488.978	196.38
494.66	177.38
500.335	163.38
506.005	166.38
511.668	141.38
517.325	141.38
522.977	139.38
528.622	117.38
534.261	116.38
539.894	120.38
545.521	110.38
551.141	110.38
556.756	113.38
562.365	106.38
567.968	104.38
573.565	106.38
579.155	104.38
584.74	110.38
590.319	106.38
595.892	105.38
601.459	100.38
607.02	98.38
612.575	105.38
618.124	100.38
623.667	104.38
629.204	102.38
634.735	104.38
640.261	100.38
645.781	114.38
651.294	119.38
656.802	106.38
662.304	108.38
667.8	89.38
673.29	96.38
678.775	94.38
684.254	101.38
689.726	102.38
695.193	95.38
700.655	100.38
706.11	101.38
711.56	92.38
717.004	95.38
722.442	107.38
727.874	95.38
733.301	98.38
738.722	98.38
744.137	105.38
749.547	114.38
754.951	110.38
760.349	111.38
765.741	111.38
771.128	126.38
776.509	123.38
781.885	124.38
787.254	132.38
792.618	155.38
797.977	149.38
803.33	163.38
808.677	185.38
814.019	188.38
819.355	197.38
824.686	199.38
830.011	206.38
835.33	214.38
840.644	231.38
845.952	274.38
851.255	313.38
856.552	392.38
861.844	531.38
867.13	777.38
872.41	1337.38
877.686	2416.38
882.955	3857.38
888.219	4614.38
893.478	3906.38
898.731	2357.38
903.979	1205.38
909.221	698.38
914.458	483.38
919.69	363.38
924.916	296.38
930.136	244.38
935.351	219.38
940.561	191.38
945.766	179.38
950.965	163.38
956.158	168.38
961.347	160.38
966.529	157.38
971.707	145.38
976.879	155.38
982.046	156.38
987.208	168.38
992.364	186.38
997.515	211.38
1002.66	233.38
1007.801	279.38
1012.936	316.38
1018.066	375.38
1023.19	462.38
1028.309	585.38
1033.423	744.38
1038.532	940.38
1043.636	1185.38
1048.734	1450.38
1053.827	1652.38
1058.915	1659.38
1063.998	1421.38
1069.075	1155.38
1074.147	999.38
1079.214	1002.38
1084.276	1126.38
1089.333	1319.38
1094.385	1580.38
1099.431	1754.38
1104.472	1651.38
1109.509	1324.38
1114.54	1007.38
1119.565	814.38
1124.586	701.38
1129.602	610.38
1134.613	514.38
1139.618	424.38
1144.619	350.38
1149.614	301.38
1154.604	272.38
1159.589	247.38
1164.57	222.38
1169.545	192.38
1174.515	179.38
1179.48	167.38
1184.44	155.38
1189.395	153.38
1194.345	140.38
1199.29	136.38
1204.23	145.38
1209.165	151.38
1214.095	145.38
1219.021	147.38
1223.941	163.38
1228.856	175.38
1233.766	187.38
1238.672	202.38
1243.572	219.38
1248.467	233.38
1253.358	279.38
1258.244	316.38
1263.124	369.38
1268	473.38
1272.871	623.38
1277.737	747.38
1282.599	788.38
1287.455	680.38
1292.306	554.38
1297.153	448.38
1301.995	358.38
1306.832	321.38
1311.664	290.38
1316.491	274.38
1321.314	260.38
1326.132	257.38
1330.945	247.38
1335.753	244.38
1340.556	250.38
1345.354	255.38
1350.148	255.38
1354.937	256.38
1359.722	265.38
1364.501	271.38
1369.276	276.38
1374.046	291.38
1378.811	310.38
1383.572	355.38
1388.327	373.38
1393.079	404.38
1397.825	416.38
1402.567	432.38
1407.304	465.38
1412.036	514.38
1416.764	559.38
1421.487	606.38
1426.205	682.38
1430.919	756.38
1435.628	886.38
1440.333	1038.38
1445.032	1285.38
1449.727	1636.38
1454.418	1955.38
1459.104	2110.38
1463.785	1990.38
1468.462	1611.38
1473.134	1304.38
1477.802	1095.38
1482.465	1038.38
1487.123	976.38
1491.777	886.38
1496.426	771.38
1501.071	622.38
1505.711	513.38
1510.347	438.38
1514.978	388.38
1519.604	350.38
1524.226	305.38
1528.844	271.38
1533.457	237.38
1538.065	224.38
1542.669	193.38
1547.269	191.38
1551.864	171.38
1556.454	168.38
1561.041	154.38
1565.622	142.38
1570.199	137.38
1574.772	128.38
1579.34	112.38
1583.904	108.38
1588.464	107.38
1593.019	102.38
1597.569	100.38
1602.115	100.38
1606.657	96.38
1611.195	89.38
1615.728	89.38
1620.256	92.38
1624.78	98.38
1629.3	78.38
1633.816	81.38
1638.327	72.38
1642.834	71.38
1647.336	68.38
1651.834	65.38
1656.328	65.38
1660.817	66.38
1665.302	60.38
1669.783	64.38
1674.259	67.38
1678.732	58.38
1683.199	63.38
1687.663	71.38
1692.122	63.38
1696.577	58.38
1701.028	45.38
1705.474	52.38
1709.917	57.38
1714.355	51.38
1718.788	49.38
1723.218	52.38
1727.643	54.38
1732.064	44.38
1736.481	50.38
1740.893	42.38
1745.301	37.38
1749.705	46.38
1754.105	34.38
1758.501	32.38
1762.893	33.38
1767.28	37.38
1771.663	29.38
1776.042	27.38
1780.417	26.38
1784.787	23.38
1789.154	18.38
1793.516	18.38
1797.874	22.38
1802.228	31.38
1806.578	23.38
1810.924	17.38
1815.266	51.38
1819.603	15.38
1823.937	24.38
1828.266	21.38
1832.591	23.38
1836.913	20.38
1841.23	20.38
1845.543	19.38
1849.852	21.38
1854.156	24.38
1858.457	21.38
1862.754	28.38
1867.047	20.38
1871.335	16.38
1875.62	23.38
1879.9	21.38
1884.177	24.38
1888.449	13.38
1892.718	18.38
1896.982	17.38
1901.243	20.38
1905.499	22.38
1909.752	21.38
1914	23.38
1918.245	19.38
1922.485	21.38
1926.722	17.38
1930.954	20.38
1935.183	19.38
1939.408	12.38
1943.628	20.38
1947.845	14.38
1952.058	18.38
1956.267	19.38
1960.472	16.38
1964.673	15.38
1968.87	16.38
1973.063	21.38
1977.252	20.38
1981.438	18.38
1985.619	14.38
1989.797	18.38
1993.971	14.38
1998.14	14.38
2002.306	17.38
2006.469	11.38
2010.627	18.38
2014.781	15.38
2018.932	19.38
2023.078	13.38
2027.221	12.38
2031.36	13.38
2035.495	14.38
2039.627	15.38
2043.754	15.38
2047.878	15.38
2051.998	15.38
2056.114	18.38
2060.226	15.38
2064.334	14.38
2068.439	14.38
2072.54	15.38
2076.637	23.38
2080.73	23.38
2084.82	27.38
2088.906	28.38
2092.988	25.38
2097.066	24.38
2101.14	17.38
2105.211	21.38
2109.278	17.38
2113.342	19.38
2117.401	20.38
2121.457	22.38
2125.509	24.38
2129.558	14.38
2133.602	16.38
2137.643	16.38
2141.681	21.38
2145.714	24.38
2149.744	25.38
2153.77	20.38
2157.793	22.38
2161.812	26.38
2165.827	33.38
2169.838	12.38
2173.846	19.38
2177.851	21.38
2181.851	19.38
2185.848	27.38
2189.841	14.38
2193.831	17.38
2197.817	21.38
2201.799	15.38
2205.778	21.38
2209.753	25.38
2213.725	22.38
2217.693	13.38
2221.657	20.38
2225.618	14.38
2229.575	22.38
2233.529	21.38
2237.479	21.38
2241.425	25.38
2245.368	23.38
2249.307	24.38
2253.243	25.38
2257.175	25.38
2261.104	25.38
2265.029	28.38
2268.95	25.38
2272.868	28.38
2276.783	19.38
2280.694	31.38
2284.601	33.38
2288.505	27.38
2292.405	24.38
2296.302	28.38
2300.195	19.38
2304.085	30.38
2307.971	16.38
2311.854	17.38
2315.734	18.38
2319.609	21.38
2323.482	22.38
2327.351	20.38
2331.216	19.38
2335.078	22.38
2338.937	18.38
2342.792	23.38
2346.643	18.38
2350.492	16.38
2354.336	15.38
2358.178	15.38
2362.015	20.38
2365.85	14.38
2369.681	13.38
2373.508	18.38
2377.333	15.38
2381.153	17.38
2384.971	27.38
2388.785	22.38
2392.595	18.38
2396.402	19.38
2400.206	21.38
2404.007	23.38
2407.804	18.38
2411.597	16.38
2415.388	18.38
2419.174	21.38
2422.958	29.38
2426.738	24.38
2430.515	23.38
2434.289	27.38
2438.059	28.38
2441.825	25.38
2445.589	22.38
2449.349	31.38
2453.106	23.38
2456.859	25.38
2460.61	28.38
2464.356	30.38
2468.1	37.38
2471.84	30.38
2475.577	36.38
2479.311	26.38
2483.041	37.38
2486.768	25.38
2490.492	37.38
2494.213	30.38
2497.93	39.38
2501.644	41.38
2505.355	35.38
2509.062	39.38
2512.766	35.38
2516.467	41.38
2520.165	45.38
2523.859	40.38
2527.551	36.38
2531.239	50.38
2534.923	55.38
2538.605	52.38
2542.283	53.38
2545.958	60.38
2549.63	58.38
2553.299	59.38
2556.964	60.38
2560.626	57.38
2564.285	47.38
2567.941	62.38
2571.594	57.38
2575.243	51.38
2578.89	57.38
2582.533	50.38
2586.173	52.38
2589.809	48.38
2593.443	61.38
2597.073	52.38
2600.701	53.38
2604.325	62.38
2607.946	59.38
2611.564	59.38
2615.178	53.38
2618.79	59.38
2622.398	62.38
2626.004	58.38
2629.606	53.38
2633.205	58.38
2636.801	56.38
2640.394	58.38
2643.983	60.38
2647.57	61.38
2651.153	64.38
2654.734	56.38
2658.311	76.38
2661.885	69.38
2665.456	70.38
2669.025	74.38
2672.589	79.38
2676.151	76.38
2679.71	81.38
2683.266	92.38
2686.819	103.38
2690.368	109.38
2693.915	122.38
2697.458	133.38
2700.999	154.38
2704.536	173.38
2708.071	190.38
2711.602	198.38
2715.13	224.38
2718.656	241.38
2722.178	238.38
2725.697	235.38
2729.214	230.38
2732.727	225.38
2736.237	228.38
2739.744	215.38
2743.249	210.38
2746.75	210.38
2750.248	220.38
2753.743	221.38
2757.236	209.38
2760.725	201.38
2764.211	200.38
2767.695	180.38
2771.175	179.38
2774.652	172.38
2778.127	176.38
2781.598	175.38
2785.067	179.38
2788.532	199.38
2791.995	197.38
2795.455	210.38
2798.911	233.38
2802.365	243.38
2805.816	256.38
2809.264	276.38
2812.709	301.38
2816.151	330.38
2819.59	362.38
2823.026	390.38
2826.46	446.38
2829.89	479.38
2833.318	526.38
2836.742	561.38
2840.164	588.38
2843.583	627.38
2846.999	660.38
2850.412	686.38
2853.822	739.38
2857.229	781.38
2860.634	843.38
2864.035	945.38
2867.434	1042.38
2870.83	1172.38
2874.223	1341.38
2877.613	1463.38
2881	1554.38
2884.385	1574.38
2887.766	1547.38
2891.145	1502.38
2894.521	1449.38
2897.894	1404.38
2901.264	1346.38
2904.631	1302.38
2907.996	1271.38
2911.358	1274.38
2914.717	1296.38
2918.073	1368.38
2921.426	1480.38
2924.777	1650.38
2928.124	1821.38
2931.469	1946.38
2934.811	1948.38
2938.15	1814.38
2941.487	1626.38
2944.821	1425.38
2948.152	1262.38
2951.48	1129.38
2954.805	1005.38
2958.128	921.38
2961.447	882.38
2964.765	867.38
2968.079	884.38
2971.39	897.38
2974.699	912.38
2978.005	896.38
2981.308	853.38
2984.609	776.38
2987.907	678.38
2991.202	584.38
2994.494	508.38
2997.784	447.38
3001.07	386.38
3004.355	350.38
3007.636	317.38
3010.915	273.38
3014.191	254.38
3017.464	234.38
3020.734	204.38
3024.002	186.38
3027.267	172.38
3030.53	168.38
3033.789	156.38
3037.046	151.38
3040.301	138.38
3043.552	128.38
3046.801	118.38
3050.048	106.38
3053.291	109.38
3056.532	105.38
3059.771	107.38
3063.006	97.38
3066.239	91.38
3069.469	86.38
3072.697	90.38
3075.922	86.38
3079.144	74.38
3082.364	69.38
3085.581	76.38
3088.795	62.38
3092.007	59.38
3095.216	61.38
3098.423	59.38
3101.627	67.38
3104.828	61.38
3108.026	59.38
3111.222	58.38
3114.416	54.38
3117.607	51.38
3120.795	56.38
3123.98	50.38
3127.163	59.38
3130.344	54.38
3133.521	56.38
3136.696	46.38
3139.869	46.38
3143.039	51.38
3146.206	40.38
3149.371	45.38
3152.533	53.38
3155.693	59.38
3158.85	48.38
3162.005	47.38
3165.157	47.38
3168.306	46.38
3171.453	42.38
3174.597	54.38
3177.739	56.38
3180.878	49.38
3184.014	45.38
3187.149	44.38
3190.28	45.38
3193.409	49.38
3196.536	51.38
3199.659	45.38
3202.781	40.38
3205.9	56.38
3209.016	51.38
3212.13	46.38
3215.241	51.38
3218.35	44.38
3221.456	49.38
3224.56	55.38
3227.661	48.38
3230.76	47.38
3233.856	47.38
3236.95	51.38
3240.041	59.38
3243.13	43.38
3246.216	53.38
3249.3	47.38
3252.382	45.38
3255.46	56.38
3258.537	56.38
3261.611	52.38
3264.682	47.38
3267.751	47.38
3270.818	56.38
3273.882	51.38
3276.943	47.38
3280.002	46.38
3283.059	47.38
3286.113	41.38
3289.165	41.38
3292.214	45.38
3295.261	38.38
3298.306	50.38
3301.348	40.38
3304.387	38.38
3307.425	37.38
3310.459	41.38
3313.492	38.38
3316.521	43.38
3319.549	42.38
3322.574	34.38
3325.597	37.38
3328.617	36.38
3331.635	38.38
3334.65	38.38
3337.663	31.38
3340.674	40.38
3343.682	40.38
3346.688	32.38
3349.691	35.38
3352.692	35.38
3355.691	33.38
3358.687	30.38
3361.681	34.38
3364.673	37.38
3367.662	33.38
3370.649	32.38
3373.633	32.38
3376.615	33.38
3379.595	45.38
3382.572	29.38
3385.547	43.38
3388.52	36.38
3391.49	30.38
3394.458	29.38
3397.424	25.38
3400.387	32.38
3403.348	29.38
3406.307	25.38
3409.263	29.38
3412.217	21.38
3415.168	26.38
3418.118	25.38
3421.065	29.38
3424.009	23.38
3426.951	31.38
3429.891	28.38
3432.829	25.38
3435.764	21.38
3438.697	22.38
3441.628	15.38
3444.557	22.38
3447.483	26.38
3450.407	15.38
3453.328	20.38
3456.247	24.38
3459.164	29.38
3462.079	16.38
3464.991	19.38
3467.902	23.38
3470.809	14.38
3473.715	13.38
3476.618	22.38
3479.519	16.38
3482.418	21.38
3485.315	16.38
3488.209	15.38
3491.101	9.38
3493.99	13.38
3496.878	14.38
3499.763	9.38
3502.646	10.38
3505.527	19.38
3508.405	14.38
3511.281	17.38
3514.155	9.38
3517.027	10.38
3519.897	13.38
3522.764	3.38
3525.629	10.38
3528.492	9.38
3531.352	10.38
3534.211	8.38
3537.067	15.38
3539.921	9.38
3542.773	7.38
3545.622	7.38
3548.469	15.38
3551.315	8.38
3554.157	9.38
3556.998	10.38
3559.837	9.38
3562.673	3.38
3565.507	13.38
3568.339	10.38
3571.169	5.38
3573.996	4.38
3576.822	8.38
3579.645	10.38
3582.466	13.38
3585.285	5.38
3588.101	3.38
3590.916	12.38
3593.728	1.38
3596.538	6.38
3599.346	-0.62
3602.152	8.38
3604.956	0.38
3607.757	5.38
3610.556	6.38
3613.354	5.38
3616.149	-0.62
3618.942	-0.62
3621.732	-2.62
3624.521	7.38
3627.307	5.38
3630.092	1.38
3632.874	2.38
3635.654	3.38
3638.432	9.38
3641.208	6.38
3643.982	2.38
3646.753	-1.62
3649.523	15.38
3652.29	6.38
3655.055	0.38
3657.818	7.38
3660.579	0.38
3663.338	8.38
3666.095	7.38
3668.849	16.38
3671.602	1.38
3674.352	12.38
3677.101	2.38
3679.847	-0.62
3682.591	4.38
3685.333	7.38
3688.073	3.38
3690.811	7.38
3693.547	6.38
3696.281	5.38
3699.013	3.38
3701.742	3.38
3704.47	6.38
3707.195	1.38
3709.919	6.38
3712.64	15.38
3715.359	8.38
3718.076	-0.62
3720.792	-5.62
3723.505	0.38
3726.216	-0.62
3728.925	4.38
3731.632	2.38
3734.336	2.38
3737.039	-1.62
3739.74	2.38
3742.439	16.38
3745.136	1.38
3747.83	0.38
3750.523	-2.62
3753.213	37.38
3755.902	-1.62
3758.589	6.38
3761.273	-0.62
3763.956	-0.62
3766.636	9.38
3769.315	3.38
3771.991	4.38
3774.665	8.38
3777.338	-1.62
3780.008	2.38
3782.677	7.38
3785.343	5.38
3788.007	6.38
3790.67	5.38
3793.33	7.38
3795.989	2.38
3798.645	-2.62
3801.299	3.38
3803.952	3.38
3806.602	-0.62
3809.251	0.38
3811.897	5.38
3814.542	4.38
3817.184	-0.62
3819.825	1.38
3822.463	-1.62
3825.1	-0.62
3827.735	1.38
3830.367	4.38
3832.998	-4.62
3835.627	-0.62
3838.253	0.38
3840.878	7.38
3843.501	-4.62
3846.122	1.38
3848.741	-2.62
3851.358	-1.62
3853.973	7.38
3856.586	-3.62
3859.197	-7.62
3861.806	1.38
3864.414	2.38
3867.019	5.38
3869.622	1.38
3872.224	3.38
3874.823	5.38
3877.421	0.38
3880.016	6.38
3882.61	6.38
3885.202	4.38
3887.792	5.38
3890.38	-2.62
3892.966	10.38
3895.55	9.38
3898.132	-1.62
3900.713	2.38
3903.291	5.38
3905.868	7.38
3908.442	-2.62
3911.015	-1.62
3913.586	3.38
3916.155	2.38
3918.722	3.38
3921.287	2.38
3923.85	12.38
3926.411	3.38
3928.971	0.38
3931.528	-0.62
3934.084	-0.62
3936.638	4.38
3939.19	2.38
3941.74	-0.62
3944.288	4.38
3946.834	5.38
3949.378	2.38
3951.921	9.38
3954.462	6.38
3957	5.38
3959.537	2.38
3962.072	11.38
3964.606	11.38
3967.137	4.38
3969.667	6.38
3972.194	3.38
3974.72	4.38
3977.244	14.38
3979.766	7.38
3982.286	10.38
3984.805	5.38
3987.321	-1.62
3989.836	4.38
3992.349	6.38
3994.86	4.38
3997.369	6.38
3999.877	4.38
4002.382	6.38
4004.886	3.38
4007.388	5.38
4009.888	-0.62
4012.386	-1.62
4014.883	0.38
4017.377	5.38
4019.87	4.38
4022.361	6.38
4024.85	2.38
4027.338	6.38
4029.823	7.38
4032.307	1.38
4034.789	-3.62
4037.269	2.38
4039.747	10.38
4042.224	0.38
4044.699	7.38
4047.172	5.38
4049.643	-2.62
4052.112	10.38
4054.58	0.38
4057.046	6.38
4059.51	2.38
4061.972	7.38
4064.432	16.38
4066.891	-5.62
4069.348	1.38
4071.803	-1.62
4074.256	-0.62
4076.708	1.38
4079.158	5.38
4081.606	-6.62
4084.052	5.38
4086.497	1.38
4088.939	0.38
4091.38	5.38
4093.819	-0.62
4096.257	-16.62
4098.693	-17.62
4101.127	-18.62
4103.559	-13.62
4105.989	11.38
4108.418	3.38
4110.845	8.38
4113.27	2.38
4115.694	12.38
4118.115	9.38
4120.535	-4.62
4122.954	-2.62
4125.37	-5.62
4127.785	-2.62
4130.198	-2.62
4132.609	-0.62
4135.019	-19.62
4137.427	-13.62
4139.833	-20.62
4142.237	-19.62
