Data from R2_I=.35_T=20000ms_h=-6_RamanShift_12-53-51-810.txt Node
Date: Sun Apr 23 12:53:51 IDT 2017
User: aro
Spectrometer: QEPB0276
Trigger mode: 0
Integration Time (sec): 2.000000E1
Scans to average: 1
Electric dark correction enabled: true
Nonlinearity correction enabled: false
Boxcar width: 0
XAxis mode: Raman Shifts
Number of Pixels in Spectrum: 1044
>>>>>Begin Spectral Data<<<<<
160.701	4.88
166.742	8.88
172.777	27.88
178.805	68.88
184.826	161.88
190.841	303.88
196.849	486.88
202.85	584.88
208.845	606.88
214.833	580.88
220.815	558.88
226.789	561.88
232.758	523.88
238.719	514.88
244.674	507.88
250.623	494.88
256.565	476.88
262.5	468.88
268.429	465.88
274.351	455.88
280.267	438.88
286.176	426.88
292.079	400.88
297.975	376.88
303.865	351.88
309.748	333.88
315.625	320.88
321.495	308.88
327.359	302.88
333.217	288.88
339.068	282.88
344.912	277.88
350.751	281.88
356.583	280.88
362.408	282.88
368.227	290.88
374.04	298.88
379.847	310.88
385.647	322.88
391.44	353.88
397.228	376.88
403.009	416.88
408.784	487.88
414.553	600.88
420.315	805.88
426.071	1051.88
431.821	1299.88
437.565	1448.88
443.302	1410.88
449.033	1211.88
454.758	951.88
460.477	749.88
466.189	599.88
471.896	503.88
477.596	410.88
483.29	363.88
488.978	321.88
494.66	299.88
500.335	278.88
506.005	267.88
511.668	238.88
517.325	233.88
522.977	213.88
528.622	196.88
534.261	199.88
539.894	192.88
545.521	187.88
551.141	191.88
556.756	199.88
562.365	191.88
567.968	183.88
573.565	176.88
579.155	185.88
584.74	183.88
590.319	176.88
595.892	182.88
601.459	177.88
607.02	179.88
612.575	187.88
618.124	176.88
623.667	186.88
629.204	182.88
634.735	179.88
640.261	175.88
645.781	187.88
651.294	191.88
656.802	190.88
662.304	182.88
667.8	172.88
673.29	177.88
678.775	173.88
684.254	172.88
689.726	172.88
695.193	172.88
700.655	171.88
706.11	178.88
711.56	168.88
717.004	165.88
722.442	182.88
727.874	167.88
733.301	170.88
738.722	177.88
744.137	180.88
749.547	182.88
754.951	190.88
760.349	196.88
765.741	202.88
771.128	223.88
776.509	228.88
781.885	228.88
787.254	242.88
792.618	271.88
797.977	282.88
803.33	315.88
808.677	329.88
814.019	360.88
819.355	373.88
824.686	385.88
830.011	393.88
835.33	421.88
840.644	466.88
845.952	551.88
851.255	642.88
856.552	793.88
861.844	1090.88
867.13	1635.88
872.41	2852.88
877.686	5164.88
882.955	8188.88
888.219	9789.88
893.478	8193.88
898.731	4901.88
903.979	2497.88
909.221	1421.88
914.458	966.88
919.69	725.88
924.916	583.88
930.136	488.88
935.351	421.88
940.561	380.88
945.766	348.88
950.965	331.88
956.158	313.88
961.347	304.88
966.529	301.88
971.707	295.88
976.879	295.88
982.046	315.88
987.208	334.88
992.364	354.88
997.515	400.88
1002.66	464.88
1007.801	538.88
1012.936	628.88
1018.066	765.88
1023.19	939.88
1028.309	1219.88
1033.423	1559.88
1038.532	1976.88
1043.636	2488.88
1048.734	3067.88
1053.827	3458.88
1058.915	3442.88
1063.998	2945.88
1069.075	2390.88
1074.147	2083.88
1079.214	2102.88
1084.276	2352.88
1089.333	2809.88
1094.385	3349.88
1099.431	3642.88
1104.472	3402.88
1109.509	2724.88
1114.54	2086.88
1119.565	1682.88
1124.586	1443.88
1129.602	1244.88
1134.613	1042.88
1139.618	863.88
1144.619	722.88
1149.614	595.88
1154.604	540.88
1159.589	481.88
1164.57	433.88
1169.545	380.88
1174.515	329.88
1179.48	321.88
1184.44	307.88
1189.395	276.88
1194.345	269.88
1199.29	268.88
1204.23	262.88
1209.165	280.88
1214.095	280.88
1219.021	287.88
1223.941	306.88
1228.856	336.88
1233.766	365.88
1238.672	400.88
1243.572	434.88
1248.467	482.88
1253.358	553.88
1258.244	632.88
1263.124	763.88
1268	968.88
1272.871	1300.88
1277.737	1562.88
1282.599	1617.88
1287.455	1438.88
1292.306	1125.88
1297.153	889.88
1301.995	735.88
1306.832	649.88
1311.664	585.88
1316.491	547.88
1321.314	531.88
1326.132	504.88
1330.945	486.88
1335.753	485.88
1340.556	482.88
1345.354	481.88
1350.148	489.88
1354.937	503.88
1359.722	516.88
1364.501	543.88
1369.276	575.88
1374.046	623.88
1378.811	702.88
1383.572	768.88
1388.327	829.88
1393.079	864.88
1397.825	886.88
1402.567	929.88
1407.304	994.88
1412.036	1068.88
1416.764	1160.88
1421.487	1271.88
1426.205	1437.88
1430.919	1582.88
1435.628	1829.88
1440.333	2181.88
1445.032	2672.88
1449.727	3344.88
1454.418	4027.88
1459.104	4333.88
1463.785	4023.88
1468.462	3260.88
1473.134	2621.88
1477.802	2234.88
1482.465	2059.88
1487.123	1964.88
1491.777	1790.88
1496.426	1524.88
1501.071	1253.88
1505.711	1054.88
1510.347	911.88
1514.978	796.88
1519.604	708.88
1524.226	635.88
1528.844	583.88
1533.457	508.88
1538.065	473.88
1542.669	434.88
1547.269	393.88
1551.864	358.88
1556.454	348.88
1561.041	301.88
1565.622	285.88
1570.199	269.88
1574.772	249.88
1579.34	229.88
1583.904	220.88
1588.464	211.88
1593.019	192.88
1597.569	187.88
1602.115	184.88
1606.657	176.88
1611.195	169.88
1615.728	168.88
1620.256	170.88
1624.78	168.88
1629.3	157.88
1633.816	150.88
1638.327	134.88
1642.834	120.88
1647.336	119.88
1651.834	109.88
1656.328	114.88
1660.817	105.88
1665.302	110.88
1669.783	105.88
1674.259	108.88
1678.732	105.88
1683.199	104.88
1687.663	101.88
1692.122	100.88
1696.577	95.88
1701.028	88.88
1705.474	94.88
1709.917	88.88
1714.355	88.88
1718.788	87.88
1723.218	91.88
1727.643	83.88
1732.064	77.88
1736.481	76.88
1740.893	66.88
1745.301	54.88
1749.705	66.88
1754.105	49.88
1758.501	47.88
1762.893	45.88
1767.28	47.88
1771.663	43.88
1776.042	40.88
1780.417	37.88
1784.787	36.88
1789.154	24.88
1793.516	31.88
1797.874	33.88
1802.228	37.88
1806.578	32.88
1810.924	25.88
1815.266	61.88
1819.603	23.88
1823.937	30.88
1828.266	24.88
1832.591	30.88
1836.913	24.88
1841.23	19.88
1845.543	24.88
1849.852	20.88
1854.156	26.88
1858.457	23.88
1862.754	31.88
1867.047	21.88
1871.335	20.88
1875.62	28.88
1879.9	29.88
1884.177	32.88
1888.449	26.88
1892.718	25.88
1896.982	26.88
1901.243	26.88
1905.499	26.88
1909.752	30.88
1914	31.88
1918.245	24.88
1922.485	26.88
1926.722	27.88
1930.954	28.88
1935.183	27.88
1939.408	21.88
1943.628	26.88
1947.845	23.88
1952.058	25.88
1956.267	29.88
1960.472	23.88
1964.673	25.88
1968.87	27.88
1973.063	23.88
1977.252	26.88
1981.438	24.88
1985.619	20.88
1989.797	31.88
1993.971	23.88
1998.14	20.88
2002.306	22.88
2006.469	14.88
2010.627	21.88
2014.781	18.88
2018.932	22.88
2023.078	13.88
2027.221	13.88
2031.36	16.88
2035.495	17.88
2039.627	19.88
2043.754	16.88
2047.878	15.88
2051.998	17.88
2056.114	21.88
2060.226	20.88
2064.334	14.88
2068.439	24.88
2072.54	21.88
2076.637	33.88
2080.73	30.88
2084.82	38.88
2088.906	34.88
2092.988	42.88
2097.066	34.88
2101.14	28.88
2105.211	36.88
2109.278	28.88
2113.342	24.88
2117.401	29.88
2121.457	29.88
2125.509	35.88
2129.558	24.88
2133.602	25.88
2137.643	30.88
2141.681	31.88
2145.714	35.88
2149.744	27.88
2153.77	21.88
2157.793	23.88
2161.812	29.88
2165.827	41.88
2169.838	25.88
2173.846	28.88
2177.851	32.88
2181.851	32.88
2185.848	34.88
2189.841	24.88
2193.831	30.88
2197.817	27.88
2201.799	21.88
2205.778	30.88
2209.753	32.88
2213.725	33.88
2217.693	22.88
2221.657	31.88
2225.618	28.88
2229.575	30.88
2233.529	26.88
2237.479	36.88
2241.425	34.88
2245.368	42.88
2249.307	45.88
2253.243	43.88
2257.175	41.88
2261.104	46.88
2265.029	45.88
2268.95	42.88
2272.868	45.88
2276.783	49.88
2280.694	48.88
2284.601	56.88
2288.505	43.88
2292.405	47.88
2296.302	50.88
2300.195	42.88
2304.085	44.88
2307.971	34.88
2311.854	36.88
2315.734	31.88
2319.609	34.88
2323.482	35.88
2327.351	31.88
2331.216	29.88
2335.078	29.88
2338.937	23.88
2342.792	35.88
2346.643	33.88
2350.492	29.88
2354.336	27.88
2358.178	27.88
2362.015	32.88
2365.85	26.88
2369.681	24.88
2373.508	24.88
2377.333	24.88
2381.153	32.88
2384.971	34.88
2388.785	27.88
2392.595	24.88
2396.402	28.88
2400.206	33.88
2404.007	32.88
2407.804	28.88
2411.597	31.88
2415.388	27.88
2419.174	35.88
2422.958	36.88
2426.738	36.88
2430.515	35.88
2434.289	34.88
2438.059	45.88
2441.825	42.88
2445.589	38.88
2449.349	50.88
2453.106	39.88
2456.859	42.88
2460.61	46.88
2464.356	52.88
2468.1	57.88
2471.84	54.88
2475.577	55.88
2479.311	57.88
2483.041	236.88
2486.768	123.88
2490.492	60.88
2494.213	57.88
2497.93	58.88
2501.644	66.88
2505.355	60.88
2509.062	65.88
2512.766	65.88
2516.467	69.88
2520.165	73.88
2523.859	76.88
2527.551	68.88
2531.239	84.88
2534.923	91.88
2538.605	98.88
2542.283	101.88
2545.958	106.88
2549.63	113.88
2553.299	115.88
2556.964	117.88
2560.626	107.88
2564.285	103.88
2567.941	102.88
2571.594	105.88
2575.243	95.88
2578.89	103.88
2582.533	101.88
2586.173	105.88
2589.809	96.88
2593.443	114.88
2597.073	102.88
2600.701	102.88
2604.325	107.88
2607.946	109.88
2611.564	109.88
2615.178	97.88
2618.79	104.88
2622.398	114.88
2626.004	105.88
2629.606	103.88
2633.205	111.88
2636.801	107.88
2640.394	111.88
2643.983	115.88
2647.57	116.88
2651.153	127.88
2654.734	118.88
2658.311	132.88
2661.885	136.88
2665.456	135.88
2669.025	142.88
2672.589	154.88
2676.151	159.88
2679.71	168.88
2683.266	179.88
2686.819	199.88
2690.368	215.88
2693.915	238.88
2697.458	272.88
2700.999	299.88
2704.536	338.88
2708.071	377.88
2711.602	413.88
2715.13	434.88
2718.656	462.88
2722.178	461.88
2725.697	472.88
2729.214	466.88
2732.727	453.88
2736.237	435.88
2739.744	423.88
2743.249	430.88
2746.75	434.88
2750.248	452.88
2753.743	452.88
2757.236	434.88
2760.725	419.88
2764.211	422.88
2767.695	396.88
2771.175	382.88
2774.652	369.88
2778.127	386.88
2781.598	376.88
2785.067	384.88
2788.532	405.88
2791.995	426.88
2795.455	434.88
2798.911	471.88
2802.365	507.88
2805.816	528.88
2809.264	573.88
2812.709	625.88
2816.151	666.88
2819.59	755.88
2823.026	816.88
2826.46	903.88
2829.89	996.88
2833.318	1093.88
2836.742	1179.88
2840.164	1243.88
2843.583	1307.88
2846.999	1358.88
2850.412	1439.88
2853.822	1527.88
2857.229	1654.88
2860.634	1787.88
2864.035	1989.88
2867.434	2222.88
2870.83	2501.88
2874.223	2826.88
2877.613	3072.88
2881	3252.88
2884.385	3343.88
2887.766	3254.88
2891.145	3169.88
2894.521	3054.88
2897.894	2941.88
2901.264	2823.88
2904.631	2734.88
2907.996	2684.88
2911.358	2655.88
2914.717	2718.88
2918.073	2846.88
2921.426	3087.88
2924.777	3434.88
2928.124	3810.88
2931.469	4044.88
2934.811	4048.88
2938.15	3780.88
2941.487	3391.88
2944.821	2951.88
2948.152	2621.88
2951.48	2333.88
2954.805	2091.88
2958.128	1922.88
2961.447	1825.88
2964.765	1786.88
2968.079	1830.88
2971.39	1850.88
2974.699	1876.88
2978.005	1857.88
2981.308	1743.88
2984.609	1608.88
2987.907	1410.88
2991.202	1223.88
2994.494	1101.88
2997.784	935.88
3001.07	830.88
3004.355	745.88
3007.636	668.88
3010.915	588.88
3014.191	543.88
3017.464	496.88
3020.734	444.88
3024.002	412.88
3027.267	372.88
3030.53	356.88
3033.789	330.88
3037.046	308.88
3040.301	283.88
3043.552	274.88
3046.801	241.88
3050.048	237.88
3053.291	216.88
3056.532	201.88
3059.771	213.88
3063.006	197.88
3066.239	183.88
3069.469	175.88
3072.697	171.88
3075.922	164.88
3079.144	152.88
3082.364	135.88
3085.581	144.88
3088.795	128.88
3092.007	124.88
3095.216	126.88
3098.423	118.88
3101.627	127.88
3104.828	116.88
3108.026	115.88
3111.222	116.88
3114.416	104.88
3117.607	103.88
3120.795	106.88
3123.98	99.88
3127.163	106.88
3130.344	106.88
3133.521	101.88
3136.696	92.88
3139.869	99.88
3143.039	94.88
3146.206	92.88
3149.371	91.88
3152.533	97.88
3155.693	98.88
3158.85	91.88
3162.005	88.88
3165.157	92.88
3168.306	89.88
3171.453	87.88
3174.597	92.88
3177.739	97.88
3180.878	94.88
3184.014	86.88
3187.149	86.88
3190.28	88.88
3193.409	89.88
3196.536	92.88
3199.659	91.88
3202.781	90.88
3205.9	96.88
3209.016	99.88
3212.13	84.88
3215.241	92.88
3218.35	85.88
3221.456	89.88
3224.56	95.88
3227.661	93.88
3230.76	86.88
3233.856	94.88
3236.95	93.88
3240.041	102.88
3243.13	90.88
3246.216	86.88
3249.3	88.88
3252.382	86.88
3255.46	93.88
3258.537	95.88
3261.611	94.88
3264.682	85.88
3267.751	92.88
3270.818	94.88
3273.882	87.88
3276.943	88.88
3280.002	88.88
3283.059	88.88
3286.113	86.88
3289.165	84.88
3292.214	87.88
3295.261	85.88
3298.306	83.88
3301.348	81.88
3304.387	80.88
3307.425	77.88
3310.459	78.88
3313.492	69.88
3316.521	81.88
3319.549	75.88
3322.574	69.88
3325.597	68.88
3328.617	74.88
3331.635	78.88
3334.65	74.88
3337.663	63.88
3340.674	71.88
3343.682	71.88
3346.688	70.88
3349.691	69.88
3352.692	72.88
3355.691	68.88
3358.687	62.88
3361.681	67.88
3364.673	62.88
3367.662	65.88
3370.649	64.88
3373.633	65.88
3376.615	64.88
3379.595	73.88
3382.572	59.88
3385.547	61.88
3388.52	57.88
3391.49	57.88
3394.458	56.88
3397.424	50.88
3400.387	54.88
3403.348	56.88
3406.307	49.88
3409.263	51.88
3412.217	44.88
3415.168	45.88
3418.118	44.88
3421.065	49.88
3424.009	39.88
3426.951	48.88
3429.891	50.88
3432.829	43.88
3435.764	35.88
3438.697	44.88
3441.628	37.88
3444.557	40.88
3447.483	34.88
3450.407	31.88
3453.328	28.88
3456.247	36.88
3459.164	37.88
3462.079	26.88
3464.991	31.88
3467.902	29.88
3470.809	19.88
3473.715	26.88
3476.618	28.88
3479.519	23.88
3482.418	25.88
3485.315	27.88
3488.209	22.88
3491.101	19.88
3493.99	21.88
3496.878	22.88
3499.763	16.88
3502.646	17.88
3505.527	23.88
3508.405	20.88
3511.281	18.88
3514.155	16.88
3517.027	15.88
3519.897	18.88
3522.764	5.88
3525.629	16.88
3528.492	11.88
3531.352	8.88
3534.211	10.88
3537.067	19.88
3539.921	12.88
3542.773	5.88
3545.622	3.88
3548.469	13.88
3551.315	13.88
3554.157	4.88
3556.998	9.88
3559.837	7.88
3562.673	-0.12
3565.507	7.88
3568.339	7.88
3571.169	4.88
3573.996	-0.12
3576.822	8.88
3579.645	6.88
3582.466	4.88
3585.285	0.88
3588.101	0.88
3590.916	2.88
3593.728	0.88
3596.538	0.88
3599.346	-4.12
3602.152	6.88
3604.956	-1.12
3607.757	-0.12
3610.556	2.88
3613.354	-0.12
3616.149	-6.12
3618.942	-5.12
3621.732	-6.12
3624.521	5.88
3627.307	0.88
3630.092	-5.12
3632.874	0.88
3635.654	-1.12
3638.432	2.88
3641.208	1.88
3643.982	0.88
3646.753	-6.12
3649.523	9.88
3652.29	5.88
3655.055	-1.12
3657.818	1.88
3660.579	-6.12
3663.338	0.88
3666.095	2.88
3668.849	9.88
3671.602	-5.12
3674.352	9.88
3677.101	-3.12
3679.847	-8.12
3682.591	2.88
3685.333	5.88
3688.073	-4.12
3690.811	2.88
3693.547	8.88
3696.281	1.88
3699.013	0.88
3701.742	-2.12
3704.47	0.88
3707.195	-0.12
3709.919	-0.12
3712.64	0.88
3715.359	-0.12
3718.076	0.88
3720.792	-5.12
3723.505	-0.12
3726.216	-0.12
3728.925	1.88
3731.632	-3.12
3734.336	6.88
3737.039	-0.12
3739.74	-1.12
3742.439	8.88
3745.136	-1.12
3747.83	-3.12
3750.523	-7.12
3753.213	30.88
3755.902	-4.12
3758.589	5.88
3761.273	-0.12
3763.956	-6.12
3766.636	5.88
3769.315	-6.12
3771.991	1.88
3774.665	3.88
3777.338	-5.12
3780.008	-2.12
3782.677	0.88
3785.343	2.88
3788.007	3.88
3790.67	-1.12
3793.33	-0.12
3795.989	-2.12
3798.645	-8.12
3801.299	-3.12
3803.952	-0.12
3806.602	-6.12
3809.251	-8.12
3811.897	-7.12
3814.542	-1.12
3817.184	-5.12
3819.825	-1.12
3822.463	-8.12
3825.1	-2.12
3827.735	-2.12
3830.367	-4.12
3832.998	-10.12
3835.627	-1.12
3838.253	-11.12
3840.878	2.88
3843.501	-14.12
3846.122	-5.12
3848.741	-9.12
3851.358	-5.12
3853.973	-0.12
3856.586	-5.12
3859.197	-13.12
3861.806	-4.12
3864.414	-6.12
3867.019	-1.12
3869.622	-4.12
3872.224	-3.12
3874.823	-3.12
3877.421	-4.12
3880.016	-2.12
3882.61	-3.12
3885.202	-1.12
3887.792	-1.12
3890.38	-8.12
3892.966	-6.12
3895.55	-1.12
3898.132	-8.12
3900.713	-2.12
3903.291	-2.12
3905.868	-0.12
3908.442	-6.12
3911.015	-11.12
3913.586	-3.12
3916.155	-6.12
3918.722	-2.12
3921.287	-6.12
3923.85	-0.12
3926.411	-7.12
3928.971	-9.12
3931.528	-6.12
3934.084	-8.12
3936.638	-6.12
3939.19	-3.12
3941.74	-8.12
3944.288	-5.12
3946.834	-1.12
3949.378	-9.12
3951.921	2.88
3954.462	1.88
3957	-4.12
3959.537	-6.12
3962.072	0.88
3964.606	3.88
3967.137	-4.12
3969.667	-4.12
3972.194	0.88
3974.72	-3.12
3977.244	7.88
3979.766	0.88
3982.286	0.88
3984.805	-6.12
3987.321	-9.12
3989.836	-2.12
3992.349	2.88
3994.86	-4.12
3997.369	-3.12
3999.877	-2.12
4002.382	-1.12
4004.886	-3.12
4007.388	-2.12
4009.888	-12.12
4012.386	-8.12
4014.883	-2.12
4017.377	-4.12
4019.87	-3.12
4022.361	0.88
4024.85	-6.12
4027.338	-5.12
4029.823	-3.12
4032.307	-10.12
4034.789	-7.12
4037.269	-11.12
4039.747	0.88
4042.224	-5.12
4044.699	5.88
4047.172	-2.12
4049.643	-12.12
4052.112	4.88
4054.58	-7.12
4057.046	-1.12
4059.51	-6.12
4061.972	0.88
4064.432	7.88
4066.891	-12.12
4069.348	-6.12
4071.803	-8.12
4074.256	-5.12
4076.708	-5.12
4079.158	-4.12
4081.606	-12.12
4084.052	-4.12
4086.497	-8.12
4088.939	-7.12
4091.38	-10.12
4093.819	-8.12
4096.257	-21.12
4098.693	-24.12
4101.127	-24.12
4103.559	-22.12
4105.989	6.88
4108.418	3.88
4110.845	4.88
4113.27	-1.12
4115.694	4.88
4118.115	7.88
4120.535	-12.12
4122.954	-8.12
4125.37	-10.12
4127.785	-13.12
4130.198	-8.12
4132.609	-9.12
4135.019	-30.12
4137.427	-26.12
4139.833	-26.12
4142.237	-28.12
