Data from 2018-2-8_conc=3_RamanShift_03.txt Node
Date: Wed Feb 07 10:10:10 IST 2018
User: aro
Spectrometer: QEPB0276
Trigger mode: 0
Integration Time (sec): 3.000000E1
Scans to average: 1
Electric dark correction enabled: true
Nonlinearity correction enabled: false
Boxcar width: 0
XAxis mode: Raman Shifts
Number of Pixels in Spectrum: 1044
>>>>>Begin Spectral Data<<<<<
160.701	419.4
166.742	532.4
172.777	1009.4
178.805	2632.4
184.826	6148.4
190.841	12332.4
196.849	19662.4
202.85	25217.4
208.845	27456.4
214.833	27149.4
220.815	26786.4
226.789	26636.4
232.758	26730.4
238.719	26443.4
244.674	26280.4
250.623	25855.4
256.565	25580.4
262.5	24994.4
268.429	24420.4
274.351	24183.4
280.267	24016.4
286.176	23427.4
292.079	23191.4
297.975	22894.4
303.865	22769.4
309.748	22618.4
315.625	22458.4
321.495	21939.4
327.359	21990.4
333.217	21979.4
339.068	21995.4
344.912	22030.4
350.751	21975.4
356.583	21931.4
362.408	21951.4
368.227	21898.4
374.04	22039.4
379.847	22120.4
385.647	22278.4
391.44	22489.4
397.228	22461.4
403.009	22732.4
408.784	22848.4
414.553	22988.4
420.315	23013.4
426.071	23047.4
431.821	23007.4
437.565	22962.4
443.302	22833.4
449.033	22798.4
454.758	22642.4
460.477	22504.4
466.189	22406.4
471.896	22280.4
477.596	22204.4
483.29	22220.4
488.978	22215.4
494.66	22180.4
500.335	22171.4
506.005	22141.4
511.668	21869.4
517.325	21743.4
522.977	21513.4
528.622	21431.4
534.261	21383.4
539.894	21226.4
545.521	21208.4
551.141	21176.4
556.756	20789.4
562.365	20716.4
567.968	20616.4
573.565	20401.4
579.155	20260.4
584.74	20233.4
590.319	20035.4
595.892	20121.4
601.459	20033.4
607.02	19995.4
612.575	20139.4
618.124	19940.4
623.667	20067.4
629.204	19940.4
634.735	20021.4
640.261	19891.4
645.781	20018.4
651.294	19686.4
656.802	19519.4
662.304	19443.4
667.8	19209.4
673.29	19160.4
678.775	19041.4
684.254	19103.4
689.726	19070.4
695.193	18850.4
700.655	18907.4
706.11	19067.4
711.56	18987.4
717.004	19034.4
722.442	18914.4
727.874	18946.4
733.301	18961.4
738.722	18947.4
744.137	18807.4
749.547	18659.4
754.951	18662.4
760.349	18493.4
765.741	18337.4
771.128	18303.4
776.509	18370.4
781.885	18286.4
787.254	18238.4
792.618	18302.4
797.977	18434.4
803.33	18413.4
808.677	18529.4
814.019	18414.4
819.355	18482.4
824.686	18464.4
830.011	18469.4
835.33	18209.4
840.644	18021.4
845.952	18047.4
851.255	17761.4
856.552	17667.4
861.844	17498.4
867.13	17489.4
872.41	17413.4
877.686	17430.4
882.955	17500.4
888.219	17590.4
893.478	17659.4
898.731	17455.4
903.979	17436.4
909.221	17469.4
914.458	17425.4
919.69	17118.4
924.916	17005.4
930.136	16848.4
935.351	16727.4
940.561	16458.4
945.766	16438.4
950.965	16227.4
956.158	16385.4
961.347	16318.4
966.529	16325.4
971.707	16359.4
976.879	16358.4
982.046	16403.4
987.208	16345.4
992.364	16300.4
997.515	16256.4
1002.66	16042.4
1007.801	16084.4
1012.936	16047.4
1018.066	16127.4
1023.19	15925.4
1028.309	15873.4
1033.423	15991.4
1038.532	16076.4
1043.636	16221.4
1048.734	16161.4
1053.827	16309.4
1058.915	16386.4
1063.998	16156.4
1069.075	15925.4
1074.147	15681.4
1079.214	15726.4
1084.276	15449.4
1089.333	15381.4
1094.385	15299.4
1099.431	15391.4
1104.472	15281.4
1109.509	15446.4
1114.54	15466.4
1119.565	15574.4
1124.586	15569.4
1129.602	15587.4
1134.613	15441.4
1139.618	15287.4
1144.619	15102.4
1149.614	14945.4
1154.604	14774.4
1159.589	14713.4
1164.57	14495.4
1169.545	14520.4
1174.515	14586.4
1179.48	14678.4
1184.44	14758.4
1189.395	14875.4
1194.345	14936.4
1199.29	14950.4
1204.23	15060.4
1209.165	14963.4
1214.095	14854.4
1219.021	14684.4
1223.941	14656.4
1228.856	14640.4
1233.766	14629.4
1238.672	14534.4
1243.572	14507.4
1248.467	14501.4
1253.358	14671.4
1258.244	14702.4
1263.124	14576.4
1268	14454.4
1272.871	14479.4
1277.737	14333.4
1282.599	14144.4
1287.455	13932.4
1292.306	13782.4
1297.153	13786.4
1301.995	13643.4
1306.832	13539.4
1311.664	13494.4
1316.491	13581.4
1321.314	13534.4
1326.132	13496.4
1330.945	13390.4
1335.753	13254.4
1340.556	13138.4
1345.354	12921.4
1350.148	12619.4
1354.937	12471.4
1359.722	12491.4
1364.501	12277.4
1369.276	12134.4
1374.046	12250.4
1378.811	12350.4
1383.572	12421.4
1388.327	12201.4
1393.079	12610.4
1397.825	12738.4
1402.567	12698.4
1407.304	12638.4
1412.036	12637.4
1416.764	12567.4
1421.487	12702.4
1426.205	12349.4
1430.919	12145.4
1435.628	12018.4
1440.333	11917.4
1445.032	11838.4
1449.727	11793.4
1454.418	11759.4
1459.104	11744.4
1463.785	11557.4
1468.462	11547.4
1473.134	11491.4
1477.802	11348.4
1482.465	11367.4
1487.123	11055.4
1491.777	11177.4
1496.426	11125.4
1501.071	10955.4
1505.711	10934.4
1510.347	10974.4
1514.978	11116.4
1519.604	11214.4
1524.226	11342.4
1528.844	11589.4
1533.457	11547.4
1538.065	11631.4
1542.669	11669.4
1547.269	11732.4
1551.864	11679.4
1556.454	11821.4
1561.041	11732.4
1565.622	11672.4
1570.199	11448.4
1574.772	11442.4
1579.34	11128.4
1583.904	11332.4
1588.464	11300.4
1593.019	11359.4
1597.569	11360.4
1602.115	11461.4
1606.657	11524.4
1611.195	11473.4
1615.728	11533.4
1620.256	11639.4
1624.78	11613.4
1629.3	11592.4
1633.816	11422.4
1638.327	11378.4
1642.834	11371.4
1647.336	11294.4
1651.834	11199.4
1656.328	11287.4
1660.817	11119.4
1665.302	11169.4
1669.783	11148.4
1674.259	11040.4
1678.732	10705.4
1683.199	10465.4
1687.663	10247.4
1692.122	9896.4
1696.577	9701.4
1701.028	9765.4
1705.474	9585.4
1709.917	9629.4
1714.355	9526.4
1718.788	9533.4
1723.218	9330.4
1727.643	9089.4
1732.064	8959.4
1736.481	8980.4
1740.893	8768.4
1745.301	8622.4
1749.705	8660.4
1754.105	8257.4
1758.501	8230.4
1762.893	7893.4
1767.28	7804.4
1771.663	7503.4
1776.042	7406.4
1780.417	7314.4
1784.787	7111.4
1789.154	7166.4
1793.516	7152.4
1797.874	7347.4
1802.228	7490.4
1806.578	7676.4
1810.924	7544.4
1815.266	8059.4
1819.603	7618.4
1823.937	7564.4
1828.266	7508.4
1832.591	7486.4
1836.913	7379.4
1841.23	7342.4
1845.543	7353.4
1849.852	7109.4
1854.156	7157.4
1858.457	7105.4
1862.754	6801.4
1867.047	6892.4
1871.335	6870.4
1875.62	6793.4
1879.9	6785.4
1884.177	6895.4
1888.449	6773.4
1892.718	6784.4
1896.982	6684.4
1901.243	6832.4
1905.499	6708.4
1909.752	6737.4
1914	6786.4
1918.245	6730.4
1922.485	6643.4
1926.722	6722.4
1930.954	6741.4
1935.183	6832.4
1939.408	6723.4
1943.628	6812.4
1947.845	6773.4
1952.058	6877.4
1956.267	6722.4
1960.472	6725.4
1964.673	6743.4
1968.87	6797.4
1973.063	6742.4
1977.252	6678.4
1981.438	6600.4
1985.619	6459.4
1989.797	6439.4
1993.971	6306.4
1998.14	6135.4
2002.306	6118.4
2006.469	6134.4
2010.627	6123.4
2014.781	6084.4
2018.932	6105.4
2023.078	5933.4
2027.221	5838.4
2031.36	5925.4
2035.495	5974.4
2039.627	5953.4
2043.754	5891.4
2047.878	5805.4
2051.998	5730.4
2056.114	5733.4
2060.226	5746.4
2064.334	5646.4
2068.439	5528.4
2072.54	5551.4
2076.637	5726.4
2080.73	5628.4
2084.82	5626.4
2088.906	5571.4
2092.988	5584.4
2097.066	5830.4
2101.14	5680.4
2105.211	5724.4
2109.278	5744.4
2113.342	5768.4
2117.401	5809.4
2121.457	5684.4
2125.509	5653.4
2129.558	5536.4
2133.602	5542.4
2137.643	5470.4
2141.681	5375.4
2145.714	5388.4
2149.744	5321.4
2153.77	5364.4
2157.793	5247.4
2161.812	5359.4
2165.827	5296.4
2169.838	5028.4
2173.846	5135.4
2177.851	5126.4
2181.851	5007.4
2185.848	4967.4
2189.841	4805.4
2193.831	4933.4
2197.817	4676.4
2201.799	4749.4
2205.778	4815.4
2209.753	4727.4
2213.725	4736.4
2217.693	4627.4
2221.657	4692.4
2225.618	4552.4
2229.575	4608.4
2233.529	4548.4
2237.479	4557.4
2241.425	4492.4
2245.368	4661.4
2249.307	4519.4
2253.243	4493.4
2257.175	4517.4
2261.104	4442.4
2265.029	4239.4
2268.95	4265.4
2272.868	4210.4
2276.783	4191.4
2280.694	3993.4
2284.601	4045.4
2288.505	4024.4
2292.405	3952.4
2296.302	3937.4
2300.195	3845.4
2304.085	3929.4
2307.971	3865.4
2311.854	3839.4
2315.734	3756.4
2319.609	3813.4
2323.482	3933.4
2327.351	3752.4
2331.216	3748.4
2335.078	3722.4
2338.937	3698.4
2342.792	3740.4
2346.643	3613.4
2350.492	3592.4
2354.336	3577.4
2358.178	3564.4
2362.015	3538.4
2365.85	3600.4
2369.681	3612.4
2373.508	3570.4
2377.333	3526.4
2381.153	3634.4
2384.971	3581.4
2388.785	3600.4
2392.595	3555.4
2396.402	3679.4
2400.206	3689.4
2404.007	3612.4
2407.804	3563.4
2411.597	3439.4
2415.388	3538.4
2419.174	3533.4
2422.958	3465.4
2426.738	3408.4
2430.515	3290.4
2434.289	3429.4
2438.059	3395.4
2441.825	3362.4
2445.589	3180.4
2449.349	3267.4
2453.106	3243.4
2456.859	3208.4
2460.61	3111.4
2464.356	3210.4
2468.1	3117.4
2471.84	3217.4
2475.577	3185.4
2479.311	3075.4
2483.041	3075.4
2486.768	2953.4
2490.492	2800.4
2494.213	3173.4
2497.93	3000.4
2501.644	3039.4
2505.355	3067.4
2509.062	2977.4
2512.766	2991.4
2516.467	2998.4
2520.165	2981.4
2523.859	2995.4
2527.551	2764.4
2531.239	2909.4
2534.923	2952.4
2538.605	2986.4
2542.283	2889.4
2545.958	2963.4
2549.63	2827.4
2553.299	2825.4
2556.964	2827.4
2560.626	2855.4
2564.285	2785.4
2567.941	2843.4
2571.594	2827.4
2575.243	2693.4
2578.89	2853.4
2582.533	2853.4
2586.173	2778.4
2589.809	2722.4
2593.443	2940.4
2597.073	2745.4
2600.701	2637.4
2604.325	2769.4
2607.946	2746.4
2611.564	2649.4
2615.178	2544.4
2618.79	2604.4
2622.398	2695.4
2626.004	2628.4
2629.606	2522.4
2633.205	2666.4
2636.801	2546.4
2640.394	2540.4
2643.983	2502.4
2647.57	2492.4
2651.153	2423.4
2654.734	2354.4
2658.311	2522.4
2661.885	2394.4
2665.456	2341.4
2669.025	2267.4
2672.589	2269.4
2676.151	2190.4
2679.71	2212.4
2683.266	2340.4
2686.819	2215.4
2690.368	2135.4
2693.915	2162.4
2697.458	2189.4
2700.999	2066.4
2704.536	2049.4
2708.071	2063.4
2711.602	1999.4
2715.13	1997.4
2718.656	1963.4
2722.178	1915.4
2725.697	1913.4
2729.214	1676.4
2732.727	1858.4
2736.237	1867.4
2739.744	1904.4
2743.249	1937.4
2746.75	1872.4
2750.248	1957.4
2753.743	1977.4
2757.236	1940.4
2760.725	1944.4
2764.211	2114.4
2767.695	1921.4
2771.175	1938.4
2774.652	1895.4
2778.127	1958.4
2781.598	1930.4
2785.067	1928.4
2788.532	1922.4
2791.995	1878.4
2795.455	1925.4
2798.911	1850.4
2802.365	1946.4
2805.816	1900.4
2809.264	1869.4
2812.709	1924.4
2816.151	1852.4
2819.59	2057.4
2823.026	1961.4
2826.46	2018.4
2829.89	1968.4
2833.318	2174.4
2836.742	2004.4
2840.164	1971.4
2843.583	2024.4
2846.999	2030.4
2850.412	2001.4
2853.822	2141.4
2857.229	1980.4
2860.634	2075.4
2864.035	2081.4
2867.434	1993.4
2870.83	2029.4
2874.223	2189.4
2877.613	2029.4
2881	2272.4
2884.385	2267.4
2887.766	2253.4
2891.145	2175.4
2894.521	2305.4
2897.894	2360.4
2901.264	2076.4
2904.631	2340.4
2907.996	2268.4
2911.358	2237.4
2914.717	2305.4
2918.073	2265.4
2921.426	2283.4
2924.777	2394.4
2928.124	2365.4
2931.469	2245.4
2934.811	2533.4
2938.15	2364.4
2941.487	2466.4
2944.821	2362.4
2948.152	2509.4
2951.48	2445.4
2954.805	2407.4
2958.128	2374.4
2961.447	2546.4
2964.765	2356.4
2968.079	2551.4
2971.39	2471.4
2974.699	2505.4
2978.005	2493.4
2981.308	2564.4
2984.609	2625.4
2987.907	2593.4
2991.202	2668.4
2994.494	2725.4
2997.784	2400.4
3001.07	2702.4
3004.355	2712.4
3007.636	2761.4
3010.915	2847.4
3014.191	2965.4
3017.464	2874.4
3020.734	2855.4
3024.002	2983.4
3027.267	3033.4
3030.53	3114.4
3033.789	3049.4
3037.046	3139.4
3040.301	3151.4
3043.552	3245.4
3046.801	3314.4
3050.048	3231.4
3053.291	3245.4
3056.532	3449.4
3059.771	3520.4
3063.006	3574.4
3066.239	3548.4
3069.469	3688.4
3072.697	3955.4
3075.922	3920.4
3079.144	3989.4
3082.364	4077.4
3085.581	4304.4
3088.795	4170.4
3092.007	4369.4
3095.216	4613.4
3098.423	4800.4
3101.627	4908.4
3104.828	4976.4
3108.026	4993.4
3111.222	5120.4
3114.416	5069.4
3117.607	5289.4
3120.795	5356.4
3123.98	5454.4
3127.163	5668.4
3130.344	5658.4
3133.521	5787.4
3136.696	5828.4
3139.869	5990.4
3143.039	6104.4
3146.206	6101.4
3149.371	6257.4
3152.533	6438.4
3155.693	6512.4
3158.85	6620.4
3162.005	6661.4
3165.157	6741.4
3168.306	6845.4
3171.453	6699.4
3174.597	6898.4
3177.739	6899.4
3180.878	6840.4
3184.014	6824.4
3187.149	6888.4
3190.28	6812.4
3193.409	6817.4
3196.536	6734.4
3199.659	6782.4
3202.781	6797.4
3205.9	6911.4
3209.016	6813.4
3212.13	6815.4
3215.241	6767.4
3218.35	6802.4
3221.456	6896.4
3224.56	6927.4
3227.661	6978.4
3230.76	7025.4
3233.856	6977.4
3236.95	6824.4
3240.041	6885.4
3243.13	6731.4
3246.216	6837.4
3249.3	6624.4
3252.382	6633.4
3255.46	6726.4
3258.537	6983.4
3261.611	6607.4
3264.682	6489.4
3267.751	6390.4
3270.818	6438.4
3273.882	6301.4
3276.943	6224.4
3280.002	6208.4
3283.059	6211.4
3286.113	6181.4
3289.165	6173.4
3292.214	6131.4
3295.261	5984.4
3298.306	6028.4
3301.348	5939.4
3304.387	5826.4
3307.425	5748.4
3310.459	5801.4
3313.492	5541.4
3316.521	5523.4
3319.549	5453.4
3322.574	5384.4
3325.597	5232.4
3328.617	5174.4
3331.635	5142.4
3334.65	5226.4
3337.663	5175.4
3340.674	5057.4
3343.682	5044.4
3346.688	4993.4
3349.691	4981.4
3352.692	5022.4
3355.691	4814.4
3358.687	4973.4
3361.681	4915.4
3364.673	4934.4
3367.662	4820.4
3370.649	4826.4
3373.633	4861.4
3376.615	4787.4
3379.595	4907.4
3382.572	4781.4
3385.547	4625.4
3388.52	4713.4
3391.49	4519.4
3394.458	4538.4
3397.424	4392.4
3400.387	4495.4
3403.348	4165.4
3406.307	4268.4
3409.263	4205.4
3412.217	4056.4
3415.168	4047.4
3418.118	4060.4
3421.065	3979.4
3424.009	3859.4
3426.951	3852.4
3429.891	3697.4
3432.829	3812.4
3435.764	3825.4
3438.697	3785.4
3441.628	3622.4
3444.557	3642.4
3447.483	3606.4
3450.407	3400.4
3453.328	3233.4
3456.247	3354.4
3459.164	3345.4
3462.079	3102.4
3464.991	3070.4
3467.902	2963.4
3470.809	2948.4
3473.715	2903.4
3476.618	2759.4
3479.519	2673.4
3482.418	2783.4
3485.315	2575.4
3488.209	2496.4
3491.101	2454.4
3493.99	2501.4
3496.878	2119.4
3499.763	2170.4
3502.646	2108.4
3505.527	2220.4
3508.405	2092.4
3511.281	1970.4
3514.155	1985.4
3517.027	1956.4
3519.897	2036.4
3522.764	1825.4
3525.629	1822.4
3528.492	1707.4
3531.352	1783.4
3534.211	1577.4
3537.067	1644.4
3539.921	1461.4
3542.773	1484.4
3545.622	1369.4
3548.469	1383.4
3551.315	1344.4
3554.157	1211.4
3556.998	1168.4
3559.837	1119.4
3562.673	1012.4
3565.507	1076.4
3568.339	937.4
3571.169	993.4
3573.996	921.4
3576.822	946.4
3579.645	957.4
3582.466	887.4
3585.285	803.4
3588.101	756.4
3590.916	808.4
3593.728	693.4
3596.538	740.4
3599.346	644.4
3602.152	758.4
3604.956	636.4
3607.757	528.4
3610.556	657.4
3613.354	588.4
3616.149	564.4
3618.942	558.4
3621.732	294.4
3624.521	521.4
3627.307	430.4
3630.092	476.4
3632.874	309.4
3635.654	424.4
3638.432	534.4
3641.208	392.4
3643.982	367.4
3646.753	298.4
3649.523	388.4
3652.29	344.4
3655.055	384.4
3657.818	217.4
3660.579	352.4
3663.338	335.4
3666.095	227.4
3668.849	368.4
3671.602	234.4
3674.352	292.4
3677.101	156.4
3679.847	90.4
3682.591	232.4
3685.333	204.4
3688.073	141.4
3690.811	226.4
3693.547	197.4
3696.281	193.4
3699.013	66.4
3701.742	53.4
3704.47	129.4
3707.195	59.4
3709.919	64.4
3712.64	13.4
3715.359	-41.6
3718.076	-98.6
3720.792	32.4
3723.505	75.4
3726.216	82.4
3728.925	83.4
3731.632	-90.6
3734.336	140.4
3737.039	24.4
3739.74	34.4
3742.439	51.4
3745.136	31.4
3747.83	-43.6
3750.523	19.4
3753.213	-811.6
3755.902	-8.6
3758.589	101.4
3761.273	70.4
3763.956	-87.6
3766.636	-7.6
3769.315	-179.6
3771.991	74.4
3774.665	-119.6
3777.338	107.4
3780.008	33.4
3782.677	-185.6
3785.343	74.4
3788.007	58.4
3790.67	-40.6
3793.33	-63.6
3795.989	10.4
3798.645	-60.6
3801.299	85.4
3803.952	-89.6
3806.602	-52.6
3809.251	-28.6
3811.897	29.4
3814.542	-6.6
3817.184	-45.6
3819.825	12.4
3822.463	-140.6
3825.1	-33.6
3827.735	2.4
3830.367	-45.6
3832.998	-156.6
3835.627	-80.6
3838.253	-92.6
3840.878	-33.6
3843.501	-202.6
3846.122	-117.6
3848.741	-147.6
3851.358	-94.6
3853.973	67.4
3856.586	-44.6
3859.197	-120.6
3861.806	-76.6
3864.414	12.4
3867.019	-14.6
3869.622	-99.6
3872.224	-175.6
3874.823	-8.6
3877.421	-17.6
3880.016	40.4
3882.61	90.4
3885.202	89.4
3887.792	63.4
3890.38	-69.6
3892.966	-18.6
3895.55	-64.6
3898.132	-51.6
3900.713	-134.6
3903.291	-68.6
3905.868	-137.6
3908.442	-89.6
3911.015	-130.6
3913.586	-98.6
3916.155	-94.6
3918.722	-61.6
3921.287	-89.6
3923.85	-188.6
3926.411	-119.6
3928.971	-106.6
3931.528	-87.6
3934.084	-140.6
3936.638	-77.6
3939.19	-140.6
3941.74	-78.6
3944.288	-169.6
3946.834	-55.6
3949.378	-68.6
3951.921	-19.6
3954.462	-82.6
3957	-120.6
3959.537	-21.6
3962.072	-8.6
3964.606	36.4
3967.137	-69.6
3969.667	-76.6
3972.194	-63.6
3974.72	-47.6
3977.244	18.4
3979.766	4.4
3982.286	18.4
3984.805	-140.6
3987.321	-204.6
3989.836	-94.6
3992.349	-43.6
3994.86	-68.6
3997.369	-75.6
3999.877	-94.6
4002.382	-83.6
4004.886	-47.6
4007.388	-50.6
4009.888	51.4
4012.386	-144.6
4014.883	-54.6
4017.377	-35.6
4019.87	-266.6
4022.361	-72.6
4024.85	-37.6
4027.338	-94.6
4029.823	-138.6
4032.307	-69.6
4034.789	-22.6
4037.269	30.4
4039.747	-13.6
4042.224	-76.6
4044.699	-139.6
4047.172	-86.6
4049.643	-109.6
4052.112	28.4
4054.58	-64.6
4057.046	-43.6
4059.51	33.4
4061.972	-144.6
4064.432	54.4
4066.891	-123.6
4069.348	-32.6
4071.803	-91.6
4074.256	-135.6
4076.708	-54.6
4079.158	-110.6
4081.606	-189.6
4084.052	-47.6
4086.497	-155.6
4088.939	-26.6
4091.38	-72.6
4093.819	-91.6
4096.257	-1103.6
4098.693	-1121.6
4101.127	-1189.6
4103.559	-1202.6
4105.989	46.4
4108.418	130.4
4110.845	344.4
4113.27	227.4
4115.694	250.4
4118.115	342.4
4120.535	-129.6
4122.954	-163.6
4125.37	-207.6
4127.785	-85.6
4130.198	-145.6
4132.609	-131.6
4135.019	-1213.6
4137.427	-1180.6
4139.833	-1157.6
4142.237	-1041.6
