Data from 2018-2-8_conc=2_RamanShift_03.txt Node
Date: Wed Feb 07 09:50:10 IST 2018
User: aro
Spectrometer: QEPB0276
Trigger mode: 0
Integration Time (sec): 3.000000E1
Scans to average: 1
Electric dark correction enabled: true
Nonlinearity correction enabled: false
Boxcar width: 0
XAxis mode: Raman Shifts
Number of Pixels in Spectrum: 1044
>>>>>Begin Spectral Data<<<<<
160.701	545.2
166.742	669.2
172.777	1170.2
178.805	2668.2
184.826	6036.2
190.841	11933.2
196.849	18805.2
202.85	23897.2
208.845	25797.2
214.833	25556.2
220.815	25198.2
226.789	23783.2
232.758	25040.2
238.719	24913.2
244.674	24787.2
250.623	24225.2
256.565	23895.2
262.5	23462.2
268.429	22903.2
274.351	22524.2
280.267	22494.2
286.176	21937.2
292.079	21694.2
297.975	21377.2
303.865	21300.2
309.748	21109.2
315.625	20949.2
321.495	20491.2
327.359	20485.2
333.217	20618.2
339.068	20488.2
344.912	20479.2
350.751	20486.2
356.583	20555.2
362.408	20397.2
368.227	20411.2
374.04	20549.2
379.847	20602.2
385.647	20656.2
391.44	20943.2
397.228	20868.2
403.009	21130.2
408.784	21308.2
414.553	21281.2
420.315	21401.2
426.071	21467.2
431.821	21333.2
437.565	21343.2
443.302	21223.2
449.033	21174.2
454.758	21115.2
460.477	20888.2
466.189	20843.2
471.896	20735.2
477.596	20512.2
483.29	20697.2
488.978	20717.2
494.66	20693.2
500.335	20611.2
506.005	20514.2
511.668	20286.2
517.325	20172.2
522.977	19974.2
528.622	20075.2
534.261	19832.2
539.894	19802.2
545.521	19815.2
551.141	19694.2
556.756	19399.2
562.365	19329.2
567.968	19220.2
573.565	19038.2
579.155	18882.2
584.74	18850.2
590.319	18687.2
595.892	18692.2
601.459	18686.2
607.02	18633.2
612.575	18685.2
618.124	18518.2
623.667	18710.2
629.204	18620.2
634.735	18614.2
640.261	18501.2
645.781	18675.2
651.294	18359.2
656.802	18237.2
662.304	18105.2
667.8	17809.2
673.29	17954.2
678.775	17703.2
684.254	17752.2
689.726	17827.2
695.193	17624.2
700.655	17666.2
706.11	17772.2
711.56	17684.2
717.004	17750.2
722.442	17656.2
727.874	17711.2
733.301	17692.2
738.722	17714.2
744.137	17613.2
749.547	17442.2
754.951	17335.2
760.349	17212.2
765.741	17076.2
771.128	17092.2
776.509	17062.2
781.885	17091.2
787.254	17038.2
792.618	17116.2
797.977	17141.2
803.33	17273.2
808.677	17342.2
814.019	17250.2
819.355	17313.2
824.686	17362.2
830.011	17262.2
835.33	16980.2
840.644	16805.2
845.952	16840.2
851.255	16592.2
856.552	16556.2
861.844	16357.2
867.13	16338.2
872.41	16363.2
877.686	16295.2
882.955	16375.2
888.219	16398.2
893.478	16529.2
898.731	16345.2
903.979	16272.2
909.221	16339.2
914.458	16346.2
919.69	16151.2
924.916	15924.2
930.136	15756.2
935.351	15722.2
940.561	15403.2
945.766	15348.2
950.965	15186.2
956.158	15301.2
961.347	15335.2
966.529	15388.2
971.707	15322.2
976.879	15343.2
982.046	15369.2
987.208	15414.2
992.364	15220.2
997.515	15135.2
1002.66	15030.2
1007.801	15129.2
1012.936	15027.2
1018.066	15080.2
1023.19	14788.2
1028.309	14831.2
1033.423	14990.2
1038.532	14993.2
1043.636	15269.2
1048.734	15156.2
1053.827	15275.2
1058.915	15262.2
1063.998	15112.2
1069.075	14923.2
1074.147	14717.2
1079.214	14698.2
1084.276	14412.2
1089.333	14428.2
1094.385	14320.2
1099.431	14412.2
1104.472	14247.2
1109.509	14534.2
1114.54	14531.2
1119.565	14655.2
1124.586	14598.2
1129.602	14573.2
1134.613	14496.2
1139.618	14431.2
1144.619	14200.2
1149.614	13915.2
1154.604	13831.2
1159.589	13858.2
1164.57	13643.2
1169.545	13636.2
1174.515	13611.2
1179.48	13781.2
1184.44	13774.2
1189.395	13923.2
1194.345	14073.2
1199.29	14041.2
1204.23	14174.2
1209.165	14081.2
1214.095	13960.2
1219.021	13833.2
1223.941	13883.2
1228.856	13832.2
1233.766	13757.2
1238.672	13630.2
1243.572	13605.2
1248.467	13627.2
1253.358	13745.2
1258.244	13801.2
1263.124	13614.2
1268	13580.2
1272.871	13567.2
1277.737	13508.2
1282.599	13294.2
1287.455	13106.2
1292.306	12978.2
1297.153	12989.2
1301.995	12831.2
1306.832	12813.2
1311.664	12735.2
1316.491	12766.2
1321.314	12811.2
1326.132	12776.2
1330.945	12647.2
1335.753	12605.2
1340.556	12394.2
1345.354	12199.2
1350.148	11961.2
1354.937	11794.2
1359.722	11714.2
1364.501	11534.2
1369.276	11556.2
1374.046	11477.2
1378.811	11619.2
1383.572	11644.2
1388.327	11521.2
1393.079	11892.2
1397.825	12012.2
1402.567	11897.2
1407.304	11837.2
1412.036	11973.2
1416.764	11882.2
1421.487	12001.2
1426.205	11685.2
1430.919	11494.2
1435.628	11353.2
1440.333	11286.2
1445.032	11130.2
1449.727	11224.2
1454.418	11132.2
1459.104	11143.2
1463.785	10953.2
1468.462	10977.2
1473.134	10916.2
1477.802	10740.2
1482.465	10817.2
1487.123	10471.2
1491.777	10623.2
1496.426	10418.2
1501.071	10290.2
1505.711	10301.2
1510.347	10315.2
1514.978	10415.2
1519.604	10532.2
1524.226	10621.2
1528.844	10973.2
1533.457	10863.2
1538.065	11077.2
1542.669	10998.2
1547.269	11123.2
1551.864	11095.2
1556.454	11219.2
1561.041	11081.2
1565.622	11038.2
1570.199	10791.2
1574.772	10791.2
1579.34	10561.2
1583.904	10644.2
1588.464	10715.2
1593.019	10650.2
1597.569	10833.2
1602.115	10809.2
1606.657	10895.2
1611.195	10872.2
1615.728	10944.2
1620.256	11005.2
1624.78	11056.2
1629.3	11083.2
1633.816	10835.2
1638.327	10799.2
1642.834	10734.2
1647.336	10717.2
1651.834	10568.2
1656.328	10656.2
1660.817	10613.2
1665.302	10633.2
1669.783	10584.2
1674.259	10275.2
1678.732	10130.2
1683.199	9918.2
1687.663	9807.2
1692.122	9312.2
1696.577	9058.2
1701.028	9136.2
1705.474	9071.2
1709.917	9062.2
1714.355	9052.2
1718.788	8998.2
1723.218	8873.2
1727.643	8664.2
1732.064	8493.2
1736.481	8482.2
1740.893	8273.2
1745.301	8174.2
1749.705	8265.2
1754.105	7823.2
1758.501	7860.2
1762.893	7476.2
1767.28	7426.2
1771.663	7200.2
1776.042	7020.2
1780.417	6956.2
1784.787	6768.2
1789.154	6749.2
1793.516	6691.2
1797.874	6953.2
1802.228	7150.2
1806.578	7224.2
1810.924	7161.2
1815.266	7927.2
1819.603	7227.2
1823.937	7169.2
1828.266	7149.2
1832.591	7064.2
1836.913	6994.2
1841.23	7045.2
1845.543	7017.2
1849.852	6817.2
1854.156	6832.2
1858.457	6749.2
1862.754	6738.2
1867.047	6661.2
1871.335	6434.2
1875.62	6530.2
1879.9	6379.2
1884.177	6655.2
1888.449	6420.2
1892.718	6423.2
1896.982	6312.2
1901.243	6514.2
1905.499	6415.2
1909.752	6362.2
1914	6457.2
1918.245	6295.2
1922.485	6360.2
1926.722	6397.2
1930.954	6404.2
1935.183	6393.2
1939.408	6391.2
1943.628	6466.2
1947.845	6469.2
1952.058	6519.2
1956.267	6417.2
1960.472	6419.2
1964.673	6488.2
1968.87	6468.2
1973.063	6454.2
1977.252	6373.2
1981.438	6266.2
1985.619	6188.2
1989.797	6096.2
1993.971	6049.2
1998.14	5836.2
2002.306	5945.2
2006.469	5835.2
2010.627	5784.2
2014.781	5842.2
2018.932	5900.2
2023.078	5652.2
2027.221	5729.2
2031.36	5704.2
2035.495	5736.2
2039.627	5637.2
2043.754	5594.2
2047.878	5472.2
2051.998	5498.2
2056.114	5484.2
2060.226	5459.2
2064.334	5403.2
2068.439	5291.2
2072.54	5297.2
2076.637	5498.2
2080.73	5359.2
2084.82	5376.2
2088.906	5353.2
2092.988	5316.2
2097.066	5472.2
2101.14	5398.2
2105.211	5452.2
2109.278	5476.2
2113.342	5484.2
2117.401	5570.2
2121.457	5488.2
2125.509	5470.2
2129.558	5288.2
2133.602	5354.2
2137.643	5228.2
2141.681	5127.2
2145.714	5172.2
2149.744	5066.2
2153.77	5132.2
2157.793	5037.2
2161.812	5130.2
2165.827	5110.2
2169.838	4910.2
2173.846	4918.2
2177.851	4833.2
2181.851	4802.2
2185.848	5004.2
2189.841	4659.2
2193.831	4805.2
2197.817	4627.2
2201.799	4594.2
2205.778	4677.2
2209.753	4676.2
2213.725	4643.2
2217.693	4519.2
2221.657	4552.2
2225.618	4395.2
2229.575	4462.2
2233.529	4398.2
2237.479	4400.2
2241.425	4363.2
2245.368	4459.2
2249.307	4488.2
2253.243	4384.2
2257.175	4334.2
2261.104	4286.2
2265.029	4202.2
2268.95	4197.2
2272.868	4099.2
2276.783	4139.2
2280.694	3925.2
2284.601	3913.2
2288.505	3920.2
2292.405	3822.2
2296.302	3946.2
2300.195	3829.2
2304.085	3908.2
2307.971	3810.2
2311.854	3820.2
2315.734	3716.2
2319.609	3691.2
2323.482	3838.2
2327.351	3721.2
2331.216	3677.2
2335.078	3692.2
2338.937	3630.2
2342.792	3706.2
2346.643	3598.2
2350.492	3524.2
2354.336	3606.2
2358.178	3524.2
2362.015	3523.2
2365.85	3746.2
2369.681	3648.2
2373.508	3578.2
2377.333	3577.2
2381.153	3619.2
2384.971	3593.2
2388.785	3564.2
2392.595	3651.2
2396.402	3624.2
2400.206	3687.2
2404.007	3623.2
2407.804	3600.2
2411.597	3434.2
2415.388	3517.2
2419.174	3514.2
2422.958	3480.2
2426.738	3405.2
2430.515	3280.2
2434.289	3440.2
2438.059	3422.2
2441.825	3382.2
2445.589	3223.2
2449.349	3369.2
2453.106	3261.2
2456.859	3234.2
2460.61	3093.2
2464.356	3199.2
2468.1	3194.2
2471.84	3176.2
2475.577	3180.2
2479.311	3134.2
2483.041	3089.2
2486.768	2998.2
2490.492	2825.2
2494.213	3293.2
2497.93	3073.2
2501.644	3092.2
2505.355	3096.2
2509.062	3025.2
2512.766	3076.2
2516.467	3073.2
2520.165	3020.2
2523.859	3054.2
2527.551	2826.2
2531.239	2912.2
2534.923	3019.2
2538.605	3022.2
2542.283	2893.2
2545.958	2959.2
2549.63	2831.2
2553.299	2877.2
2556.964	2880.2
2560.626	2913.2
2564.285	2734.2
2567.941	2942.2
2571.594	2908.2
2575.243	2787.2
2578.89	2895.2
2582.533	2932.2
2586.173	2850.2
2589.809	2764.2
2593.443	3009.2
2597.073	2865.2
2600.701	2643.2
2604.325	2796.2
2607.946	2857.2
2611.564	2703.2
2615.178	2620.2
2618.79	2597.2
2622.398	2609.2
2626.004	2668.2
2629.606	2569.2
2633.205	2762.2
2636.801	2625.2
2640.394	2522.2
2643.983	2493.2
2647.57	2617.2
2651.153	2465.2
2654.734	2375.2
2658.311	2646.2
2661.885	2468.2
2665.456	2393.2
2669.025	2395.2
2672.589	2387.2
2676.151	2234.2
2679.71	2319.2
2683.266	2279.2
2686.819	2281.2
2690.368	2260.2
2693.915	2291.2
2697.458	2331.2
2700.999	2128.2
2704.536	2166.2
2708.071	2097.2
2711.602	2097.2
2715.13	2105.2
2718.656	2099.2
2722.178	1975.2
2725.697	2097.2
2729.214	1742.2
2732.727	1925.2
2736.237	2058.2
2739.744	1966.2
2743.249	1966.2
2746.75	1984.2
2750.248	2043.2
2753.743	2024.2
2757.236	1986.2
2760.725	1980.2
2764.211	2233.2
2767.695	2042.2
2771.175	1993.2
2774.652	2057.2
2778.127	2003.2
2781.598	2046.2
2785.067	1957.2
2788.532	2109.2
2791.995	2108.2
2795.455	1997.2
2798.911	1906.2
2802.365	2117.2
2805.816	2018.2
2809.264	1908.2
2812.709	1980.2
2816.151	2044.2
2819.59	2169.2
2823.026	2032.2
2826.46	2108.2
2829.89	2059.2
2833.318	2227.2
2836.742	2066.2
2840.164	2078.2
2843.583	2144.2
2846.999	2139.2
2850.412	2077.2
2853.822	2174.2
2857.229	2032.2
2860.634	2055.2
2864.035	2192.2
2867.434	2098.2
2870.83	2085.2
2874.223	2245.2
2877.613	2185.2
2881	2293.2
2884.385	2348.2
2887.766	2299.2
2891.145	2263.2
2894.521	2453.2
2897.894	2472.2
2901.264	2134.2
2904.631	2418.2
2907.996	2357.2
2911.358	2392.2
2914.717	2346.2
2918.073	2357.2
2921.426	2313.2
2924.777	2487.2
2928.124	2453.2
2931.469	2393.2
2934.811	2645.2
2938.15	2469.2
2941.487	2446.2
2944.821	2420.2
2948.152	2585.2
2951.48	2498.2
2954.805	2513.2
2958.128	2410.2
2961.447	2579.2
2964.765	2380.2
2968.079	2616.2
2971.39	2481.2
2974.699	2519.2
2978.005	2529.2
2981.308	2579.2
2984.609	2744.2
2987.907	2642.2
2991.202	2696.2
2994.494	2818.2
2997.784	2500.2
3001.07	2712.2
3004.355	2726.2
3007.636	2789.2
3010.915	2911.2
3014.191	2948.2
3017.464	2965.2
3020.734	2922.2
3024.002	3022.2
3027.267	3137.2
3030.53	3048.2
3033.789	3121.2
3037.046	3295.2
3040.301	3183.2
3043.552	3277.2
3046.801	3299.2
3050.048	3243.2
3053.291	3192.2
3056.532	3447.2
3059.771	3553.2
3063.006	3544.2
3066.239	3571.2
3069.469	3720.2
3072.697	3923.2
3075.922	3979.2
3079.144	4002.2
3082.364	4044.2
3085.581	4305.2
3088.795	4234.2
3092.007	4336.2
3095.216	4534.2
3098.423	4764.2
3101.627	4883.2
3104.828	4959.2
3108.026	5014.2
3111.222	5033.2
3114.416	5068.2
3117.607	5265.2
3120.795	5320.2
3123.98	5412.2
3127.163	5586.2
3130.344	5599.2
3133.521	5714.2
3136.696	5797.2
3139.869	5866.2
3143.039	5984.2
3146.206	6025.2
3149.371	6123.2
3152.533	6320.2
3155.693	6456.2
3158.85	6536.2
3162.005	6542.2
3165.157	6648.2
3168.306	6603.2
3171.453	6584.2
3174.597	6854.2
3177.739	6821.2
3180.878	6661.2
3184.014	6716.2
3187.149	6732.2
3190.28	6707.2
3193.409	6648.2
3196.536	6636.2
3199.659	6621.2
3202.781	6651.2
3205.9	6763.2
3209.016	6685.2
3212.13	6661.2
3215.241	6589.2
3218.35	6647.2
3221.456	6728.2
3224.56	6805.2
3227.661	6828.2
3230.76	6760.2
3233.856	6823.2
3236.95	6686.2
3240.041	6781.2
3243.13	6557.2
3246.216	6699.2
3249.3	6490.2
3252.382	6526.2
3255.46	6615.2
3258.537	6935.2
3261.611	6497.2
3264.682	6345.2
3267.751	6330.2
3270.818	6373.2
3273.882	6186.2
3276.943	6077.2
3280.002	6018.2
3283.059	6092.2
3286.113	6058.2
3289.165	6089.2
3292.214	6031.2
3295.261	5809.2
3298.306	5933.2
3301.348	5834.2
3304.387	5741.2
3307.425	5659.2
3310.459	5697.2
3313.492	5419.2
3316.521	5437.2
3319.549	5337.2
3322.574	5271.2
3325.597	5254.2
3328.617	5174.2
3331.635	5067.2
3334.65	5134.2
3337.663	5088.2
3340.674	5003.2
3343.682	4937.2
3346.688	4924.2
3349.691	4916.2
3352.692	4996.2
3355.691	4725.2
3358.687	4915.2
3361.681	4826.2
3364.673	4790.2
3367.662	4787.2
3370.649	4810.2
3373.633	4801.2
3376.615	4572.2
3379.595	4801.2
3382.572	4604.2
3385.547	4567.2
3388.52	4634.2
3391.49	4544.2
3394.458	4511.2
3397.424	4340.2
3400.387	4444.2
3403.348	4141.2
3406.307	4128.2
3409.263	4267.2
3412.217	3977.2
3415.168	4015.2
3418.118	4027.2
3421.065	3882.2
3424.009	3787.2
3426.951	3853.2
3429.891	3663.2
3432.829	3746.2
3435.764	3743.2
3438.697	3757.2
3441.628	3485.2
3444.557	3575.2
3447.483	3616.2
3450.407	3386.2
3453.328	3359.2
3456.247	3339.2
3459.164	3305.2
3462.079	3078.2
3464.991	3087.2
3467.902	3039.2
3470.809	2949.2
3473.715	2809.2
3476.618	2813.2
3479.519	2706.2
3482.418	2769.2
3485.315	2605.2
3488.209	2469.2
3491.101	2449.2
3493.99	2478.2
3496.878	2130.2
3499.763	2180.2
3502.646	2161.2
3505.527	2229.2
3508.405	2094.2
3511.281	2010.2
3514.155	2025.2
3517.027	1988.2
3519.897	2092.2
3522.764	1874.2
3525.629	1875.2
3528.492	1786.2
3531.352	1633.2
3534.211	1624.2
3537.067	1684.2
3539.921	1556.2
3542.773	1492.2
3545.622	1465.2
3548.469	1445.2
3551.315	1394.2
3554.157	1321.2
3556.998	1227.2
3559.837	1130.2
3562.673	1095.2
3565.507	1195.2
3568.339	1070.2
3571.169	1085.2
3573.996	997.2
3576.822	1003.2
3579.645	1042.2
3582.466	954.2
3585.285	887.2
3588.101	812.2
3590.916	930.2
3593.728	789.2
3596.538	900.2
3599.346	720.2
3602.152	806.2
3604.956	792.2
3607.757	621.2
3610.556	790.2
3613.354	640.2
3616.149	688.2
3618.942	623.2
3621.732	439.2
3624.521	623.2
3627.307	527.2
3630.092	556.2
3632.874	398.2
3635.654	563.2
3638.432	597.2
3641.208	443.2
3643.982	487.2
3646.753	449.2
3649.523	503.2
3652.29	494.2
3655.055	481.2
3657.818	321.2
3660.579	360.2
3663.338	502.2
3666.095	282.2
3668.849	506.2
3671.602	299.2
3674.352	443.2
3677.101	284.2
3679.847	207.2
3682.591	395.2
3685.333	349.2
3688.073	260.2
3690.811	299.2
3693.547	368.2
3696.281	274.2
3699.013	179.2
3701.742	229.2
3704.47	306.2
3707.195	201.2
3709.919	213.2
3712.64	228.2
3715.359	62.2
3718.076	39.2
3720.792	205.2
3723.505	213.2
3726.216	107.2
3728.925	248.2
3731.632	102.2
3734.336	267.2
3737.039	165.2
3739.74	196.2
3742.439	274.2
3745.136	127.2
3747.83	104.2
3750.523	128.2
3753.213	138.2
3755.902	110.2
3758.589	144.2
3761.273	206.2
3763.956	9.2
3766.636	197.2
3769.315	-26.8
3771.991	219.2
3774.665	98.2
3777.338	225.2
3780.008	204.2
3782.677	159.2
3785.343	252.2
3788.007	198.2
3790.67	98.2
3793.33	35.2
3795.989	194.2
3798.645	106.2
3801.299	212.2
3803.952	87.2
3806.602	75.2
3809.251	130.2
3811.897	132.2
3814.542	128.2
3817.184	85.2
3819.825	130.2
3822.463	176.2
3825.1	92.2
3827.735	118.2
3830.367	101.2
3832.998	-4.8
3835.627	-9.8
3838.253	-7.8
3840.878	90.2
3843.501	-34.8
3846.122	9.2
3848.741	-8.8
3851.358	75.2
3853.973	223.2
3856.586	75.2
3859.197	63.2
3861.806	74.2
3864.414	133.2
3867.019	123.2
3869.622	-2.8
3872.224	-52.8
3874.823	147.2
3877.421	145.2
3880.016	109.2
3882.61	237.2
3885.202	213.2
3887.792	210.2
3890.38	48.2
3892.966	122.2
3895.55	102.2
3898.132	71.2
3900.713	14.2
3903.291	83.2
3905.868	42.2
3908.442	30.2
3911.015	71.2
3913.586	68.2
3916.155	13.2
3918.722	128.2
3921.287	118.2
3923.85	133.2
3926.411	41.2
3928.971	-70.8
3931.528	22.2
3934.084	87.2
3936.638	74.2
3939.19	-29.8
3941.74	-36.8
3944.288	64.2
3946.834	37.2
3949.378	23.2
3951.921	142.2
3954.462	52.2
3957	42.2
3959.537	78.2
3962.072	142.2
3964.606	183.2
3967.137	20.2
3969.667	32.2
3972.194	-9.8
3974.72	64.2
3977.244	158.2
3979.766	151.2
3982.286	202.2
3984.805	-1.8
3987.321	-18.8
3989.836	53.2
3992.349	119.2
3994.86	62.2
3997.369	44.2
3999.877	22.2
4002.382	98.2
4004.886	16.2
4007.388	79.2
4009.888	192.2
4012.386	-4.8
4014.883	13.2
4017.377	39.2
4019.87	-54.8
4022.361	94.2
4024.85	87.2
4027.338	23.2
4029.823	35.2
4032.307	26.2
4034.789	93.2
4037.269	112.2
4039.747	175.2
4042.224	13.2
4044.699	81.2
4047.172	59.2
4049.643	49.2
4052.112	201.2
4054.58	103.2
4057.046	118.2
4059.51	153.2
4061.972	53.2
4064.432	248.2
4066.891	-78.8
4069.348	110.2
4071.803	-13.8
4074.256	36.2
4076.708	77.2
4079.158	44.2
4081.606	-64.8
4084.052	73.2
4086.497	64.2
4088.939	98.2
4091.38	176.2
4093.819	27.2
4096.257	-1240.8
4098.693	-1255.8
4101.127	-1289.8
4103.559	-1317.8
4105.989	403.2
4108.418	212.2
4110.845	483.2
4113.27	318.2
4115.694	420.2
4118.115	451.2
4120.535	5.2
4122.954	-62.8
4125.37	-97.8
4127.785	27.2
4130.198	43.2
4132.609	-18.8
4135.019	-1349.8
4137.427	-1303.8
4139.833	-1275.8
4142.237	-1123.8
