Data from 2018-2-8_conc=3_RamanShift_20.txt Node
Date: Wed Feb 07 10:24:40 IST 2018
User: aro
Spectrometer: QEPB0276
Trigger mode: 0
Integration Time (sec): 3.000000E1
Scans to average: 1
Electric dark correction enabled: true
Nonlinearity correction enabled: false
Boxcar width: 0
XAxis mode: Raman Shifts
Number of Pixels in Spectrum: 1044
>>>>>Begin Spectral Data<<<<<
160.701	485.6
166.742	569.6
172.777	1045.6
178.805	2556.6
184.826	5915.6
190.841	11789.6
196.849	18945.6
202.85	24149.6
208.845	26173.6
214.833	25923.6
220.815	25642.6
226.789	25326.6
232.758	25281.6
238.719	25201.6
244.674	24858.6
250.623	24455.6
256.565	24005.6
262.5	23593.6
268.429	22950.6
274.351	22660.6
280.267	22507.6
286.176	21919.6
292.079	21629.6
297.975	21384.6
303.865	21183.6
309.748	21087.6
315.625	20920.6
321.495	20525.6
327.359	20476.6
333.217	20482.6
339.068	20509.6
344.912	20462.6
350.751	20430.6
356.583	20381.6
362.408	20336.6
368.227	20325.6
374.04	20413.6
379.847	20504.6
385.647	20634.6
391.44	20873.6
397.228	20895.6
403.009	21039.6
408.784	21149.6
414.553	21282.6
420.315	21318.6
426.071	21337.6
431.821	21341.6
437.565	21258.6
443.302	21077.6
449.033	21059.6
454.758	21022.6
460.477	20856.6
466.189	20790.6
471.896	20672.6
477.596	20519.6
483.29	20681.6
488.978	20505.6
494.66	20656.6
500.335	20506.6
506.005	20399.6
511.668	20272.6
517.325	20103.6
522.977	19950.6
528.622	19887.6
534.261	19708.6
539.894	19673.6
545.521	19540.6
551.141	19406.6
556.756	19291.6
562.365	19076.6
567.968	19027.6
573.565	18931.6
579.155	18689.6
584.74	18661.6
590.319	18522.6
595.892	18505.6
601.459	18465.6
607.02	18447.6
612.575	18491.6
618.124	18359.6
623.667	18445.6
629.204	18371.6
634.735	18464.6
640.261	18358.6
645.781	18429.6
651.294	18182.6
656.802	17989.6
662.304	17909.6
667.8	17580.6
673.29	17645.6
678.775	17536.6
684.254	17491.6
689.726	17521.6
695.193	17350.6
700.655	17436.6
706.11	17586.6
711.56	17431.6
717.004	17507.6
722.442	17607.6
727.874	17414.6
733.301	17464.6
738.722	17521.6
744.137	17304.6
749.547	17087.6
754.951	17219.6
760.349	17003.6
765.741	16866.6
771.128	16761.6
776.509	16860.6
781.885	16799.6
787.254	16804.6
792.618	16753.6
797.977	16914.6
803.33	16966.6
808.677	17011.6
814.019	17011.6
819.355	16992.6
824.686	16928.6
830.011	16929.6
835.33	16699.6
840.644	16457.6
845.952	16616.6
851.255	16291.6
856.552	16220.6
861.844	16137.6
867.13	16042.6
872.41	15993.6
877.686	15959.6
882.955	16007.6
888.219	16061.6
893.478	16230.6
898.731	15983.6
903.979	16017.6
909.221	16063.6
914.458	15991.6
919.69	15723.6
924.916	15686.6
930.136	15485.6
935.351	15436.6
940.561	15077.6
945.766	14943.6
950.965	14850.6
956.158	14973.6
961.347	14985.6
966.529	15002.6
971.707	14960.6
976.879	14946.6
982.046	14944.6
987.208	15131.6
992.364	14883.6
997.515	14911.6
1002.66	14742.6
1007.801	14791.6
1012.936	14769.6
1018.066	14749.6
1023.19	14578.6
1028.309	14462.6
1033.423	14610.6
1038.532	14663.6
1043.636	14828.6
1048.734	14838.6
1053.827	14984.6
1058.915	14847.6
1063.998	14795.6
1069.075	14613.6
1074.147	14437.6
1079.214	14498.6
1084.276	14096.6
1089.333	14107.6
1094.385	13952.6
1099.431	14068.6
1104.472	13958.6
1109.509	14102.6
1114.54	14261.6
1119.565	14306.6
1124.586	14225.6
1129.602	14210.6
1134.613	14187.6
1139.618	14077.6
1144.619	13937.6
1149.614	13769.6
1154.604	13565.6
1159.589	13565.6
1164.57	13279.6
1169.545	13356.6
1174.515	13423.6
1179.48	13472.6
1184.44	13556.6
1189.395	13672.6
1194.345	13807.6
1199.29	13685.6
1204.23	13820.6
1209.165	13771.6
1214.095	13645.6
1219.021	13486.6
1223.941	13504.6
1228.856	13463.6
1233.766	13450.6
1238.672	13362.6
1243.572	13314.6
1248.467	13364.6
1253.358	13463.6
1258.244	13468.6
1263.124	13424.6
1268	13276.6
1272.871	13236.6
1277.737	13231.6
1282.599	12953.6
1287.455	12829.6
1292.306	12615.6
1297.153	12678.6
1301.995	12470.6
1306.832	12459.6
1311.664	12408.6
1316.491	12539.6
1321.314	12490.6
1326.132	12446.6
1330.945	12398.6
1335.753	12356.6
1340.556	12154.6
1345.354	12004.6
1350.148	11790.6
1354.937	11608.6
1359.722	11546.6
1364.501	11322.6
1369.276	11094.6
1374.046	11172.6
1378.811	11354.6
1383.572	11416.6
1388.327	11149.6
1393.079	11639.6
1397.825	11740.6
1402.567	11689.6
1407.304	11632.6
1412.036	11663.6
1416.764	11568.6
1421.487	11713.6
1426.205	11361.6
1430.919	11233.6
1435.628	11067.6
1440.333	11009.6
1445.032	10890.6
1449.727	10958.6
1454.418	10914.6
1459.104	10879.6
1463.785	10732.6
1468.462	10752.6
1473.134	10692.6
1477.802	10556.6
1482.465	10573.6
1487.123	10252.6
1491.777	10392.6
1496.426	10291.6
1501.071	10074.6
1505.711	10116.6
1510.347	10194.6
1514.978	10220.6
1519.604	10323.6
1524.226	10391.6
1528.844	10748.6
1533.457	10650.6
1538.065	10722.6
1542.669	10769.6
1547.269	10788.6
1551.864	10856.6
1556.454	10969.6
1561.041	10834.6
1565.622	10837.6
1570.199	10639.6
1574.772	10494.6
1579.34	10316.6
1583.904	10492.6
1588.464	10549.6
1593.019	10488.6
1597.569	10610.6
1602.115	10597.6
1606.657	10710.6
1611.195	10795.6
1615.728	10809.6
1620.256	10933.6
1624.78	10940.6
1629.3	10949.6
1633.816	10688.6
1638.327	10683.6
1642.834	10638.6
1647.336	10542.6
1651.834	10459.6
1656.328	10554.6
1660.817	10402.6
1665.302	10540.6
1669.783	10458.6
1674.259	10297.6
1678.732	10000.6
1683.199	9813.6
1687.663	9660.6
1692.122	9313.6
1696.577	9043.6
1701.028	8890.6
1705.474	8905.6
1709.917	8882.6
1714.355	8891.6
1718.788	8760.6
1723.218	8667.6
1727.643	8440.6
1732.064	8256.6
1736.481	8323.6
1740.893	8117.6
1745.301	8008.6
1749.705	8021.6
1754.105	7637.6
1758.501	7612.6
1762.893	7332.6
1767.28	7258.6
1771.663	6949.6
1776.042	6886.6
1780.417	6780.6
1784.787	6585.6
1789.154	6666.6
1793.516	6541.6
1797.874	6794.6
1802.228	6945.6
1806.578	7097.6
1810.924	6999.6
1815.266	7427.6
1819.603	6992.6
1823.937	7065.6
1828.266	6939.6
1832.591	6894.6
1836.913	6813.6
1841.23	6829.6
1845.543	6822.6
1849.852	6588.6
1854.156	6637.6
1858.457	6608.6
1862.754	6268.6
1867.047	6524.6
1871.335	6330.6
1875.62	6287.6
1879.9	6270.6
1884.177	6429.6
1888.449	6325.6
1892.718	6294.6
1896.982	6183.6
1901.243	6362.6
1905.499	6325.6
1909.752	6283.6
1914	6349.6
1918.245	6250.6
1922.485	6285.6
1926.722	6285.6
1930.954	6239.6
1935.183	6302.6
1939.408	6240.6
1943.628	6307.6
1947.845	6276.6
1952.058	6393.6
1956.267	6258.6
1960.472	6248.6
1964.673	6265.6
1968.87	6333.6
1973.063	6387.6
1977.252	6238.6
1981.438	6089.6
1985.619	6024.6
1989.797	5914.6
1993.971	5879.6
1998.14	5738.6
2002.306	5730.6
2006.469	5659.6
2010.627	5662.6
2014.781	5709.6
2018.932	5674.6
2023.078	5450.6
2027.221	5449.6
2031.36	5600.6
2035.495	5569.6
2039.627	5530.6
2043.754	5446.6
2047.878	5419.6
2051.998	5336.6
2056.114	5382.6
2060.226	5361.6
2064.334	5225.6
2068.439	5162.6
2072.54	5235.6
2076.637	5343.6
2080.73	5249.6
2084.82	5214.6
2088.906	5367.6
2092.988	5252.6
2097.066	5386.6
2101.14	5288.6
2105.211	5307.6
2109.278	5320.6
2113.342	5327.6
2117.401	5459.6
2121.457	5325.6
2125.509	5355.6
2129.558	5131.6
2133.602	5215.6
2137.643	5075.6
2141.681	5123.6
2145.714	5099.6
2149.744	4983.6
2153.77	5023.6
2157.793	4915.6
2161.812	4979.6
2165.827	4965.6
2169.838	4808.6
2173.846	4915.6
2177.851	4884.6
2181.851	4671.6
2185.848	4727.6
2189.841	4546.6
2193.831	4618.6
2197.817	4473.6
2201.799	4485.6
2205.778	4562.6
2209.753	4459.6
2213.725	4504.6
2217.693	4376.6
2221.657	4439.6
2225.618	4288.6
2229.575	4386.6
2233.529	4279.6
2237.479	4293.6
2241.425	4268.6
2245.368	4396.6
2249.307	4258.6
2253.243	4233.6
2257.175	4257.6
2261.104	4128.6
2265.029	4098.6
2268.95	4089.6
2272.868	3957.6
2276.783	3945.6
2280.694	3749.6
2284.601	3782.6
2288.505	3827.6
2292.405	3682.6
2296.302	3705.6
2300.195	3579.6
2304.085	3733.6
2307.971	3628.6
2311.854	3650.6
2315.734	3581.6
2319.609	3579.6
2323.482	3687.6
2327.351	3584.6
2331.216	3551.6
2335.078	3527.6
2338.937	3493.6
2342.792	3523.6
2346.643	3458.6
2350.492	3404.6
2354.336	3400.6
2358.178	3372.6
2362.015	3375.6
2365.85	3482.6
2369.681	3461.6
2373.508	3371.6
2377.333	3345.6
2381.153	3437.6
2384.971	3425.6
2388.785	3414.6
2392.595	3424.6
2396.402	3511.6
2400.206	3506.6
2404.007	3474.6
2407.804	3343.6
2411.597	3278.6
2415.388	3393.6
2419.174	3321.6
2422.958	3300.6
2426.738	3175.6
2430.515	3078.6
2434.289	3268.6
2438.059	3217.6
2441.825	3197.6
2445.589	3035.6
2449.349	3173.6
2453.106	3045.6
2456.859	3059.6
2460.61	2954.6
2464.356	3064.6
2468.1	2998.6
2471.84	3043.6
2475.577	3027.6
2479.311	2861.6
2483.041	2939.6
2486.768	2785.6
2490.492	2670.6
2494.213	2898.6
2497.93	2930.6
2501.644	2957.6
2505.355	2913.6
2509.062	2863.6
2512.766	2947.6
2516.467	2868.6
2520.165	2859.6
2523.859	2918.6
2527.551	2648.6
2531.239	2763.6
2534.923	2898.6
2538.605	2917.6
2542.283	2731.6
2545.958	2809.6
2549.63	2700.6
2553.299	2638.6
2556.964	2718.6
2560.626	2779.6
2564.285	2665.6
2567.941	2741.6
2571.594	2730.6
2575.243	2603.6
2578.89	2739.6
2582.533	2679.6
2586.173	2645.6
2589.809	2610.6
2593.443	2839.6
2597.073	2646.6
2600.701	2552.6
2604.325	2495.6
2607.946	2607.6
2611.564	2565.6
2615.178	2452.6
2618.79	2511.6
2622.398	2555.6
2626.004	2534.6
2629.606	2402.6
2633.205	2617.6
2636.801	2387.6
2640.394	2412.6
2643.983	2415.6
2647.57	2421.6
2651.153	2411.6
2654.734	2220.6
2658.311	2480.6
2661.885	2362.6
2665.456	2243.6
2669.025	2294.6
2672.589	2258.6
2676.151	2110.6
2679.71	2135.6
2683.266	2062.6
2686.819	2131.6
2690.368	2058.6
2693.915	2071.6
2697.458	2153.6
2700.999	1992.6
2704.536	1998.6
2708.071	2020.6
2711.602	1971.6
2715.13	1965.6
2718.656	1983.6
2722.178	1879.6
2725.697	1947.6
2729.214	1662.6
2732.727	1790.6
2736.237	1843.6
2739.744	1840.6
2743.249	1942.6
2746.75	1881.6
2750.248	1925.6
2753.743	1925.6
2757.236	1878.6
2760.725	1855.6
2764.211	2111.6
2767.695	1898.6
2771.175	1950.6
2774.652	1894.6
2778.127	1892.6
2781.598	1889.6
2785.067	1873.6
2788.532	1904.6
2791.995	1882.6
2795.455	1889.6
2798.911	1861.6
2802.365	1994.6
2805.816	1874.6
2809.264	1878.6
2812.709	1934.6
2816.151	1827.6
2819.59	2031.6
2823.026	1967.6
2826.46	2013.6
2829.89	1954.6
2833.318	2184.6
2836.742	1921.6
2840.164	1974.6
2843.583	2040.6
2846.999	2018.6
2850.412	1994.6
2853.822	2114.6
2857.229	1924.6
2860.634	1993.6
2864.035	2056.6
2867.434	2015.6
2870.83	1988.6
2874.223	2179.6
2877.613	1975.6
2881	2238.6
2884.385	2328.6
2887.766	2241.6
2891.145	2167.6
2894.521	2282.6
2897.894	2350.6
2901.264	2052.6
2904.631	2313.6
2907.996	2299.6
2911.358	2251.6
2914.717	2291.6
2918.073	2315.6
2921.426	2255.6
2924.777	2394.6
2928.124	2404.6
2931.469	2304.6
2934.811	2538.6
2938.15	2403.6
2941.487	2463.6
2944.821	2197.6
2948.152	2585.6
2951.48	2469.6
2954.805	2401.6
2958.128	2407.6
2961.447	2528.6
2964.765	2422.6
2968.079	2468.6
2971.39	2403.6
2974.699	2470.6
2978.005	2517.6
2981.308	2535.6
2984.609	2707.6
2987.907	2589.6
2991.202	2687.6
2994.494	2694.6
2997.784	2376.6
3001.07	2667.6
3004.355	2692.6
3007.636	2820.6
3010.915	2842.6
3014.191	2928.6
3017.464	2908.6
3020.734	2827.6
3024.002	3001.6
3027.267	3000.6
3030.53	3086.6
3033.789	3034.6
3037.046	3245.6
3040.301	3215.6
3043.552	3247.6
3046.801	3316.6
3050.048	3235.6
3053.291	3222.6
3056.532	3441.6
3059.771	3622.6
3063.006	3545.6
3066.239	3597.6
3069.469	3655.6
3072.697	3939.6
3075.922	3930.6
3079.144	4036.6
3082.364	4079.6
3085.581	4270.6
3088.795	4120.6
3092.007	4355.6
3095.216	4533.6
3098.423	4733.6
3101.627	4888.6
3104.828	4891.6
3108.026	5065.6
3111.222	5115.6
3114.416	5079.6
3117.607	5294.6
3120.795	5346.6
3123.98	5453.6
3127.163	5676.6
3130.344	5668.6
3133.521	5772.6
3136.696	5872.6
3139.869	5980.6
3143.039	6113.6
3146.206	6134.6
3149.371	6229.6
3152.533	6406.6
3155.693	6553.6
3158.85	6621.6
3162.005	6707.6
3165.157	6736.6
3168.306	6849.6
3171.453	6693.6
3174.597	6955.6
3177.739	6902.6
3180.878	6870.6
3184.014	6867.6
3187.149	6902.6
3190.28	6875.6
3193.409	6776.6
3196.536	6787.6
3199.659	6770.6
3202.781	6808.6
3205.9	6955.6
3209.016	6846.6
3212.13	6880.6
3215.241	6836.6
3218.35	6858.6
3221.456	6878.6
3224.56	6990.6
3227.661	6901.6
3230.76	7030.6
3233.856	6941.6
3236.95	6894.6
3240.041	6950.6
3243.13	6737.6
3246.216	6754.6
3249.3	6611.6
3252.382	6664.6
3255.46	6776.6
3258.537	5947.6
3261.611	6660.6
3264.682	6514.6
3267.751	6470.6
3270.818	6561.6
3273.882	6353.6
3276.943	6319.6
3280.002	6174.6
3283.059	6224.6
3286.113	6193.6
3289.165	6267.6
3292.214	6235.6
3295.261	6033.6
3298.306	6087.6
3301.348	6004.6
3304.387	5883.6
3307.425	5850.6
3310.459	5822.6
3313.492	5561.6
3316.521	5569.6
3319.549	5452.6
3322.574	5363.6
3325.597	5305.6
3328.617	5310.6
3331.635	5263.6
3334.65	5331.6
3337.663	5219.6
3340.674	5186.6
3343.682	5064.6
3346.688	5001.6
3349.691	5098.6
3352.692	5129.6
3355.691	4940.6
3358.687	4977.6
3361.681	4953.6
3364.673	5052.6
3367.662	4888.6
3370.649	4752.6
3373.633	4892.6
3376.615	4864.6
3379.595	4957.6
3382.572	4900.6
3385.547	4690.6
3388.52	4797.6
3391.49	4698.6
3394.458	4675.6
3397.424	4435.6
3400.387	4572.6
3403.348	4230.6
3406.307	4313.6
3409.263	4306.6
3412.217	4168.6
3415.168	4225.6
3418.118	4159.6
3421.065	4043.6
3424.009	3934.6
3426.951	3938.6
3429.891	3811.6
3432.829	3874.6
3435.764	3798.6
3438.697	3857.6
3441.628	3622.6
3444.557	3656.6
3447.483	3712.6
3450.407	3444.6
3453.328	3316.6
3456.247	3438.6
3459.164	3406.6
3462.079	3228.6
3464.991	3108.6
3467.902	3088.6
3470.809	3002.6
3473.715	2916.6
3476.618	2747.6
3479.519	2708.6
3482.418	2870.6
3485.315	2641.6
3488.209	2603.6
3491.101	2532.6
3493.99	2523.6
3496.878	2146.6
3499.763	2231.6
3502.646	2174.6
3505.527	2269.6
3508.405	2127.6
3511.281	2049.6
3514.155	2056.6
3517.027	1998.6
3519.897	2092.6
3522.764	1842.6
3525.629	1910.6
3528.492	1857.6
3531.352	1649.6
3534.211	1636.6
3537.067	1695.6
3539.921	1560.6
3542.773	1521.6
3545.622	1375.6
3548.469	1494.6
3551.315	1429.6
3554.157	1348.6
3556.998	1234.6
3559.837	1156.6
3562.673	1053.6
3565.507	1129.6
3568.339	991.6
3571.169	1092.6
3573.996	997.6
3576.822	1003.6
3579.645	1010.6
3582.466	906.6
3585.285	884.6
3588.101	755.6
3590.916	891.6
3593.728	762.6
3596.538	834.6
3599.346	738.6
3602.152	828.6
3604.956	688.6
3607.757	613.6
3610.556	748.6
3613.354	656.6
3616.149	631.6
3618.942	554.6
3621.732	364.6
3624.521	597.6
3627.307	490.6
3630.092	539.6
3632.874	395.6
3635.654	468.6
3638.432	531.6
3641.208	437.6
3643.982	454.6
3646.753	399.6
3649.523	444.6
3652.29	422.6
3655.055	469.6
3657.818	278.6
3660.579	317.6
3663.338	440.6
3666.095	255.6
3668.849	413.6
3671.602	245.6
3674.352	408.6
3677.101	250.6
3679.847	144.6
3682.591	303.6
3685.333	322.6
3688.073	221.6
3690.811	308.6
3693.547	276.6
3696.281	253.6
3699.013	147.6
3701.742	192.6
3704.47	282.6
3707.195	170.6
3709.919	160.6
3712.64	102.6
3715.359	36.6
3718.076	-44.4
3720.792	151.6
3723.505	160.6
3726.216	80.6
3728.925	182.6
3731.632	-62.4
3734.336	193.6
3737.039	108.6
3739.74	144.6
3742.439	361.6
3745.136	101.6
3747.83	27.6
3750.523	92.6
3753.213	-313.4
3755.902	81.6
3758.589	146.6
3761.273	132.6
3763.956	-34.4
3766.636	140.6
3769.315	-121.4
3771.991	169.6
3774.665	30.6
3777.338	192.6
3780.008	108.6
3782.677	75.6
3785.343	184.6
3788.007	118.6
3790.67	24.6
3793.33	9.6
3795.989	81.6
3798.645	-19.4
3801.299	167.6
3803.952	19.6
3806.602	15.6
3809.251	38.6
3811.897	18.6
3814.542	80.6
3817.184	54.6
3819.825	97.6
3822.463	-66.4
3825.1	65.6
3827.735	55.6
3830.367	21.6
3832.998	-113.4
3835.627	-49.4
3838.253	-36.4
3840.878	35.6
3843.501	-108.4
3846.122	-50.4
3848.741	-85.4
3851.358	6.6
3853.973	141.6
3856.586	18.6
3859.197	11.6
3861.806	27.6
3864.414	94.6
3867.019	69.6
3869.622	-64.4
3872.224	-79.4
3874.823	99.6
3877.421	38.6
3880.016	100.6
3882.61	236.6
3885.202	107.6
3887.792	152.6
3890.38	-41.4
3892.966	72.6
3895.55	60.6
3898.132	32.6
3900.713	-40.4
3903.291	3.6
3905.868	-63.4
3908.442	-66.4
3911.015	13.6
3913.586	12.6
3916.155	48.6
3918.722	6.6
3921.287	36.6
3923.85	-74.4
3926.411	-94.4
3928.971	-97.4
3931.528	-2.4
3934.084	-24.4
3936.638	42.6
3939.19	-107.4
3941.74	-2.4
3944.288	-19.4
3946.834	-28.4
3949.378	-15.4
3951.921	82.6
3954.462	13.6
3957	-29.4
3959.537	33.6
3962.072	68.6
3964.606	149.6
3967.137	-22.4
3969.667	-14.4
3972.194	9.6
3974.72	33.6
3977.244	76.6
3979.766	38.6
3982.286	91.6
3984.805	-48.4
3987.321	-101.4
3989.836	-13.4
3992.349	71.6
3994.86	54.6
3997.369	4.6
3999.877	-21.4
4002.382	-2.4
4004.886	50.6
4007.388	46.6
4009.888	88.6
4012.386	-50.4
4014.883	-12.4
4017.377	-22.4
4019.87	-72.4
4022.361	84.6
4024.85	35.6
4027.338	-55.4
4029.823	-55.4
4032.307	8.6
4034.789	63.6
4037.269	44.6
4039.747	75.6
4042.224	-0.4
4044.699	61.6
4047.172	21.6
4049.643	-83.4
4052.112	114.6
4054.58	42.6
4057.046	25.6
4059.51	75.6
4061.972	-55.4
4064.432	89.6
4066.891	-87.4
4069.348	80.6
4071.803	-38.4
4074.256	5.6
4076.708	60.6
4079.158	-22.4
4081.606	-141.4
4084.052	25.6
4086.497	-0.4
4088.939	95.6
4091.38	55.6
4093.819	16.6
4096.257	-1153.4
4098.693	-1215.4
4101.127	-1224.4
4103.559	-1208.4
4105.989	179.6
4108.418	157.6
4110.845	385.6
4113.27	249.6
4115.694	396.6
4118.115	386.6
4120.535	-38.4
4122.954	-90.4
4125.37	-103.4
4127.785	5.6
4130.198	-28.4
4132.609	-64.4
4135.019	-1254.4
4137.427	-1231.4
4139.833	-1157.4
4142.237	-1014.4
