Data from 2018-2-8_conc=3_RamanShift_19.txt Node
Date: Wed Feb 07 10:24:10 IST 2018
User: aro
Spectrometer: QEPB0276
Trigger mode: 0
Integration Time (sec): 3.000000E1
Scans to average: 1
Electric dark correction enabled: true
Nonlinearity correction enabled: false
Boxcar width: 0
XAxis mode: Raman Shifts
Number of Pixels in Spectrum: 1044
>>>>>Begin Spectral Data<<<<<
160.701	507.8
166.742	564.8
172.777	1066.8
178.805	2598.8
184.826	5965.8
190.841	11789.8
196.849	18836.8
202.85	24218.8
208.845	26151.8
214.833	26023.8
220.815	25677.8
226.789	25589.8
232.758	25509.8
238.719	25396.8
244.674	25211.8
250.623	24848.8
256.565	24470.8
262.5	24064.8
268.429	23436.8
274.351	23245.8
280.267	23152.8
286.176	22591.8
292.079	22393.8
297.975	22082.8
303.865	21883.8
309.748	21738.8
315.625	21649.8
321.495	21173.8
327.359	21206.8
333.217	21244.8
339.068	21217.8
344.912	21251.8
350.751	21163.8
356.583	21151.8
362.408	21197.8
368.227	21143.8
374.04	21257.8
379.847	21336.8
385.647	21403.8
391.44	21680.8
397.228	21655.8
403.009	21861.8
408.784	21926.8
414.553	22100.8
420.315	22084.8
426.071	22192.8
431.821	22152.8
437.565	22057.8
443.302	21917.8
449.033	21898.8
454.758	21798.8
460.477	21661.8
466.189	21516.8
471.896	21479.8
477.596	21316.8
483.29	21436.8
488.978	21346.8
494.66	21419.8
500.335	21311.8
506.005	21176.8
511.668	20962.8
517.325	20852.8
522.977	20788.8
528.622	20645.8
534.261	20554.8
539.894	20430.8
545.521	20339.8
551.141	20395.8
556.756	20078.8
562.365	19948.8
567.968	19855.8
573.565	19719.8
579.155	19488.8
584.74	19450.8
590.319	19336.8
595.892	19353.8
601.459	19332.8
607.02	19258.8
612.575	19331.8
618.124	19197.8
623.667	19287.8
629.204	19211.8
634.735	19319.8
640.261	19082.8
645.781	19249.8
651.294	19014.8
656.802	18821.8
662.304	18715.8
667.8	18478.8
673.29	18516.8
678.775	18382.8
684.254	18362.8
689.726	18436.8
695.193	18207.8
700.655	18238.8
706.11	18408.8
711.56	18275.8
717.004	18325.8
722.442	18457.8
727.874	18233.8
733.301	18277.8
738.722	18344.8
744.137	18089.8
749.547	18000.8
754.951	17880.8
760.349	17807.8
765.741	17662.8
771.128	17650.8
776.509	17681.8
781.885	17546.8
787.254	17649.8
792.618	17641.8
797.977	17745.8
803.33	17742.8
808.677	17806.8
814.019	17805.8
819.355	17806.8
824.686	17834.8
830.011	17775.8
835.33	17525.8
840.644	17291.8
845.952	17383.8
851.255	17047.8
856.552	17080.8
861.844	16956.8
867.13	16842.8
872.41	16778.8
877.686	16711.8
882.955	16804.8
888.219	16926.8
893.478	17016.8
898.731	16793.8
903.979	16771.8
909.221	16853.8
914.458	16678.8
919.69	16446.8
924.916	16496.8
930.136	16185.8
935.351	16238.8
940.561	15788.8
945.766	15753.8
950.965	15614.8
956.158	15788.8
961.347	15794.8
966.529	15744.8
971.707	15765.8
976.879	15755.8
982.046	15817.8
987.208	15838.8
992.364	15685.8
997.515	15598.8
1002.66	15501.8
1007.801	15562.8
1012.936	15418.8
1018.066	15520.8
1023.19	15381.8
1028.309	15261.8
1033.423	15324.8
1038.532	15437.8
1043.636	15604.8
1048.734	15632.8
1053.827	15646.8
1058.915	15723.8
1063.998	15493.8
1069.075	15345.8
1074.147	15197.8
1079.214	15172.8
1084.276	14843.8
1089.333	14818.8
1094.385	14745.8
1099.431	14687.8
1104.472	14727.8
1109.509	14847.8
1114.54	14914.8
1119.565	14990.8
1124.586	15021.8
1129.602	14922.8
1134.613	14889.8
1139.618	14804.8
1144.619	14576.8
1149.614	14343.8
1154.604	14283.8
1159.589	14195.8
1164.57	13956.8
1169.545	13985.8
1174.515	14025.8
1179.48	14132.8
1184.44	14246.8
1189.395	14287.8
1194.345	14458.8
1199.29	14449.8
1204.23	14574.8
1209.165	14437.8
1214.095	14340.8
1219.021	14182.8
1223.941	14127.8
1228.856	14075.8
1233.766	14108.8
1238.672	13967.8
1243.572	13939.8
1248.467	13924.8
1253.358	14123.8
1258.244	14144.8
1263.124	14084.8
1268	13889.8
1272.871	13865.8
1277.737	13875.8
1282.599	13581.8
1287.455	13492.8
1292.306	13153.8
1297.153	13271.8
1301.995	13084.8
1306.832	13025.8
1311.664	12988.8
1316.491	13106.8
1321.314	13061.8
1326.132	12983.8
1330.945	12974.8
1335.753	12824.8
1340.556	12656.8
1345.354	12511.8
1350.148	12287.8
1354.937	12092.8
1359.722	12053.8
1364.501	11878.8
1369.276	11677.8
1374.046	11747.8
1378.811	11858.8
1383.572	11950.8
1388.327	11719.8
1393.079	12181.8
1397.825	12271.8
1402.567	12219.8
1407.304	12084.8
1412.036	12180.8
1416.764	12092.8
1421.487	12217.8
1426.205	11895.8
1430.919	11754.8
1435.628	11591.8
1440.333	11498.8
1445.032	11425.8
1449.727	11395.8
1454.418	11394.8
1459.104	11354.8
1463.785	11168.8
1468.462	11180.8
1473.134	11166.8
1477.802	10972.8
1482.465	11054.8
1487.123	10775.8
1491.777	10900.8
1496.426	10689.8
1501.071	10480.8
1505.711	10547.8
1510.347	10630.8
1514.978	10674.8
1519.604	10777.8
1524.226	10988.8
1528.844	11181.8
1533.457	11049.8
1538.065	11194.8
1542.669	11288.8
1547.269	11344.8
1551.864	11299.8
1556.454	11456.8
1561.041	11359.8
1565.622	11237.8
1570.199	11020.8
1574.772	10950.8
1579.34	10762.8
1583.904	10893.8
1588.464	10928.8
1593.019	10837.8
1597.569	11064.8
1602.115	11029.8
1606.657	11074.8
1611.195	11033.8
1615.728	11098.8
1620.256	11222.8
1624.78	11269.8
1629.3	11243.8
1633.816	11055.8
1638.327	11004.8
1642.834	10909.8
1647.336	10975.8
1651.834	10772.8
1656.328	10803.8
1660.817	10702.8
1665.302	10768.8
1669.783	10790.8
1674.259	10619.8
1678.732	10320.8
1683.199	10126.8
1687.663	9955.8
1692.122	9530.8
1696.577	9301.8
1701.028	9386.8
1705.474	9267.8
1709.917	9294.8
1714.355	9218.8
1718.788	9124.8
1723.218	9005.8
1727.643	8770.8
1732.064	8652.8
1736.481	8718.8
1740.893	8461.8
1745.301	8376.8
1749.705	8408.8
1754.105	8003.8
1758.501	7939.8
1762.893	7665.8
1767.28	7563.8
1771.663	7341.8
1776.042	7159.8
1780.417	7133.8
1784.787	6918.8
1789.154	6999.8
1793.516	6887.8
1797.874	7130.8
1802.228	7253.8
1806.578	7401.8
1810.924	7327.8
1815.266	7699.8
1819.603	7341.8
1823.937	7397.8
1828.266	7263.8
1832.591	7215.8
1836.913	7152.8
1841.23	7145.8
1845.543	7098.8
1849.852	7018.8
1854.156	6967.8
1858.457	6876.8
1862.754	6564.8
1867.047	6766.8
1871.335	6549.8
1875.62	6553.8
1879.9	6560.8
1884.177	6721.8
1888.449	6553.8
1892.718	6622.8
1896.982	6411.8
1901.243	6655.8
1905.499	6586.8
1909.752	6543.8
1914	6589.8
1918.245	6463.8
1922.485	6565.8
1926.722	6585.8
1930.954	6569.8
1935.183	6570.8
1939.408	6544.8
1943.628	6580.8
1947.845	6563.8
1952.058	6654.8
1956.267	6521.8
1960.472	6534.8
1964.673	6557.8
1968.87	6659.8
1973.063	6623.8
1977.252	6473.8
1981.438	6440.8
1985.619	6264.8
1989.797	6185.8
1993.971	6139.8
1998.14	5992.8
2002.306	6008.8
2006.469	5977.8
2010.627	5917.8
2014.781	5926.8
2018.932	5955.8
2023.078	5762.8
2027.221	5694.8
2031.36	5758.8
2035.495	5718.8
2039.627	5793.8
2043.754	5646.8
2047.878	5620.8
2051.998	5591.8
2056.114	5597.8
2060.226	5551.8
2064.334	5482.8
2068.439	5386.8
2072.54	5408.8
2076.637	5588.8
2080.73	5469.8
2084.82	5441.8
2088.906	5410.8
2092.988	5413.8
2097.066	5681.8
2101.14	5451.8
2105.211	5502.8
2109.278	5530.8
2113.342	5559.8
2117.401	5605.8
2121.457	5548.8
2125.509	5556.8
2129.558	5323.8
2133.602	5396.8
2137.643	5334.8
2141.681	5206.8
2145.714	5180.8
2149.744	5144.8
2153.77	5166.8
2157.793	5113.8
2161.812	5171.8
2165.827	5140.8
2169.838	4956.8
2173.846	5031.8
2177.851	4975.8
2181.851	4826.8
2185.848	4890.8
2189.841	4825.8
2193.831	4829.8
2197.817	4602.8
2201.799	4606.8
2205.778	4665.8
2209.753	4670.8
2213.725	4646.8
2217.693	4521.8
2221.657	4548.8
2225.618	4440.8
2229.575	4466.8
2233.529	4370.8
2237.479	4445.8
2241.425	4388.8
2245.368	4522.8
2249.307	4381.8
2253.243	4401.8
2257.175	4416.8
2261.104	4272.8
2265.029	4194.8
2268.95	4177.8
2272.868	4081.8
2276.783	4100.8
2280.694	3907.8
2284.601	3921.8
2288.505	3946.8
2292.405	3794.8
2296.302	3879.8
2300.195	3733.8
2304.085	3840.8
2307.971	3781.8
2311.854	3720.8
2315.734	3735.8
2319.609	3687.8
2323.482	3785.8
2327.351	3626.8
2331.216	3692.8
2335.078	3577.8
2338.937	3590.8
2342.792	3674.8
2346.643	3519.8
2350.492	3535.8
2354.336	3517.8
2358.178	3434.8
2362.015	3461.8
2365.85	3668.8
2369.681	3553.8
2373.508	3510.8
2377.333	3414.8
2381.153	3579.8
2384.971	3579.8
2388.785	3503.8
2392.595	3469.8
2396.402	3598.8
2400.206	3668.8
2404.007	3579.8
2407.804	3443.8
2411.597	3373.8
2415.388	3426.8
2419.174	3363.8
2422.958	3342.8
2426.738	3340.8
2430.515	3200.8
2434.289	3372.8
2438.059	3352.8
2441.825	3287.8
2445.589	3067.8
2449.349	3279.8
2453.106	3156.8
2456.859	3151.8
2460.61	3083.8
2464.356	3153.8
2468.1	3116.8
2471.84	3158.8
2475.577	3134.8
2479.311	2995.8
2483.041	3031.8
2486.768	2842.8
2490.492	2716.8
2494.213	3009.8
2497.93	3008.8
2501.644	3020.8
2505.355	2986.8
2509.062	2934.8
2512.766	2942.8
2516.467	2981.8
2520.165	2964.8
2523.859	3003.8
2527.551	2784.8
2531.239	2848.8
2534.923	2930.8
2538.605	2907.8
2542.283	2863.8
2545.958	2900.8
2549.63	2799.8
2553.299	2747.8
2556.964	2815.8
2560.626	2853.8
2564.285	2709.8
2567.941	2825.8
2571.594	2841.8
2575.243	2625.8
2578.89	2794.8
2582.533	2819.8
2586.173	2730.8
2589.809	2747.8
2593.443	2920.8
2597.073	2741.8
2600.701	2607.8
2604.325	2662.8
2607.946	2682.8
2611.564	2605.8
2615.178	2515.8
2618.79	2525.8
2622.398	2640.8
2626.004	2610.8
2629.606	2523.8
2633.205	2676.8
2636.801	2492.8
2640.394	2446.8
2643.983	2488.8
2647.57	2515.8
2651.153	2457.8
2654.734	2317.8
2658.311	2540.8
2661.885	2423.8
2665.456	2335.8
2669.025	2312.8
2672.589	2288.8
2676.151	2222.8
2679.71	2188.8
2683.266	2195.8
2686.819	2169.8
2690.368	2139.8
2693.915	2141.8
2697.458	2224.8
2700.999	2017.8
2704.536	2044.8
2708.071	2098.8
2711.602	2012.8
2715.13	1981.8
2718.656	1994.8
2722.178	1923.8
2725.697	2002.8
2729.214	1688.8
2732.727	1823.8
2736.237	1899.8
2739.744	1905.8
2743.249	1923.8
2746.75	1894.8
2750.248	1986.8
2753.743	2008.8
2757.236	1963.8
2760.725	1922.8
2764.211	2205.8
2767.695	1930.8
2771.175	1937.8
2774.652	1902.8
2778.127	1898.8
2781.598	1927.8
2785.067	1923.8
2788.532	1941.8
2791.995	1893.8
2795.455	1939.8
2798.911	1874.8
2802.365	2045.8
2805.816	1881.8
2809.264	1857.8
2812.709	1999.8
2816.151	1851.8
2819.59	2046.8
2823.026	1997.8
2826.46	2039.8
2829.89	1976.8
2833.318	2238.8
2836.742	2023.8
2840.164	2003.8
2843.583	2062.8
2846.999	2040.8
2850.412	2005.8
2853.822	2146.8
2857.229	1986.8
2860.634	2045.8
2864.035	2128.8
2867.434	2082.8
2870.83	2015.8
2874.223	2181.8
2877.613	2042.8
2881	2200.8
2884.385	2324.8
2887.766	2240.8
2891.145	2161.8
2894.521	2290.8
2897.894	2351.8
2901.264	2044.8
2904.631	2358.8
2907.996	2283.8
2911.358	2261.8
2914.717	2275.8
2918.073	2243.8
2921.426	2263.8
2924.777	2365.8
2928.124	2343.8
2931.469	2264.8
2934.811	2514.8
2938.15	2326.8
2941.487	2400.8
2944.821	2131.8
2948.152	2503.8
2951.48	2475.8
2954.805	2357.8
2958.128	2334.8
2961.447	2407.8
2964.765	2347.8
2968.079	2416.8
2971.39	2323.8
2974.699	2419.8
2978.005	2496.8
2981.308	2453.8
2984.609	2610.8
2987.907	2512.8
2991.202	2628.8
2994.494	2663.8
2997.784	2311.8
3001.07	2641.8
3004.355	2665.8
3007.636	2722.8
3010.915	2744.8
3014.191	2846.8
3017.464	2835.8
3020.734	2771.8
3024.002	2957.8
3027.267	2922.8
3030.53	2947.8
3033.789	3000.8
3037.046	3119.8
3040.301	3135.8
3043.552	3148.8
3046.801	3200.8
3050.048	3126.8
3053.291	3052.8
3056.532	3345.8
3059.771	3491.8
3063.006	3372.8
3066.239	3500.8
3069.469	3551.8
3072.697	3822.8
3075.922	3855.8
3079.144	3901.8
3082.364	3955.8
3085.581	4157.8
3088.795	3947.8
3092.007	4219.8
3095.216	4407.8
3098.423	4607.8
3101.627	4780.8
3104.828	4815.8
3108.026	4852.8
3111.222	4892.8
3114.416	4886.8
3117.607	5087.8
3120.795	5103.8
3123.98	5254.8
3127.163	5432.8
3130.344	5444.8
3133.521	5567.8
3136.696	5685.8
3139.869	5725.8
3143.039	5839.8
3146.206	5844.8
3149.371	5986.8
3152.533	6124.8
3155.693	6226.8
3158.85	6354.8
3162.005	6356.8
3165.157	6489.8
3168.306	6516.8
3171.453	6472.8
3174.597	6649.8
3177.739	6705.8
3180.878	6558.8
3184.014	6592.8
3187.149	6618.8
3190.28	6572.8
3193.409	6510.8
3196.536	6529.8
3199.659	6457.8
3202.781	6499.8
3205.9	6688.8
3209.016	6559.8
3212.13	6479.8
3215.241	6457.8
3218.35	6531.8
3221.456	6565.8
3224.56	6747.8
3227.661	6717.8
3230.76	6754.8
3233.856	6592.8
3236.95	6550.8
3240.041	6666.8
3243.13	6439.8
3246.216	6535.8
3249.3	6343.8
3252.382	6347.8
3255.46	6503.8
3258.537	6398.8
3261.611	6359.8
3264.682	6231.8
3267.751	6128.8
3270.818	6281.8
3273.882	5980.8
3276.943	6042.8
3280.002	5958.8
3283.059	5946.8
3286.113	6007.8
3289.165	5979.8
3292.214	5933.8
3295.261	5760.8
3298.306	5844.8
3301.348	5666.8
3304.387	5639.8
3307.425	5511.8
3310.459	5550.8
3313.492	5367.8
3316.521	5356.8
3319.549	5233.8
3322.574	5179.8
3325.597	5094.8
3328.617	5039.8
3331.635	5035.8
3334.65	5024.8
3337.663	4988.8
3340.674	4869.8
3343.682	4800.8
3346.688	4845.8
3349.691	4843.8
3352.692	4901.8
3355.691	4777.8
3358.687	4841.8
3361.681	4745.8
3364.673	4747.8
3367.662	4673.8
3370.649	4545.8
3373.633	4698.8
3376.615	4650.8
3379.595	4785.8
3382.572	4664.8
3385.547	4497.8
3388.52	4571.8
3391.49	4437.8
3394.458	4397.8
3397.424	4267.8
3400.387	4345.8
3403.348	4007.8
3406.307	4111.8
3409.263	4108.8
3412.217	3965.8
3415.168	3886.8
3418.118	3953.8
3421.065	3873.8
3424.009	3674.8
3426.951	3805.8
3429.891	3602.8
3432.829	3707.8
3435.764	3681.8
3438.697	3649.8
3441.628	3484.8
3444.557	3531.8
3447.483	3510.8
3450.407	3274.8
3453.328	3132.8
3456.247	3325.8
3459.164	3234.8
3462.079	3066.8
3464.991	2969.8
3467.902	2942.8
3470.809	2888.8
3473.715	2775.8
3476.618	2695.8
3479.519	2604.8
3482.418	2719.8
3485.315	2527.8
3488.209	2467.8
3491.101	2416.8
3493.99	2408.8
3496.878	2018.8
3499.763	2126.8
3502.646	2103.8
3505.527	2212.8
3508.405	2036.8
3511.281	2002.8
3514.155	2007.8
3517.027	1934.8
3519.897	2075.8
3522.764	1769.8
3525.629	1830.8
3528.492	1752.8
3531.352	1577.8
3534.211	1535.8
3537.067	1650.8
3539.921	1505.8
3542.773	1468.8
3545.622	1425.8
3548.469	1405.8
3551.315	1356.8
3554.157	1200.8
3556.998	1129.8
3559.837	1073.8
3562.673	1022.8
3565.507	1075.8
3568.339	967.8
3571.169	1074.8
3573.996	927.8
3576.822	954.8
3579.645	1030.8
3582.466	896.8
3585.285	822.8
3588.101	799.8
3590.916	819.8
3593.728	760.8
3596.538	765.8
3599.346	639.8
3602.152	839.8
3604.956	663.8
3607.757	576.8
3610.556	776.8
3613.354	640.8
3616.149	596.8
3618.942	546.8
3621.732	346.8
3624.521	610.8
3627.307	486.8
3630.092	497.8
3632.874	380.8
3635.654	487.8
3638.432	575.8
3641.208	370.8
3643.982	407.8
3646.753	366.8
3649.523	393.8
3652.29	413.8
3655.055	417.8
3657.818	299.8
3660.579	347.8
3663.338	434.8
3666.095	259.8
3668.849	445.8
3671.602	272.8
3674.352	439.8
3677.101	292.8
3679.847	77.8
3682.591	286.8
3685.333	300.8
3688.073	187.8
3690.811	252.8
3693.547	318.8
3696.281	242.8
3699.013	175.8
3701.742	160.8
3704.47	240.8
3707.195	145.8
3709.919	171.8
3712.64	148.8
3715.359	39.8
3718.076	-29.2
3720.792	128.8
3723.505	88.8
3726.216	81.8
3728.925	180.8
3731.632	-13.2
3734.336	216.8
3737.039	131.8
3739.74	101.8
3742.439	390.8
3745.136	105.8
3747.83	46.8
3750.523	118.8
3753.213	11.8
3755.902	118.8
3758.589	185.8
3761.273	176.8
3763.956	-73.2
3766.636	107.8
3769.315	-36.2
3771.991	177.8
3774.665	55.8
3777.338	203.8
3780.008	97.8
3782.677	103.8
3785.343	159.8
3788.007	125.8
3790.67	46.8
3793.33	-15.2
3795.989	74.8
3798.645	59.8
3801.299	174.8
3803.952	28.8
3806.602	13.8
3809.251	64.8
3811.897	54.8
3814.542	109.8
3817.184	19.8
3819.825	109.8
3822.463	-49.2
3825.1	51.8
3827.735	81.8
3830.367	64.8
3832.998	-101.2
3835.627	-50.2
3838.253	4.8
3840.878	36.8
3843.501	-105.2
3846.122	-49.2
3848.741	-96.2
3851.358	2.8
3853.973	206.8
3856.586	25.8
3859.197	-8.2
3861.806	17.8
3864.414	121.8
3867.019	57.8
3869.622	-53.2
3872.224	-115.2
3874.823	83.8
3877.421	83.8
3880.016	99.8
3882.61	237.8
3885.202	157.8
3887.792	150.8
3890.38	13.8
3892.966	59.8
3895.55	27.8
3898.132	55.8
3900.713	-36.2
3903.291	-45.2
3905.868	-60.2
3908.442	-1.2
3911.015	-28.2
3913.586	-0.2
3916.155	79.8
3918.722	34.8
3921.287	56.8
3923.85	-73.2
3926.411	-19.2
3928.971	-58.2
3931.528	8.8
3934.084	-0.2
3936.638	19.8
3939.19	-106.2
3941.74	52.8
3944.288	-43.2
3946.834	-23.2
3949.378	-27.2
3951.921	72.8
3954.462	58.8
3957	-40.2
3959.537	34.8
3962.072	98.8
3964.606	178.8
3967.137	-8.2
3969.667	-15.2
3972.194	7.8
3974.72	23.8
3977.244	61.8
3979.766	29.8
3982.286	120.8
3984.805	-41.2
3987.321	-88.2
3989.836	28.8
3992.349	76.8
3994.86	41.8
3997.369	11.8
3999.877	-12.2
4002.382	4.8
4004.886	-2.2
4007.388	3.8
4009.888	124.8
4012.386	-40.2
4014.883	1.8
4017.377	7.8
4019.87	-91.2
4022.361	65.8
4024.85	69.8
4027.338	5.8
4029.823	-51.2
4032.307	89.8
4034.789	58.8
4037.269	32.8
4039.747	119.8
4042.224	-23.2
4044.699	35.8
4047.172	15.8
4049.643	-47.2
4052.112	115.8
4054.58	28.8
4057.046	36.8
4059.51	75.8
4061.972	-53.2
4064.432	82.8
4066.891	-72.2
4069.348	60.8
4071.803	-77.2
4074.256	-22.2
4076.708	64.8
4079.158	-7.2
4081.606	-91.2
4084.052	90.8
4086.497	-66.2
4088.939	40.8
4091.38	26.8
4093.819	-11.2
4096.257	-1172.2
4098.693	-1196.2
4101.127	-1217.2
4103.559	-1223.2
4105.989	175.8
4108.418	172.8
4110.845	414.8
4113.27	277.8
4115.694	373.8
4118.115	430.8
4120.535	-46.2
4122.954	-88.2
4125.37	-175.2
4127.785	-8.2
4130.198	-38.2
4132.609	-25.2
4135.019	-1253.2
4137.427	-1239.2
4139.833	-1199.2
4142.237	-1046.2
