Data from 2018-2-8_ethanol_RamanShift_03.txt Node
Date: Wed Feb 07 09:19:10 IST 2018
User: aro
Spectrometer: QEPB0276
Trigger mode: 0
Integration Time (sec): 3.000000E1
Scans to average: 1
Electric dark correction enabled: true
Nonlinearity correction enabled: false
Boxcar width: 0
XAxis mode: Raman Shifts
Number of Pixels in Spectrum: 1044
>>>>>Begin Spectral Data<<<<<
160.701	120.8
166.742	178.8
172.777	312.8
178.805	776.8
184.826	1868.8
190.841	3613.8
196.849	5812.8
202.85	7289.8
208.845	7761.8
214.833	7687.8
220.815	7532.8
226.789	7452.8
232.758	7423.8
238.719	7422.8
244.674	7440.8
250.623	7383.8
256.565	7464.8
262.5	7390.8
268.429	7330.8
274.351	7411.8
280.267	7478.8
286.176	7166.8
292.079	7060.8
297.975	6779.8
303.865	6629.8
309.748	6406.8
315.625	6239.8
321.495	6069.8
327.359	5998.8
333.217	5896.8
339.068	5860.8
344.912	5918.8
350.751	5845.8
356.583	5860.8
362.408	5887.8
368.227	5995.8
374.04	6093.8
379.847	6220.8
385.647	6384.8
391.44	6662.8
397.228	6920.8
403.009	7312.8
408.784	7963.8
414.553	8930.8
420.315	10536.8
426.071	12757.8
431.821	15511.8
437.565	17559.8
443.302	17659.8
449.033	16117.8
454.758	13676.8
460.477	11448.8
466.189	9722.8
471.896	8501.8
477.596	7634.8
483.29	7092.8
488.978	6618.8
494.66	6345.8
500.335	6061.8
506.005	5874.8
511.668	5596.8
517.325	5411.8
522.977	5122.8
528.622	5032.8
534.261	4898.8
539.894	4842.8
545.521	4782.8
551.141	4726.8
556.756	4649.8
562.365	4589.8
567.968	4492.8
573.565	4523.8
579.155	4482.8
584.74	4465.8
590.319	4451.8
595.892	4495.8
601.459	4504.8
607.02	4565.8
612.575	4489.8
618.124	4456.8
623.667	4560.8
629.204	4505.8
634.735	4489.8
640.261	4522.8
645.781	4551.8
651.294	4475.8
656.802	4447.8
662.304	4399.8
667.8	4387.8
673.29	4351.8
678.775	4323.8
684.254	4307.8
689.726	4358.8
695.193	4295.8
700.655	4231.8
706.11	4408.8
711.56	4338.8
717.004	4345.8
722.442	4398.8
727.874	4280.8
733.301	4410.8
738.722	4425.8
744.137	4442.8
749.547	4462.8
754.951	4447.8
760.349	4416.8
765.741	4460.8
771.128	4568.8
776.509	4630.8
781.885	4753.8
787.254	4953.8
792.618	5120.8
797.977	5326.8
803.33	5606.8
808.677	5983.8
814.019	6122.8
819.355	6245.8
824.686	6328.8
830.011	6499.8
835.33	6641.8
840.644	7014.8
845.952	7636.8
851.255	8392.8
856.552	9741.8
861.844	11958.8
867.13	16676.8
872.41	26802.8
877.686	46527.8
882.955	52176.8
888.219	51897.8
893.478	51642.8
898.731	52262.8
903.979	38207.8
909.221	19282.8
914.458	13213.8
919.69	10168.8
924.916	8539.8
930.136	7496.8
935.351	6816.8
940.561	6228.8
945.766	5790.8
950.965	5563.8
956.158	5478.8
961.347	5451.8
966.529	5386.8
971.707	5394.8
976.879	5474.8
982.046	5565.8
987.208	5728.8
992.364	5891.8
997.515	6253.8
1002.66	6555.8
1007.801	7135.8
1012.936	7960.8
1018.066	9193.8
1023.19	10791.8
1028.309	13136.8
1033.423	16410.8
1038.532	20659.8
1043.636	25938.8
1048.734	32096.8
1053.827	37779.8
1058.915	39440.8
1063.998	35536.8
1069.075	29065.8
1074.147	24493.8
1079.214	23370.8
1084.276	25063.8
1089.333	29084.8
1094.385	34078.8
1099.431	37623.8
1104.472	36848.8
1109.509	31396.8
1114.54	24803.8
1119.565	20329.8
1124.586	17719.8
1129.602	16049.8
1134.613	13883.8
1139.618	11854.8
1144.619	10031.8
1149.614	8772.8
1154.604	7946.8
1159.589	7345.8
1164.57	6722.8
1169.545	6338.8
1174.515	5903.8
1179.48	5638.8
1184.44	5489.8
1189.395	5352.8
1194.345	5299.8
1199.29	5201.8
1204.23	5215.8
1209.165	5216.8
1214.095	5256.8
1219.021	5276.8
1223.941	5425.8
1228.856	5616.8
1233.766	5896.8
1238.672	6181.8
1243.572	6651.8
1248.467	7138.8
1253.358	7746.8
1258.244	8637.8
1263.124	9972.8
1268	12043.8
1272.871	15088.8
1277.737	18463.8
1282.599	19795.8
1287.455	18310.8
1292.306	14876.8
1297.153	12004.8
1301.995	9867.8
1306.832	8700.8
1311.664	8082.8
1316.491	7774.8
1321.314	7477.8
1326.132	7298.8
1330.945	7267.8
1335.753	7156.8
1340.556	7078.8
1345.354	6986.8
1350.148	7017.8
1354.937	7006.8
1359.722	7094.8
1364.501	7240.8
1369.276	7553.8
1374.046	8013.8
1378.811	8664.8
1383.572	9433.8
1388.327	10148.8
1393.079	10597.8
1397.825	11024.8
1402.567	11497.8
1407.304	12134.8
1412.036	12944.8
1416.764	13912.8
1421.487	15206.8
1426.205	16233.8
1430.919	17723.8
1435.628	19636.8
1440.333	22642.8
1445.032	26995.8
1449.727	33469.8
1454.418	40540.8
1459.104	45133.8
1463.785	44018.8
1468.462	37787.8
1473.134	30515.8
1477.802	25593.8
1482.465	23543.8
1487.123	22375.8
1491.777	20854.8
1496.426	18219.8
1501.071	15199.8
1505.711	12838.8
1510.347	11100.8
1514.978	9973.8
1519.604	9044.8
1524.226	8370.8
1528.844	7967.8
1533.457	7395.8
1538.065	6911.8
1542.669	6589.8
1547.269	6270.8
1551.864	5937.8
1556.454	5643.8
1561.041	5330.8
1565.622	5145.8
1570.199	4736.8
1574.772	4537.8
1579.34	4280.8
1583.904	4160.8
1588.464	4062.8
1593.019	3842.8
1597.569	3809.8
1602.115	3671.8
1606.657	3664.8
1611.195	3675.8
1615.728	3733.8
1620.256	3709.8
1624.78	3653.8
1629.3	3565.8
1633.816	3372.8
1638.327	3216.8
1642.834	3105.8
1647.336	2982.8
1651.834	2908.8
1656.328	2888.8
1660.817	2863.8
1665.302	2882.8
1669.783	2863.8
1674.259	2884.8
1678.732	2792.8
1683.199	2759.8
1687.663	2770.8
1692.122	2744.8
1696.577	2633.8
1701.028	2788.8
1705.474	2684.8
1709.917	2694.8
1714.355	2626.8
1718.788	2619.8
1723.218	2535.8
1727.643	2434.8
1732.064	2464.8
1736.481	2353.8
1740.893	2343.8
1745.301	2244.8
1749.705	2290.8
1754.105	2130.8
1758.501	2136.8
1762.893	2077.8
1767.28	2001.8
1771.663	1913.8
1776.042	1877.8
1780.417	1823.8
1784.787	1782.8
1789.154	1764.8
1793.516	1585.8
1797.874	1770.8
1802.228	1719.8
1806.578	1786.8
1810.924	1743.8
1815.266	1960.8
1819.603	1771.8
1823.937	1831.8
1828.266	1766.8
1832.591	1780.8
1836.913	1773.8
1841.23	1773.8
1845.543	1741.8
1849.852	1712.8
1854.156	1717.8
1858.457	1706.8
1862.754	1678.8
1867.047	1713.8
1871.335	1636.8
1875.62	1691.8
1879.9	1695.8
1884.177	1692.8
1888.449	1719.8
1892.718	1765.8
1896.982	1677.8
1901.243	1728.8
1905.499	1703.8
1909.752	1700.8
1914	1636.8
1918.245	1688.8
1922.485	1612.8
1926.722	1711.8
1930.954	1688.8
1935.183	1637.8
1939.408	1636.8
1943.628	1673.8
1947.845	1624.8
1952.058	1689.8
1956.267	1554.8
1960.472	1591.8
1964.673	1686.8
1968.87	1692.8
1973.063	1729.8
1977.252	1636.8
1981.438	1637.8
1985.619	1572.8
1989.797	1554.8
1993.971	1478.8
1998.14	1463.8
2002.306	1446.8
2006.469	1453.8
2010.627	1397.8
2014.781	1435.8
2018.932	1440.8
2023.078	1392.8
2027.221	1399.8
2031.36	1430.8
2035.495	1413.8
2039.627	1399.8
2043.754	1371.8
2047.878	1369.8
2051.998	1380.8
2056.114	1371.8
2060.226	1447.8
2064.334	1440.8
2068.439	1357.8
2072.54	1368.8
2076.637	1498.8
2080.73	1445.8
2084.82	1479.8
2088.906	1489.8
2092.988	1408.8
2097.066	1554.8
2101.14	1549.8
2105.211	1529.8
2109.278	1495.8
2113.342	1510.8
2117.401	1507.8
2121.457	1461.8
2125.509	1442.8
2129.558	1400.8
2133.602	1472.8
2137.643	1465.8
2141.681	1405.8
2145.714	1426.8
2149.744	1426.8
2153.77	1396.8
2157.793	1345.8
2161.812	1394.8
2165.827	1372.8
2169.838	1417.8
2173.846	1449.8
2177.851	1377.8
2181.851	1421.8
2185.848	1568.8
2189.841	1379.8
2193.831	1393.8
2197.817	1359.8
2201.799	1407.8
2205.778	1379.8
2209.753	1317.8
2213.725	1330.8
2217.693	1402.8
2221.657	1379.8
2225.618	1398.8
2229.575	1364.8
2233.529	1381.8
2237.479	1437.8
2241.425	1472.8
2245.368	1516.8
2249.307	1534.8
2253.243	1609.8
2257.175	1600.8
2261.104	1535.8
2265.029	1482.8
2268.95	1495.8
2272.868	1460.8
2276.783	1475.8
2280.694	1507.8
2284.601	1548.8
2288.505	1539.8
2292.405	1516.8
2296.302	1497.8
2300.195	1459.8
2304.085	1441.8
2307.971	1434.8
2311.854	1323.8
2315.734	1356.8
2319.609	1344.8
2323.482	1331.8
2327.351	1296.8
2331.216	1330.8
2335.078	1346.8
2338.937	1281.8
2342.792	1308.8
2346.643	1269.8
2350.492	1268.8
2354.336	1233.8
2358.178	1246.8
2362.015	1274.8
2365.85	1344.8
2369.681	1250.8
2373.508	1240.8
2377.333	1194.8
2381.153	1272.8
2384.971	1241.8
2388.785	1256.8
2392.595	1262.8
2396.402	1334.8
2400.206	1292.8
2404.007	1340.8
2407.804	1312.8
2411.597	1256.8
2415.388	1290.8
2419.174	1282.8
2422.958	1316.8
2426.738	1289.8
2430.515	1248.8
2434.289	1331.8
2438.059	1352.8
2441.825	1359.8
2445.589	1263.8
2449.349	1308.8
2453.106	1368.8
2456.859	1420.8
2460.61	1397.8
2464.356	1433.8
2468.1	1438.8
2471.84	1416.8
2475.577	1398.8
2479.311	1405.8
2483.041	1438.8
2486.768	1375.8
2490.492	1409.8
2494.213	1388.8
2497.93	1428.8
2501.644	1425.8
2505.355	1447.8
2509.062	1440.8
2512.766	1464.8
2516.467	1550.8
2520.165	1519.8
2523.859	1560.8
2527.551	1500.8
2531.239	1649.8
2534.923	1762.8
2538.605	1913.8
2542.283	1888.8
2545.958	1964.8
2549.63	2023.8
2553.299	1978.8
2556.964	2028.8
2560.626	2028.8
2564.285	1907.8
2567.941	1912.8
2571.594	1925.8
2575.243	1794.8
2578.89	1864.8
2582.533	1889.8
2586.173	1908.8
2589.809	1824.8
2593.443	1963.8
2597.073	1931.8
2600.701	1889.8
2604.325	1857.8
2607.946	1866.8
2611.564	1894.8
2615.178	1895.8
2618.79	1826.8
2622.398	1823.8
2626.004	1912.8
2629.606	1882.8
2633.205	1927.8
2636.801	1915.8
2640.394	1916.8
2643.983	1917.8
2647.57	1964.8
2651.153	1956.8
2654.734	1966.8
2658.311	2090.8
2661.885	2108.8
2665.456	2095.8
2669.025	2209.8
2672.589	2173.8
2676.151	2267.8
2679.71	2361.8
2683.266	2439.8
2686.819	2639.8
2690.368	2874.8
2693.915	3182.8
2697.458	3461.8
2700.999	3782.8
2704.536	4286.8
2708.071	4746.8
2711.602	5228.8
2715.13	5531.8
2718.656	5753.8
2722.178	5833.8
2725.697	5775.8
2729.214	5582.8
2732.727	5390.8
2736.237	5273.8
2739.744	5047.8
2743.249	5013.8
2746.75	5042.8
2750.248	5236.8
2753.743	5360.8
2757.236	5266.8
2760.725	5231.8
2764.211	4977.8
2767.695	4747.8
2771.175	4623.8
2774.652	4513.8
2778.127	4493.8
2781.598	4445.8
2785.067	4455.8
2788.532	4550.8
2791.995	4730.8
2795.455	4871.8
2798.911	5104.8
2802.365	5502.8
2805.816	5826.8
2809.264	6327.8
2812.709	6897.8
2816.151	7449.8
2819.59	8220.8
2823.026	9066.8
2826.46	10009.8
2829.89	11170.8
2833.318	12434.8
2836.742	13366.8
2840.164	14248.8
2843.583	14915.8
2846.999	15644.8
2850.412	16380.8
2853.822	17357.8
2857.229	18666.8
2860.634	20210.8
2864.035	22386.8
2867.434	25172.8
2870.83	28564.8
2874.223	32711.8
2877.613	36575.8
2881	39499.8
2884.385	40931.8
2887.766	41068.8
2891.145	40127.8
2894.521	38683.8
2897.894	37146.8
2901.264	35410.8
2904.631	33993.8
2907.996	32793.8
2911.358	32475.8
2914.717	32894.8
2918.073	34276.8
2921.426	36936.8
2924.777	40918.8
2928.124	45575.8
2931.469	49233.8
2934.811	49605.8
2938.15	48214.8
2941.487	43043.8
2944.821	37859.8
2948.152	33210.8
2951.48	29174.8
2954.805	26149.8
2958.128	23970.8
2961.447	22761.8
2964.765	22224.8
2968.079	22742.8
2971.39	23354.8
2974.699	24062.8
2978.005	23849.8
2981.308	22990.8
2984.609	21168.8
2987.907	18698.8
2991.202	16262.8
2994.494	13995.8
2997.784	12051.8
3001.07	10490.8
3004.355	9186.8
3007.636	8232.8
3010.915	7419.8
3014.191	6783.8
3017.464	6121.8
3020.734	5627.8
3024.002	5163.8
3027.267	4789.8
3030.53	4402.8
3033.789	4144.8
3037.046	3898.8
3040.301	3615.8
3043.552	3449.8
3046.801	3284.8
3050.048	3027.8
3053.291	2842.8
3056.532	2817.8
3059.771	2627.8
3063.006	2452.8
3066.239	2380.8
3069.469	2364.8
3072.697	2262.8
3075.922	2164.8
3079.144	2056.8
3082.364	2065.8
3085.581	2018.8
3088.795	1957.8
3092.007	1810.8
3095.216	1856.8
3098.423	1849.8
3101.627	1746.8
3104.828	1717.8
3108.026	1730.8
3111.222	1639.8
3114.416	1570.8
3117.607	1581.8
3120.795	1515.8
3123.98	1537.8
3127.163	1545.8
3130.344	1540.8
3133.521	1417.8
3136.696	1556.8
3139.869	1438.8
3143.039	1479.8
3146.206	1518.8
3149.371	1447.8
3152.533	1499.8
3155.693	1423.8
3158.85	1469.8
3162.005	1490.8
3165.157	1477.8
3168.306	1501.8
3171.453	1432.8
3174.597	1510.8
3177.739	1465.8
3180.878	1426.8
3184.014	1428.8
3187.149	1454.8
3190.28	1441.8
3193.409	1400.8
3196.536	1459.8
3199.659	1441.8
3202.781	1466.8
3205.9	1527.8
3209.016	1518.8
3212.13	1498.8
3215.241	1542.8
3218.35	1463.8
3221.456	1511.8
3224.56	1550.8
3227.661	1566.8
3230.76	1558.8
3233.856	1598.8
3236.95	1563.8
3240.041	1620.8
3243.13	1554.8
3246.216	1584.8
3249.3	1490.8
3252.382	1583.8
3255.46	1540.8
3258.537	1609.8
3261.611	1500.8
3264.682	1469.8
3267.751	1508.8
3270.818	1532.8
3273.882	1407.8
3276.943	1361.8
3280.002	1402.8
3283.059	1389.8
3286.113	1391.8
3289.165	1498.8
3292.214	1469.8
3295.261	1339.8
3298.306	1401.8
3301.348	1301.8
3304.387	1300.8
3307.425	1325.8
3310.459	1374.8
3313.492	1268.8
3316.521	1319.8
3319.549	1219.8
3322.574	1206.8
3325.597	1243.8
3328.617	1263.8
3331.635	1167.8
3334.65	1196.8
3337.663	1228.8
3340.674	1177.8
3343.682	1117.8
3346.688	1109.8
3349.691	1066.8
3352.692	1148.8
3355.691	1098.8
3358.687	1117.8
3361.681	1123.8
3364.673	1020.8
3367.662	1035.8
3370.649	1113.8
3373.633	1070.8
3376.615	1074.8
3379.595	1083.8
3382.572	1011.8
3385.547	1025.8
3388.52	988.8
3391.49	925.8
3394.458	947.8
3397.424	916.8
3400.387	938.8
3403.348	798.8
3406.307	865.8
3409.263	891.8
3412.217	769.8
3415.168	796.8
3418.118	793.8
3421.065	740.8
3424.009	756.8
3426.951	722.8
3429.891	532.8
3432.829	730.8
3435.764	741.8
3438.697	691.8
3441.628	585.8
3444.557	607.8
3447.483	680.8
3450.407	612.8
3453.328	580.8
3456.247	609.8
3459.164	517.8
3462.079	514.8
3464.991	498.8
3467.902	465.8
3470.809	505.8
3473.715	474.8
3476.618	457.8
3479.519	420.8
3482.418	424.8
3485.315	386.8
3488.209	383.8
3491.101	404.8
3493.99	409.8
3496.878	150.8
3499.763	316.8
3502.646	307.8
3505.527	352.8
3508.405	273.8
3511.281	253.8
3514.155	291.8
3517.027	242.8
3519.897	317.8
3522.764	185.8
3525.629	267.8
3528.492	251.8
3531.352	208.8
3534.211	223.8
3537.067	203.8
3539.921	171.8
3542.773	209.8
3545.622	164.8
3548.469	155.8
3551.315	183.8
3554.157	159.8
3556.998	65.8
3559.837	65.8
3562.673	84.8
3565.507	113.8
3568.339	88.8
3571.169	126.8
3573.996	113.8
3576.822	116.8
3579.645	69.8
3582.466	59.8
3585.285	67.8
3588.101	-3.2
3590.916	54.8
3593.728	-0.2
3596.538	24.8
3599.346	1.8
3602.152	22.8
3604.956	39.8
3607.757	31.8
3610.556	55.8
3613.354	34.8
3616.149	19.8
3618.942	23.8
3621.732	-42.2
3624.521	-26.2
3627.307	1.8
3630.092	-11.2
3632.874	-36.2
3635.654	-23.2
3638.432	22.8
3641.208	-46.2
3643.982	-23.2
3646.753	4.8
3649.523	-27.2
3652.29	2.8
3655.055	45.8
3657.818	-98.2
3660.579	13.8
3663.338	16.8
3666.095	-118.2
3668.849	46.8
3671.602	-2.2
3674.352	-12.2
3677.101	-28.2
3679.847	-91.2
3682.591	-14.2
3685.333	-74.2
3688.073	-66.2
3690.811	-6.2
3693.547	27.8
3696.281	-27.2
3699.013	-57.2
3701.742	-54.2
3704.47	14.8
3707.195	-17.2
3709.919	-44.2
3712.64	-61.2
3715.359	-157.2
3718.076	-83.2
3720.792	-92.2
3723.505	-31.2
3726.216	-2.2
3728.925	-58.2
3731.632	-52.2
3734.336	-16.2
3737.039	-72.2
3739.74	-62.2
3742.439	-55.2
3745.136	-48.2
3747.83	-80.2
3750.523	-54.2
3753.213	-407.2
3755.902	-92.2
3758.589	-42.2
3761.273	-18.2
3763.956	-123.2
3766.636	-63.2
3769.315	-57.2
3771.991	-1.2
3774.665	-102.2
3777.338	-57.2
3780.008	-75.2
3782.677	-93.2
3785.343	16.8
3788.007	132.8
3790.67	-49.2
3793.33	-58.2
3795.989	-45.2
3798.645	-65.2
3801.299	-59.2
3803.952	-118.2
3806.602	-36.2
3809.251	-36.2
3811.897	-39.2
3814.542	-64.2
3817.184	-100.2
3819.825	-53.2
3822.463	-56.2
3825.1	-51.2
3827.735	-23.2
3830.367	-91.2
3832.998	-101.2
3835.627	-119.2
3838.253	-77.2
3840.878	-65.2
3843.501	-114.2
3846.122	-113.2
3848.741	-99.2
3851.358	-51.2
3853.973	-73.2
3856.586	-63.2
3859.197	-128.2
3861.806	-67.2
3864.414	-59.2
3867.019	-113.2
3869.622	-67.2
3872.224	-57.2
3874.823	-43.2
3877.421	-20.2
3880.016	-21.2
3882.61	109.8
3885.202	-11.2
3887.792	-7.2
3890.38	-74.2
3892.966	-35.2
3895.55	-76.2
3898.132	-90.2
3900.713	-146.2
3903.291	-88.2
3905.868	-122.2
3908.442	-105.2
3911.015	-52.2
3913.586	-35.2
3916.155	-100.2
3918.722	-42.2
3921.287	-70.2
3923.85	-73.2
3926.411	-91.2
3928.971	-86.2
3931.528	-90.2
3934.084	-76.2
3936.638	-96.2
3939.19	-121.2
3941.74	-40.2
3944.288	-151.2
3946.834	-71.2
3949.378	-98.2
3951.921	-104.2
3954.462	-116.2
3957	-93.2
3959.537	-13.2
3962.072	-26.2
3964.606	-48.2
3967.137	-84.2
3969.667	-112.2
3972.194	-66.2
3974.72	-67.2
3977.244	-101.2
3979.766	-91.2
3982.286	-57.2
3984.805	-90.2
3987.321	-77.2
3989.836	-83.2
3992.349	-68.2
3994.86	-87.2
3997.369	-46.2
3999.877	-83.2
4002.382	-106.2
4004.886	-97.2
4007.388	-90.2
4009.888	40.8
4012.386	-80.2
4014.883	-68.2
4017.377	-133.2
4019.87	-218.2
4022.361	-84.2
4024.85	-3.2
4027.338	-116.2
4029.823	-91.2
4032.307	-65.2
4034.789	-51.2
4037.269	-81.2
4039.747	-40.2
4042.224	-75.2
4044.699	-120.2
4047.172	-111.2
4049.643	-166.2
4052.112	-62.2
4054.58	-112.2
4057.046	-66.2
4059.51	-59.2
4061.972	-101.2
4064.432	-69.2
4066.891	-99.2
4069.348	-25.2
4071.803	-102.2
4074.256	-133.2
4076.708	-46.2
4079.158	-79.2
4081.606	-102.2
4084.052	-75.2
4086.497	-29.2
4088.939	-78.2
4091.38	-58.2
4093.819	-84.2
4096.257	-352.2
4098.693	-337.2
4101.127	-352.2
4103.559	-369.2
4105.989	147.8
4108.418	61.8
4110.845	144.8
4113.27	25.8
4115.694	66.8
4118.115	74.8
4120.535	-72.2
4122.954	-91.2
4125.37	-154.2
4127.785	-64.2
4130.198	-73.2
4132.609	-115.2
4135.019	-344.2
4137.427	-361.2
4139.833	-349.2
4142.237	-334.2
