Data from 2018-2-8_conc=3_RamanShift_10.txt Node
Date: Wed Feb 07 10:15:40 IST 2018
User: aro
Spectrometer: QEPB0276
Trigger mode: 0
Integration Time (sec): 3.000000E1
Scans to average: 1
Electric dark correction enabled: true
Nonlinearity correction enabled: false
Boxcar width: 0
XAxis mode: Raman Shifts
Number of Pixels in Spectrum: 1044
>>>>>Begin Spectral Data<<<<<
160.701	397.9
166.742	563.9
172.777	1046.9
178.805	2514.9
184.826	5874.9
190.841	11633.9
196.849	18630.9
202.85	23761.9
208.845	25704.9
214.833	25450.9
220.815	25169.9
226.789	24996.9
232.758	24911.9
238.719	24759.9
244.674	24455.9
250.623	24058.9
256.565	23662.9
262.5	23131.9
268.429	22635.9
274.351	22266.9
280.267	22140.9
286.176	21514.9
292.079	21256.9
297.975	21044.9
303.865	20835.9
309.748	20647.9
315.625	20483.9
321.495	20088.9
327.359	20100.9
333.217	20074.9
339.068	19995.9
344.912	20053.9
350.751	19939.9
356.583	19972.9
362.408	19913.9
368.227	19994.9
374.04	20027.9
379.847	20155.9
385.647	20220.9
391.44	20398.9
397.228	20446.9
403.009	20653.9
408.784	20739.9
414.553	20823.9
420.315	20896.9
426.071	20963.9
431.821	20902.9
437.565	20844.9
443.302	20624.9
449.033	20712.9
454.758	20563.9
460.477	20395.9
466.189	20349.9
471.896	20253.9
477.596	20195.9
483.29	20169.9
488.978	20148.9
494.66	20174.9
500.335	20060.9
506.005	20019.9
511.668	19740.9
517.325	19674.9
522.977	19466.9
528.622	19443.9
534.261	19294.9
539.894	19274.9
545.521	19170.9
551.141	19038.9
556.756	18799.9
562.365	18732.9
567.968	18589.9
573.565	18452.9
579.155	18342.9
584.74	18251.9
590.319	18106.9
595.892	18098.9
601.459	18077.9
607.02	18000.9
612.575	18004.9
618.124	17973.9
623.667	18141.9
629.204	17976.9
634.735	17978.9
640.261	17855.9
645.781	17964.9
651.294	17742.9
656.802	17547.9
662.304	17490.9
667.8	17252.9
673.29	17291.9
678.775	17158.9
684.254	17193.9
689.726	17238.9
695.193	16915.9
700.655	17035.9
706.11	17176.9
711.56	17086.9
717.004	17153.9
722.442	17231.9
727.874	17083.9
733.301	17039.9
738.722	17091.9
744.137	16981.9
749.547	16799.9
754.951	16792.9
760.349	16657.9
765.741	16463.9
771.128	16522.9
776.509	16531.9
781.885	16470.9
787.254	16392.9
792.618	16504.9
797.977	16569.9
803.33	16603.9
808.677	16610.9
814.019	16641.9
819.355	16622.9
824.686	16743.9
830.011	16675.9
835.33	16364.9
840.644	16162.9
845.952	16238.9
851.255	16028.9
856.552	15900.9
861.844	15792.9
867.13	15744.9
872.41	15691.9
877.686	15589.9
882.955	15692.9
888.219	15828.9
893.478	15893.9
898.731	15710.9
903.979	15635.9
909.221	15721.9
914.458	15610.9
919.69	15437.9
924.916	15354.9
930.136	15136.9
935.351	15093.9
940.561	14833.9
945.766	14784.9
950.965	14603.9
956.158	14720.9
961.347	14752.9
966.529	14752.9
971.707	14676.9
976.879	14785.9
982.046	14743.9
987.208	14819.9
992.364	14642.9
997.515	14669.9
1002.66	14480.9
1007.801	14537.9
1012.936	14445.9
1018.066	14563.9
1023.19	14326.9
1028.309	14260.9
1033.423	14364.9
1038.532	14460.9
1043.636	14565.9
1048.734	14579.9
1053.827	14667.9
1058.915	14663.9
1063.998	14490.9
1069.075	14347.9
1074.147	14133.9
1079.214	14159.9
1084.276	13845.9
1089.333	13863.9
1094.385	13814.9
1099.431	13817.9
1104.472	13797.9
1109.509	13903.9
1114.54	13972.9
1119.565	14040.9
1124.586	14041.9
1129.602	14045.9
1134.613	13985.9
1139.618	13917.9
1144.619	13625.9
1149.614	13462.9
1154.604	13358.9
1159.589	13276.9
1164.57	13107.9
1169.545	13105.9
1174.515	13125.9
1179.48	13210.9
1184.44	13325.9
1189.395	13432.9
1194.345	13510.9
1199.29	13558.9
1204.23	13702.9
1209.165	13507.9
1214.095	13423.9
1219.021	13246.9
1223.941	13260.9
1228.856	13276.9
1233.766	13117.9
1238.672	13126.9
1243.572	13072.9
1248.467	13149.9
1253.358	13220.9
1258.244	13315.9
1263.124	13138.9
1268	13124.9
1272.871	13009.9
1277.737	13033.9
1282.599	12767.9
1287.455	12668.9
1292.306	12448.9
1297.153	12447.9
1301.995	12298.9
1306.832	12266.9
1311.664	12249.9
1316.491	12330.9
1321.314	12324.9
1326.132	12218.9
1330.945	12160.9
1335.753	12087.9
1340.556	11854.9
1345.354	11770.9
1350.148	11535.9
1354.937	11324.9
1359.722	11350.9
1364.501	11150.9
1369.276	10971.9
1374.046	11027.9
1378.811	11253.9
1383.572	11298.9
1388.327	11005.9
1393.079	11425.9
1397.825	11542.9
1402.567	11505.9
1407.304	11419.9
1412.036	11465.9
1416.764	11387.9
1421.487	11537.9
1426.205	11187.9
1430.919	11033.9
1435.628	10917.9
1440.333	10865.9
1445.032	10697.9
1449.727	10743.9
1454.418	10739.9
1459.104	10721.9
1463.785	10495.9
1468.462	10523.9
1473.134	10504.9
1477.802	10337.9
1482.465	10381.9
1487.123	10094.9
1491.777	10235.9
1496.426	10064.9
1501.071	9873.9
1505.711	9930.9
1510.347	9981.9
1514.978	10131.9
1519.604	10223.9
1524.226	10339.9
1528.844	10499.9
1533.457	10465.9
1538.065	10586.9
1542.669	10616.9
1547.269	10710.9
1551.864	10662.9
1556.454	10797.9
1561.041	10643.9
1565.622	10625.9
1570.199	10419.9
1574.772	10392.9
1579.34	10208.9
1583.904	10335.9
1588.464	10361.9
1593.019	10292.9
1597.569	10462.9
1602.115	10470.9
1606.657	10611.9
1611.195	10567.9
1615.728	10587.9
1620.256	10749.9
1624.78	10789.9
1629.3	10754.9
1633.816	10482.9
1638.327	10533.9
1642.834	10462.9
1647.336	10354.9
1651.834	10326.9
1656.328	10376.9
1660.817	10277.9
1665.302	10166.9
1669.783	10322.9
1674.259	10162.9
1678.732	9884.9
1683.199	9605.9
1687.663	9502.9
1692.122	9078.9
1696.577	8847.9
1701.028	8896.9
1705.474	8793.9
1709.917	8822.9
1714.355	8736.9
1718.788	8584.9
1723.218	8470.9
1727.643	8321.9
1732.064	8112.9
1736.481	8324.9
1740.893	7973.9
1745.301	7875.9
1749.705	7897.9
1754.105	7529.9
1758.501	7494.9
1762.893	7175.9
1767.28	7111.9
1771.663	6937.9
1776.042	6786.9
1780.417	6711.9
1784.787	6469.9
1789.154	6506.9
1793.516	6452.9
1797.874	6690.9
1802.228	6726.9
1806.578	7060.9
1810.924	6905.9
1815.266	7685.9
1819.603	6971.9
1823.937	6946.9
1828.266	6864.9
1832.591	6822.9
1836.913	6740.9
1841.23	6743.9
1845.543	6736.9
1849.852	6529.9
1854.156	6495.9
1858.457	6468.9
1862.754	6208.9
1867.047	6346.9
1871.335	6223.9
1875.62	6191.9
1879.9	6177.9
1884.177	6352.9
1888.449	6160.9
1892.718	6188.9
1896.982	6162.9
1901.243	6295.9
1905.499	6159.9
1909.752	6229.9
1914	6211.9
1918.245	6158.9
1922.485	6061.9
1926.722	6188.9
1930.954	6161.9
1935.183	6174.9
1939.408	6192.9
1943.628	6224.9
1947.845	6251.9
1952.058	6260.9
1956.267	6150.9
1960.472	6118.9
1964.673	6238.9
1968.87	6284.9
1973.063	6208.9
1977.252	6138.9
1981.438	6072.9
1985.619	5955.9
1989.797	5867.9
1993.971	5852.9
1998.14	5698.9
2002.306	5652.9
2006.469	5650.9
2010.627	5659.9
2014.781	5600.9
2018.932	5588.9
2023.078	5486.9
2027.221	5421.9
2031.36	5531.9
2035.495	5493.9
2039.627	5464.9
2043.754	5379.9
2047.878	5323.9
2051.998	5272.9
2056.114	5335.9
2060.226	5334.9
2064.334	5262.9
2068.439	5084.9
2072.54	5118.9
2076.637	5244.9
2080.73	5255.9
2084.82	5160.9
2088.906	5245.9
2092.988	5184.9
2097.066	5336.9
2101.14	5259.9
2105.211	5318.9
2109.278	5282.9
2113.342	5315.9
2117.401	5395.9
2121.457	5299.9
2125.509	5299.9
2129.558	5153.9
2133.602	5149.9
2137.643	5099.9
2141.681	4977.9
2145.714	4962.9
2149.744	4907.9
2153.77	5027.9
2157.793	4901.9
2161.812	4964.9
2165.827	4917.9
2169.838	4745.9
2173.846	4741.9
2177.851	4688.9
2181.851	4628.9
2185.848	4620.9
2189.841	4524.9
2193.831	4642.9
2197.817	4454.9
2201.799	4456.9
2205.778	4528.9
2209.753	4416.9
2213.725	4474.9
2217.693	4340.9
2221.657	4352.9
2225.618	4265.9
2229.575	4313.9
2233.529	4223.9
2237.479	4276.9
2241.425	4221.9
2245.368	4373.9
2249.307	4219.9
2253.243	4223.9
2257.175	4201.9
2261.104	4123.9
2265.029	3988.9
2268.95	4028.9
2272.868	3996.9
2276.783	3984.9
2280.694	3814.9
2284.601	3797.9
2288.505	3747.9
2292.405	3684.9
2296.302	3717.9
2300.195	3553.9
2304.085	3689.9
2307.971	3665.9
2311.854	3621.9
2315.734	3580.9
2319.609	3610.9
2323.482	3644.9
2327.351	3538.9
2331.216	3535.9
2335.078	3491.9
2338.937	3482.9
2342.792	3516.9
2346.643	3419.9
2350.492	3410.9
2354.336	3377.9
2358.178	3382.9
2362.015	3368.9
2365.85	3421.9
2369.681	3414.9
2373.508	3390.9
2377.333	3340.9
2381.153	3407.9
2384.971	3439.9
2388.785	3442.9
2392.595	3396.9
2396.402	3482.9
2400.206	3488.9
2404.007	3439.9
2407.804	3392.9
2411.597	3255.9
2415.388	3319.9
2419.174	3278.9
2422.958	3225.9
2426.738	3209.9
2430.515	3122.9
2434.289	3228.9
2438.059	3209.9
2441.825	3230.9
2445.589	3009.9
2449.349	3157.9
2453.106	3100.9
2456.859	3049.9
2460.61	2986.9
2464.356	3054.9
2468.1	2983.9
2471.84	3053.9
2475.577	3056.9
2479.311	2953.9
2483.041	2939.9
2486.768	2784.9
2490.492	2685.9
2494.213	2876.9
2497.93	2901.9
2501.644	2969.9
2505.355	2901.9
2509.062	2896.9
2512.766	2959.9
2516.467	2920.9
2520.165	2891.9
2523.859	2958.9
2527.551	2628.9
2531.239	2745.9
2534.923	2817.9
2538.605	2857.9
2542.283	2715.9
2545.958	2756.9
2549.63	2675.9
2553.299	2762.9
2556.964	2716.9
2560.626	2736.9
2564.285	2665.9
2567.941	2736.9
2571.594	2762.9
2575.243	2591.9
2578.89	2775.9
2582.533	2756.9
2586.173	2644.9
2589.809	2604.9
2593.443	2849.9
2597.073	2679.9
2600.701	2563.9
2604.325	2657.9
2607.946	2631.9
2611.564	2552.9
2615.178	2507.9
2618.79	2462.9
2622.398	2564.9
2626.004	2551.9
2629.606	2467.9
2633.205	2552.9
2636.801	2430.9
2640.394	2409.9
2643.983	2419.9
2647.57	2455.9
2651.153	2340.9
2654.734	2263.9
2658.311	2447.9
2661.885	2311.9
2665.456	2276.9
2669.025	2247.9
2672.589	2195.9
2676.151	2127.9
2679.71	2164.9
2683.266	2240.9
2686.819	2172.9
2690.368	2095.9
2693.915	2100.9
2697.458	2160.9
2700.999	2008.9
2704.536	2016.9
2708.071	1983.9
2711.602	1963.9
2715.13	1913.9
2718.656	1979.9
2722.178	1880.9
2725.697	1907.9
2729.214	1646.9
2732.727	1845.9
2736.237	1792.9
2739.744	1852.9
2743.249	1865.9
2746.75	1877.9
2750.248	1941.9
2753.743	1931.9
2757.236	1907.9
2760.725	1849.9
2764.211	2149.9
2767.695	1902.9
2771.175	1891.9
2774.652	1856.9
2778.127	1895.9
2781.598	1889.9
2785.067	1916.9
2788.532	1890.9
2791.995	1852.9
2795.455	1870.9
2798.911	1837.9
2802.365	1964.9
2805.816	1900.9
2809.264	1883.9
2812.709	1901.9
2816.151	1821.9
2819.59	1973.9
2823.026	2012.9
2826.46	1960.9
2829.89	1967.9
2833.318	2162.9
2836.742	1992.9
2840.164	2012.9
2843.583	2049.9
2846.999	2053.9
2850.412	2005.9
2853.822	2081.9
2857.229	1966.9
2860.634	2051.9
2864.035	2070.9
2867.434	2056.9
2870.83	1989.9
2874.223	2115.9
2877.613	2039.9
2881	2229.9
2884.385	2296.9
2887.766	2208.9
2891.145	2192.9
2894.521	2294.9
2897.894	2355.9
2901.264	2060.9
2904.631	2334.9
2907.996	2323.9
2911.358	2278.9
2914.717	2286.9
2918.073	2273.9
2921.426	2275.9
2924.777	2409.9
2928.124	2395.9
2931.469	2292.9
2934.811	2528.9
2938.15	2373.9
2941.487	2403.9
2944.821	2339.9
2948.152	2514.9
2951.48	2484.9
2954.805	2438.9
2958.128	2381.9
2961.447	2467.9
2964.765	2358.9
2968.079	2549.9
2971.39	2482.9
2974.699	2470.9
2978.005	2500.9
2981.308	2538.9
2984.609	2644.9
2987.907	2623.9
2991.202	2655.9
2994.494	2734.9
2997.784	2342.9
3001.07	2677.9
3004.355	2700.9
3007.636	2722.9
3010.915	2777.9
3014.191	2892.9
3017.464	2878.9
3020.734	2846.9
3024.002	2972.9
3027.267	2951.9
3030.53	2986.9
3033.789	3068.9
3037.046	3223.9
3040.301	3196.9
3043.552	3225.9
3046.801	3348.9
3050.048	3221.9
3053.291	3205.9
3056.532	3437.9
3059.771	3575.9
3063.006	3458.9
3066.239	3532.9
3069.469	3672.9
3072.697	3905.9
3075.922	3941.9
3079.144	3969.9
3082.364	3992.9
3085.581	4290.9
3088.795	4188.9
3092.007	4281.9
3095.216	4531.9
3098.423	4741.9
3101.627	4914.9
3104.828	4894.9
3108.026	4987.9
3111.222	5042.9
3114.416	5032.9
3117.607	5163.9
3120.795	5327.9
3123.98	5468.9
3127.163	5550.9
3130.344	5578.9
3133.521	5696.9
3136.696	5865.9
3139.869	5918.9
3143.039	6051.9
3146.206	6037.9
3149.371	6200.9
3152.533	6379.9
3155.693	6445.9
3158.85	6596.9
3162.005	6577.9
3165.157	6739.9
3168.306	6701.9
3171.453	6624.9
3174.597	6877.9
3177.739	6885.9
3180.878	6773.9
3184.014	6757.9
3187.149	6814.9
3190.28	6770.9
3193.409	6737.9
3196.536	6673.9
3199.659	6638.9
3202.781	6658.9
3205.9	6790.9
3209.016	6738.9
3212.13	6745.9
3215.241	6671.9
3218.35	6725.9
3221.456	6820.9
3224.56	6952.9
3227.661	6833.9
3230.76	6958.9
3233.856	6860.9
3236.95	6783.9
3240.041	6868.9
3243.13	6691.9
3246.216	6738.9
3249.3	6616.9
3252.382	6588.9
3255.46	6683.9
3258.537	6911.9
3261.611	6568.9
3264.682	6393.9
3267.751	6332.9
3270.818	6379.9
3273.882	6232.9
3276.943	6233.9
3280.002	6135.9
3283.059	6125.9
3286.113	6143.9
3289.165	6162.9
3292.214	6128.9
3295.261	5921.9
3298.306	5998.9
3301.348	5872.9
3304.387	5819.9
3307.425	5688.9
3310.459	5754.9
3313.492	5497.9
3316.521	5473.9
3319.549	5418.9
3322.574	5369.9
3325.597	5209.9
3328.617	5178.9
3331.635	4995.9
3334.65	5152.9
3337.663	5129.9
3340.674	5128.9
3343.682	4996.9
3346.688	4986.9
3349.691	4993.9
3352.692	5060.9
3355.691	4875.9
3358.687	4900.9
3361.681	4896.9
3364.673	4912.9
3367.662	4872.9
3370.649	4805.9
3373.633	4831.9
3376.615	4781.9
3379.595	4911.9
3382.572	4799.9
3385.547	4580.9
3388.52	4695.9
3391.49	4592.9
3394.458	4612.9
3397.424	4411.9
3400.387	4501.9
3403.348	4165.9
3406.307	4206.9
3409.263	4245.9
3412.217	4062.9
3415.168	4055.9
3418.118	4040.9
3421.065	3987.9
3424.009	3806.9
3426.951	3902.9
3429.891	3715.9
3432.829	3778.9
3435.764	3778.9
3438.697	3774.9
3441.628	3604.9
3444.557	3603.9
3447.483	3618.9
3450.407	3376.9
3453.328	3276.9
3456.247	3372.9
3459.164	3327.9
3462.079	3116.9
3464.991	3051.9
3467.902	3144.9
3470.809	2953.9
3473.715	2853.9
3476.618	2798.9
3479.519	2691.9
3482.418	2818.9
3485.315	2609.9
3488.209	2545.9
3491.101	2457.9
3493.99	2473.9
3496.878	2161.9
3499.763	2151.9
3502.646	2171.9
3505.527	2220.9
3508.405	2118.9
3511.281	2003.9
3514.155	1971.9
3517.027	1981.9
3519.897	2059.9
3522.764	1851.9
3525.629	1852.9
3528.492	1742.9
3531.352	1799.9
3534.211	1607.9
3537.067	1636.9
3539.921	1546.9
3542.773	1472.9
3545.622	1429.9
3548.469	1460.9
3551.315	1397.9
3554.157	1285.9
3556.998	1239.9
3559.837	1103.9
3562.673	1021.9
3565.507	1083.9
3568.339	992.9
3571.169	1032.9
3573.996	1020.9
3576.822	976.9
3579.645	981.9
3582.466	933.9
3585.285	809.9
3588.101	767.9
3590.916	836.9
3593.728	766.9
3596.538	857.9
3599.346	711.9
3602.152	774.9
3604.956	718.9
3607.757	543.9
3610.556	744.9
3613.354	638.9
3616.149	606.9
3618.942	591.9
3621.732	362.9
3624.521	582.9
3627.307	490.9
3630.092	470.9
3632.874	392.9
3635.654	502.9
3638.432	519.9
3641.208	446.9
3643.982	394.9
3646.753	391.9
3649.523	420.9
3652.29	429.9
3655.055	384.9
3657.818	308.9
3660.579	385.9
3663.338	447.9
3666.095	238.9
3668.849	404.9
3671.602	275.9
3674.352	410.9
3677.101	253.9
3679.847	171.9
3682.591	306.9
3685.333	266.9
3688.073	176.9
3690.811	256.9
3693.547	246.9
3696.281	243.9
3699.013	101.9
3701.742	189.9
3704.47	218.9
3707.195	187.9
3709.919	129.9
3712.64	113.9
3715.359	40.9
3718.076	-75.1
3720.792	115.9
3723.505	134.9
3726.216	122.9
3728.925	125.9
3731.632	-15.1
3734.336	197.9
3737.039	78.9
3739.74	107.9
3742.439	156.9
3745.136	124.9
3747.83	34.9
3750.523	74.9
3753.213	-245.1
3755.902	79.9
3758.589	155.9
3761.273	133.9
3763.956	-61.1
3766.636	98.9
3769.315	-109.1
3771.991	141.9
3774.665	-98.1
3777.338	168.9
3780.008	86.9
3782.677	-124.1
3785.343	166.9
3788.007	-103.1
3790.67	29.9
3793.33	-13.1
3795.989	120.9
3798.645	17.9
3801.299	120.9
3803.952	18.9
3806.602	-24.1
3809.251	57.9
3811.897	30.9
3814.542	58.9
3817.184	27.9
3819.825	143.9
3822.463	-69.1
3825.1	23.9
3827.735	61.9
3830.367	48.9
3832.998	-96.1
3835.627	-42.1
3838.253	-49.1
3840.878	1.9
3843.501	-112.1
3846.122	2.9
3848.741	-75.1
3851.358	-6.1
3853.973	136.9
3856.586	-37.1
3859.197	-0.1
3861.806	-14.1
3864.414	91.9
3867.019	20.9
3869.622	-64.1
3872.224	-84.1
3874.823	45.9
3877.421	23.9
3880.016	71.9
3882.61	169.9
3885.202	123.9
3887.792	65.9
3890.38	9.9
3892.966	50.9
3895.55	0.9
3898.132	20.9
3900.713	-44.1
3903.291	-23.1
3905.868	-52.1
3908.442	-16.1
3911.015	-21.1
3913.586	-46.1
3916.155	-47.1
3918.722	81.9
3921.287	-47.1
3923.85	-125.1
3926.411	-59.1
3928.971	-64.1
3931.528	-12.1
3934.084	-58.1
3936.638	-47.1
3939.19	-122.1
3941.74	-8.1
3944.288	-60.1
3946.834	1.9
3949.378	-41.1
3951.921	42.9
3954.462	-36.1
3957	-45.1
3959.537	27.9
3962.072	46.9
3964.606	105.9
3967.137	-32.1
3969.667	3.9
3972.194	-23.1
3974.72	4.9
3977.244	49.9
3979.766	68.9
3982.286	97.9
3984.805	-49.1
3987.321	-51.1
3989.836	-62.1
3992.349	23.9
3994.86	7.9
3997.369	-15.1
3999.877	-149.1
4002.382	-25.1
4004.886	47.9
4007.388	28.9
4009.888	100.9
4012.386	-68.1
4014.883	-4.1
4017.377	3.9
4019.87	-69.1
4022.361	37.9
4024.85	35.9
4027.338	-53.1
4029.823	-65.1
4032.307	-42.1
4034.789	55.9
4037.269	78.9
4039.747	64.9
4042.224	-0.1
4044.699	36.9
4047.172	5.9
4049.643	-54.1
4052.112	163.9
4054.58	62.9
4057.046	19.9
4059.51	9.9
4061.972	-21.1
4064.432	82.9
4066.891	-98.1
4069.348	79.9
4071.803	-38.1
4074.256	-59.1
4076.708	-27.1
4079.158	-35.1
4081.606	-109.1
4084.052	6.9
4086.497	-17.1
4088.939	0.9
4091.38	44.9
4093.819	4.9
4096.257	-1103.1
4098.693	-1143.1
4101.127	-1166.1
4103.559	-1172.1
4105.989	169.9
4108.418	165.9
4110.845	344.9
4113.27	253.9
4115.694	368.9
4118.115	357.9
4120.535	-68.1
4122.954	-92.1
4125.37	-139.1
4127.785	27.9
4130.198	-35.1
4132.609	-46.1
4135.019	-1200.1
4137.427	-1176.1
4139.833	-1136.1
4142.237	-1011.1
