Data from 2018-2-8_conc=6_RamanShift_12.txt Node
Date: Wed Feb 07 11:30:40 IST 2018
User: aro
Spectrometer: QEPB0276
Trigger mode: 0
Integration Time (sec): 3.000000E1
Scans to average: 1
Electric dark correction enabled: true
Nonlinearity correction enabled: false
Boxcar width: 0
XAxis mode: Raman Shifts
Number of Pixels in Spectrum: 1044
>>>>>Begin Spectral Data<<<<<
160.701	780.4
166.742	890.4
172.777	1327.4
178.805	2667.4
184.826	5448.4
190.841	10280.4
196.849	16178.4
202.85	20547.4
208.845	22062.4
214.833	21902.4
220.815	21597.4
226.789	21582.4
232.758	21338.4
238.719	21263.4
244.674	21184.4
250.623	20729.4
256.565	20441.4
262.5	20139.4
268.429	19581.4
274.351	19355.4
280.267	19302.4
286.176	18815.4
292.079	18563.4
297.975	18318.4
303.865	18203.4
309.748	18051.4
315.625	17940.4
321.495	17501.4
327.359	17572.4
333.217	17638.4
339.068	17685.4
344.912	17595.4
350.751	17598.4
356.583	17511.4
362.408	17489.4
368.227	17514.4
374.04	17598.4
379.847	17631.4
385.647	17708.4
391.44	18103.4
397.228	17941.4
403.009	18137.4
408.784	18056.4
414.553	18247.4
420.315	18399.4
426.071	18516.4
431.821	18399.4
437.565	18335.4
443.302	18227.4
449.033	18235.4
454.758	18044.4
460.477	17965.4
466.189	17799.4
471.896	17772.4
477.596	17665.4
483.29	17693.4
488.978	17605.4
494.66	17781.4
500.335	17648.4
506.005	17556.4
511.668	17302.4
517.325	17157.4
522.977	16971.4
528.622	16910.4
534.261	16775.4
539.894	16741.4
545.521	16640.4
551.141	16590.4
556.756	16327.4
562.365	16231.4
567.968	16117.4
573.565	15963.4
579.155	15855.4
584.74	15814.4
590.319	15689.4
595.892	15602.4
601.459	15578.4
607.02	15633.4
612.575	15746.4
618.124	15540.4
623.667	15700.4
629.204	15548.4
634.735	15566.4
640.261	15445.4
645.781	15720.4
651.294	15473.4
656.802	15139.4
662.304	15092.4
667.8	14910.4
673.29	14989.4
678.775	14835.4
684.254	14873.4
689.726	15031.4
695.193	14764.4
700.655	14821.4
706.11	14976.4
711.56	14716.4
717.004	14763.4
722.442	15079.4
727.874	14726.4
733.301	14791.4
738.722	14850.4
744.137	14672.4
749.547	14630.4
754.951	14561.4
760.349	14347.4
765.741	14269.4
771.128	14343.4
776.509	14301.4
781.885	14237.4
787.254	14210.4
792.618	14385.4
797.977	14424.4
803.33	14497.4
808.677	14498.4
814.019	14471.4
819.355	14494.4
824.686	14453.4
830.011	14456.4
835.33	14231.4
840.644	13971.4
845.952	14102.4
851.255	13782.4
856.552	13825.4
861.844	13722.4
867.13	13600.4
872.41	13646.4
877.686	13548.4
882.955	13509.4
888.219	13588.4
893.478	13725.4
898.731	13549.4
903.979	13552.4
909.221	13622.4
914.458	13561.4
919.69	13375.4
924.916	13292.4
930.136	13117.4
935.351	13041.4
940.561	12864.4
945.766	12778.4
950.965	12538.4
956.158	12739.4
961.347	12771.4
966.529	12872.4
971.707	12782.4
976.879	12722.4
982.046	12713.4
987.208	12859.4
992.364	12550.4
997.515	12565.4
1002.66	12461.4
1007.801	12668.4
1012.936	12612.4
1018.066	12628.4
1023.19	12421.4
1028.309	12347.4
1033.423	12434.4
1038.532	12481.4
1043.636	12731.4
1048.734	12607.4
1053.827	12816.4
1058.915	12760.4
1063.998	12574.4
1069.075	12472.4
1074.147	12232.4
1079.214	12306.4
1084.276	12022.4
1089.333	11981.4
1094.385	11950.4
1099.431	11983.4
1104.472	11834.4
1109.509	12003.4
1114.54	12064.4
1119.565	12173.4
1124.586	12124.4
1129.602	12060.4
1134.613	12096.4
1139.618	12034.4
1144.619	11799.4
1149.614	11609.4
1154.604	11551.4
1159.589	11543.4
1164.57	11283.4
1169.545	11323.4
1174.515	11299.4
1179.48	11438.4
1184.44	11449.4
1189.395	11574.4
1194.345	11652.4
1199.29	11616.4
1204.23	11757.4
1209.165	11703.4
1214.095	11549.4
1219.021	11435.4
1223.941	11462.4
1228.856	11520.4
1233.766	11470.4
1238.672	11308.4
1243.572	11298.4
1248.467	11306.4
1253.358	11527.4
1258.244	11449.4
1263.124	11377.4
1268	11214.4
1272.871	11334.4
1277.737	11245.4
1282.599	11055.4
1287.455	10947.4
1292.306	10733.4
1297.153	10763.4
1301.995	10552.4
1306.832	10431.4
1311.664	10479.4
1316.491	10620.4
1321.314	10550.4
1326.132	10585.4
1330.945	10483.4
1335.753	10383.4
1340.556	10333.4
1345.354	10215.4
1350.148	9990.4
1354.937	9818.4
1359.722	9940.4
1364.501	9693.4
1369.276	9415.4
1374.046	9453.4
1378.811	9693.4
1383.572	9571.4
1388.327	9325.4
1393.079	9815.4
1397.825	9906.4
1402.567	9866.4
1407.304	9759.4
1412.036	9850.4
1416.764	9712.4
1421.487	10052.4
1426.205	9689.4
1430.919	9545.4
1435.628	9490.4
1440.333	9344.4
1445.032	9307.4
1449.727	9236.4
1454.418	9293.4
1459.104	9231.4
1463.785	9080.4
1468.462	9088.4
1473.134	9128.4
1477.802	8978.4
1482.465	9083.4
1487.123	8567.4
1491.777	8888.4
1496.426	8817.4
1501.071	8532.4
1505.711	8556.4
1510.347	8512.4
1514.978	8620.4
1519.604	8716.4
1524.226	8746.4
1528.844	9042.4
1533.457	8844.4
1538.065	8996.4
1542.669	8990.4
1547.269	9106.4
1551.864	8988.4
1556.454	9243.4
1561.041	9217.4
1565.622	9271.4
1570.199	8967.4
1574.772	8932.4
1579.34	8691.4
1583.904	8900.4
1588.464	8813.4
1593.019	8850.4
1597.569	8997.4
1602.115	8883.4
1606.657	9022.4
1611.195	9005.4
1615.728	9031.4
1620.256	9194.4
1624.78	9302.4
1629.3	9231.4
1633.816	8962.4
1638.327	9008.4
1642.834	8921.4
1647.336	8924.4
1651.834	8810.4
1656.328	8966.4
1660.817	8756.4
1665.302	8907.4
1669.783	8897.4
1674.259	8566.4
1678.732	8436.4
1683.199	8282.4
1687.663	8288.4
1692.122	7890.4
1696.577	7754.4
1701.028	7642.4
1705.474	7537.4
1709.917	7448.4
1714.355	7522.4
1718.788	7372.4
1723.218	7311.4
1727.643	7146.4
1732.064	7032.4
1736.481	7150.4
1740.893	6895.4
1745.301	6789.4
1749.705	6896.4
1754.105	6446.4
1758.501	6472.4
1762.893	6226.4
1767.28	6207.4
1771.663	6069.4
1776.042	5918.4
1780.417	5897.4
1784.787	5579.4
1789.154	5682.4
1793.516	5687.4
1797.874	5692.4
1802.228	5863.4
1806.578	6062.4
1810.924	5877.4
1815.266	6862.4
1819.603	5988.4
1823.937	5995.4
1828.266	5936.4
1832.591	5843.4
1836.913	5755.4
1841.23	5873.4
1845.543	5868.4
1849.852	5683.4
1854.156	5720.4
1858.457	5678.4
1862.754	5446.4
1867.047	5571.4
1871.335	5396.4
1875.62	5433.4
1879.9	5338.4
1884.177	5558.4
1888.449	5357.4
1892.718	5364.4
1896.982	5290.4
1901.243	5545.4
1905.499	5462.4
1909.752	5282.4
1914	5539.4
1918.245	5277.4
1922.485	5247.4
1926.722	5271.4
1930.954	5359.4
1935.183	5368.4
1939.408	5353.4
1943.628	5352.4
1947.845	5364.4
1952.058	5451.4
1956.267	5320.4
1960.472	5254.4
1964.673	5394.4
1968.87	5448.4
1973.063	5476.4
1977.252	5236.4
1981.438	5204.4
1985.619	5128.4
1989.797	5076.4
1993.971	5044.4
1998.14	4901.4
2002.306	4973.4
2006.469	4931.4
2010.627	4942.4
2014.781	4936.4
2018.932	4929.4
2023.078	4664.4
2027.221	4709.4
2031.36	4785.4
2035.495	4799.4
2039.627	4680.4
2043.754	4738.4
2047.878	4664.4
2051.998	4693.4
2056.114	4636.4
2060.226	4631.4
2064.334	4560.4
2068.439	4502.4
2072.54	4504.4
2076.637	4709.4
2080.73	4576.4
2084.82	4469.4
2088.906	4582.4
2092.988	4454.4
2097.066	4675.4
2101.14	4398.4
2105.211	4547.4
2109.278	4546.4
2113.342	4559.4
2117.401	4750.4
2121.457	4636.4
2125.509	4673.4
2129.558	4393.4
2133.602	4489.4
2137.643	4414.4
2141.681	4439.4
2145.714	4353.4
2149.744	4290.4
2153.77	4316.4
2157.793	4290.4
2161.812	4420.4
2165.827	4341.4
2169.838	4036.4
2173.846	4184.4
2177.851	4149.4
2181.851	4076.4
2185.848	4262.4
2189.841	4047.4
2193.831	4135.4
2197.817	3865.4
2201.799	3885.4
2205.778	4006.4
2209.753	4003.4
2213.725	3931.4
2217.693	3918.4
2221.657	3904.4
2225.618	3778.4
2229.575	3813.4
2233.529	3761.4
2237.479	3769.4
2241.425	3756.4
2245.368	3959.4
2249.307	3744.4
2253.243	3771.4
2257.175	3757.4
2261.104	3714.4
2265.029	3549.4
2268.95	3578.4
2272.868	3552.4
2276.783	3582.4
2280.694	3287.4
2284.601	3431.4
2288.505	3396.4
2292.405	3191.4
2296.302	3408.4
2300.195	3282.4
2304.085	3400.4
2307.971	3225.4
2311.854	3329.4
2315.734	3179.4
2319.609	3225.4
2323.482	3406.4
2327.351	3233.4
2331.216	3217.4
2335.078	3139.4
2338.937	3160.4
2342.792	3219.4
2346.643	3146.4
2350.492	3063.4
2354.336	3184.4
2358.178	3047.4
2362.015	3010.4
2365.85	3181.4
2369.681	3133.4
2373.508	3115.4
2377.333	2986.4
2381.153	3191.4
2384.971	3243.4
2388.785	3160.4
2392.595	3170.4
2396.402	3156.4
2400.206	3276.4
2404.007	3246.4
2407.804	3073.4
2411.597	3023.4
2415.388	3151.4
2419.174	3090.4
2422.958	3016.4
2426.738	3026.4
2430.515	2944.4
2434.289	3029.4
2438.059	3053.4
2441.825	3040.4
2445.589	2776.4
2449.349	3060.4
2453.106	2807.4
2456.859	2877.4
2460.61	2790.4
2464.356	2912.4
2468.1	2782.4
2471.84	2872.4
2475.577	2817.4
2479.311	2779.4
2483.041	2699.4
2486.768	2619.4
2490.492	2493.4
2494.213	2722.4
2497.93	2771.4
2501.644	2753.4
2505.355	2799.4
2509.062	2638.4
2512.766	2722.4
2516.467	2714.4
2520.165	2658.4
2523.859	2856.4
2527.551	2478.4
2531.239	2631.4
2534.923	2661.4
2538.605	2687.4
2542.283	2613.4
2545.958	2673.4
2549.63	2516.4
2553.299	2507.4
2556.964	2399.4
2560.626	2648.4
2564.285	2441.4
2567.941	2601.4
2571.594	2545.4
2575.243	2428.4
2578.89	2608.4
2582.533	2593.4
2586.173	2637.4
2589.809	2442.4
2593.443	2822.4
2597.073	2572.4
2600.701	2366.4
2604.325	2428.4
2607.946	2532.4
2611.564	2410.4
2615.178	2307.4
2618.79	2391.4
2622.398	2494.4
2626.004	2468.4
2629.606	2350.4
2633.205	2577.4
2636.801	2412.4
2640.394	2281.4
2643.983	2299.4
2647.57	2400.4
2651.153	2266.4
2654.734	2177.4
2658.311	2494.4
2661.885	2287.4
2665.456	2295.4
2669.025	2217.4
2672.589	2227.4
2676.151	2045.4
2679.71	2072.4
2683.266	2220.4
2686.819	1931.4
2690.368	2089.4
2693.915	2055.4
2697.458	2148.4
2700.999	1958.4
2704.536	1934.4
2708.071	1984.4
2711.602	1945.4
2715.13	1938.4
2718.656	1988.4
2722.178	1877.4
2725.697	2056.4
2729.214	1645.4
2732.727	1839.4
2736.237	1890.4
2739.744	1828.4
2743.249	1921.4
2746.75	1873.4
2750.248	1952.4
2753.743	1940.4
2757.236	1858.4
2760.725	1852.4
2764.211	2192.4
2767.695	1896.4
2771.175	1943.4
2774.652	1879.4
2778.127	1883.4
2781.598	1845.4
2785.067	1928.4
2788.532	1930.4
2791.995	1877.4
2795.455	1893.4
2798.911	1932.4
2802.365	2078.4
2805.816	1851.4
2809.264	1800.4
2812.709	1986.4
2816.151	1910.4
2819.59	2062.4
2823.026	2015.4
2826.46	1988.4
2829.89	1970.4
2833.318	2226.4
2836.742	1901.4
2840.164	1962.4
2843.583	2139.4
2846.999	2071.4
2850.412	2005.4
2853.822	2350.4
2857.229	1904.4
2860.634	2023.4
2864.035	2106.4
2867.434	1992.4
2870.83	1984.4
2874.223	2148.4
2877.613	1956.4
2881	2203.4
2884.385	2270.4
2887.766	2181.4
2891.145	2179.4
2894.521	2262.4
2897.894	2304.4
2901.264	1917.4
2904.631	2263.4
2907.996	2264.4
2911.358	2168.4
2914.717	2350.4
2918.073	2325.4
2921.426	2228.4
2924.777	2371.4
2928.124	2355.4
2931.469	2165.4
2934.811	2571.4
2938.15	2314.4
2941.487	2382.4
2944.821	2002.4
2948.152	2476.4
2951.48	2418.4
2954.805	2423.4
2958.128	2257.4
2961.447	2408.4
2964.765	2245.4
2968.079	2506.4
2971.39	2449.4
2974.699	2457.4
2978.005	2393.4
2981.308	2442.4
2984.609	2668.4
2987.907	2442.4
2991.202	2597.4
2994.494	2591.4
2997.784	2224.4
3001.07	2522.4
3004.355	2579.4
3007.636	2619.4
3010.915	2676.4
3014.191	2694.4
3017.464	2725.4
3020.734	2614.4
3024.002	2786.4
3027.267	2873.4
3030.53	2816.4
3033.789	2901.4
3037.046	3024.4
3040.301	2938.4
3043.552	3063.4
3046.801	3124.4
3050.048	2935.4
3053.291	2878.4
3056.532	3053.4
3059.771	3321.4
3063.006	3285.4
3066.239	3253.4
3069.469	3400.4
3072.697	3638.4
3075.922	3677.4
3079.144	3691.4
3082.364	3592.4
3085.581	3932.4
3088.795	3618.4
3092.007	3912.4
3095.216	4111.4
3098.423	4353.4
3101.627	4406.4
3104.828	4398.4
3108.026	4512.4
3111.222	4521.4
3114.416	4518.4
3117.607	4750.4
3120.795	4807.4
3123.98	4913.4
3127.163	5096.4
3130.344	5058.4
3133.521	5177.4
3136.696	5158.4
3139.869	5249.4
3143.039	5369.4
3146.206	5247.4
3149.371	5479.4
3152.533	5619.4
3155.693	5711.4
3158.85	5751.4
3162.005	5753.4
3165.157	5937.4
3168.306	5936.4
3171.453	5888.4
3174.597	6096.4
3177.739	6109.4
3180.878	5910.4
3184.014	6003.4
3187.149	5999.4
3190.28	5957.4
3193.409	5903.4
3196.536	5889.4
3199.659	5865.4
3202.781	5937.4
3205.9	6094.4
3209.016	5955.4
3212.13	5907.4
3215.241	6017.4
3218.35	5900.4
3221.456	6026.4
3224.56	6167.4
3227.661	6069.4
3230.76	6185.4
3233.856	6013.4
3236.95	5990.4
3240.041	6150.4
3243.13	5823.4
3246.216	5959.4
3249.3	5736.4
3252.382	5782.4
3255.46	5938.4
3258.537	5292.4
3261.611	5883.4
3264.682	5694.4
3267.751	5640.4
3270.818	5782.4
3273.882	5525.4
3276.943	5468.4
3280.002	5378.4
3283.059	5358.4
3286.113	5410.4
3289.165	5554.4
3292.214	5385.4
3295.261	5276.4
3298.306	5379.4
3301.348	5173.4
3304.387	5223.4
3307.425	5088.4
3310.459	5141.4
3313.492	4907.4
3316.521	4865.4
3319.549	4787.4
3322.574	4752.4
3325.597	4658.4
3328.617	4722.4
3331.635	4622.4
3334.65	4694.4
3337.663	4575.4
3340.674	4611.4
3343.682	4448.4
3346.688	4548.4
3349.691	4515.4
3352.692	4637.4
3355.691	4361.4
3358.687	4455.4
3361.681	4382.4
3364.673	4417.4
3367.662	4324.4
3370.649	4234.4
3373.633	4364.4
3376.615	4186.4
3379.595	4461.4
3382.572	4245.4
3385.547	4230.4
3388.52	4265.4
3391.49	4146.4
3394.458	4100.4
3397.424	3959.4
3400.387	4125.4
3403.348	3764.4
3406.307	3905.4
3409.263	3945.4
3412.217	3714.4
3415.168	3843.4
3418.118	3692.4
3421.065	3631.4
3424.009	3459.4
3426.951	3622.4
3429.891	3593.4
3432.829	3537.4
3435.764	3507.4
3438.697	3551.4
3441.628	3213.4
3444.557	3402.4
3447.483	3413.4
3450.407	3135.4
3453.328	3013.4
3456.247	3183.4
3459.164	3249.4
3462.079	2894.4
3464.991	2943.4
3467.902	2875.4
3470.809	2836.4
3473.715	2710.4
3476.618	2632.4
3479.519	2530.4
3482.418	2803.4
3485.315	2578.4
3488.209	2475.4
3491.101	2259.4
3493.99	2535.4
3496.878	2130.4
3499.763	2195.4
3502.646	2060.4
3505.527	2250.4
3508.405	2151.4
3511.281	2032.4
3514.155	2056.4
3517.027	2078.4
3519.897	2133.4
3522.764	1919.4
3525.629	2000.4
3528.492	1836.4
3531.352	1691.4
3534.211	1695.4
3537.067	1760.4
3539.921	1722.4
3542.773	1601.4
3545.622	1611.4
3548.469	1685.4
3551.315	1567.4
3554.157	1443.4
3556.998	1463.4
3559.837	1272.4
3562.673	1220.4
3565.507	1361.4
3568.339	1201.4
3571.169	1303.4
3573.996	1264.4
3576.822	1068.4
3579.645	1191.4
3582.466	1170.4
3585.285	1084.4
3588.101	1031.4
3590.916	1165.4
3593.728	1018.4
3596.538	1100.4
3599.346	972.4
3602.152	1049.4
3604.956	1037.4
3607.757	826.4
3610.556	1031.4
3613.354	922.4
3616.149	876.4
3618.942	854.4
3621.732	648.4
3624.521	888.4
3627.307	858.4
3630.092	682.4
3632.874	661.4
3635.654	838.4
3638.432	936.4
3641.208	780.4
3643.982	766.4
3646.753	685.4
3649.523	823.4
3652.29	762.4
3655.055	728.4
3657.818	576.4
3660.579	646.4
3663.338	862.4
3666.095	568.4
3668.849	749.4
3671.602	572.4
3674.352	851.4
3677.101	624.4
3679.847	450.4
3682.591	679.4
3685.333	680.4
3688.073	553.4
3690.811	648.4
3693.547	585.4
3696.281	572.4
3699.013	552.4
3701.742	509.4
3704.47	702.4
3707.195	496.4
3709.919	472.4
3712.64	559.4
3715.359	463.4
3718.076	233.4
3720.792	557.4
3723.505	502.4
3726.216	416.4
3728.925	590.4
3731.632	385.4
3734.336	585.4
3737.039	479.4
3739.74	517.4
3742.439	880.4
3745.136	479.4
3747.83	433.4
3750.523	420.4
3753.213	591.4
3755.902	454.4
3758.589	597.4
3761.273	557.4
3763.956	298.4
3766.636	557.4
3769.315	251.4
3771.991	547.4
3774.665	437.4
3777.338	581.4
3780.008	533.4
3782.677	276.4
3785.343	590.4
3788.007	761.4
3790.67	433.4
3793.33	412.4
3795.989	490.4
3798.645	366.4
3801.299	618.4
3803.952	379.4
3806.602	391.4
3809.251	379.4
3811.897	497.4
3814.542	438.4
3817.184	472.4
3819.825	533.4
3822.463	131.4
3825.1	418.4
3827.735	448.4
3830.367	475.4
3832.998	275.4
3835.627	339.4
3838.253	373.4
3840.878	279.4
3843.501	242.4
3846.122	341.4
3848.741	284.4
3851.358	395.4
3853.973	584.4
3856.586	405.4
3859.197	334.4
3861.806	389.4
3864.414	514.4
3867.019	438.4
3869.622	339.4
3872.224	351.4
3874.823	528.4
3877.421	485.4
3880.016	518.4
3882.61	643.4
3885.202	575.4
3887.792	556.4
3890.38	343.4
3892.966	487.4
3895.55	465.4
3898.132	437.4
3900.713	342.4
3903.291	428.4
3905.868	561.4
3908.442	335.4
3911.015	368.4
3913.586	435.4
3916.155	343.4
3918.722	507.4
3921.287	436.4
3923.85	205.4
3926.411	365.4
3928.971	326.4
3931.528	374.4
3934.084	416.4
3936.638	435.4
3939.19	333.4
3941.74	433.4
3944.288	393.4
3946.834	491.4
3949.378	331.4
3951.921	552.4
3954.462	377.4
3957	372.4
3959.537	405.4
3962.072	565.4
3964.606	576.4
3967.137	274.4
3969.667	376.4
3972.194	439.4
3974.72	442.4
3977.244	498.4
3979.766	360.4
3982.286	558.4
3984.805	347.4
3987.321	259.4
3989.836	375.4
3992.349	452.4
3994.86	429.4
3997.369	397.4
3999.877	347.4
4002.382	414.4
4004.886	399.4
4007.388	416.4
4009.888	514.4
4012.386	357.4
4014.883	387.4
4017.377	403.4
4019.87	287.4
4022.361	542.4
4024.85	497.4
4027.338	482.4
4029.823	358.4
4032.307	398.4
4034.789	456.4
4037.269	455.4
4039.747	467.4
4042.224	313.4
4044.699	481.4
4047.172	445.4
4049.643	323.4
4052.112	468.4
4054.58	471.4
4057.046	412.4
4059.51	467.4
4061.972	385.4
4064.432	563.4
4066.891	331.4
4069.348	430.4
4071.803	353.4
4074.256	385.4
4076.708	381.4
4079.158	439.4
4081.606	286.4
4084.052	425.4
4086.497	338.4
4088.939	487.4
4091.38	478.4
4093.819	362.4
4096.257	-1364.6
4098.693	-1450.6
4101.127	-1474.6
4103.559	-1503.6
4105.989	558.4
4108.418	568.4
4110.845	832.4
4113.27	590.4
4115.694	707.4
4118.115	795.4
4120.535	329.4
4122.954	220.4
4125.37	200.4
4127.785	388.4
4130.198	384.4
4132.609	306.4
4135.019	-1582.6
4137.427	-1457.6
4139.833	-1441.6
4142.237	-1183.6
