Data from 2018-2-8_conc=6_RamanShift_09.txt Node
Date: Wed Feb 07 11:28:10 IST 2018
User: aro
Spectrometer: QEPB0276
Trigger mode: 0
Integration Time (sec): 3.000000E1
Scans to average: 1
Electric dark correction enabled: true
Nonlinearity correction enabled: false
Boxcar width: 0
XAxis mode: Raman Shifts
Number of Pixels in Spectrum: 1044
>>>>>Begin Spectral Data<<<<<
160.701	756.9
166.742	883.9
172.777	1324.9
178.805	2737.9
184.826	5643.9
190.841	10597.9
196.849	16725.9
202.85	21205.9
208.845	22915.9
214.833	22819.9
220.815	22573.9
226.789	22599.9
232.758	22431.9
238.719	22465.9
244.674	22365.9
250.623	22035.9
256.565	21557.9
262.5	21393.9
268.429	20787.9
274.351	20662.9
280.267	20650.9
286.176	20203.9
292.079	19856.9
297.975	19643.9
303.865	19536.9
309.748	19459.9
315.625	19360.9
321.495	18883.9
327.359	18960.9
333.217	18998.9
339.068	19020.9
344.912	19039.9
350.751	18960.9
356.583	18750.9
362.408	18845.9
368.227	18890.9
374.04	19053.9
379.847	19038.9
385.647	19179.9
391.44	19463.9
397.228	19364.9
403.009	19546.9
408.784	19469.9
414.553	19732.9
420.315	19802.9
426.071	19907.9
431.821	19792.9
437.565	19791.9
443.302	19594.9
449.033	19541.9
454.758	19482.9
460.477	19433.9
466.189	19248.9
471.896	19212.9
477.596	18993.9
483.29	19142.9
488.978	19098.9
494.66	19135.9
500.335	19018.9
506.005	19028.9
511.668	18695.9
517.325	18582.9
522.977	18356.9
528.622	18392.9
534.261	18220.9
539.894	18175.9
545.521	18091.9
551.141	17929.9
556.756	17799.9
562.365	17694.9
567.968	17609.9
573.565	17401.9
579.155	17294.9
584.74	17215.9
590.319	17067.9
595.892	16924.9
601.459	16953.9
607.02	17036.9
612.575	17118.9
618.124	16838.9
623.667	17096.9
629.204	16939.9
634.735	16964.9
640.261	16818.9
645.781	17139.9
651.294	16830.9
656.802	16544.9
662.304	16471.9
667.8	16234.9
673.29	16339.9
678.775	16134.9
684.254	16164.9
689.726	16317.9
695.193	16115.9
700.655	16108.9
706.11	16263.9
711.56	16100.9
717.004	16159.9
722.442	16426.9
727.874	16108.9
733.301	16058.9
738.722	16182.9
744.137	15978.9
749.547	15881.9
754.951	15899.9
760.349	15641.9
765.741	15545.9
771.128	15627.9
776.509	15633.9
781.885	15509.9
787.254	15576.9
792.618	15686.9
797.977	15667.9
803.33	15766.9
808.677	15828.9
814.019	15706.9
819.355	15750.9
824.686	15769.9
830.011	15758.9
835.33	15507.9
840.644	15302.9
845.952	15451.9
851.255	15126.9
856.552	15029.9
861.844	14962.9
867.13	14883.9
872.41	14849.9
877.686	14778.9
882.955	14762.9
888.219	14941.9
893.478	14927.9
898.731	14792.9
903.979	14823.9
909.221	14881.9
914.458	14818.9
919.69	14635.9
924.916	14591.9
930.136	14297.9
935.351	14232.9
940.561	13982.9
945.766	14035.9
950.965	13658.9
956.158	13925.9
961.347	13966.9
966.529	13972.9
971.707	13883.9
976.879	13874.9
982.046	13921.9
987.208	14050.9
992.364	13833.9
997.515	13783.9
1002.66	13613.9
1007.801	13816.9
1012.936	13777.9
1018.066	13814.9
1023.19	13651.9
1028.309	13413.9
1033.423	13616.9
1038.532	13673.9
1043.636	13912.9
1048.734	13786.9
1053.827	13999.9
1058.915	14016.9
1063.998	13739.9
1069.075	13591.9
1074.147	13324.9
1079.214	13441.9
1084.276	13190.9
1089.333	13114.9
1094.385	12947.9
1099.431	13099.9
1104.472	12952.9
1109.509	13140.9
1114.54	13216.9
1119.565	13282.9
1124.586	13221.9
1129.602	13202.9
1134.613	13213.9
1139.618	13167.9
1144.619	12926.9
1149.614	12706.9
1154.604	12660.9
1159.589	12642.9
1164.57	12325.9
1169.545	12343.9
1174.515	12400.9
1179.48	12542.9
1184.44	12526.9
1189.395	12670.9
1194.345	12738.9
1199.29	12636.9
1204.23	12876.9
1209.165	12742.9
1214.095	12646.9
1219.021	12514.9
1223.941	12506.9
1228.856	12507.9
1233.766	12459.9
1238.672	12361.9
1243.572	12310.9
1248.467	12379.9
1253.358	12532.9
1258.244	12568.9
1263.124	12381.9
1268	12263.9
1272.871	12377.9
1277.737	12285.9
1282.599	12107.9
1287.455	11934.9
1292.306	11707.9
1297.153	11834.9
1301.995	11523.9
1306.832	11533.9
1311.664	11475.9
1316.491	11564.9
1321.314	11520.9
1326.132	11623.9
1330.945	11453.9
1335.753	11346.9
1340.556	11270.9
1345.354	11265.9
1350.148	10871.9
1354.937	10812.9
1359.722	10792.9
1364.501	10517.9
1369.276	10249.9
1374.046	10259.9
1378.811	10462.9
1383.572	10365.9
1388.327	10145.9
1393.079	10630.9
1397.825	10825.9
1402.567	10671.9
1407.304	10628.9
1412.036	10793.9
1416.764	10581.9
1421.487	10858.9
1426.205	10573.9
1430.919	10338.9
1435.628	10340.9
1440.333	10260.9
1445.032	10149.9
1449.727	9951.9
1454.418	10045.9
1459.104	10052.9
1463.785	9955.9
1468.462	9902.9
1473.134	9899.9
1477.802	9723.9
1482.465	9920.9
1487.123	9315.9
1491.777	9676.9
1496.426	9528.9
1501.071	9282.9
1505.711	9274.9
1510.347	9237.9
1514.978	9299.9
1519.604	9413.9
1524.226	9379.9
1528.844	9814.9
1533.457	9521.9
1538.065	9721.9
1542.669	9751.9
1547.269	9832.9
1551.864	9742.9
1556.454	10053.9
1561.041	9963.9
1565.622	9957.9
1570.199	9724.9
1574.772	9639.9
1579.34	9416.9
1583.904	9557.9
1588.464	9548.9
1593.019	9515.9
1597.569	9680.9
1602.115	9555.9
1606.657	9709.9
1611.195	9699.9
1615.728	9738.9
1620.256	9886.9
1624.78	9969.9
1629.3	9872.9
1633.816	9688.9
1638.327	9725.9
1642.834	9537.9
1647.336	9635.9
1651.834	9483.9
1656.328	9546.9
1660.817	9419.9
1665.302	9472.9
1669.783	9532.9
1674.259	9258.9
1678.732	9065.9
1683.199	8862.9
1687.663	8847.9
1692.122	8380.9
1696.577	8215.9
1701.028	8180.9
1705.474	8091.9
1709.917	7970.9
1714.355	7965.9
1718.788	7852.9
1723.218	7789.9
1727.643	7700.9
1732.064	7533.9
1736.481	7663.9
1740.893	7384.9
1745.301	7247.9
1749.705	7433.9
1754.105	6979.9
1758.501	6995.9
1762.893	6717.9
1767.28	6706.9
1771.663	6503.9
1776.042	6375.9
1780.417	6328.9
1784.787	6028.9
1789.154	6084.9
1793.516	6210.9
1797.874	6122.9
1802.228	6295.9
1806.578	6486.9
1810.924	6281.9
1815.266	7463.9
1819.603	6408.9
1823.937	6454.9
1828.266	6380.9
1832.591	6395.9
1836.913	6294.9
1841.23	6355.9
1845.543	6373.9
1849.852	6127.9
1854.156	6199.9
1858.457	6088.9
1862.754	5867.9
1867.047	5973.9
1871.335	5766.9
1875.62	5781.9
1879.9	5783.9
1884.177	5987.9
1888.449	5764.9
1892.718	5814.9
1896.982	5685.9
1901.243	5929.9
1905.499	5758.9
1909.752	5658.9
1914	5888.9
1918.245	5670.9
1922.485	5672.9
1926.722	5684.9
1930.954	5774.9
1935.183	5728.9
1939.408	5692.9
1943.628	5724.9
1947.845	5749.9
1952.058	5801.9
1956.267	5682.9
1960.472	5686.9
1964.673	5705.9
1968.87	5815.9
1973.063	5768.9
1977.252	5610.9
1981.438	5638.9
1985.619	5492.9
1989.797	5422.9
1993.971	5404.9
1998.14	5241.9
2002.306	5279.9
2006.469	5271.9
2010.627	5277.9
2014.781	5248.9
2018.932	5285.9
2023.078	5008.9
2027.221	5034.9
2031.36	5090.9
2035.495	5155.9
2039.627	5030.9
2043.754	5041.9
2047.878	4947.9
2051.998	4943.9
2056.114	4960.9
2060.226	4958.9
2064.334	4825.9
2068.439	4696.9
2072.54	4739.9
2076.637	5015.9
2080.73	4833.9
2084.82	4765.9
2088.906	4905.9
2092.988	4751.9
2097.066	5026.9
2101.14	4725.9
2105.211	4832.9
2109.278	4929.9
2113.342	4827.9
2117.401	5018.9
2121.457	4914.9
2125.509	4854.9
2129.558	4666.9
2133.602	4770.9
2137.643	4673.9
2141.681	4609.9
2145.714	4670.9
2149.744	4553.9
2153.77	4614.9
2157.793	4551.9
2161.812	4709.9
2165.827	4647.9
2169.838	4296.9
2173.846	4449.9
2177.851	4426.9
2181.851	4285.9
2185.848	4452.9
2189.841	4283.9
2193.831	4398.9
2197.817	4124.9
2201.799	4165.9
2205.778	4206.9
2209.753	4275.9
2213.725	4140.9
2217.693	4127.9
2221.657	4160.9
2225.618	4001.9
2229.575	4095.9
2233.529	3938.9
2237.479	4033.9
2241.425	4011.9
2245.368	4127.9
2249.307	4016.9
2253.243	3966.9
2257.175	3972.9
2261.104	3858.9
2265.029	3785.9
2268.95	3807.9
2272.868	3770.9
2276.783	3812.9
2280.694	3562.9
2284.601	3558.9
2288.505	3571.9
2292.405	3445.9
2296.302	3622.9
2300.195	3392.9
2304.085	3660.9
2307.971	3422.9
2311.854	3542.9
2315.734	3353.9
2319.609	3440.9
2323.482	3650.9
2327.351	3420.9
2331.216	3336.9
2335.078	3357.9
2338.937	3428.9
2342.792	3402.9
2346.643	3338.9
2350.492	3296.9
2354.336	3339.9
2358.178	3307.9
2362.015	3263.9
2365.85	3365.9
2369.681	3371.9
2373.508	3331.9
2377.333	3173.9
2381.153	3388.9
2384.971	3378.9
2388.785	3403.9
2392.595	3424.9
2396.402	3387.9
2400.206	3471.9
2404.007	3422.9
2407.804	3338.9
2411.597	3211.9
2415.388	3373.9
2419.174	3303.9
2422.958	3243.9
2426.738	3229.9
2430.515	3166.9
2434.289	3264.9
2438.059	3261.9
2441.825	3238.9
2445.589	2952.9
2449.349	3260.9
2453.106	3058.9
2456.859	3029.9
2460.61	2946.9
2464.356	3105.9
2468.1	2996.9
2471.84	3056.9
2475.577	3041.9
2479.311	2934.9
2483.041	2911.9
2486.768	2735.9
2490.492	2635.9
2494.213	2935.9
2497.93	2945.9
2501.644	2976.9
2505.355	3019.9
2509.062	2794.9
2512.766	2910.9
2516.467	2883.9
2520.165	2809.9
2523.859	2996.9
2527.551	2606.9
2531.239	2821.9
2534.923	2879.9
2538.605	2840.9
2542.283	2763.9
2545.958	2835.9
2549.63	2681.9
2553.299	2679.9
2556.964	2550.9
2560.626	2773.9
2564.285	2638.9
2567.941	2743.9
2571.594	2691.9
2575.243	2569.9
2578.89	2743.9
2582.533	2760.9
2586.173	2702.9
2589.809	2675.9
2593.443	2954.9
2597.073	2756.9
2600.701	2540.9
2604.325	2614.9
2607.946	2642.9
2611.564	2579.9
2615.178	2395.9
2618.79	2550.9
2622.398	2669.9
2626.004	2573.9
2629.606	2487.9
2633.205	2686.9
2636.801	2503.9
2640.394	2417.9
2643.983	2457.9
2647.57	2484.9
2651.153	2405.9
2654.734	2290.9
2658.311	2637.9
2661.885	2407.9
2665.456	2340.9
2669.025	2396.9
2672.589	2344.9
2676.151	2163.9
2679.71	2187.9
2683.266	2355.9
2686.819	2014.9
2690.368	2217.9
2693.915	2137.9
2697.458	2251.9
2700.999	2082.9
2704.536	2071.9
2708.071	2086.9
2711.602	2053.9
2715.13	2059.9
2718.656	2179.9
2722.178	1981.9
2725.697	2074.9
2729.214	1765.9
2732.727	1955.9
2736.237	1970.9
2739.744	1891.9
2743.249	1998.9
2746.75	1999.9
2750.248	2025.9
2753.743	2037.9
2757.236	1979.9
2760.725	1917.9
2764.211	2200.9
2767.695	1963.9
2771.175	1957.9
2774.652	1950.9
2778.127	1992.9
2781.598	1940.9
2785.067	1998.9
2788.532	1959.9
2791.995	1977.9
2795.455	1985.9
2798.911	1907.9
2802.365	2147.9
2805.816	1941.9
2809.264	1864.9
2812.709	2051.9
2816.151	1977.9
2819.59	2115.9
2823.026	2047.9
2826.46	2120.9
2829.89	1987.9
2833.318	2311.9
2836.742	1996.9
2840.164	1991.9
2843.583	2188.9
2846.999	2146.9
2850.412	2044.9
2853.822	2226.9
2857.229	1952.9
2860.634	2060.9
2864.035	2155.9
2867.434	2042.9
2870.83	2093.9
2874.223	2143.9
2877.613	2126.9
2881	2286.9
2884.385	2332.9
2887.766	2231.9
2891.145	2236.9
2894.521	2387.9
2897.894	2342.9
2901.264	2019.9
2904.631	2279.9
2907.996	2270.9
2911.358	2236.9
2914.717	2335.9
2918.073	2306.9
2921.426	2333.9
2924.777	2477.9
2928.124	2370.9
2931.469	2273.9
2934.811	2591.9
2938.15	2372.9
2941.487	2433.9
2944.821	2076.9
2948.152	2451.9
2951.48	2468.9
2954.805	2490.9
2958.128	2308.9
2961.447	2407.9
2964.765	2326.9
2968.079	2539.9
2971.39	2407.9
2974.699	2433.9
2978.005	2443.9
2981.308	2482.9
2984.609	2653.9
2987.907	2454.9
2991.202	2546.9
2994.494	2621.9
2997.784	2235.9
3001.07	2556.9
3004.355	2613.9
3007.636	2638.9
3010.915	2700.9
3014.191	2712.9
3017.464	2743.9
3020.734	2667.9
3024.002	2808.9
3027.267	2897.9
3030.53	2858.9
3033.789	2905.9
3037.046	3044.9
3040.301	3060.9
3043.552	3113.9
3046.801	3207.9
3050.048	3012.9
3053.291	2899.9
3056.532	3133.9
3059.771	3330.9
3063.006	3227.9
3066.239	3276.9
3069.469	3391.9
3072.697	3659.9
3075.922	3704.9
3079.144	3647.9
3082.364	3643.9
3085.581	3900.9
3088.795	3632.9
3092.007	3896.9
3095.216	4091.9
3098.423	4348.9
3101.627	4416.9
3104.828	4385.9
3108.026	4513.9
3111.222	4584.9
3114.416	4479.9
3117.607	4730.9
3120.795	4814.9
3123.98	4920.9
3127.163	5019.9
3130.344	5051.9
3133.521	5143.9
3136.696	5044.9
3139.869	5288.9
3143.039	5356.9
3146.206	5253.9
3149.371	5520.9
3152.533	5642.9
3155.693	5681.9
3158.85	5769.9
3162.005	5710.9
3165.157	5845.9
3168.306	5893.9
3171.453	5765.9
3174.597	6077.9
3177.739	6067.9
3180.878	5910.9
3184.014	5938.9
3187.149	6004.9
3190.28	5903.9
3193.409	5855.9
3196.536	5892.9
3199.659	5769.9
3202.781	5877.9
3205.9	6054.9
3209.016	5870.9
3212.13	5839.9
3215.241	5830.9
3218.35	5873.9
3221.456	5973.9
3224.56	6049.9
3227.661	5976.9
3230.76	6094.9
3233.856	6021.9
3236.95	5939.9
3240.041	6054.9
3243.13	5745.9
3246.216	5873.9
3249.3	5716.9
3252.382	5728.9
3255.46	5863.9
3258.537	6329.9
3261.611	5795.9
3264.682	5622.9
3267.751	5566.9
3270.818	5738.9
3273.882	5510.9
3276.943	5398.9
3280.002	5336.9
3283.059	5395.9
3286.113	5399.9
3289.165	5488.9
3292.214	5372.9
3295.261	5167.9
3298.306	5353.9
3301.348	5194.9
3304.387	5108.9
3307.425	5022.9
3310.459	5047.9
3313.492	4767.9
3316.521	4817.9
3319.549	4754.9
3322.574	4681.9
3325.597	4646.9
3328.617	4672.9
3331.635	4559.9
3334.65	4645.9
3337.663	4585.9
3340.674	4560.9
3343.682	4421.9
3346.688	4479.9
3349.691	4397.9
3352.692	4563.9
3355.691	4356.9
3358.687	4382.9
3361.681	4289.9
3364.673	4402.9
3367.662	4286.9
3370.649	4133.9
3373.633	4281.9
3376.615	4146.9
3379.595	4404.9
3382.572	4175.9
3385.547	4169.9
3388.52	4290.9
3391.49	4085.9
3394.458	4067.9
3397.424	3968.9
3400.387	4077.9
3403.348	3738.9
3406.307	3852.9
3409.263	3839.9
3412.217	3608.9
3415.168	3637.9
3418.118	3661.9
3421.065	3601.9
3424.009	3375.9
3426.951	3585.9
3429.891	3585.9
3432.829	3496.9
3435.764	3444.9
3438.697	3456.9
3441.628	3162.9
3444.557	3361.9
3447.483	3323.9
3450.407	3076.9
3453.328	2991.9
3456.247	3144.9
3459.164	3174.9
3462.079	2867.9
3464.991	2877.9
3467.902	2837.9
3470.809	2812.9
3473.715	2635.9
3476.618	2607.9
3479.519	2523.9
3482.418	2709.9
3485.315	2493.9
3488.209	2419.9
3491.101	2298.9
3493.99	2456.9
3496.878	2076.9
3499.763	2178.9
3502.646	2044.9
3505.527	2228.9
3508.405	2123.9
3511.281	1953.9
3514.155	1986.9
3517.027	2006.9
3519.897	2096.9
3522.764	1858.9
3525.629	1963.9
3528.492	1805.9
3531.352	1782.9
3534.211	1677.9
3537.067	1798.9
3539.921	1685.9
3542.773	1606.9
3545.622	1604.9
3548.469	1671.9
3551.315	1540.9
3554.157	1448.9
3556.998	1370.9
3559.837	1244.9
3562.673	1166.9
3565.507	1345.9
3568.339	1140.9
3571.169	1300.9
3573.996	1154.9
3576.822	1083.9
3579.645	1165.9
3582.466	1074.9
3585.285	1017.9
3588.101	1018.9
3590.916	1095.9
3593.728	910.9
3596.538	1034.9
3599.346	969.9
3602.152	1034.9
3604.956	1034.9
3607.757	807.9
3610.556	1007.9
3613.354	815.9
3616.149	795.9
3618.942	801.9
3621.732	626.9
3624.521	873.9
3627.307	805.9
3630.092	660.9
3632.874	585.9
3635.654	766.9
3638.432	847.9
3641.208	651.9
3643.982	718.9
3646.753	669.9
3649.523	760.9
3652.29	751.9
3655.055	615.9
3657.818	578.9
3660.579	528.9
3663.338	773.9
3666.095	577.9
3668.849	706.9
3671.602	600.9
3674.352	792.9
3677.101	584.9
3679.847	421.9
3682.591	592.9
3685.333	641.9
3688.073	470.9
3690.811	604.9
3693.547	549.9
3696.281	577.9
3699.013	507.9
3701.742	533.9
3704.47	702.9
3707.195	460.9
3709.919	436.9
3712.64	480.9
3715.359	384.9
3718.076	257.9
3720.792	563.9
3723.505	461.9
3726.216	374.9
3728.925	554.9
3731.632	348.9
3734.336	588.9
3737.039	446.9
3739.74	493.9
3742.439	612.9
3745.136	453.9
3747.83	375.9
3750.523	412.9
3753.213	-173.1
3755.902	399.9
3758.589	579.9
3761.273	511.9
3763.956	282.9
3766.636	555.9
3769.315	218.9
3771.991	537.9
3774.665	374.9
3777.338	523.9
3780.008	499.9
3782.677	224.9
3785.343	603.9
3788.007	715.9
3790.67	396.9
3793.33	370.9
3795.989	385.9
3798.645	371.9
3801.299	570.9
3803.952	329.9
3806.602	372.9
3809.251	409.9
3811.897	408.9
3814.542	397.9
3817.184	433.9
3819.825	493.9
3822.463	100.9
3825.1	391.9
3827.735	409.9
3830.367	412.9
3832.998	233.9
3835.627	330.9
3838.253	325.9
3840.878	205.9
3843.501	224.9
3846.122	273.9
3848.741	277.9
3851.358	338.9
3853.973	560.9
3856.586	416.9
3859.197	352.9
3861.806	338.9
3864.414	491.9
3867.019	404.9
3869.622	296.9
3872.224	316.9
3874.823	447.9
3877.421	496.9
3880.016	526.9
3882.61	566.9
3885.202	486.9
3887.792	569.9
3890.38	220.9
3892.966	371.9
3895.55	443.9
3898.132	387.9
3900.713	273.9
3903.291	403.9
3905.868	479.9
3908.442	341.9
3911.015	333.9
3913.586	357.9
3916.155	340.9
3918.722	471.9
3921.287	360.9
3923.85	155.9
3926.411	341.9
3928.971	297.9
3931.528	292.9
3934.084	361.9
3936.638	399.9
3939.19	338.9
3941.74	388.9
3944.288	272.9
3946.834	387.9
3949.378	262.9
3951.921	446.9
3954.462	333.9
3957	335.9
3959.537	393.9
3962.072	537.9
3964.606	494.9
3967.137	260.9
3969.667	335.9
3972.194	449.9
3974.72	396.9
3977.244	497.9
3979.766	312.9
3982.286	522.9
3984.805	311.9
3987.321	246.9
3989.836	344.9
3992.349	437.9
3994.86	336.9
3997.369	336.9
3999.877	287.9
4002.382	343.9
4004.886	415.9
4007.388	380.9
4009.888	476.9
4012.386	239.9
4014.883	338.9
4017.377	358.9
4019.87	199.9
4022.361	438.9
4024.85	447.9
4027.338	468.9
4029.823	293.9
4032.307	385.9
4034.789	421.9
4037.269	427.9
4039.747	446.9
4042.224	338.9
4044.699	461.9
4047.172	403.9
4049.643	318.9
4052.112	481.9
4054.58	396.9
4057.046	364.9
4059.51	496.9
4061.972	316.9
4064.432	516.9
4066.891	238.9
4069.348	381.9
4071.803	250.9
4074.256	315.9
4076.708	394.9
4079.158	436.9
4081.606	202.9
4084.052	388.9
4086.497	280.9
4088.939	412.9
4091.38	463.9
4093.819	294.9
4096.257	-1352.1
4098.693	-1475.1
4101.127	-1485.1
4103.559	-1517.1
4105.989	549.9
4108.418	535.9
4110.845	764.9
4113.27	575.9
4115.694	707.9
4118.115	735.9
4120.535	286.9
4122.954	272.9
4125.37	159.9
4127.785	329.9
4130.198	311.9
4132.609	301.9
4135.019	-1570.1
4137.427	-1476.1
4139.833	-1466.1
4142.237	-1191.1
