Data from 2018-2-8_conc=4_RamanShift_03.txt Node
Date: Wed Feb 07 10:32:40 IST 2018
User: aro
Spectrometer: QEPB0276
Trigger mode: 0
Integration Time (sec): 3.000000E1
Scans to average: 1
Electric dark correction enabled: true
Nonlinearity correction enabled: false
Boxcar width: 0
XAxis mode: Raman Shifts
Number of Pixels in Spectrum: 1044
>>>>>Begin Spectral Data<<<<<
160.701	476.6
166.742	592.6
172.777	1042.6
178.805	2637.6
184.826	6125.6
190.841	12171.6
196.849	19497.6
202.85	24739.6
208.845	26754.6
214.833	26523.6
220.815	26037.6
226.789	24849.6
232.758	25873.6
238.719	25668.6
244.674	25460.6
250.623	25016.6
256.565	24657.6
262.5	24129.6
268.429	23443.6
274.351	23183.6
280.267	23039.6
286.176	22429.6
292.079	22200.6
297.975	21948.6
303.865	21709.6
309.748	21565.6
315.625	21343.6
321.495	20843.6
327.359	20888.6
333.217	20903.6
339.068	20893.6
344.912	20935.6
350.751	20777.6
356.583	20751.6
362.408	20764.6
368.227	20793.6
374.04	20910.6
379.847	20950.6
385.647	21147.6
391.44	21311.6
397.228	21318.6
403.009	21555.6
408.784	21661.6
414.553	21758.6
420.315	21867.6
426.071	21885.6
431.821	21802.6
437.565	21777.6
443.302	21614.6
449.033	21449.6
454.758	21490.6
460.477	21370.6
466.189	21250.6
471.896	21121.6
477.596	21003.6
483.29	21112.6
488.978	21085.6
494.66	21060.6
500.335	20976.6
506.005	20913.6
511.668	20705.6
517.325	20567.6
522.977	20386.6
528.622	20317.6
534.261	20169.6
539.894	20157.6
545.521	20018.6
551.141	19937.6
556.756	19686.6
562.365	19587.6
567.968	19449.6
573.565	19267.6
579.155	19187.6
584.74	19113.6
590.319	18970.6
595.892	18994.6
601.459	18865.6
607.02	18902.6
612.575	18917.6
618.124	18825.6
623.667	18879.6
629.204	18826.6
634.735	18966.6
640.261	18753.6
645.781	18765.6
651.294	18591.6
656.802	18251.6
662.304	18298.6
667.8	18037.6
673.29	18087.6
678.775	17936.6
684.254	17977.6
689.726	18099.6
695.193	17852.6
700.655	17797.6
706.11	17975.6
711.56	17854.6
717.004	17892.6
722.442	18113.6
727.874	17882.6
733.301	17893.6
738.722	17872.6
744.137	17658.6
749.547	17496.6
754.951	17578.6
760.349	17395.6
765.741	17241.6
771.128	17259.6
776.509	17149.6
781.885	17167.6
787.254	17177.6
792.618	17254.6
797.977	17303.6
803.33	17365.6
808.677	17362.6
814.019	17358.6
819.355	17406.6
824.686	17351.6
830.011	17362.6
835.33	17130.6
840.644	16915.6
845.952	16961.6
851.255	16719.6
856.552	16650.6
861.844	16492.6
867.13	16410.6
872.41	16465.6
877.686	16280.6
882.955	16363.6
888.219	16454.6
893.478	16612.6
898.731	16386.6
903.979	16339.6
909.221	16411.6
914.458	16279.6
919.69	16047.6
924.916	15990.6
930.136	15760.6
935.351	15688.6
940.561	15409.6
945.766	15345.6
950.965	15219.6
956.158	15311.6
961.347	15364.6
966.529	15331.6
971.707	15354.6
976.879	15288.6
982.046	15354.6
987.208	15337.6
992.364	15170.6
997.515	15267.6
1002.66	15130.6
1007.801	15081.6
1012.936	15062.6
1018.066	15030.6
1023.19	14848.6
1028.309	14866.6
1033.423	14909.6
1038.532	14980.6
1043.636	15155.6
1048.734	15121.6
1053.827	15207.6
1058.915	15182.6
1063.998	15058.6
1069.075	14911.6
1074.147	14729.6
1079.214	14750.6
1084.276	14391.6
1089.333	14360.6
1094.385	14360.6
1099.431	14443.6
1104.472	14305.6
1109.509	14421.6
1114.54	14509.6
1119.565	14513.6
1124.586	14515.6
1129.602	14502.6
1134.613	14526.6
1139.618	14349.6
1144.619	14148.6
1149.614	13973.6
1154.604	13801.6
1159.589	13781.6
1164.57	13500.6
1169.545	13620.6
1174.515	13647.6
1179.48	13674.6
1184.44	13762.6
1189.395	13842.6
1194.345	14036.6
1199.29	14026.6
1204.23	14040.6
1209.165	13975.6
1214.095	13870.6
1219.021	13690.6
1223.941	13626.6
1228.856	13736.6
1233.766	13696.6
1238.672	13517.6
1243.572	13547.6
1248.467	13515.6
1253.358	13740.6
1258.244	13745.6
1263.124	13587.6
1268	13451.6
1272.871	13424.6
1277.737	13479.6
1282.599	13213.6
1287.455	13062.6
1292.306	12777.6
1297.153	12845.6
1301.995	12666.6
1306.832	12673.6
1311.664	12617.6
1316.491	12685.6
1321.314	12632.6
1326.132	12717.6
1330.945	12558.6
1335.753	12577.6
1340.556	12350.6
1345.354	12196.6
1350.148	11913.6
1354.937	11729.6
1359.722	11691.6
1364.501	11445.6
1369.276	11278.6
1374.046	11343.6
1378.811	11486.6
1383.572	11625.6
1388.327	11277.6
1393.079	11765.6
1397.825	11851.6
1402.567	11842.6
1407.304	11765.6
1412.036	11813.6
1416.764	11746.6
1421.487	11851.6
1426.205	11567.6
1430.919	11399.6
1435.628	11232.6
1440.333	11174.6
1445.032	10986.6
1449.727	11054.6
1454.418	11063.6
1459.104	11008.6
1463.785	10820.6
1468.462	10857.6
1473.134	10875.6
1477.802	10694.6
1482.465	10757.6
1487.123	10423.6
1491.777	10472.6
1496.426	10392.6
1501.071	10217.6
1505.711	10303.6
1510.347	10266.6
1514.978	10409.6
1519.604	10502.6
1524.226	10550.6
1528.844	10871.6
1533.457	10788.6
1538.065	10941.6
1542.669	10881.6
1547.269	10998.6
1551.864	10923.6
1556.454	11037.6
1561.041	10995.6
1565.622	11026.6
1570.199	10661.6
1574.772	10673.6
1579.34	10487.6
1583.904	10586.6
1588.464	10592.6
1593.019	10578.6
1597.569	10741.6
1602.115	10800.6
1606.657	10829.6
1611.195	10912.6
1615.728	10891.6
1620.256	11076.6
1624.78	11082.6
1629.3	11054.6
1633.816	10861.6
1638.327	10784.6
1642.834	10692.6
1647.336	10690.6
1651.834	10554.6
1656.328	10665.6
1660.817	10476.6
1665.302	10594.6
1669.783	10552.6
1674.259	10402.6
1678.732	10087.6
1683.199	9864.6
1687.663	9798.6
1692.122	9400.6
1696.577	9111.6
1701.028	9257.6
1705.474	9013.6
1709.917	9018.6
1714.355	8925.6
1718.788	8892.6
1723.218	8750.6
1727.643	8472.6
1732.064	8320.6
1736.481	8424.6
1740.893	8170.6
1745.301	8052.6
1749.705	8106.6
1754.105	7712.6
1758.501	7651.6
1762.893	7420.6
1767.28	7340.6
1771.663	7076.6
1776.042	6899.6
1780.417	6859.6
1784.787	6636.6
1789.154	6715.6
1793.516	6623.6
1797.874	6826.6
1802.228	6973.6
1806.578	7108.6
1810.924	7002.6
1815.266	7947.6
1819.603	7094.6
1823.937	7100.6
1828.266	7045.6
1832.591	6965.6
1836.913	6845.6
1841.23	6885.6
1845.543	6857.6
1849.852	6589.6
1854.156	6677.6
1858.457	6578.6
1862.754	6342.6
1867.047	6440.6
1871.335	6392.6
1875.62	6253.6
1879.9	6274.6
1884.177	6470.6
1888.449	6279.6
1892.718	6263.6
1896.982	6253.6
1901.243	6399.6
1905.499	6320.6
1909.752	6271.6
1914	6376.6
1918.245	6263.6
1922.485	6302.6
1926.722	6337.6
1930.954	6290.6
1935.183	6265.6
1939.408	6260.6
1943.628	6342.6
1947.845	6300.6
1952.058	6437.6
1956.267	6294.6
1960.472	6231.6
1964.673	6255.6
1968.87	6340.6
1973.063	6333.6
1977.252	6192.6
1981.438	6173.6
1985.619	6072.6
1989.797	5943.6
1993.971	5906.6
1998.14	5742.6
2002.306	5699.6
2006.469	5748.6
2010.627	5646.6
2014.781	5712.6
2018.932	5712.6
2023.078	5490.6
2027.221	5517.6
2031.36	5531.6
2035.495	5641.6
2039.627	5505.6
2043.754	5467.6
2047.878	5430.6
2051.998	5390.6
2056.114	5374.6
2060.226	5269.6
2064.334	5285.6
2068.439	5131.6
2072.54	5221.6
2076.637	5312.6
2080.73	5305.6
2084.82	5254.6
2088.906	5337.6
2092.988	5378.6
2097.066	5418.6
2101.14	5298.6
2105.211	5366.6
2109.278	5336.6
2113.342	5377.6
2117.401	5410.6
2121.457	5326.6
2125.509	5337.6
2129.558	5163.6
2133.602	5254.6
2137.643	5120.6
2141.681	5024.6
2145.714	5037.6
2149.744	4950.6
2153.77	5042.6
2157.793	4934.6
2161.812	5015.6
2165.827	4990.6
2169.838	4810.6
2173.846	4852.6
2177.851	4800.6
2181.851	4719.6
2185.848	4859.6
2189.841	4624.6
2193.831	4622.6
2197.817	4399.6
2201.799	4482.6
2205.778	4548.6
2209.753	4472.6
2213.725	4420.6
2217.693	4440.6
2221.657	4451.6
2225.618	3960.6
2229.575	4333.6
2233.529	4218.6
2237.479	4252.6
2241.425	4235.6
2245.368	4381.6
2249.307	4283.6
2253.243	4201.6
2257.175	4243.6
2261.104	4116.6
2265.029	4062.6
2268.95	4009.6
2272.868	3915.6
2276.783	3964.6
2280.694	3732.6
2284.601	3771.6
2288.505	3771.6
2292.405	3637.6
2296.302	3700.6
2300.195	3575.6
2304.085	3684.6
2307.971	3551.6
2311.854	3628.6
2315.734	3602.6
2319.609	3540.6
2323.482	3715.6
2327.351	3541.6
2331.216	3541.6
2335.078	3478.6
2338.937	3496.6
2342.792	3506.6
2346.643	3418.6
2350.492	3334.6
2354.336	3397.6
2358.178	3381.6
2362.015	3357.6
2365.85	3423.6
2369.681	3403.6
2373.508	3378.6
2377.333	3335.6
2381.153	3400.6
2384.971	3446.6
2388.785	3420.6
2392.595	3474.6
2396.402	3450.6
2400.206	3413.6
2404.007	3396.6
2407.804	3370.6
2411.597	3284.6
2415.388	3317.6
2419.174	3261.6
2422.958	3244.6
2426.738	3217.6
2430.515	3022.6
2434.289	3239.6
2438.059	3180.6
2441.825	3171.6
2445.589	2962.6
2449.349	3099.6
2453.106	3074.6
2456.859	3026.6
2460.61	2918.6
2464.356	3030.6
2468.1	2981.6
2471.84	2983.6
2475.577	3036.6
2479.311	2825.6
2483.041	2871.6
2486.768	2763.6
2490.492	2631.6
2494.213	3052.6
2497.93	2913.6
2501.644	2871.6
2505.355	2842.6
2509.062	2857.6
2512.766	2820.6
2516.467	2770.6
2520.165	2778.6
2523.859	2846.6
2527.551	2611.6
2531.239	2750.6
2534.923	2800.6
2538.605	2847.6
2542.283	2722.6
2545.958	2768.6
2549.63	2657.6
2553.299	2616.6
2556.964	2698.6
2560.626	2701.6
2564.285	2613.6
2567.941	2726.6
2571.594	2713.6
2575.243	2552.6
2578.89	2726.6
2582.533	2707.6
2586.173	2671.6
2589.809	2569.6
2593.443	2821.6
2597.073	2639.6
2600.701	2447.6
2604.325	2570.6
2607.946	2600.6
2611.564	2520.6
2615.178	2435.6
2618.79	2454.6
2622.398	2549.6
2626.004	2445.6
2629.606	2357.6
2633.205	2608.6
2636.801	2497.6
2640.394	2366.6
2643.983	2376.6
2647.57	2385.6
2651.153	2318.6
2654.734	2226.6
2658.311	2453.6
2661.885	2296.6
2665.456	2234.6
2669.025	2246.6
2672.589	2243.6
2676.151	2114.6
2679.71	2119.6
2683.266	2086.6
2686.819	2098.6
2690.368	1983.6
2693.915	2138.6
2697.458	2143.6
2700.999	1948.6
2704.536	1947.6
2708.071	1964.6
2711.602	1927.6
2715.13	1927.6
2718.656	1945.6
2722.178	1860.6
2725.697	1907.6
2729.214	1617.6
2732.727	1764.6
2736.237	1789.6
2739.744	1844.6
2743.249	1871.6
2746.75	1823.6
2750.248	1867.6
2753.743	1909.6
2757.236	1874.6
2760.725	1884.6
2764.211	2055.6
2767.695	1829.6
2771.175	1889.6
2774.652	1827.6
2778.127	1864.6
2781.598	1833.6
2785.067	1846.6
2788.532	1846.6
2791.995	1860.6
2795.455	1827.6
2798.911	1807.6
2802.365	1976.6
2805.816	1863.6
2809.264	1845.6
2812.709	1923.6
2816.151	1843.6
2819.59	1999.6
2823.026	1962.6
2826.46	2021.6
2829.89	1943.6
2833.318	2113.6
2836.742	2012.6
2840.164	1924.6
2843.583	2025.6
2846.999	2013.6
2850.412	1948.6
2853.822	2082.6
2857.229	1918.6
2860.634	1978.6
2864.035	2075.6
2867.434	2020.6
2870.83	1981.6
2874.223	2145.6
2877.613	2021.6
2881	2212.6
2884.385	2281.6
2887.766	2242.6
2891.145	2131.6
2894.521	2278.6
2897.894	2300.6
2901.264	1997.6
2904.631	2335.6
2907.996	2235.6
2911.358	2257.6
2914.717	2277.6
2918.073	2312.6
2921.426	2227.6
2924.777	2347.6
2928.124	2406.6
2931.469	2271.6
2934.811	2503.6
2938.15	2350.6
2941.487	2453.6
2944.821	2188.6
2948.152	2558.6
2951.48	2487.6
2954.805	2432.6
2958.128	2383.6
2961.447	2537.6
2964.765	2364.6
2968.079	2540.6
2971.39	2547.6
2974.699	2547.6
2978.005	2490.6
2981.308	2533.6
2984.609	2664.6
2987.907	2612.6
2991.202	2687.6
2994.494	2742.6
2997.784	2413.6
3001.07	2661.6
3004.355	2761.6
3007.636	2796.6
3010.915	2838.6
3014.191	2872.6
3017.464	2907.6
3020.734	2846.6
3024.002	3004.6
3027.267	3024.6
3030.53	3082.6
3033.789	3133.6
3037.046	3284.6
3040.301	3204.6
3043.552	3193.6
3046.801	3410.6
3050.048	3272.6
3053.291	3278.6
3056.532	3501.6
3059.771	3683.6
3063.006	3592.6
3066.239	3619.6
3069.469	3775.6
3072.697	4027.6
3075.922	4027.6
3079.144	4088.6
3082.364	4122.6
3085.581	4412.6
3088.795	4241.6
3092.007	4434.6
3095.216	4690.6
3098.423	4972.6
3101.627	4990.6
3104.828	5068.6
3108.026	5181.6
3111.222	5179.6
3114.416	5243.6
3117.607	5423.6
3120.795	5437.6
3123.98	5616.6
3127.163	5803.6
3130.344	5796.6
3133.521	5910.6
3136.696	6050.6
3139.869	6106.6
3143.039	6298.6
3146.206	6277.6
3149.371	6388.6
3152.533	6598.6
3155.693	6686.6
3158.85	6793.6
3162.005	6854.6
3165.157	6978.6
3168.306	7027.6
3171.453	6874.6
3174.597	7122.6
3177.739	7111.6
3180.878	7045.6
3184.014	7004.6
3187.149	7059.6
3190.28	7025.6
3193.409	7022.6
3196.536	6962.6
3199.659	6905.6
3202.781	6995.6
3205.9	7061.6
3209.016	6972.6
3212.13	6980.6
3215.241	6925.6
3218.35	6984.6
3221.456	7048.6
3224.56	7229.6
3227.661	7112.6
3230.76	7199.6
3233.856	7140.6
3236.95	7061.6
3240.041	7114.6
3243.13	6913.6
3246.216	6933.6
3249.3	6786.6
3252.382	6769.6
3255.46	6867.6
3258.537	7153.6
3261.611	6809.6
3264.682	6678.6
3267.751	6582.6
3270.818	6649.6
3273.882	6495.6
3276.943	6441.6
3280.002	6370.6
3283.059	6341.6
3286.113	6297.6
3289.165	6405.6
3292.214	6311.6
3295.261	6116.6
3298.306	6196.6
3301.348	6017.6
3304.387	5983.6
3307.425	5909.6
3310.459	5892.6
3313.492	5694.6
3316.521	5645.6
3319.549	5605.6
3322.574	5513.6
3325.597	5415.6
3328.617	5434.6
3331.635	5325.6
3334.65	5372.6
3337.663	5272.6
3340.674	5288.6
3343.682	5184.6
3346.688	5107.6
3349.691	5121.6
3352.692	5138.6
3355.691	4993.6
3358.687	5072.6
3361.681	5021.6
3364.673	5011.6
3367.662	4959.6
3370.649	4907.6
3373.633	5006.6
3376.615	4919.6
3379.595	5014.6
3382.572	4916.6
3385.547	4701.6
3388.52	4830.6
3391.49	4759.6
3394.458	4719.6
3397.424	4479.6
3400.387	4623.6
3403.348	4249.6
3406.307	4336.6
3409.263	4396.6
3412.217	4218.6
3415.168	4177.6
3418.118	4193.6
3421.065	4059.6
3424.009	3937.6
3426.951	4001.6
3429.891	3783.6
3432.829	3907.6
3435.764	3858.6
3438.697	3861.6
3441.628	3681.6
3444.557	3708.6
3447.483	3721.6
3450.407	3468.6
3453.328	3396.6
3456.247	3463.6
3459.164	3423.6
3462.079	3260.6
3464.991	3161.6
3467.902	3113.6
3470.809	3049.6
3473.715	2947.6
3476.618	2895.6
3479.519	2801.6
3482.418	2883.6
3485.315	2647.6
3488.209	2585.6
3491.101	2570.6
3493.99	2558.6
3496.878	2155.6
3499.763	2318.6
3502.646	2242.6
3505.527	2297.6
3508.405	2185.6
3511.281	2055.6
3514.155	2070.6
3517.027	2067.6
3519.897	2102.6
3522.764	1865.6
3525.629	1895.6
3528.492	1818.6
3531.352	1659.6
3534.211	1679.6
3537.067	1663.6
3539.921	1581.6
3542.773	1543.6
3545.622	1484.6
3548.469	1485.6
3551.315	1410.6
3554.157	1314.6
3556.998	1243.6
3559.837	1152.6
3562.673	1034.6
3565.507	1158.6
3568.339	1012.6
3571.169	1089.6
3573.996	1029.6
3576.822	1005.6
3579.645	1029.6
3582.466	936.6
3585.285	882.6
3588.101	829.6
3590.916	887.6
3593.728	738.6
3596.538	819.6
3599.346	731.6
3602.152	762.6
3604.956	722.6
3607.757	627.6
3610.556	747.6
3613.354	653.6
3616.149	578.6
3618.942	643.6
3621.732	322.6
3624.521	534.6
3627.307	458.6
3630.092	518.6
3632.874	378.6
3635.654	459.6
3638.432	541.6
3641.208	403.6
3643.982	461.6
3646.753	337.6
3649.523	403.6
3652.29	405.6
3655.055	437.6
3657.818	273.6
3660.579	218.6
3663.338	409.6
3666.095	223.6
3668.849	459.6
3671.602	261.6
3674.352	403.6
3677.101	245.6
3679.847	104.6
3682.591	289.6
3685.333	301.6
3688.073	171.6
3690.811	242.6
3693.547	176.6
3696.281	253.6
3699.013	150.6
3701.742	178.6
3704.47	239.6
3707.195	115.6
3709.919	101.6
3712.64	118.6
3715.359	12.6
3718.076	-23.4
3720.792	109.6
3723.505	105.6
3726.216	105.6
3728.925	127.6
3731.632	-57.4
3734.336	190.6
3737.039	97.6
3739.74	81.6
3742.439	155.6
3745.136	55.6
3747.83	38.6
3750.523	65.6
3753.213	-98.4
3755.902	19.6
3758.589	117.6
3761.273	125.6
3763.956	-46.4
3766.636	125.6
3769.315	-94.4
3771.991	144.6
3774.665	30.6
3777.338	202.6
3780.008	122.6
3782.677	24.6
3785.343	191.6
3788.007	160.6
3790.67	24.6
3793.33	-22.4
3795.989	114.6
3798.645	5.6
3801.299	350.6
3803.952	-19.4
3806.602	-13.4
3809.251	39.6
3811.897	8.6
3814.542	70.6
3817.184	-0.4
3819.825	131.6
3822.463	-18.4
3825.1	35.6
3827.735	53.6
3830.367	7.6
3832.998	-109.4
3835.627	-54.4
3838.253	-58.4
3840.878	-185.4
3843.501	-119.4
3846.122	-63.4
3848.741	-107.4
3851.358	6.6
3853.973	155.6
3856.586	6.6
3859.197	-56.4
3861.806	-37.4
3864.414	63.6
3867.019	-8.4
3869.622	-71.4
3872.224	-96.4
3874.823	50.6
3877.421	42.6
3880.016	102.6
3882.61	205.6
3885.202	107.6
3887.792	99.6
3890.38	-60.4
3892.966	44.6
3895.55	15.6
3898.132	6.6
3900.713	-9.4
3903.291	-19.4
3905.868	-113.4
3908.442	78.6
3911.015	-57.4
3913.586	-36.4
3916.155	-67.4
3918.722	49.6
3921.287	-36.4
3923.85	-257.4
3926.411	-64.4
3928.971	-56.4
3931.528	-23.4
3934.084	-67.4
3936.638	-41.4
3939.19	-92.4
3941.74	-83.4
3944.288	-53.4
3946.834	-78.4
3949.378	-27.4
3951.921	43.6
3954.462	-44.4
3957	-77.4
3959.537	28.6
3962.072	50.6
3964.606	86.6
3967.137	-71.4
3969.667	-22.4
3972.194	-5.4
3974.72	0.6
3977.244	43.6
3979.766	42.6
3982.286	108.6
3984.805	-56.4
3987.321	-98.4
3989.836	-11.4
3992.349	38.6
3994.86	-25.4
3997.369	13.6
3999.877	-97.4
4002.382	-26.4
4004.886	-50.4
4007.388	-32.4
4009.888	78.6
4012.386	-56.4
4014.883	-63.4
4017.377	2.6
4019.87	-113.4
4022.361	47.6
4024.85	81.6
4027.338	106.6
4029.823	-70.4
4032.307	-4.4
4034.789	40.6
4037.269	10.6
4039.747	88.6
4042.224	-63.4
4044.699	5.6
4047.172	2.6
4049.643	-79.4
4052.112	80.6
4054.58	-6.4
4057.046	-8.4
4059.51	53.6
4061.972	-68.4
4064.432	89.6
4066.891	-105.4
4069.348	40.6
4071.803	-55.4
4074.256	-63.4
4076.708	47.6
4079.158	-20.4
4081.606	-87.4
4084.052	-3.4
4086.497	-60.4
4088.939	-6.4
4091.38	8.6
4093.819	-92.4
4096.257	-1165.4
4098.693	-1188.4
4101.127	-1193.4
4103.559	-1241.4
4105.989	119.6
4108.418	158.6
4110.845	384.6
4113.27	197.6
4115.694	349.6
4118.115	410.6
4120.535	-64.4
4122.954	-119.4
4125.37	-141.4
4127.785	-47.4
4130.198	-85.4
4132.609	-62.4
4135.019	-1273.4
4137.427	-1231.4
4139.833	-1197.4
4142.237	-1047.4
