Data from 2018-2-8_conc=4_RamanShift_08.txt Node
Date: Wed Feb 07 10:36:10 IST 2018
User: aro
Spectrometer: QEPB0276
Trigger mode: 0
Integration Time (sec): 3.000000E1
Scans to average: 1
Electric dark correction enabled: true
Nonlinearity correction enabled: false
Boxcar width: 0
XAxis mode: Raman Shifts
Number of Pixels in Spectrum: 1044
>>>>>Begin Spectral Data<<<<<
160.701	468.2
166.742	548.2
172.777	1039.2
178.805	2565.2
184.826	5828.2
190.841	11605.2
196.849	18534.2
202.85	23644.2
208.845	25525.2
214.833	25261.2
220.815	24863.2
226.789	23558.2
232.758	24610.2
238.719	24435.2
244.674	24183.2
250.623	23776.2
256.565	23368.2
262.5	22944.2
268.429	22317.2
274.351	21959.2
280.267	21787.2
286.176	21261.2
292.079	21086.2
297.975	20784.2
303.865	20506.2
309.748	20355.2
315.625	20160.2
321.495	19689.2
327.359	19685.2
333.217	19789.2
339.068	19804.2
344.912	19695.2
350.751	19613.2
356.583	19663.2
362.408	19627.2
368.227	19664.2
374.04	19774.2
379.847	19813.2
385.647	19943.2
391.44	20132.2
397.228	20109.2
403.009	20301.2
408.784	20466.2
414.553	20563.2
420.315	20549.2
426.071	20655.2
431.821	20521.2
437.565	20541.2
443.302	20360.2
449.033	20339.2
454.758	20253.2
460.477	20131.2
466.189	20016.2
471.896	19968.2
477.596	19921.2
483.29	19858.2
488.978	19888.2
494.66	19849.2
500.335	19755.2
506.005	19764.2
511.668	19475.2
517.325	19367.2
522.977	19114.2
528.622	19185.2
534.261	18962.2
539.894	18916.2
545.521	18851.2
551.141	18759.2
556.756	18494.2
562.365	18403.2
567.968	18314.2
573.565	18200.2
579.155	17985.2
584.74	17939.2
590.319	17781.2
595.892	17770.2
601.459	17741.2
607.02	17743.2
612.575	17808.2
618.124	17658.2
623.667	17797.2
629.204	17704.2
634.735	17637.2
640.261	17520.2
645.781	17745.2
651.294	17489.2
656.802	17145.2
662.304	17210.2
667.8	16893.2
673.29	17000.2
678.775	16918.2
684.254	16910.2
689.726	16943.2
695.193	16724.2
700.655	16732.2
706.11	16901.2
711.56	16786.2
717.004	16854.2
722.442	17000.2
727.874	16784.2
733.301	16814.2
738.722	16828.2
744.137	16621.2
749.547	16540.2
754.951	16519.2
760.349	16359.2
765.741	16202.2
771.128	16116.2
776.509	16195.2
781.885	16140.2
787.254	16225.2
792.618	16210.2
797.977	16331.2
803.33	16370.2
808.677	16438.2
814.019	16355.2
819.355	16327.2
824.686	16359.2
830.011	16395.2
835.33	16084.2
840.644	15899.2
845.952	15958.2
851.255	15692.2
856.552	15674.2
861.844	15547.2
867.13	15446.2
872.41	15396.2
877.686	15334.2
882.955	15440.2
888.219	15550.2
893.478	15530.2
898.731	15400.2
903.979	15403.2
909.221	15424.2
914.458	15382.2
919.69	15145.2
924.916	15093.2
930.136	14834.2
935.351	14769.2
940.561	14487.2
945.766	14513.2
950.965	14290.2
956.158	14483.2
961.347	14441.2
966.529	14447.2
971.707	14361.2
976.879	14401.2
982.046	14468.2
987.208	14464.2
992.364	14388.2
997.515	14293.2
1002.66	14189.2
1007.801	14266.2
1012.936	14126.2
1018.066	14219.2
1023.19	13992.2
1028.309	14014.2
1033.423	14059.2
1038.532	14163.2
1043.636	14336.2
1048.734	14303.2
1053.827	14434.2
1058.915	14340.2
1063.998	14236.2
1069.075	14088.2
1074.147	13873.2
1079.214	13877.2
1084.276	13549.2
1089.333	13590.2
1094.385	13599.2
1099.431	13558.2
1104.472	13512.2
1109.509	13703.2
1114.54	13716.2
1119.565	13785.2
1124.586	13732.2
1129.602	13763.2
1134.613	13684.2
1139.618	13631.2
1144.619	13300.2
1149.614	13206.2
1154.604	13059.2
1159.589	13077.2
1164.57	12790.2
1169.545	12829.2
1174.515	12913.2
1179.48	13006.2
1184.44	13056.2
1189.395	13172.2
1194.345	13350.2
1199.29	13294.2
1204.23	13388.2
1209.165	13279.2
1214.095	13095.2
1219.021	13004.2
1223.941	13028.2
1228.856	12987.2
1233.766	12976.2
1238.672	12916.2
1243.572	12795.2
1248.467	12834.2
1253.358	13039.2
1258.244	13008.2
1263.124	12972.2
1268	12781.2
1272.871	12752.2
1277.737	12717.2
1282.599	12559.2
1287.455	12378.2
1292.306	12189.2
1297.153	12212.2
1301.995	12075.2
1306.832	12033.2
1311.664	12010.2
1316.491	12066.2
1321.314	12015.2
1326.132	12006.2
1330.945	11916.2
1335.753	11774.2
1340.556	11726.2
1345.354	11551.2
1350.148	11274.2
1354.937	11058.2
1359.722	11098.2
1364.501	10884.2
1369.276	10681.2
1374.046	10820.2
1378.811	10917.2
1383.572	11093.2
1388.327	10781.2
1393.079	11248.2
1397.825	11318.2
1402.567	11290.2
1407.304	11177.2
1412.036	11204.2
1416.764	11154.2
1421.487	11317.2
1426.205	10997.2
1430.919	10856.2
1435.628	10732.2
1440.333	10621.2
1445.032	10512.2
1449.727	10550.2
1454.418	10485.2
1459.104	10431.2
1463.785	10221.2
1468.462	10369.2
1473.134	10240.2
1477.802	10148.2
1482.465	10203.2
1487.123	9917.2
1491.777	9912.2
1496.426	9868.2
1501.071	9764.2
1505.711	9745.2
1510.347	9781.2
1514.978	9916.2
1519.604	9976.2
1524.226	10038.2
1528.844	10358.2
1533.457	10256.2
1538.065	10419.2
1542.669	10431.2
1547.269	10475.2
1551.864	10448.2
1556.454	10585.2
1561.041	10554.2
1565.622	10426.2
1570.199	10173.2
1574.772	10177.2
1579.34	9913.2
1583.904	10110.2
1588.464	10146.2
1593.019	10098.2
1597.569	10180.2
1602.115	10277.2
1606.657	10289.2
1611.195	10381.2
1615.728	10444.2
1620.256	10498.2
1624.78	10517.2
1629.3	10468.2
1633.816	10394.2
1638.327	10293.2
1642.834	10239.2
1647.336	10078.2
1651.834	10104.2
1656.328	10191.2
1660.817	10070.2
1665.302	10078.2
1669.783	10120.2
1674.259	9852.2
1678.732	9608.2
1683.199	9381.2
1687.663	9243.2
1692.122	8928.2
1696.577	8636.2
1701.028	8837.2
1705.474	8577.2
1709.917	8494.2
1714.355	8584.2
1718.788	8381.2
1723.218	8357.2
1727.643	8067.2
1732.064	7935.2
1736.481	8047.2
1740.893	7754.2
1745.301	7676.2
1749.705	7744.2
1754.105	7350.2
1758.501	7304.2
1762.893	7044.2
1767.28	6979.2
1771.663	6680.2
1776.042	6532.2
1780.417	6510.2
1784.787	6277.2
1789.154	6360.2
1793.516	6295.2
1797.874	6522.2
1802.228	6626.2
1806.578	6872.2
1810.924	6691.2
1815.266	7442.2
1819.603	6755.2
1823.937	6727.2
1828.266	6625.2
1832.591	6612.2
1836.913	6599.2
1841.23	6541.2
1845.543	6543.2
1849.852	6310.2
1854.156	6335.2
1858.457	6277.2
1862.754	5971.2
1867.047	6158.2
1871.335	6058.2
1875.62	6052.2
1879.9	6032.2
1884.177	6132.2
1888.449	6049.2
1892.718	6030.2
1896.982	5949.2
1901.243	6064.2
1905.499	5957.2
1909.752	5924.2
1914	6074.2
1918.245	5920.2
1922.485	5970.2
1926.722	6011.2
1930.954	5991.2
1935.183	6014.2
1939.408	5954.2
1943.628	6044.2
1947.845	6034.2
1952.058	6172.2
1956.267	5987.2
1960.472	5989.2
1964.673	6001.2
1968.87	6067.2
1973.063	6035.2
1977.252	5898.2
1981.438	5887.2
1985.619	5823.2
1989.797	5671.2
1993.971	5638.2
1998.14	5527.2
2002.306	5495.2
2006.469	5539.2
2010.627	5438.2
2014.781	5472.2
2018.932	5476.2
2023.078	5253.2
2027.221	5295.2
2031.36	5315.2
2035.495	5363.2
2039.627	5305.2
2043.754	5198.2
2047.878	5153.2
2051.998	5099.2
2056.114	5094.2
2060.226	5072.2
2064.334	5088.2
2068.439	4939.2
2072.54	4965.2
2076.637	5121.2
2080.73	5045.2
2084.82	4974.2
2088.906	5059.2
2092.988	4985.2
2097.066	5180.2
2101.14	5038.2
2105.211	5195.2
2109.278	5115.2
2113.342	5094.2
2117.401	5250.2
2121.457	5132.2
2125.509	5176.2
2129.558	4971.2
2133.602	5018.2
2137.643	4971.2
2141.681	4849.2
2145.714	4846.2
2149.744	4788.2
2153.77	4728.2
2157.793	4746.2
2161.812	4798.2
2165.827	4752.2
2169.838	4519.2
2173.846	4678.2
2177.851	4562.2
2181.851	4542.2
2185.848	4658.2
2189.841	4360.2
2193.831	4465.2
2197.817	4333.2
2201.799	4325.2
2205.778	4375.2
2209.753	4296.2
2213.725	4234.2
2217.693	4225.2
2221.657	4266.2
2225.618	3820.2
2229.575	4189.2
2233.529	4069.2
2237.479	4114.2
2241.425	4144.2
2245.368	4235.2
2249.307	4117.2
2253.243	4056.2
2257.175	4096.2
2261.104	3958.2
2265.029	3916.2
2268.95	3888.2
2272.868	3827.2
2276.783	3852.2
2280.694	3610.2
2284.601	3579.2
2288.505	3663.2
2292.405	3550.2
2296.302	3544.2
2300.195	3444.2
2304.085	3637.2
2307.971	3454.2
2311.854	3489.2
2315.734	3380.2
2319.609	3448.2
2323.482	3589.2
2327.351	3449.2
2331.216	3447.2
2335.078	3438.2
2338.937	3406.2
2342.792	3361.2
2346.643	3324.2
2350.492	3327.2
2354.336	3305.2
2358.178	3272.2
2362.015	3231.2
2365.85	3331.2
2369.681	3321.2
2373.508	3320.2
2377.333	3260.2
2381.153	3351.2
2384.971	3353.2
2388.785	3304.2
2392.595	3288.2
2396.402	3393.2
2400.206	3401.2
2404.007	3355.2
2407.804	3256.2
2411.597	3158.2
2415.388	3276.2
2419.174	3230.2
2422.958	3202.2
2426.738	3115.2
2430.515	3001.2
2434.289	3168.2
2438.059	3108.2
2441.825	3121.2
2445.589	2942.2
2449.349	3126.2
2453.106	2991.2
2456.859	3018.2
2460.61	2843.2
2464.356	2947.2
2468.1	2893.2
2471.84	2948.2
2475.577	2957.2
2479.311	2760.2
2483.041	2822.2
2486.768	2744.2
2490.492	2525.2
2494.213	2899.2
2497.93	2836.2
2501.644	2857.2
2505.355	2842.2
2509.062	2810.2
2512.766	2809.2
2516.467	2696.2
2520.165	2721.2
2523.859	2855.2
2527.551	2578.2
2531.239	2740.2
2534.923	2707.2
2538.605	2674.2
2542.283	2701.2
2545.958	2660.2
2549.63	2590.2
2553.299	2547.2
2556.964	2652.2
2560.626	2697.2
2564.285	2516.2
2567.941	2670.2
2571.594	2650.2
2575.243	2510.2
2578.89	2630.2
2582.533	2648.2
2586.173	2584.2
2589.809	2527.2
2593.443	2740.2
2597.073	2589.2
2600.701	2451.2
2604.325	2592.2
2607.946	2520.2
2611.564	2466.2
2615.178	2398.2
2618.79	2423.2
2622.398	2459.2
2626.004	2490.2
2629.606	2319.2
2633.205	2559.2
2636.801	2364.2
2640.394	2369.2
2643.983	2327.2
2647.57	2379.2
2651.153	2299.2
2654.734	2178.2
2658.311	2345.2
2661.885	2292.2
2665.456	2174.2
2669.025	2208.2
2672.589	2205.2
2676.151	2071.2
2679.71	2095.2
2683.266	2041.2
2686.819	2056.2
2690.368	1988.2
2693.915	2007.2
2697.458	2104.2
2700.999	1909.2
2704.536	1935.2
2708.071	1916.2
2711.602	1923.2
2715.13	1935.2
2718.656	1897.2
2722.178	1791.2
2725.697	1916.2
2729.214	1561.2
2732.727	1746.2
2736.237	1768.2
2739.744	1753.2
2743.249	1794.2
2746.75	1804.2
2750.248	1829.2
2753.743	1889.2
2757.236	1794.2
2760.725	1840.2
2764.211	1952.2
2767.695	1839.2
2771.175	1872.2
2774.652	1752.2
2778.127	1829.2
2781.598	1769.2
2785.067	1855.2
2788.532	1821.2
2791.995	1776.2
2795.455	1805.2
2798.911	1738.2
2802.365	1944.2
2805.816	1751.2
2809.264	1746.2
2812.709	1851.2
2816.151	1848.2
2819.59	1911.2
2823.026	1941.2
2826.46	1911.2
2829.89	1912.2
2833.318	2100.2
2836.742	1937.2
2840.164	1899.2
2843.583	1999.2
2846.999	2033.2
2850.412	1932.2
2853.822	2001.2
2857.229	1883.2
2860.634	1970.2
2864.035	2074.2
2867.434	1959.2
2870.83	1924.2
2874.223	2056.2
2877.613	1940.2
2881	2158.2
2884.385	2237.2
2887.766	2184.2
2891.145	2099.2
2894.521	2250.2
2897.894	2300.2
2901.264	1993.2
2904.631	2287.2
2907.996	2250.2
2911.358	2198.2
2914.717	2213.2
2918.073	2207.2
2921.426	2215.2
2924.777	2326.2
2928.124	2310.2
2931.469	2197.2
2934.811	2512.2
2938.15	2319.2
2941.487	2398.2
2944.821	2087.2
2948.152	2432.2
2951.48	2453.2
2954.805	2370.2
2958.128	2285.2
2961.447	2448.2
2964.765	2306.2
2968.079	2387.2
2971.39	2396.2
2974.699	2430.2
2978.005	2415.2
2981.308	2386.2
2984.609	2583.2
2987.907	2496.2
2991.202	2611.2
2994.494	2645.2
2997.784	2396.2
3001.07	2578.2
3004.355	2662.2
3007.636	2678.2
3010.915	2783.2
3014.191	2844.2
3017.464	2797.2
3020.734	2770.2
3024.002	2906.2
3027.267	2951.2
3030.53	2967.2
3033.789	3021.2
3037.046	3132.2
3040.301	3166.2
3043.552	3171.2
3046.801	3298.2
3050.048	3172.2
3053.291	3169.2
3056.532	3362.2
3059.771	3499.2
3063.006	3418.2
3066.239	3531.2
3069.469	3664.2
3072.697	3866.2
3075.922	3915.2
3079.144	3932.2
3082.364	4001.2
3085.581	4226.2
3088.795	4040.2
3092.007	4332.2
3095.216	4544.2
3098.423	4702.2
3101.627	4840.2
3104.828	4919.2
3108.026	4941.2
3111.222	4969.2
3114.416	5038.2
3117.607	5205.2
3120.795	5245.2
3123.98	5408.2
3127.163	5564.2
3130.344	5553.2
3133.521	5675.2
3136.696	5884.2
3139.869	5904.2
3143.039	5977.2
3146.206	6050.2
3149.371	6165.2
3152.533	6320.2
3155.693	6444.2
3158.85	6467.2
3162.005	6583.2
3165.157	6627.2
3168.306	6686.2
3171.453	6571.2
3174.597	6852.2
3177.739	6815.2
3180.878	6744.2
3184.014	6722.2
3187.149	6745.2
3190.28	6689.2
3193.409	6712.2
3196.536	6621.2
3199.659	6618.2
3202.781	6646.2
3205.9	6782.2
3209.016	6730.2
3212.13	6731.2
3215.241	6614.2
3218.35	6725.2
3221.456	6745.2
3224.56	6879.2
3227.661	6799.2
3230.76	6852.2
3233.856	6813.2
3236.95	6717.2
3240.041	6847.2
3243.13	6546.2
3246.216	6637.2
3249.3	6549.2
3252.382	6497.2
3255.46	6547.2
3258.537	6832.2
3261.611	6527.2
3264.682	6392.2
3267.751	6294.2
3270.818	6415.2
3273.882	6141.2
3276.943	6146.2
3280.002	6042.2
3283.059	6102.2
3286.113	6124.2
3289.165	6121.2
3292.214	6089.2
3295.261	5911.2
3298.306	5910.2
3301.348	5831.2
3304.387	5746.2
3307.425	5685.2
3310.459	5685.2
3313.492	5487.2
3316.521	5444.2
3319.549	5378.2
3322.574	5303.2
3325.597	5152.2
3328.617	5205.2
3331.635	5095.2
3334.65	5155.2
3337.663	5039.2
3340.674	5056.2
3343.682	4986.2
3346.688	4949.2
3349.691	4927.2
3352.692	5006.2
3355.691	4814.2
3358.687	4876.2
3361.681	4847.2
3364.673	4774.2
3367.662	4761.2
3370.649	4661.2
3373.633	4847.2
3376.615	4763.2
3379.595	4846.2
3382.572	4774.2
3385.547	4555.2
3388.52	4686.2
3391.49	4523.2
3394.458	4515.2
3397.424	4357.2
3400.387	4473.2
3403.348	4142.2
3406.307	4138.2
3409.263	4239.2
3412.217	4052.2
3415.168	4010.2
3418.118	4014.2
3421.065	3929.2
3424.009	3784.2
3426.951	3856.2
3429.891	3643.2
3432.829	3800.2
3435.764	3771.2
3438.697	3699.2
3441.628	3528.2
3444.557	3605.2
3447.483	3632.2
3450.407	3322.2
3453.328	3213.2
3456.247	3340.2
3459.164	3337.2
3462.079	3078.2
3464.991	3026.2
3467.902	2989.2
3470.809	2931.2
3473.715	2858.2
3476.618	2777.2
3479.519	2647.2
3482.418	2758.2
3485.315	2559.2
3488.209	2519.2
3491.101	2464.2
3493.99	2456.2
3496.878	2085.2
3499.763	2143.2
3502.646	2020.2
3505.527	2228.2
3508.405	2074.2
3511.281	1928.2
3514.155	2022.2
3517.027	1912.2
3519.897	1986.2
3522.764	1776.2
3525.629	1872.2
3528.492	1743.2
3531.352	1631.2
3534.211	1559.2
3537.067	1598.2
3539.921	1520.2
3542.773	1460.2
3545.622	1420.2
3548.469	1393.2
3551.315	1363.2
3554.157	1245.2
3556.998	1186.2
3559.837	1060.2
3562.673	994.2
3565.507	1119.2
3568.339	965.2
3571.169	1022.2
3573.996	985.2
3576.822	962.2
3579.645	940.2
3582.466	927.2
3585.285	822.2
3588.101	791.2
3590.916	857.2
3593.728	741.2
3596.538	820.2
3599.346	669.2
3602.152	759.2
3604.956	727.2
3607.757	550.2
3610.556	736.2
3613.354	595.2
3616.149	578.2
3618.942	549.2
3621.732	385.2
3624.521	605.2
3627.307	476.2
3630.092	483.2
3632.874	415.2
3635.654	464.2
3638.432	497.2
3641.208	368.2
3643.982	451.2
3646.753	350.2
3649.523	401.2
3652.29	448.2
3655.055	360.2
3657.818	333.2
3660.579	208.2
3663.338	450.2
3666.095	210.2
3668.849	405.2
3671.602	230.2
3674.352	393.2
3677.101	284.2
3679.847	131.2
3682.591	320.2
3685.333	230.2
3688.073	196.2
3690.811	255.2
3693.547	230.2
3696.281	195.2
3699.013	129.2
3701.742	152.2
3704.47	267.2
3707.195	144.2
3709.919	83.2
3712.64	155.2
3715.359	34.2
3718.076	-83.8
3720.792	81.2
3723.505	96.2
3726.216	79.2
3728.925	105.2
3731.632	-31.8
3734.336	199.2
3737.039	75.2
3739.74	127.2
3742.439	150.2
3745.136	99.2
3747.83	34.2
3750.523	72.2
3753.213	23.2
3755.902	89.2
3758.589	179.2
3761.273	152.2
3763.956	-95.8
3766.636	89.2
3769.315	-116.8
3771.991	172.2
3774.665	27.2
3777.338	183.2
3780.008	80.2
3782.677	18.2
3785.343	133.2
3788.007	119.2
3790.67	47.2
3793.33	-14.8
3795.989	34.2
3798.645	26.2
3801.299	192.2
3803.952	3.2
3806.602	29.2
3809.251	37.2
3811.897	58.2
3814.542	48.2
3817.184	35.2
3819.825	66.2
3822.463	-61.8
3825.1	19.2
3827.735	28.2
3830.367	0.2
3832.998	-113.8
3835.627	-52.8
3838.253	10.2
3840.878	-196.8
3843.501	-79.8
3846.122	-57.8
3848.741	-87.8
3851.358	-10.8
3853.973	148.2
3856.586	34.2
3859.197	-27.8
3861.806	1.2
3864.414	82.2
3867.019	50.2
3869.622	-99.8
3872.224	-69.8
3874.823	56.2
3877.421	65.2
3880.016	144.2
3882.61	202.2
3885.202	142.2
3887.792	95.2
3890.38	-38.8
3892.966	65.2
3895.55	-0.8
3898.132	5.2
3900.713	-63.8
3903.291	13.2
3905.868	-52.8
3908.442	-23.8
3911.015	-31.8
3913.586	2.2
3916.155	-34.8
3918.722	-5.8
3921.287	18.2
3923.85	-236.8
3926.411	-23.8
3928.971	-83.8
3931.528	-8.8
3934.084	-25.8
3936.638	10.2
3939.19	-47.8
3941.74	-81.8
3944.288	-86.8
3946.834	-14.8
3949.378	-22.8
3951.921	86.2
3954.462	-8.8
3957	41.2
3959.537	24.2
3962.072	67.2
3964.606	111.2
3967.137	-20.8
3969.667	-9.8
3972.194	30.2
3974.72	60.2
3977.244	39.2
3979.766	27.2
3982.286	115.2
3984.805	-31.8
3987.321	-100.8
3989.836	-3.8
3992.349	16.2
3994.86	0.2
3997.369	-37.8
3999.877	-100.8
4002.382	-20.8
4004.886	30.2
4007.388	22.2
4009.888	79.2
4012.386	-58.8
4014.883	17.2
4017.377	-49.8
4019.87	-109.8
4022.361	52.2
4024.85	74.2
4027.338	106.2
4029.823	-52.8
4032.307	4.2
4034.789	27.2
4037.269	-6.8
4039.747	110.2
4042.224	-21.8
4044.699	23.2
4047.172	41.2
4049.643	-46.8
4052.112	113.2
4054.58	6.2
4057.046	-15.8
4059.51	-10.8
4061.972	-46.8
4064.432	101.2
4066.891	-76.8
4069.348	-24.8
4071.803	-49.8
4074.256	-33.8
4076.708	16.2
4079.158	84.2
4081.606	-102.8
4084.052	4.2
4086.497	-60.8
4088.939	31.2
4091.38	5.2
4093.819	-82.8
4096.257	-1124.8
4098.693	-1121.8
4101.127	-1167.8
4103.559	-1202.8
4105.989	168.2
4108.418	161.2
4110.845	360.2
4113.27	158.2
4115.694	345.2
4118.115	369.2
4120.535	-84.8
4122.954	-137.8
4125.37	-133.8
4127.785	-13.8
4130.198	-65.8
4132.609	-58.8
4135.019	-1220.8
4137.427	-1190.8
4139.833	-1164.8
4142.237	-1044.8
