Data from 2018-2-8_conc=0_RamanShift_10.txt Node
Date: Wed Feb 07 09:28:40 IST 2018
User: aro
Spectrometer: QEPB0276
Trigger mode: 0
Integration Time (sec): 3.000000E1
Scans to average: 1
Electric dark correction enabled: true
Nonlinearity correction enabled: false
Boxcar width: 0
XAxis mode: Raman Shifts
Number of Pixels in Spectrum: 1044
>>>>>Begin Spectral Data<<<<<
160.701	196.9
166.742	327.9
172.777	827.9
178.805	2323.9
184.826	5896.9
190.841	11881.9
196.849	18989.9
202.85	24163.9
208.845	25947.9
214.833	25657.9
220.815	25264.9
226.789	25092.9
232.758	24979.9
238.719	24789.9
244.674	24522.9
250.623	24071.9
256.565	23556.9
262.5	22985.9
268.429	22503.9
274.351	22212.9
280.267	22100.9
286.176	21470.9
292.079	21132.9
297.975	20845.9
303.865	20658.9
309.748	20451.9
315.625	20220.9
321.495	19909.9
327.359	20048.9
333.217	19862.9
339.068	19857.9
344.912	19828.9
350.751	19779.9
356.583	19844.9
362.408	19783.9
368.227	19779.9
374.04	19943.9
379.847	20014.9
385.647	20123.9
391.44	20322.9
397.228	20360.9
403.009	20472.9
408.784	20591.9
414.553	20646.9
420.315	20847.9
426.071	20882.9
431.821	20899.9
437.565	20699.9
443.302	20641.9
449.033	20574.9
454.758	20404.9
460.477	20346.9
466.189	20263.9
471.896	20146.9
477.596	20098.9
483.29	20027.9
488.978	20002.9
494.66	20042.9
500.335	19963.9
506.005	19847.9
511.668	19609.9
517.325	19548.9
522.977	19331.9
528.622	19208.9
534.261	19109.9
539.894	19107.9
545.521	18905.9
551.141	18793.9
556.756	18651.9
562.365	18540.9
567.968	18361.9
573.565	18273.9
579.155	18183.9
584.74	18084.9
590.319	17895.9
595.892	17927.9
601.459	17882.9
607.02	17859.9
612.575	17932.9
618.124	17841.9
623.667	17878.9
629.204	17762.9
634.735	17824.9
640.261	17723.9
645.781	17857.9
651.294	17525.9
656.802	17428.9
662.304	17284.9
667.8	17061.9
673.29	17034.9
678.775	16951.9
684.254	16976.9
689.726	16912.9
695.193	16806.9
700.655	16799.9
706.11	16979.9
711.56	16881.9
717.004	16887.9
722.442	17030.9
727.874	16836.9
733.301	16947.9
738.722	16872.9
744.137	16696.9
749.547	16663.9
754.951	16577.9
760.349	16466.9
765.741	16331.9
771.128	16311.9
776.509	16254.9
781.885	16253.9
787.254	16349.9
792.618	16327.9
797.977	16311.9
803.33	16333.9
808.677	16442.9
814.019	16424.9
819.355	16449.9
824.686	16444.9
830.011	16434.9
835.33	16172.9
840.644	16014.9
845.952	15943.9
851.255	15756.9
856.552	15738.9
861.844	15549.9
867.13	15525.9
872.41	15397.9
877.686	15404.9
882.955	15558.9
888.219	15589.9
893.478	15679.9
898.731	15569.9
903.979	15474.9
909.221	15503.9
914.458	15350.9
919.69	15184.9
924.916	15103.9
930.136	14923.9
935.351	14792.9
940.561	14586.9
945.766	14425.9
950.965	14306.9
956.158	14496.9
961.347	14433.9
966.529	14485.9
971.707	14466.9
976.879	14447.9
982.046	14469.9
987.208	14551.9
992.364	14363.9
997.515	14404.9
1002.66	14232.9
1007.801	14288.9
1012.936	14268.9
1018.066	14232.9
1023.19	14056.9
1028.309	13966.9
1033.423	14123.9
1038.532	14170.9
1043.636	14381.9
1048.734	14319.9
1053.827	14436.9
1058.915	14411.9
1063.998	14265.9
1069.075	14129.9
1074.147	13908.9
1079.214	13808.9
1084.276	13630.9
1089.333	13585.9
1094.385	13633.9
1099.431	13498.9
1104.472	13549.9
1109.509	13649.9
1114.54	13716.9
1119.565	13734.9
1124.586	13794.9
1129.602	13684.9
1134.613	13664.9
1139.618	13586.9
1144.619	13341.9
1149.614	13155.9
1154.604	13083.9
1159.589	12944.9
1164.57	12786.9
1169.545	12838.9
1174.515	12870.9
1179.48	12995.9
1184.44	13049.9
1189.395	13133.9
1194.345	13231.9
1199.29	13268.9
1204.23	13333.9
1209.165	13247.9
1214.095	13186.9
1219.021	13026.9
1223.941	13038.9
1228.856	12991.9
1233.766	12961.9
1238.672	12911.9
1243.572	12816.9
1248.467	12884.9
1253.358	12985.9
1258.244	13000.9
1263.124	12957.9
1268	12853.9
1272.871	12753.9
1277.737	12674.9
1282.599	12463.9
1287.455	12293.9
1292.306	12155.9
1297.153	12123.9
1301.995	11939.9
1306.832	12007.9
1311.664	11951.9
1316.491	12036.9
1321.314	12051.9
1326.132	12027.9
1330.945	11940.9
1335.753	11812.9
1340.556	11678.9
1345.354	11471.9
1350.148	11275.9
1354.937	11163.9
1359.722	11099.9
1364.501	10856.9
1369.276	10845.9
1374.046	10863.9
1378.811	10952.9
1383.572	11040.9
1388.327	10768.9
1393.079	11111.9
1397.825	11280.9
1402.567	11234.9
1407.304	11219.9
1412.036	11169.9
1416.764	11118.9
1421.487	11224.9
1426.205	10872.9
1430.919	10768.9
1435.628	10629.9
1440.333	10541.9
1445.032	10473.9
1449.727	10505.9
1454.418	10556.9
1459.104	10452.9
1463.785	10257.9
1468.462	10377.9
1473.134	10273.9
1477.802	10133.9
1482.465	10078.9
1487.123	9907.9
1491.777	9992.9
1496.426	9791.9
1501.071	9732.9
1505.711	9789.9
1510.347	9804.9
1514.978	9861.9
1519.604	9973.9
1524.226	10138.9
1528.844	10290.9
1533.457	10301.9
1538.065	10416.9
1542.669	10386.9
1547.269	10448.9
1551.864	10437.9
1556.454	10484.9
1561.041	10361.9
1565.622	10279.9
1570.199	10191.9
1574.772	10116.9
1579.34	9991.9
1583.904	10031.9
1588.464	10082.9
1593.019	10069.9
1597.569	10180.9
1602.115	10198.9
1606.657	10272.9
1611.195	10388.9
1615.728	10421.9
1620.256	10482.9
1624.78	10363.9
1629.3	10394.9
1633.816	10325.9
1638.327	10245.9
1642.834	10234.9
1647.336	10189.9
1651.834	10107.9
1656.328	10135.9
1660.817	10087.9
1665.302	10071.9
1669.783	10096.9
1674.259	9936.9
1678.732	9722.9
1683.199	9471.9
1687.663	9283.9
1692.122	8959.9
1696.577	8736.9
1701.028	8777.9
1705.474	8606.9
1709.917	8602.9
1714.355	8535.9
1718.788	8408.9
1723.218	8311.9
1727.643	8062.9
1732.064	8014.9
1736.481	7926.9
1740.893	7716.9
1745.301	7625.9
1749.705	7604.9
1754.105	7314.9
1758.501	7231.9
1762.893	6961.9
1767.28	6828.9
1771.663	6670.9
1776.042	6563.9
1780.417	6465.9
1784.787	6290.9
1789.154	6327.9
1793.516	6341.9
1797.874	6525.9
1802.228	6599.9
1806.578	6761.9
1810.924	6607.9
1815.266	6724.9
1819.603	6720.9
1823.937	6675.9
1828.266	6631.9
1832.591	6586.9
1836.913	6459.9
1841.23	6538.9
1845.543	6416.9
1849.852	6272.9
1854.156	6281.9
1858.457	6219.9
1862.754	6117.9
1867.047	6144.9
1871.335	6025.9
1875.62	6016.9
1879.9	6027.9
1884.177	6058.9
1888.449	5986.9
1892.718	5998.9
1896.982	6013.9
1901.243	6046.9
1905.499	5929.9
1909.752	5978.9
1914	6023.9
1918.245	5948.9
1922.485	5901.9
1926.722	5977.9
1930.954	5955.9
1935.183	5999.9
1939.408	5962.9
1943.628	6005.9
1947.845	6012.9
1952.058	6063.9
1956.267	5991.9
1960.472	5957.9
1964.673	6038.9
1968.87	5964.9
1973.063	5960.9
1977.252	5892.9
1981.438	5784.9
1985.619	5686.9
1989.797	5623.9
1993.971	5554.9
1998.14	5476.9
2002.306	5448.9
2006.469	5396.9
2010.627	5378.9
2014.781	5368.9
2018.932	5302.9
2023.078	5228.9
2027.221	5305.9
2031.36	5245.9
2035.495	5277.9
2039.627	5233.9
2043.754	5173.9
2047.878	5067.9
2051.998	5024.9
2056.114	5040.9
2060.226	5047.9
2064.334	4991.9
2068.439	4920.9
2072.54	4917.9
2076.637	5027.9
2080.73	5011.9
2084.82	5021.9
2088.906	4979.9
2092.988	4912.9
2097.066	5193.9
2101.14	5088.9
2105.211	5131.9
2109.278	5111.9
2113.342	5156.9
2117.401	5125.9
2121.457	5089.9
2125.509	5043.9
2129.558	4876.9
2133.602	4942.9
2137.643	4808.9
2141.681	4779.9
2145.714	4744.9
2149.744	4695.9
2153.77	4712.9
2157.793	4584.9
2161.812	4634.9
2165.827	4566.9
2169.838	4500.9
2173.846	4530.9
2177.851	4406.9
2181.851	4434.9
2185.848	4501.9
2189.841	4217.9
2193.831	4354.9
2197.817	4179.9
2201.799	4231.9
2205.778	4232.9
2209.753	4144.9
2213.725	4122.9
2217.693	4093.9
2221.657	4122.9
2225.618	4033.9
2229.575	4025.9
2233.529	3940.9
2237.479	4016.9
2241.425	3961.9
2245.368	4043.9
2249.307	3971.9
2253.243	3984.9
2257.175	3898.9
2261.104	3772.9
2265.029	3751.9
2268.95	3708.9
2272.868	3639.9
2276.783	3648.9
2280.694	3502.9
2284.601	3456.9
2288.505	3452.9
2292.405	3385.9
2296.302	3387.9
2300.195	3331.9
2304.085	3434.9
2307.971	3453.9
2311.854	3302.9
2315.734	3280.9
2319.609	3232.9
2323.482	3335.9
2327.351	3207.9
2331.216	3253.9
2335.078	3222.9
2338.937	3161.9
2342.792	3195.9
2346.643	3072.9
2350.492	3123.9
2354.336	3104.9
2358.178	3070.9
2362.015	3104.9
2365.85	3107.9
2369.681	3123.9
2373.508	3104.9
2377.333	3086.9
2381.153	3143.9
2384.971	3115.9
2388.785	3068.9
2392.595	3133.9
2396.402	3141.9
2400.206	3170.9
2404.007	3116.9
2407.804	3055.9
2411.597	2956.9
2415.388	3002.9
2419.174	2952.9
2422.958	2959.9
2426.738	2899.9
2430.515	2761.9
2434.289	2928.9
2438.059	2863.9
2441.825	2832.9
2445.589	2728.9
2449.349	2804.9
2453.106	2751.9
2456.859	2726.9
2460.61	2797.9
2464.356	2719.9
2468.1	2665.9
2471.84	2735.9
2475.577	2674.9
2479.311	2618.9
2483.041	2606.9
2486.768	2568.9
2490.492	2467.9
2494.213	2550.9
2497.93	2560.9
2501.644	2609.9
2505.355	2592.9
2509.062	2560.9
2512.766	2590.9
2516.467	2593.9
2520.165	2509.9
2523.859	2574.9
2527.551	2445.9
2531.239	2514.9
2534.923	2504.9
2538.605	2559.9
2542.283	2464.9
2545.958	2470.9
2549.63	2441.9
2553.299	2447.9
2556.964	2413.9
2560.626	2452.9
2564.285	2332.9
2567.941	2423.9
2571.594	2433.9
2575.243	2262.9
2578.89	2402.9
2582.533	2446.9
2586.173	2343.9
2589.809	2340.9
2593.443	2475.9
2597.073	2353.9
2600.701	2236.9
2604.325	2347.9
2607.946	2279.9
2611.564	2226.9
2615.178	2156.9
2618.79	2156.9
2622.398	2227.9
2626.004	2226.9
2629.606	2194.9
2633.205	2237.9
2636.801	2092.9
2640.394	2134.9
2643.983	2089.9
2647.57	2107.9
2651.153	2027.9
2654.734	1998.9
2658.311	2150.9
2661.885	2020.9
2665.456	2009.9
2669.025	1931.9
2672.589	1935.9
2676.151	1814.9
2679.71	1812.9
2683.266	1778.9
2686.819	1831.9
2690.368	1824.9
2693.915	1819.9
2697.458	1867.9
2700.999	1703.9
2704.536	1694.9
2708.071	1673.9
2711.602	1697.9
2715.13	1736.9
2718.656	1706.9
2722.178	1574.9
2725.697	1605.9
2729.214	1500.9
2732.727	1515.9
2736.237	1591.9
2739.744	1537.9
2743.249	1547.9
2746.75	1551.9
2750.248	1606.9
2753.743	1692.9
2757.236	1604.9
2760.725	1667.9
2764.211	1696.9
2767.695	1614.9
2771.175	1659.9
2774.652	1640.9
2778.127	1650.9
2781.598	1628.9
2785.067	1615.9
2788.532	1611.9
2791.995	1628.9
2795.455	1600.9
2798.911	1599.9
2802.365	1647.9
2805.816	1622.9
2809.264	1608.9
2812.709	1583.9
2816.151	1630.9
2819.59	1720.9
2823.026	1685.9
2826.46	1718.9
2829.89	1684.9
2833.318	1867.9
2836.742	1714.9
2840.164	1733.9
2843.583	1731.9
2846.999	1745.9
2850.412	1736.9
2853.822	1796.9
2857.229	1701.9
2860.634	1736.9
2864.035	1809.9
2867.434	1780.9
2870.83	1686.9
2874.223	1856.9
2877.613	1744.9
2881	1910.9
2884.385	2002.9
2887.766	2029.9
2891.145	2096.9
2894.521	2044.9
2897.894	2046.9
2901.264	1806.9
2904.631	2032.9
2907.996	2033.9
2911.358	2046.9
2914.717	2053.9
2918.073	2043.9
2921.426	2048.9
2924.777	2065.9
2928.124	2131.9
2931.469	2099.9
2934.811	2266.9
2938.15	2187.9
2941.487	2219.9
2944.821	2177.9
2948.152	2281.9
2951.48	1961.9
2954.805	2287.9
2958.128	2170.9
2961.447	2268.9
2964.765	2178.9
2968.079	2297.9
2971.39	2259.9
2974.699	2269.9
2978.005	2230.9
2981.308	2335.9
2984.609	2410.9
2987.907	2354.9
2991.202	2458.9
2994.494	2484.9
2997.784	2466.9
3001.07	2486.9
3004.355	2549.9
3007.636	2584.9
3010.915	2587.9
3014.191	2729.9
3017.464	2699.9
3020.734	2704.9
3024.002	2827.9
3027.267	2772.9
3030.53	2904.9
3033.789	2882.9
3037.046	3002.9
3040.301	2973.9
3043.552	3038.9
3046.801	3153.9
3050.048	3081.9
3053.291	3034.9
3056.532	3267.9
3059.771	3357.9
3063.006	3338.9
3066.239	3386.9
3069.469	3503.9
3072.697	3757.9
3075.922	3819.9
3079.144	3931.9
3082.364	3997.9
3085.581	4143.9
3088.795	4191.9
3092.007	4217.9
3095.216	4453.9
3098.423	4619.9
3101.627	4783.9
3104.828	4854.9
3108.026	4947.9
3111.222	4966.9
3114.416	5027.9
3117.607	5239.9
3120.795	5283.9
3123.98	5370.9
3127.163	5547.9
3130.344	5577.9
3133.521	5689.9
3136.696	5845.9
3139.869	5908.9
3143.039	6112.9
3146.206	6158.9
3149.371	6215.9
3152.533	6366.9
3155.693	6489.9
3158.85	6556.9
3162.005	6620.9
3165.157	6799.9
3168.306	6746.9
3171.453	6719.9
3174.597	6867.9
3177.739	6939.9
3180.878	6864.9
3184.014	6846.9
3187.149	6848.9
3190.28	6824.9
3193.409	6765.9
3196.536	6769.9
3199.659	6768.9
3202.781	6766.9
3205.9	6810.9
3209.016	6828.9
3212.13	6765.9
3215.241	6703.9
3218.35	6856.9
3221.456	6881.9
3224.56	6948.9
3227.661	6919.9
3230.76	6866.9
3233.856	6872.9
3236.95	6894.9
3240.041	6868.9
3243.13	6732.9
3246.216	6790.9
3249.3	6577.9
3252.382	6669.9
3255.46	6689.9
3258.537	6389.9
3261.611	6616.9
3264.682	6456.9
3267.751	6418.9
3270.818	6432.9
3273.882	6233.9
3276.943	6228.9
3280.002	6158.9
3283.059	6131.9
3286.113	6168.9
3289.165	6168.9
3292.214	6134.9
3295.261	5955.9
3298.306	5985.9
3301.348	5853.9
3304.387	5777.9
3307.425	5707.9
3310.459	5686.9
3313.492	5430.9
3316.521	5510.9
3319.549	5337.9
3322.574	5284.9
3325.597	5214.9
3328.617	5197.9
3331.635	5068.9
3334.65	5111.9
3337.663	5069.9
3340.674	5035.9
3343.682	4964.9
3346.688	4922.9
3349.691	4857.9
3352.692	4964.9
3355.691	4768.9
3358.687	4860.9
3361.681	4872.9
3364.673	4801.9
3367.662	4739.9
3370.649	4811.9
3373.633	4770.9
3376.615	4711.9
3379.595	4726.9
3382.572	4643.9
3385.547	4477.9
3388.52	4564.9
3391.49	4493.9
3394.458	4427.9
3397.424	4276.9
3400.387	4343.9
3403.348	4042.9
3406.307	4109.9
3409.263	4096.9
3412.217	3989.9
3415.168	3955.9
3418.118	3900.9
3421.065	3846.9
3424.009	3794.9
3426.951	3729.9
3429.891	3518.9
3432.829	3713.9
3435.764	3667.9
3438.697	3589.9
3441.628	3461.9
3444.557	3446.9
3447.483	3431.9
3450.407	3319.9
3453.328	3280.9
3456.247	3201.9
3459.164	3134.9
3462.079	3038.9
3464.991	3032.9
3467.902	2851.9
3470.809	2857.9
3473.715	2701.9
3476.618	2646.9
3479.519	2576.9
3482.418	2574.9
3485.315	2388.9
3488.209	2288.9
3491.101	2293.9
3493.99	2279.9
3496.878	1957.9
3499.763	2019.9
3502.646	1989.9
3505.527	2024.9
3508.405	1877.9
3511.281	1845.9
3514.155	1856.9
3517.027	1835.9
3519.897	1841.9
3522.764	1606.9
3525.629	1662.9
3528.492	1612.9
3531.352	1392.9
3534.211	1382.9
3537.067	1389.9
3539.921	1308.9
3542.773	1306.9
3545.622	1250.9
3548.469	1199.9
3551.315	1155.9
3554.157	1029.9
3556.998	933.9
3559.837	851.9
3562.673	817.9
3565.507	808.9
3568.339	781.9
3571.169	809.9
3573.996	801.9
3576.822	763.9
3579.645	692.9
3582.466	681.9
3585.285	594.9
3588.101	578.9
3590.916	645.9
3593.728	559.9
3596.538	567.9
3599.346	478.9
3602.152	532.9
3604.956	492.9
3607.757	491.9
3610.556	471.9
3613.354	428.9
3616.149	324.9
3618.942	368.9
3621.732	128.9
3624.521	320.9
3627.307	223.9
3630.092	262.9
3632.874	223.9
3635.654	234.9
3638.432	255.9
3641.208	161.9
3643.982	217.9
3646.753	113.9
3649.523	138.9
3652.29	145.9
3655.055	75.9
3657.818	87.9
3660.579	98.9
3663.338	146.9
3666.095	16.9
3668.849	184.9
3671.602	-0.1
3674.352	84.9
3677.101	18.9
3679.847	-49.1
3682.591	27.9
3685.333	-47.1
3688.073	-51.1
3690.811	15.9
3693.547	20.9
3696.281	-43.1
3699.013	-132.1
3701.742	-119.1
3704.47	-6.1
3707.195	-105.1
3709.919	-127.1
3712.64	-66.1
3715.359	-276.1
3718.076	-177.1
3720.792	-146.1
3723.505	-106.1
3726.216	-170.1
3728.925	-132.1
3731.632	-225.1
3734.336	-65.1
3737.039	-154.1
3739.74	-198.1
3742.439	70.9
3745.136	-146.1
3747.83	-204.1
3750.523	-181.1
3753.213	-354.1
3755.902	-198.1
3758.589	-118.1
3761.273	-156.1
3763.956	-249.1
3766.636	-170.1
3769.315	-257.1
3771.991	-83.1
3774.665	-177.1
3777.338	-144.1
3780.008	-100.1
3782.677	-149.1
3785.343	-105.1
3788.007	-146.1
3790.67	-198.1
3793.33	-158.1
3795.989	-144.1
3798.645	-231.1
3801.299	-123.1
3803.952	-265.1
3806.602	-260.1
3809.251	-209.1
3811.897	-217.1
3814.542	-292.1
3817.184	-214.1
3819.825	-174.1
3822.463	-170.1
3825.1	-216.1
3827.735	-188.1
3830.367	-215.1
3832.998	-291.1
3835.627	-316.1
3838.253	-321.1
3840.878	-219.1
3843.501	-294.1
3846.122	-237.1
3848.741	-264.1
3851.358	-220.1
3853.973	-225.1
3856.586	-221.1
3859.197	-304.1
3861.806	-288.1
3864.414	-173.1
3867.019	-221.1
3869.622	-297.1
3872.224	-278.1
3874.823	-199.1
3877.421	-170.1
3880.016	-164.1
3882.61	-59.1
3885.202	-164.1
3887.792	-160.1
3890.38	-220.1
3892.966	-189.1
3895.55	-215.1
3898.132	-225.1
3900.713	-323.1
3903.291	-227.1
3905.868	-295.1
3908.442	-301.1
3911.015	-258.1
3913.586	-255.1
3916.155	-280.1
3918.722	-225.1
3921.287	-243.1
3923.85	-202.1
3926.411	-327.1
3928.971	-315.1
3931.528	-243.1
3934.084	-308.1
3936.638	-304.1
3939.19	-287.1
3941.74	-298.1
3944.288	-339.1
3946.834	-276.1
3949.378	-275.1
3951.921	-242.1
3954.462	-251.1
3957	-260.1
3959.537	-191.1
3962.072	-214.1
3964.606	-155.1
3967.137	-208.1
3969.667	-276.1
3972.194	-264.1
3974.72	-226.1
3977.244	-240.1
3979.766	-218.1
3982.286	-192.1
3984.805	-272.1
3987.321	-298.1
3989.836	-262.1
3992.349	-227.1
3994.86	-262.1
3997.369	-274.1
3999.877	-270.1
4002.382	-302.1
4004.886	-321.1
4007.388	-204.1
4009.888	-141.1
4012.386	-241.1
4014.883	-223.1
4017.377	-262.1
4019.87	-390.1
4022.361	-232.1
4024.85	-207.1
4027.338	-187.1
4029.823	-266.1
4032.307	-235.1
4034.789	-211.1
4037.269	-164.1
4039.747	-202.1
4042.224	-281.1
4044.699	-275.1
4047.172	-281.1
4049.643	-309.1
4052.112	-236.1
4054.58	-256.1
4057.046	-250.1
4059.51	-183.1
4061.972	-283.1
4064.432	-166.1
4066.891	-336.1
4069.348	-175.1
4071.803	-304.1
4074.256	-289.1
4076.708	-259.1
4079.158	-284.1
4081.606	-325.1
4084.052	-236.1
4086.497	-255.1
4088.939	-232.1
4091.38	-199.1
4093.819	-261.1
4096.257	-893.1
4098.693	-887.1
4101.127	-934.1
4103.559	-979.1
4105.989	105.9
4108.418	-87.1
4110.845	81.9
4113.27	-1.1
4115.694	185.9
4118.115	129.9
4120.535	-301.1
4122.954	-318.1
4125.37	-298.1
4127.785	-264.1
4130.198	-319.1
4132.609	-328.1
4135.019	-953.1
4137.427	-967.1
4139.833	-930.1
4142.237	-826.1
