Data from 2018-2-8_conc=2_RamanShift_15.txt Node
Date: Wed Feb 07 10:00:40 IST 2018
User: aro
Spectrometer: QEPB0276
Trigger mode: 0
Integration Time (sec): 3.000000E1
Scans to average: 1
Electric dark correction enabled: true
Nonlinearity correction enabled: false
Boxcar width: 0
XAxis mode: Raman Shifts
Number of Pixels in Spectrum: 1044
>>>>>Begin Spectral Data<<<<<
160.701	392.9
166.742	528.9
172.777	1014.9
178.805	2613.9
184.826	6186.9
190.841	12330.9
196.849	19837.9
202.85	25477.9
208.845	27588.9
214.833	27357.9
220.815	27123.9
226.789	25703.9
232.758	26756.9
238.719	26837.9
244.674	26626.9
250.623	26131.9
256.565	25813.9
262.5	25223.9
268.429	24699.9
274.351	24380.9
280.267	24223.9
286.176	23744.9
292.079	23530.9
297.975	23232.9
303.865	22988.9
309.748	22878.9
315.625	22744.9
321.495	22324.9
327.359	22304.9
333.217	22337.9
339.068	22263.9
344.912	22299.9
350.751	22211.9
356.583	22247.9
362.408	22295.9
368.227	22169.9
374.04	22315.9
379.847	22467.9
385.647	22519.9
391.44	22751.9
397.228	22800.9
403.009	22966.9
408.784	23153.9
414.553	23170.9
420.315	23270.9
426.071	23385.9
431.821	23257.9
437.565	23222.9
443.302	22975.9
449.033	23024.9
454.758	22894.9
460.477	22806.9
466.189	22683.9
471.896	22621.9
477.596	22516.9
483.29	22510.9
488.978	22513.9
494.66	22496.9
500.335	22453.9
506.005	22349.9
511.668	22185.9
517.325	22052.9
522.977	21819.9
528.622	21815.9
534.261	21678.9
539.894	21634.9
545.521	21476.9
551.141	21392.9
556.756	21140.9
562.365	21080.9
567.968	20914.9
573.565	20786.9
579.155	20644.9
584.74	20489.9
590.319	20400.9
595.892	20433.9
601.459	20383.9
607.02	20347.9
612.575	20343.9
618.124	20241.9
623.667	20385.9
629.204	20234.9
634.735	20337.9
640.261	20216.9
645.781	20288.9
651.294	19993.9
656.802	19838.9
662.304	19744.9
667.8	19436.9
673.29	19464.9
678.775	19346.9
684.254	19382.9
689.726	19373.9
695.193	19217.9
700.655	19270.9
706.11	19403.9
711.56	19228.9
717.004	19358.9
722.442	19175.9
727.874	19194.9
733.301	19304.9
738.722	19320.9
744.137	19035.9
749.547	18924.9
754.951	18882.9
760.349	18773.9
765.741	18580.9
771.128	18568.9
776.509	18532.9
781.885	18554.9
787.254	18469.9
792.618	18593.9
797.977	18711.9
803.33	18758.9
808.677	18799.9
814.019	18729.9
819.355	18808.9
824.686	18751.9
830.011	18758.9
835.33	18523.9
840.644	18365.9
845.952	18289.9
851.255	18007.9
856.552	17962.9
861.844	17790.9
867.13	17823.9
872.41	17800.9
877.686	17685.9
882.955	17803.9
888.219	17864.9
893.478	17883.9
898.731	17842.9
903.979	17758.9
909.221	17760.9
914.458	17691.9
919.69	17417.9
924.916	17336.9
930.136	17105.9
935.351	17050.9
940.561	16792.9
945.766	16670.9
950.965	16558.9
956.158	16574.9
961.347	16665.9
966.529	16704.9
971.707	16697.9
976.879	16628.9
982.046	16703.9
987.208	16671.9
992.364	16505.9
997.515	16517.9
1002.66	16330.9
1007.801	16440.9
1012.936	16279.9
1018.066	16332.9
1023.19	16216.9
1028.309	16075.9
1033.423	16346.9
1038.532	16345.9
1043.636	16537.9
1048.734	16511.9
1053.827	16581.9
1058.915	16509.9
1063.998	16427.9
1069.075	16185.9
1074.147	16024.9
1079.214	15983.9
1084.276	15651.9
1089.333	15630.9
1094.385	15557.9
1099.431	15668.9
1104.472	15561.9
1109.509	15711.9
1114.54	15772.9
1119.565	15898.9
1124.586	15845.9
1129.602	15820.9
1134.613	15704.9
1139.618	15629.9
1144.619	15384.9
1149.614	15170.9
1154.604	15036.9
1159.589	14983.9
1164.57	14728.9
1169.545	14831.9
1174.515	14851.9
1179.48	14943.9
1184.44	15030.9
1189.395	15106.9
1194.345	15336.9
1199.29	15212.9
1204.23	15370.9
1209.165	15276.9
1214.095	15089.9
1219.021	14907.9
1223.941	14879.9
1228.856	14889.9
1233.766	14859.9
1238.672	14782.9
1243.572	14798.9
1248.467	14783.9
1253.358	14931.9
1258.244	14897.9
1263.124	14791.9
1268	14764.9
1272.871	14712.9
1277.737	14613.9
1282.599	14374.9
1287.455	14223.9
1292.306	14028.9
1297.153	13990.9
1301.995	13878.9
1306.832	13730.9
1311.664	13757.9
1316.491	13832.9
1321.314	13798.9
1326.132	13842.9
1330.945	13720.9
1335.753	13659.9
1340.556	13437.9
1345.354	13296.9
1350.148	13015.9
1354.937	12853.9
1359.722	12750.9
1364.501	12566.9
1369.276	12520.9
1374.046	12415.9
1378.811	12500.9
1383.572	12628.9
1388.327	12445.9
1393.079	12904.9
1397.825	12984.9
1402.567	12925.9
1407.304	12889.9
1412.036	12791.9
1416.764	12826.9
1421.487	13029.9
1426.205	12612.9
1430.919	12436.9
1435.628	12290.9
1440.333	12234.9
1445.032	12021.9
1449.727	12077.9
1454.418	12091.9
1459.104	11988.9
1463.785	11885.9
1468.462	11873.9
1473.134	11887.9
1477.802	11717.9
1482.465	11667.9
1487.123	11461.9
1491.777	11539.9
1496.426	11333.9
1501.071	11197.9
1505.711	11214.9
1510.347	11253.9
1514.978	11356.9
1519.604	11487.9
1524.226	11525.9
1528.844	11803.9
1533.457	11836.9
1538.065	11908.9
1542.669	11913.9
1547.269	11999.9
1551.864	11952.9
1556.454	12126.9
1561.041	11973.9
1565.622	11904.9
1570.199	11619.9
1574.772	11697.9
1579.34	11380.9
1583.904	11529.9
1588.464	11526.9
1593.019	11492.9
1597.569	11692.9
1602.115	11736.9
1606.657	11784.9
1611.195	11828.9
1615.728	11862.9
1620.256	11903.9
1624.78	11906.9
1629.3	11898.9
1633.816	11588.9
1638.327	11706.9
1642.834	11577.9
1647.336	11481.9
1651.834	11492.9
1656.328	11454.9
1660.817	11315.9
1665.302	11519.9
1669.783	11388.9
1674.259	11296.9
1678.732	11003.9
1683.199	10782.9
1687.663	10589.9
1692.122	10243.9
1696.577	9889.9
1701.028	9896.9
1705.474	9797.9
1709.917	9832.9
1714.355	9847.9
1718.788	9695.9
1723.218	9528.9
1727.643	9257.9
1732.064	9123.9
1736.481	9217.9
1740.893	8905.9
1745.301	8860.9
1749.705	8869.9
1754.105	8387.9
1758.501	8456.9
1762.893	8133.9
1767.28	7996.9
1771.663	7773.9
1776.042	7698.9
1780.417	7556.9
1784.787	7358.9
1789.154	7380.9
1793.516	7295.9
1797.874	7506.9
1802.228	7614.9
1806.578	7822.9
1810.924	7749.9
1815.266	7715.9
1819.603	7823.9
1823.937	7800.9
1828.266	7625.9
1832.591	7627.9
1836.913	7575.9
1841.23	7616.9
1845.543	7535.9
1849.852	7293.9
1854.156	7279.9
1858.457	7246.9
1862.754	7011.9
1867.047	7129.9
1871.335	7027.9
1875.62	6948.9
1879.9	6965.9
1884.177	7090.9
1888.449	6990.9
1892.718	6961.9
1896.982	6871.9
1901.243	7105.9
1905.499	6992.9
1909.752	6942.9
1914	7026.9
1918.245	6885.9
1922.485	6913.9
1926.722	6909.9
1930.954	6950.9
1935.183	6943.9
1939.408	6938.9
1943.628	6949.9
1947.845	6923.9
1952.058	7039.9
1956.267	6881.9
1960.472	6938.9
1964.673	6904.9
1968.87	7022.9
1973.063	6956.9
1977.252	6888.9
1981.438	6767.9
1985.619	6579.9
1989.797	6535.9
1993.971	6447.9
1998.14	6328.9
2002.306	6284.9
2006.469	6285.9
2010.627	6214.9
2014.781	6191.9
2018.932	6277.9
2023.078	6066.9
2027.221	6067.9
2031.36	6096.9
2035.495	6135.9
2039.627	6077.9
2043.754	5952.9
2047.878	5865.9
2051.998	5879.9
2056.114	5921.9
2060.226	5870.9
2064.334	5811.9
2068.439	5678.9
2072.54	5732.9
2076.637	5848.9
2080.73	5763.9
2084.82	5685.9
2088.906	5821.9
2092.988	5703.9
2097.066	5872.9
2101.14	5823.9
2105.211	5914.9
2109.278	5930.9
2113.342	5863.9
2117.401	5931.9
2121.457	5872.9
2125.509	5823.9
2129.558	5625.9
2133.602	5670.9
2137.643	5550.9
2141.681	5509.9
2145.714	5472.9
2149.744	5413.9
2153.77	5455.9
2157.793	5358.9
2161.812	5411.9
2165.827	5418.9
2169.838	5224.9
2173.846	5239.9
2177.851	5162.9
2181.851	5100.9
2185.848	5161.9
2189.841	5054.9
2193.831	5045.9
2197.817	4883.9
2201.799	4850.9
2205.778	4870.9
2209.753	4853.9
2213.725	4822.9
2217.693	4740.9
2221.657	4756.9
2225.618	4677.9
2229.575	4707.9
2233.529	4614.9
2237.479	4680.9
2241.425	4624.9
2245.368	4688.9
2249.307	4600.9
2253.243	4570.9
2257.175	4538.9
2261.104	4497.9
2265.029	4436.9
2268.95	4362.9
2272.868	4300.9
2276.783	4293.9
2280.694	4045.9
2284.601	4084.9
2288.505	4053.9
2292.405	3959.9
2296.302	3998.9
2300.195	3940.9
2304.085	4027.9
2307.971	3934.9
2311.854	3924.9
2315.734	3853.9
2319.609	3824.9
2323.482	3921.9
2327.351	3836.9
2331.216	3805.9
2335.078	3773.9
2338.937	3727.9
2342.792	3798.9
2346.643	3686.9
2350.492	3629.9
2354.336	3649.9
2358.178	3598.9
2362.015	3666.9
2365.85	3690.9
2369.681	3674.9
2373.508	3669.9
2377.333	3636.9
2381.153	3713.9
2384.971	3652.9
2388.785	3691.9
2392.595	3673.9
2396.402	3761.9
2400.206	3750.9
2404.007	3735.9
2407.804	3589.9
2411.597	3571.9
2415.388	3629.9
2419.174	3524.9
2422.958	3509.9
2426.738	3483.9
2430.515	3357.9
2434.289	3487.9
2438.059	3474.9
2441.825	3448.9
2445.589	3288.9
2449.349	3390.9
2453.106	3289.9
2456.859	3283.9
2460.61	3200.9
2464.356	3229.9
2468.1	3212.9
2471.84	3259.9
2475.577	3271.9
2479.311	3179.9
2483.041	3128.9
2486.768	3010.9
2490.492	2857.9
2494.213	3271.9
2497.93	3093.9
2501.644	3149.9
2505.355	3120.9
2509.062	3035.9
2512.766	3051.9
2516.467	3096.9
2520.165	3077.9
2523.859	3075.9
2527.551	2836.9
2531.239	2980.9
2534.923	3056.9
2538.605	3063.9
2542.283	2892.9
2545.958	2994.9
2549.63	2764.9
2553.299	2894.9
2556.964	2866.9
2560.626	2925.9
2564.285	2865.9
2567.941	2910.9
2571.594	2942.9
2575.243	2780.9
2578.89	2944.9
2582.533	2892.9
2586.173	2842.9
2589.809	2819.9
2593.443	2981.9
2597.073	2845.9
2600.701	2744.9
2604.325	2809.9
2607.946	2755.9
2611.564	2720.9
2615.178	2659.9
2618.79	2630.9
2622.398	2721.9
2626.004	2682.9
2629.606	2556.9
2633.205	2727.9
2636.801	2514.9
2640.394	2564.9
2643.983	2533.9
2647.57	2593.9
2651.153	2514.9
2654.734	2412.9
2658.311	2542.9
2661.885	2445.9
2665.456	2324.9
2669.025	2372.9
2672.589	2305.9
2676.151	2212.9
2679.71	2252.9
2683.266	2200.9
2686.819	2279.9
2690.368	2224.9
2693.915	2187.9
2697.458	2254.9
2700.999	2082.9
2704.536	2089.9
2708.071	2057.9
2711.602	2081.9
2715.13	2049.9
2718.656	2053.9
2722.178	1942.9
2725.697	1966.9
2729.214	1734.9
2732.727	1853.9
2736.237	2050.9
2739.744	1902.9
2743.249	1919.9
2746.75	1944.9
2750.248	2024.9
2753.743	2008.9
2757.236	1939.9
2760.725	1947.9
2764.211	2086.9
2767.695	1933.9
2771.175	2012.9
2774.652	1916.9
2778.127	2003.9
2781.598	1967.9
2785.067	1966.9
2788.532	1998.9
2791.995	1924.9
2795.455	1944.9
2798.911	2047.9
2802.365	2041.9
2805.816	1961.9
2809.264	1920.9
2812.709	2012.9
2816.151	1988.9
2819.59	2062.9
2823.026	2019.9
2826.46	2078.9
2829.89	1987.9
2833.318	2240.9
2836.742	2051.9
2840.164	2061.9
2843.583	2087.9
2846.999	2101.9
2850.412	2067.9
2853.822	2166.9
2857.229	1954.9
2860.634	2109.9
2864.035	2087.9
2867.434	2125.9
2870.83	2047.9
2874.223	2236.9
2877.613	2086.9
2881	2336.9
2884.385	2379.9
2887.766	2272.9
2891.145	2222.9
2894.521	2312.9
2897.894	2384.9
2901.264	2064.9
2904.631	2343.9
2907.996	2271.9
2911.358	2298.9
2914.717	2332.9
2918.073	2308.9
2921.426	2260.9
2924.777	2434.9
2928.124	2408.9
2931.469	2357.9
2934.811	2553.9
2938.15	2411.9
2941.487	2495.9
2944.821	2393.9
2948.152	2530.9
2951.48	2555.9
2954.805	2466.9
2958.128	2429.9
2961.447	2470.9
2964.765	2381.9
2968.079	2582.9
2971.39	2496.9
2974.699	2550.9
2978.005	2515.9
2981.308	2554.9
2984.609	2678.9
2987.907	2618.9
2991.202	2686.9
2994.494	2759.9
2997.784	2385.9
3001.07	2702.9
3004.355	2704.9
3007.636	2803.9
3010.915	2864.9
3014.191	2935.9
3017.464	2878.9
3020.734	2913.9
3024.002	2995.9
3027.267	3039.9
3030.53	3057.9
3033.789	3096.9
3037.046	3263.9
3040.301	3193.9
3043.552	3265.9
3046.801	3358.9
3050.048	3207.9
3053.291	3257.9
3056.532	3446.9
3059.771	3593.9
3063.006	3552.9
3066.239	3578.9
3069.469	3703.9
3072.697	3937.9
3075.922	4006.9
3079.144	4018.9
3082.364	4173.9
3085.581	4364.9
3088.795	4294.9
3092.007	4429.9
3095.216	4612.9
3098.423	4794.9
3101.627	4956.9
3104.828	5100.9
3108.026	5084.9
3111.222	5155.9
3114.416	5179.9
3117.607	5342.9
3120.795	5339.9
3123.98	5533.9
3127.163	5697.9
3130.344	5733.9
3133.521	5781.9
3136.696	5966.9
3139.869	6015.9
3143.039	6130.9
3146.206	6165.9
3149.371	6277.9
3152.533	6470.9
3155.693	6578.9
3158.85	6658.9
3162.005	6730.9
3165.157	6843.9
3168.306	6833.9
3171.453	6813.9
3174.597	7025.9
3177.739	6997.9
3180.878	6843.9
3184.014	6886.9
3187.149	6981.9
3190.28	6889.9
3193.409	6919.9
3196.536	6824.9
3199.659	6806.9
3202.781	6843.9
3205.9	6984.9
3209.016	6836.9
3212.13	6925.9
3215.241	6819.9
3218.35	6859.9
3221.456	6900.9
3224.56	6965.9
3227.661	6955.9
3230.76	7057.9
3233.856	6940.9
3236.95	6871.9
3240.041	6927.9
3243.13	6784.9
3246.216	6838.9
3249.3	6651.9
3252.382	6728.9
3255.46	6720.9
3258.537	5932.9
3261.611	6671.9
3264.682	6580.9
3267.751	6533.9
3270.818	6570.9
3273.882	6336.9
3276.943	6306.9
3280.002	6237.9
3283.059	6266.9
3286.113	6277.9
3289.165	6269.9
3292.214	6232.9
3295.261	6009.9
3298.306	6073.9
3301.348	5957.9
3304.387	5919.9
3307.425	5785.9
3310.459	5866.9
3313.492	5601.9
3316.521	5634.9
3319.549	5478.9
3322.574	5407.9
3325.597	5375.9
3328.617	5311.9
3331.635	5255.9
3334.65	5263.9
3337.663	5222.9
3340.674	5157.9
3343.682	5041.9
3346.688	5052.9
3349.691	5030.9
3352.692	5190.9
3355.691	4835.9
3358.687	5003.9
3361.681	4994.9
3364.673	4978.9
3367.662	4878.9
3370.649	4815.9
3373.633	4865.9
3376.615	4725.9
3379.595	4889.9
3382.572	4891.9
3385.547	4641.9
3388.52	4704.9
3391.49	4631.9
3394.458	4576.9
3397.424	4495.9
3400.387	4549.9
3403.348	4204.9
3406.307	4267.9
3409.263	4314.9
3412.217	4107.9
3415.168	4112.9
3418.118	4132.9
3421.065	4108.9
3424.009	3837.9
3426.951	3990.9
3429.891	3596.9
3432.829	3871.9
3435.764	3808.9
3438.697	3772.9
3441.628	3557.9
3444.557	3678.9
3447.483	3612.9
3450.407	3499.9
3453.328	3387.9
3456.247	3362.9
3459.164	3399.9
3462.079	3131.9
3464.991	3110.9
3467.902	3164.9
3470.809	2962.9
3473.715	2866.9
3476.618	2829.9
3479.519	2742.9
3482.418	2781.9
3485.315	2590.9
3488.209	2504.9
3491.101	2523.9
3493.99	2371.9
3496.878	2079.9
3499.763	2199.9
3502.646	2148.9
3505.527	2212.9
3508.405	2052.9
3511.281	2020.9
3514.155	2011.9
3517.027	1950.9
3519.897	2032.9
3522.764	1803.9
3525.629	1854.9
3528.492	1759.9
3531.352	1646.9
3534.211	1593.9
3537.067	1613.9
3539.921	1506.9
3542.773	1455.9
3545.622	1437.9
3548.469	1389.9
3551.315	1354.9
3554.157	1263.9
3556.998	1220.9
3559.837	1054.9
3562.673	987.9
3565.507	1042.9
3568.339	1017.9
3571.169	1019.9
3573.996	926.9
3576.822	947.9
3579.645	894.9
3582.466	828.9
3585.285	815.9
3588.101	727.9
3590.916	852.9
3593.728	712.9
3596.538	761.9
3599.346	691.9
3602.152	749.9
3604.956	640.9
3607.757	510.9
3610.556	755.9
3613.354	540.9
3616.149	584.9
3618.942	528.9
3621.732	303.9
3624.521	522.9
3627.307	484.9
3630.092	398.9
3632.874	262.9
3635.654	438.9
3638.432	443.9
3641.208	313.9
3643.982	359.9
3646.753	300.9
3649.523	349.9
3652.29	352.9
3655.055	253.9
3657.818	217.9
3660.579	277.9
3663.338	309.9
3666.095	144.9
3668.849	342.9
3671.602	225.9
3674.352	315.9
3677.101	146.9
3679.847	87.9
3682.591	215.9
3685.333	186.9
3688.073	92.9
3690.811	172.9
3693.547	243.9
3696.281	130.9
3699.013	31.9
3701.742	74.9
3704.47	165.9
3707.195	37.9
3709.919	66.9
3712.64	69.9
3715.359	-94.1
3718.076	-192.1
3720.792	55.9
3723.505	53.9
3726.216	5.9
3728.925	13.9
3731.632	-155.1
3734.336	86.9
3737.039	-17.1
3739.74	-36.1
3742.439	209.9
3745.136	-71.1
3747.83	-43.1
3750.523	-28.1
3753.213	-30.1
3755.902	-20.1
3758.589	-5.1
3761.273	49.9
3763.956	-149.1
3766.636	1.9
3769.315	-175.1
3771.991	66.9
3774.665	-104.1
3777.338	68.9
3780.008	-10.1
3782.677	-2.1
3785.343	66.9
3788.007	-67.1
3790.67	-38.1
3793.33	-124.1
3795.989	-10.1
3798.645	-105.1
3801.299	60.9
3803.952	-74.1
3806.602	-76.1
3809.251	-4.1
3811.897	-69.1
3814.542	-84.1
3817.184	-65.1
3819.825	6.9
3822.463	23.9
3825.1	-56.1
3827.735	-43.1
3830.367	-41.1
3832.998	-235.1
3835.627	-153.1
3838.253	-132.1
3840.878	-89.1
3843.501	-220.1
3846.122	-155.1
3848.741	-225.1
3851.358	-95.1
3853.973	14.9
3856.586	-80.1
3859.197	-128.1
3861.806	-143.1
3864.414	-54.1
3867.019	-88.1
3869.622	-144.1
3872.224	-179.1
3874.823	-79.1
3877.421	4.9
3880.016	24.9
3882.61	115.9
3885.202	1.9
3887.792	53.9
3890.38	-96.1
3892.966	-56.1
3895.55	-78.1
3898.132	-76.1
3900.713	-130.1
3903.291	-86.1
3905.868	-68.1
3908.442	-160.1
3911.015	-110.1
3913.586	-85.1
3916.155	-25.1
3918.722	-70.1
3921.287	-131.1
3923.85	-177.1
3926.411	-170.1
3928.971	-212.1
3931.528	-117.1
3934.084	-116.1
3936.638	-86.1
3939.19	-155.1
3941.74	-177.1
3944.288	-143.1
3946.834	-83.1
3949.378	-151.1
3951.921	-37.1
3954.462	-126.1
3957	-132.1
3959.537	-45.1
3962.072	-7.1
3964.606	31.9
3967.137	-108.1
3969.667	-142.1
3972.194	-148.1
3974.72	-74.1
3977.244	-4.1
3979.766	-65.1
3982.286	-26.1
3984.805	-110.1
3987.321	-217.1
3989.836	-127.1
3992.349	-54.1
3994.86	-110.1
3997.369	-77.1
3999.877	-154.1
4002.382	-78.1
4004.886	-110.1
4007.388	-29.1
4009.888	72.9
4012.386	-156.1
4014.883	-128.1
4017.377	-111.1
4019.87	-246.1
4022.361	-42.1
4024.85	-42.1
4027.338	-30.1
4029.823	-185.1
4032.307	-156.1
4034.789	-67.1
4037.269	-32.1
4039.747	10.9
4042.224	-147.1
4044.699	-96.1
4047.172	-83.1
4049.643	-138.1
4052.112	-16.1
4054.58	-56.1
4057.046	-85.1
4059.51	-51.1
4061.972	-153.1
4064.432	10.9
4066.891	-178.1
4069.348	-79.1
4071.803	-173.1
4074.256	-142.1
4076.708	-42.1
4079.158	-104.1
4081.606	-175.1
4084.052	-97.1
4086.497	-213.1
4088.939	-98.1
4091.38	-93.1
4093.819	-122.1
4096.257	-1106.1
4098.693	-1082.1
4101.127	-1180.1
4103.559	-1163.1
4105.989	78.9
4108.418	70.9
4110.845	263.9
4113.27	185.9
4115.694	294.9
4118.115	305.9
4120.535	-146.1
4122.954	-191.1
4125.37	-231.1
4127.785	-102.1
4130.198	-116.1
4132.609	-151.1
4135.019	-1202.1
4137.427	-1173.1
4139.833	-1146.1
4142.237	-1029.1
