Data from 2018-2-8_conc=3_RamanShift_18.txt Node
Date: Wed Feb 07 10:22:40 IST 2018
User: aro
Spectrometer: QEPB0276
Trigger mode: 0
Integration Time (sec): 3.000000E1
Scans to average: 1
Electric dark correction enabled: true
Nonlinearity correction enabled: false
Boxcar width: 0
XAxis mode: Raman Shifts
Number of Pixels in Spectrum: 1044
>>>>>Begin Spectral Data<<<<<
160.701	468.5
166.742	567.5
172.777	1033.5
178.805	2554.5
184.826	5828.5
190.841	11507.5
196.849	18434.5
202.85	23633.5
208.845	25471.5
214.833	25414.5
220.815	24911.5
226.789	24650.5
232.758	24740.5
238.719	24733.5
244.674	24455.5
250.623	24086.5
256.565	23619.5
262.5	23258.5
268.429	22654.5
274.351	22319.5
280.267	22133.5
286.176	21718.5
292.079	21452.5
297.975	21105.5
303.865	21020.5
309.748	20897.5
315.625	20768.5
321.495	20272.5
327.359	20351.5
333.217	20324.5
339.068	20358.5
344.912	20301.5
350.751	20277.5
356.583	20167.5
362.408	20225.5
368.227	20260.5
374.04	20281.5
379.847	20412.5
385.647	20462.5
391.44	20735.5
397.228	20706.5
403.009	20939.5
408.784	21024.5
414.553	21176.5
420.315	21150.5
426.071	21238.5
431.821	21214.5
437.565	21197.5
443.302	20988.5
449.033	20939.5
454.758	20860.5
460.477	20702.5
466.189	20745.5
471.896	20558.5
477.596	20447.5
483.29	20500.5
488.978	20449.5
494.66	20428.5
500.335	20409.5
506.005	20340.5
511.668	20004.5
517.325	19969.5
522.977	19804.5
528.622	19732.5
534.261	19646.5
539.894	19541.5
545.521	19412.5
551.141	19390.5
556.756	19147.5
562.365	19043.5
567.968	18936.5
573.565	18750.5
579.155	18543.5
584.74	18563.5
590.319	18432.5
595.892	18443.5
601.459	18397.5
607.02	18378.5
612.575	18431.5
618.124	18217.5
623.667	18388.5
629.204	18321.5
634.735	18264.5
640.261	18212.5
645.781	18382.5
651.294	18056.5
656.802	17941.5
662.304	17832.5
667.8	17508.5
673.29	17594.5
678.775	17480.5
684.254	17492.5
689.726	17547.5
695.193	17306.5
700.655	17357.5
706.11	17521.5
711.56	17373.5
717.004	17428.5
722.442	17579.5
727.874	17377.5
733.301	17436.5
738.722	17458.5
744.137	17296.5
749.547	17125.5
754.951	17059.5
760.349	16915.5
765.741	16771.5
771.128	16764.5
776.509	16801.5
781.885	16845.5
787.254	16701.5
792.618	16840.5
797.977	16930.5
803.33	16973.5
808.677	17092.5
814.019	17006.5
819.355	17011.5
824.686	17020.5
830.011	16997.5
835.33	16752.5
840.644	16553.5
845.952	16567.5
851.255	16246.5
856.552	16328.5
861.844	16111.5
867.13	16068.5
872.41	16038.5
877.686	15980.5
882.955	16089.5
888.219	16124.5
893.478	16230.5
898.731	16042.5
903.979	16010.5
909.221	16095.5
914.458	15968.5
919.69	15803.5
924.916	15729.5
930.136	15452.5
935.351	15451.5
940.561	15212.5
945.766	15123.5
950.965	14951.5
956.158	15054.5
961.347	15146.5
966.529	15163.5
971.707	15073.5
976.879	15049.5
982.046	15191.5
987.208	15137.5
992.364	14982.5
997.515	14948.5
1002.66	14842.5
1007.801	14890.5
1012.936	14846.5
1018.066	14890.5
1023.19	14710.5
1028.309	14636.5
1033.423	14674.5
1038.532	14836.5
1043.636	15062.5
1048.734	14928.5
1053.827	15085.5
1058.915	14999.5
1063.998	14869.5
1069.075	14746.5
1074.147	14582.5
1079.214	14563.5
1084.276	14176.5
1089.333	14254.5
1094.385	14169.5
1099.431	14361.5
1104.472	14165.5
1109.509	14293.5
1114.54	14335.5
1119.565	14443.5
1124.586	14348.5
1129.602	14352.5
1134.613	14310.5
1139.618	14236.5
1144.619	13983.5
1149.614	13781.5
1154.604	13689.5
1159.589	13635.5
1164.57	13378.5
1169.545	13463.5
1174.515	13536.5
1179.48	13596.5
1184.44	13653.5
1189.395	13787.5
1194.345	13927.5
1199.29	13913.5
1204.23	13915.5
1209.165	13826.5
1214.095	13724.5
1219.021	13637.5
1223.941	13617.5
1228.856	13603.5
1233.766	13548.5
1238.672	13431.5
1243.572	13462.5
1248.467	13498.5
1253.358	13611.5
1258.244	13601.5
1263.124	13525.5
1268	13407.5
1272.871	13405.5
1277.737	13334.5
1282.599	13078.5
1287.455	13020.5
1292.306	12713.5
1297.153	12812.5
1301.995	12603.5
1306.832	12577.5
1311.664	12590.5
1316.491	12660.5
1321.314	12596.5
1326.132	12603.5
1330.945	12473.5
1335.753	12437.5
1340.556	12243.5
1345.354	12154.5
1350.148	11903.5
1354.937	11667.5
1359.722	11630.5
1364.501	11374.5
1369.276	11247.5
1374.046	11321.5
1378.811	11409.5
1383.572	11513.5
1388.327	11254.5
1393.079	11668.5
1397.825	11785.5
1402.567	11781.5
1407.304	11718.5
1412.036	11775.5
1416.764	11704.5
1421.487	11869.5
1426.205	11466.5
1430.919	11305.5
1435.628	11230.5
1440.333	11094.5
1445.032	11003.5
1449.727	10993.5
1454.418	11043.5
1459.104	10945.5
1463.785	10769.5
1468.462	10785.5
1473.134	10787.5
1477.802	10669.5
1482.465	10674.5
1487.123	10406.5
1491.777	10492.5
1496.426	10319.5
1501.071	10115.5
1505.711	10176.5
1510.347	10197.5
1514.978	10317.5
1519.604	10362.5
1524.226	10459.5
1528.844	10781.5
1533.457	10680.5
1538.065	10791.5
1542.669	10873.5
1547.269	11003.5
1551.864	10858.5
1556.454	11046.5
1561.041	10906.5
1565.622	10914.5
1570.199	10636.5
1574.772	10684.5
1579.34	10359.5
1583.904	10495.5
1588.464	10569.5
1593.019	10565.5
1597.569	10624.5
1602.115	10681.5
1606.657	10732.5
1611.195	10792.5
1615.728	10815.5
1620.256	10890.5
1624.78	10869.5
1629.3	10983.5
1633.816	10711.5
1638.327	10673.5
1642.834	10578.5
1647.336	10604.5
1651.834	10431.5
1656.328	10497.5
1660.817	10369.5
1665.302	10421.5
1669.783	10445.5
1674.259	10277.5
1678.732	10086.5
1683.199	9782.5
1687.663	9683.5
1692.122	9268.5
1696.577	9006.5
1701.028	8972.5
1705.474	8919.5
1709.917	8911.5
1714.355	8920.5
1718.788	8790.5
1723.218	8701.5
1727.643	8493.5
1732.064	8324.5
1736.481	8367.5
1740.893	8128.5
1745.301	8003.5
1749.705	8043.5
1754.105	7611.5
1758.501	7698.5
1762.893	7344.5
1767.28	7326.5
1771.663	7028.5
1776.042	6991.5
1780.417	6811.5
1784.787	6579.5
1789.154	6717.5
1793.516	6561.5
1797.874	6787.5
1802.228	6947.5
1806.578	7100.5
1810.924	7044.5
1815.266	7726.5
1819.603	7122.5
1823.937	7132.5
1828.266	6988.5
1832.591	6934.5
1836.913	6848.5
1841.23	6944.5
1845.543	6807.5
1849.852	6656.5
1854.156	6618.5
1858.457	6639.5
1862.754	6375.5
1867.047	6526.5
1871.335	6365.5
1875.62	6341.5
1879.9	6339.5
1884.177	6459.5
1888.449	6316.5
1892.718	6392.5
1896.982	6255.5
1901.243	6409.5
1905.499	6304.5
1909.752	6277.5
1914	6314.5
1918.245	6255.5
1922.485	6305.5
1926.722	6306.5
1930.954	6277.5
1935.183	6262.5
1939.408	6265.5
1943.628	6254.5
1947.845	6321.5
1952.058	6410.5
1956.267	6205.5
1960.472	6237.5
1964.673	6280.5
1968.87	6456.5
1973.063	6323.5
1977.252	6282.5
1981.438	6142.5
1985.619	6094.5
1989.797	5953.5
1993.971	5920.5
1998.14	5737.5
2002.306	5782.5
2006.469	5740.5
2010.627	5736.5
2014.781	5715.5
2018.932	5683.5
2023.078	5566.5
2027.221	5524.5
2031.36	5625.5
2035.495	5633.5
2039.627	5557.5
2043.754	5484.5
2047.878	5396.5
2051.998	5395.5
2056.114	5398.5
2060.226	5413.5
2064.334	5299.5
2068.439	5189.5
2072.54	5237.5
2076.637	5355.5
2080.73	5273.5
2084.82	5215.5
2088.906	5239.5
2092.988	5189.5
2097.066	5416.5
2101.14	5268.5
2105.211	5373.5
2109.278	5306.5
2113.342	5395.5
2117.401	5473.5
2121.457	5373.5
2125.509	5363.5
2129.558	5171.5
2133.602	5275.5
2137.643	5166.5
2141.681	5079.5
2145.714	5060.5
2149.744	5003.5
2153.77	5007.5
2157.793	4918.5
2161.812	4993.5
2165.827	5003.5
2169.838	4785.5
2173.846	4877.5
2177.851	4809.5
2181.851	4658.5
2185.848	4719.5
2189.841	4591.5
2193.831	4652.5
2197.817	4446.5
2201.799	4508.5
2205.778	4551.5
2209.753	4459.5
2213.725	4450.5
2217.693	4422.5
2221.657	4478.5
2225.618	4333.5
2229.575	4385.5
2233.529	4280.5
2237.479	4335.5
2241.425	4306.5
2245.368	4378.5
2249.307	4273.5
2253.243	4246.5
2257.175	4325.5
2261.104	4134.5
2265.029	4131.5
2268.95	4053.5
2272.868	3986.5
2276.783	4013.5
2280.694	3855.5
2284.601	3802.5
2288.505	3852.5
2292.405	3701.5
2296.302	3775.5
2300.195	3656.5
2304.085	3732.5
2307.971	3717.5
2311.854	3639.5
2315.734	3554.5
2319.609	3609.5
2323.482	3737.5
2327.351	3607.5
2331.216	3504.5
2335.078	3555.5
2338.937	3575.5
2342.792	3550.5
2346.643	3457.5
2350.492	3507.5
2354.336	3459.5
2358.178	3411.5
2362.015	3407.5
2365.85	3615.5
2369.681	3435.5
2373.508	3446.5
2377.333	3401.5
2381.153	3483.5
2384.971	3474.5
2388.785	3508.5
2392.595	3423.5
2396.402	3576.5
2400.206	3585.5
2404.007	3541.5
2407.804	3459.5
2411.597	3369.5
2415.388	3409.5
2419.174	3319.5
2422.958	3293.5
2426.738	3277.5
2430.515	3168.5
2434.289	3288.5
2438.059	3288.5
2441.825	3324.5
2445.589	3092.5
2449.349	3229.5
2453.106	3165.5
2456.859	3124.5
2460.61	3029.5
2464.356	3128.5
2468.1	3046.5
2471.84	3100.5
2475.577	3048.5
2479.311	2910.5
2483.041	2959.5
2486.768	2857.5
2490.492	2695.5
2494.213	2901.5
2497.93	2968.5
2501.644	2945.5
2505.355	2941.5
2509.062	2918.5
2512.766	2921.5
2516.467	2936.5
2520.165	2890.5
2523.859	2922.5
2527.551	2719.5
2531.239	2871.5
2534.923	2872.5
2538.605	2890.5
2542.283	2825.5
2545.958	2828.5
2549.63	2660.5
2553.299	2745.5
2556.964	2760.5
2560.626	2806.5
2564.285	2684.5
2567.941	2776.5
2571.594	2819.5
2575.243	2669.5
2578.89	2777.5
2582.533	2746.5
2586.173	2730.5
2589.809	2680.5
2593.443	2805.5
2597.073	2737.5
2600.701	2579.5
2604.325	2567.5
2607.946	2667.5
2611.564	2633.5
2615.178	2461.5
2618.79	2528.5
2622.398	2620.5
2626.004	2531.5
2629.606	2454.5
2633.205	2671.5
2636.801	2465.5
2640.394	2467.5
2643.983	2462.5
2647.57	2418.5
2651.153	2405.5
2654.734	2292.5
2658.311	2495.5
2661.885	2365.5
2665.456	2266.5
2669.025	2288.5
2672.589	2328.5
2676.151	2166.5
2679.71	2157.5
2683.266	2126.5
2686.819	2175.5
2690.368	2106.5
2693.915	2124.5
2697.458	2153.5
2700.999	2043.5
2704.536	2025.5
2708.071	2036.5
2711.602	1993.5
2715.13	2009.5
2718.656	1987.5
2722.178	1863.5
2725.697	1913.5
2729.214	1656.5
2732.727	1805.5
2736.237	1860.5
2739.744	1841.5
2743.249	1940.5
2746.75	1841.5
2750.248	1946.5
2753.743	1999.5
2757.236	1870.5
2760.725	1911.5
2764.211	2127.5
2767.695	1884.5
2771.175	1956.5
2774.652	1865.5
2778.127	1949.5
2781.598	1889.5
2785.067	1898.5
2788.532	1916.5
2791.995	1867.5
2795.455	1893.5
2798.911	1806.5
2802.365	2001.5
2805.816	1895.5
2809.264	1876.5
2812.709	1987.5
2816.151	1821.5
2819.59	1992.5
2823.026	1974.5
2826.46	1974.5
2829.89	1931.5
2833.318	2159.5
2836.742	1943.5
2840.164	2002.5
2843.583	2060.5
2846.999	1999.5
2850.412	1999.5
2853.822	2091.5
2857.229	1884.5
2860.634	2022.5
2864.035	2059.5
2867.434	2037.5
2870.83	1975.5
2874.223	2091.5
2877.613	1984.5
2881	2188.5
2884.385	2300.5
2887.766	2188.5
2891.145	2156.5
2894.521	2295.5
2897.894	2317.5
2901.264	2054.5
2904.631	2319.5
2907.996	2209.5
2911.358	2220.5
2914.717	2297.5
2918.073	2278.5
2921.426	2234.5
2924.777	2349.5
2928.124	2376.5
2931.469	2252.5
2934.811	2556.5
2938.15	2343.5
2941.487	2377.5
2944.821	2126.5
2948.152	2488.5
2951.48	2452.5
2954.805	2336.5
2958.128	2307.5
2961.447	2457.5
2964.765	2343.5
2968.079	2461.5
2971.39	2441.5
2974.699	2453.5
2978.005	2469.5
2981.308	2449.5
2984.609	2592.5
2987.907	2532.5
2991.202	2603.5
2994.494	2620.5
2997.784	2286.5
3001.07	2556.5
3004.355	2617.5
3007.636	2703.5
3010.915	2712.5
3014.191	2802.5
3017.464	2785.5
3020.734	2760.5
3024.002	2885.5
3027.267	2913.5
3030.53	2936.5
3033.789	2974.5
3037.046	3115.5
3040.301	3097.5
3043.552	3157.5
3046.801	3181.5
3050.048	3087.5
3053.291	3095.5
3056.532	3352.5
3059.771	3426.5
3063.006	3435.5
3066.239	3438.5
3069.469	3564.5
3072.697	3759.5
3075.922	3807.5
3079.144	3843.5
3082.364	3891.5
3085.581	4138.5
3088.795	3999.5
3092.007	4207.5
3095.216	4449.5
3098.423	4567.5
3101.627	4685.5
3104.828	4708.5
3108.026	4792.5
3111.222	4840.5
3114.416	4858.5
3117.607	5123.5
3120.795	5132.5
3123.98	5247.5
3127.163	5448.5
3130.344	5448.5
3133.521	5512.5
3136.696	5587.5
3139.869	5682.5
3143.039	5792.5
3146.206	5797.5
3149.371	5949.5
3152.533	6175.5
3155.693	6249.5
3158.85	6329.5
3162.005	6326.5
3165.157	6451.5
3168.306	6433.5
3171.453	6390.5
3174.597	6645.5
3177.739	6602.5
3180.878	6567.5
3184.014	6525.5
3187.149	6572.5
3190.28	6524.5
3193.409	6442.5
3196.536	6430.5
3199.659	6532.5
3202.781	6461.5
3205.9	6642.5
3209.016	6498.5
3212.13	6485.5
3215.241	6422.5
3218.35	6533.5
3221.456	6594.5
3224.56	6669.5
3227.661	6633.5
3230.76	6736.5
3233.856	6646.5
3236.95	6615.5
3240.041	6646.5
3243.13	6461.5
3246.216	6458.5
3249.3	6319.5
3252.382	6323.5
3255.46	6454.5
3258.537	6702.5
3261.611	6398.5
3264.682	6244.5
3267.751	6100.5
3270.818	6220.5
3273.882	5984.5
3276.943	5994.5
3280.002	5902.5
3283.059	5956.5
3286.113	5949.5
3289.165	5959.5
3292.214	5908.5
3295.261	5771.5
3298.306	5754.5
3301.348	5710.5
3304.387	5575.5
3307.425	5498.5
3310.459	5459.5
3313.492	5287.5
3316.521	5283.5
3319.549	5221.5
3322.574	5169.5
3325.597	5031.5
3328.617	5112.5
3331.635	4969.5
3334.65	4972.5
3337.663	4939.5
3340.674	4947.5
3343.682	4819.5
3346.688	4788.5
3349.691	4775.5
3352.692	4852.5
3355.691	4677.5
3358.687	4757.5
3361.681	4713.5
3364.673	4739.5
3367.662	4678.5
3370.649	4510.5
3373.633	4718.5
3376.615	4590.5
3379.595	4750.5
3382.572	4622.5
3385.547	4476.5
3388.52	4542.5
3391.49	4365.5
3394.458	4380.5
3397.424	4249.5
3400.387	4319.5
3403.348	4043.5
3406.307	4016.5
3409.263	4097.5
3412.217	3908.5
3415.168	3895.5
3418.118	3924.5
3421.065	3854.5
3424.009	3683.5
3426.951	3804.5
3429.891	3567.5
3432.829	3706.5
3435.764	3636.5
3438.697	3592.5
3441.628	3457.5
3444.557	3477.5
3447.483	3481.5
3450.407	3270.5
3453.328	3143.5
3456.247	3269.5
3459.164	3260.5
3462.079	3057.5
3464.991	2955.5
3467.902	2913.5
3470.809	2880.5
3473.715	2767.5
3476.618	2642.5
3479.519	2568.5
3482.418	2677.5
3485.315	2524.5
3488.209	2434.5
3491.101	2355.5
3493.99	2411.5
3496.878	2036.5
3499.763	2159.5
3502.646	2057.5
3505.527	2147.5
3508.405	1984.5
3511.281	1988.5
3514.155	1958.5
3517.027	1923.5
3519.897	1995.5
3522.764	1746.5
3525.629	1757.5
3528.492	1691.5
3531.352	1558.5
3534.211	1556.5
3537.067	1620.5
3539.921	1479.5
3542.773	1464.5
3545.622	1405.5
3548.469	1386.5
3551.315	1329.5
3554.157	1269.5
3556.998	1176.5
3559.837	1077.5
3562.673	965.5
3565.507	1079.5
3568.339	966.5
3571.169	1051.5
3573.996	997.5
3576.822	934.5
3579.645	967.5
3582.466	899.5
3585.285	777.5
3588.101	727.5
3590.916	772.5
3593.728	735.5
3596.538	806.5
3599.346	691.5
3602.152	767.5
3604.956	644.5
3607.757	563.5
3610.556	719.5
3613.354	574.5
3616.149	574.5
3618.942	519.5
3621.732	336.5
3624.521	601.5
3627.307	440.5
3630.092	475.5
3632.874	381.5
3635.654	418.5
3638.432	520.5
3641.208	358.5
3643.982	425.5
3646.753	357.5
3649.523	425.5
3652.29	398.5
3655.055	455.5
3657.818	241.5
3660.579	350.5
3663.338	425.5
3666.095	233.5
3668.849	455.5
3671.602	221.5
3674.352	358.5
3677.101	223.5
3679.847	91.5
3682.591	305.5
3685.333	276.5
3688.073	153.5
3690.811	260.5
3693.547	246.5
3696.281	243.5
3699.013	132.5
3701.742	169.5
3704.47	221.5
3707.195	147.5
3709.919	111.5
3712.64	146.5
3715.359	-14.5
3718.076	-62.5
3720.792	98.5
3723.505	125.5
3726.216	73.5
3728.925	135.5
3731.632	-71.5
3734.336	204.5
3737.039	67.5
3739.74	104.5
3742.439	371.5
3745.136	93.5
3747.83	55.5
3750.523	67.5
3753.213	-0.5
3755.902	47.5
3758.589	107.5
3761.273	139.5
3763.956	-83.5
3766.636	102.5
3769.315	-132.5
3771.991	158.5
3774.665	-12.5
3777.338	181.5
3780.008	100.5
3782.677	9.5
3785.343	145.5
3788.007	-38.5
3790.67	-8.5
3793.33	-14.5
3795.989	0.5
3798.645	-22.5
3801.299	133.5
3803.952	36.5
3806.602	-26.5
3809.251	49.5
3811.897	24.5
3814.542	44.5
3817.184	35.5
3819.825	134.5
3822.463	-59.5
3825.1	48.5
3827.735	60.5
3830.367	28.5
3832.998	-121.5
3835.627	-14.5
3838.253	-30.5
3840.878	14.5
3843.501	-96.5
3846.122	-86.5
3848.741	-68.5
3851.358	5.5
3853.973	177.5
3856.586	34.5
3859.197	-17.5
3861.806	-56.5
3864.414	68.5
3867.019	7.5
3869.622	-52.5
3872.224	-110.5
3874.823	78.5
3877.421	66.5
3880.016	56.5
3882.61	188.5
3885.202	175.5
3887.792	142.5
3890.38	12.5
3892.966	80.5
3895.55	15.5
3898.132	-7.5
3900.713	-46.5
3903.291	22.5
3905.868	-51.5
3908.442	-38.5
3911.015	-16.5
3913.586	1.5
3916.155	46.5
3918.722	41.5
3921.287	-2.5
3923.85	-92.5
3926.411	-69.5
3928.971	-68.5
3931.528	4.5
3934.084	-43.5
3936.638	-26.5
3939.19	-76.5
3941.74	-35.5
3944.288	-65.5
3946.834	-36.5
3949.378	-85.5
3951.921	58.5
3954.462	15.5
3957	-74.5
3959.537	6.5
3962.072	63.5
3964.606	97.5
3967.137	-25.5
3969.667	-2.5
3972.194	41.5
3974.72	30.5
3977.244	53.5
3979.766	21.5
3982.286	87.5
3984.805	-27.5
3987.321	-93.5
3989.836	-49.5
3992.349	30.5
3994.86	24.5
3997.369	36.5
3999.877	-41.5
4002.382	8.5
4004.886	33.5
4007.388	30.5
4009.888	99.5
4012.386	-63.5
4014.883	-0.5
4017.377	-14.5
4019.87	-107.5
4022.361	11.5
4024.85	11.5
4027.338	124.5
4029.823	-43.5
4032.307	-29.5
4034.789	30.5
4037.269	27.5
4039.747	60.5
4042.224	12.5
4044.699	47.5
4047.172	-28.5
4049.643	-36.5
4052.112	98.5
4054.58	41.5
4057.046	-14.5
4059.51	32.5
4061.972	-23.5
4064.432	83.5
4066.891	-83.5
4069.348	43.5
4071.803	-82.5
4074.256	-45.5
4076.708	56.5
4079.158	-22.5
4081.606	-139.5
4084.052	12.5
4086.497	-108.5
4088.939	-2.5
4091.38	24.5
4093.819	-48.5
4096.257	-1132.5
4098.693	-1098.5
4101.127	-1162.5
4103.559	-1196.5
4105.989	118.5
4108.418	165.5
4110.845	336.5
4113.27	239.5
4115.694	355.5
4118.115	358.5
4120.535	-34.5
4122.954	-89.5
4125.37	-127.5
4127.785	9.5
4130.198	-63.5
4132.609	-92.5
4135.019	-1228.5
4137.427	-1210.5
4139.833	-1158.5
4142.237	-1026.5
