Data from 2018-2-8_conc=4_RamanShift_11.txt Node
Date: Wed Feb 07 10:39:40 IST 2018
User: aro
Spectrometer: QEPB0276
Trigger mode: 0
Integration Time (sec): 3.000000E1
Scans to average: 1
Electric dark correction enabled: true
Nonlinearity correction enabled: false
Boxcar width: 0
XAxis mode: Raman Shifts
Number of Pixels in Spectrum: 1044
>>>>>Begin Spectral Data<<<<<
160.701	429.6
166.742	557.6
172.777	1080.6
178.805	2694.6
184.826	6269.6
190.841	12453.6
196.849	20009.6
202.85	25609.6
208.845	27639.6
214.833	27608.6
220.815	27243.6
226.789	26678.6
232.758	27176.6
238.719	27031.6
244.674	26850.6
250.623	26525.6
256.565	26151.6
262.5	25622.6
268.429	25111.6
274.351	24937.6
280.267	24716.6
286.176	24235.6
292.079	24005.6
297.975	23672.6
303.865	23534.6
309.748	23418.6
315.625	23286.6
321.495	22897.6
327.359	22842.6
333.217	22849.6
339.068	22837.6
344.912	22799.6
350.751	22846.6
356.583	22683.6
362.408	22699.6
368.227	22720.6
374.04	22836.6
379.847	22902.6
385.647	23067.6
391.44	23280.6
397.228	23312.6
403.009	23559.6
408.784	23644.6
414.553	23658.6
420.315	23814.6
426.071	23918.6
431.821	23805.6
437.565	23717.6
443.302	23436.6
449.033	23632.6
454.758	23474.6
460.477	23304.6
466.189	23181.6
471.896	23056.6
477.596	23106.6
483.29	23074.6
488.978	23038.6
494.66	23048.6
500.335	23010.6
506.005	22886.6
511.668	22702.6
517.325	22571.6
522.977	22358.6
528.622	22369.6
534.261	22176.6
539.894	22104.6
545.521	22074.6
551.141	21982.6
556.756	21750.6
562.365	21567.6
567.968	21450.6
573.565	21414.6
579.155	21182.6
584.74	21132.6
590.319	20955.6
595.892	21008.6
601.459	20983.6
607.02	20943.6
612.575	21042.6
618.124	20844.6
623.667	20961.6
629.204	20804.6
634.735	20902.6
640.261	20797.6
645.781	20946.6
651.294	20662.6
656.802	20400.6
662.304	20308.6
667.8	20041.6
673.29	20107.6
678.775	20010.6
684.254	19972.6
689.726	20077.6
695.193	19840.6
700.655	19887.6
706.11	20046.6
711.56	19916.6
717.004	19916.6
722.442	20081.6
727.874	20004.6
733.301	19898.6
738.722	19937.6
744.137	19731.6
749.547	19628.6
754.951	19534.6
760.349	19411.6
765.741	19284.6
771.128	19252.6
776.509	19286.6
781.885	19241.6
787.254	19243.6
792.618	19286.6
797.977	19369.6
803.33	19492.6
808.677	19448.6
814.019	19372.6
819.355	19447.6
824.686	19446.6
830.011	19398.6
835.33	19152.6
840.644	18913.6
845.952	18990.6
851.255	18693.6
856.552	18720.6
861.844	18412.6
867.13	18462.6
872.41	18450.6
877.686	18362.6
882.955	18497.6
888.219	18539.6
893.478	18669.6
898.731	18470.6
903.979	18437.6
909.221	18441.6
914.458	18336.6
919.69	18079.6
924.916	18055.6
930.136	17877.6
935.351	17677.6
940.561	17421.6
945.766	17355.6
950.965	17213.6
956.158	17306.6
961.347	17362.6
966.529	17339.6
971.707	17281.6
976.879	17320.6
982.046	17382.6
987.208	17399.6
992.364	17240.6
997.515	17201.6
1002.66	17077.6
1007.801	17195.6
1012.936	17033.6
1018.066	17082.6
1023.19	16936.6
1028.309	16842.6
1033.423	16972.6
1038.532	16988.6
1043.636	17304.6
1048.734	17294.6
1053.827	17312.6
1058.915	17288.6
1063.998	17124.6
1069.075	17008.6
1074.147	16741.6
1079.214	16703.6
1084.276	16474.6
1089.333	16376.6
1094.385	16309.6
1099.431	16348.6
1104.472	16313.6
1109.509	16435.6
1114.54	16466.6
1119.565	16626.6
1124.586	16564.6
1129.602	16601.6
1134.613	16511.6
1139.618	16399.6
1144.619	16102.6
1149.614	15862.6
1154.604	15830.6
1159.589	15751.6
1164.57	15478.6
1169.545	15434.6
1174.515	15534.6
1179.48	15693.6
1184.44	15707.6
1189.395	15948.6
1194.345	16027.6
1199.29	16059.6
1204.23	16052.6
1209.165	16042.6
1214.095	15859.6
1219.021	15701.6
1223.941	15673.6
1228.856	15741.6
1233.766	15700.6
1238.672	15590.6
1243.572	15501.6
1248.467	15520.6
1253.358	15699.6
1258.244	15687.6
1263.124	15650.6
1268	15459.6
1272.871	15470.6
1277.737	15391.6
1282.599	15137.6
1287.455	14980.6
1292.306	14763.6
1297.153	14751.6
1301.995	14559.6
1306.832	14524.6
1311.664	14493.6
1316.491	14564.6
1321.314	14551.6
1326.132	14500.6
1330.945	14344.6
1335.753	14267.6
1340.556	14073.6
1345.354	13904.6
1350.148	13601.6
1354.937	13474.6
1359.722	13408.6
1364.501	13261.6
1369.276	13109.6
1374.046	13198.6
1378.811	13375.6
1383.572	13468.6
1388.327	13233.6
1393.079	13644.6
1397.825	13754.6
1402.567	13679.6
1407.304	13620.6
1412.036	13623.6
1416.764	13509.6
1421.487	13749.6
1426.205	13250.6
1430.919	13123.6
1435.628	12917.6
1440.333	12860.6
1445.032	12752.6
1449.727	12773.6
1454.418	12638.6
1459.104	12643.6
1463.785	12473.6
1468.462	12501.6
1473.134	12430.6
1477.802	12307.6
1482.465	12310.6
1487.123	11967.6
1491.777	12116.6
1496.426	12043.6
1501.071	11845.6
1505.711	11919.6
1510.347	12004.6
1514.978	12141.6
1519.604	12224.6
1524.226	12358.6
1528.844	12598.6
1533.457	12503.6
1538.065	12622.6
1542.669	12705.6
1547.269	12756.6
1551.864	12726.6
1556.454	12856.6
1561.041	12754.6
1565.622	12688.6
1570.199	12378.6
1574.772	12330.6
1579.34	12124.6
1583.904	12261.6
1588.464	12159.6
1593.019	12242.6
1597.569	12295.6
1602.115	12361.6
1606.657	12389.6
1611.195	12382.6
1615.728	12423.6
1620.256	12526.6
1624.78	12535.6
1629.3	12511.6
1633.816	12281.6
1638.327	12248.6
1642.834	12154.6
1647.336	12010.6
1651.834	11988.6
1656.328	12082.6
1660.817	11932.6
1665.302	11964.6
1669.783	11962.6
1674.259	11706.6
1678.732	11511.6
1683.199	11238.6
1687.663	11121.6
1692.122	10695.6
1696.577	10468.6
1701.028	10719.6
1705.474	10507.6
1709.917	10606.6
1714.355	10566.6
1718.788	10375.6
1723.218	10316.6
1727.643	10016.6
1732.064	9863.6
1736.481	9914.6
1740.893	9619.6
1745.301	9494.6
1749.705	9514.6
1754.105	9063.6
1758.501	9014.6
1762.893	8697.6
1767.28	8624.6
1771.663	8319.6
1776.042	8153.6
1780.417	8024.6
1784.787	7911.6
1789.154	8009.6
1793.516	7945.6
1797.874	8232.6
1802.228	8459.6
1806.578	8615.6
1810.924	8416.6
1815.266	9334.6
1819.603	8498.6
1823.937	8434.6
1828.266	8407.6
1832.591	8337.6
1836.913	8210.6
1841.23	8178.6
1845.543	8131.6
1849.852	7930.6
1854.156	7947.6
1858.457	7846.6
1862.754	7576.6
1867.047	7765.6
1871.335	7633.6
1875.62	7496.6
1879.9	7514.6
1884.177	7700.6
1888.449	7548.6
1892.718	7556.6
1896.982	7486.6
1901.243	7596.6
1905.499	7588.6
1909.752	7549.6
1914	7694.6
1918.245	7522.6
1922.485	7551.6
1926.722	7578.6
1930.954	7587.6
1935.183	7622.6
1939.408	7595.6
1943.628	7637.6
1947.845	7681.6
1952.058	7784.6
1956.267	7620.6
1960.472	7548.6
1964.673	7658.6
1968.87	7602.6
1973.063	7648.6
1977.252	7521.6
1981.438	7367.6
1985.619	7236.6
1989.797	7146.6
1993.971	7065.6
1998.14	6917.6
2002.306	6908.6
2006.469	6853.6
2010.627	6780.6
2014.781	6797.6
2018.932	6814.6
2023.078	6599.6
2027.221	6564.6
2031.36	6672.6
2035.495	6623.6
2039.627	6557.6
2043.754	6373.6
2047.878	6469.6
2051.998	6450.6
2056.114	6446.6
2060.226	6380.6
2064.334	6356.6
2068.439	6180.6
2072.54	6218.6
2076.637	6371.6
2080.73	6318.6
2084.82	6297.6
2088.906	6340.6
2092.988	6433.6
2097.066	6569.6
2101.14	6355.6
2105.211	6518.6
2109.278	6500.6
2113.342	6491.6
2117.401	6539.6
2121.457	6460.6
2125.509	6449.6
2129.558	6203.6
2133.602	6217.6
2137.643	6175.6
2141.681	6103.6
2145.714	6036.6
2149.744	5932.6
2153.77	5914.6
2157.793	5894.6
2161.812	5995.6
2165.827	5896.6
2169.838	5661.6
2173.846	5790.6
2177.851	5727.6
2181.851	5621.6
2185.848	5653.6
2189.841	5470.6
2193.831	5551.6
2197.817	5328.6
2201.799	5337.6
2205.778	5421.6
2209.753	5376.6
2213.725	5253.6
2217.693	5223.6
2221.657	5241.6
2225.618	4831.6
2229.575	5244.6
2233.529	5123.6
2237.479	5165.6
2241.425	5110.6
2245.368	5222.6
2249.307	5112.6
2253.243	5066.6
2257.175	5086.6
2261.104	4992.6
2265.029	4840.6
2268.95	4847.6
2272.868	4736.6
2276.783	4789.6
2280.694	4516.6
2284.601	4553.6
2288.505	4520.6
2292.405	4378.6
2296.302	4532.6
2300.195	4327.6
2304.085	4495.6
2307.971	4314.6
2311.854	4336.6
2315.734	4241.6
2319.609	4309.6
2323.482	4383.6
2327.351	4254.6
2331.216	4259.6
2335.078	4237.6
2338.937	4194.6
2342.792	4121.6
2346.643	4090.6
2350.492	4093.6
2354.336	4056.6
2358.178	4057.6
2362.015	4044.6
2365.85	4085.6
2369.681	4131.6
2373.508	4085.6
2377.333	4011.6
2381.153	4118.6
2384.971	4118.6
2388.785	4134.6
2392.595	4138.6
2396.402	4199.6
2400.206	4177.6
2404.007	4171.6
2407.804	4075.6
2411.597	3950.6
2415.388	4003.6
2419.174	3945.6
2422.958	3920.6
2426.738	3815.6
2430.515	3737.6
2434.289	3916.6
2438.059	3874.6
2441.825	3839.6
2445.589	3621.6
2449.349	3803.6
2453.106	3682.6
2456.859	3688.6
2460.61	3575.6
2464.356	3637.6
2468.1	3681.6
2471.84	3669.6
2475.577	3617.6
2479.311	3516.6
2483.041	3553.6
2486.768	3332.6
2490.492	3186.6
2494.213	3664.6
2497.93	3509.6
2501.644	3475.6
2505.355	3481.6
2509.062	3458.6
2512.766	3507.6
2516.467	3374.6
2520.165	3434.6
2523.859	3524.6
2527.551	3254.6
2531.239	3414.6
2534.923	3415.6
2538.605	3364.6
2542.283	3271.6
2545.958	3380.6
2549.63	3274.6
2553.299	3238.6
2556.964	3270.6
2560.626	3276.6
2564.285	3213.6
2567.941	3278.6
2571.594	3290.6
2575.243	3153.6
2578.89	3291.6
2582.533	3273.6
2586.173	3210.6
2589.809	3186.6
2593.443	3424.6
2597.073	3239.6
2600.701	3060.6
2604.325	3189.6
2607.946	3163.6
2611.564	3019.6
2615.178	2986.6
2618.79	3019.6
2622.398	3037.6
2626.004	3016.6
2629.606	2962.6
2633.205	3112.6
2636.801	2932.6
2640.394	2902.6
2643.983	2846.6
2647.57	2902.6
2651.153	2788.6
2654.734	2715.6
2658.311	2933.6
2661.885	2797.6
2665.456	2767.6
2669.025	2736.6
2672.589	2706.6
2676.151	2562.6
2679.71	2562.6
2683.266	2539.6
2686.819	2554.6
2690.368	2483.6
2693.915	2496.6
2697.458	2528.6
2700.999	2374.6
2704.536	2414.6
2708.071	2343.6
2711.602	2315.6
2715.13	2332.6
2718.656	2315.6
2722.178	2186.6
2725.697	2271.6
2729.214	1992.6
2732.727	2071.6
2736.237	2094.6
2739.744	2114.6
2743.249	2275.6
2746.75	2233.6
2750.248	2324.6
2753.743	2327.6
2757.236	2298.6
2760.725	2256.6
2764.211	2375.6
2767.695	2347.6
2771.175	2298.6
2774.652	2251.6
2778.127	2335.6
2781.598	2290.6
2785.067	2258.6
2788.532	2194.6
2791.995	2395.6
2795.455	2255.6
2798.911	2193.6
2802.365	2300.6
2805.816	2157.6
2809.264	2172.6
2812.709	2255.6
2816.151	2217.6
2819.59	2324.6
2823.026	2317.6
2826.46	2353.6
2829.89	2309.6
2833.318	2411.6
2836.742	2324.6
2840.164	2256.6
2843.583	2362.6
2846.999	2360.6
2850.412	2247.6
2853.822	2426.6
2857.229	2246.6
2860.634	2348.6
2864.035	2466.6
2867.434	2300.6
2870.83	2379.6
2874.223	2457.6
2877.613	2303.6
2881	2513.6
2884.385	2626.6
2887.766	2526.6
2891.145	2484.6
2894.521	2610.6
2897.894	2635.6
2901.264	2287.6
2904.631	2551.6
2907.996	2560.6
2911.358	2520.6
2914.717	2530.6
2918.073	2522.6
2921.426	2514.6
2924.777	2605.6
2928.124	2636.6
2931.469	2527.6
2934.811	2729.6
2938.15	2659.6
2941.487	2617.6
2944.821	2396.6
2948.152	2696.6
2951.48	2669.6
2954.805	2662.6
2958.128	2592.6
2961.447	2698.6
2964.765	2563.6
2968.079	2671.6
2971.39	2613.6
2974.699	2694.6
2978.005	2693.6
2981.308	2775.6
2984.609	2917.6
2987.907	2825.6
2991.202	2942.6
2994.494	2938.6
2997.784	2497.6
3001.07	2837.6
3004.355	2965.6
3007.636	2958.6
3010.915	3046.6
3014.191	3033.6
3017.464	3088.6
3020.734	2973.6
3024.002	3168.6
3027.267	3192.6
3030.53	3215.6
3033.789	3272.6
3037.046	3382.6
3040.301	3370.6
3043.552	3390.6
3046.801	3501.6
3050.048	3367.6
3053.291	3349.6
3056.532	3555.6
3059.771	3690.6
3063.006	3696.6
3066.239	3702.6
3069.469	3888.6
3072.697	4084.6
3075.922	4126.6
3079.144	4169.6
3082.364	4202.6
3085.581	4449.6
3088.795	4269.6
3092.007	4445.6
3095.216	4684.6
3098.423	4901.6
3101.627	5061.6
3104.828	5106.6
3108.026	5141.6
3111.222	5160.6
3114.416	5175.6
3117.607	5385.6
3120.795	5414.6
3123.98	5582.6
3127.163	5719.6
3130.344	5770.6
3133.521	5811.6
3136.696	5992.6
3139.869	6062.6
3143.039	6128.6
3146.206	6198.6
3149.371	6283.6
3152.533	6496.6
3155.693	6524.6
3158.85	6664.6
3162.005	6682.6
3165.157	6812.6
3168.306	6849.6
3171.453	6761.6
3174.597	6995.6
3177.739	6963.6
3180.878	6879.6
3184.014	6883.6
3187.149	6876.6
3190.28	6872.6
3193.409	6795.6
3196.536	6799.6
3199.659	6782.6
3202.781	6851.6
3205.9	6955.6
3209.016	6874.6
3212.13	6828.6
3215.241	6816.6
3218.35	6860.6
3221.456	6893.6
3224.56	6973.6
3227.661	6980.6
3230.76	6991.6
3233.856	6964.6
3236.95	6908.6
3240.041	6952.6
3243.13	6722.6
3246.216	6784.6
3249.3	6660.6
3252.382	6650.6
3255.46	6734.6
3258.537	6026.6
3261.611	6620.6
3264.682	6519.6
3267.751	6443.6
3270.818	6559.6
3273.882	6278.6
3276.943	6209.6
3280.002	6233.6
3283.059	6242.6
3286.113	6152.6
3289.165	6249.6
3292.214	6166.6
3295.261	5964.6
3298.306	6096.6
3301.348	5952.6
3304.387	5878.6
3307.425	5769.6
3310.459	5773.6
3313.492	5519.6
3316.521	5511.6
3319.549	5432.6
3322.574	5353.6
3325.597	5276.6
3328.617	5288.6
3331.635	5171.6
3334.65	5217.6
3337.663	5171.6
3340.674	5119.6
3343.682	4999.6
3346.688	4993.6
3349.691	4963.6
3352.692	5089.6
3355.691	4943.6
3358.687	4876.6
3361.681	4901.6
3364.673	4892.6
3367.662	4790.6
3370.649	4751.6
3373.633	4872.6
3376.615	4772.6
3379.595	4957.6
3382.572	4855.6
3385.547	4608.6
3388.52	4713.6
3391.49	4546.6
3394.458	4535.6
3397.424	4409.6
3400.387	4500.6
3403.348	4156.6
3406.307	4200.6
3409.263	4239.6
3412.217	4043.6
3415.168	4049.6
3418.118	3999.6
3421.065	3944.6
3424.009	3868.6
3426.951	3744.6
3429.891	3690.6
3432.829	3781.6
3435.764	3769.6
3438.697	3734.6
3441.628	3505.6
3444.557	3618.6
3447.483	3626.6
3450.407	3353.6
3453.328	3227.6
3456.247	3400.6
3459.164	3318.6
3462.079	3145.6
3464.991	3083.6
3467.902	3005.6
3470.809	2994.6
3473.715	2880.6
3476.618	2781.6
3479.519	2670.6
3482.418	2752.6
3485.315	2592.6
3488.209	2492.6
3491.101	2440.6
3493.99	2544.6
3496.878	2130.6
3499.763	2157.6
3502.646	2102.6
3505.527	2278.6
3508.405	2030.6
3511.281	1976.6
3514.155	1995.6
3517.027	1852.6
3519.897	2014.6
3522.764	1825.6
3525.629	1869.6
3528.492	1717.6
3531.352	1646.6
3534.211	1567.6
3537.067	1674.6
3539.921	1547.6
3542.773	1486.6
3545.622	1492.6
3548.469	1461.6
3551.315	1381.6
3554.157	1277.6
3556.998	1196.6
3559.837	1097.6
3562.673	1026.6
3565.507	1116.6
3568.339	1000.6
3571.169	1017.6
3573.996	973.6
3576.822	1010.6
3579.645	976.6
3582.466	939.6
3585.285	858.6
3588.101	788.6
3590.916	838.6
3593.728	774.6
3596.538	807.6
3599.346	670.6
3602.152	805.6
3604.956	743.6
3607.757	590.6
3610.556	734.6
3613.354	587.6
3616.149	604.6
3618.942	582.6
3621.732	339.6
3624.521	544.6
3627.307	469.6
3630.092	469.6
3632.874	347.6
3635.654	527.6
3638.432	550.6
3641.208	380.6
3643.982	390.6
3646.753	338.6
3649.523	422.6
3652.29	398.6
3655.055	381.6
3657.818	290.6
3660.579	216.6
3663.338	438.6
3666.095	218.6
3668.849	371.6
3671.602	280.6
3674.352	367.6
3677.101	218.6
3679.847	113.6
3682.591	287.6
3685.333	207.6
3688.073	154.6
3690.811	256.6
3693.547	99.6
3696.281	211.6
3699.013	105.6
3701.742	130.6
3704.47	239.6
3707.195	121.6
3709.919	154.6
3712.64	167.6
3715.359	-3.4
3718.076	-77.4
3720.792	131.6
3723.505	58.6
3726.216	52.6
3728.925	110.6
3731.632	-57.4
3734.336	171.6
3737.039	58.6
3739.74	78.6
3742.439	109.6
3745.136	64.6
3747.83	47.6
3750.523	51.6
3753.213	337.6
3755.902	41.6
3758.589	171.6
3761.273	67.6
3763.956	-76.4
3766.636	96.6
3769.315	-123.4
3771.991	125.6
3774.665	-57.4
3777.338	194.6
3780.008	88.6
3782.677	40.6
3785.343	122.6
3788.007	90.6
3790.67	-11.4
3793.33	-32.4
3795.989	68.6
3798.645	-31.4
3801.299	135.6
3803.952	14.6
3806.602	-60.4
3809.251	30.6
3811.897	50.6
3814.542	-6.4
3817.184	-21.4
3819.825	40.6
3822.463	-88.4
3825.1	18.6
3827.735	24.6
3830.367	1.6
3832.998	-135.4
3835.627	-104.4
3838.253	-77.4
3840.878	-163.4
3843.501	-127.4
3846.122	-87.4
3848.741	-133.4
3851.358	3.6
3853.973	124.6
3856.586	-34.4
3859.197	-50.4
3861.806	-25.4
3864.414	91.6
3867.019	27.6
3869.622	-106.4
3872.224	-142.4
3874.823	30.6
3877.421	26.6
3880.016	81.6
3882.61	173.6
3885.202	95.6
3887.792	101.6
3890.38	-26.4
3892.966	2.6
3895.55	-12.4
3898.132	2.6
3900.713	-95.4
3903.291	-45.4
3905.868	-43.4
3908.442	-76.4
3911.015	-37.4
3913.586	-27.4
3916.155	-95.4
3918.722	-20.4
3921.287	-69.4
3923.85	-249.4
3926.411	-117.4
3928.971	-122.4
3931.528	-47.4
3934.084	-43.4
3936.638	-40.4
3939.19	-107.4
3941.74	-64.4
3944.288	-72.4
3946.834	-58.4
3949.378	-46.4
3951.921	14.6
3954.462	-29.4
3957	-85.4
3959.537	18.6
3962.072	51.6
3964.606	65.6
3967.137	-48.4
3969.667	-15.4
3972.194	-50.4
3974.72	-30.4
3977.244	7.6
3979.766	28.6
3982.286	120.6
3984.805	-75.4
3987.321	-171.4
3989.836	-53.4
3992.349	14.6
3994.86	-43.4
3997.369	-46.4
3999.877	-63.4
4002.382	-43.4
4004.886	-87.4
4007.388	-35.4
4009.888	69.6
4012.386	-118.4
4014.883	-52.4
4017.377	-46.4
4019.87	-142.4
4022.361	18.6
4024.85	51.6
4027.338	59.6
4029.823	-25.4
4032.307	-32.4
4034.789	-14.4
4037.269	-22.4
4039.747	77.6
4042.224	-42.4
4044.699	-24.4
4047.172	-7.4
4049.643	-106.4
4052.112	19.6
4054.58	-3.4
4057.046	-2.4
4059.51	42.6
4061.972	-56.4
4064.432	41.6
4066.891	-100.4
4069.348	-12.4
4071.803	-83.4
4074.256	-19.4
4076.708	-14.4
4079.158	23.6
4081.606	-132.4
4084.052	-36.4
4086.497	-42.4
4088.939	15.6
4091.38	7.6
4093.819	-81.4
4096.257	-1196.4
4098.693	-1228.4
4101.127	-1253.4
4103.559	-1271.4
4105.989	169.6
4108.418	166.6
4110.845	337.6
4113.27	225.6
4115.694	382.6
4118.115	376.6
4120.535	-74.4
4122.954	-139.4
4125.37	-154.4
4127.785	-69.4
4130.198	-99.4
4132.609	-83.4
4135.019	-1269.4
4137.427	-1257.4
4139.833	-1190.4
4142.237	-1045.4
