Data from 2018-2-8_conc=3_RamanShift_12.txt Node
Date: Wed Feb 07 10:17:10 IST 2018
User: aro
Spectrometer: QEPB0276
Trigger mode: 0
Integration Time (sec): 3.000000E1
Scans to average: 1
Electric dark correction enabled: true
Nonlinearity correction enabled: false
Boxcar width: 0
XAxis mode: Raman Shifts
Number of Pixels in Spectrum: 1044
>>>>>Begin Spectral Data<<<<<
160.701	436.5
166.742	550.5
172.777	1018.5
178.805	2617.5
184.826	5924.5
190.841	11838.5
196.849	18940.5
202.85	24295.5
208.845	26190.5
214.833	26032.5
220.815	25601.5
226.789	25450.5
232.758	25361.5
238.719	25183.5
244.674	24866.5
250.623	24438.5
256.565	24033.5
262.5	23559.5
268.429	22875.5
274.351	22599.5
280.267	22457.5
286.176	21847.5
292.079	21593.5
297.975	21232.5
303.865	21121.5
309.748	20985.5
315.625	20766.5
321.495	20389.5
327.359	20353.5
333.217	20371.5
339.068	20323.5
344.912	20361.5
350.751	20292.5
356.583	20239.5
362.408	20254.5
368.227	20272.5
374.04	20316.5
379.847	20343.5
385.647	20563.5
391.44	20751.5
397.228	20712.5
403.009	20946.5
408.784	21126.5
414.553	21135.5
420.315	21235.5
426.071	21270.5
431.821	21296.5
437.565	21136.5
443.302	20879.5
449.033	21011.5
454.758	20858.5
460.477	20762.5
466.189	20596.5
471.896	20585.5
477.596	20478.5
483.29	20545.5
488.978	20453.5
494.66	20415.5
500.335	20370.5
506.005	20361.5
511.668	20116.5
517.325	19996.5
522.977	19793.5
528.622	19740.5
534.261	19595.5
539.894	19540.5
545.521	19382.5
551.141	19314.5
556.756	19119.5
562.365	18968.5
567.968	18903.5
573.565	18754.5
579.155	18544.5
584.74	18603.5
590.319	18413.5
595.892	18408.5
601.459	18392.5
607.02	18328.5
612.575	18301.5
618.124	18209.5
623.667	18420.5
629.204	18349.5
634.735	18350.5
640.261	18136.5
645.781	18325.5
651.294	18066.5
656.802	17896.5
662.304	17808.5
667.8	17524.5
673.29	17508.5
678.775	17366.5
684.254	17458.5
689.726	17560.5
695.193	17337.5
700.655	17281.5
706.11	17436.5
711.56	17326.5
717.004	17342.5
722.442	17461.5
727.874	17340.5
733.301	17294.5
738.722	17351.5
744.137	17198.5
749.547	17033.5
754.951	17036.5
760.349	16881.5
765.741	16730.5
771.128	16681.5
776.509	16707.5
781.885	16724.5
787.254	16714.5
792.618	16707.5
797.977	16803.5
803.33	16902.5
808.677	16883.5
814.019	16884.5
819.355	16889.5
824.686	16944.5
830.011	16843.5
835.33	16629.5
840.644	16414.5
845.952	16442.5
851.255	16208.5
856.552	16170.5
861.844	16029.5
867.13	15972.5
872.41	15964.5
877.686	15820.5
882.955	15915.5
888.219	16005.5
893.478	16127.5
898.731	15956.5
903.979	15860.5
909.221	15884.5
914.458	15814.5
919.69	15612.5
924.916	15616.5
930.136	15306.5
935.351	15355.5
940.561	14971.5
945.766	14927.5
950.965	14787.5
956.158	14854.5
961.347	14912.5
966.529	14991.5
971.707	14892.5
976.879	14885.5
982.046	14923.5
987.208	14970.5
992.364	14851.5
997.515	14813.5
1002.66	14639.5
1007.801	14725.5
1012.936	14631.5
1018.066	14689.5
1023.19	14507.5
1028.309	14409.5
1033.423	14525.5
1038.532	14582.5
1043.636	14816.5
1048.734	14745.5
1053.827	14810.5
1058.915	14909.5
1063.998	14703.5
1069.075	14510.5
1074.147	14288.5
1079.214	14424.5
1084.276	14073.5
1089.333	13988.5
1094.385	13856.5
1099.431	13973.5
1104.472	13942.5
1109.509	14127.5
1114.54	14111.5
1119.565	14235.5
1124.586	14164.5
1129.602	14205.5
1134.613	14121.5
1139.618	13990.5
1144.619	13762.5
1149.614	13630.5
1154.604	13506.5
1159.589	13448.5
1164.57	13217.5
1169.545	13215.5
1174.515	13253.5
1179.48	13386.5
1184.44	13479.5
1189.395	13593.5
1194.345	13694.5
1199.29	13675.5
1204.23	13773.5
1209.165	13647.5
1214.095	13566.5
1219.021	13332.5
1223.941	13378.5
1228.856	13406.5
1233.766	13367.5
1238.672	13311.5
1243.572	13212.5
1248.467	13319.5
1253.358	13416.5
1258.244	13408.5
1263.124	13293.5
1268	13150.5
1272.871	13148.5
1277.737	13108.5
1282.599	12925.5
1287.455	12739.5
1292.306	12589.5
1297.153	12603.5
1301.995	12372.5
1306.832	12413.5
1311.664	12423.5
1316.491	12456.5
1321.314	12455.5
1326.132	12436.5
1330.945	12373.5
1335.753	12231.5
1340.556	12102.5
1345.354	11955.5
1350.148	11597.5
1354.937	11472.5
1359.722	11471.5
1364.501	11279.5
1369.276	11105.5
1374.046	11167.5
1378.811	11307.5
1383.572	11393.5
1388.327	11133.5
1393.079	11581.5
1397.825	11701.5
1402.567	11675.5
1407.304	11597.5
1412.036	11656.5
1416.764	11551.5
1421.487	11651.5
1426.205	11322.5
1430.919	11188.5
1435.628	11040.5
1440.333	10984.5
1445.032	10910.5
1449.727	10934.5
1454.418	10857.5
1459.104	10826.5
1463.785	10655.5
1468.462	10717.5
1473.134	10620.5
1477.802	10492.5
1482.465	10570.5
1487.123	10275.5
1491.777	10389.5
1496.426	10189.5
1501.071	10062.5
1505.711	10077.5
1510.347	10108.5
1514.978	10293.5
1519.604	10375.5
1524.226	10435.5
1528.844	10692.5
1533.457	10593.5
1538.065	10773.5
1542.669	10730.5
1547.269	10878.5
1551.864	10769.5
1556.454	10919.5
1561.041	10822.5
1565.622	10778.5
1570.199	10489.5
1574.772	10519.5
1579.34	10358.5
1583.904	10512.5
1588.464	10432.5
1593.019	10491.5
1597.569	10605.5
1602.115	10611.5
1606.657	10776.5
1611.195	10724.5
1615.728	10784.5
1620.256	10856.5
1624.78	10913.5
1629.3	10847.5
1633.816	10762.5
1638.327	10659.5
1642.834	10600.5
1647.336	10609.5
1651.834	10472.5
1656.328	10529.5
1660.817	10425.5
1665.302	10473.5
1669.783	10437.5
1674.259	10238.5
1678.732	10054.5
1683.199	9863.5
1687.663	9743.5
1692.122	9332.5
1696.577	9022.5
1701.028	9029.5
1705.474	8930.5
1709.917	8883.5
1714.355	8845.5
1718.788	8796.5
1723.218	8673.5
1727.643	8415.5
1732.064	8279.5
1736.481	8355.5
1740.893	8084.5
1745.301	7954.5
1749.705	8017.5
1754.105	7584.5
1758.501	7573.5
1762.893	7274.5
1767.28	7251.5
1771.663	7021.5
1776.042	6847.5
1780.417	6733.5
1784.787	6584.5
1789.154	6571.5
1793.516	6520.5
1797.874	6772.5
1802.228	6939.5
1806.578	7098.5
1810.924	6974.5
1815.266	8098.5
1819.603	7053.5
1823.937	7028.5
1828.266	6929.5
1832.591	6911.5
1836.913	6785.5
1841.23	6836.5
1845.543	6748.5
1849.852	6557.5
1854.156	6616.5
1858.457	6600.5
1862.754	6239.5
1867.047	6435.5
1871.335	6306.5
1875.62	6275.5
1879.9	6238.5
1884.177	6404.5
1888.449	6271.5
1892.718	6247.5
1896.982	6229.5
1901.243	6324.5
1905.499	6249.5
1909.752	6264.5
1914	6353.5
1918.245	6178.5
1922.485	6190.5
1926.722	6327.5
1930.954	6285.5
1935.183	6269.5
1939.408	6271.5
1943.628	6311.5
1947.845	6270.5
1952.058	6331.5
1956.267	6244.5
1960.472	6190.5
1964.673	6309.5
1968.87	6326.5
1973.063	6357.5
1977.252	6193.5
1981.438	6194.5
1985.619	6056.5
1989.797	5914.5
1993.971	5932.5
1998.14	5714.5
2002.306	5735.5
2006.469	5702.5
2010.627	5711.5
2014.781	5639.5
2018.932	5676.5
2023.078	5501.5
2027.221	5504.5
2031.36	5593.5
2035.495	5608.5
2039.627	5475.5
2043.754	5478.5
2047.878	5405.5
2051.998	5383.5
2056.114	5389.5
2060.226	5353.5
2064.334	5263.5
2068.439	5149.5
2072.54	5226.5
2076.637	5373.5
2080.73	5337.5
2084.82	5212.5
2088.906	5262.5
2092.988	5188.5
2097.066	5411.5
2101.14	5280.5
2105.211	5368.5
2109.278	5355.5
2113.342	5408.5
2117.401	5439.5
2121.457	5352.5
2125.509	5373.5
2129.558	5190.5
2133.602	5217.5
2137.643	5117.5
2141.681	5007.5
2145.714	5078.5
2149.744	4955.5
2153.77	5022.5
2157.793	4954.5
2161.812	4988.5
2165.827	4958.5
2169.838	4824.5
2173.846	4814.5
2177.851	4730.5
2181.851	4689.5
2185.848	4712.5
2189.841	4609.5
2193.831	4632.5
2197.817	4441.5
2201.799	4494.5
2205.778	4549.5
2209.753	4485.5
2213.725	4482.5
2217.693	4419.5
2221.657	4386.5
2225.618	4251.5
2229.575	4329.5
2233.529	4196.5
2237.479	4303.5
2241.425	4267.5
2245.368	4353.5
2249.307	4267.5
2253.243	4214.5
2257.175	4208.5
2261.104	4157.5
2265.029	4042.5
2268.95	4020.5
2272.868	3971.5
2276.783	3937.5
2280.694	3735.5
2284.601	3821.5
2288.505	3783.5
2292.405	3698.5
2296.302	3719.5
2300.195	3548.5
2304.085	3712.5
2307.971	3664.5
2311.854	3657.5
2315.734	3562.5
2319.609	3541.5
2323.482	3650.5
2327.351	3563.5
2331.216	3544.5
2335.078	3559.5
2338.937	3488.5
2342.792	3532.5
2346.643	3412.5
2350.492	3432.5
2354.336	3348.5
2358.178	3358.5
2362.015	3382.5
2365.85	3396.5
2369.681	3400.5
2373.508	3370.5
2377.333	3346.5
2381.153	3427.5
2384.971	3393.5
2388.785	3428.5
2392.595	3414.5
2396.402	3465.5
2400.206	3507.5
2404.007	3423.5
2407.804	3335.5
2411.597	3180.5
2415.388	3366.5
2419.174	3313.5
2422.958	3239.5
2426.738	3220.5
2430.515	3112.5
2434.289	3253.5
2438.059	3230.5
2441.825	3212.5
2445.589	2989.5
2449.349	3159.5
2453.106	3036.5
2456.859	3011.5
2460.61	2967.5
2464.356	3008.5
2468.1	3021.5
2471.84	3017.5
2475.577	2986.5
2479.311	2931.5
2483.041	2921.5
2486.768	2807.5
2490.492	2614.5
2494.213	3063.5
2497.93	2874.5
2501.644	2955.5
2505.355	2915.5
2509.062	2857.5
2512.766	2887.5
2516.467	2888.5
2520.165	2884.5
2523.859	2929.5
2527.551	2675.5
2531.239	2780.5
2534.923	2804.5
2538.605	2792.5
2542.283	2779.5
2545.958	2782.5
2549.63	2721.5
2553.299	2724.5
2556.964	2766.5
2560.626	2693.5
2564.285	2643.5
2567.941	2702.5
2571.594	2759.5
2575.243	2620.5
2578.89	2714.5
2582.533	2671.5
2586.173	2623.5
2589.809	2639.5
2593.443	2852.5
2597.073	2606.5
2600.701	2462.5
2604.325	2610.5
2607.946	2632.5
2611.564	2535.5
2615.178	2424.5
2618.79	2499.5
2622.398	2564.5
2626.004	2502.5
2629.606	2348.5
2633.205	2612.5
2636.801	2364.5
2640.394	2440.5
2643.983	2459.5
2647.57	2399.5
2651.153	2338.5
2654.734	2213.5
2658.311	2451.5
2661.885	2316.5
2665.456	2285.5
2669.025	2247.5
2672.589	2229.5
2676.151	2163.5
2679.71	2108.5
2683.266	2252.5
2686.819	2084.5
2690.368	2038.5
2693.915	2100.5
2697.458	2141.5
2700.999	2022.5
2704.536	1989.5
2708.071	2026.5
2711.602	1945.5
2715.13	1969.5
2718.656	1972.5
2722.178	1866.5
2725.697	1926.5
2729.214	1645.5
2732.727	1797.5
2736.237	1801.5
2739.744	1808.5
2743.249	1831.5
2746.75	1855.5
2750.248	1940.5
2753.743	1937.5
2757.236	1875.5
2760.725	1881.5
2764.211	2070.5
2767.695	1891.5
2771.175	1863.5
2774.652	1863.5
2778.127	1896.5
2781.598	1911.5
2785.067	1886.5
2788.532	1880.5
2791.995	1857.5
2795.455	1817.5
2798.911	1821.5
2802.365	1927.5
2805.816	1924.5
2809.264	1802.5
2812.709	1932.5
2816.151	1813.5
2819.59	1973.5
2823.026	1935.5
2826.46	2019.5
2829.89	1924.5
2833.318	2140.5
2836.742	1967.5
2840.164	1965.5
2843.583	2007.5
2846.999	2033.5
2850.412	1955.5
2853.822	2075.5
2857.229	1938.5
2860.634	2030.5
2864.035	2073.5
2867.434	2030.5
2870.83	1917.5
2874.223	2165.5
2877.613	2022.5
2881	2237.5
2884.385	2307.5
2887.766	2213.5
2891.145	2217.5
2894.521	2310.5
2897.894	2340.5
2901.264	2018.5
2904.631	2322.5
2907.996	2314.5
2911.358	2280.5
2914.717	2269.5
2918.073	2300.5
2921.426	2273.5
2924.777	2377.5
2928.124	2375.5
2931.469	2308.5
2934.811	2537.5
2938.15	2412.5
2941.487	2489.5
2944.821	2438.5
2948.152	2558.5
2951.48	2523.5
2954.805	2452.5
2958.128	2415.5
2961.447	2506.5
2964.765	2405.5
2968.079	2560.5
2971.39	2490.5
2974.699	2525.5
2978.005	2482.5
2981.308	2592.5
2984.609	2674.5
2987.907	2617.5
2991.202	2663.5
2994.494	2782.5
2997.784	2380.5
3001.07	2672.5
3004.355	2686.5
3007.636	2772.5
3010.915	2852.5
3014.191	2952.5
3017.464	2872.5
3020.734	2909.5
3024.002	2949.5
3027.267	2986.5
3030.53	3079.5
3033.789	3160.5
3037.046	3231.5
3040.301	3231.5
3043.552	3266.5
3046.801	3361.5
3050.048	3261.5
3053.291	3247.5
3056.532	3463.5
3059.771	3585.5
3063.006	3572.5
3066.239	3645.5
3069.469	3748.5
3072.697	3976.5
3075.922	4051.5
3079.144	4110.5
3082.364	4164.5
3085.581	4375.5
3088.795	4294.5
3092.007	4413.5
3095.216	4650.5
3098.423	4825.5
3101.627	4937.5
3104.828	5009.5
3108.026	5128.5
3111.222	5113.5
3114.416	5204.5
3117.607	5333.5
3120.795	5448.5
3123.98	5585.5
3127.163	5761.5
3130.344	5794.5
3133.521	5899.5
3136.696	6031.5
3139.869	6062.5
3143.039	6218.5
3146.206	6190.5
3149.371	6395.5
3152.533	6570.5
3155.693	6624.5
3158.85	6756.5
3162.005	6768.5
3165.157	6880.5
3168.306	6906.5
3171.453	6825.5
3174.597	7114.5
3177.739	7048.5
3180.878	6960.5
3184.014	6949.5
3187.149	7050.5
3190.28	7003.5
3193.409	6928.5
3196.536	6895.5
3199.659	6972.5
3202.781	6879.5
3205.9	7100.5
3209.016	7003.5
3212.13	7030.5
3215.241	6901.5
3218.35	6942.5
3221.456	7005.5
3224.56	7101.5
3227.661	7070.5
3230.76	7191.5
3233.856	7115.5
3236.95	7036.5
3240.041	7108.5
3243.13	6901.5
3246.216	6945.5
3249.3	6803.5
3252.382	6795.5
3255.46	6956.5
3258.537	7143.5
3261.611	6776.5
3264.682	6676.5
3267.751	6573.5
3270.818	6590.5
3273.882	6431.5
3276.943	6433.5
3280.002	6361.5
3283.059	6403.5
3286.113	6309.5
3289.165	6383.5
3292.214	6270.5
3295.261	6119.5
3298.306	6204.5
3301.348	6052.5
3304.387	6033.5
3307.425	5965.5
3310.459	5920.5
3313.492	5698.5
3316.521	5667.5
3319.549	5546.5
3322.574	5536.5
3325.597	5397.5
3328.617	5438.5
3331.635	5179.5
3334.65	5393.5
3337.663	5343.5
3340.674	5300.5
3343.682	5158.5
3346.688	5127.5
3349.691	5056.5
3352.692	5250.5
3355.691	5047.5
3358.687	5093.5
3361.681	5066.5
3364.673	5037.5
3367.662	4971.5
3370.649	4916.5
3373.633	4995.5
3376.615	4978.5
3379.595	4998.5
3382.572	4917.5
3385.547	4748.5
3388.52	4843.5
3391.49	4776.5
3394.458	4707.5
3397.424	4588.5
3400.387	4630.5
3403.348	4306.5
3406.307	4310.5
3409.263	4365.5
3412.217	4220.5
3415.168	4180.5
3418.118	4200.5
3421.065	4124.5
3424.009	3941.5
3426.951	4058.5
3429.891	3823.5
3432.829	3934.5
3435.764	3907.5
3438.697	3907.5
3441.628	3707.5
3444.557	3727.5
3447.483	3715.5
3450.407	3492.5
3453.328	3377.5
3456.247	3474.5
3459.164	3492.5
3462.079	3202.5
3464.991	3205.5
3467.902	3265.5
3470.809	3059.5
3473.715	2956.5
3476.618	2893.5
3479.519	2786.5
3482.418	2863.5
3485.315	2690.5
3488.209	2575.5
3491.101	2516.5
3493.99	2556.5
3496.878	2206.5
3499.763	2230.5
3502.646	2186.5
3505.527	2266.5
3508.405	2108.5
3511.281	2096.5
3514.155	2097.5
3517.027	2029.5
3519.897	2108.5
3522.764	1819.5
3525.629	1881.5
3528.492	1850.5
3531.352	1871.5
3534.211	1654.5
3537.067	1695.5
3539.921	1565.5
3542.773	1516.5
3545.622	1478.5
3548.469	1479.5
3551.315	1408.5
3554.157	1344.5
3556.998	1242.5
3559.837	1166.5
3562.673	1014.5
3565.507	1150.5
3568.339	1013.5
3571.169	1036.5
3573.996	1005.5
3576.822	1031.5
3579.645	1005.5
3582.466	898.5
3585.285	853.5
3588.101	768.5
3590.916	878.5
3593.728	735.5
3596.538	815.5
3599.346	693.5
3602.152	775.5
3604.956	696.5
3607.757	600.5
3610.556	711.5
3613.354	631.5
3616.149	583.5
3618.942	586.5
3621.732	360.5
3624.521	587.5
3627.307	492.5
3630.092	474.5
3632.874	319.5
3635.654	451.5
3638.432	542.5
3641.208	378.5
3643.982	425.5
3646.753	370.5
3649.523	417.5
3652.29	414.5
3655.055	292.5
3657.818	260.5
3660.579	320.5
3663.338	387.5
3666.095	227.5
3668.849	374.5
3671.602	242.5
3674.352	332.5
3677.101	229.5
3679.847	172.5
3682.591	304.5
3685.333	253.5
3688.073	185.5
3690.811	268.5
3693.547	254.5
3696.281	221.5
3699.013	102.5
3701.742	132.5
3704.47	244.5
3707.195	94.5
3709.919	136.5
3712.64	151.5
3715.359	20.5
3718.076	-55.5
3720.792	92.5
3723.505	92.5
3726.216	32.5
3728.925	107.5
3731.632	-50.5
3734.336	175.5
3737.039	78.5
3739.74	92.5
3742.439	360.5
3745.136	81.5
3747.83	60.5
3750.523	99.5
3753.213	265.5
3755.902	51.5
3758.589	156.5
3761.273	122.5
3763.956	-55.5
3766.636	90.5
3769.315	-46.5
3771.991	137.5
3774.665	-85.5
3777.338	138.5
3780.008	91.5
3782.677	-191.5
3785.343	100.5
3788.007	87.5
3790.67	27.5
3793.33	-60.5
3795.989	17.5
3798.645	-9.5
3801.299	87.5
3803.952	-4.5
3806.602	-34.5
3809.251	23.5
3811.897	-26.5
3814.542	59.5
3817.184	49.5
3819.825	45.5
3822.463	-90.5
3825.1	32.5
3827.735	63.5
3830.367	-23.5
3832.998	-96.5
3835.627	-68.5
3838.253	-76.5
3840.878	-43.5
3843.501	-130.5
3846.122	-50.5
3848.741	-91.5
3851.358	-39.5
3853.973	128.5
3856.586	23.5
3859.197	-48.5
3861.806	-42.5
3864.414	88.5
3867.019	15.5
3869.622	-31.5
3872.224	-124.5
3874.823	66.5
3877.421	28.5
3880.016	90.5
3882.61	180.5
3885.202	101.5
3887.792	89.5
3890.38	-5.5
3892.966	86.5
3895.55	44.5
3898.132	18.5
3900.713	-111.5
3903.291	27.5
3905.868	-85.5
3908.442	-48.5
3911.015	-46.5
3913.586	-37.5
3916.155	-57.5
3918.722	75.5
3921.287	6.5
3923.85	-120.5
3926.411	-52.5
3928.971	-63.5
3931.528	21.5
3934.084	-46.5
3936.638	-18.5
3939.19	-152.5
3941.74	-35.5
3944.288	-60.5
3946.834	-35.5
3949.378	-31.5
3951.921	33.5
3954.462	-7.5
3957	-18.5
3959.537	-5.5
3962.072	38.5
3964.606	94.5
3967.137	-38.5
3969.667	-71.5
3972.194	0.5
3974.72	-43.5
3977.244	35.5
3979.766	48.5
3982.286	81.5
3984.805	-68.5
3987.321	-137.5
3989.836	-65.5
3992.349	13.5
3994.86	40.5
3997.369	0.5
3999.877	-87.5
4002.382	-42.5
4004.886	-45.5
4007.388	-21.5
4009.888	119.5
4012.386	-50.5
4014.883	-62.5
4017.377	-47.5
4019.87	-119.5
4022.361	58.5
4024.85	23.5
4027.338	-85.5
4029.823	-83.5
4032.307	-46.5
4034.789	-25.5
4037.269	38.5
4039.747	58.5
4042.224	87.5
4044.699	36.5
4047.172	-7.5
4049.643	-50.5
4052.112	63.5
4054.58	-5.5
4057.046	-46.5
4059.51	30.5
4061.972	-59.5
4064.432	13.5
4066.891	-78.5
4069.348	5.5
4071.803	-73.5
4074.256	-65.5
4076.708	-38.5
4079.158	-1.5
4081.606	-105.5
4084.052	4.5
4086.497	-154.5
4088.939	37.5
4091.38	-2.5
4093.819	-69.5
4096.257	-1115.5
4098.693	-1142.5
4101.127	-1215.5
4103.559	-1201.5
4105.989	155.5
4108.418	111.5
4110.845	363.5
4113.27	260.5
4115.694	362.5
4118.115	348.5
4120.535	-64.5
4122.954	-157.5
4125.37	-132.5
4127.785	-29.5
4130.198	-60.5
4132.609	-63.5
4135.019	-1242.5
4137.427	-1207.5
4139.833	-1152.5
4142.237	-1020.5
