Data from 2018-2-8_conc=5_RamanShift_10.txt Node
Date: Wed Feb 07 11:03:40 IST 2018
User: aro
Spectrometer: QEPB0276
Trigger mode: 0
Integration Time (sec): 3.000000E1
Scans to average: 1
Electric dark correction enabled: true
Nonlinearity correction enabled: false
Boxcar width: 0
XAxis mode: Raman Shifts
Number of Pixels in Spectrum: 1044
>>>>>Begin Spectral Data<<<<<
160.701	665.8
166.742	727.8
172.777	1246.8
178.805	2857.8
184.826	6428.8
190.841	12514.8
196.849	19980.8
202.85	25505.8
208.845	27543.8
214.833	27300.8
220.815	26937.8
226.789	26708.8
232.758	26514.8
238.719	26386.8
244.674	26083.8
250.623	25724.8
256.565	25234.8
262.5	24758.8
268.429	24062.8
274.351	23761.8
280.267	23561.8
286.176	22963.8
292.079	22723.8
297.975	22411.8
303.865	22162.8
309.748	21929.8
315.625	21805.8
321.495	21329.8
327.359	21336.8
333.217	21353.8
339.068	21372.8
344.912	21289.8
350.751	21321.8
356.583	21100.8
362.408	21227.8
368.227	21217.8
374.04	21366.8
379.847	21388.8
385.647	21509.8
391.44	21836.8
397.228	21731.8
403.009	21967.8
408.784	21872.8
414.553	22102.8
420.315	22174.8
426.071	22383.8
431.821	22192.8
437.565	22250.8
443.302	22013.8
449.033	21957.8
454.758	21875.8
460.477	21733.8
466.189	21691.8
471.896	21558.8
477.596	21496.8
483.29	21423.8
488.978	21459.8
494.66	21502.8
500.335	21336.8
506.005	21293.8
511.668	20977.8
517.325	20925.8
522.977	20773.8
528.622	20683.8
534.261	20468.8
539.894	20452.8
545.521	20344.8
551.141	20253.8
556.756	20031.8
562.365	19962.8
567.968	19741.8
573.565	19656.8
579.155	19513.8
584.74	19388.8
590.319	19281.8
595.892	19226.8
601.459	19114.8
607.02	19148.8
612.575	19319.8
618.124	19088.8
623.667	19245.8
629.204	19119.8
634.735	19156.8
640.261	19021.8
645.781	19207.8
651.294	18974.8
656.802	18581.8
662.304	18529.8
667.8	18325.8
673.29	18325.8
678.775	18244.8
684.254	18164.8
689.726	18373.8
695.193	18144.8
700.655	18058.8
706.11	18314.8
711.56	18122.8
717.004	18148.8
722.442	18391.8
727.874	18162.8
733.301	18155.8
738.722	18247.8
744.137	18000.8
749.547	17922.8
754.951	17884.8
760.349	17642.8
765.741	17502.8
771.128	17512.8
776.509	17520.8
781.885	17513.8
787.254	17379.8
792.618	17490.8
797.977	17588.8
803.33	17650.8
808.677	17672.8
814.019	17653.8
819.355	17707.8
824.686	17697.8
830.011	17673.8
835.33	17428.8
840.644	17254.8
845.952	17250.8
851.255	17018.8
856.552	16973.8
861.844	16783.8
867.13	16704.8
872.41	16677.8
877.686	16590.8
882.955	16692.8
888.219	16748.8
893.478	16931.8
898.731	16663.8
903.979	16627.8
909.221	16687.8
914.458	16516.8
919.69	16371.8
924.916	16282.8
930.136	16109.8
935.351	15964.8
940.561	15707.8
945.766	15670.8
950.965	15512.8
956.158	15603.8
961.347	15650.8
966.529	15636.8
971.707	15605.8
976.879	15554.8
982.046	15607.8
987.208	15684.8
992.364	15456.8
997.515	15541.8
1002.66	15270.8
1007.801	15415.8
1012.936	15415.8
1018.066	15402.8
1023.19	15215.8
1028.309	15108.8
1033.423	15234.8
1038.532	15269.8
1043.636	15458.8
1048.734	15465.8
1053.827	15545.8
1058.915	15577.8
1063.998	15340.8
1069.075	15191.8
1074.147	14995.8
1079.214	15050.8
1084.276	14644.8
1089.333	14750.8
1094.385	14632.8
1099.431	14640.8
1104.472	14537.8
1109.509	14780.8
1114.54	14825.8
1119.565	14867.8
1124.586	14786.8
1129.602	14966.8
1134.613	14804.8
1139.618	14690.8
1144.619	14441.8
1149.614	14256.8
1154.604	14134.8
1159.589	14121.8
1164.57	13804.8
1169.545	13872.8
1174.515	13968.8
1179.48	14018.8
1184.44	14082.8
1189.395	14227.8
1194.345	14379.8
1199.29	14278.8
1204.23	14382.8
1209.165	14268.8
1214.095	14214.8
1219.021	14154.8
1223.941	14037.8
1228.856	14062.8
1233.766	14025.8
1238.672	13919.8
1243.572	13831.8
1248.467	13898.8
1253.358	14059.8
1258.244	14090.8
1263.124	13948.8
1268	13796.8
1272.871	13838.8
1277.737	13793.8
1282.599	13557.8
1287.455	13386.8
1292.306	13220.8
1297.153	13171.8
1301.995	12948.8
1306.832	12948.8
1311.664	12951.8
1316.491	13056.8
1321.314	13029.8
1326.132	13010.8
1330.945	12941.8
1335.753	12822.8
1340.556	12702.8
1345.354	12526.8
1350.148	12262.8
1354.937	12044.8
1359.722	12023.8
1364.501	11811.8
1369.276	11553.8
1374.046	11618.8
1378.811	11767.8
1383.572	11900.8
1388.327	11603.8
1393.079	12210.8
1397.825	12261.8
1402.567	12169.8
1407.304	12128.8
1412.036	12140.8
1416.764	11917.8
1421.487	12260.8
1426.205	11988.8
1430.919	11738.8
1435.628	11554.8
1440.333	11529.8
1445.032	11377.8
1449.727	11265.8
1454.418	11333.8
1459.104	11342.8
1463.785	11161.8
1468.462	11189.8
1473.134	11144.8
1477.802	10957.8
1482.465	11072.8
1487.123	10644.8
1491.777	10820.8
1496.426	10709.8
1501.071	10502.8
1505.711	10458.8
1510.347	10546.8
1514.978	10656.8
1519.604	10784.8
1524.226	10839.8
1528.844	11194.8
1533.457	11016.8
1538.065	11173.8
1542.669	11149.8
1547.269	11277.8
1551.864	11279.8
1556.454	11467.8
1561.041	11287.8
1565.622	11301.8
1570.199	11004.8
1574.772	11011.8
1579.34	10764.8
1583.904	10982.8
1588.464	10975.8
1593.019	10889.8
1597.569	11101.8
1602.115	11110.8
1606.657	11234.8
1611.195	11206.8
1615.728	11304.8
1620.256	11430.8
1624.78	11434.8
1629.3	11373.8
1633.816	11216.8
1638.327	11158.8
1642.834	11128.8
1647.336	11134.8
1651.834	10934.8
1656.328	11085.8
1660.817	10947.8
1665.302	11053.8
1669.783	10958.8
1674.259	10654.8
1678.732	10518.8
1683.199	10220.8
1687.663	10151.8
1692.122	9638.8
1696.577	9370.8
1701.028	9398.8
1705.474	9311.8
1709.917	9258.8
1714.355	9336.8
1718.788	9166.8
1723.218	9059.8
1727.643	8815.8
1732.064	8637.8
1736.481	8645.8
1740.893	8408.8
1745.301	8331.8
1749.705	8512.8
1754.105	7941.8
1758.501	7901.8
1762.893	7650.8
1767.28	7593.8
1771.663	7401.8
1776.042	7237.8
1780.417	7176.8
1784.787	6898.8
1789.154	6981.8
1793.516	7014.8
1797.874	7164.8
1802.228	7163.8
1806.578	7384.8
1810.924	7285.8
1815.266	8046.8
1819.603	7359.8
1823.937	7363.8
1828.266	7250.8
1832.591	7222.8
1836.913	7101.8
1841.23	7160.8
1845.543	7135.8
1849.852	6855.8
1854.156	6895.8
1858.457	6830.8
1862.754	6591.8
1867.047	6786.8
1871.335	6600.8
1875.62	6591.8
1879.9	6540.8
1884.177	6732.8
1888.449	6556.8
1892.718	6625.8
1896.982	6456.8
1901.243	6671.8
1905.499	6642.8
1909.752	6497.8
1914	6665.8
1918.245	6448.8
1922.485	6445.8
1926.722	6496.8
1930.954	6531.8
1935.183	6578.8
1939.408	6505.8
1943.628	6568.8
1947.845	6563.8
1952.058	6673.8
1956.267	6683.8
1960.472	6514.8
1964.673	6619.8
1968.87	6643.8
1973.063	6647.8
1977.252	6446.8
1981.438	6409.8
1985.619	6295.8
1989.797	6219.8
1993.971	6196.8
1998.14	5969.8
2002.306	6057.8
2006.469	6013.8
2010.627	5924.8
2014.781	5926.8
2018.932	6054.8
2023.078	5774.8
2027.221	5793.8
2031.36	5875.8
2035.495	5843.8
2039.627	5753.8
2043.754	5689.8
2047.878	5647.8
2051.998	5671.8
2056.114	5643.8
2060.226	5684.8
2064.334	5505.8
2068.439	5432.8
2072.54	5456.8
2076.637	5646.8
2080.73	5580.8
2084.82	5491.8
2088.906	5566.8
2092.988	5476.8
2097.066	5779.8
2101.14	5524.8
2105.211	5640.8
2109.278	5609.8
2113.342	5620.8
2117.401	5752.8
2121.457	5621.8
2125.509	5609.8
2129.558	5403.8
2133.602	5482.8
2137.643	5399.8
2141.681	5388.8
2145.714	5341.8
2149.744	5242.8
2153.77	5249.8
2157.793	5230.8
2161.812	5345.8
2165.827	5238.8
2169.838	4972.8
2173.846	5095.8
2177.851	5007.8
2181.851	4931.8
2185.848	4998.8
2189.841	4895.8
2193.831	4951.8
2197.817	4679.8
2201.799	4760.8
2205.778	4825.8
2209.753	4792.8
2213.725	4700.8
2217.693	4688.8
2221.657	4738.8
2225.618	4506.8
2229.575	4565.8
2233.529	4489.8
2237.479	4573.8
2241.425	4534.8
2245.368	4615.8
2249.307	4482.8
2253.243	4508.8
2257.175	4489.8
2261.104	4400.8
2265.029	4290.8
2268.95	4289.8
2272.868	4208.8
2276.783	4191.8
2280.694	3975.8
2284.601	4064.8
2288.505	3959.8
2292.405	3936.8
2296.302	4031.8
2300.195	3816.8
2304.085	3999.8
2307.971	3796.8
2311.854	3884.8
2315.734	3789.8
2319.609	3801.8
2323.482	3950.8
2327.351	3785.8
2331.216	3752.8
2335.078	3758.8
2338.937	3800.8
2342.792	3708.8
2346.643	3629.8
2350.492	3683.8
2354.336	3665.8
2358.178	3615.8
2362.015	3581.8
2365.85	3708.8
2369.681	3662.8
2373.508	3643.8
2377.333	3515.8
2381.153	3654.8
2384.971	3684.8
2388.785	3648.8
2392.595	3667.8
2396.402	3701.8
2400.206	3720.8
2404.007	3745.8
2407.804	3623.8
2411.597	3558.8
2415.388	3630.8
2419.174	3516.8
2422.958	3522.8
2426.738	3484.8
2430.515	3390.8
2434.289	3442.8
2438.059	3474.8
2441.825	3486.8
2445.589	3258.8
2449.349	3455.8
2453.106	3317.8
2456.859	3340.8
2460.61	3337.8
2464.356	3293.8
2468.1	3269.8
2471.84	3279.8
2475.577	3271.8
2479.311	3198.8
2483.041	3082.8
2486.768	3015.8
2490.492	2812.8
2494.213	3110.8
2497.93	3145.8
2501.644	3136.8
2505.355	3170.8
2509.062	3017.8
2512.766	3068.8
2516.467	3049.8
2520.165	3043.8
2523.859	3183.8
2527.551	2864.8
2531.239	3039.8
2534.923	3037.8
2538.605	3081.8
2542.283	2943.8
2545.958	3040.8
2549.63	2881.8
2553.299	2810.8
2556.964	2737.8
2560.626	2968.8
2564.285	2867.8
2567.941	2907.8
2571.594	2866.8
2575.243	2775.8
2578.89	2924.8
2582.533	2955.8
2586.173	2878.8
2589.809	2803.8
2593.443	3146.8
2597.073	2917.8
2600.701	2702.8
2604.325	2806.8
2607.946	2820.8
2611.564	2754.8
2615.178	2621.8
2618.79	2637.8
2622.398	2808.8
2626.004	2765.8
2629.606	2602.8
2633.205	2841.8
2636.801	2697.8
2640.394	2653.8
2643.983	2640.8
2647.57	2647.8
2651.153	2587.8
2654.734	2460.8
2658.311	2723.8
2661.885	2532.8
2665.456	2570.8
2669.025	2465.8
2672.589	2495.8
2676.151	2273.8
2679.71	2275.8
2683.266	2398.8
2686.819	2356.8
2690.368	2303.8
2693.915	2162.8
2697.458	2397.8
2700.999	2168.8
2704.536	2227.8
2708.071	2186.8
2711.602	2135.8
2715.13	2195.8
2718.656	2130.8
2722.178	2085.8
2725.697	2254.8
2729.214	1884.8
2732.727	1960.8
2736.237	1994.8
2739.744	1944.8
2743.249	2090.8
2746.75	2094.8
2750.248	2106.8
2753.743	2067.8
2757.236	2123.8
2760.725	2072.8
2764.211	2277.8
2767.695	2114.8
2771.175	2113.8
2774.652	2058.8
2778.127	2105.8
2781.598	2022.8
2785.067	2060.8
2788.532	2079.8
2791.995	2053.8
2795.455	2100.8
2798.911	2090.8
2802.365	2193.8
2805.816	2006.8
2809.264	2018.8
2812.709	2110.8
2816.151	2055.8
2819.59	2187.8
2823.026	2181.8
2826.46	2191.8
2829.89	2130.8
2833.318	2347.8
2836.742	2244.8
2840.164	2126.8
2843.583	2274.8
2846.999	2287.8
2850.412	2211.8
2853.822	2522.8
2857.229	2107.8
2860.634	2195.8
2864.035	2336.8
2867.434	2165.8
2870.83	2245.8
2874.223	2382.8
2877.613	2240.8
2881	2451.8
2884.385	2550.8
2887.766	2465.8
2891.145	2403.8
2894.521	2601.8
2897.894	2617.8
2901.264	2308.8
2904.631	2576.8
2907.996	2547.8
2911.358	2554.8
2914.717	2559.8
2918.073	2568.8
2921.426	2518.8
2924.777	2699.8
2928.124	2655.8
2931.469	2578.8
2934.811	2818.8
2938.15	2633.8
2941.487	2734.8
2944.821	2425.8
2948.152	2874.8
2951.48	2696.8
2954.805	2700.8
2958.128	2637.8
2961.447	2723.8
2964.765	2619.8
2968.079	2783.8
2971.39	2756.8
2974.699	2822.8
2978.005	2777.8
2981.308	2777.8
2984.609	2983.8
2987.907	2881.8
2991.202	2974.8
2994.494	3067.8
2997.784	2626.8
3001.07	2915.8
3004.355	2986.8
3007.636	3043.8
3010.915	3130.8
3014.191	3180.8
3017.464	3238.8
3020.734	3182.8
3024.002	3299.8
3027.267	3388.8
3030.53	3376.8
3033.789	3407.8
3037.046	3512.8
3040.301	3559.8
3043.552	3586.8
3046.801	3687.8
3050.048	3485.8
3053.291	3552.8
3056.532	3697.8
3059.771	3920.8
3063.006	3959.8
3066.239	4035.8
3069.469	4102.8
3072.697	4337.8
3075.922	4390.8
3079.144	4484.8
3082.364	4477.8
3085.581	4797.8
3088.795	4521.8
3092.007	4802.8
3095.216	5014.8
3098.423	5303.8
3101.627	5416.8
3104.828	5400.8
3108.026	5546.8
3111.222	5618.8
3114.416	5610.8
3117.607	5773.8
3120.795	5995.8
3123.98	6031.8
3127.163	6279.8
3130.344	6270.8
3133.521	6438.8
3136.696	6416.8
3139.869	6548.8
3143.039	6654.8
3146.206	6727.8
3149.371	6935.8
3152.533	7096.8
3155.693	7172.8
3158.85	7284.8
3162.005	7295.8
3165.157	7450.8
3168.306	7523.8
3171.453	7385.8
3174.597	7677.8
3177.739	7660.8
3180.878	7470.8
3184.014	7561.8
3187.149	7595.8
3190.28	7563.8
3193.409	7503.8
3196.536	7509.8
3199.659	7399.8
3202.781	7450.8
3205.9	7689.8
3209.016	7510.8
3212.13	7495.8
3215.241	7430.8
3218.35	7520.8
3221.456	7544.8
3224.56	7710.8
3227.661	7672.8
3230.76	7716.8
3233.856	7618.8
3236.95	7561.8
3240.041	7648.8
3243.13	7374.8
3246.216	7441.8
3249.3	7294.8
3252.382	7264.8
3255.46	7431.8
3258.537	6654.8
3261.611	7305.8
3264.682	7112.8
3267.751	7062.8
3270.818	7191.8
3273.882	6986.8
3276.943	6894.8
3280.002	6815.8
3283.059	6870.8
3286.113	6881.8
3289.165	6879.8
3292.214	6813.8
3295.261	6552.8
3298.306	6723.8
3301.348	6528.8
3304.387	6449.8
3307.425	6394.8
3310.459	6375.8
3313.492	6146.8
3316.521	6113.8
3319.549	6031.8
3322.574	5928.8
3325.597	5883.8
3328.617	5776.8
3331.635	5743.8
3334.65	5782.8
3337.663	5682.8
3340.674	5722.8
3343.682	5505.8
3346.688	5570.8
3349.691	5578.8
3352.692	5676.8
3355.691	5436.8
3358.687	5503.8
3361.681	5464.8
3364.673	5487.8
3367.662	5476.8
3370.649	5324.8
3373.633	5436.8
3376.615	5380.8
3379.595	5487.8
3382.572	5256.8
3385.547	5163.8
3388.52	5303.8
3391.49	5200.8
3394.458	5143.8
3397.424	4916.8
3400.387	5073.8
3403.348	4710.8
3406.307	4781.8
3409.263	4763.8
3412.217	4606.8
3415.168	4526.8
3418.118	4543.8
3421.065	4437.8
3424.009	4240.8
3426.951	4406.8
3429.891	4379.8
3432.829	4308.8
3435.764	4218.8
3438.697	4234.8
3441.628	3933.8
3444.557	4144.8
3447.483	4118.8
3450.407	3846.8
3453.328	3707.8
3456.247	3831.8
3459.164	3876.8
3462.079	3503.8
3464.991	3488.8
3467.902	3388.8
3470.809	3352.8
3473.715	3248.8
3476.618	3181.8
3479.519	3022.8
3482.418	3148.8
3485.315	2974.8
3488.209	2882.8
3491.101	2671.8
3493.99	2882.8
3496.878	2435.8
3499.763	2484.8
3502.646	2413.8
3505.527	2606.8
3508.405	2383.8
3511.281	2335.8
3514.155	2307.8
3517.027	2301.8
3519.897	2405.8
3522.764	2094.8
3525.629	2199.8
3528.492	2045.8
3531.352	1878.8
3534.211	1888.8
3537.067	1967.8
3539.921	1890.8
3542.773	1765.8
3545.622	1746.8
3548.469	1748.8
3551.315	1576.8
3554.157	1506.8
3556.998	1448.8
3559.837	1338.8
3562.673	1284.8
3565.507	1411.8
3568.339	1219.8
3571.169	1288.8
3573.996	1245.8
3576.822	1202.8
3579.645	1133.8
3582.466	1118.8
3585.285	1019.8
3588.101	1010.8
3590.916	1055.8
3593.728	968.8
3596.538	1052.8
3599.346	907.8
3602.152	965.8
3604.956	960.8
3607.757	737.8
3610.556	1010.8
3613.354	760.8
3616.149	739.8
3618.942	749.8
3621.732	507.8
3624.521	755.8
3627.307	667.8
3630.092	647.8
3632.874	561.8
3635.654	655.8
3638.432	722.8
3641.208	597.8
3643.982	614.8
3646.753	509.8
3649.523	595.8
3652.29	567.8
3655.055	545.8
3657.818	435.8
3660.579	374.8
3663.338	629.8
3666.095	411.8
3668.849	582.8
3671.602	399.8
3674.352	622.8
3677.101	410.8
3679.847	304.8
3682.591	497.8
3685.333	432.8
3688.073	335.8
3690.811	461.8
3693.547	262.8
3696.281	367.8
3699.013	278.8
3701.742	296.8
3704.47	443.8
3707.195	299.8
3709.919	312.8
3712.64	273.8
3715.359	208.8
3718.076	40.8
3720.792	357.8
3723.505	295.8
3726.216	251.8
3728.925	305.8
3731.632	124.8
3734.336	347.8
3737.039	241.8
3739.74	266.8
3742.439	373.8
3745.136	152.8
3747.83	227.8
3750.523	229.8
3753.213	-210.2
3755.902	279.8
3758.589	313.8
3761.273	249.8
3763.956	106.8
3766.636	251.8
3769.315	34.8
3771.991	276.8
3774.665	149.8
3777.338	311.8
3780.008	278.8
3782.677	14.8
3785.343	335.8
3788.007	578.8
3790.67	120.8
3793.33	164.8
3795.989	225.8
3798.645	132.8
3801.299	347.8
3803.952	142.8
3806.602	134.8
3809.251	192.8
3811.897	185.8
3814.542	265.8
3817.184	188.8
3819.825	164.8
3822.463	-132.2
3825.1	135.8
3827.735	205.8
3830.367	167.8
3832.998	56.8
3835.627	79.8
3838.253	111.8
3840.878	-18.2
3843.501	30.8
3846.122	60.8
3848.741	22.8
3851.358	134.8
3853.973	309.8
3856.586	129.8
3859.197	106.8
3861.806	95.8
3864.414	230.8
3867.019	168.8
3869.622	91.8
3872.224	2.8
3874.823	266.8
3877.421	193.8
3880.016	267.8
3882.61	306.8
3885.202	309.8
3887.792	305.8
3890.38	107.8
3892.966	182.8
3895.55	192.8
3898.132	154.8
3900.713	83.8
3903.291	155.8
3905.868	145.8
3908.442	137.8
3911.015	57.8
3913.586	183.8
3916.155	111.8
3918.722	237.8
3921.287	125.8
3923.85	-130.2
3926.411	84.8
3928.971	25.8
3931.528	93.8
3934.084	133.8
3936.638	173.8
3939.19	80.8
3941.74	140.8
3944.288	56.8
3946.834	36.8
3949.378	70.8
3951.921	189.8
3954.462	87.8
3957	60.8
3959.537	144.8
3962.072	255.8
3964.606	243.8
3967.137	52.8
3969.667	120.8
3972.194	173.8
3974.72	154.8
3977.244	282.8
3979.766	85.8
3982.286	289.8
3984.805	90.8
3987.321	1.8
3989.836	128.8
3992.349	200.8
3994.86	94.8
3997.369	113.8
3999.877	59.8
4002.382	97.8
4004.886	217.8
4007.388	197.8
4009.888	269.8
4012.386	80.8
4014.883	163.8
4017.377	88.8
4019.87	7.8
4022.361	202.8
4024.85	222.8
4027.338	242.8
4029.823	87.8
4032.307	128.8
4034.789	177.8
4037.269	119.8
4039.747	200.8
4042.224	96.8
4044.699	178.8
4047.172	184.8
4049.643	73.8
4052.112	149.8
4054.58	151.8
4057.046	139.8
4059.51	210.8
4061.972	72.8
4064.432	259.8
4066.891	64.8
4069.348	161.8
4071.803	23.8
4074.256	85.8
4076.708	151.8
4079.158	212.8
4081.606	7.8
4084.052	154.8
4086.497	72.8
4088.939	200.8
4091.38	192.8
4093.819	83.8
4096.257	-1356.2
4098.693	-1414.2
4101.127	-1411.2
4103.559	-1463.2
4105.989	323.8
4108.418	390.8
4110.845	502.8
4113.27	427.8
4115.694	510.8
4118.115	568.8
4120.535	62.8
4122.954	-12.2
4125.37	-21.2
4127.785	107.8
4130.198	55.8
4132.609	46.8
4135.019	-1482.2
4137.427	-1423.2
4139.833	-1407.2
4142.237	-1185.2
