Data from 2018-2-8_conc=2_RamanShift_05.txt Node
Date: Wed Feb 07 09:51:40 IST 2018
User: aro
Spectrometer: QEPB0276
Trigger mode: 0
Integration Time (sec): 3.000000E1
Scans to average: 1
Electric dark correction enabled: true
Nonlinearity correction enabled: false
Boxcar width: 0
XAxis mode: Raman Shifts
Number of Pixels in Spectrum: 1044
>>>>>Begin Spectral Data<<<<<
160.701	534.6
166.742	686.6
172.777	1128.6
178.805	2739.6
184.826	6160.6
190.841	12067.6
196.849	19005.6
202.85	24170.6
208.845	26221.6
214.833	25940.6
220.815	25578.6
226.789	24218.6
232.758	25479.6
238.719	25474.6
244.674	25278.6
250.623	24898.6
256.565	24589.6
262.5	24138.6
268.429	23647.6
274.351	23413.6
280.267	23269.6
286.176	22814.6
292.079	22570.6
297.975	22269.6
303.865	22125.6
309.748	22042.6
315.625	21952.6
321.495	21363.6
327.359	21479.6
333.217	21479.6
339.068	21377.6
344.912	21522.6
350.751	21431.6
356.583	21424.6
362.408	21376.6
368.227	21381.6
374.04	21503.6
379.847	21537.6
385.647	21691.6
391.44	21913.6
397.228	21993.6
403.009	22100.6
408.784	22320.6
414.553	22258.6
420.315	22480.6
426.071	22493.6
431.821	22450.6
437.565	22423.6
443.302	22180.6
449.033	22218.6
454.758	22042.6
460.477	21920.6
466.189	21766.6
471.896	21706.6
477.596	21672.6
483.29	21730.6
488.978	21691.6
494.66	21692.6
500.335	21702.6
506.005	21616.6
511.668	21330.6
517.325	21231.6
522.977	20958.6
528.622	21000.6
534.261	20933.6
539.894	20782.6
545.521	20749.6
551.141	20713.6
556.756	20431.6
562.365	20333.6
567.968	20252.6
573.565	20072.6
579.155	19895.6
584.74	19835.6
590.319	19718.6
595.892	19689.6
601.459	19622.6
607.02	19756.6
612.575	19703.6
618.124	19478.6
623.667	19788.6
629.204	19584.6
634.735	19665.6
640.261	19488.6
645.781	19683.6
651.294	19368.6
656.802	19165.6
662.304	19079.6
667.8	18773.6
673.29	18839.6
678.775	18704.6
684.254	18777.6
689.726	18717.6
695.193	18548.6
700.655	18700.6
706.11	18840.6
711.56	18612.6
717.004	18729.6
722.442	18668.6
727.874	18700.6
733.301	18684.6
738.722	18791.6
744.137	18498.6
749.547	18411.6
754.951	18395.6
760.349	18233.6
765.741	18009.6
771.128	18035.6
776.509	18047.6
781.885	17987.6
787.254	17949.6
792.618	18072.6
797.977	18151.6
803.33	18221.6
808.677	18378.6
814.019	18205.6
819.355	18216.6
824.686	18231.6
830.011	18251.6
835.33	18043.6
840.644	17715.6
845.952	17780.6
851.255	17530.6
856.552	17536.6
861.844	17372.6
867.13	17334.6
872.41	17249.6
877.686	17149.6
882.955	17288.6
888.219	17450.6
893.478	17433.6
898.731	17320.6
903.979	17198.6
909.221	17316.6
914.458	17216.6
919.69	17064.6
924.916	16906.6
930.136	16699.6
935.351	16665.6
940.561	16298.6
945.766	16331.6
950.965	16088.6
956.158	16283.6
961.347	16281.6
966.529	16260.6
971.707	16206.6
976.879	16217.6
982.046	16346.6
987.208	16349.6
992.364	16177.6
997.515	16090.6
1002.66	15937.6
1007.801	16059.6
1012.936	15995.6
1018.066	16049.6
1023.19	15734.6
1028.309	15690.6
1033.423	15839.6
1038.532	15916.6
1043.636	16148.6
1048.734	16098.6
1053.827	16189.6
1058.915	16181.6
1063.998	16001.6
1069.075	15841.6
1074.147	15686.6
1079.214	15649.6
1084.276	15312.6
1089.333	15297.6
1094.385	15248.6
1099.431	15293.6
1104.472	15212.6
1109.509	15355.6
1114.54	15402.6
1119.565	15535.6
1124.586	15451.6
1129.602	15467.6
1134.613	15383.6
1139.618	15321.6
1144.619	15113.6
1149.614	14933.6
1154.604	14766.6
1159.589	14712.6
1164.57	14492.6
1169.545	14468.6
1174.515	14567.6
1179.48	14687.6
1184.44	14700.6
1189.395	14859.6
1194.345	14916.6
1199.29	14920.6
1204.23	15004.6
1209.165	14950.6
1214.095	14870.6
1219.021	14682.6
1223.941	14710.6
1228.856	14682.6
1233.766	14563.6
1238.672	14481.6
1243.572	14429.6
1248.467	14543.6
1253.358	14628.6
1258.244	14656.6
1263.124	14589.6
1268	14425.6
1272.871	14392.6
1277.737	14414.6
1282.599	14110.6
1287.455	13977.6
1292.306	13754.6
1297.153	13731.6
1301.995	13698.6
1306.832	13570.6
1311.664	13553.6
1316.491	13607.6
1321.314	13546.6
1326.132	13481.6
1330.945	13363.6
1335.753	13287.6
1340.556	13090.6
1345.354	12995.6
1350.148	12706.6
1354.937	12587.6
1359.722	12548.6
1364.501	12335.6
1369.276	12327.6
1374.046	12336.6
1378.811	12535.6
1383.572	12561.6
1388.327	12362.6
1393.079	12774.6
1397.825	12834.6
1402.567	12726.6
1407.304	12677.6
1412.036	12710.6
1416.764	12619.6
1421.487	12774.6
1426.205	12458.6
1430.919	12250.6
1435.628	12076.6
1440.333	12105.6
1445.032	11865.6
1449.727	11919.6
1454.418	11785.6
1459.104	11856.6
1463.785	11679.6
1468.462	11631.6
1473.134	11611.6
1477.802	11493.6
1482.465	11550.6
1487.123	11259.6
1491.777	11451.6
1496.426	11326.6
1501.071	11130.6
1505.711	11190.6
1510.347	11242.6
1514.978	11341.6
1519.604	11483.6
1524.226	11531.6
1528.844	11855.6
1533.457	11691.6
1538.065	11879.6
1542.669	11829.6
1547.269	11998.6
1551.864	11865.6
1556.454	12027.6
1561.041	11859.6
1565.622	11807.6
1570.199	11530.6
1574.772	11605.6
1579.34	11232.6
1583.904	11420.6
1588.464	11401.6
1593.019	11373.6
1597.569	11547.6
1602.115	11518.6
1606.657	11563.6
1611.195	11530.6
1615.728	11673.6
1620.256	11593.6
1624.78	11707.6
1629.3	11651.6
1633.816	11478.6
1638.327	11443.6
1642.834	11403.6
1647.336	11367.6
1651.834	11219.6
1656.328	11317.6
1660.817	11183.6
1665.302	11266.6
1669.783	11234.6
1674.259	11059.6
1678.732	10789.6
1683.199	10545.6
1687.663	10507.6
1692.122	10052.6
1696.577	9901.6
1701.028	9924.6
1705.474	9858.6
1709.917	9903.6
1714.355	9888.6
1718.788	9718.6
1723.218	9570.6
1727.643	9401.6
1732.064	9169.6
1736.481	9187.6
1740.893	8978.6
1745.301	8869.6
1749.705	8913.6
1754.105	8480.6
1758.501	8483.6
1762.893	8082.6
1767.28	8050.6
1771.663	7815.6
1776.042	7707.6
1780.417	7570.6
1784.787	7404.6
1789.154	7465.6
1793.516	7382.6
1797.874	7719.6
1802.228	7840.6
1806.578	8061.6
1810.924	7829.6
1815.266	8801.6
1819.603	7889.6
1823.937	7907.6
1828.266	7814.6
1832.591	7735.6
1836.913	7660.6
1841.23	7679.6
1845.543	7655.6
1849.852	7452.6
1854.156	7383.6
1858.457	7388.6
1862.754	7313.6
1867.047	7241.6
1871.335	7074.6
1875.62	7180.6
1879.9	7033.6
1884.177	7144.6
1888.449	7075.6
1892.718	7073.6
1896.982	6983.6
1901.243	7177.6
1905.499	7118.6
1909.752	7014.6
1914	7164.6
1918.245	7023.6
1922.485	7051.6
1926.722	7126.6
1930.954	7099.6
1935.183	7201.6
1939.408	7094.6
1943.628	7164.6
1947.845	7166.6
1952.058	7224.6
1956.267	7079.6
1960.472	7051.6
1964.673	7206.6
1968.87	7117.6
1973.063	7110.6
1977.252	6992.6
1981.438	6887.6
1985.619	6771.6
1989.797	6733.6
1993.971	6620.6
1998.14	6464.6
2002.306	6501.6
2006.469	6393.6
2010.627	6354.6
2014.781	6345.6
2018.932	6384.6
2023.078	6152.6
2027.221	6239.6
2031.36	6201.6
2035.495	6259.6
2039.627	6140.6
2043.754	6096.6
2047.878	6033.6
2051.998	5992.6
2056.114	6006.6
2060.226	5995.6
2064.334	5922.6
2068.439	5803.6
2072.54	5844.6
2076.637	5983.6
2080.73	5873.6
2084.82	5902.6
2088.906	6014.6
2092.988	5856.6
2097.066	6049.6
2101.14	5888.6
2105.211	5971.6
2109.278	5991.6
2113.342	5997.6
2117.401	6125.6
2121.457	6011.6
2125.509	5982.6
2129.558	5784.6
2133.602	5857.6
2137.643	5752.6
2141.681	5611.6
2145.714	5651.6
2149.744	5458.6
2153.77	5603.6
2157.793	5520.6
2161.812	5615.6
2165.827	5580.6
2169.838	5366.6
2173.846	5372.6
2177.851	5258.6
2181.851	5231.6
2185.848	5415.6
2189.841	5046.6
2193.831	5206.6
2197.817	4966.6
2201.799	5038.6
2205.778	5053.6
2209.753	5019.6
2213.725	5011.6
2217.693	4948.6
2221.657	4931.6
2225.618	4761.6
2229.575	4811.6
2233.529	4750.6
2237.479	4825.6
2241.425	4760.6
2245.368	4920.6
2249.307	4804.6
2253.243	4734.6
2257.175	4721.6
2261.104	4692.6
2265.029	4555.6
2268.95	4508.6
2272.868	4492.6
2276.783	4498.6
2280.694	4235.6
2284.601	4238.6
2288.505	4251.6
2292.405	4097.6
2296.302	4175.6
2300.195	4115.6
2304.085	4176.6
2307.971	4076.6
2311.854	4120.6
2315.734	3985.6
2319.609	4027.6
2323.482	4151.6
2327.351	4013.6
2331.216	3929.6
2335.078	3970.6
2338.937	3975.6
2342.792	3938.6
2346.643	3859.6
2350.492	3827.6
2354.336	3848.6
2358.178	3747.6
2362.015	3772.6
2365.85	3990.6
2369.681	3904.6
2373.508	3813.6
2377.333	3772.6
2381.153	3880.6
2384.971	3852.6
2388.785	3882.6
2392.595	3884.6
2396.402	3951.6
2400.206	3964.6
2404.007	3878.6
2407.804	3851.6
2411.597	3661.6
2415.388	3748.6
2419.174	3701.6
2422.958	3679.6
2426.738	3624.6
2430.515	3510.6
2434.289	3639.6
2438.059	3660.6
2441.825	3626.6
2445.589	3400.6
2449.349	3546.6
2453.106	3452.6
2456.859	3450.6
2460.61	3351.6
2464.356	3419.6
2468.1	3427.6
2471.84	3448.6
2475.577	3385.6
2479.311	3349.6
2483.041	3300.6
2486.768	3189.6
2490.492	3030.6
2494.213	3431.6
2497.93	3309.6
2501.644	3345.6
2505.355	3330.6
2509.062	3247.6
2512.766	3273.6
2516.467	3307.6
2520.165	3244.6
2523.859	3300.6
2527.551	3056.6
2531.239	3194.6
2534.923	3225.6
2538.605	3210.6
2542.283	3148.6
2545.958	3179.6
2549.63	3088.6
2553.299	3092.6
2556.964	3106.6
2560.626	3117.6
2564.285	3009.6
2567.941	3111.6
2571.594	3137.6
2575.243	2965.6
2578.89	3128.6
2582.533	3147.6
2586.173	3088.6
2589.809	3003.6
2593.443	3226.6
2597.073	3039.6
2600.701	2879.6
2604.325	2991.6
2607.946	2982.6
2611.564	2906.6
2615.178	2820.6
2618.79	2844.6
2622.398	2918.6
2626.004	2892.6
2629.606	2751.6
2633.205	2975.6
2636.801	2858.6
2640.394	2740.6
2643.983	2793.6
2647.57	2789.6
2651.153	2736.6
2654.734	2553.6
2658.311	2780.6
2661.885	2666.6
2665.456	2562.6
2669.025	2600.6
2672.589	2516.6
2676.151	2395.6
2679.71	2434.6
2683.266	2413.6
2686.819	2488.6
2690.368	2357.6
2693.915	2358.6
2697.458	2462.6
2700.999	2259.6
2704.536	2238.6
2708.071	2247.6
2711.602	2220.6
2715.13	2251.6
2718.656	2239.6
2722.178	2125.6
2725.697	2228.6
2729.214	1893.6
2732.727	2016.6
2736.237	2200.6
2739.744	2111.6
2743.249	2156.6
2746.75	2118.6
2750.248	2227.6
2753.743	2148.6
2757.236	2121.6
2760.725	2173.6
2764.211	2443.6
2767.695	2192.6
2771.175	2179.6
2774.652	2208.6
2778.127	2212.6
2781.598	2166.6
2785.067	2157.6
2788.532	2105.6
2791.995	2121.6
2795.455	2142.6
2798.911	2052.6
2802.365	2190.6
2805.816	2098.6
2809.264	2064.6
2812.709	2163.6
2816.151	2174.6
2819.59	2263.6
2823.026	2269.6
2826.46	2235.6
2829.89	2257.6
2833.318	2444.6
2836.742	2216.6
2840.164	2180.6
2843.583	2308.6
2846.999	2272.6
2850.412	2216.6
2853.822	2351.6
2857.229	2211.6
2860.634	2300.6
2864.035	2313.6
2867.434	2235.6
2870.83	2253.6
2874.223	2335.6
2877.613	2318.6
2881	2462.6
2884.385	2460.6
2887.766	2457.6
2891.145	2346.6
2894.521	2482.6
2897.894	2514.6
2901.264	2233.6
2904.631	2417.6
2907.996	2426.6
2911.358	2447.6
2914.717	2479.6
2918.073	2429.6
2921.426	2460.6
2924.777	2569.6
2928.124	2485.6
2931.469	2414.6
2934.811	2722.6
2938.15	2443.6
2941.487	2562.6
2944.821	2499.6
2948.152	2610.6
2951.48	2599.6
2954.805	2523.6
2958.128	2454.6
2961.447	2584.6
2964.765	2451.6
2968.079	2670.6
2971.39	2514.6
2974.699	2624.6
2978.005	2561.6
2981.308	2687.6
2984.609	2748.6
2987.907	2641.6
2991.202	2778.6
2994.494	2805.6
2997.784	2540.6
3001.07	2725.6
3004.355	2798.6
3007.636	2800.6
3010.915	2949.6
3014.191	2900.6
3017.464	2923.6
3020.734	2922.6
3024.002	3018.6
3027.267	3044.6
3030.53	3068.6
3033.789	3132.6
3037.046	3265.6
3040.301	3164.6
3043.552	3285.6
3046.801	3311.6
3050.048	3212.6
3053.291	3196.6
3056.532	3411.6
3059.771	3549.6
3063.006	3515.6
3066.239	3549.6
3069.469	3628.6
3072.697	3919.6
3075.922	3942.6
3079.144	3942.6
3082.364	3999.6
3085.581	4208.6
3088.795	4205.6
3092.007	4287.6
3095.216	4490.6
3098.423	4707.6
3101.627	4849.6
3104.828	4834.6
3108.026	4932.6
3111.222	4952.6
3114.416	4938.6
3117.607	5250.6
3120.795	5207.6
3123.98	5304.6
3127.163	5551.6
3130.344	5495.6
3133.521	5652.6
3136.696	5691.6
3139.869	5787.6
3143.039	5907.6
3146.206	5863.6
3149.371	6038.6
3152.533	6214.6
3155.693	6306.6
3158.85	6323.6
3162.005	6360.6
3165.157	6534.6
3168.306	6541.6
3171.453	6453.6
3174.597	6687.6
3177.739	6670.6
3180.878	6567.6
3184.014	6541.6
3187.149	6550.6
3190.28	6596.6
3193.409	6575.6
3196.536	6448.6
3199.659	6468.6
3202.781	6455.6
3205.9	6612.6
3209.016	6478.6
3212.13	6512.6
3215.241	6380.6
3218.35	6504.6
3221.456	6576.6
3224.56	6591.6
3227.661	6609.6
3230.76	6593.6
3233.856	6604.6
3236.95	6561.6
3240.041	6625.6
3243.13	6414.6
3246.216	6480.6
3249.3	6310.6
3252.382	6346.6
3255.46	6474.6
3258.537	6789.6
3261.611	6322.6
3264.682	6156.6
3267.751	6224.6
3270.818	6241.6
3273.882	6022.6
3276.943	5932.6
3280.002	5894.6
3283.059	5883.6
3286.113	5968.6
3289.165	5961.6
3292.214	5867.6
3295.261	5663.6
3298.306	5817.6
3301.348	5711.6
3304.387	5554.6
3307.425	5459.6
3310.459	5446.6
3313.492	5264.6
3316.521	5291.6
3319.549	5203.6
3322.574	5180.6
3325.597	5065.6
3328.617	5064.6
3331.635	4974.6
3334.65	4957.6
3337.663	4967.6
3340.674	4865.6
3343.682	4751.6
3346.688	4776.6
3349.691	4738.6
3352.692	4880.6
3355.691	4579.6
3358.687	4710.6
3361.681	4697.6
3364.673	4634.6
3367.662	4661.6
3370.649	4601.6
3373.633	4617.6
3376.615	4486.6
3379.595	4690.6
3382.572	4489.6
3385.547	4429.6
3388.52	4491.6
3391.49	4378.6
3394.458	4440.6
3397.424	4264.6
3400.387	4329.6
3403.348	3968.6
3406.307	3984.6
3409.263	4072.6
3412.217	3912.6
3415.168	3935.6
3418.118	3904.6
3421.065	3869.6
3424.009	3655.6
3426.951	3751.6
3429.891	3557.6
3432.829	3704.6
3435.764	3631.6
3438.697	3607.6
3441.628	3410.6
3444.557	3533.6
3447.483	3502.6
3450.407	3291.6
3453.328	3355.6
3456.247	3271.6
3459.164	3272.6
3462.079	3014.6
3464.991	3016.6
3467.902	3041.6
3470.809	2926.6
3473.715	2780.6
3476.618	2745.6
3479.519	2629.6
3482.418	2718.6
3485.315	2518.6
3488.209	2445.6
3491.101	2443.6
3493.99	2468.6
3496.878	2073.6
3499.763	2134.6
3502.646	2122.6
3505.527	2219.6
3508.405	2080.6
3511.281	1997.6
3514.155	1995.6
3517.027	1959.6
3519.897	2071.6
3522.764	1824.6
3525.629	1870.6
3528.492	1712.6
3531.352	1754.6
3534.211	1601.6
3537.067	1686.6
3539.921	1555.6
3542.773	1529.6
3545.622	1455.6
3548.469	1505.6
3551.315	1381.6
3554.157	1316.6
3556.998	1240.6
3559.837	1161.6
3562.673	1069.6
3565.507	1185.6
3568.339	1124.6
3571.169	1119.6
3573.996	1025.6
3576.822	1087.6
3579.645	1047.6
3582.466	996.6
3585.285	883.6
3588.101	887.6
3590.916	913.6
3593.728	821.6
3596.538	857.6
3599.346	749.6
3602.152	859.6
3604.956	796.6
3607.757	614.6
3610.556	798.6
3613.354	667.6
3616.149	643.6
3618.942	633.6
3621.732	417.6
3624.521	649.6
3627.307	539.6
3630.092	553.6
3632.874	433.6
3635.654	591.6
3638.432	564.6
3641.208	551.6
3643.982	515.6
3646.753	462.6
3649.523	517.6
3652.29	537.6
3655.055	484.6
3657.818	354.6
3660.579	334.6
3663.338	562.6
3666.095	307.6
3668.849	541.6
3671.602	337.6
3674.352	425.6
3677.101	341.6
3679.847	227.6
3682.591	400.6
3685.333	376.6
3688.073	270.6
3690.811	371.6
3693.547	417.6
3696.281	339.6
3699.013	209.6
3701.742	255.6
3704.47	340.6
3707.195	247.6
3709.919	192.6
3712.64	236.6
3715.359	102.6
3718.076	7.6
3720.792	166.6
3723.505	228.6
3726.216	189.6
3728.925	268.6
3731.632	96.6
3734.336	283.6
3737.039	195.6
3739.74	189.6
3742.439	292.6
3745.136	135.6
3747.83	102.6
3750.523	180.6
3753.213	121.6
3755.902	148.6
3758.589	213.6
3761.273	204.6
3763.956	3.6
3766.636	191.6
3769.315	-3.4
3771.991	225.6
3774.665	131.6
3777.338	307.6
3780.008	233.6
3782.677	111.6
3785.343	267.6
3788.007	254.6
3790.67	121.6
3793.33	69.6
3795.989	177.6
3798.645	111.6
3801.299	262.6
3803.952	123.6
3806.602	95.6
3809.251	159.6
3811.897	156.6
3814.542	146.6
3817.184	144.6
3819.825	246.6
3822.463	250.6
3825.1	97.6
3827.735	139.6
3830.367	131.6
3832.998	23.6
3835.627	43.6
3838.253	41.6
3840.878	102.6
3843.501	-31.4
3846.122	28.6
3848.741	-32.4
3851.358	80.6
3853.973	237.6
3856.586	94.6
3859.197	66.6
3861.806	99.6
3864.414	196.6
3867.019	97.6
3869.622	44.6
3872.224	-59.4
3874.823	169.6
3877.421	182.6
3880.016	182.6
3882.61	283.6
3885.202	275.6
3887.792	220.6
3890.38	81.6
3892.966	207.6
3895.55	109.6
3898.132	76.6
3900.713	23.6
3903.291	127.6
3905.868	39.6
3908.442	60.6
3911.015	70.6
3913.586	43.6
3916.155	27.6
3918.722	178.6
3921.287	91.6
3923.85	193.6
3926.411	15.6
3928.971	-1.4
3931.528	113.6
3934.084	98.6
3936.638	62.6
3939.19	36.6
3941.74	49.6
3944.288	-8.4
3946.834	127.6
3949.378	43.6
3951.921	153.6
3954.462	88.6
3957	111.6
3959.537	152.6
3962.072	186.6
3964.606	172.6
3967.137	58.6
3969.667	71.6
3972.194	98.6
3974.72	120.6
3977.244	187.6
3979.766	110.6
3982.286	209.6
3984.805	39.6
3987.321	3.6
3989.836	9.6
3992.349	123.6
3994.86	137.6
3997.369	61.6
3999.877	66.6
4002.382	100.6
4004.886	169.6
4007.388	94.6
4009.888	200.6
4012.386	-10.4
4014.883	62.6
4017.377	121.6
4019.87	-62.4
4022.361	150.6
4024.85	149.6
4027.338	186.6
4029.823	63.6
4032.307	71.6
4034.789	108.6
4037.269	170.6
4039.747	207.6
4042.224	61.6
4044.699	110.6
4047.172	30.6
4049.643	57.6
4052.112	250.6
4054.58	117.6
4057.046	119.6
4059.51	137.6
4061.972	57.6
4064.432	213.6
4066.891	1.6
4069.348	141.6
4071.803	24.6
4074.256	25.6
4076.708	133.6
4079.158	62.6
4081.606	-48.4
4084.052	104.6
4086.497	58.6
4088.939	125.6
4091.38	182.6
4093.819	42.6
4096.257	-1346.4
4098.693	-1268.4
4101.127	-1314.4
4103.559	-1340.4
4105.989	461.6
4108.418	228.6
4110.845	469.6
4113.27	351.6
4115.694	497.6
4118.115	473.6
4120.535	17.6
4122.954	3.6
4125.37	-57.4
4127.785	86.6
4130.198	19.6
4132.609	61.6
4135.019	-1353.4
4137.427	-1339.4
4139.833	-1284.4
4142.237	-1112.4
