Data from 2018-2-8_conc=6_RamanShift_04.txt Node
Date: Wed Feb 07 11:23:40 IST 2018
User: aro
Spectrometer: QEPB0276
Trigger mode: 0
Integration Time (sec): 3.000000E1
Scans to average: 1
Electric dark correction enabled: true
Nonlinearity correction enabled: false
Boxcar width: 0
XAxis mode: Raman Shifts
Number of Pixels in Spectrum: 1044
>>>>>Begin Spectral Data<<<<<
160.701	728.6
166.742	877.6
172.777	1290.6
178.805	2944.6
184.826	6422.6
190.841	12475.6
196.849	19737.6
202.85	25162.6
208.845	27148.6
214.833	26933.6
220.815	26539.6
226.789	26470.6
232.758	26267.6
238.719	26264.6
244.674	25965.6
250.623	25441.6
256.565	25051.6
262.5	24696.6
268.429	23951.6
274.351	23709.6
280.267	23546.6
286.176	22958.6
292.079	22669.6
297.975	22492.6
303.865	22204.6
309.748	22048.6
315.625	21890.6
321.495	21391.6
327.359	21435.6
333.217	21498.6
339.068	21444.6
344.912	21427.6
350.751	21381.6
356.583	21226.6
362.408	21283.6
368.227	21232.6
374.04	21427.6
379.847	21415.6
385.647	21537.6
391.44	21804.6
397.228	21801.6
403.009	22151.6
408.784	21928.6
414.553	22160.6
420.315	22262.6
426.071	22374.6
431.821	22287.6
437.565	22253.6
443.302	22118.6
449.033	22060.6
454.758	21915.6
460.477	21806.6
466.189	21702.6
471.896	21656.6
477.596	21459.6
483.29	21611.6
488.978	21621.6
494.66	21554.6
500.335	21540.6
506.005	21433.6
511.668	21106.6
517.325	21038.6
522.977	20833.6
528.622	20756.6
534.261	20698.6
539.894	20648.6
545.521	20532.6
551.141	20429.6
556.756	20151.6
562.365	20100.6
567.968	19925.6
573.565	19772.6
579.155	19695.6
584.74	19676.6
590.319	19408.6
595.892	19356.6
601.459	19375.6
607.02	19390.6
612.575	19531.6
618.124	19211.6
623.667	19444.6
629.204	19238.6
634.735	19279.6
640.261	19186.6
645.781	19397.6
651.294	19147.6
656.802	18809.6
662.304	18786.6
667.8	18521.6
673.29	18578.6
678.775	18431.6
684.254	18512.6
689.726	18479.6
695.193	18193.6
700.655	18371.6
706.11	18527.6
711.56	18360.6
717.004	18416.6
722.442	18576.6
727.874	18284.6
733.301	18355.6
738.722	18560.6
744.137	18171.6
749.547	18119.6
754.951	17998.6
760.349	17850.6
765.741	17666.6
771.128	17714.6
776.509	17738.6
781.885	17679.6
787.254	17642.6
792.618	17772.6
797.977	17917.6
803.33	17992.6
808.677	17910.6
814.019	17886.6
819.355	17896.6
824.686	17957.6
830.011	17929.6
835.33	17675.6
840.644	17426.6
845.952	17557.6
851.255	17234.6
856.552	17213.6
861.844	17020.6
867.13	16950.6
872.41	16963.6
877.686	16773.6
882.955	16877.6
888.219	17010.6
893.478	17073.6
898.731	16915.6
903.979	16857.6
909.221	16967.6
914.458	16827.6
919.69	16582.6
924.916	16559.6
930.136	16298.6
935.351	16180.6
940.561	15970.6
945.766	15911.6
950.965	15685.6
956.158	15931.6
961.347	15895.6
966.529	15891.6
971.707	15862.6
976.879	15790.6
982.046	15928.6
987.208	15974.6
992.364	15738.6
997.515	15754.6
1002.66	15635.6
1007.801	15746.6
1012.936	15668.6
1018.066	15736.6
1023.19	15443.6
1028.309	15349.6
1033.423	15503.6
1038.532	15540.6
1043.636	15773.6
1048.734	15658.6
1053.827	15888.6
1058.915	15788.6
1063.998	15655.6
1069.075	15543.6
1074.147	15328.6
1079.214	15309.6
1084.276	14938.6
1089.333	15033.6
1094.385	14917.6
1099.431	14936.6
1104.472	14787.6
1109.509	15077.6
1114.54	15121.6
1119.565	15249.6
1124.586	15070.6
1129.602	15165.6
1134.613	15124.6
1139.618	14985.6
1144.619	14765.6
1149.614	14529.6
1154.604	14427.6
1159.589	14344.6
1164.57	14091.6
1169.545	14078.6
1174.515	14166.6
1179.48	14233.6
1184.44	14289.6
1189.395	14528.6
1194.345	14677.6
1199.29	14578.6
1204.23	14735.6
1209.165	14655.6
1214.095	14472.6
1219.021	14323.6
1223.941	14239.6
1228.856	14334.6
1233.766	14324.6
1238.672	14191.6
1243.572	14063.6
1248.467	14199.6
1253.358	14363.6
1258.244	14353.6
1263.124	14220.6
1268	14098.6
1272.871	14133.6
1277.737	14109.6
1282.599	13878.6
1287.455	13639.6
1292.306	13410.6
1297.153	13542.6
1301.995	13266.6
1306.832	13218.6
1311.664	13229.6
1316.491	13315.6
1321.314	13324.6
1326.132	13316.6
1330.945	13173.6
1335.753	13000.6
1340.556	12937.6
1345.354	12762.6
1350.148	12432.6
1354.937	12297.6
1359.722	12288.6
1364.501	12129.6
1369.276	11875.6
1374.046	11980.6
1378.811	12217.6
1383.572	12176.6
1388.327	11937.6
1393.079	12485.6
1397.825	12524.6
1402.567	12488.6
1407.304	12437.6
1412.036	12394.6
1416.764	12257.6
1421.487	12604.6
1426.205	12232.6
1430.919	11983.6
1435.628	11872.6
1440.333	11746.6
1445.032	11693.6
1449.727	11639.6
1454.418	11611.6
1459.104	11613.6
1463.785	11479.6
1468.462	11496.6
1473.134	11424.6
1477.802	11254.6
1482.465	11458.6
1487.123	10862.6
1491.777	11087.6
1496.426	11049.6
1501.071	10741.6
1505.711	10851.6
1510.347	10915.6
1514.978	11035.6
1519.604	11090.6
1524.226	11127.6
1528.844	11544.6
1533.457	11397.6
1538.065	11580.6
1542.669	11517.6
1547.269	11617.6
1551.864	11471.6
1556.454	11724.6
1561.041	11627.6
1565.622	11589.6
1570.199	11364.6
1574.772	11302.6
1579.34	11116.6
1583.904	11275.6
1588.464	11216.6
1593.019	11223.6
1597.569	11367.6
1602.115	11220.6
1606.657	11530.6
1611.195	11518.6
1615.728	11530.6
1620.256	11721.6
1624.78	11722.6
1629.3	11644.6
1633.816	11424.6
1638.327	11444.6
1642.834	11243.6
1647.336	11294.6
1651.834	11193.6
1656.328	11255.6
1660.817	11085.6
1665.302	11246.6
1669.783	11223.6
1674.259	11012.6
1678.732	10751.6
1683.199	10531.6
1687.663	10403.6
1692.122	9895.6
1696.577	9673.6
1701.028	9582.6
1705.474	9691.6
1709.917	9648.6
1714.355	9687.6
1718.788	9455.6
1723.218	9388.6
1727.643	9111.6
1732.064	8952.6
1736.481	9080.6
1740.893	8745.6
1745.301	8669.6
1749.705	8795.6
1754.105	8291.6
1758.501	8269.6
1762.893	7893.6
1767.28	8028.6
1771.663	7624.6
1776.042	7497.6
1780.417	7441.6
1784.787	7197.6
1789.154	7252.6
1793.516	7287.6
1797.874	7369.6
1802.228	7561.6
1806.578	7780.6
1810.924	7607.6
1815.266	8976.6
1819.603	7695.6
1823.937	7713.6
1828.266	7611.6
1832.591	7564.6
1836.913	7452.6
1841.23	7507.6
1845.543	7432.6
1849.852	7268.6
1854.156	7257.6
1858.457	7132.6
1862.754	6960.6
1867.047	7137.6
1871.335	6937.6
1875.62	6935.6
1879.9	6877.6
1884.177	7072.6
1888.449	6870.6
1892.718	6859.6
1896.982	6817.6
1901.243	6994.6
1905.499	6938.6
1909.752	6871.6
1914	6986.6
1918.245	6811.6
1922.485	6770.6
1926.722	6804.6
1930.954	6896.6
1935.183	6913.6
1939.408	6857.6
1943.628	6871.6
1947.845	6899.6
1952.058	6969.6
1956.267	6913.6
1960.472	6854.6
1964.673	6889.6
1968.87	6998.6
1973.063	6986.6
1977.252	6766.6
1981.438	6702.6
1985.619	6639.6
1989.797	6568.6
1993.971	6486.6
1998.14	6270.6
2002.306	6318.6
2006.469	6277.6
2010.627	6279.6
2014.781	6282.6
2018.932	6322.6
2023.078	6021.6
2027.221	6050.6
2031.36	6153.6
2035.495	6156.6
2039.627	6046.6
2043.754	6002.6
2047.878	5990.6
2051.998	5962.6
2056.114	6008.6
2060.226	5923.6
2064.334	5823.6
2068.439	5687.6
2072.54	5712.6
2076.637	5920.6
2080.73	5852.6
2084.82	5768.6
2088.906	5851.6
2092.988	5807.6
2097.066	6069.6
2101.14	5819.6
2105.211	5898.6
2109.278	5910.6
2113.342	5884.6
2117.401	6092.6
2121.457	5966.6
2125.509	5922.6
2129.558	5696.6
2133.602	5819.6
2137.643	5665.6
2141.681	5695.6
2145.714	5626.6
2149.744	5564.6
2153.77	5557.6
2157.793	5497.6
2161.812	5659.6
2165.827	5574.6
2169.838	5268.6
2173.846	5359.6
2177.851	5239.6
2181.851	5213.6
2185.848	5332.6
2189.841	5009.6
2193.831	5208.6
2197.817	4962.6
2201.799	5023.6
2205.778	5065.6
2209.753	5047.6
2213.725	4922.6
2217.693	4945.6
2221.657	4950.6
2225.618	4372.6
2229.575	4828.6
2233.529	4730.6
2237.479	4828.6
2241.425	4692.6
2245.368	4891.6
2249.307	4801.6
2253.243	4796.6
2257.175	4813.6
2261.104	4636.6
2265.029	4558.6
2268.95	4473.6
2272.868	4465.6
2276.783	4505.6
2280.694	4207.6
2284.601	4223.6
2288.505	4259.6
2292.405	4124.6
2296.302	4290.6
2300.195	4165.6
2304.085	4281.6
2307.971	4078.6
2311.854	4171.6
2315.734	4035.6
2319.609	4078.6
2323.482	4169.6
2327.351	4083.6
2331.216	3983.6
2335.078	3895.6
2338.937	3969.6
2342.792	4024.6
2346.643	3899.6
2350.492	3848.6
2354.336	3912.6
2358.178	3863.6
2362.015	3852.6
2365.85	4000.6
2369.681	3960.6
2373.508	3864.6
2377.333	3769.6
2381.153	3943.6
2384.971	3918.6
2388.785	3937.6
2392.595	3969.6
2396.402	3929.6
2400.206	4034.6
2404.007	4003.6
2407.804	3891.6
2411.597	3742.6
2415.388	3856.6
2419.174	3734.6
2422.958	3716.6
2426.738	3700.6
2430.515	3608.6
2434.289	3783.6
2438.059	3739.6
2441.825	3670.6
2445.589	3437.6
2449.349	3733.6
2453.106	3553.6
2456.859	3562.6
2460.61	3409.6
2464.356	3544.6
2468.1	3491.6
2471.84	3528.6
2475.577	3561.6
2479.311	3384.6
2483.041	3339.6
2486.768	3227.6
2490.492	3085.6
2494.213	3332.6
2497.93	3419.6
2501.644	3408.6
2505.355	3385.6
2509.062	3275.6
2512.766	3320.6
2516.467	3313.6
2520.165	3248.6
2523.859	3375.6
2527.551	3029.6
2531.239	3273.6
2534.923	3259.6
2538.605	3214.6
2542.283	3230.6
2545.958	3230.6
2549.63	3124.6
2553.299	3040.6
2556.964	2987.6
2560.626	3187.6
2564.285	3032.6
2567.941	3188.6
2571.594	3161.6
2575.243	2896.6
2578.89	3185.6
2582.533	3192.6
2586.173	3142.6
2589.809	3038.6
2593.443	3355.6
2597.073	3140.6
2600.701	2963.6
2604.325	3050.6
2607.946	3126.6
2611.564	2979.6
2615.178	2895.6
2618.79	2912.6
2622.398	3039.6
2626.004	2954.6
2629.606	2828.6
2633.205	3061.6
2636.801	2897.6
2640.394	2842.6
2643.983	2901.6
2647.57	2912.6
2651.153	2783.6
2654.734	2603.6
2658.311	2933.6
2661.885	2764.6
2665.456	2722.6
2669.025	2708.6
2672.589	2693.6
2676.151	2496.6
2679.71	2487.6
2683.266	2699.6
2686.819	2599.6
2690.368	2503.6
2693.915	2360.6
2697.458	2576.6
2700.999	2399.6
2704.536	2379.6
2708.071	2427.6
2711.602	2314.6
2715.13	2349.6
2718.656	2398.6
2722.178	2255.6
2725.697	2395.6
2729.214	2011.6
2732.727	2176.6
2736.237	2203.6
2739.744	2127.6
2743.249	2264.6
2746.75	2274.6
2750.248	2335.6
2753.743	2284.6
2757.236	2325.6
2760.725	2275.6
2764.211	2560.6
2767.695	2327.6
2771.175	2303.6
2774.652	2246.6
2778.127	2328.6
2781.598	2276.6
2785.067	2270.6
2788.532	2303.6
2791.995	2447.6
2795.455	2259.6
2798.911	2226.6
2802.365	2454.6
2805.816	2285.6
2809.264	2165.6
2812.709	2323.6
2816.151	2277.6
2819.59	2387.6
2823.026	2367.6
2826.46	2483.6
2829.89	2422.6
2833.318	2619.6
2836.742	2286.6
2840.164	2325.6
2843.583	2507.6
2846.999	2434.6
2850.412	2415.6
2853.822	2762.6
2857.229	2317.6
2860.634	2437.6
2864.035	2518.6
2867.434	2359.6
2870.83	2445.6
2874.223	2547.6
2877.613	2427.6
2881	2632.6
2884.385	2734.6
2887.766	2661.6
2891.145	2601.6
2894.521	2742.6
2897.894	2781.6
2901.264	2451.6
2904.631	2671.6
2907.996	2714.6
2911.358	2724.6
2914.717	2716.6
2918.073	2736.6
2921.426	2727.6
2924.777	2846.6
2928.124	2785.6
2931.469	2682.6
2934.811	2980.6
2938.15	2761.6
2941.487	2846.6
2944.821	2523.6
2948.152	2933.6
2951.48	2868.6
2954.805	2820.6
2958.128	2771.6
2961.447	2929.6
2964.765	2712.6
2968.079	2960.6
2971.39	2915.6
2974.699	2885.6
2978.005	2880.6
2981.308	2903.6
2984.609	3141.6
2987.907	2982.6
2991.202	3049.6
2994.494	3121.6
2997.784	2756.6
3001.07	3043.6
3004.355	3134.6
3007.636	3140.6
3010.915	3233.6
3014.191	3293.6
3017.464	3299.6
3020.734	3242.6
3024.002	3419.6
3027.267	3461.6
3030.53	3445.6
3033.789	3509.6
3037.046	3608.6
3040.301	3658.6
3043.552	3670.6
3046.801	3815.6
3050.048	3622.6
3053.291	3578.6
3056.532	3792.6
3059.771	4025.6
3063.006	3969.6
3066.239	4009.6
3069.469	4150.6
3072.697	4413.6
3075.922	4412.6
3079.144	4462.6
3082.364	4438.6
3085.581	4834.6
3088.795	4524.6
3092.007	4832.6
3095.216	5081.6
3098.423	5390.6
3101.627	5339.6
3104.828	5347.6
3108.026	5521.6
3111.222	5598.6
3114.416	5565.6
3117.607	5765.6
3120.795	5846.6
3123.98	5992.6
3127.163	6272.6
3130.344	6228.6
3133.521	6291.6
3136.696	6264.6
3139.869	6522.6
3143.039	6569.6
3146.206	6560.6
3149.371	6819.6
3152.533	6949.6
3155.693	7112.6
3158.85	7176.6
3162.005	7170.6
3165.157	7296.6
3168.306	7321.6
3171.453	7251.6
3174.597	7512.6
3177.739	7553.6
3180.878	7370.6
3184.014	7398.6
3187.149	7384.6
3190.28	7407.6
3193.409	7320.6
3196.536	7314.6
3199.659	7245.6
3202.781	7293.6
3205.9	7512.6
3209.016	7329.6
3212.13	7367.6
3215.241	7292.6
3218.35	7406.6
3221.456	7413.6
3224.56	7591.6
3227.661	7529.6
3230.76	7621.6
3233.856	7544.6
3236.95	7415.6
3240.041	7487.6
3243.13	7338.6
3246.216	7284.6
3249.3	7225.6
3252.382	7144.6
3255.46	7390.6
3258.537	7714.6
3261.611	7237.6
3264.682	6985.6
3267.751	6986.6
3270.818	7076.6
3273.882	6813.6
3276.943	6759.6
3280.002	6731.6
3283.059	6730.6
3286.113	6737.6
3289.165	6783.6
3292.214	6686.6
3295.261	6486.6
3298.306	6717.6
3301.348	6480.6
3304.387	6430.6
3307.425	6276.6
3310.459	6322.6
3313.492	6057.6
3316.521	6030.6
3319.549	5966.6
3322.574	5876.6
3325.597	5771.6
3328.617	5763.6
3331.635	5654.6
3334.65	5785.6
3337.663	5607.6
3340.674	5643.6
3343.682	5437.6
3346.688	5503.6
3349.691	5543.6
3352.692	5554.6
3355.691	5413.6
3358.687	5386.6
3361.681	5326.6
3364.673	5408.6
3367.662	5285.6
3370.649	5160.6
3373.633	5421.6
3376.615	5147.6
3379.595	5410.6
3382.572	5176.6
3385.547	5181.6
3388.52	5214.6
3391.49	5077.6
3394.458	5104.6
3397.424	4853.6
3400.387	4994.6
3403.348	4589.6
3406.307	4671.6
3409.263	4740.6
3412.217	4513.6
3415.168	4531.6
3418.118	4532.6
3421.065	4422.6
3424.009	4281.6
3426.951	4388.6
3429.891	4385.6
3432.829	4254.6
3435.764	4196.6
3438.697	4210.6
3441.628	3942.6
3444.557	4106.6
3447.483	4104.6
3450.407	3816.6
3453.328	3669.6
3456.247	3859.6
3459.164	3856.6
3462.079	3501.6
3464.991	3513.6
3467.902	3385.6
3470.809	3374.6
3473.715	3228.6
3476.618	3139.6
3479.519	3054.6
3482.418	3253.6
3485.315	2981.6
3488.209	2946.6
3491.101	2753.6
3493.99	2915.6
3496.878	2484.6
3499.763	2622.6
3502.646	2460.6
3505.527	2599.6
3508.405	2469.6
3511.281	2403.6
3514.155	2391.6
3517.027	2369.6
3519.897	2441.6
3522.764	2135.6
3525.629	2262.6
3528.492	2096.6
3531.352	1922.6
3534.211	1926.6
3537.067	2020.6
3539.921	1885.6
3542.773	1816.6
3545.622	1803.6
3548.469	1805.6
3551.315	1729.6
3554.157	1587.6
3556.998	1594.6
3559.837	1370.6
3562.673	1314.6
3565.507	1453.6
3568.339	1323.6
3571.169	1358.6
3573.996	1255.6
3576.822	1241.6
3579.645	1280.6
3582.466	1171.6
3585.285	1116.6
3588.101	1124.6
3590.916	1200.6
3593.728	1050.6
3596.538	1138.6
3599.346	1006.6
3602.152	1138.6
3604.956	1052.6
3607.757	875.6
3610.556	1142.6
3613.354	882.6
3616.149	806.6
3618.942	843.6
3621.732	616.6
3624.521	880.6
3627.307	803.6
3630.092	625.6
3632.874	638.6
3635.654	785.6
3638.432	842.6
3641.208	732.6
3643.982	778.6
3646.753	658.6
3649.523	737.6
3652.29	680.6
3655.055	674.6
3657.818	539.6
3660.579	554.6
3663.338	773.6
3666.095	526.6
3668.849	793.6
3671.602	499.6
3674.352	722.6
3677.101	483.6
3679.847	408.6
3682.591	566.6
3685.333	619.6
3688.073	448.6
3690.811	558.6
3693.547	406.6
3696.281	500.6
3699.013	396.6
3701.742	434.6
3704.47	590.6
3707.195	397.6
3709.919	401.6
3712.64	457.6
3715.359	273.6
3718.076	131.6
3720.792	488.6
3723.505	363.6
3726.216	279.6
3728.925	459.6
3731.632	230.6
3734.336	439.6
3737.039	362.6
3739.74	383.6
3742.439	692.6
3745.136	349.6
3747.83	317.6
3750.523	325.6
3753.213	243.6
3755.902	321.6
3758.589	443.6
3761.273	429.6
3763.956	194.6
3766.636	400.6
3769.315	83.6
3771.991	436.6
3774.665	281.6
3777.338	482.6
3780.008	386.6
3782.677	159.6
3785.343	465.6
3788.007	704.6
3790.67	293.6
3793.33	269.6
3795.989	402.6
3798.645	248.6
3801.299	466.6
3803.952	243.6
3806.602	248.6
3809.251	312.6
3811.897	332.6
3814.542	317.6
3817.184	273.6
3819.825	355.6
3822.463	11.6
3825.1	299.6
3827.735	329.6
3830.367	325.6
3832.998	109.6
3835.627	166.6
3838.253	202.6
3840.878	129.6
3843.501	89.6
3846.122	233.6
3848.741	132.6
3851.358	246.6
3853.973	491.6
3856.586	289.6
3859.197	241.6
3861.806	227.6
3864.414	413.6
3867.019	296.6
3869.622	207.6
3872.224	195.6
3874.823	349.6
3877.421	336.6
3880.016	384.6
3882.61	489.6
3885.202	401.6
3887.792	434.6
3890.38	208.6
3892.966	357.6
3895.55	334.6
3898.132	289.6
3900.713	178.6
3903.291	285.6
3905.868	368.6
3908.442	238.6
3911.015	211.6
3913.586	225.6
3916.155	211.6
3918.722	314.6
3921.287	289.6
3923.85	41.6
3926.411	223.6
3928.971	181.6
3931.528	190.6
3934.084	248.6
3936.638	258.6
3939.19	194.6
3941.74	266.6
3944.288	181.6
3946.834	270.6
3949.378	203.6
3951.921	369.6
3954.462	263.6
3957	173.6
3959.537	216.6
3962.072	388.6
3964.606	448.6
3967.137	138.6
3969.667	274.6
3972.194	270.6
3974.72	265.6
3977.244	376.6
3979.766	186.6
3982.286	395.6
3984.805	183.6
3987.321	164.6
3989.836	220.6
3992.349	305.6
3994.86	291.6
3997.369	246.6
3999.877	198.6
4002.382	267.6
4004.886	233.6
4007.388	240.6
4009.888	363.6
4012.386	241.6
4014.883	256.6
4017.377	296.6
4019.87	147.6
4022.361	307.6
4024.85	341.6
4027.338	348.6
4029.823	225.6
4032.307	253.6
4034.789	313.6
4037.269	307.6
4039.747	344.6
4042.224	229.6
4044.699	285.6
4047.172	300.6
4049.643	185.6
4052.112	326.6
4054.58	272.6
4057.046	293.6
4059.51	366.6
4061.972	219.6
4064.432	366.6
4066.891	213.6
4069.348	300.6
4071.803	165.6
4074.256	242.6
4076.708	242.6
4079.158	354.6
4081.606	92.6
4084.052	311.6
4086.497	199.6
4088.939	337.6
4091.38	336.6
4093.819	224.6
4096.257	-1422.4
4098.693	-1515.4
4101.127	-1526.4
4103.559	-1565.4
4105.989	474.6
4108.418	384.6
4110.845	712.6
4113.27	511.6
4115.694	631.6
4118.115	667.6
4120.535	198.6
4122.954	103.6
4125.37	85.6
4127.785	203.6
4130.198	188.6
4132.609	195.6
4135.019	-1595.4
4137.427	-1504.4
4139.833	-1477.4
4142.237	-1264.4
