Data from 2018-2-8_conc=0_RamanShift_09.txt Node
Date: Wed Feb 07 09:28:10 IST 2018
User: aro
Spectrometer: QEPB0276
Trigger mode: 0
Integration Time (sec): 3.000000E1
Scans to average: 1
Electric dark correction enabled: true
Nonlinearity correction enabled: false
Boxcar width: 0
XAxis mode: Raman Shifts
Number of Pixels in Spectrum: 1044
>>>>>Begin Spectral Data<<<<<
160.701	202.9
166.742	342.9
172.777	831.9
178.805	2428.9
184.826	6104.9
190.841	12236.9
196.849	19547.9
202.85	24848.9
208.845	26843.9
214.833	26577.9
220.815	26150.9
226.789	26041.9
232.758	25962.9
238.719	25841.9
244.674	25571.9
250.623	25019.9
256.565	24664.9
262.5	24188.9
268.429	23604.9
274.351	23362.9
280.267	23132.9
286.176	22590.9
292.079	22311.9
297.975	22023.9
303.865	21841.9
309.748	21661.9
315.625	21472.9
321.495	21080.9
327.359	21178.9
333.217	21099.9
339.068	21014.9
344.912	20979.9
350.751	20973.9
356.583	20954.9
362.408	20853.9
368.227	20964.9
374.04	21037.9
379.847	21163.9
385.647	21194.9
391.44	21349.9
397.228	21515.9
403.009	21668.9
408.784	21839.9
414.553	21912.9
420.315	22014.9
426.071	22034.9
431.821	21962.9
437.565	21939.9
443.302	21732.9
449.033	21727.9
454.758	21622.9
460.477	21506.9
466.189	21480.9
471.896	21313.9
477.596	21165.9
483.29	21303.9
488.978	21308.9
494.66	21220.9
500.335	21114.9
506.005	21062.9
511.668	20850.9
517.325	20660.9
522.977	20535.9
528.622	20448.9
534.261	20335.9
539.894	20173.9
545.521	20155.9
551.141	20095.9
556.756	19814.9
562.365	19767.9
567.968	19551.9
573.565	19430.9
579.155	19301.9
584.74	19212.9
590.319	19022.9
595.892	19111.9
601.459	19110.9
607.02	19026.9
612.575	19039.9
618.124	18963.9
623.667	19051.9
629.204	19022.9
634.735	18955.9
640.261	18877.9
645.781	18943.9
651.294	18660.9
656.802	18609.9
662.304	18374.9
667.8	18245.9
673.29	18159.9
678.775	18089.9
684.254	17984.9
689.726	18127.9
695.193	17949.9
700.655	18000.9
706.11	18028.9
711.56	17984.9
717.004	18049.9
722.442	18077.9
727.874	17995.9
733.301	18001.9
738.722	17951.9
744.137	17786.9
749.547	17722.9
754.951	17626.9
760.349	17451.9
765.741	17378.9
771.128	17363.9
776.509	17410.9
781.885	17358.9
787.254	17274.9
792.618	17402.9
797.977	17426.9
803.33	17483.9
808.677	17512.9
814.019	17500.9
819.355	17512.9
824.686	17469.9
830.011	17548.9
835.33	17155.9
840.644	17143.9
845.952	17025.9
851.255	16809.9
856.552	16733.9
861.844	16609.9
867.13	16575.9
872.41	16551.9
877.686	16479.9
882.955	16676.9
888.219	16750.9
893.478	16763.9
898.731	16566.9
903.979	16473.9
909.221	16511.9
914.458	16449.9
919.69	16247.9
924.916	16151.9
930.136	15927.9
935.351	15853.9
940.561	15540.9
945.766	15455.9
950.965	15405.9
956.158	15424.9
961.347	15452.9
966.529	15493.9
971.707	15470.9
976.879	15454.9
982.046	15506.9
987.208	15612.9
992.364	15381.9
997.515	15295.9
1002.66	15208.9
1007.801	15252.9
1012.936	15159.9
1018.066	15184.9
1023.19	15002.9
1028.309	15020.9
1033.423	15020.9
1038.532	15186.9
1043.636	15341.9
1048.734	15223.9
1053.827	15387.9
1058.915	15361.9
1063.998	15207.9
1069.075	15089.9
1074.147	14880.9
1079.214	14775.9
1084.276	14546.9
1089.333	14527.9
1094.385	14510.9
1099.431	14589.9
1104.472	14445.9
1109.509	14643.9
1114.54	14669.9
1119.565	14717.9
1124.586	14677.9
1129.602	14700.9
1134.613	14609.9
1139.618	14440.9
1144.619	14196.9
1149.614	13989.9
1154.604	13913.9
1159.589	13872.9
1164.57	13670.9
1169.545	13744.9
1174.515	13693.9
1179.48	13831.9
1184.44	13941.9
1189.395	14075.9
1194.345	14061.9
1199.29	14100.9
1204.23	14167.9
1209.165	14106.9
1214.095	14060.9
1219.021	13924.9
1223.941	13904.9
1228.856	13799.9
1233.766	13762.9
1238.672	13721.9
1243.572	13647.9
1248.467	13647.9
1253.358	13821.9
1258.244	13832.9
1263.124	13767.9
1268	13611.9
1272.871	13559.9
1277.737	13526.9
1282.599	13270.9
1287.455	13152.9
1292.306	12930.9
1297.153	12897.9
1301.995	12707.9
1306.832	12798.9
1311.664	12763.9
1316.491	12826.9
1321.314	12718.9
1326.132	12758.9
1330.945	12737.9
1335.753	12589.9
1340.556	12395.9
1345.354	12311.9
1350.148	11996.9
1354.937	11830.9
1359.722	11760.9
1364.501	11534.9
1369.276	11548.9
1374.046	11529.9
1378.811	11612.9
1383.572	11669.9
1388.327	11533.9
1393.079	11829.9
1397.825	11958.9
1402.567	11866.9
1407.304	11914.9
1412.036	11924.9
1416.764	11771.9
1421.487	11801.9
1426.205	11580.9
1430.919	11465.9
1435.628	11276.9
1440.333	11212.9
1445.032	11074.9
1449.727	11074.9
1454.418	11157.9
1459.104	11097.9
1463.785	10922.9
1468.462	10943.9
1473.134	10929.9
1477.802	10806.9
1482.465	10722.9
1487.123	10499.9
1491.777	10577.9
1496.426	10440.9
1501.071	10318.9
1505.711	10387.9
1510.347	10431.9
1514.978	10500.9
1519.604	10596.9
1524.226	10717.9
1528.844	10954.9
1533.457	10901.9
1538.065	11001.9
1542.669	11021.9
1547.269	11156.9
1551.864	11028.9
1556.454	11121.9
1561.041	10994.9
1565.622	11007.9
1570.199	10760.9
1574.772	10744.9
1579.34	10578.9
1583.904	10600.9
1588.464	10705.9
1593.019	10651.9
1597.569	10731.9
1602.115	10830.9
1606.657	10889.9
1611.195	10961.9
1615.728	10965.9
1620.256	11016.9
1624.78	11015.9
1629.3	10942.9
1633.816	10834.9
1638.327	10797.9
1642.834	10726.9
1647.336	10705.9
1651.834	10640.9
1656.328	10658.9
1660.817	10623.9
1665.302	10615.9
1669.783	10595.9
1674.259	10397.9
1678.732	10223.9
1683.199	10004.9
1687.663	9761.9
1692.122	9454.9
1696.577	9282.9
1701.028	9272.9
1705.474	9093.9
1709.917	9066.9
1714.355	9044.9
1718.788	8919.9
1723.218	8802.9
1727.643	8535.9
1732.064	8508.9
1736.481	8412.9
1740.893	8183.9
1745.301	8068.9
1749.705	8077.9
1754.105	7750.9
1758.501	7689.9
1762.893	7399.9
1767.28	7311.9
1771.663	7050.9
1776.042	6979.9
1780.417	6847.9
1784.787	6781.9
1789.154	6784.9
1793.516	6666.9
1797.874	6939.9
1802.228	6981.9
1806.578	7177.9
1810.924	7127.9
1815.266	6978.9
1819.603	7126.9
1823.937	7167.9
1828.266	7082.9
1832.591	7036.9
1836.913	6858.9
1841.23	6885.9
1845.543	6816.9
1849.852	6593.9
1854.156	6672.9
1858.457	6577.9
1862.754	6601.9
1867.047	6477.9
1871.335	6392.9
1875.62	6444.9
1879.9	6390.9
1884.177	6414.9
1888.449	6392.9
1892.718	6363.9
1896.982	6330.9
1901.243	6419.9
1905.499	6390.9
1909.752	6308.9
1914	6334.9
1918.245	6276.9
1922.485	6317.9
1926.722	6427.9
1930.954	6377.9
1935.183	6339.9
1939.408	6340.9
1943.628	6398.9
1947.845	6399.9
1952.058	6419.9
1956.267	6404.9
1960.472	6443.9
1964.673	6403.9
1968.87	6381.9
1973.063	6390.9
1977.252	6248.9
1981.438	6135.9
1985.619	6084.9
1989.797	5969.9
1993.971	5924.9
1998.14	5793.9
2002.306	5813.9
2006.469	5670.9
2010.627	5650.9
2014.781	5609.9
2018.932	5683.9
2023.078	5567.9
2027.221	5569.9
2031.36	5604.9
2035.495	5600.9
2039.627	5510.9
2043.754	5497.9
2047.878	5384.9
2051.998	5326.9
2056.114	5395.9
2060.226	5362.9
2064.334	5295.9
2068.439	5161.9
2072.54	5186.9
2076.637	5336.9
2080.73	5319.9
2084.82	5313.9
2088.906	5308.9
2092.988	5244.9
2097.066	5446.9
2101.14	5327.9
2105.211	5375.9
2109.278	5398.9
2113.342	5382.9
2117.401	5466.9
2121.457	5330.9
2125.509	5383.9
2129.558	5178.9
2133.602	5232.9
2137.643	5115.9
2141.681	5057.9
2145.714	5046.9
2149.744	5020.9
2153.77	5004.9
2157.793	4905.9
2161.812	4854.9
2165.827	4844.9
2169.838	4770.9
2173.846	4777.9
2177.851	4705.9
2181.851	4669.9
2185.848	4818.9
2189.841	4487.9
2193.831	4553.9
2197.817	4456.9
2201.799	4464.9
2205.778	4396.9
2209.753	4401.9
2213.725	4406.9
2217.693	4307.9
2221.657	4263.9
2225.618	4264.9
2229.575	4231.9
2233.529	4149.9
2237.479	4217.9
2241.425	4148.9
2245.368	4255.9
2249.307	4149.9
2253.243	4131.9
2257.175	4141.9
2261.104	4057.9
2265.029	3939.9
2268.95	3950.9
2272.868	3855.9
2276.783	3797.9
2280.694	3683.9
2284.601	3634.9
2288.505	3676.9
2292.405	3603.9
2296.302	3633.9
2300.195	3530.9
2304.085	3613.9
2307.971	3515.9
2311.854	3531.9
2315.734	3464.9
2319.609	3494.9
2323.482	3520.9
2327.351	3394.9
2331.216	3355.9
2335.078	3327.9
2338.937	3336.9
2342.792	3367.9
2346.643	3244.9
2350.492	3322.9
2354.336	3247.9
2358.178	3216.9
2362.015	3273.9
2365.85	3255.9
2369.681	3314.9
2373.508	3304.9
2377.333	3285.9
2381.153	3264.9
2384.971	3305.9
2388.785	3278.9
2392.595	3312.9
2396.402	3317.9
2400.206	3317.9
2404.007	3263.9
2407.804	3199.9
2411.597	3144.9
2415.388	3174.9
2419.174	3144.9
2422.958	3103.9
2426.738	3068.9
2430.515	2952.9
2434.289	3073.9
2438.059	2986.9
2441.825	3050.9
2445.589	2910.9
2449.349	2961.9
2453.106	2882.9
2456.859	2933.9
2460.61	2872.9
2464.356	2913.9
2468.1	2879.9
2471.84	2868.9
2475.577	2847.9
2479.311	2822.9
2483.041	2726.9
2486.768	2657.9
2490.492	2546.9
2494.213	2711.9
2497.93	2756.9
2501.644	2749.9
2505.355	2711.9
2509.062	2671.9
2512.766	2677.9
2516.467	2709.9
2520.165	2668.9
2523.859	2684.9
2527.551	2519.9
2531.239	2659.9
2534.923	2620.9
2538.605	2676.9
2542.283	2614.9
2545.958	2644.9
2549.63	2542.9
2553.299	2571.9
2556.964	2499.9
2560.626	2587.9
2564.285	2484.9
2567.941	2593.9
2571.594	2530.9
2575.243	2449.9
2578.89	2546.9
2582.533	2517.9
2586.173	2463.9
2589.809	2486.9
2593.443	2597.9
2597.073	2455.9
2600.701	2324.9
2604.325	2401.9
2607.946	2394.9
2611.564	2370.9
2615.178	2288.9
2618.79	2267.9
2622.398	2318.9
2626.004	2342.9
2629.606	2333.9
2633.205	2352.9
2636.801	2227.9
2640.394	2230.9
2643.983	2197.9
2647.57	2206.9
2651.153	2206.9
2654.734	2094.9
2658.311	2213.9
2661.885	2114.9
2665.456	2125.9
2669.025	2094.9
2672.589	2074.9
2676.151	2021.9
2679.71	1957.9
2683.266	1889.9
2686.819	1907.9
2690.368	1924.9
2693.915	1937.9
2697.458	1952.9
2700.999	1780.9
2704.536	1830.9
2708.071	1789.9
2711.602	1714.9
2715.13	1747.9
2718.656	1772.9
2722.178	1627.9
2725.697	1695.9
2729.214	1617.9
2732.727	1578.9
2736.237	1670.9
2739.744	1617.9
2743.249	1686.9
2746.75	1697.9
2750.248	1689.9
2753.743	1769.9
2757.236	1702.9
2760.725	1678.9
2764.211	1894.9
2767.695	1713.9
2771.175	1696.9
2774.652	1681.9
2778.127	1740.9
2781.598	1689.9
2785.067	1722.9
2788.532	1715.9
2791.995	1676.9
2795.455	1684.9
2798.911	1611.9
2802.365	1746.9
2805.816	1685.9
2809.264	1689.9
2812.709	1711.9
2816.151	1743.9
2819.59	1752.9
2823.026	1783.9
2826.46	1747.9
2829.89	1778.9
2833.318	1874.9
2836.742	1769.9
2840.164	1798.9
2843.583	1803.9
2846.999	1834.9
2850.412	1805.9
2853.822	1852.9
2857.229	1784.9
2860.634	1812.9
2864.035	1874.9
2867.434	1744.9
2870.83	1705.9
2874.223	1929.9
2877.613	1831.9
2881	2029.9
2884.385	2061.9
2887.766	2120.9
2891.145	2167.9
2894.521	2064.9
2897.894	2096.9
2901.264	1825.9
2904.631	2087.9
2907.996	2017.9
2911.358	2084.9
2914.717	2100.9
2918.073	2071.9
2921.426	2060.9
2924.777	2187.9
2928.124	2231.9
2931.469	2172.9
2934.811	2272.9
2938.15	2263.9
2941.487	2275.9
2944.821	2204.9
2948.152	2354.9
2951.48	2100.9
2954.805	2272.9
2958.128	2194.9
2961.447	2279.9
2964.765	2253.9
2968.079	2357.9
2971.39	2282.9
2974.699	2302.9
2978.005	2314.9
2981.308	2395.9
2984.609	2462.9
2987.907	2463.9
2991.202	2514.9
2994.494	2560.9
2997.784	2516.9
3001.07	2558.9
3004.355	2563.9
3007.636	2615.9
3010.915	2697.9
3014.191	2770.9
3017.464	2733.9
3020.734	2755.9
3024.002	2816.9
3027.267	2899.9
3030.53	2907.9
3033.789	2964.9
3037.046	3018.9
3040.301	3050.9
3043.552	3081.9
3046.801	3271.9
3050.048	3139.9
3053.291	3144.9
3056.532	3268.9
3059.771	3394.9
3063.006	3407.9
3066.239	3538.9
3069.469	3590.9
3072.697	3794.9
3075.922	3861.9
3079.144	3991.9
3082.364	4051.9
3085.581	4215.9
3088.795	4238.9
3092.007	4326.9
3095.216	4517.9
3098.423	4675.9
3101.627	4858.9
3104.828	4880.9
3108.026	5001.9
3111.222	5053.9
3114.416	5125.9
3117.607	5295.9
3120.795	5324.9
3123.98	5420.9
3127.163	5593.9
3130.344	5657.9
3133.521	5731.9
3136.696	5841.9
3139.869	5962.9
3143.039	6133.9
3146.206	6223.9
3149.371	6374.9
3152.533	6499.9
3155.693	6533.9
3158.85	6598.9
3162.005	6681.9
3165.157	6817.9
3168.306	6877.9
3171.453	6772.9
3174.597	6921.9
3177.739	6885.9
3180.878	6882.9
3184.014	6799.9
3187.149	6928.9
3190.28	6869.9
3193.409	6872.9
3196.536	6839.9
3199.659	6844.9
3202.781	6791.9
3205.9	6906.9
3209.016	6906.9
3212.13	6807.9
3215.241	6810.9
3218.35	6925.9
3221.456	6893.9
3224.56	6906.9
3227.661	6986.9
3230.76	6927.9
3233.856	6976.9
3236.95	6891.9
3240.041	6926.9
3243.13	6800.9
3246.216	6799.9
3249.3	6663.9
3252.382	6684.9
3255.46	6741.9
3258.537	5866.9
3261.611	6577.9
3264.682	6507.9
3267.751	6500.9
3270.818	6435.9
3273.882	6309.9
3276.943	6275.9
3280.002	6184.9
3283.059	6136.9
3286.113	6124.9
3289.165	6240.9
3292.214	6140.9
3295.261	5957.9
3298.306	6028.9
3301.348	5846.9
3304.387	5814.9
3307.425	5682.9
3310.459	5678.9
3313.492	5459.9
3316.521	5578.9
3319.549	5338.9
3322.574	5306.9
3325.597	5278.9
3328.617	5204.9
3331.635	5134.9
3334.65	5124.9
3337.663	5057.9
3340.674	5039.9
3343.682	4954.9
3346.688	4921.9
3349.691	4878.9
3352.692	4970.9
3355.691	4862.9
3358.687	4913.9
3361.681	4889.9
3364.673	4825.9
3367.662	4784.9
3370.649	4817.9
3373.633	4821.9
3376.615	4748.9
3379.595	4741.9
3382.572	4621.9
3385.547	4454.9
3388.52	4576.9
3391.49	4547.9
3394.458	4429.9
3397.424	4335.9
3400.387	4389.9
3403.348	4059.9
3406.307	4112.9
3409.263	4116.9
3412.217	4002.9
3415.168	3958.9
3418.118	3939.9
3421.065	3855.9
3424.009	3809.9
3426.951	3799.9
3429.891	3585.9
3432.829	3666.9
3435.764	3655.9
3438.697	3669.9
3441.628	3480.9
3444.557	3472.9
3447.483	3459.9
3450.407	3333.9
3453.328	3325.9
3456.247	3264.9
3459.164	3191.9
3462.079	3028.9
3464.991	2998.9
3467.902	2861.9
3470.809	2824.9
3473.715	2744.9
3476.618	2632.9
3479.519	2589.9
3482.418	2601.9
3485.315	2444.9
3488.209	2314.9
3491.101	2301.9
3493.99	2335.9
3496.878	1988.9
3499.763	2067.9
3502.646	2018.9
3505.527	2059.9
3508.405	1942.9
3511.281	1866.9
3514.155	1850.9
3517.027	1803.9
3519.897	1828.9
3522.764	1644.9
3525.629	1664.9
3528.492	1590.9
3531.352	1469.9
3534.211	1409.9
3537.067	1456.9
3539.921	1356.9
3542.773	1288.9
3545.622	1216.9
3548.469	1239.9
3551.315	1153.9
3554.157	1054.9
3556.998	973.9
3559.837	931.9
3562.673	835.9
3565.507	869.9
3568.339	874.9
3571.169	863.9
3573.996	804.9
3576.822	795.9
3579.645	723.9
3582.466	754.9
3585.285	636.9
3588.101	585.9
3590.916	644.9
3593.728	530.9
3596.538	537.9
3599.346	517.9
3602.152	525.9
3604.956	495.9
3607.757	446.9
3610.556	531.9
3613.354	419.9
3616.149	382.9
3618.942	330.9
3621.732	152.9
3624.521	328.9
3627.307	233.9
3630.092	271.9
3632.874	250.9
3635.654	254.9
3638.432	263.9
3641.208	180.9
3643.982	169.9
3646.753	135.9
3649.523	197.9
3652.29	153.9
3655.055	174.9
3657.818	80.9
3660.579	140.9
3663.338	140.9
3666.095	-31.1
3668.849	201.9
3671.602	38.9
3674.352	42.9
3677.101	45.9
3679.847	-45.1
3682.591	43.9
3685.333	18.9
3688.073	-52.1
3690.811	-26.1
3693.547	62.9
3696.281	-43.1
3699.013	-79.1
3701.742	-95.1
3704.47	21.9
3707.195	-102.1
3709.919	-123.1
3712.64	-71.1
3715.359	-268.1
3718.076	-177.1
3720.792	-111.1
3723.505	-98.1
3726.216	-164.1
3728.925	-148.1
3731.632	-195.1
3734.336	-78.1
3737.039	-177.1
3739.74	-184.1
3742.439	52.9
3745.136	-141.1
3747.83	-128.1
3750.523	-159.1
3753.213	-367.1
3755.902	-163.1
3758.589	-227.1
3761.273	-109.1
3763.956	-258.1
3766.636	-87.1
3769.315	-207.1
3771.991	-160.1
3774.665	-173.1
3777.338	-159.1
3780.008	-161.1
3782.677	-126.1
3785.343	-129.1
3788.007	-192.1
3790.67	-203.1
3793.33	-166.1
3795.989	-202.1
3798.645	-252.1
3801.299	-132.1
3803.952	-239.1
3806.602	-255.1
3809.251	-208.1
3811.897	-223.1
3814.542	-191.1
3817.184	-229.1
3819.825	-218.1
3822.463	-244.1
3825.1	-232.1
3827.735	-158.1
3830.367	-253.1
3832.998	-299.1
3835.627	-280.1
3838.253	-253.1
3840.878	-162.1
3843.501	-295.1
3846.122	-161.1
3848.741	-237.1
3851.358	-225.1
3853.973	-209.1
3856.586	-232.1
3859.197	-253.1
3861.806	-254.1
3864.414	-180.1
3867.019	-250.1
3869.622	-293.1
3872.224	-256.1
3874.823	-166.1
3877.421	-189.1
3880.016	-144.1
3882.61	-78.1
3885.202	-165.1
3887.792	-128.1
3890.38	-251.1
3892.966	-171.1
3895.55	-246.1
3898.132	-214.1
3900.713	-298.1
3903.291	-257.1
3905.868	-299.1
3908.442	-287.1
3911.015	-196.1
3913.586	-247.1
3916.155	-285.1
3918.722	-234.1
3921.287	-232.1
3923.85	-199.1
3926.411	-274.1
3928.971	-290.1
3931.528	-273.1
3934.084	-280.1
3936.638	-282.1
3939.19	-296.1
3941.74	-292.1
3944.288	-279.1
3946.834	-269.1
3949.378	-281.1
3951.921	-243.1
3954.462	-284.1
3957	-259.1
3959.537	-204.1
3962.072	-205.1
3964.606	-173.1
3967.137	-240.1
3969.667	-304.1
3972.194	-257.1
3974.72	-215.1
3977.244	-206.1
3979.766	-221.1
3982.286	-201.1
3984.805	-256.1
3987.321	-247.1
3989.836	-287.1
3992.349	-220.1
3994.86	-232.1
3997.369	-188.1
3999.877	-299.1
4002.382	-255.1
4004.886	-239.1
4007.388	-232.1
4009.888	-119.1
4012.386	-251.1
4014.883	-238.1
4017.377	-249.1
4019.87	-321.1
4022.361	-260.1
4024.85	-233.1
4027.338	-147.1
4029.823	-265.1
4032.307	-254.1
4034.789	-203.1
4037.269	-186.1
4039.747	-182.1
4042.224	-233.1
4044.699	-191.1
4047.172	-262.1
4049.643	-352.1
4052.112	-189.1
4054.58	-227.1
4057.046	-260.1
4059.51	-204.1
4061.972	-291.1
4064.432	-165.1
4066.891	-339.1
4069.348	-193.1
4071.803	-264.1
4074.256	-293.1
4076.708	-260.1
4079.158	-271.1
4081.606	-241.1
4084.052	-215.1
4086.497	-272.1
4088.939	-217.1
4091.38	-265.1
4093.819	-255.1
4096.257	-976.1
4098.693	-930.1
4101.127	-979.1
4103.559	-987.1
4105.989	38.9
4108.418	-61.1
4110.845	93.9
4113.27	58.9
4115.694	145.9
4118.115	154.9
4120.535	-311.1
4122.954	-313.1
4125.37	-317.1
4127.785	-251.1
4130.198	-261.1
4132.609	-276.1
4135.019	-992.1
4137.427	-995.1
4139.833	-961.1
4142.237	-858.1
