Data from 2018-2-8_conc=0_RamanShift_13.txt Node
Date: Wed Feb 07 09:31:40 IST 2018
User: aro
Spectrometer: QEPB0276
Trigger mode: 0
Integration Time (sec): 3.000000E1
Scans to average: 1
Electric dark correction enabled: true
Nonlinearity correction enabled: false
Boxcar width: 0
XAxis mode: Raman Shifts
Number of Pixels in Spectrum: 1044
>>>>>Begin Spectral Data<<<<<
160.701	204.9
166.742	365.9
172.777	892.9
178.805	2462.9
184.826	6072.9
190.841	12295.9
196.849	19732.9
202.85	25055.9
208.845	27035.9
214.833	26900.9
220.815	26557.9
226.789	26309.9
232.758	26316.9
238.719	26229.9
244.674	26022.9
250.623	25540.9
256.565	25142.9
262.5	24642.9
268.429	24050.9
274.351	23814.9
280.267	23649.9
286.176	23078.9
292.079	22813.9
297.975	22463.9
303.865	22402.9
309.748	22221.9
315.625	21978.9
321.495	21638.9
327.359	21606.9
333.217	21550.9
339.068	21575.9
344.912	21584.9
350.751	21516.9
356.583	21510.9
362.408	21580.9
368.227	21481.9
374.04	21603.9
379.847	21666.9
385.647	21737.9
391.44	21956.9
397.228	22074.9
403.009	22223.9
408.784	22400.9
414.553	22514.9
420.315	22575.9
426.071	22591.9
431.821	22569.9
437.565	22513.9
443.302	22199.9
449.033	22345.9
454.758	22197.9
460.477	22037.9
466.189	21947.9
471.896	21835.9
477.596	21699.9
483.29	21828.9
488.978	21758.9
494.66	21730.9
500.335	21659.9
506.005	21601.9
511.668	21391.9
517.325	21346.9
522.977	21104.9
528.622	21051.9
534.261	20947.9
539.894	20932.9
545.521	20788.9
551.141	20732.9
556.756	20498.9
562.365	20384.9
567.968	20240.9
573.565	20048.9
579.155	20013.9
584.74	19885.9
590.319	19730.9
595.892	19808.9
601.459	19744.9
607.02	19705.9
612.575	19750.9
618.124	19614.9
623.667	19746.9
629.204	19646.9
634.735	19615.9
640.261	19583.9
645.781	19636.9
651.294	19384.9
656.802	19216.9
662.304	19122.9
667.8	18875.9
673.29	18868.9
678.775	18685.9
684.254	18679.9
689.726	18718.9
695.193	18666.9
700.655	18683.9
706.11	18776.9
711.56	18620.9
717.004	18732.9
722.442	18832.9
727.874	18664.9
733.301	18687.9
738.722	18681.9
744.137	18470.9
749.547	18472.9
754.951	18353.9
760.349	18112.9
765.741	18083.9
771.128	18011.9
776.509	17986.9
781.885	17987.9
787.254	18047.9
792.618	18069.9
797.977	18127.9
803.33	18169.9
808.677	18209.9
814.019	18177.9
819.355	18139.9
824.686	18151.9
830.011	18158.9
835.33	17833.9
840.644	17738.9
845.952	17734.9
851.255	17572.9
856.552	17408.9
861.844	17209.9
867.13	17234.9
872.41	17198.9
877.686	17169.9
882.955	17258.9
888.219	17293.9
893.478	17435.9
898.731	17263.9
903.979	17214.9
909.221	17261.9
914.458	17157.9
919.69	16936.9
924.916	16810.9
930.136	16598.9
935.351	16491.9
940.561	16201.9
945.766	16161.9
950.965	16094.9
956.158	16177.9
961.347	16149.9
966.529	16141.9
971.707	16118.9
976.879	16151.9
982.046	16143.9
987.208	16170.9
992.364	16077.9
997.515	16009.9
1002.66	15884.9
1007.801	15905.9
1012.936	15862.9
1018.066	15834.9
1023.19	15658.9
1028.309	15667.9
1033.423	15724.9
1038.532	15844.9
1043.636	16003.9
1048.734	15981.9
1053.827	16115.9
1058.915	16043.9
1063.998	15937.9
1069.075	15747.9
1074.147	15603.9
1079.214	15501.9
1084.276	15276.9
1089.333	15190.9
1094.385	15128.9
1099.431	15099.9
1104.472	15117.9
1109.509	15258.9
1114.54	15405.9
1119.565	15404.9
1124.586	15353.9
1129.602	15477.9
1134.613	15242.9
1139.618	15170.9
1144.619	14979.9
1149.614	14700.9
1154.604	14505.9
1159.589	14536.9
1164.57	14376.9
1169.545	14418.9
1174.515	14386.9
1179.48	14483.9
1184.44	14620.9
1189.395	14688.9
1194.345	14788.9
1199.29	14806.9
1204.23	14897.9
1209.165	14770.9
1214.095	14725.9
1219.021	14618.9
1223.941	14627.9
1228.856	14555.9
1233.766	14493.9
1238.672	14405.9
1243.572	14377.9
1248.467	14381.9
1253.358	14505.9
1258.244	14514.9
1263.124	14441.9
1268	14306.9
1272.871	14247.9
1277.737	14245.9
1282.599	13971.9
1287.455	13809.9
1292.306	13632.9
1297.153	13639.9
1301.995	13415.9
1306.832	13365.9
1311.664	13409.9
1316.491	13506.9
1321.314	13405.9
1326.132	13470.9
1330.945	13447.9
1335.753	13225.9
1340.556	13110.9
1345.354	12847.9
1350.148	12601.9
1354.937	12431.9
1359.722	12330.9
1364.501	12050.9
1369.276	12108.9
1374.046	12075.9
1378.811	12175.9
1383.572	12241.9
1388.327	12102.9
1393.079	12532.9
1397.825	12537.9
1402.567	12522.9
1407.304	12376.9
1412.036	12554.9
1416.764	12533.9
1421.487	12590.9
1426.205	12288.9
1430.919	12037.9
1435.628	11864.9
1440.333	11890.9
1445.032	11753.9
1449.727	11723.9
1454.418	11694.9
1459.104	11614.9
1463.785	11481.9
1468.462	11513.9
1473.134	11476.9
1477.802	11314.9
1482.465	11309.9
1487.123	11079.9
1491.777	11054.9
1496.426	10906.9
1501.071	10807.9
1505.711	10833.9
1510.347	10812.9
1514.978	11035.9
1519.604	11072.9
1524.226	11203.9
1528.844	11509.9
1533.457	11418.9
1538.065	11528.9
1542.669	11596.9
1547.269	11673.9
1551.864	11615.9
1556.454	11720.9
1561.041	11570.9
1565.622	11594.9
1570.199	11314.9
1574.772	11294.9
1579.34	11100.9
1583.904	11160.9
1588.464	11209.9
1593.019	11156.9
1597.569	11314.9
1602.115	11391.9
1606.657	11349.9
1611.195	11440.9
1615.728	11411.9
1620.256	11472.9
1624.78	11554.9
1629.3	11428.9
1633.816	11285.9
1638.327	11271.9
1642.834	11202.9
1647.336	11177.9
1651.834	11118.9
1656.328	11134.9
1660.817	11074.9
1665.302	11162.9
1669.783	11098.9
1674.259	10843.9
1678.732	10627.9
1683.199	10475.9
1687.663	10266.9
1692.122	9843.9
1696.577	9602.9
1701.028	9593.9
1705.474	9445.9
1709.917	9459.9
1714.355	9476.9
1718.788	9317.9
1723.218	9176.9
1727.643	8961.9
1732.064	8957.9
1736.481	8838.9
1740.893	8647.9
1745.301	8523.9
1749.705	8488.9
1754.105	8151.9
1758.501	8095.9
1762.893	7793.9
1767.28	7721.9
1771.663	7441.9
1776.042	7365.9
1780.417	7184.9
1784.787	7041.9
1789.154	7084.9
1793.516	6951.9
1797.874	7233.9
1802.228	7303.9
1806.578	7497.9
1810.924	7484.9
1815.266	7948.9
1819.603	7516.9
1823.937	7491.9
1828.266	7431.9
1832.591	7401.9
1836.913	7291.9
1841.23	7288.9
1845.543	7161.9
1849.852	7094.9
1854.156	7017.9
1858.457	6961.9
1862.754	6975.9
1867.047	6814.9
1871.335	6750.9
1875.62	6823.9
1879.9	6784.9
1884.177	6783.9
1888.449	6743.9
1892.718	6700.9
1896.982	6627.9
1901.243	6748.9
1905.499	6658.9
1909.752	6612.9
1914	6599.9
1918.245	6595.9
1922.485	6575.9
1926.722	6642.9
1930.954	6625.9
1935.183	6666.9
1939.408	6581.9
1943.628	6665.9
1947.845	6688.9
1952.058	6719.9
1956.267	6757.9
1960.472	6698.9
1964.673	6716.9
1968.87	6700.9
1973.063	6678.9
1977.252	6596.9
1981.438	6448.9
1985.619	6364.9
1989.797	6233.9
1993.971	6209.9
1998.14	6117.9
2002.306	6077.9
2006.469	6025.9
2010.627	5975.9
2014.781	5948.9
2018.932	5974.9
2023.078	5828.9
2027.221	5924.9
2031.36	5850.9
2035.495	5909.9
2039.627	5820.9
2043.754	5730.9
2047.878	5633.9
2051.998	5656.9
2056.114	5615.9
2060.226	5579.9
2064.334	5500.9
2068.439	5452.9
2072.54	5484.9
2076.637	5538.9
2080.73	5496.9
2084.82	5541.9
2088.906	5609.9
2092.988	5464.9
2097.066	5681.9
2101.14	5594.9
2105.211	5687.9
2109.278	5648.9
2113.342	5704.9
2117.401	5701.9
2121.457	5598.9
2125.509	5574.9
2129.558	5402.9
2133.602	5453.9
2137.643	5360.9
2141.681	5301.9
2145.714	5292.9
2149.744	5251.9
2153.77	5253.9
2157.793	5150.9
2161.812	5177.9
2165.827	5122.9
2169.838	5047.9
2173.846	5048.9
2177.851	5026.9
2181.851	4896.9
2185.848	5029.9
2189.841	4796.9
2193.831	4842.9
2197.817	4697.9
2201.799	4653.9
2205.778	4681.9
2209.753	4654.9
2213.725	4671.9
2217.693	4580.9
2221.657	4528.9
2225.618	4189.9
2229.575	4516.9
2233.529	4490.9
2237.479	4461.9
2241.425	4447.9
2245.368	4534.9
2249.307	4471.9
2253.243	4349.9
2257.175	4461.9
2261.104	4304.9
2265.029	4279.9
2268.95	4205.9
2272.868	4062.9
2276.783	4097.9
2280.694	3949.9
2284.601	3901.9
2288.505	3937.9
2292.405	3815.9
2296.302	3913.9
2300.195	3725.9
2304.085	3812.9
2307.971	3747.9
2311.854	3706.9
2315.734	3694.9
2319.609	3668.9
2323.482	3757.9
2327.351	3634.9
2331.216	3625.9
2335.078	3608.9
2338.937	3577.9
2342.792	3625.9
2346.643	3538.9
2350.492	3512.9
2354.336	3476.9
2358.178	3473.9
2362.015	3490.9
2365.85	3468.9
2369.681	3568.9
2373.508	3509.9
2377.333	3519.9
2381.153	3574.9
2384.971	3536.9
2388.785	3528.9
2392.595	3569.9
2396.402	3607.9
2400.206	3602.9
2404.007	3614.9
2407.804	3464.9
2411.597	3403.9
2415.388	3476.9
2419.174	3414.9
2422.958	3370.9
2426.738	3337.9
2430.515	3224.9
2434.289	3315.9
2438.059	3314.9
2441.825	3276.9
2445.589	3132.9
2449.349	3215.9
2453.106	3186.9
2456.859	3147.9
2460.61	3146.9
2464.356	3081.9
2468.1	3072.9
2471.84	3104.9
2475.577	3134.9
2479.311	3043.9
2483.041	3030.9
2486.768	2876.9
2490.492	2815.9
2494.213	3101.9
2497.93	2904.9
2501.644	3015.9
2505.355	2930.9
2509.062	2930.9
2512.766	2962.9
2516.467	2946.9
2520.165	2864.9
2523.859	2941.9
2527.551	2793.9
2531.239	2882.9
2534.923	2861.9
2538.605	2896.9
2542.283	2822.9
2545.958	2829.9
2549.63	2734.9
2553.299	2741.9
2556.964	2748.9
2560.626	2794.9
2564.285	2711.9
2567.941	2785.9
2571.594	2772.9
2575.243	2611.9
2578.89	2710.9
2582.533	2725.9
2586.173	2702.9
2589.809	2702.9
2593.443	2833.9
2597.073	2684.9
2600.701	2563.9
2604.325	2635.9
2607.946	2624.9
2611.564	2538.9
2615.178	2538.9
2618.79	2477.9
2622.398	2564.9
2626.004	2504.9
2629.606	2440.9
2633.205	2575.9
2636.801	2480.9
2640.394	2413.9
2643.983	2404.9
2647.57	2441.9
2651.153	2347.9
2654.734	2299.9
2658.311	2416.9
2661.885	2265.9
2665.456	2223.9
2669.025	2248.9
2672.589	2241.9
2676.151	2078.9
2679.71	2131.9
2683.266	2056.9
2686.819	2124.9
2690.368	2103.9
2693.915	2127.9
2697.458	2164.9
2700.999	2018.9
2704.536	1960.9
2708.071	1969.9
2711.602	1943.9
2715.13	1884.9
2718.656	1879.9
2722.178	1797.9
2725.697	1845.9
2729.214	1617.9
2732.727	1741.9
2736.237	1844.9
2739.744	1759.9
2743.249	1791.9
2746.75	1791.9
2750.248	1799.9
2753.743	1840.9
2757.236	1757.9
2760.725	1847.9
2764.211	1926.9
2767.695	1851.9
2771.175	1862.9
2774.652	1869.9
2778.127	1866.9
2781.598	1828.9
2785.067	1844.9
2788.532	1912.9
2791.995	1804.9
2795.455	1776.9
2798.911	1757.9
2802.365	1856.9
2805.816	1759.9
2809.264	1801.9
2812.709	1827.9
2816.151	1845.9
2819.59	1915.9
2823.026	1865.9
2826.46	1892.9
2829.89	1887.9
2833.318	2014.9
2836.742	1941.9
2840.164	1884.9
2843.583	1953.9
2846.999	1954.9
2850.412	1867.9
2853.822	1969.9
2857.229	1889.9
2860.634	1856.9
2864.035	1946.9
2867.434	1918.9
2870.83	1912.9
2874.223	2071.9
2877.613	1924.9
2881	2225.9
2884.385	2238.9
2887.766	2163.9
2891.145	2243.9
2894.521	2224.9
2897.894	2231.9
2901.264	1956.9
2904.631	2238.9
2907.996	2204.9
2911.358	2149.9
2914.717	2187.9
2918.073	2134.9
2921.426	2141.9
2924.777	2238.9
2928.124	2299.9
2931.469	2215.9
2934.811	2365.9
2938.15	2317.9
2941.487	2382.9
2944.821	2268.9
2948.152	2405.9
2951.48	2136.9
2954.805	2344.9
2958.128	2297.9
2961.447	2432.9
2964.765	2257.9
2968.079	2400.9
2971.39	2335.9
2974.699	2421.9
2978.005	2412.9
2981.308	2468.9
2984.609	2525.9
2987.907	2455.9
2991.202	2543.9
2994.494	2610.9
2997.784	2564.9
3001.07	2627.9
3004.355	2587.9
3007.636	2704.9
3010.915	2774.9
3014.191	2830.9
3017.464	2793.9
3020.734	2807.9
3024.002	2873.9
3027.267	2871.9
3030.53	2959.9
3033.789	2993.9
3037.046	3115.9
3040.301	3099.9
3043.552	3122.9
3046.801	3325.9
3050.048	3167.9
3053.291	3179.9
3056.532	3360.9
3059.771	3436.9
3063.006	3485.9
3066.239	3538.9
3069.469	3666.9
3072.697	3829.9
3075.922	3859.9
3079.144	3923.9
3082.364	4032.9
3085.581	4193.9
3088.795	4253.9
3092.007	4356.9
3095.216	4458.9
3098.423	4676.9
3101.627	4852.9
3104.828	4873.9
3108.026	5001.9
3111.222	5053.9
3114.416	5040.9
3117.607	5314.9
3120.795	5336.9
3123.98	5478.9
3127.163	5593.9
3130.344	5649.9
3133.521	5754.9
3136.696	5932.9
3139.869	5971.9
3143.039	6106.9
3146.206	6199.9
3149.371	6264.9
3152.533	6424.9
3155.693	6533.9
3158.85	6592.9
3162.005	6684.9
3165.157	6846.9
3168.306	6795.9
3171.453	6777.9
3174.597	6926.9
3177.739	6907.9
3180.878	6779.9
3184.014	6852.9
3187.149	6899.9
3190.28	6881.9
3193.409	6785.9
3196.536	6790.9
3199.659	6764.9
3202.781	6741.9
3205.9	6867.9
3209.016	6773.9
3212.13	6820.9
3215.241	6718.9
3218.35	6784.9
3221.456	6877.9
3224.56	6896.9
3227.661	6916.9
3230.76	6842.9
3233.856	6912.9
3236.95	6811.9
3240.041	6954.9
3243.13	6728.9
3246.216	6748.9
3249.3	6589.9
3252.382	6583.9
3255.46	6636.9
3258.537	6799.9
3261.611	6554.9
3264.682	6438.9
3267.751	6459.9
3270.818	6467.9
3273.882	6274.9
3276.943	6192.9
3280.002	6178.9
3283.059	6154.9
3286.113	6144.9
3289.165	6137.9
3292.214	6060.9
3295.261	5961.9
3298.306	5940.9
3301.348	5847.9
3304.387	5790.9
3307.425	5727.9
3310.459	5653.9
3313.492	5420.9
3316.521	5505.9
3319.549	5410.9
3322.574	5301.9
3325.597	5256.9
3328.617	5160.9
3331.635	5045.9
3334.65	5146.9
3337.663	5085.9
3340.674	5009.9
3343.682	5008.9
3346.688	4860.9
3349.691	4864.9
3352.692	4924.9
3355.691	4775.9
3358.687	4858.9
3361.681	4872.9
3364.673	4829.9
3367.662	4733.9
3370.649	4825.9
3373.633	4804.9
3376.615	4709.9
3379.595	4772.9
3382.572	4600.9
3385.547	4523.9
3388.52	4543.9
3391.49	4446.9
3394.458	4444.9
3397.424	4323.9
3400.387	4377.9
3403.348	4073.9
3406.307	4117.9
3409.263	4159.9
3412.217	3960.9
3415.168	3897.9
3418.118	3955.9
3421.065	3902.9
3424.009	3755.9
3426.951	3795.9
3429.891	3513.9
3432.829	3663.9
3435.764	3651.9
3438.697	3625.9
3441.628	3503.9
3444.557	3516.9
3447.483	3512.9
3450.407	3317.9
3453.328	3253.9
3456.247	3226.9
3459.164	3092.9
3462.079	3003.9
3464.991	2973.9
3467.902	2870.9
3470.809	2862.9
3473.715	2725.9
3476.618	2652.9
3479.519	2572.9
3482.418	2606.9
3485.315	2388.9
3488.209	2311.9
3491.101	2326.9
3493.99	2336.9
3496.878	1951.9
3499.763	2030.9
3502.646	2006.9
3505.527	2053.9
3508.405	1918.9
3511.281	1825.9
3514.155	1780.9
3517.027	1845.9
3519.897	1820.9
3522.764	1653.9
3525.629	1654.9
3528.492	1548.9
3531.352	1461.9
3534.211	1432.9
3537.067	1415.9
3539.921	1276.9
3542.773	1323.9
3545.622	1159.9
3548.469	1196.9
3551.315	1186.9
3554.157	1062.9
3556.998	983.9
3559.837	908.9
3562.673	863.9
3565.507	924.9
3568.339	846.9
3571.169	784.9
3573.996	772.9
3576.822	778.9
3579.645	738.9
3582.466	705.9
3585.285	660.9
3588.101	626.9
3590.916	634.9
3593.728	515.9
3596.538	560.9
3599.346	513.9
3602.152	549.9
3604.956	517.9
3607.757	463.9
3610.556	495.9
3613.354	387.9
3616.149	405.9
3618.942	305.9
3621.732	135.9
3624.521	346.9
3627.307	227.9
3630.092	276.9
3632.874	232.9
3635.654	219.9
3638.432	271.9
3641.208	205.9
3643.982	167.9
3646.753	160.9
3649.523	223.9
3652.29	188.9
3655.055	186.9
3657.818	77.9
3660.579	136.9
3663.338	192.9
3666.095	-43.1
3668.849	232.9
3671.602	31.9
3674.352	94.9
3677.101	42.9
3679.847	-50.1
3682.591	-0.1
3685.333	-30.1
3688.073	-22.1
3690.811	15.9
3693.547	81.9
3696.281	-59.1
3699.013	-93.1
3701.742	-86.1
3704.47	-22.1
3707.195	-100.1
3709.919	-79.1
3712.64	-94.1
3715.359	-284.1
3718.076	-204.1
3720.792	-86.1
3723.505	-106.1
3726.216	-107.1
3728.925	-106.1
3731.632	-229.1
3734.336	-66.1
3737.039	-129.1
3739.74	-127.1
3742.439	78.9
3745.136	-189.1
3747.83	-190.1
3750.523	-126.1
3753.213	-320.1
3755.902	-192.1
3758.589	-156.1
3761.273	-164.1
3763.956	-240.1
3766.636	-132.1
3769.315	-167.1
3771.991	-118.1
3774.665	-183.1
3777.338	-161.1
3780.008	-159.1
3782.677	-162.1
3785.343	-44.1
3788.007	-187.1
3790.67	-197.1
3793.33	-256.1
3795.989	-168.1
3798.645	-196.1
3801.299	-141.1
3803.952	-246.1
3806.602	-257.1
3809.251	-207.1
3811.897	-191.1
3814.542	-244.1
3817.184	-200.1
3819.825	-191.1
3822.463	-175.1
3825.1	-204.1
3827.735	-189.1
3830.367	-204.1
3832.998	-277.1
3835.627	-255.1
3838.253	-220.1
3840.878	-205.1
3843.501	-321.1
3846.122	-296.1
3848.741	-276.1
3851.358	-207.1
3853.973	-190.1
3856.586	-221.1
3859.197	-272.1
3861.806	-268.1
3864.414	-183.1
3867.019	-207.1
3869.622	-322.1
3872.224	-279.1
3874.823	-192.1
3877.421	-148.1
3880.016	-177.1
3882.61	-79.1
3885.202	-175.1
3887.792	-175.1
3890.38	-264.1
3892.966	-196.1
3895.55	-198.1
3898.132	-220.1
3900.713	-300.1
3903.291	-253.1
3905.868	-290.1
3908.442	-319.1
3911.015	-258.1
3913.586	-285.1
3916.155	-308.1
3918.722	-229.1
3921.287	-250.1
3923.85	-206.1
3926.411	-281.1
3928.971	-324.1
3931.528	-271.1
3934.084	-264.1
3936.638	-272.1
3939.19	-307.1
3941.74	-272.1
3944.288	-291.1
3946.834	-253.1
3949.378	-275.1
3951.921	-159.1
3954.462	-248.1
3957	-208.1
3959.537	-214.1
3962.072	-234.1
3964.606	-161.1
3967.137	-252.1
3969.667	-236.1
3972.194	-281.1
3974.72	-246.1
3977.244	-226.1
3979.766	-262.1
3982.286	-165.1
3984.805	-264.1
3987.321	-279.1
3989.836	-251.1
3992.349	-171.1
3994.86	-224.1
3997.369	-211.1
3999.877	-245.1
4002.382	-281.1
4004.886	-234.1
4007.388	-259.1
4009.888	-149.1
4012.386	-315.1
4014.883	-214.1
4017.377	-295.1
4019.87	-392.1
4022.361	-238.1
4024.85	-228.1
4027.338	-91.1
4029.823	-294.1
4032.307	-261.1
4034.789	-195.1
4037.269	-161.1
4039.747	-193.1
4042.224	-227.1
4044.699	-224.1
4047.172	-264.1
4049.643	-298.1
4052.112	-187.1
4054.58	-258.1
4057.046	-231.1
4059.51	-211.1
4061.972	-242.1
4064.432	-149.1
4066.891	-280.1
4069.348	-174.1
4071.803	-305.1
4074.256	-268.1
4076.708	-209.1
4079.158	-252.1
4081.606	-318.1
4084.052	-200.1
4086.497	-204.1
4088.939	-242.1
4091.38	-177.1
4093.819	-232.1
4096.257	-973.1
4098.693	-1000.1
4101.127	-993.1
4103.559	-1011.1
4105.989	79.9
4108.418	-90.1
4110.845	140.9
4113.27	-5.1
4115.694	97.9
4118.115	124.9
4120.535	-309.1
4122.954	-337.1
4125.37	-310.1
4127.785	-265.1
4130.198	-298.1
4132.609	-274.1
4135.019	-1020.1
4137.427	-1045.1
4139.833	-976.1
4142.237	-885.1
