Data from 2018-2-8_conc=5_RamanShift_16.txt Node
Date: Wed Feb 07 11:08:40 IST 2018
User: aro
Spectrometer: QEPB0276
Trigger mode: 0
Integration Time (sec): 3.000000E1
Scans to average: 1
Electric dark correction enabled: true
Nonlinearity correction enabled: false
Boxcar width: 0
XAxis mode: Raman Shifts
Number of Pixels in Spectrum: 1044
>>>>>Begin Spectral Data<<<<<
160.701	641.8
166.742	758.8
172.777	1201.8
178.805	2853.8
184.826	6351.8
190.841	12454.8
196.849	19899.8
202.85	25320.8
208.845	27337.8
214.833	27109.8
220.815	26807.8
226.789	26631.8
232.758	26481.8
238.719	26411.8
244.674	26090.8
250.623	25717.8
256.565	25238.8
262.5	24837.8
268.429	24113.8
274.351	23893.8
280.267	23633.8
286.176	23109.8
292.079	22834.8
297.975	22565.8
303.865	22308.8
309.748	22082.8
315.625	21983.8
321.495	21487.8
327.359	21538.8
333.217	21607.8
339.068	21556.8
344.912	21480.8
350.751	21538.8
356.583	21316.8
362.408	21432.8
368.227	21366.8
374.04	21564.8
379.847	21654.8
385.647	21678.8
391.44	21915.8
397.228	21954.8
403.009	22126.8
408.784	22053.8
414.553	22321.8
420.315	22409.8
426.071	22486.8
431.821	22397.8
437.565	22396.8
443.302	22114.8
449.033	22277.8
454.758	22087.8
460.477	21927.8
466.189	21784.8
471.896	21673.8
477.596	21559.8
483.29	21731.8
488.978	21736.8
494.66	21692.8
500.335	21659.8
506.005	21513.8
511.668	21220.8
517.325	21179.8
522.977	20968.8
528.622	20897.8
534.261	20698.8
539.894	20647.8
545.521	20643.8
551.141	20549.8
556.756	20227.8
562.365	20138.8
567.968	19987.8
573.565	19892.8
579.155	19741.8
584.74	19651.8
590.319	19523.8
595.892	19616.8
601.459	19392.8
607.02	19436.8
612.575	19510.8
618.124	19232.8
623.667	19519.8
629.204	19372.8
634.735	19469.8
640.261	19256.8
645.781	19384.8
651.294	19171.8
656.802	18900.8
662.304	18866.8
667.8	18565.8
673.29	18637.8
678.775	18453.8
684.254	18428.8
689.726	18573.8
695.193	18377.8
700.655	18411.8
706.11	18561.8
711.56	18528.8
717.004	18504.8
722.442	18680.8
727.874	18430.8
733.301	18438.8
738.722	18592.8
744.137	18277.8
749.547	18254.8
754.951	18170.8
760.349	18058.8
765.741	17691.8
771.128	17755.8
776.509	17826.8
781.885	17850.8
787.254	17729.8
792.618	17803.8
797.977	17922.8
803.33	18011.8
808.677	18068.8
814.019	17879.8
819.355	18049.8
824.686	18007.8
830.011	18033.8
835.33	17673.8
840.644	17515.8
845.952	17563.8
851.255	17273.8
856.552	17232.8
861.844	17121.8
867.13	17075.8
872.41	17036.8
877.686	16878.8
882.955	17016.8
888.219	17069.8
893.478	17167.8
898.731	17060.8
903.979	16966.8
909.221	17052.8
914.458	16920.8
919.69	16716.8
924.916	16641.8
930.136	16390.8
935.351	16270.8
940.561	16026.8
945.766	15999.8
950.965	15849.8
956.158	15964.8
961.347	16009.8
966.529	15927.8
971.707	15960.8
976.879	15964.8
982.046	16004.8
987.208	16023.8
992.364	15882.8
997.515	15914.8
1002.66	15737.8
1007.801	15858.8
1012.936	15823.8
1018.066	15816.8
1023.19	15613.8
1028.309	15434.8
1033.423	15559.8
1038.532	15699.8
1043.636	15871.8
1048.734	15877.8
1053.827	16024.8
1058.915	15939.8
1063.998	15818.8
1069.075	15543.8
1074.147	15413.8
1079.214	15426.8
1084.276	15138.8
1089.333	15061.8
1094.385	14975.8
1099.431	15137.8
1104.472	15029.8
1109.509	15211.8
1114.54	15258.8
1119.565	15280.8
1124.586	15264.8
1129.602	15285.8
1134.613	15180.8
1139.618	15146.8
1144.619	14859.8
1149.614	14701.8
1154.604	14527.8
1159.589	14496.8
1164.57	14194.8
1169.545	14257.8
1174.515	14304.8
1179.48	14421.8
1184.44	14489.8
1189.395	14608.8
1194.345	14751.8
1199.29	14747.8
1204.23	14872.8
1209.165	14643.8
1214.095	14599.8
1219.021	14460.8
1223.941	14454.8
1228.856	14543.8
1233.766	14404.8
1238.672	14320.8
1243.572	14246.8
1248.467	14280.8
1253.358	14437.8
1258.244	14521.8
1263.124	14363.8
1268	14177.8
1272.871	14306.8
1277.737	14202.8
1282.599	13944.8
1287.455	13833.8
1292.306	13550.8
1297.153	13586.8
1301.995	13372.8
1306.832	13331.8
1311.664	13429.8
1316.491	13436.8
1321.314	13399.8
1326.132	13426.8
1330.945	13292.8
1335.753	13187.8
1340.556	13049.8
1345.354	12939.8
1350.148	12591.8
1354.937	12424.8
1359.722	12418.8
1364.501	12205.8
1369.276	11997.8
1374.046	12083.8
1378.811	12268.8
1383.572	12320.8
1388.327	12123.8
1393.079	12531.8
1397.825	12580.8
1402.567	12603.8
1407.304	12551.8
1412.036	12569.8
1416.764	12357.8
1421.487	12669.8
1426.205	12355.8
1430.919	12210.8
1435.628	11961.8
1440.333	11884.8
1445.032	11865.8
1449.727	11658.8
1454.418	11815.8
1459.104	11783.8
1463.785	11574.8
1468.462	11592.8
1473.134	11505.8
1477.802	11319.8
1482.465	11464.8
1487.123	10980.8
1491.777	11156.8
1496.426	11093.8
1501.071	10861.8
1505.711	10987.8
1510.347	10992.8
1514.978	11164.8
1519.604	11256.8
1524.226	11302.8
1528.844	11690.8
1533.457	11468.8
1538.065	11642.8
1542.669	11732.8
1547.269	11747.8
1551.864	11777.8
1556.454	11913.8
1561.041	11775.8
1565.622	11742.8
1570.199	11543.8
1574.772	11444.8
1579.34	11249.8
1583.904	11375.8
1588.464	11362.8
1593.019	11347.8
1597.569	11541.8
1602.115	11564.8
1606.657	11659.8
1611.195	11598.8
1615.728	11652.8
1620.256	11752.8
1624.78	11786.8
1629.3	11795.8
1633.816	11626.8
1638.327	11567.8
1642.834	11500.8
1647.336	11413.8
1651.834	11352.8
1656.328	11423.8
1660.817	11226.8
1665.302	11414.8
1669.783	11251.8
1674.259	11147.8
1678.732	10847.8
1683.199	10592.8
1687.663	10474.8
1692.122	9975.8
1696.577	9685.8
1701.028	9770.8
1705.474	9702.8
1709.917	9713.8
1714.355	9731.8
1718.788	9598.8
1723.218	9502.8
1727.643	9207.8
1732.064	9116.8
1736.481	9109.8
1740.893	8854.8
1745.301	8732.8
1749.705	8804.8
1754.105	8340.8
1758.501	8346.8
1762.893	8020.8
1767.28	8014.8
1771.663	7686.8
1776.042	7480.8
1780.417	7408.8
1784.787	7209.8
1789.154	7278.8
1793.516	7370.8
1797.874	7457.8
1802.228	7644.8
1806.578	7723.8
1810.924	7702.8
1815.266	7891.8
1819.603	7832.8
1823.937	7809.8
1828.266	7674.8
1832.591	7568.8
1836.913	7477.8
1841.23	7557.8
1845.543	7459.8
1849.852	7303.8
1854.156	7333.8
1858.457	7221.8
1862.754	6968.8
1867.047	7169.8
1871.335	6985.8
1875.62	6874.8
1879.9	6895.8
1884.177	7085.8
1888.449	6914.8
1892.718	7016.8
1896.982	6870.8
1901.243	7010.8
1905.499	6900.8
1909.752	6848.8
1914	7034.8
1918.245	6806.8
1922.485	6903.8
1926.722	6813.8
1930.954	6885.8
1935.183	6947.8
1939.408	6845.8
1943.628	6928.8
1947.845	7028.8
1952.058	7057.8
1956.267	7046.8
1960.472	6936.8
1964.673	6965.8
1968.87	7033.8
1973.063	7017.8
1977.252	6853.8
1981.438	6810.8
1985.619	6666.8
1989.797	6594.8
1993.971	6545.8
1998.14	6334.8
2002.306	6406.8
2006.469	6300.8
2010.627	6346.8
2014.781	6306.8
2018.932	6328.8
2023.078	6106.8
2027.221	6092.8
2031.36	6180.8
2035.495	6175.8
2039.627	6101.8
2043.754	6032.8
2047.878	5996.8
2051.998	5938.8
2056.114	5972.8
2060.226	5958.8
2064.334	5857.8
2068.439	5737.8
2072.54	5714.8
2076.637	5952.8
2080.73	5858.8
2084.82	5750.8
2088.906	5884.8
2092.988	5852.8
2097.066	6064.8
2101.14	5887.8
2105.211	5919.8
2109.278	5942.8
2113.342	5968.8
2117.401	6057.8
2121.457	5952.8
2125.509	5974.8
2129.558	5720.8
2133.602	5783.8
2137.643	5762.8
2141.681	5692.8
2145.714	5568.8
2149.744	5580.8
2153.77	5592.8
2157.793	5534.8
2161.812	5581.8
2165.827	5508.8
2169.838	5282.8
2173.846	5349.8
2177.851	5318.8
2181.851	5255.8
2185.848	5426.8
2189.841	5163.8
2193.831	5287.8
2197.817	5016.8
2201.799	5039.8
2205.778	5083.8
2209.753	5038.8
2213.725	4923.8
2217.693	4979.8
2221.657	4950.8
2225.618	4836.8
2229.575	4824.8
2233.529	4789.8
2237.479	4860.8
2241.425	4801.8
2245.368	4947.8
2249.307	4815.8
2253.243	4765.8
2257.175	4775.8
2261.104	4624.8
2265.029	4536.8
2268.95	4547.8
2272.868	4489.8
2276.783	4542.8
2280.694	4224.8
2284.601	4279.8
2288.505	4298.8
2292.405	4122.8
2296.302	4218.8
2300.195	4105.8
2304.085	4203.8
2307.971	4076.8
2311.854	4129.8
2315.734	4019.8
2319.609	4077.8
2323.482	4263.8
2327.351	4019.8
2331.216	4005.8
2335.078	3976.8
2338.937	3980.8
2342.792	4003.8
2346.643	3942.8
2350.492	3874.8
2354.336	3954.8
2358.178	3851.8
2362.015	3826.8
2365.85	3918.8
2369.681	3967.8
2373.508	3891.8
2377.333	3789.8
2381.153	3905.8
2384.971	3939.8
2388.785	3922.8
2392.595	3981.8
2396.402	3862.8
2400.206	4042.8
2404.007	3969.8
2407.804	3844.8
2411.597	3772.8
2415.388	3880.8
2419.174	3805.8
2422.958	3766.8
2426.738	3763.8
2430.515	3668.8
2434.289	3728.8
2438.059	3730.8
2441.825	3707.8
2445.589	3532.8
2449.349	3665.8
2453.106	3544.8
2456.859	3559.8
2460.61	3468.8
2464.356	3542.8
2468.1	3452.8
2471.84	3546.8
2475.577	3488.8
2479.311	3442.8
2483.041	3365.8
2486.768	3258.8
2490.492	3023.8
2494.213	3495.8
2497.93	3392.8
2501.644	3373.8
2505.355	3377.8
2509.062	3245.8
2512.766	3279.8
2516.467	3269.8
2520.165	3280.8
2523.859	3368.8
2527.551	3073.8
2531.239	3246.8
2534.923	3334.8
2538.605	3284.8
2542.283	3178.8
2545.958	3224.8
2549.63	3157.8
2553.299	3134.8
2556.964	2984.8
2560.626	3205.8
2564.285	3095.8
2567.941	3229.8
2571.594	3102.8
2575.243	3076.8
2578.89	3125.8
2582.533	3169.8
2586.173	3130.8
2589.809	3044.8
2593.443	3342.8
2597.073	3155.8
2600.701	2966.8
2604.325	2972.8
2607.946	3010.8
2611.564	2952.8
2615.178	2908.8
2618.79	2878.8
2622.398	3026.8
2626.004	3041.8
2629.606	2812.8
2633.205	3059.8
2636.801	2814.8
2640.394	2850.8
2643.983	2772.8
2647.57	2905.8
2651.153	2773.8
2654.734	2634.8
2658.311	2890.8
2661.885	2781.8
2665.456	2765.8
2669.025	2637.8
2672.589	2681.8
2676.151	2498.8
2679.71	2493.8
2683.266	2594.8
2686.819	2562.8
2690.368	2477.8
2693.915	2332.8
2697.458	2555.8
2700.999	2350.8
2704.536	2376.8
2708.071	2397.8
2711.602	2328.8
2715.13	2282.8
2718.656	2312.8
2722.178	2180.8
2725.697	2289.8
2729.214	1960.8
2732.727	2107.8
2736.237	2126.8
2739.744	2069.8
2743.249	2197.8
2746.75	2206.8
2750.248	2259.8
2753.743	2246.8
2757.236	2251.8
2760.725	2210.8
2764.211	2518.8
2767.695	2245.8
2771.175	2305.8
2774.652	2282.8
2778.127	2249.8
2781.598	2215.8
2785.067	2276.8
2788.532	2247.8
2791.995	2244.8
2795.455	2249.8
2798.911	2243.8
2802.365	2343.8
2805.816	2223.8
2809.264	2123.8
2812.709	2272.8
2816.151	2222.8
2819.59	2344.8
2823.026	2367.8
2826.46	2417.8
2829.89	2284.8
2833.318	2501.8
2836.742	2372.8
2840.164	2292.8
2843.583	2438.8
2846.999	2420.8
2850.412	2307.8
2853.822	2727.8
2857.229	2294.8
2860.634	2392.8
2864.035	2468.8
2867.434	2328.8
2870.83	2438.8
2874.223	2471.8
2877.613	2422.8
2881	2592.8
2884.385	2643.8
2887.766	2590.8
2891.145	2532.8
2894.521	2666.8
2897.894	2707.8
2901.264	2401.8
2904.631	2688.8
2907.996	2660.8
2911.358	2658.8
2914.717	2637.8
2918.073	2655.8
2921.426	2609.8
2924.777	2793.8
2928.124	2753.8
2931.469	2637.8
2934.811	2892.8
2938.15	2748.8
2941.487	2798.8
2944.821	2481.8
2948.152	2846.8
2951.48	2800.8
2954.805	2811.8
2958.128	2706.8
2961.447	2865.8
2964.765	2695.8
2968.079	2871.8
2971.39	2791.8
2974.699	2855.8
2978.005	2802.8
2981.308	2893.8
2984.609	3056.8
2987.907	2887.8
2991.202	3003.8
2994.494	3051.8
2997.784	2647.8
3001.07	2989.8
3004.355	3095.8
3007.636	3129.8
3010.915	3191.8
3014.191	3212.8
3017.464	3210.8
3020.734	3161.8
3024.002	3324.8
3027.267	3422.8
3030.53	3357.8
3033.789	3444.8
3037.046	3541.8
3040.301	3553.8
3043.552	3638.8
3046.801	3765.8
3050.048	3547.8
3053.291	3599.8
3056.532	3719.8
3059.771	3948.8
3063.006	3887.8
3066.239	3969.8
3069.469	4053.8
3072.697	4308.8
3075.922	4415.8
3079.144	4446.8
3082.364	4415.8
3085.581	4685.8
3088.795	4521.8
3092.007	4784.8
3095.216	4968.8
3098.423	5185.8
3101.627	5341.8
3104.828	5283.8
3108.026	5469.8
3111.222	5531.8
3114.416	5577.8
3117.607	5751.8
3120.795	5856.8
3123.98	5913.8
3127.163	6210.8
3130.344	6139.8
3133.521	6234.8
3136.696	6243.8
3139.869	6439.8
3143.039	6575.8
3146.206	6567.8
3149.371	6751.8
3152.533	6925.8
3155.693	7063.8
3158.85	7114.8
3162.005	7170.8
3165.157	7296.8
3168.306	7323.8
3171.453	7176.8
3174.597	7547.8
3177.739	7470.8
3180.878	7339.8
3184.014	7320.8
3187.149	7400.8
3190.28	7390.8
3193.409	7315.8
3196.536	7298.8
3199.659	7264.8
3202.781	7273.8
3205.9	7470.8
3209.016	7335.8
3212.13	7287.8
3215.241	7233.8
3218.35	7316.8
3221.456	7470.8
3224.56	7511.8
3227.661	7439.8
3230.76	7521.8
3233.856	7459.8
3236.95	7299.8
3240.041	7485.8
3243.13	7211.8
3246.216	7298.8
3249.3	7184.8
3252.382	7072.8
3255.46	7224.8
3258.537	6557.8
3261.611	7180.8
3264.682	6918.8
3267.751	6884.8
3270.818	7051.8
3273.882	6741.8
3276.943	6766.8
3280.002	6630.8
3283.059	6730.8
3286.113	6699.8
3289.165	6745.8
3292.214	6623.8
3295.261	6413.8
3298.306	6631.8
3301.348	6418.8
3304.387	6360.8
3307.425	6215.8
3310.459	6291.8
3313.492	6044.8
3316.521	5949.8
3319.549	5909.8
3322.574	5798.8
3325.597	5690.8
3328.617	5714.8
3331.635	5636.8
3334.65	5670.8
3337.663	5606.8
3340.674	5539.8
3343.682	5398.8
3346.688	5465.8
3349.691	5477.8
3352.692	5527.8
3355.691	5372.8
3358.687	5366.8
3361.681	5308.8
3364.673	5318.8
3367.662	5275.8
3370.649	5089.8
3373.633	5278.8
3376.615	5289.8
3379.595	5326.8
3382.572	5148.8
3385.547	5062.8
3388.52	5201.8
3391.49	5008.8
3394.458	4994.8
3397.424	4801.8
3400.387	4887.8
3403.348	4578.8
3406.307	4681.8
3409.263	4648.8
3412.217	4488.8
3415.168	4475.8
3418.118	4395.8
3421.065	4362.8
3424.009	4184.8
3426.951	4346.8
3429.891	4290.8
3432.829	4228.8
3435.764	4153.8
3438.697	4103.8
3441.628	3884.8
3444.557	4006.8
3447.483	4013.8
3450.407	3733.8
3453.328	3623.8
3456.247	3727.8
3459.164	3740.8
3462.079	3476.8
3464.991	3375.8
3467.902	3323.8
3470.809	3320.8
3473.715	3137.8
3476.618	3031.8
3479.519	2968.8
3482.418	3152.8
3485.315	2938.8
3488.209	2798.8
3491.101	2618.8
3493.99	2644.8
3496.878	2409.8
3499.763	2503.8
3502.646	2364.8
3505.527	2508.8
3508.405	2360.8
3511.281	2301.8
3514.155	2321.8
3517.027	2255.8
3519.897	2355.8
3522.764	2044.8
3525.629	2186.8
3528.492	2013.8
3531.352	1886.8
3534.211	1805.8
3537.067	1983.8
3539.921	1772.8
3542.773	1769.8
3545.622	1708.8
3548.469	1715.8
3551.315	1647.8
3554.157	1462.8
3556.998	1417.8
3559.837	1271.8
3562.673	1297.8
3565.507	1347.8
3568.339	1161.8
3571.169	1297.8
3573.996	1178.8
3576.822	1257.8
3579.645	1230.8
3582.466	1105.8
3585.285	1071.8
3588.101	968.8
3590.916	1099.8
3593.728	974.8
3596.538	1048.8
3599.346	906.8
3602.152	981.8
3604.956	935.8
3607.757	761.8
3610.556	929.8
3613.354	779.8
3616.149	702.8
3618.942	736.8
3621.732	504.8
3624.521	792.8
3627.307	701.8
3630.092	620.8
3632.874	519.8
3635.654	658.8
3638.432	743.8
3641.208	566.8
3643.982	583.8
3646.753	500.8
3649.523	572.8
3652.29	600.8
3655.055	507.8
3657.818	408.8
3660.579	380.8
3663.338	656.8
3666.095	363.8
3668.849	645.8
3671.602	447.8
3674.352	600.8
3677.101	425.8
3679.847	287.8
3682.591	442.8
3685.333	469.8
3688.073	357.8
3690.811	487.8
3693.547	245.8
3696.281	367.8
3699.013	288.8
3701.742	309.8
3704.47	451.8
3707.195	247.8
3709.919	266.8
3712.64	305.8
3715.359	185.8
3718.076	59.8
3720.792	398.8
3723.505	263.8
3726.216	235.8
3728.925	352.8
3731.632	115.8
3734.336	354.8
3737.039	276.8
3739.74	276.8
3742.439	273.8
3745.136	271.8
3747.83	203.8
3750.523	222.8
3753.213	653.8
3755.902	215.8
3758.589	333.8
3761.273	325.8
3763.956	134.8
3766.636	266.8
3769.315	-47.2
3771.991	291.8
3774.665	180.8
3777.338	378.8
3780.008	261.8
3782.677	30.8
3785.343	339.8
3788.007	510.8
3790.67	174.8
3793.33	129.8
3795.989	250.8
3798.645	150.8
3801.299	382.8
3803.952	170.8
3806.602	138.8
3809.251	227.8
3811.897	177.8
3814.542	250.8
3817.184	253.8
3819.825	221.8
3822.463	-144.2
3825.1	216.8
3827.735	252.8
3830.367	189.8
3832.998	53.8
3835.627	131.8
3838.253	115.8
3840.878	-29.2
3843.501	-12.2
3846.122	90.8
3848.741	85.8
3851.358	184.8
3853.973	356.8
3856.586	131.8
3859.197	100.8
3861.806	146.8
3864.414	270.8
3867.019	179.8
3869.622	136.8
3872.224	12.8
3874.823	226.8
3877.421	177.8
3880.016	285.8
3882.61	358.8
3885.202	324.8
3887.792	256.8
3890.38	88.8
3892.966	160.8
3895.55	200.8
3898.132	194.8
3900.713	73.8
3903.291	151.8
3905.868	223.8
3908.442	76.8
3911.015	104.8
3913.586	147.8
3916.155	54.8
3918.722	157.8
3921.287	151.8
3923.85	-72.2
3926.411	110.8
3928.971	66.8
3931.528	109.8
3934.084	129.8
3936.638	177.8
3939.19	98.8
3941.74	179.8
3944.288	64.8
3946.834	105.8
3949.378	115.8
3951.921	207.8
3954.462	129.8
3957	37.8
3959.537	174.8
3962.072	271.8
3964.606	241.8
3967.137	42.8
3969.667	116.8
3972.194	178.8
3974.72	147.8
3977.244	173.8
3979.766	56.8
3982.286	245.8
3984.805	86.8
3987.321	45.8
3989.836	80.8
3992.349	209.8
3994.86	148.8
3997.369	120.8
3999.877	100.8
4002.382	126.8
4004.886	138.8
4007.388	150.8
4009.888	281.8
4012.386	151.8
4014.883	165.8
4017.377	164.8
4019.87	48.8
4022.361	177.8
4024.85	261.8
4027.338	78.8
4029.823	94.8
4032.307	152.8
4034.789	183.8
4037.269	161.8
4039.747	206.8
4042.224	119.8
4044.699	174.8
4047.172	151.8
4049.643	59.8
4052.112	200.8
4054.58	153.8
4057.046	187.8
4059.51	175.8
4061.972	100.8
4064.432	249.8
4066.891	56.8
4069.348	198.8
4071.803	64.8
4074.256	109.8
4076.708	150.8
4079.158	216.8
4081.606	36.8
4084.052	169.8
4086.497	67.8
4088.939	250.8
4091.38	218.8
4093.819	101.8
4096.257	-1335.2
4098.693	-1384.2
4101.127	-1419.2
4103.559	-1450.2
4105.989	331.8
4108.418	378.8
4110.845	548.8
4113.27	417.8
4115.694	536.8
4118.115	545.8
4120.535	58.8
4122.954	-66.2
4125.37	-42.2
4127.785	85.8
4130.198	99.8
4132.609	86.8
4135.019	-1464.2
4137.427	-1436.2
4139.833	-1371.2
4142.237	-1184.2
