Data from 2018-2-8_conc=3_RamanShift_15.txt Node
Date: Wed Feb 07 10:20:10 IST 2018
User: aro
Spectrometer: QEPB0276
Trigger mode: 0
Integration Time (sec): 3.000000E1
Scans to average: 1
Electric dark correction enabled: true
Nonlinearity correction enabled: false
Boxcar width: 0
XAxis mode: Raman Shifts
Number of Pixels in Spectrum: 1044
>>>>>Begin Spectral Data<<<<<
160.701	391.5
166.742	540.5
172.777	995.5
178.805	2550.5
184.826	5859.5
190.841	11593.5
196.849	18537.5
202.85	23765.5
208.845	25700.5
214.833	25528.5
220.815	25292.5
226.789	24926.5
232.758	24937.5
238.719	24869.5
244.674	24688.5
250.623	24347.5
256.565	23897.5
262.5	23469.5
268.429	22860.5
274.351	22676.5
280.267	22555.5
286.176	21977.5
292.079	21700.5
297.975	21416.5
303.865	21314.5
309.748	21121.5
315.625	20976.5
321.495	20632.5
327.359	20640.5
333.217	20641.5
339.068	20594.5
344.912	20543.5
350.751	20545.5
356.583	20522.5
362.408	20535.5
368.227	20478.5
374.04	20609.5
379.847	20677.5
385.647	20802.5
391.44	21014.5
397.228	21065.5
403.009	21220.5
408.784	21336.5
414.553	21465.5
420.315	21507.5
426.071	21524.5
431.821	21553.5
437.565	21512.5
443.302	21169.5
449.033	21251.5
454.758	21091.5
460.477	20978.5
466.189	20943.5
471.896	20802.5
477.596	20674.5
483.29	20811.5
488.978	20691.5
494.66	20677.5
500.335	20696.5
506.005	20619.5
511.668	20313.5
517.325	20162.5
522.977	20090.5
528.622	20009.5
534.261	19850.5
539.894	19802.5
545.521	19698.5
551.141	19657.5
556.756	19415.5
562.365	19268.5
567.968	19091.5
573.565	19103.5
579.155	18881.5
584.74	18856.5
590.319	18647.5
595.892	18683.5
601.459	18674.5
607.02	18657.5
612.575	18613.5
618.124	18501.5
623.667	18594.5
629.204	18616.5
634.735	18600.5
640.261	18466.5
645.781	18567.5
651.294	18377.5
656.802	18149.5
662.304	18092.5
667.8	17894.5
673.29	17823.5
678.775	17677.5
684.254	17715.5
689.726	17710.5
695.193	17565.5
700.655	17574.5
706.11	17742.5
711.56	17656.5
717.004	17669.5
722.442	17865.5
727.874	17650.5
733.301	17613.5
738.722	17725.5
744.137	17501.5
749.547	17348.5
754.951	17312.5
760.349	17108.5
765.741	17008.5
771.128	16986.5
776.509	17005.5
781.885	16942.5
787.254	16977.5
792.618	17084.5
797.977	17123.5
803.33	17145.5
808.677	17162.5
814.019	17159.5
819.355	17161.5
824.686	17136.5
830.011	17222.5
835.33	16995.5
840.644	16707.5
845.952	16699.5
851.255	16482.5
856.552	16492.5
861.844	16346.5
867.13	16291.5
872.41	16210.5
877.686	16164.5
882.955	16250.5
888.219	16266.5
893.478	16329.5
898.731	16269.5
903.979	16211.5
909.221	16219.5
914.458	16119.5
919.69	15873.5
924.916	15820.5
930.136	15640.5
935.351	15641.5
940.561	15274.5
945.766	15243.5
950.965	15089.5
956.158	15192.5
961.347	15183.5
966.529	15218.5
971.707	15227.5
976.879	15205.5
982.046	15200.5
987.208	15271.5
992.364	15076.5
997.515	15065.5
1002.66	14940.5
1007.801	15031.5
1012.936	14936.5
1018.066	15018.5
1023.19	14786.5
1028.309	14724.5
1033.423	14759.5
1038.532	14923.5
1043.636	15138.5
1048.734	15011.5
1053.827	15201.5
1058.915	15143.5
1063.998	14959.5
1069.075	14771.5
1074.147	14613.5
1079.214	14602.5
1084.276	14347.5
1089.333	14299.5
1094.385	14218.5
1099.431	14181.5
1104.472	14209.5
1109.509	14361.5
1114.54	14433.5
1119.565	14445.5
1124.586	14447.5
1129.602	14480.5
1134.613	14367.5
1139.618	14300.5
1144.619	14020.5
1149.614	13845.5
1154.604	13770.5
1159.589	13631.5
1164.57	13452.5
1169.545	13494.5
1174.515	13522.5
1179.48	13614.5
1184.44	13666.5
1189.395	13860.5
1194.345	13974.5
1199.29	13891.5
1204.23	14018.5
1209.165	13901.5
1214.095	13782.5
1219.021	13622.5
1223.941	13627.5
1228.856	13607.5
1233.766	13681.5
1238.672	13509.5
1243.572	13453.5
1248.467	13484.5
1253.358	13571.5
1258.244	13702.5
1263.124	13549.5
1268	13414.5
1272.871	13393.5
1277.737	13373.5
1282.599	13199.5
1287.455	12935.5
1292.306	12778.5
1297.153	12810.5
1301.995	12596.5
1306.832	12579.5
1311.664	12587.5
1316.491	12644.5
1321.314	12541.5
1326.132	12616.5
1330.945	12522.5
1335.753	12421.5
1340.556	12293.5
1345.354	12177.5
1350.148	11807.5
1354.937	11661.5
1359.722	11692.5
1364.501	11443.5
1369.276	11241.5
1374.046	11298.5
1378.811	11453.5
1383.572	11526.5
1388.327	11239.5
1393.079	11737.5
1397.825	11843.5
1402.567	11799.5
1407.304	11685.5
1412.036	11736.5
1416.764	11670.5
1421.487	11839.5
1426.205	11518.5
1430.919	11287.5
1435.628	11133.5
1440.333	11107.5
1445.032	10956.5
1449.727	11013.5
1454.418	11005.5
1459.104	10981.5
1463.785	10796.5
1468.462	10832.5
1473.134	10702.5
1477.802	10610.5
1482.465	10657.5
1487.123	10372.5
1491.777	10457.5
1496.426	10325.5
1501.071	10140.5
1505.711	10181.5
1510.347	10217.5
1514.978	10394.5
1519.604	10431.5
1524.226	10527.5
1528.844	10756.5
1533.457	10703.5
1538.065	10789.5
1542.669	10902.5
1547.269	10963.5
1551.864	10889.5
1556.454	10980.5
1561.041	10920.5
1565.622	10859.5
1570.199	10627.5
1574.772	10633.5
1579.34	10369.5
1583.904	10548.5
1588.464	10525.5
1593.019	10453.5
1597.569	10610.5
1602.115	10604.5
1606.657	10754.5
1611.195	10755.5
1615.728	10780.5
1620.256	10864.5
1624.78	10905.5
1629.3	10863.5
1633.816	10659.5
1638.327	10615.5
1642.834	10617.5
1647.336	10451.5
1651.834	10396.5
1656.328	10482.5
1660.817	10387.5
1665.302	10427.5
1669.783	10420.5
1674.259	10264.5
1678.732	10027.5
1683.199	9764.5
1687.663	9724.5
1692.122	9286.5
1696.577	9030.5
1701.028	9072.5
1705.474	8903.5
1709.917	8948.5
1714.355	8965.5
1718.788	8805.5
1723.218	8727.5
1727.643	8436.5
1732.064	8302.5
1736.481	8437.5
1740.893	8078.5
1745.301	8046.5
1749.705	8055.5
1754.105	7719.5
1758.501	7699.5
1762.893	7384.5
1767.28	7281.5
1771.663	7062.5
1776.042	6955.5
1780.417	6850.5
1784.787	6589.5
1789.154	6648.5
1793.516	6605.5
1797.874	6794.5
1802.228	6946.5
1806.578	7105.5
1810.924	7024.5
1815.266	8289.5
1819.603	7101.5
1823.937	7096.5
1828.266	7039.5
1832.591	6937.5
1836.913	6832.5
1841.23	6866.5
1845.543	6861.5
1849.852	6610.5
1854.156	6692.5
1858.457	6601.5
1862.754	6299.5
1867.047	6422.5
1871.335	6392.5
1875.62	6308.5
1879.9	6279.5
1884.177	6435.5
1888.449	6290.5
1892.718	6327.5
1896.982	6236.5
1901.243	6384.5
1905.499	6350.5
1909.752	6231.5
1914	6325.5
1918.245	6237.5
1922.485	6180.5
1926.722	6311.5
1930.954	6284.5
1935.183	6350.5
1939.408	6254.5
1943.628	6326.5
1947.845	6339.5
1952.058	6370.5
1956.267	6296.5
1960.472	6268.5
1964.673	6312.5
1968.87	6366.5
1973.063	6234.5
1977.252	6279.5
1981.438	6154.5
1985.619	6028.5
1989.797	5975.5
1993.971	5860.5
1998.14	5696.5
2002.306	5725.5
2006.469	5683.5
2010.627	5680.5
2014.781	5663.5
2018.932	5671.5
2023.078	5485.5
2027.221	5446.5
2031.36	5518.5
2035.495	5547.5
2039.627	5455.5
2043.754	5449.5
2047.878	5330.5
2051.998	5399.5
2056.114	5397.5
2060.226	5363.5
2064.334	5294.5
2068.439	5127.5
2072.54	5147.5
2076.637	5365.5
2080.73	5228.5
2084.82	5246.5
2088.906	5231.5
2092.988	5302.5
2097.066	5359.5
2101.14	5253.5
2105.211	5341.5
2109.278	5242.5
2113.342	5364.5
2117.401	5456.5
2121.457	5295.5
2125.509	5257.5
2129.558	5144.5
2133.602	5205.5
2137.643	5101.5
2141.681	5039.5
2145.714	5060.5
2149.744	5016.5
2153.77	4952.5
2157.793	4920.5
2161.812	4988.5
2165.827	4912.5
2169.838	4791.5
2173.846	4790.5
2177.851	4699.5
2181.851	4628.5
2185.848	4658.5
2189.841	4584.5
2193.831	4628.5
2197.817	4420.5
2201.799	4445.5
2205.778	4457.5
2209.753	4427.5
2213.725	4477.5
2217.693	4361.5
2221.657	4382.5
2225.618	4292.5
2229.575	4288.5
2233.529	4214.5
2237.479	4280.5
2241.425	4238.5
2245.368	4325.5
2249.307	4219.5
2253.243	4213.5
2257.175	4214.5
2261.104	4108.5
2265.029	4057.5
2268.95	4022.5
2272.868	3935.5
2276.783	3920.5
2280.694	3748.5
2284.601	3756.5
2288.505	3799.5
2292.405	3629.5
2296.302	3678.5
2300.195	3557.5
2304.085	3696.5
2307.971	3590.5
2311.854	3620.5
2315.734	3483.5
2319.609	3562.5
2323.482	3618.5
2327.351	3551.5
2331.216	3492.5
2335.078	3462.5
2338.937	3463.5
2342.792	3471.5
2346.643	3373.5
2350.492	3420.5
2354.336	3368.5
2358.178	3380.5
2362.015	3314.5
2365.85	3478.5
2369.681	3472.5
2373.508	3341.5
2377.333	3347.5
2381.153	3422.5
2384.971	3439.5
2388.785	3388.5
2392.595	3447.5
2396.402	3459.5
2400.206	3453.5
2404.007	3448.5
2407.804	3362.5
2411.597	3234.5
2415.388	3321.5
2419.174	3254.5
2422.958	3247.5
2426.738	3180.5
2430.515	3076.5
2434.289	3206.5
2438.059	3176.5
2441.825	3199.5
2445.589	3018.5
2449.349	3167.5
2453.106	3074.5
2456.859	3019.5
2460.61	2984.5
2464.356	3056.5
2468.1	2987.5
2471.84	3044.5
2475.577	3056.5
2479.311	2953.5
2483.041	2880.5
2486.768	2745.5
2490.492	2677.5
2494.213	2890.5
2497.93	2818.5
2501.644	2910.5
2505.355	2911.5
2509.062	2860.5
2512.766	2817.5
2516.467	2879.5
2520.165	2847.5
2523.859	2851.5
2527.551	2664.5
2531.239	2801.5
2534.923	2795.5
2538.605	2869.5
2542.283	2775.5
2545.958	2769.5
2549.63	2690.5
2553.299	2680.5
2556.964	2684.5
2560.626	2740.5
2564.285	2608.5
2567.941	2710.5
2571.594	2735.5
2575.243	2554.5
2578.89	2722.5
2582.533	2690.5
2586.173	2646.5
2589.809	2591.5
2593.443	2823.5
2597.073	2637.5
2600.701	2494.5
2604.325	2560.5
2607.946	2544.5
2611.564	2528.5
2615.178	2465.5
2618.79	2410.5
2622.398	2512.5
2626.004	2471.5
2629.606	2402.5
2633.205	2590.5
2636.801	2370.5
2640.394	2335.5
2643.983	2378.5
2647.57	2380.5
2651.153	2302.5
2654.734	2234.5
2658.311	2442.5
2661.885	2288.5
2665.456	2209.5
2669.025	2238.5
2672.589	2211.5
2676.151	2105.5
2679.71	2086.5
2683.266	2056.5
2686.819	2112.5
2690.368	1992.5
2693.915	2102.5
2697.458	2118.5
2700.999	1978.5
2704.536	1985.5
2708.071	1964.5
2711.602	1940.5
2715.13	1908.5
2718.656	1874.5
2722.178	1844.5
2725.697	1919.5
2729.214	1660.5
2732.727	1811.5
2736.237	1755.5
2739.744	1764.5
2743.249	1793.5
2746.75	1772.5
2750.248	1853.5
2753.743	1951.5
2757.236	1836.5
2760.725	1862.5
2764.211	2080.5
2767.695	1810.5
2771.175	1892.5
2774.652	1816.5
2778.127	1838.5
2781.598	1790.5
2785.067	1812.5
2788.532	1813.5
2791.995	1834.5
2795.455	1812.5
2798.911	1765.5
2802.365	1935.5
2805.816	1816.5
2809.264	1796.5
2812.709	1823.5
2816.151	1838.5
2819.59	1923.5
2823.026	1920.5
2826.46	1928.5
2829.89	1897.5
2833.318	2123.5
2836.742	1958.5
2840.164	1923.5
2843.583	1950.5
2846.999	1982.5
2850.412	1902.5
2853.822	2024.5
2857.229	1856.5
2860.634	1998.5
2864.035	2017.5
2867.434	1943.5
2870.83	1954.5
2874.223	2085.5
2877.613	2006.5
2881	2240.5
2884.385	2284.5
2887.766	2150.5
2891.145	2095.5
2894.521	2243.5
2897.894	2240.5
2901.264	1951.5
2904.631	2258.5
2907.996	2166.5
2911.358	2153.5
2914.717	2196.5
2918.073	2203.5
2921.426	2170.5
2924.777	2322.5
2928.124	2288.5
2931.469	2198.5
2934.811	2488.5
2938.15	2291.5
2941.487	2345.5
2944.821	2319.5
2948.152	2346.5
2951.48	2421.5
2954.805	2343.5
2958.128	2281.5
2961.447	2390.5
2964.765	2236.5
2968.079	2439.5
2971.39	2391.5
2974.699	2429.5
2978.005	2345.5
2981.308	2434.5
2984.609	2534.5
2987.907	2453.5
2991.202	2525.5
2994.494	2633.5
2997.784	2273.5
3001.07	2560.5
3004.355	2622.5
3007.636	2662.5
3010.915	2730.5
3014.191	2763.5
3017.464	2809.5
3020.734	2717.5
3024.002	2831.5
3027.267	2905.5
3030.53	2908.5
3033.789	2950.5
3037.046	3067.5
3040.301	3036.5
3043.552	3133.5
3046.801	3160.5
3050.048	3084.5
3053.291	3046.5
3056.532	3285.5
3059.771	3472.5
3063.006	3325.5
3066.239	3397.5
3069.469	3548.5
3072.697	3735.5
3075.922	3755.5
3079.144	3782.5
3082.364	3881.5
3085.581	4091.5
3088.795	3931.5
3092.007	4170.5
3095.216	4343.5
3098.423	4574.5
3101.627	4658.5
3104.828	4707.5
3108.026	4795.5
3111.222	4875.5
3114.416	4922.5
3117.607	5044.5
3120.795	5096.5
3123.98	5282.5
3127.163	5393.5
3130.344	5433.5
3133.521	5452.5
3136.696	5658.5
3139.869	5701.5
3143.039	5780.5
3146.206	5744.5
3149.371	5979.5
3152.533	6075.5
3155.693	6240.5
3158.85	6302.5
3162.005	6273.5
3165.157	6392.5
3168.306	6563.5
3171.453	6340.5
3174.597	6594.5
3177.739	6595.5
3180.878	6458.5
3184.014	6530.5
3187.149	6514.5
3190.28	6407.5
3193.409	6433.5
3196.536	6459.5
3199.659	6453.5
3202.781	6412.5
3205.9	6530.5
3209.016	6460.5
3212.13	6465.5
3215.241	6373.5
3218.35	6456.5
3221.456	6511.5
3224.56	6625.5
3227.661	6513.5
3230.76	6635.5
3233.856	6604.5
3236.95	6535.5
3240.041	6605.5
3243.13	6385.5
3246.216	6480.5
3249.3	6250.5
3252.382	6316.5
3255.46	6381.5
3258.537	5550.5
3261.611	6253.5
3264.682	6174.5
3267.751	6077.5
3270.818	6190.5
3273.882	5994.5
3276.943	5904.5
3280.002	5879.5
3283.059	5914.5
3286.113	5899.5
3289.165	5921.5
3292.214	5813.5
3295.261	5700.5
3298.306	5826.5
3301.348	5649.5
3304.387	5576.5
3307.425	5509.5
3310.459	5499.5
3313.492	5271.5
3316.521	5294.5
3319.549	5152.5
3322.574	5138.5
3325.597	4985.5
3328.617	5005.5
3331.635	4766.5
3334.65	4957.5
3337.663	4889.5
3340.674	4886.5
3343.682	4737.5
3346.688	4756.5
3349.691	4745.5
3352.692	4860.5
3355.691	4658.5
3358.687	4695.5
3361.681	4652.5
3364.673	4677.5
3367.662	4619.5
3370.649	4657.5
3373.633	4623.5
3376.615	4602.5
3379.595	4736.5
3382.572	4591.5
3385.547	4401.5
3388.52	4485.5
3391.49	4414.5
3394.458	4364.5
3397.424	4242.5
3400.387	4282.5
3403.348	3960.5
3406.307	4025.5
3409.263	4065.5
3412.217	3879.5
3415.168	3885.5
3418.118	3857.5
3421.065	3777.5
3424.009	3715.5
3426.951	3762.5
3429.891	3487.5
3432.829	3659.5
3435.764	3609.5
3438.697	3647.5
3441.628	3419.5
3444.557	3375.5
3447.483	3480.5
3450.407	3223.5
3453.328	3090.5
3456.247	3247.5
3459.164	3182.5
3462.079	3026.5
3464.991	2967.5
3467.902	2982.5
3470.809	2841.5
3473.715	2741.5
3476.618	2656.5
3479.519	2591.5
3482.418	2614.5
3485.315	2459.5
3488.209	2382.5
3491.101	2387.5
3493.99	2350.5
3496.878	1995.5
3499.763	2128.5
3502.646	2031.5
3505.527	2122.5
3508.405	1973.5
3511.281	1929.5
3514.155	1975.5
3517.027	1857.5
3519.897	2041.5
3522.764	1708.5
3525.629	1767.5
3528.492	1629.5
3531.352	1523.5
3534.211	1508.5
3537.067	1581.5
3539.921	1436.5
3542.773	1397.5
3545.622	1307.5
3548.469	1431.5
3551.315	1279.5
3554.157	1241.5
3556.998	1178.5
3559.837	1050.5
3562.673	937.5
3565.507	1046.5
3568.339	912.5
3571.169	1016.5
3573.996	911.5
3576.822	937.5
3579.645	1086.5
3582.466	850.5
3585.285	806.5
3588.101	763.5
3590.916	816.5
3593.728	755.5
3596.538	748.5
3599.346	632.5
3602.152	810.5
3604.956	615.5
3607.757	552.5
3610.556	696.5
3613.354	568.5
3616.149	539.5
3618.942	535.5
3621.732	359.5
3624.521	619.5
3627.307	419.5
3630.092	459.5
3632.874	318.5
3635.654	416.5
3638.432	522.5
3641.208	359.5
3643.982	413.5
3646.753	321.5
3649.523	431.5
3652.29	376.5
3655.055	383.5
3657.818	243.5
3660.579	362.5
3663.338	411.5
3666.095	156.5
3668.849	377.5
3671.602	246.5
3674.352	345.5
3677.101	192.5
3679.847	134.5
3682.591	257.5
3685.333	262.5
3688.073	189.5
3690.811	228.5
3693.547	213.5
3696.281	217.5
3699.013	103.5
3701.742	126.5
3704.47	235.5
3707.195	121.5
3709.919	75.5
3712.64	91.5
3715.359	-39.5
3718.076	-74.5
3720.792	102.5
3723.505	96.5
3726.216	19.5
3728.925	103.5
3731.632	-86.5
3734.336	139.5
3737.039	57.5
3739.74	70.5
3742.439	280.5
3745.136	87.5
3747.83	-6.5
3750.523	62.5
3753.213	-71.5
3755.902	47.5
3758.589	147.5
3761.273	112.5
3763.956	-46.5
3766.636	72.5
3769.315	-96.5
3771.991	136.5
3774.665	-17.5
3777.338	146.5
3780.008	90.5
3782.677	-3.5
3785.343	64.5
3788.007	145.5
3790.67	12.5
3793.33	-5.5
3795.989	70.5
3798.645	-21.5
3801.299	127.5
3803.952	-24.5
3806.602	-25.5
3809.251	35.5
3811.897	-26.5
3814.542	4.5
3817.184	38.5
3819.825	85.5
3822.463	-65.5
3825.1	41.5
3827.735	9.5
3830.367	-11.5
3832.998	-127.5
3835.627	-86.5
3838.253	7.5
3840.878	-32.5
3843.501	-101.5
3846.122	-66.5
3848.741	-103.5
3851.358	-35.5
3853.973	108.5
3856.586	-28.5
3859.197	-59.5
3861.806	-60.5
3864.414	22.5
3867.019	-49.5
3869.622	-81.5
3872.224	-146.5
3874.823	43.5
3877.421	53.5
3880.016	54.5
3882.61	166.5
3885.202	152.5
3887.792	124.5
3890.38	-16.5
3892.966	29.5
3895.55	-56.5
3898.132	-13.5
3900.713	-76.5
3903.291	-54.5
3905.868	-72.5
3908.442	-75.5
3911.015	-82.5
3913.586	3.5
3916.155	-44.5
3918.722	-4.5
3921.287	-11.5
3923.85	-139.5
3926.411	-77.5
3928.971	-107.5
3931.528	-12.5
3934.084	-24.5
3936.638	-14.5
3939.19	-140.5
3941.74	-11.5
3944.288	-100.5
3946.834	-15.5
3949.378	-81.5
3951.921	91.5
3954.462	1.5
3957	-67.5
3959.537	20.5
3962.072	5.5
3964.606	89.5
3967.137	-43.5
3969.667	-15.5
3972.194	-42.5
3974.72	-23.5
3977.244	0.5
3979.766	-0.5
3982.286	46.5
3984.805	-86.5
3987.321	-121.5
3989.836	-39.5
3992.349	2.5
3994.86	-42.5
3997.369	-70.5
3999.877	-65.5
4002.382	-29.5
4004.886	-82.5
4007.388	74.5
4009.888	93.5
4012.386	-37.5
4014.883	-61.5
4017.377	-41.5
4019.87	-145.5
4022.361	-6.5
4024.85	-14.5
4027.338	67.5
4029.823	-63.5
4032.307	-61.5
4034.789	7.5
4037.269	32.5
4039.747	26.5
4042.224	-56.5
4044.699	30.5
4047.172	-53.5
4049.643	-91.5
4052.112	44.5
4054.58	-39.5
4057.046	16.5
4059.51	81.5
4061.972	-30.5
4064.432	50.5
4066.891	-134.5
4069.348	-7.5
4071.803	-93.5
4074.256	-87.5
4076.708	66.5
4079.158	-66.5
4081.606	-110.5
4084.052	7.5
4086.497	-115.5
4088.939	31.5
4091.38	-7.5
4093.819	-56.5
4096.257	-1083.5
4098.693	-1178.5
4101.127	-1161.5
4103.559	-1165.5
4105.989	121.5
4108.418	115.5
4110.845	374.5
4113.27	235.5
4115.694	315.5
4118.115	379.5
4120.535	-96.5
4122.954	-132.5
4125.37	-171.5
4127.785	-47.5
4130.198	-20.5
4132.609	-55.5
4135.019	-1187.5
4137.427	-1179.5
4139.833	-1105.5
4142.237	-1005.5
