Data from 2018-2-8_conc=0_RamanShift_15.txt Node
Date: Wed Feb 07 09:33:10 IST 2018
User: aro
Spectrometer: QEPB0276
Trigger mode: 0
Integration Time (sec): 3.000000E1
Scans to average: 1
Electric dark correction enabled: true
Nonlinearity correction enabled: false
Boxcar width: 0
XAxis mode: Raman Shifts
Number of Pixels in Spectrum: 1044
>>>>>Begin Spectral Data<<<<<
160.701	268.9
166.742	478.9
172.777	872.9
178.805	2431.9
184.826	6065.9
190.841	12228.9
196.849	19481.9
202.85	24829.9
208.845	26783.9
214.833	26607.9
220.815	26120.9
226.789	26044.9
232.758	25962.9
238.719	25859.9
244.674	25592.9
250.623	25190.9
256.565	24792.9
262.5	24243.9
268.429	23661.9
274.351	23469.9
280.267	23267.9
286.176	22730.9
292.079	22482.9
297.975	22178.9
303.865	22001.9
309.748	21719.9
315.625	21568.9
321.495	21230.9
327.359	21201.9
333.217	21260.9
339.068	21214.9
344.912	21183.9
350.751	21161.9
356.583	21144.9
362.408	21108.9
368.227	21200.9
374.04	21315.9
379.847	21342.9
385.647	21407.9
391.44	21615.9
397.228	21634.9
403.009	21883.9
408.784	21912.9
414.553	22114.9
420.315	22298.9
426.071	22229.9
431.821	22155.9
437.565	22100.9
443.302	21909.9
449.033	21923.9
454.758	21863.9
460.477	21650.9
466.189	21552.9
471.896	21487.9
477.596	21337.9
483.29	21454.9
488.978	21401.9
494.66	21409.9
500.335	21385.9
506.005	21241.9
511.668	20992.9
517.325	20952.9
522.977	20800.9
528.622	20685.9
534.261	20502.9
539.894	20431.9
545.521	20395.9
551.141	20350.9
556.756	20072.9
562.365	19954.9
567.968	19819.9
573.565	19710.9
579.155	19600.9
584.74	19455.9
590.319	19389.9
595.892	19354.9
601.459	19326.9
607.02	19276.9
612.575	19322.9
618.124	19241.9
623.667	19294.9
629.204	19205.9
634.735	19234.9
640.261	19157.9
645.781	19268.9
651.294	18991.9
656.802	18824.9
662.304	18689.9
667.8	18473.9
673.29	18478.9
678.775	18317.9
684.254	18325.9
689.726	18365.9
695.193	18208.9
700.655	18195.9
706.11	18354.9
711.56	18235.9
717.004	18253.9
722.442	18382.9
727.874	18339.9
733.301	18290.9
738.722	18226.9
744.137	18117.9
749.547	18027.9
754.951	17910.9
760.349	17733.9
765.741	17618.9
771.128	17677.9
776.509	17568.9
781.885	17597.9
787.254	17499.9
792.618	17630.9
797.977	17811.9
803.33	17706.9
808.677	17813.9
814.019	17724.9
819.355	17700.9
824.686	17727.9
830.011	17802.9
835.33	17507.9
840.644	17338.9
845.952	17282.9
851.255	17028.9
856.552	16995.9
861.844	16892.9
867.13	16871.9
872.41	16846.9
877.686	16707.9
882.955	16786.9
888.219	16884.9
893.478	17057.9
898.731	16865.9
903.979	16831.9
909.221	16871.9
914.458	16688.9
919.69	16575.9
924.916	16369.9
930.136	16180.9
935.351	16091.9
940.561	15801.9
945.766	15715.9
950.965	15668.9
956.158	15714.9
961.347	15690.9
966.529	15774.9
971.707	15722.9
976.879	15744.9
982.046	15780.9
987.208	15775.9
992.364	15671.9
997.515	15581.9
1002.66	15513.9
1007.801	15517.9
1012.936	15551.9
1018.066	15454.9
1023.19	15225.9
1028.309	15252.9
1033.423	15368.9
1038.532	15412.9
1043.636	15570.9
1048.734	15570.9
1053.827	15648.9
1058.915	15596.9
1063.998	15473.9
1069.075	15383.9
1074.147	15206.9
1079.214	15081.9
1084.276	14815.9
1089.333	14793.9
1094.385	14762.9
1099.431	14796.9
1104.472	14731.9
1109.509	14888.9
1114.54	14954.9
1119.565	14989.9
1124.586	15026.9
1129.602	14946.9
1134.613	14870.9
1139.618	14709.9
1144.619	14576.9
1149.614	14378.9
1154.604	14201.9
1159.589	14140.9
1164.57	13960.9
1169.545	13916.9
1174.515	14014.9
1179.48	14072.9
1184.44	14191.9
1189.395	14377.9
1194.345	14389.9
1199.29	14417.9
1204.23	14494.9
1209.165	14412.9
1214.095	14352.9
1219.021	14220.9
1223.941	14196.9
1228.856	14145.9
1233.766	14054.9
1238.672	13947.9
1243.572	14018.9
1248.467	13939.9
1253.358	14150.9
1258.244	14052.9
1263.124	14006.9
1268	13927.9
1272.871	13793.9
1277.737	13902.9
1282.599	13628.9
1287.455	13403.9
1292.306	13218.9
1297.153	13207.9
1301.995	12986.9
1306.832	13031.9
1311.664	13006.9
1316.491	13162.9
1321.314	13067.9
1326.132	13105.9
1330.945	13032.9
1335.753	12929.9
1340.556	12762.9
1345.354	12604.9
1350.148	12294.9
1354.937	12111.9
1359.722	12037.9
1364.501	11784.9
1369.276	11758.9
1374.046	11671.9
1378.811	11805.9
1383.572	11900.9
1388.327	11641.9
1393.079	12082.9
1397.825	12184.9
1402.567	12152.9
1407.304	12123.9
1412.036	12139.9
1416.764	12081.9
1421.487	12228.9
1426.205	11934.9
1430.919	11691.9
1435.628	11564.9
1440.333	11505.9
1445.032	11367.9
1449.727	11387.9
1454.418	11403.9
1459.104	11319.9
1463.785	11102.9
1468.462	11287.9
1473.134	11177.9
1477.802	10982.9
1482.465	10981.9
1487.123	10694.9
1491.777	10791.9
1496.426	10644.9
1501.071	10432.9
1505.711	10486.9
1510.347	10542.9
1514.978	10652.9
1519.604	10736.9
1524.226	10857.9
1528.844	11127.9
1533.457	11077.9
1538.065	11122.9
1542.669	11201.9
1547.269	11298.9
1551.864	11262.9
1556.454	11286.9
1561.041	11214.9
1565.622	11217.9
1570.199	10879.9
1574.772	10964.9
1579.34	10723.9
1583.904	10905.9
1588.464	10903.9
1593.019	10852.9
1597.569	10914.9
1602.115	11047.9
1606.657	11068.9
1611.195	11128.9
1615.728	11152.9
1620.256	11220.9
1624.78	11214.9
1629.3	11225.9
1633.816	10980.9
1638.327	10946.9
1642.834	10907.9
1647.336	10919.9
1651.834	10736.9
1656.328	10842.9
1660.817	10815.9
1665.302	10803.9
1669.783	10787.9
1674.259	10514.9
1678.732	10386.9
1683.199	10100.9
1687.663	9992.9
1692.122	9581.9
1696.577	9348.9
1701.028	9328.9
1705.474	9151.9
1709.917	9082.9
1714.355	9145.9
1718.788	9030.9
1723.218	8927.9
1727.643	8647.9
1732.064	8651.9
1736.481	8564.9
1740.893	8352.9
1745.301	8259.9
1749.705	8276.9
1754.105	7914.9
1758.501	7856.9
1762.893	7541.9
1767.28	7417.9
1771.663	7206.9
1776.042	7123.9
1780.417	6984.9
1784.787	6822.9
1789.154	6795.9
1793.516	6749.9
1797.874	6913.9
1802.228	7016.9
1806.578	7235.9
1810.924	7155.9
1815.266	7783.9
1819.603	7243.9
1823.937	7194.9
1828.266	7196.9
1832.591	7127.9
1836.913	7010.9
1841.23	7003.9
1845.543	6974.9
1849.852	6814.9
1854.156	6794.9
1858.457	6724.9
1862.754	6768.9
1867.047	6675.9
1871.335	6512.9
1875.62	6556.9
1879.9	6554.9
1884.177	6547.9
1888.449	6568.9
1892.718	6462.9
1896.982	6419.9
1901.243	6512.9
1905.499	6414.9
1909.752	6398.9
1914	6423.9
1918.245	6354.9
1922.485	6296.9
1926.722	6375.9
1930.954	6338.9
1935.183	6306.9
1939.408	6359.9
1943.628	6433.9
1947.845	6414.9
1952.058	6468.9
1956.267	6449.9
1960.472	6417.9
1964.673	6487.9
1968.87	6444.9
1973.063	6390.9
1977.252	6278.9
1981.438	6244.9
1985.619	6107.9
1989.797	6053.9
1993.971	5930.9
1998.14	5869.9
2002.306	5835.9
2006.469	5839.9
2010.627	5739.9
2014.781	5713.9
2018.932	5777.9
2023.078	5622.9
2027.221	5633.9
2031.36	5662.9
2035.495	5691.9
2039.627	5555.9
2043.754	5443.9
2047.878	5484.9
2051.998	5428.9
2056.114	5424.9
2060.226	5406.9
2064.334	5346.9
2068.439	5266.9
2072.54	5208.9
2076.637	5379.9
2080.73	5283.9
2084.82	5239.9
2088.906	5283.9
2092.988	5210.9
2097.066	5425.9
2101.14	5302.9
2105.211	5378.9
2109.278	5402.9
2113.342	5418.9
2117.401	5409.9
2121.457	5352.9
2125.509	5341.9
2129.558	5203.9
2133.602	5252.9
2137.643	5146.9
2141.681	5063.9
2145.714	5118.9
2149.744	5001.9
2153.77	5079.9
2157.793	4977.9
2161.812	5012.9
2165.827	4965.9
2169.838	4805.9
2173.846	4824.9
2177.851	4773.9
2181.851	4756.9
2185.848	4922.9
2189.841	4629.9
2193.831	4683.9
2197.817	4526.9
2201.799	4549.9
2205.778	4560.9
2209.753	4461.9
2213.725	4464.9
2217.693	4418.9
2221.657	4438.9
2225.618	4002.9
2229.575	4367.9
2233.529	4291.9
2237.479	4309.9
2241.425	4343.9
2245.368	4383.9
2249.307	4302.9
2253.243	4273.9
2257.175	4260.9
2261.104	4174.9
2265.029	4061.9
2268.95	4067.9
2272.868	3940.9
2276.783	3977.9
2280.694	3841.9
2284.601	3798.9
2288.505	3783.9
2292.405	3691.9
2296.302	3736.9
2300.195	3625.9
2304.085	3656.9
2307.971	3640.9
2311.854	3557.9
2315.734	3552.9
2319.609	3597.9
2323.482	3627.9
2327.351	3550.9
2331.216	3534.9
2335.078	3511.9
2338.937	3475.9
2342.792	3538.9
2346.643	3424.9
2350.492	3399.9
2354.336	3413.9
2358.178	3325.9
2362.015	3357.9
2365.85	3464.9
2369.681	3415.9
2373.508	3412.9
2377.333	3418.9
2381.153	3475.9
2384.971	3512.9
2388.785	3426.9
2392.595	3466.9
2396.402	3472.9
2400.206	3491.9
2404.007	3470.9
2407.804	3441.9
2411.597	3281.9
2415.388	3418.9
2419.174	3289.9
2422.958	3294.9
2426.738	3309.9
2430.515	3111.9
2434.289	3263.9
2438.059	3192.9
2441.825	3179.9
2445.589	3017.9
2449.349	3182.9
2453.106	3047.9
2456.859	3033.9
2460.61	3102.9
2464.356	3038.9
2468.1	2986.9
2471.84	3038.9
2475.577	2960.9
2479.311	2964.9
2483.041	2952.9
2486.768	2829.9
2490.492	2722.9
2494.213	2871.9
2497.93	2901.9
2501.644	2926.9
2505.355	2870.9
2509.062	2745.9
2512.766	2819.9
2516.467	2876.9
2520.165	2888.9
2523.859	2854.9
2527.551	2636.9
2531.239	2796.9
2534.923	2721.9
2538.605	2817.9
2542.283	2762.9
2545.958	2726.9
2549.63	2622.9
2553.299	2651.9
2556.964	2665.9
2560.626	2685.9
2564.285	2583.9
2567.941	2676.9
2571.594	2679.9
2575.243	2622.9
2578.89	2676.9
2582.533	2657.9
2586.173	2574.9
2589.809	2576.9
2593.443	2706.9
2597.073	2623.9
2600.701	2500.9
2604.325	2564.9
2607.946	2507.9
2611.564	2487.9
2615.178	2432.9
2618.79	2429.9
2622.398	2465.9
2626.004	2532.9
2629.606	2363.9
2633.205	2595.9
2636.801	2400.9
2640.394	2392.9
2643.983	2324.9
2647.57	2406.9
2651.153	2304.9
2654.734	2197.9
2658.311	2333.9
2661.885	2255.9
2665.456	2227.9
2669.025	2226.9
2672.589	2168.9
2676.151	2134.9
2679.71	2073.9
2683.266	2049.9
2686.819	2089.9
2690.368	2025.9
2693.915	2010.9
2697.458	2089.9
2700.999	1946.9
2704.536	1938.9
2708.071	1950.9
2711.602	1931.9
2715.13	1871.9
2718.656	1903.9
2722.178	1777.9
2725.697	1796.9
2729.214	1558.9
2732.727	1671.9
2736.237	1819.9
2739.744	1713.9
2743.249	1808.9
2746.75	1751.9
2750.248	1765.9
2753.743	1803.9
2757.236	1749.9
2760.725	1804.9
2764.211	1918.9
2767.695	1780.9
2771.175	1810.9
2774.652	1798.9
2778.127	1845.9
2781.598	1782.9
2785.067	1795.9
2788.532	1805.9
2791.995	1839.9
2795.455	1748.9
2798.911	1713.9
2802.365	1842.9
2805.816	1769.9
2809.264	1744.9
2812.709	1799.9
2816.151	1787.9
2819.59	1845.9
2823.026	1860.9
2826.46	1889.9
2829.89	1849.9
2833.318	1980.9
2836.742	1931.9
2840.164	1851.9
2843.583	1885.9
2846.999	1954.9
2850.412	1875.9
2853.822	1875.9
2857.229	1877.9
2860.634	1887.9
2864.035	1965.9
2867.434	1900.9
2870.83	1867.9
2874.223	2034.9
2877.613	1951.9
2881	2153.9
2884.385	2165.9
2887.766	2132.9
2891.145	2273.9
2894.521	2187.9
2897.894	2253.9
2901.264	1947.9
2904.631	2159.9
2907.996	2128.9
2911.358	2165.9
2914.717	2149.9
2918.073	2188.9
2921.426	2179.9
2924.777	2253.9
2928.124	2279.9
2931.469	2265.9
2934.811	2384.9
2938.15	2320.9
2941.487	2398.9
2944.821	2278.9
2948.152	2400.9
2951.48	2193.9
2954.805	2341.9
2958.128	2304.9
2961.447	2359.9
2964.765	2272.9
2968.079	2432.9
2971.39	2343.9
2974.699	2381.9
2978.005	2381.9
2981.308	2460.9
2984.609	2535.9
2987.907	2458.9
2991.202	2592.9
2994.494	2536.9
2997.784	2548.9
3001.07	2564.9
3004.355	2623.9
3007.636	2685.9
3010.915	2748.9
3014.191	2810.9
3017.464	2774.9
3020.734	2817.9
3024.002	2915.9
3027.267	2893.9
3030.53	2983.9
3033.789	2976.9
3037.046	3088.9
3040.301	3107.9
3043.552	3131.9
3046.801	3237.9
3050.048	3127.9
3053.291	3183.9
3056.532	3366.9
3059.771	3454.9
3063.006	3433.9
3066.239	3537.9
3069.469	3639.9
3072.697	3816.9
3075.922	3854.9
3079.144	3942.9
3082.364	3981.9
3085.581	4258.9
3088.795	4213.9
3092.007	4301.9
3095.216	4486.9
3098.423	4718.9
3101.627	4830.9
3104.828	4867.9
3108.026	4981.9
3111.222	5047.9
3114.416	5115.9
3117.607	5302.9
3120.795	5340.9
3123.98	5437.9
3127.163	5606.9
3130.344	5652.9
3133.521	5708.9
3136.696	5817.9
3139.869	5975.9
3143.039	6131.9
3146.206	6165.9
3149.371	6260.9
3152.533	6439.9
3155.693	6538.9
3158.85	6622.9
3162.005	6686.9
3165.157	6848.9
3168.306	6768.9
3171.453	6767.9
3174.597	6878.9
3177.739	6860.9
3180.878	6797.9
3184.014	6836.9
3187.149	6883.9
3190.28	6852.9
3193.409	6801.9
3196.536	6834.9
3199.659	6766.9
3202.781	6741.9
3205.9	6939.9
3209.016	6829.9
3212.13	6819.9
3215.241	6722.9
3218.35	6802.9
3221.456	6871.9
3224.56	6880.9
3227.661	6891.9
3230.76	6845.9
3233.856	6892.9
3236.95	6868.9
3240.041	6956.9
3243.13	6707.9
3246.216	6756.9
3249.3	6603.9
3252.382	6616.9
3255.46	6665.9
3258.537	5860.9
3261.611	6619.9
3264.682	6423.9
3267.751	6391.9
3270.818	6428.9
3273.882	6251.9
3276.943	6183.9
3280.002	6148.9
3283.059	6149.9
3286.113	6182.9
3289.165	6175.9
3292.214	6136.9
3295.261	5898.9
3298.306	5962.9
3301.348	5857.9
3304.387	5768.9
3307.425	5714.9
3310.459	5713.9
3313.492	5544.9
3316.521	5427.9
3319.549	5361.9
3322.574	5325.9
3325.597	5265.9
3328.617	5214.9
3331.635	5077.9
3334.65	5144.9
3337.663	5112.9
3340.674	5056.9
3343.682	4965.9
3346.688	4923.9
3349.691	4906.9
3352.692	4957.9
3355.691	4793.9
3358.687	4911.9
3361.681	4871.9
3364.673	4843.9
3367.662	4817.9
3370.649	4859.9
3373.633	4801.9
3376.615	4699.9
3379.595	4771.9
3382.572	4632.9
3385.547	4524.9
3388.52	4656.9
3391.49	4493.9
3394.458	4471.9
3397.424	4277.9
3400.387	4382.9
3403.348	4068.9
3406.307	4144.9
3409.263	4174.9
3412.217	4022.9
3415.168	3949.9
3418.118	3975.9
3421.065	3896.9
3424.009	3799.9
3426.951	3834.9
3429.891	3562.9
3432.829	3721.9
3435.764	3681.9
3438.697	3694.9
3441.628	3511.9
3444.557	3535.9
3447.483	3502.9
3450.407	3358.9
3453.328	3305.9
3456.247	3262.9
3459.164	3218.9
3462.079	3068.9
3464.991	3041.9
3467.902	2932.9
3470.809	2885.9
3473.715	2771.9
3476.618	2714.9
3479.519	2633.9
3482.418	2672.9
3485.315	2485.9
3488.209	2404.9
3491.101	2374.9
3493.99	2332.9
3496.878	2050.9
3499.763	2113.9
3502.646	2070.9
3505.527	2080.9
3508.405	1900.9
3511.281	1907.9
3514.155	1892.9
3517.027	1823.9
3519.897	1881.9
3522.764	1667.9
3525.629	1709.9
3528.492	1611.9
3531.352	1596.9
3534.211	1467.9
3537.067	1516.9
3539.921	1377.9
3542.773	1337.9
3545.622	1284.9
3548.469	1316.9
3551.315	1194.9
3554.157	1120.9
3556.998	1011.9
3559.837	961.9
3562.673	893.9
3565.507	981.9
3568.339	875.9
3571.169	878.9
3573.996	844.9
3576.822	804.9
3579.645	834.9
3582.466	747.9
3585.285	685.9
3588.101	635.9
3590.916	647.9
3593.728	599.9
3596.538	596.9
3599.346	552.9
3602.152	597.9
3604.956	548.9
3607.757	437.9
3610.556	582.9
3613.354	426.9
3616.149	441.9
3618.942	399.9
3621.732	190.9
3624.521	359.9
3627.307	312.9
3630.092	358.9
3632.874	278.9
3635.654	297.9
3638.432	326.9
3641.208	225.9
3643.982	252.9
3646.753	235.9
3649.523	230.9
3652.29	241.9
3655.055	290.9
3657.818	88.9
3660.579	233.9
3663.338	218.9
3666.095	69.9
3668.849	284.9
3671.602	47.9
3674.352	130.9
3677.101	89.9
3679.847	43.9
3682.591	91.9
3685.333	33.9
3688.073	-7.1
3690.811	78.9
3693.547	103.9
3696.281	44.9
3699.013	-46.1
3701.742	-16.1
3704.47	61.9
3707.195	-37.1
3709.919	-58.1
3712.64	-46.1
3715.359	-183.1
3718.076	-134.1
3720.792	-78.1
3723.505	-74.1
3726.216	-87.1
3728.925	-64.1
3731.632	-192.1
3734.336	9.9
3737.039	-96.1
3739.74	-90.1
3742.439	101.9
3745.136	-109.1
3747.83	-157.1
3750.523	-59.1
3753.213	-171.1
3755.902	-103.1
3758.589	-57.1
3761.273	-65.1
3763.956	-214.1
3766.636	-103.1
3769.315	-157.1
3771.991	-44.1
3774.665	-174.1
3777.338	-101.1
3780.008	-101.1
3782.677	-82.1
3785.343	-6.1
3788.007	-93.1
3790.67	-136.1
3793.33	-191.1
3795.989	-129.1
3798.645	-167.1
3801.299	-59.1
3803.952	-126.1
3806.602	-139.1
3809.251	-158.1
3811.897	-138.1
3814.542	-132.1
3817.184	-144.1
3819.825	-73.1
3822.463	-92.1
3825.1	-152.1
3827.735	-140.1
3830.367	-131.1
3832.998	-215.1
3835.627	-221.1
3838.253	-224.1
3840.878	-138.1
3843.501	-267.1
3846.122	-191.1
3848.741	-195.1
3851.358	-170.1
3853.973	-101.1
3856.586	-156.1
3859.197	-227.1
3861.806	-229.1
3864.414	-15.1
3867.019	-184.1
3869.622	-245.1
3872.224	-240.1
3874.823	-140.1
3877.421	-101.1
3880.016	-122.1
3882.61	-28.1
3885.202	-65.1
3887.792	-60.1
3890.38	-168.1
3892.966	-98.1
3895.55	-190.1
3898.132	-231.1
3900.713	-240.1
3903.291	-182.1
3905.868	-180.1
3908.442	-148.1
3911.015	-174.1
3913.586	-185.1
3916.155	-178.1
3918.722	-152.1
3921.287	-186.1
3923.85	-118.1
3926.411	-251.1
3928.971	-265.1
3931.528	-234.1
3934.084	-257.1
3936.638	-160.1
3939.19	-184.1
3941.74	-230.1
3944.288	-205.1
3946.834	-252.1
3949.378	-214.1
3951.921	-138.1
3954.462	-176.1
3957	-220.1
3959.537	-155.1
3962.072	-164.1
3964.606	-88.1
3967.137	-202.1
3969.667	-205.1
3972.194	-191.1
3974.72	-182.1
3977.244	-155.1
3979.766	-137.1
3982.286	-94.1
3984.805	-248.1
3987.321	-216.1
3989.836	-194.1
3992.349	-153.1
3994.86	-207.1
3997.369	-185.1
3999.877	-229.1
4002.382	-199.1
4004.886	-209.1
4007.388	-204.1
4009.888	-56.1
4012.386	-276.1
4014.883	-157.1
4017.377	-178.1
4019.87	-310.1
4022.361	-166.1
4024.85	-145.1
4027.338	-75.1
4029.823	-201.1
4032.307	-239.1
4034.789	-152.1
4037.269	-110.1
4039.747	-117.1
4042.224	-223.1
4044.699	-173.1
4047.172	-185.1
4049.643	-282.1
4052.112	-127.1
4054.58	-188.1
4057.046	-166.1
4059.51	-120.1
4061.972	-224.1
4064.432	-85.1
4066.891	-238.1
4069.348	-122.1
4071.803	-231.1
4074.256	-217.1
4076.708	-160.1
4079.158	-166.1
4081.606	-278.1
4084.052	-160.1
4086.497	-187.1
4088.939	-97.1
4091.38	-142.1
4093.819	-219.1
4096.257	-1003.1
4098.693	-1003.1
4101.127	-1028.1
4103.559	-1052.1
4105.989	176.9
4108.418	-1.1
4110.845	174.9
4113.27	107.9
4115.694	171.9
4118.115	209.9
4120.535	-258.1
4122.954	-327.1
4125.37	-278.1
4127.785	-211.1
4130.198	-246.1
4132.609	-248.1
4135.019	-1065.1
4137.427	-1071.1
4139.833	-1020.1
4142.237	-896.1
