Data from 2018-2-8_conc=2_RamanShift_09.txt Node
Date: Wed Feb 07 09:55:10 IST 2018
User: aro
Spectrometer: QEPB0276
Trigger mode: 0
Integration Time (sec): 3.000000E1
Scans to average: 1
Electric dark correction enabled: true
Nonlinearity correction enabled: false
Boxcar width: 0
XAxis mode: Raman Shifts
Number of Pixels in Spectrum: 1044
>>>>>Begin Spectral Data<<<<<
160.701	711.2
166.742	709.2
172.777	826.2
178.805	1482.2
184.826	2465.2
190.841	4192.2
196.849	6396.2
202.85	7964.2
208.845	8694.2
214.833	8523.2
220.815	8573.2
226.789	8562.2
232.758	8516.2
238.719	8553.2
244.674	8658.2
250.623	8471.2
256.565	8473.2
262.5	8336.2
268.429	8165.2
274.351	8180.2
280.267	8264.2
286.176	7974.2
292.079	7919.2
297.975	7845.2
303.865	7798.2
309.748	7786.2
315.625	7822.2
321.495	7542.2
327.359	7670.2
333.217	7773.2
339.068	7757.2
344.912	7743.2
350.751	7791.2
356.583	7806.2
362.408	7736.2
368.227	7727.2
374.04	7827.2
379.847	7824.2
385.647	7806.2
391.44	8020.2
397.228	7945.2
403.009	8046.2
408.784	8030.2
414.553	8068.2
420.315	8131.2
426.071	8300.2
431.821	8210.2
437.565	8152.2
443.302	7981.2
449.033	8067.2
454.758	7911.2
460.477	7910.2
466.189	7921.2
471.896	7812.2
477.596	7730.2
483.29	7830.2
488.978	7867.2
494.66	7866.2
500.335	7810.2
506.005	7675.2
511.668	7483.2
517.325	7380.2
522.977	7184.2
528.622	7205.2
534.261	7113.2
539.894	7067.2
545.521	7023.2
551.141	7029.2
556.756	6920.2
562.365	6886.2
567.968	6856.2
573.565	6788.2
579.155	6616.2
584.74	6634.2
590.319	6530.2
595.892	6642.2
601.459	6565.2
607.02	6599.2
612.575	6626.2
618.124	6470.2
623.667	6618.2
629.204	6537.2
634.735	6572.2
640.261	6489.2
645.781	6761.2
651.294	6472.2
656.802	6418.2
662.304	6304.2
667.8	6168.2
673.29	6349.2
678.775	6195.2
684.254	6299.2
689.726	6318.2
695.193	6127.2
700.655	6174.2
706.11	6270.2
711.56	6144.2
717.004	6170.2
722.442	6178.2
727.874	6127.2
733.301	6164.2
738.722	6285.2
744.137	6138.2
749.547	6065.2
754.951	6132.2
760.349	6066.2
765.741	5958.2
771.128	5930.2
776.509	6044.2
781.885	5956.2
787.254	5974.2
792.618	6076.2
797.977	6134.2
803.33	6164.2
808.677	6126.2
814.019	6056.2
819.355	6098.2
824.686	6106.2
830.011	6152.2
835.33	5924.2
840.644	5835.2
845.952	5970.2
851.255	5790.2
856.552	5871.2
861.844	5664.2
867.13	5705.2
872.41	5693.2
877.686	5624.2
882.955	5627.2
888.219	5686.2
893.478	5717.2
898.731	5578.2
903.979	5509.2
909.221	5668.2
914.458	5740.2
919.69	5509.2
924.916	5634.2
930.136	5543.2
935.351	5564.2
940.561	5327.2
945.766	5302.2
950.965	5143.2
956.158	5334.2
961.347	5351.2
966.529	5349.2
971.707	5219.2
976.879	5284.2
982.046	5248.2
987.208	5341.2
992.364	5204.2
997.515	5274.2
1002.66	5179.2
1007.801	5282.2
1012.936	5205.2
1018.066	5333.2
1023.19	5149.2
1028.309	5124.2
1033.423	5179.2
1038.532	5144.2
1043.636	5295.2
1048.734	5278.2
1053.827	5361.2
1058.915	5378.2
1063.998	5240.2
1069.075	5168.2
1074.147	5074.2
1079.214	5210.2
1084.276	4912.2
1089.333	4946.2
1094.385	4996.2
1099.431	5034.2
1104.472	4879.2
1109.509	5029.2
1114.54	5010.2
1119.565	5022.2
1124.586	4963.2
1129.602	5070.2
1134.613	4999.2
1139.618	5028.2
1144.619	4884.2
1149.614	4793.2
1154.604	4813.2
1159.589	4842.2
1164.57	4635.2
1169.545	4634.2
1174.515	4677.2
1179.48	4749.2
1184.44	4688.2
1189.395	4770.2
1194.345	4844.2
1199.29	4816.2
1204.23	4944.2
1209.165	4812.2
1214.095	4762.2
1219.021	4637.2
1223.941	4726.2
1228.856	4792.2
1233.766	4776.2
1238.672	4637.2
1243.572	4580.2
1248.467	4636.2
1253.358	4734.2
1258.244	4756.2
1263.124	4612.2
1268	4568.2
1272.871	4638.2
1277.737	4686.2
1282.599	4525.2
1287.455	4481.2
1292.306	4416.2
1297.153	4559.2
1301.995	4434.2
1306.832	4375.2
1311.664	4322.2
1316.491	4459.2
1321.314	4347.2
1326.132	4441.2
1330.945	4368.2
1335.753	4425.2
1340.556	4327.2
1345.354	4344.2
1350.148	4208.2
1354.937	4208.2
1359.722	4240.2
1364.501	4000.2
1369.276	4045.2
1374.046	3853.2
1378.811	3915.2
1383.572	3961.2
1388.327	3662.2
1393.079	4099.2
1397.825	4093.2
1402.567	4023.2
1407.304	3994.2
1412.036	4036.2
1416.764	4023.2
1421.487	4245.2
1426.205	4043.2
1430.919	3994.2
1435.628	3996.2
1440.333	4026.2
1445.032	3946.2
1449.727	3963.2
1454.418	3935.2
1459.104	3940.2
1463.785	3797.2
1468.462	3874.2
1473.134	3859.2
1477.802	3876.2
1482.465	4062.2
1487.123	3756.2
1491.777	3994.2
1496.426	3866.2
1501.071	3635.2
1505.711	3614.2
1510.347	3594.2
1514.978	3691.2
1519.604	3603.2
1524.226	3563.2
1528.844	3815.2
1533.457	3631.2
1538.065	3732.2
1542.669	3683.2
1547.269	3732.2
1551.864	3663.2
1556.454	3839.2
1561.041	3783.2
1565.622	3866.2
1570.199	3665.2
1574.772	3701.2
1579.34	3452.2
1583.904	3615.2
1588.464	3665.2
1593.019	3621.2
1597.569	3709.2
1602.115	3708.2
1606.657	3708.2
1611.195	3650.2
1615.728	3657.2
1620.256	3853.2
1624.78	3888.2
1629.3	3856.2
1633.816	3680.2
1638.327	3739.2
1642.834	3747.2
1647.336	3766.2
1651.834	3633.2
1656.328	3748.2
1660.817	3691.2
1665.302	3790.2
1669.783	3778.2
1674.259	3688.2
1678.732	3610.2
1683.199	3511.2
1687.663	3630.2
1692.122	3431.2
1696.577	3354.2
1701.028	3336.2
1705.474	3274.2
1709.917	3203.2
1714.355	3208.2
1718.788	3114.2
1723.218	3128.2
1727.643	3008.2
1732.064	2925.2
1736.481	3070.2
1740.893	2960.2
1745.301	2887.2
1749.705	3126.2
1754.105	2714.2
1758.501	2899.2
1762.893	2732.2
1767.28	2793.2
1771.663	2704.2
1776.042	2739.2
1780.417	2710.2
1784.787	2522.2
1789.154	2549.2
1793.516	2430.2
1797.874	2578.2
1802.228	2587.2
1806.578	2759.2
1810.924	2490.2
1815.266	3767.2
1819.603	2606.2
1823.937	2635.2
1828.266	2559.2
1832.591	2595.2
1836.913	2550.2
1841.23	2651.2
1845.543	2619.2
1849.852	2489.2
1854.156	2586.2
1858.457	2571.2
1862.754	2627.2
1867.047	2542.2
1871.335	2407.2
1875.62	2352.2
1879.9	2421.2
1884.177	2553.2
1888.449	2425.2
1892.718	2440.2
1896.982	2385.2
1901.243	2578.2
1905.499	2440.2
1909.752	2421.2
1914	2509.2
1918.245	2364.2
1922.485	2389.2
1926.722	2469.2
1930.954	2459.2
1935.183	2370.2
1939.408	2414.2
1943.628	2420.2
1947.845	2337.2
1952.058	2421.2
1956.267	2340.2
1960.472	2260.2
1964.673	2407.2
1968.87	2423.2
1973.063	2420.2
1977.252	2342.2
1981.438	2344.2
1985.619	2247.2
1989.797	2271.2
1993.971	2240.2
1998.14	2097.2
2002.306	2289.2
2006.469	2154.2
2010.627	2184.2
2014.781	2201.2
2018.932	2273.2
2023.078	2028.2
2027.221	2155.2
2031.36	2144.2
2035.495	2173.2
2039.627	2139.2
2043.754	2086.2
2047.878	2043.2
2051.998	2078.2
2056.114	2098.2
2060.226	2144.2
2064.334	2058.2
2068.439	1983.2
2072.54	2012.2
2076.637	2214.2
2080.73	2086.2
2084.82	2087.2
2088.906	2052.2
2092.988	1951.2
2097.066	2076.2
2101.14	1919.2
2105.211	1990.2
2109.278	2078.2
2113.342	2010.2
2117.401	2094.2
2121.457	2081.2
2125.509	2072.2
2129.558	1914.2
2133.602	1982.2
2137.643	1972.2
2141.681	1942.2
2145.714	1954.2
2149.744	1830.2
2153.77	1966.2
2157.793	1931.2
2161.812	1967.2
2165.827	2052.2
2169.838	1776.2
2173.846	1892.2
2177.851	1789.2
2181.851	1786.2
2185.848	1821.2
2189.841	1738.2
2193.831	1893.2
2197.817	1685.2
2201.799	1695.2
2205.778	1809.2
2209.753	1846.2
2213.725	1832.2
2217.693	1751.2
2221.657	1786.2
2225.618	1685.2
2229.575	1667.2
2233.529	1643.2
2237.479	1743.2
2241.425	1691.2
2245.368	1797.2
2249.307	1698.2
2253.243	1637.2
2257.175	1707.2
2261.104	1664.2
2265.029	1568.2
2268.95	1632.2
2272.868	1547.2
2276.783	1661.2
2280.694	1414.2
2284.601	1490.2
2288.505	1521.2
2292.405	1405.2
2296.302	1579.2
2300.195	1470.2
2304.085	1594.2
2307.971	1485.2
2311.854	1503.2
2315.734	1422.2
2319.609	1488.2
2323.482	1615.2
2327.351	1462.2
2331.216	1451.2
2335.078	1422.2
2338.937	1546.2
2342.792	1520.2
2346.643	1430.2
2350.492	1407.2
2354.336	1479.2
2358.178	1426.2
2362.015	1432.2
2365.85	1519.2
2369.681	1473.2
2373.508	1437.2
2377.333	1395.2
2381.153	1433.2
2384.971	1476.2
2388.785	1420.2
2392.595	1497.2
2396.402	1563.2
2400.206	1542.2
2404.007	1561.2
2407.804	1457.2
2411.597	1355.2
2415.388	1495.2
2419.174	1425.2
2422.958	1438.2
2426.738	1359.2
2430.515	1268.2
2434.289	1478.2
2438.059	1492.2
2441.825	1438.2
2445.589	1270.2
2449.349	1437.2
2453.106	1332.2
2456.859	1385.2
2460.61	1249.2
2464.356	1276.2
2468.1	1376.2
2471.84	1375.2
2475.577	1368.2
2479.311	1319.2
2483.041	1315.2
2486.768	1198.2
2490.492	1090.2
2494.213	1498.2
2497.93	1357.2
2501.644	1358.2
2505.355	1373.2
2509.062	1313.2
2512.766	1362.2
2516.467	1368.2
2520.165	1336.2
2523.859	1410.2
2527.551	1150.2
2531.239	1283.2
2534.923	1313.2
2538.605	1387.2
2542.283	1275.2
2545.958	1297.2
2549.63	1160.2
2553.299	1229.2
2556.964	1271.2
2560.626	1342.2
2564.285	1184.2
2567.941	1302.2
2571.594	1356.2
2575.243	1111.2
2578.89	1299.2
2582.533	1290.2
2586.173	1217.2
2589.809	1182.2
2593.443	1424.2
2597.073	1272.2
2600.701	1118.2
2604.325	1249.2
2607.946	1211.2
2611.564	1192.2
2615.178	1073.2
2618.79	1120.2
2622.398	1282.2
2626.004	1131.2
2629.606	1074.2
2633.205	1309.2
2636.801	1174.2
2640.394	1121.2
2643.983	1155.2
2647.57	1158.2
2651.153	1105.2
2654.734	989.2
2658.311	1233.2
2661.885	1165.2
2665.456	1107.2
2669.025	1134.2
2672.589	1068.2
2676.151	941.2
2679.71	1002.2
2683.266	1009.2
2686.819	1039.2
2690.368	1008.2
2693.915	1042.2
2697.458	1211.2
2700.999	1002.2
2704.536	972.2
2708.071	1044.2
2711.602	1012.2
2715.13	1008.2
2718.656	1066.2
2722.178	963.2
2725.697	1055.2
2729.214	780.2
2732.727	952.2
2736.237	1132.2
2739.744	973.2
2743.249	1030.2
2746.75	1003.2
2750.248	1110.2
2753.743	1007.2
2757.236	985.2
2760.725	944.2
2764.211	1220.2
2767.695	934.2
2771.175	997.2
2774.652	965.2
2778.127	919.2
2781.598	984.2
2785.067	970.2
2788.532	979.2
2791.995	983.2
2795.455	998.2
2798.911	989.2
2802.365	1119.2
2805.816	972.2
2809.264	963.2
2812.709	1057.2
2816.151	998.2
2819.59	1063.2
2823.026	1106.2
2826.46	1081.2
2829.89	1032.2
2833.318	1301.2
2836.742	1025.2
2840.164	1012.2
2843.583	1111.2
2846.999	1077.2
2850.412	974.2
2853.822	1057.2
2857.229	917.2
2860.634	1039.2
2864.035	1069.2
2867.434	994.2
2870.83	1003.2
2874.223	1039.2
2877.613	882.2
2881	1128.2
2884.385	1175.2
2887.766	1053.2
2891.145	975.2
2894.521	1103.2
2897.894	1167.2
2901.264	849.2
2904.631	1117.2
2907.996	1058.2
2911.358	1052.2
2914.717	1075.2
2918.073	1100.2
2921.426	1041.2
2924.777	1157.2
2928.124	1176.2
2931.469	1032.2
2934.811	1278.2
2938.15	1093.2
2941.487	1148.2
2944.821	1028.2
2948.152	1233.2
2951.48	1169.2
2954.805	1095.2
2958.128	1015.2
2961.447	1155.2
2964.765	975.2
2968.079	1172.2
2971.39	1110.2
2974.699	1164.2
2978.005	1047.2
2981.308	1173.2
2984.609	1224.2
2987.907	1116.2
2991.202	1196.2
2994.494	1301.2
2997.784	810.2
3001.07	1065.2
3004.355	1147.2
3007.636	1171.2
3010.915	1258.2
3014.191	1253.2
3017.464	1185.2
3020.734	1145.2
3024.002	1202.2
3027.267	1291.2
3030.53	1248.2
3033.789	1242.2
3037.046	1400.2
3040.301	1257.2
3043.552	1368.2
3046.801	1410.2
3050.048	1182.2
3053.291	1123.2
3056.532	1347.2
3059.771	1448.2
3063.006	1367.2
3066.239	1315.2
3069.469	1443.2
3072.697	1568.2
3075.922	1523.2
3079.144	1488.2
3082.364	1454.2
3085.581	1600.2
3088.795	1466.2
3092.007	1502.2
3095.216	1613.2
3098.423	1753.2
3101.627	1863.2
3104.828	1799.2
3108.026	1864.2
3111.222	1761.2
3114.416	1681.2
3117.607	1970.2
3120.795	1830.2
3123.98	1878.2
3127.163	2002.2
3130.344	1951.2
3133.521	1988.2
3136.696	2052.2
3139.869	2029.2
3143.039	2070.2
3146.206	1964.2
3149.371	2021.2
3152.533	2078.2
3155.693	2191.2
3158.85	2138.2
3162.005	2172.2
3165.157	2180.2
3168.306	2141.2
3171.453	2117.2
3174.597	2339.2
3177.739	2312.2
3180.878	2164.2
3184.014	2163.2
3187.149	2237.2
3190.28	2193.2
3193.409	2175.2
3196.536	2205.2
3199.659	2083.2
3202.781	2142.2
3205.9	2279.2
3209.016	2198.2
3212.13	2197.2
3215.241	2102.2
3218.35	2138.2
3221.456	2337.2
3224.56	2325.2
3227.661	2284.2
3230.76	2328.2
3233.856	2325.2
3236.95	2231.2
3240.041	2310.2
3243.13	2122.2
3246.216	2278.2
3249.3	2097.2
3252.382	2102.2
3255.46	2273.2
3258.537	2648.2
3261.611	2230.2
3264.682	2107.2
3267.751	2122.2
3270.818	2239.2
3273.882	2018.2
3276.943	1988.2
3280.002	1968.2
3283.059	2050.2
3286.113	2098.2
3289.165	2092.2
3292.214	2072.2
3295.261	1918.2
3298.306	2062.2
3301.348	1946.2
3304.387	1962.2
3307.425	1901.2
3310.459	1922.2
3313.492	1834.2
3316.521	1832.2
3319.549	1804.2
3322.574	1814.2
3325.597	1814.2
3328.617	1789.2
3331.635	1763.2
3334.65	1807.2
3337.663	1831.2
3340.674	1747.2
3343.682	1691.2
3346.688	1661.2
3349.691	1713.2
3352.692	1838.2
3355.691	1578.2
3358.687	1711.2
3361.681	1705.2
3364.673	1616.2
3367.662	1630.2
3370.649	1459.2
3373.633	1712.2
3376.615	1557.2
3379.595	1797.2
3382.572	1634.2
3385.547	1651.2
3388.52	1751.2
3391.49	1618.2
3394.458	1696.2
3397.424	1550.2
3400.387	1650.2
3403.348	1403.2
3406.307	1521.2
3409.263	1581.2
3412.217	1401.2
3415.168	1474.2
3418.118	1567.2
3421.065	1505.2
3424.009	1355.2
3426.951	1498.2
3429.891	1284.2
3432.829	1460.2
3435.764	1477.2
3438.697	1491.2
3441.628	1261.2
3444.557	1421.2
3447.483	1439.2
3450.407	1267.2
3453.328	1301.2
3456.247	1324.2
3459.164	1392.2
3462.079	1179.2
3464.991	1228.2
3467.902	1306.2
3470.809	1213.2
3473.715	1160.2
3476.618	1197.2
3479.519	1177.2
3482.418	1299.2
3485.315	1124.2
3488.209	1103.2
3491.101	1118.2
3493.99	1063.2
3496.878	923.2
3499.763	992.2
3502.646	982.2
3505.527	1130.2
3508.405	1027.2
3511.281	975.2
3514.155	1021.2
3517.027	1063.2
3519.897	1137.2
3522.764	918.2
3525.629	1045.2
3528.492	969.2
3531.352	868.2
3534.211	876.2
3537.067	1037.2
3539.921	909.2
3542.773	874.2
3545.622	950.2
3548.469	963.2
3551.315	911.2
3554.157	830.2
3556.998	770.2
3559.837	717.2
3562.673	637.2
3565.507	774.2
3568.339	775.2
3571.169	778.2
3573.996	726.2
3576.822	777.2
3579.645	771.2
3582.466	757.2
3585.285	661.2
3588.101	695.2
3590.916	755.2
3593.728	669.2
3596.538	745.2
3599.346	603.2
3602.152	722.2
3604.956	713.2
3607.757	572.2
3610.556	776.2
3613.354	621.2
3616.149	660.2
3618.942	620.2
3621.732	388.2
3624.521	667.2
3627.307	647.2
3630.092	608.2
3632.874	473.2
3635.654	602.2
3638.432	642.2
3641.208	545.2
3643.982	571.2
3646.753	578.2
3649.523	665.2
3652.29	612.2
3655.055	633.2
3657.818	475.2
3660.579	502.2
3663.338	672.2
3666.095	479.2
3668.849	733.2
3671.602	516.2
3674.352	624.2
3677.101	585.2
3679.847	423.2
3682.591	622.2
3685.333	588.2
3688.073	489.2
3690.811	586.2
3693.547	699.2
3696.281	565.2
3699.013	483.2
3701.742	492.2
3704.47	630.2
3707.195	462.2
3709.919	460.2
3712.64	524.2
3715.359	396.2
3718.076	211.2
3720.792	492.2
3723.505	522.2
3726.216	435.2
3728.925	579.2
3731.632	355.2
3734.336	592.2
3737.039	488.2
3739.74	485.2
3742.439	553.2
3745.136	438.2
3747.83	427.2
3750.523	503.2
3753.213	203.2
3755.902	467.2
3758.589	531.2
3761.273	516.2
3763.956	313.2
3766.636	549.2
3769.315	279.2
3771.991	564.2
3774.665	468.2
3777.338	602.2
3780.008	538.2
3782.677	450.2
3785.343	590.2
3788.007	544.2
3790.67	424.2
3793.33	377.2
3795.989	528.2
3798.645	433.2
3801.299	619.2
3803.952	459.2
3806.602	475.2
3809.251	495.2
3811.897	480.2
3814.542	448.2
3817.184	476.2
3819.825	532.2
3822.463	547.2
3825.1	492.2
3827.735	473.2
3830.367	464.2
3832.998	386.2
3835.627	351.2
3838.253	436.2
3840.878	484.2
3843.501	345.2
3846.122	364.2
3848.741	353.2
3851.358	431.2
3853.973	666.2
3856.586	490.2
3859.197	400.2
3861.806	489.2
3864.414	555.2
3867.019	510.2
3869.622	405.2
3872.224	303.2
3874.823	530.2
3877.421	526.2
3880.016	533.2
3882.61	686.2
3885.202	623.2
3887.792	616.2
3890.38	446.2
3892.966	525.2
3895.55	489.2
3898.132	467.2
3900.713	388.2
3903.291	467.2
3905.868	401.2
3908.442	443.2
3911.015	439.2
3913.586	445.2
3916.155	495.2
3918.722	518.2
3921.287	424.2
3923.85	511.2
3926.411	397.2
3928.971	394.2
3931.528	445.2
3934.084	485.2
3936.638	481.2
3939.19	405.2
3941.74	439.2
3944.288	415.2
3946.834	476.2
3949.378	430.2
3951.921	527.2
3954.462	485.2
3957	398.2
3959.537	476.2
3962.072	604.2
3964.606	608.2
3967.137	443.2
3969.667	416.2
3972.194	489.2
3974.72	487.2
3977.244	556.2
3979.766	523.2
3982.286	604.2
3984.805	383.2
3987.321	396.2
3989.836	419.2
3992.349	497.2
3994.86	457.2
3997.369	449.2
3999.877	388.2
4002.382	449.2
4004.886	468.2
4007.388	482.2
4009.888	535.2
4012.386	404.2
4014.883	456.2
4017.377	461.2
4019.87	346.2
4022.361	511.2
4024.85	505.2
4027.338	549.2
4029.823	375.2
4032.307	429.2
4034.789	514.2
4037.269	552.2
4039.747	559.2
4042.224	401.2
4044.699	483.2
4047.172	478.2
4049.643	417.2
4052.112	597.2
4054.58	529.2
4057.046	529.2
4059.51	492.2
4061.972	443.2
4064.432	622.2
4066.891	396.2
4069.348	513.2
4071.803	349.2
4074.256	459.2
4076.708	483.2
4079.158	488.2
4081.606	345.2
4084.052	464.2
4086.497	418.2
4088.939	490.2
4091.38	548.2
4093.819	428.2
4096.257	-902.8
4098.693	-920.8
4101.127	-959.8
4103.559	-1001.8
4105.989	555.2
4108.418	527.2
4110.845	757.2
4113.27	614.2
4115.694	640.2
4118.115	690.2
4120.535	388.2
4122.954	340.2
4125.37	311.2
4127.785	451.2
4130.198	415.2
4132.609	423.2
4135.019	-1030.8
4137.427	-990.8
4139.833	-940.8
4142.237	-766.8
