Data from 2018-2-8_conc=3_RamanShift_13.txt Node
Date: Wed Feb 07 10:18:40 IST 2018
User: aro
Spectrometer: QEPB0276
Trigger mode: 0
Integration Time (sec): 3.000000E1
Scans to average: 1
Electric dark correction enabled: true
Nonlinearity correction enabled: false
Boxcar width: 0
XAxis mode: Raman Shifts
Number of Pixels in Spectrum: 1044
>>>>>Begin Spectral Data<<<<<
160.701	425.4
166.742	587.4
172.777	1046.4
178.805	2583.4
184.826	6022.4
190.841	11988.4
196.849	19153.4
202.85	24563.4
208.845	26536.4
214.833	26361.4
220.815	26080.4
226.789	25912.4
232.758	25868.4
238.719	25694.4
244.674	25511.4
250.623	25121.4
256.565	24609.4
262.5	24221.4
268.429	23653.4
274.351	23419.4
280.267	23244.4
286.176	22631.4
292.079	22423.4
297.975	22065.4
303.865	22020.4
309.748	21847.4
315.625	21709.4
321.495	21301.4
327.359	21288.4
333.217	21241.4
339.068	21243.4
344.912	21333.4
350.751	21174.4
356.583	21155.4
362.408	21164.4
368.227	21208.4
374.04	21343.4
379.847	21350.4
385.647	21465.4
391.44	21696.4
397.228	21656.4
403.009	21961.4
408.784	22041.4
414.553	22138.4
420.315	22108.4
426.071	22268.4
431.821	22103.4
437.565	22218.4
443.302	21990.4
449.033	21884.4
454.758	21771.4
460.477	21700.4
466.189	21600.4
471.896	21504.4
477.596	21481.4
483.29	21454.4
488.978	21365.4
494.66	21406.4
500.335	21376.4
506.005	21263.4
511.668	21049.4
517.325	20909.4
522.977	20755.4
528.622	20637.4
534.261	20519.4
539.894	20278.4
545.521	20362.4
551.141	20259.4
556.756	19999.4
562.365	19915.4
567.968	19747.4
573.565	19690.4
579.155	19472.4
584.74	19444.4
590.319	19290.4
595.892	19323.4
601.459	19276.4
607.02	19200.4
612.575	19282.4
618.124	19189.4
623.667	19271.4
629.204	19228.4
634.735	19212.4
640.261	19041.4
645.781	19221.4
651.294	18920.4
656.802	18788.4
662.304	18700.4
667.8	18421.4
673.29	18393.4
678.775	18292.4
684.254	18353.4
689.726	18323.4
695.193	18154.4
700.655	18153.4
706.11	18342.4
711.56	18189.4
717.004	18183.4
722.442	18426.4
727.874	18234.4
733.301	18150.4
738.722	18272.4
744.137	18060.4
749.547	17980.4
754.951	17896.4
760.349	17729.4
765.741	17592.4
771.128	17594.4
776.509	17605.4
781.885	17567.4
787.254	17535.4
792.618	17572.4
797.977	17645.4
803.33	17770.4
808.677	17760.4
814.019	17707.4
819.355	17769.4
824.686	17736.4
830.011	17693.4
835.33	17504.4
840.644	17300.4
845.952	17319.4
851.255	17062.4
856.552	16974.4
861.844	16865.4
867.13	16817.4
872.41	16711.4
877.686	16708.4
882.955	16813.4
888.219	16848.4
893.478	16958.4
898.731	16816.4
903.979	16708.4
909.221	16775.4
914.458	16703.4
919.69	16487.4
924.916	16423.4
930.136	16194.4
935.351	16132.4
940.561	15843.4
945.766	15786.4
950.965	15589.4
956.158	15618.4
961.347	15739.4
966.529	15680.4
971.707	15656.4
976.879	15713.4
982.046	15819.4
987.208	15731.4
992.364	15537.4
997.515	15604.4
1002.66	15401.4
1007.801	15462.4
1012.936	15457.4
1018.066	15409.4
1023.19	15228.4
1028.309	15194.4
1033.423	15330.4
1038.532	15392.4
1043.636	15578.4
1048.734	15463.4
1053.827	15650.4
1058.915	15619.4
1063.998	15462.4
1069.075	15274.4
1074.147	15089.4
1079.214	14987.4
1084.276	14768.4
1089.333	14731.4
1094.385	14723.4
1099.431	14777.4
1104.472	14703.4
1109.509	14846.4
1114.54	14867.4
1119.565	15006.4
1124.586	14965.4
1129.602	14922.4
1134.613	14898.4
1139.618	14764.4
1144.619	14481.4
1149.614	14371.4
1154.604	14121.4
1159.589	14152.4
1164.57	13908.4
1169.545	13927.4
1174.515	13925.4
1179.48	14100.4
1184.44	14125.4
1189.395	14233.4
1194.345	14412.4
1199.29	14377.4
1204.23	14428.4
1209.165	14295.4
1214.095	14178.4
1219.021	14069.4
1223.941	14112.4
1228.856	14116.4
1233.766	14059.4
1238.672	13954.4
1243.572	13897.4
1248.467	13996.4
1253.358	14020.4
1258.244	14140.4
1263.124	13962.4
1268	13861.4
1272.871	13851.4
1277.737	13794.4
1282.599	13605.4
1287.455	13391.4
1292.306	13225.4
1297.153	13247.4
1301.995	13035.4
1306.832	12989.4
1311.664	12957.4
1316.491	13045.4
1321.314	12953.4
1326.132	12982.4
1330.945	12854.4
1335.753	12784.4
1340.556	12599.4
1345.354	12449.4
1350.148	12091.4
1354.937	12001.4
1359.722	11989.4
1364.501	11783.4
1369.276	11591.4
1374.046	11706.4
1378.811	11856.4
1383.572	11898.4
1388.327	11657.4
1393.079	12120.4
1397.825	12254.4
1402.567	12168.4
1407.304	12160.4
1412.036	12141.4
1416.764	11984.4
1421.487	12166.4
1426.205	11832.4
1430.919	11653.4
1435.628	11545.4
1440.333	11458.4
1445.032	11315.4
1449.727	11365.4
1454.418	11294.4
1459.104	11222.4
1463.785	11097.4
1468.462	11113.4
1473.134	11073.4
1477.802	10852.4
1482.465	10956.4
1487.123	10647.4
1491.777	10755.4
1496.426	10583.4
1501.071	10423.4
1505.711	10496.4
1510.347	10597.4
1514.978	10668.4
1519.604	10729.4
1524.226	10865.4
1528.844	11172.4
1533.457	11066.4
1538.065	11179.4
1542.669	11226.4
1547.269	11247.4
1551.864	11265.4
1556.454	11320.4
1561.041	11278.4
1565.622	11225.4
1570.199	10997.4
1574.772	10965.4
1579.34	10701.4
1583.904	10868.4
1588.464	10834.4
1593.019	10864.4
1597.569	10984.4
1602.115	10989.4
1606.657	11094.4
1611.195	11005.4
1615.728	11130.4
1620.256	11240.4
1624.78	11175.4
1629.3	11207.4
1633.816	11010.4
1638.327	10968.4
1642.834	10889.4
1647.336	10820.4
1651.834	10703.4
1656.328	10795.4
1660.817	10702.4
1665.302	10643.4
1669.783	10680.4
1674.259	10581.4
1678.732	10296.4
1683.199	10042.4
1687.663	9916.4
1692.122	9508.4
1696.577	9266.4
1701.028	9103.4
1705.474	9269.4
1709.917	9222.4
1714.355	9196.4
1718.788	9121.4
1723.218	8951.4
1727.643	8700.4
1732.064	8576.4
1736.481	8642.4
1740.893	8382.4
1745.301	8350.4
1749.705	8302.4
1754.105	7927.4
1758.501	7930.4
1762.893	7602.4
1767.28	7510.4
1771.663	7260.4
1776.042	7098.4
1780.417	6970.4
1784.787	6773.4
1789.154	6869.4
1793.516	6846.4
1797.874	7095.4
1802.228	7202.4
1806.578	7351.4
1810.924	7294.4
1815.266	7678.4
1819.603	7383.4
1823.937	7300.4
1828.266	7226.4
1832.591	7185.4
1836.913	7076.4
1841.23	7155.4
1845.543	7052.4
1849.852	6839.4
1854.156	6854.4
1858.457	6810.4
1862.754	6528.4
1867.047	6637.4
1871.335	6545.4
1875.62	6524.4
1879.9	6457.4
1884.177	6610.4
1888.449	6498.4
1892.718	6515.4
1896.982	6425.4
1901.243	6603.4
1905.499	6425.4
1909.752	6450.4
1914	6527.4
1918.245	6399.4
1922.485	6470.4
1926.722	6586.4
1930.954	6455.4
1935.183	6510.4
1939.408	6411.4
1943.628	6531.4
1947.845	6502.4
1952.058	6584.4
1956.267	6497.4
1960.472	6422.4
1964.673	6455.4
1968.87	6602.4
1973.063	6568.4
1977.252	6456.4
1981.438	6372.4
1985.619	6211.4
1989.797	6114.4
1993.971	6108.4
1998.14	5927.4
2002.306	5915.4
2006.469	5913.4
2010.627	5852.4
2014.781	5830.4
2018.932	5901.4
2023.078	5654.4
2027.221	5625.4
2031.36	5733.4
2035.495	5770.4
2039.627	5696.4
2043.754	5644.4
2047.878	5579.4
2051.998	5549.4
2056.114	5499.4
2060.226	5514.4
2064.334	5414.4
2068.439	5301.4
2072.54	5327.4
2076.637	5496.4
2080.73	5473.4
2084.82	5389.4
2088.906	5461.4
2092.988	5340.4
2097.066	5553.4
2101.14	5449.4
2105.211	5554.4
2109.278	5515.4
2113.342	5507.4
2117.401	5603.4
2121.457	5527.4
2125.509	5495.4
2129.558	5305.4
2133.602	5343.4
2137.643	5309.4
2141.681	5204.4
2145.714	5269.4
2149.744	5105.4
2153.77	5180.4
2157.793	5052.4
2161.812	5091.4
2165.827	5101.4
2169.838	4887.4
2173.846	4979.4
2177.851	4885.4
2181.851	4763.4
2185.848	4833.4
2189.841	4726.4
2193.831	4802.4
2197.817	4601.4
2201.799	4602.4
2205.778	4656.4
2209.753	4584.4
2213.725	4590.4
2217.693	4533.4
2221.657	4523.4
2225.618	4496.4
2229.575	4479.4
2233.529	4331.4
2237.479	4440.4
2241.425	4401.4
2245.368	4509.4
2249.307	4430.4
2253.243	4330.4
2257.175	4347.4
2261.104	4210.4
2265.029	4212.4
2268.95	4109.4
2272.868	4031.4
2276.783	4098.4
2280.694	3882.4
2284.601	3868.4
2288.505	3883.4
2292.405	3807.4
2296.302	3859.4
2300.195	3682.4
2304.085	3788.4
2307.971	3732.4
2311.854	3759.4
2315.734	3663.4
2319.609	3681.4
2323.482	3765.4
2327.351	3657.4
2331.216	3609.4
2335.078	3653.4
2338.937	3620.4
2342.792	3620.4
2346.643	3537.4
2350.492	3518.4
2354.336	3518.4
2358.178	3433.4
2362.015	3430.4
2365.85	3594.4
2369.681	3515.4
2373.508	3468.4
2377.333	3448.4
2381.153	3529.4
2384.971	3525.4
2388.785	3524.4
2392.595	3540.4
2396.402	3613.4
2400.206	3612.4
2404.007	3544.4
2407.804	3501.4
2411.597	3352.4
2415.388	3402.4
2419.174	3364.4
2422.958	3295.4
2426.738	3334.4
2430.515	3186.4
2434.289	3352.4
2438.059	3311.4
2441.825	3288.4
2445.589	3078.4
2449.349	3268.4
2453.106	3133.4
2456.859	3150.4
2460.61	3097.4
2464.356	3086.4
2468.1	3078.4
2471.84	3109.4
2475.577	3107.4
2479.311	2986.4
2483.041	2986.4
2486.768	2827.4
2490.492	2752.4
2494.213	2966.4
2497.93	2975.4
2501.644	3002.4
2505.355	2955.4
2509.062	2915.4
2512.766	2937.4
2516.467	2948.4
2520.165	2904.4
2523.859	2948.4
2527.551	2705.4
2531.239	2872.4
2534.923	2875.4
2538.605	2955.4
2542.283	2757.4
2545.958	2881.4
2549.63	2769.4
2553.299	2751.4
2556.964	2805.4
2560.626	2823.4
2564.285	2689.4
2567.941	2761.4
2571.594	2838.4
2575.243	2609.4
2578.89	2798.4
2582.533	2742.4
2586.173	2715.4
2589.809	2735.4
2593.443	2866.4
2597.073	2715.4
2600.701	2540.4
2604.325	2652.4
2607.946	2670.4
2611.564	2602.4
2615.178	2515.4
2618.79	2529.4
2622.398	2611.4
2626.004	2558.4
2629.606	2479.4
2633.205	2658.4
2636.801	2452.4
2640.394	2412.4
2643.983	2527.4
2647.57	2504.4
2651.153	2395.4
2654.734	2262.4
2658.311	2489.4
2661.885	2354.4
2665.456	2344.4
2669.025	2307.4
2672.589	2260.4
2676.151	2170.4
2679.71	2163.4
2683.266	2024.4
2686.819	2178.4
2690.368	2075.4
2693.915	2141.4
2697.458	2139.4
2700.999	1985.4
2704.536	1999.4
2708.071	2022.4
2711.602	1984.4
2715.13	1967.4
2718.656	1985.4
2722.178	1787.4
2725.697	1910.4
2729.214	1624.4
2732.727	1771.4
2736.237	1835.4
2739.744	1847.4
2743.249	1871.4
2746.75	1879.4
2750.248	1974.4
2753.743	1944.4
2757.236	1907.4
2760.725	1924.4
2764.211	2053.4
2767.695	1874.4
2771.175	1946.4
2774.652	1940.4
2778.127	1903.4
2781.598	1932.4
2785.067	1876.4
2788.532	1904.4
2791.995	1922.4
2795.455	1874.4
2798.911	1788.4
2802.365	1985.4
2805.816	1876.4
2809.264	1859.4
2812.709	1914.4
2816.151	1874.4
2819.59	1998.4
2823.026	1995.4
2826.46	1951.4
2829.89	1954.4
2833.318	2174.4
2836.742	1980.4
2840.164	1961.4
2843.583	2078.4
2846.999	2061.4
2850.412	1950.4
2853.822	2083.4
2857.229	1936.4
2860.634	2007.4
2864.035	2051.4
2867.434	1945.4
2870.83	1985.4
2874.223	2108.4
2877.613	2037.4
2881	2209.4
2884.385	2279.4
2887.766	2217.4
2891.145	2127.4
2894.521	2273.4
2897.894	2301.4
2901.264	2093.4
2904.631	2341.4
2907.996	2245.4
2911.358	2275.4
2914.717	2302.4
2918.073	2233.4
2921.426	2202.4
2924.777	2362.4
2928.124	2380.4
2931.469	2294.4
2934.811	2523.4
2938.15	2391.4
2941.487	2389.4
2944.821	2356.4
2948.152	2490.4
2951.48	2492.4
2954.805	2409.4
2958.128	2359.4
2961.447	2430.4
2964.765	2329.4
2968.079	2475.4
2971.39	2456.4
2974.699	2431.4
2978.005	2466.4
2981.308	2530.4
2984.609	2627.4
2987.907	2534.4
2991.202	2613.4
2994.494	2655.4
2997.784	2314.4
3001.07	2658.4
3004.355	2678.4
3007.636	2704.4
3010.915	2773.4
3014.191	2882.4
3017.464	2837.4
3020.734	2754.4
3024.002	2907.4
3027.267	2992.4
3030.53	3042.4
3033.789	3043.4
3037.046	3159.4
3040.301	3090.4
3043.552	3196.4
3046.801	3266.4
3050.048	3182.4
3053.291	3169.4
3056.532	3378.4
3059.771	3570.4
3063.006	3437.4
3066.239	3552.4
3069.469	3599.4
3072.697	3831.4
3075.922	3914.4
3079.144	3942.4
3082.364	4035.4
3085.581	4207.4
3088.795	4196.4
3092.007	4280.4
3095.216	4502.4
3098.423	4712.4
3101.627	4790.4
3104.828	4914.4
3108.026	4942.4
3111.222	4967.4
3114.416	4972.4
3117.607	5213.4
3120.795	5293.4
3123.98	5378.4
3127.163	5505.4
3130.344	5598.4
3133.521	5655.4
3136.696	5779.4
3139.869	5895.4
3143.039	5966.4
3146.206	6008.4
3149.371	6164.4
3152.533	6304.4
3155.693	6478.4
3158.85	6550.4
3162.005	6510.4
3165.157	6682.4
3168.306	6730.4
3171.453	6504.4
3174.597	6836.4
3177.739	6832.4
3180.878	6762.4
3184.014	6658.4
3187.149	6795.4
3190.28	6681.4
3193.409	6712.4
3196.536	6679.4
3199.659	6623.4
3202.781	6639.4
3205.9	6796.4
3209.016	6654.4
3212.13	6742.4
3215.241	6601.4
3218.35	6694.4
3221.456	6750.4
3224.56	6823.4
3227.661	6808.4
3230.76	6909.4
3233.856	6855.4
3236.95	6712.4
3240.041	6823.4
3243.13	6640.4
3246.216	6649.4
3249.3	6510.4
3252.382	6524.4
3255.46	6587.4
3258.537	5821.4
3261.611	6509.4
3264.682	6340.4
3267.751	6298.4
3270.818	6468.4
3273.882	6180.4
3276.943	6174.4
3280.002	6112.4
3283.059	6088.4
3286.113	6134.4
3289.165	6145.4
3292.214	6083.4
3295.261	5907.4
3298.306	6021.4
3301.348	5850.4
3304.387	5794.4
3307.425	5621.4
3310.459	5696.4
3313.492	5469.4
3316.521	5464.4
3319.549	5381.4
3322.574	5297.4
3325.597	5193.4
3328.617	5190.4
3331.635	4927.4
3334.65	5146.4
3337.663	5131.4
3340.674	5062.4
3343.682	4901.4
3346.688	4923.4
3349.691	4915.4
3352.692	5041.4
3355.691	4826.4
3358.687	4854.4
3361.681	4799.4
3364.673	4894.4
3367.662	4757.4
3370.649	4705.4
3373.633	4777.4
3376.615	4744.4
3379.595	4843.4
3382.572	4767.4
3385.547	4532.4
3388.52	4665.4
3391.49	4507.4
3394.458	4556.4
3397.424	4372.4
3400.387	4443.4
3403.348	4099.4
3406.307	4175.4
3409.263	4219.4
3412.217	3997.4
3415.168	4003.4
3418.118	4016.4
3421.065	3920.4
3424.009	3808.4
3426.951	3856.4
3429.891	3619.4
3432.829	3772.4
3435.764	3746.4
3438.697	3667.4
3441.628	3514.4
3444.557	3561.4
3447.483	3557.4
3450.407	3368.4
3453.328	3233.4
3456.247	3362.4
3459.164	3308.4
3462.079	3098.4
3464.991	3062.4
3467.902	3086.4
3470.809	2897.4
3473.715	2853.4
3476.618	2719.4
3479.519	2619.4
3482.418	2738.4
3485.315	2523.4
3488.209	2453.4
3491.101	2449.4
3493.99	2373.4
3496.878	2066.4
3499.763	2137.4
3502.646	2117.4
3505.527	2186.4
3508.405	2025.4
3511.281	1951.4
3514.155	1971.4
3517.027	1943.4
3519.897	1996.4
3522.764	1742.4
3525.629	1777.4
3528.492	1755.4
3531.352	1563.4
3534.211	1587.4
3537.067	1613.4
3539.921	1458.4
3542.773	1438.4
3545.622	1395.4
3548.469	1417.4
3551.315	1357.4
3554.157	1196.4
3556.998	1163.4
3559.837	1053.4
3562.673	949.4
3565.507	1138.4
3568.339	922.4
3571.169	1001.4
3573.996	949.4
3576.822	916.4
3579.645	915.4
3582.466	837.4
3585.285	830.4
3588.101	727.4
3590.916	767.4
3593.728	728.4
3596.538	763.4
3599.346	660.4
3602.152	743.4
3604.956	641.4
3607.757	515.4
3610.556	681.4
3613.354	566.4
3616.149	516.4
3618.942	503.4
3621.732	338.4
3624.521	514.4
3627.307	432.4
3630.092	429.4
3632.874	300.4
3635.654	428.4
3638.432	440.4
3641.208	349.4
3643.982	403.4
3646.753	305.4
3649.523	353.4
3652.29	382.4
3655.055	373.4
3657.818	233.4
3660.579	343.4
3663.338	376.4
3666.095	171.4
3668.849	340.4
3671.602	248.4
3674.352	315.4
3677.101	208.4
3679.847	57.4
3682.591	270.4
3685.333	236.4
3688.073	158.4
3690.811	249.4
3693.547	255.4
3696.281	208.4
3699.013	73.4
3701.742	81.4
3704.47	200.4
3707.195	126.4
3709.919	86.4
3712.64	105.4
3715.359	-50.6
3718.076	-132.6
3720.792	55.4
3723.505	29.4
3726.216	32.4
3728.925	90.4
3731.632	-119.6
3734.336	166.4
3737.039	37.4
3739.74	57.4
3742.439	294.4
3745.136	71.4
3747.83	40.4
3750.523	-8.6
3753.213	170.4
3755.902	11.4
3758.589	110.4
3761.273	72.4
3763.956	-105.6
3766.636	62.4
3769.315	-149.6
3771.991	137.4
3774.665	-38.6
3777.338	144.4
3780.008	65.4
3782.677	3.4
3785.343	113.4
3788.007	51.4
3790.67	-60.6
3793.33	-81.6
3795.989	57.4
3798.645	-61.6
3801.299	93.4
3803.952	-43.6
3806.602	-49.6
3809.251	-3.6
3811.897	-18.6
3814.542	6.4
3817.184	22.4
3819.825	32.4
3822.463	-120.6
3825.1	-32.6
3827.735	-7.6
3830.367	-17.6
3832.998	-182.6
3835.627	-116.6
3838.253	-71.6
3840.878	-47.6
3843.501	-164.6
3846.122	-100.6
3848.741	-109.6
3851.358	-57.6
3853.973	67.4
3856.586	-70.6
3859.197	-121.6
3861.806	-78.6
3864.414	61.4
3867.019	1.4
3869.622	-131.6
3872.224	-209.6
3874.823	15.4
3877.421	-19.6
3880.016	41.4
3882.61	145.4
3885.202	114.4
3887.792	59.4
3890.38	-50.6
3892.966	16.4
3895.55	-87.6
3898.132	-16.6
3900.713	-128.6
3903.291	-34.6
3905.868	-58.6
3908.442	-18.6
3911.015	-68.6
3913.586	-57.6
3916.155	-86.6
3918.722	2.4
3921.287	-114.6
3923.85	-172.6
3926.411	-130.6
3928.971	-119.6
3931.528	-55.6
3934.084	-108.6
3936.638	-81.6
3939.19	-185.6
3941.74	-77.6
3944.288	-102.6
3946.834	35.4
3949.378	-85.6
3951.921	17.4
3954.462	-47.6
3957	7.4
3959.537	-11.6
3962.072	32.4
3964.606	26.4
3967.137	-66.6
3969.667	-70.6
3972.194	-50.6
3974.72	-38.6
3977.244	-3.6
3979.766	-22.6
3982.286	3.4
3984.805	-128.6
3987.321	-130.6
3989.836	-92.6
3992.349	-46.6
3994.86	-76.6
3997.369	-66.6
3999.877	-93.6
4002.382	-56.6
4004.886	-59.6
4007.388	-62.6
4009.888	108.4
4012.386	-100.6
4014.883	-73.6
4017.377	-40.6
4019.87	-154.6
4022.361	-22.6
4024.85	-72.6
4027.338	-142.6
4029.823	-101.6
4032.307	-74.6
4034.789	-3.6
4037.269	-19.6
4039.747	38.4
4042.224	-7.6
4044.699	-38.6
4047.172	-36.6
4049.643	-104.6
4052.112	99.4
4054.58	-59.6
4057.046	-50.6
4059.51	7.4
4061.972	-77.6
4064.432	20.4
4066.891	-165.6
4069.348	-1.6
4071.803	-91.6
4074.256	-84.6
4076.708	-45.6
4079.158	-60.6
4081.606	-153.6
4084.052	-36.6
4086.497	-97.6
4088.939	9.4
4091.38	-20.6
4093.819	-69.6
4096.257	-1140.6
4098.693	-1139.6
4101.127	-1172.6
4103.559	-1216.6
4105.989	85.4
4108.418	130.4
4110.845	371.4
4113.27	205.4
4115.694	272.4
4118.115	325.4
4120.535	-93.6
4122.954	-114.6
4125.37	-210.6
4127.785	-43.6
4130.198	-68.6
4132.609	-87.6
4135.019	-1241.6
4137.427	-1211.6
4139.833	-1144.6
4142.237	-1044.6
