Data from 2018-2-8_conc=4_RamanShift_16.txt Node
Date: Wed Feb 07 10:44:10 IST 2018
User: aro
Spectrometer: QEPB0276
Trigger mode: 0
Integration Time (sec): 3.000000E1
Scans to average: 1
Electric dark correction enabled: true
Nonlinearity correction enabled: false
Boxcar width: 0
XAxis mode: Raman Shifts
Number of Pixels in Spectrum: 1044
>>>>>Begin Spectral Data<<<<<
160.701	505.8
166.742	614.8
172.777	1086.8
178.805	2601.8
184.826	5942.8
190.841	11667.8
196.849	18668.8
202.85	23769.8
208.845	25698.8
214.833	25431.8
220.815	25053.8
226.789	23683.8
232.758	24767.8
238.719	24613.8
244.674	24327.8
250.623	23861.8
256.565	23589.8
262.5	23013.8
268.429	22415.8
274.351	22138.8
280.267	21905.8
286.176	21366.8
292.079	21106.8
297.975	20832.8
303.865	20608.8
309.748	20366.8
315.625	20277.8
321.495	19803.8
327.359	19823.8
333.217	19904.8
339.068	19822.8
344.912	19796.8
350.751	19746.8
356.583	19711.8
362.408	19676.8
368.227	19691.8
374.04	19821.8
379.847	19826.8
385.647	20003.8
391.44	20299.8
397.228	20204.8
403.009	20387.8
408.784	20513.8
414.553	20563.8
420.315	20599.8
426.071	20704.8
431.821	20668.8
437.565	20621.8
443.302	20408.8
449.033	20445.8
454.758	20309.8
460.477	20176.8
466.189	20045.8
471.896	20018.8
477.596	19924.8
483.29	19943.8
488.978	19856.8
494.66	19901.8
500.335	19767.8
506.005	19778.8
511.668	19518.8
517.325	19372.8
522.977	19219.8
528.622	19199.8
534.261	19019.8
539.894	18946.8
545.521	18919.8
551.141	18805.8
556.756	18529.8
562.365	18394.8
567.968	18332.8
573.565	18147.8
579.155	18069.8
584.74	18044.8
590.319	17834.8
595.892	17852.8
601.459	17816.8
607.02	17794.8
612.575	17877.8
618.124	17639.8
623.667	17834.8
629.204	17836.8
634.735	17751.8
640.261	17597.8
645.781	17825.8
651.294	17528.8
656.802	17256.8
662.304	17174.8
667.8	16970.8
673.29	17023.8
678.775	16925.8
684.254	16843.8
689.726	16958.8
695.193	16737.8
700.655	16735.8
706.11	16953.8
711.56	16780.8
717.004	16887.8
722.442	16978.8
727.874	16796.8
733.301	16736.8
738.722	16820.8
744.137	16629.8
749.547	16562.8
754.951	16493.8
760.349	16337.8
765.741	16263.8
771.128	16180.8
776.509	16150.8
781.885	16190.8
787.254	16128.8
792.618	16296.8
797.977	16282.8
803.33	16324.8
808.677	16434.8
814.019	16353.8
819.355	16374.8
824.686	16341.8
830.011	16385.8
835.33	16118.8
840.644	15912.8
845.952	16009.8
851.255	15774.8
856.552	15652.8
861.844	15561.8
867.13	15462.8
872.41	15424.8
877.686	15351.8
882.955	15437.8
888.219	15532.8
893.478	15657.8
898.731	15454.8
903.979	15341.8
909.221	15485.8
914.458	15330.8
919.69	15142.8
924.916	15040.8
930.136	14873.8
935.351	14711.8
940.561	14475.8
945.766	14404.8
950.965	14257.8
956.158	14445.8
961.347	14523.8
966.529	14462.8
971.707	14423.8
976.879	14453.8
982.046	14415.8
987.208	14463.8
992.364	14333.8
997.515	14292.8
1002.66	14110.8
1007.801	14370.8
1012.936	14186.8
1018.066	14210.8
1023.19	14083.8
1028.309	13954.8
1033.423	14078.8
1038.532	14097.8
1043.636	14396.8
1048.734	14266.8
1053.827	14345.8
1058.915	14387.8
1063.998	14213.8
1069.075	14117.8
1074.147	13924.8
1079.214	13961.8
1084.276	13616.8
1089.333	13579.8
1094.385	13550.8
1099.431	13633.8
1104.472	13494.8
1109.509	13702.8
1114.54	13668.8
1119.565	13811.8
1124.586	13714.8
1129.602	13780.8
1134.613	13689.8
1139.618	13597.8
1144.619	13349.8
1149.614	13155.8
1154.604	13063.8
1159.589	13025.8
1164.57	12807.8
1169.545	12811.8
1174.515	12839.8
1179.48	13004.8
1184.44	13012.8
1189.395	13147.8
1194.345	13331.8
1199.29	13186.8
1204.23	13331.8
1209.165	13212.8
1214.095	13116.8
1219.021	12993.8
1223.941	13018.8
1228.856	13010.8
1233.766	12945.8
1238.672	12901.8
1243.572	12842.8
1248.467	12844.8
1253.358	12972.8
1258.244	13030.8
1263.124	12868.8
1268	12770.8
1272.871	12827.8
1277.737	12764.8
1282.599	12548.8
1287.455	12342.8
1292.306	12124.8
1297.153	12218.8
1301.995	12025.8
1306.832	12014.8
1311.664	11974.8
1316.491	12041.8
1321.314	11999.8
1326.132	12009.8
1330.945	11894.8
1335.753	11786.8
1340.556	11678.8
1345.354	11642.8
1350.148	11311.8
1354.937	11115.8
1359.722	11097.8
1364.501	10873.8
1369.276	10645.8
1374.046	10826.8
1378.811	10880.8
1383.572	11026.8
1388.327	10751.8
1393.079	11200.8
1397.825	11264.8
1402.567	11307.8
1407.304	11171.8
1412.036	11206.8
1416.764	10983.8
1421.487	11239.8
1426.205	11049.8
1430.919	10802.8
1435.628	10689.8
1440.333	10589.8
1445.032	10470.8
1449.727	10401.8
1454.418	10439.8
1459.104	10417.8
1463.785	10296.8
1468.462	10291.8
1473.134	10239.8
1477.802	10109.8
1482.465	10126.8
1487.123	9780.8
1491.777	9867.8
1496.426	9858.8
1501.071	9594.8
1505.711	9702.8
1510.347	9632.8
1514.978	9880.8
1519.604	9948.8
1524.226	9986.8
1528.844	10295.8
1533.457	10053.8
1538.065	10385.8
1542.669	10309.8
1547.269	10440.8
1551.864	10338.8
1556.454	10535.8
1561.041	10436.8
1565.622	10351.8
1570.199	10179.8
1574.772	10125.8
1579.34	9981.8
1583.904	10092.8
1588.464	10122.8
1593.019	10085.8
1597.569	10221.8
1602.115	10274.8
1606.657	10359.8
1611.195	10354.8
1615.728	10388.8
1620.256	10455.8
1624.78	10545.8
1629.3	10494.8
1633.816	10354.8
1638.327	10315.8
1642.834	10260.8
1647.336	10267.8
1651.834	10070.8
1656.328	10085.8
1660.817	10038.8
1665.302	10114.8
1669.783	9978.8
1674.259	9958.8
1678.732	9599.8
1683.199	9352.8
1687.663	9214.8
1692.122	8887.8
1696.577	8656.8
1701.028	8812.8
1705.474	8594.8
1709.917	8537.8
1714.355	8565.8
1718.788	8385.8
1723.218	8321.8
1727.643	8104.8
1732.064	7920.8
1736.481	7969.8
1740.893	7733.8
1745.301	7658.8
1749.705	7677.8
1754.105	7307.8
1758.501	7307.8
1762.893	7048.8
1767.28	6984.8
1771.663	6750.8
1776.042	6588.8
1780.417	6476.8
1784.787	6280.8
1789.154	6367.8
1793.516	6277.8
1797.874	6492.8
1802.228	6655.8
1806.578	6789.8
1810.924	6668.8
1815.266	7166.8
1819.603	6728.8
1823.937	6745.8
1828.266	6607.8
1832.591	6624.8
1836.913	6574.8
1841.23	6528.8
1845.543	6479.8
1849.852	6342.8
1854.156	6383.8
1858.457	6254.8
1862.754	6008.8
1867.047	6141.8
1871.335	6030.8
1875.62	6005.8
1879.9	5938.8
1884.177	6176.8
1888.449	6020.8
1892.718	6028.8
1896.982	5970.8
1901.243	6147.8
1905.499	6032.8
1909.752	5979.8
1914	6049.8
1918.245	5941.8
1922.485	5989.8
1926.722	5992.8
1930.954	5989.8
1935.183	6014.8
1939.408	5995.8
1943.628	6052.8
1947.845	6057.8
1952.058	6099.8
1956.267	6144.8
1960.472	5993.8
1964.673	6013.8
1968.87	6076.8
1973.063	6074.8
1977.252	5891.8
1981.438	5918.8
1985.619	5783.8
1989.797	5673.8
1993.971	5703.8
1998.14	5456.8
2002.306	5602.8
2006.469	5473.8
2010.627	5487.8
2014.781	5475.8
2018.932	5498.8
2023.078	5317.8
2027.221	5261.8
2031.36	5298.8
2035.495	5370.8
2039.627	5282.8
2043.754	5217.8
2047.878	5172.8
2051.998	5217.8
2056.114	5206.8
2060.226	5163.8
2064.334	5121.8
2068.439	5017.8
2072.54	4988.8
2076.637	5149.8
2080.73	5064.8
2084.82	5003.8
2088.906	5134.8
2092.988	5059.8
2097.066	5282.8
2101.14	5071.8
2105.211	5163.8
2109.278	5146.8
2113.342	5163.8
2117.401	5238.8
2121.457	5169.8
2125.509	5181.8
2129.558	5007.8
2133.602	5035.8
2137.643	4987.8
2141.681	4926.8
2145.714	4903.8
2149.744	4790.8
2153.77	4783.8
2157.793	4769.8
2161.812	4836.8
2165.827	4790.8
2169.838	4548.8
2173.846	4744.8
2177.851	4566.8
2181.851	4466.8
2185.848	4693.8
2189.841	4361.8
2193.831	4515.8
2197.817	4285.8
2201.799	4338.8
2205.778	4405.8
2209.753	4395.8
2213.725	4321.8
2217.693	4278.8
2221.657	4240.8
2225.618	4161.8
2229.575	4189.8
2233.529	4089.8
2237.479	4143.8
2241.425	4074.8
2245.368	4268.8
2249.307	4139.8
2253.243	4092.8
2257.175	4151.8
2261.104	3977.8
2265.029	3906.8
2268.95	3919.8
2272.868	3844.8
2276.783	3874.8
2280.694	3611.8
2284.601	3695.8
2288.505	3735.8
2292.405	3553.8
2296.302	3634.8
2300.195	3480.8
2304.085	3612.8
2307.971	3464.8
2311.854	3556.8
2315.734	3411.8
2319.609	3471.8
2323.482	3592.8
2327.351	3417.8
2331.216	3468.8
2335.078	3413.8
2338.937	3400.8
2342.792	3387.8
2346.643	3387.8
2350.492	3339.8
2354.336	3352.8
2358.178	3331.8
2362.015	3228.8
2365.85	3356.8
2369.681	3354.8
2373.508	3328.8
2377.333	3175.8
2381.153	3379.8
2384.971	3375.8
2388.785	3343.8
2392.595	3353.8
2396.402	3465.8
2400.206	3410.8
2404.007	3395.8
2407.804	3336.8
2411.597	3179.8
2415.388	3303.8
2419.174	3215.8
2422.958	3161.8
2426.738	3110.8
2430.515	3062.8
2434.289	3184.8
2438.059	3103.8
2441.825	3145.8
2445.589	2956.8
2449.349	3079.8
2453.106	2986.8
2456.859	2993.8
2460.61	2901.8
2464.356	2992.8
2468.1	2984.8
2471.84	2970.8
2475.577	2980.8
2479.311	2847.8
2483.041	2849.8
2486.768	2756.8
2490.492	2575.8
2494.213	2824.8
2497.93	2842.8
2501.644	2815.8
2505.355	2912.8
2509.062	2724.8
2512.766	2799.8
2516.467	2727.8
2520.165	2739.8
2523.859	2885.8
2527.551	2625.8
2531.239	2775.8
2534.923	2740.8
2538.605	2801.8
2542.283	2739.8
2545.958	2744.8
2549.63	2646.8
2553.299	2595.8
2556.964	2653.8
2560.626	2673.8
2564.285	2605.8
2567.941	2768.8
2571.594	2629.8
2575.243	2549.8
2578.89	2707.8
2582.533	2658.8
2586.173	2632.8
2589.809	2617.8
2593.443	2842.8
2597.073	2582.8
2600.701	2479.8
2604.325	2579.8
2607.946	2603.8
2611.564	2475.8
2615.178	2369.8
2618.79	2450.8
2622.398	2471.8
2626.004	2507.8
2629.606	2364.8
2633.205	2588.8
2636.801	2455.8
2640.394	2410.8
2643.983	2397.8
2647.57	2416.8
2651.153	2349.8
2654.734	2202.8
2658.311	2403.8
2661.885	2273.8
2665.456	2211.8
2669.025	2258.8
2672.589	2223.8
2676.151	2089.8
2679.71	2057.8
2683.266	2040.8
2686.819	2151.8
2690.368	1997.8
2693.915	2040.8
2697.458	2142.8
2700.999	1934.8
2704.536	1987.8
2708.071	1974.8
2711.602	1925.8
2715.13	1948.8
2718.656	1959.8
2722.178	1836.8
2725.697	1862.8
2729.214	1634.8
2732.727	1724.8
2736.237	1783.8
2739.744	1776.8
2743.249	1925.8
2746.75	1842.8
2750.248	1891.8
2753.743	1947.8
2757.236	1861.8
2760.725	1907.8
2764.211	2027.8
2767.695	1883.8
2771.175	1920.8
2774.652	1903.8
2778.127	1847.8
2781.598	1821.8
2785.067	1903.8
2788.532	1894.8
2791.995	1830.8
2795.455	1852.8
2798.911	1787.8
2802.365	1950.8
2805.816	1862.8
2809.264	1874.8
2812.709	1938.8
2816.151	1843.8
2819.59	2010.8
2823.026	1949.8
2826.46	1968.8
2829.89	1940.8
2833.318	2110.8
2836.742	1930.8
2840.164	1944.8
2843.583	2015.8
2846.999	2035.8
2850.412	1988.8
2853.822	2093.8
2857.229	1929.8
2860.634	2006.8
2864.035	2087.8
2867.434	2000.8
2870.83	2059.8
2874.223	2125.8
2877.613	1999.8
2881	2209.8
2884.385	2318.8
2887.766	2237.8
2891.145	2124.8
2894.521	2364.8
2897.894	2340.8
2901.264	2007.8
2904.631	2342.8
2907.996	2280.8
2911.358	2224.8
2914.717	2236.8
2918.073	2319.8
2921.426	2278.8
2924.777	2361.8
2928.124	2383.8
2931.469	2238.8
2934.811	2529.8
2938.15	2396.8
2941.487	2449.8
2944.821	2179.8
2948.152	2564.8
2951.48	2482.8
2954.805	2414.8
2958.128	2366.8
2961.447	2537.8
2964.765	2364.8
2968.079	2476.8
2971.39	2460.8
2974.699	2560.8
2978.005	2543.8
2981.308	2503.8
2984.609	2685.8
2987.907	2576.8
2991.202	2696.8
2994.494	2727.8
2997.784	2346.8
3001.07	2668.8
3004.355	2697.8
3007.636	2761.8
3010.915	2862.8
3014.191	2866.8
3017.464	2886.8
3020.734	2780.8
3024.002	2972.8
3027.267	3008.8
3030.53	3054.8
3033.789	3125.8
3037.046	3187.8
3040.301	3252.8
3043.552	3248.8
3046.801	3387.8
3050.048	3251.8
3053.291	3196.8
3056.532	3424.8
3059.771	3569.8
3063.006	3536.8
3066.239	3581.8
3069.469	3734.8
3072.697	3960.8
3075.922	4018.8
3079.144	4028.8
3082.364	4092.8
3085.581	4297.8
3088.795	4098.8
3092.007	4315.8
3095.216	4558.8
3098.423	4773.8
3101.627	4908.8
3104.828	4926.8
3108.026	5047.8
3111.222	5097.8
3114.416	5090.8
3117.607	5203.8
3120.795	5338.8
3123.98	5448.8
3127.163	5673.8
3130.344	5702.8
3133.521	5739.8
3136.696	5818.8
3139.869	5979.8
3143.039	6069.8
3146.206	6079.8
3149.371	6223.8
3152.533	6413.8
3155.693	6519.8
3158.85	6562.8
3162.005	6580.8
3165.157	6775.8
3168.306	6770.8
3171.453	6672.8
3174.597	6963.8
3177.739	6929.8
3180.878	6824.8
3184.014	6824.8
3187.149	6892.8
3190.28	6778.8
3193.409	6740.8
3196.536	6763.8
3199.659	6768.8
3202.781	6765.8
3205.9	6907.8
3209.016	6802.8
3212.13	6766.8
3215.241	6728.8
3218.35	6814.8
3221.456	6924.8
3224.56	6963.8
3227.661	6889.8
3230.76	7028.8
3233.856	6931.8
3236.95	6884.8
3240.041	6948.8
3243.13	6709.8
3246.216	6768.8
3249.3	6649.8
3252.382	6603.8
3255.46	6728.8
3258.537	7023.8
3261.611	6687.8
3264.682	6468.8
3267.751	6388.8
3270.818	6528.8
3273.882	6315.8
3276.943	6212.8
3280.002	6196.8
3283.059	6229.8
3286.113	6210.8
3289.165	6255.8
3292.214	6161.8
3295.261	5975.8
3298.306	6063.8
3301.348	5929.8
3304.387	5862.8
3307.425	5801.8
3310.459	5787.8
3313.492	5509.8
3316.521	5610.8
3319.549	5445.8
3322.574	5396.8
3325.597	5280.8
3328.617	5281.8
3331.635	5189.8
3334.65	5258.8
3337.663	5154.8
3340.674	5149.8
3343.682	5091.8
3346.688	5073.8
3349.691	4985.8
3352.692	5137.8
3355.691	4927.8
3358.687	4913.8
3361.681	4942.8
3364.673	4918.8
3367.662	4938.8
3370.649	4811.8
3373.633	4975.8
3376.615	4778.8
3379.595	4938.8
3382.572	4853.8
3385.547	4685.8
3388.52	4713.8
3391.49	4592.8
3394.458	4624.8
3397.424	4419.8
3400.387	4493.8
3403.348	4215.8
3406.307	4264.8
3409.263	4303.8
3412.217	4125.8
3415.168	4081.8
3418.118	4097.8
3421.065	3971.8
3424.009	3892.8
3426.951	3967.8
3429.891	3712.8
3432.829	3831.8
3435.764	3832.8
3438.697	3769.8
3441.628	3500.8
3444.557	3676.8
3447.483	3642.8
3450.407	3440.8
3453.328	3321.8
3456.247	3434.8
3459.164	3372.8
3462.079	3175.8
3464.991	3102.8
3467.902	3021.8
3470.809	2996.8
3473.715	2860.8
3476.618	2785.8
3479.519	2724.8
3482.418	2811.8
3485.315	2710.8
3488.209	2561.8
3491.101	2517.8
3493.99	2514.8
3496.878	2163.8
3499.763	2225.8
3502.646	2147.8
3505.527	2255.8
3508.405	2113.8
3511.281	2019.8
3514.155	2040.8
3517.027	2024.8
3519.897	2130.8
3522.764	1810.8
3525.629	1871.8
3528.492	1748.8
3531.352	1693.8
3534.211	1605.8
3537.067	1740.8
3539.921	1609.8
3542.773	1516.8
3545.622	1424.8
3548.469	1462.8
3551.315	1475.8
3554.157	1326.8
3556.998	1236.8
3559.837	1085.8
3562.673	1067.8
3565.507	1140.8
3568.339	1049.8
3571.169	1094.8
3573.996	967.8
3576.822	1038.8
3579.645	972.8
3582.466	932.8
3585.285	876.8
3588.101	805.8
3590.916	916.8
3593.728	800.8
3596.538	795.8
3599.346	727.8
3602.152	820.8
3604.956	775.8
3607.757	600.8
3610.556	754.8
3613.354	660.8
3616.149	600.8
3618.942	564.8
3621.732	410.8
3624.521	624.8
3627.307	527.8
3630.092	522.8
3632.874	440.8
3635.654	528.8
3638.432	579.8
3641.208	442.8
3643.982	511.8
3646.753	355.8
3649.523	461.8
3652.29	442.8
3655.055	439.8
3657.818	317.8
3660.579	238.8
3663.338	452.8
3666.095	279.8
3668.849	436.8
3671.602	281.8
3674.352	416.8
3677.101	287.8
3679.847	151.8
3682.591	311.8
3685.333	333.8
3688.073	209.8
3690.811	279.8
3693.547	184.8
3696.281	260.8
3699.013	163.8
3701.742	222.8
3704.47	308.8
3707.195	178.8
3709.919	173.8
3712.64	152.8
3715.359	81.8
3718.076	35.8
3720.792	181.8
3723.505	168.8
3726.216	111.8
3728.925	128.8
3731.632	14.8
3734.336	229.8
3737.039	140.8
3739.74	151.8
3742.439	220.8
3745.136	132.8
3747.83	48.8
3750.523	84.8
3753.213	757.8
3755.902	128.8
3758.589	187.8
3761.273	200.8
3763.956	-1.2
3766.636	150.8
3769.315	-57.2
3771.991	183.8
3774.665	68.8
3777.338	195.8
3780.008	132.8
3782.677	91.8
3785.343	219.8
3788.007	131.8
3790.67	86.8
3793.33	21.8
3795.989	73.8
3798.645	34.8
3801.299	195.8
3803.952	46.8
3806.602	68.8
3809.251	60.8
3811.897	25.8
3814.542	121.8
3817.184	78.8
3819.825	138.8
3822.463	3.8
3825.1	71.8
3827.735	90.8
3830.367	47.8
3832.998	-67.2
3835.627	-7.2
3838.253	13.8
3840.878	-177.2
3843.501	-86.2
3846.122	38.8
3848.741	-55.2
3851.358	-3.2
3853.973	178.8
3856.586	60.8
3859.197	-24.2
3861.806	38.8
3864.414	110.8
3867.019	73.8
3869.622	-10.2
3872.224	-111.2
3874.823	93.8
3877.421	84.8
3880.016	135.8
3882.61	223.8
3885.202	145.8
3887.792	131.8
3890.38	-54.2
3892.966	64.8
3895.55	33.8
3898.132	56.8
3900.713	-9.2
3903.291	34.8
3905.868	-22.2
3908.442	15.8
3911.015	44.8
3913.586	58.8
3916.155	118.8
3918.722	128.8
3921.287	80.8
3923.85	-201.2
3926.411	-39.2
3928.971	-40.2
3931.528	-11.2
3934.084	49.8
3936.638	18.8
3939.19	-3.2
3941.74	-4.2
3944.288	-33.2
3946.834	35.8
3949.378	-14.2
3951.921	111.8
3954.462	29.8
3957	10.8
3959.537	5.8
3962.072	111.8
3964.606	160.8
3967.137	5.8
3969.667	-8.2
3972.194	56.8
3974.72	82.8
3977.244	116.8
3979.766	62.8
3982.286	102.8
3984.805	-2.2
3987.321	-71.2
3989.836	-2.2
3992.349	97.8
3994.86	24.8
3997.369	25.8
3999.877	-15.2
4002.382	7.8
4004.886	71.8
4007.388	117.8
4009.888	169.8
4012.386	-26.2
4014.883	6.8
4017.377	32.8
4019.87	-56.2
4022.361	67.8
4024.85	127.8
4027.338	55.8
4029.823	-0.2
4032.307	16.8
4034.789	44.8
4037.269	55.8
4039.747	98.8
4042.224	8.8
4044.699	44.8
4047.172	32.8
4049.643	-68.2
4052.112	95.8
4054.58	52.8
4057.046	38.8
4059.51	87.8
4061.972	2.8
4064.432	137.8
4066.891	-33.2
4069.348	70.8
4071.803	-11.2
4074.256	2.8
4076.708	75.8
4079.158	104.8
4081.606	-81.2
4084.052	47.8
4086.497	-12.2
4088.939	64.8
4091.38	68.8
4093.819	-34.2
4096.257	-1183.2
4098.693	-1178.2
4101.127	-1239.2
4103.559	-1278.2
4105.989	198.8
4108.418	227.8
4110.845	385.8
4113.27	291.8
4115.694	499.8
4118.115	435.8
4120.535	-24.2
4122.954	-82.2
4125.37	-111.2
4127.785	-2.2
4130.198	12.8
4132.609	-17.2
4135.019	-1286.2
4137.427	-1267.2
4139.833	-1211.2
4142.237	-1044.2
