Data from 2018-2-8_conc=0_RamanShift_02.txt Node
Date: Wed Feb 07 09:21:10 IST 2018
User: aro
Spectrometer: QEPB0276
Trigger mode: 0
Integration Time (sec): 3.000000E1
Scans to average: 1
Electric dark correction enabled: true
Nonlinearity correction enabled: false
Boxcar width: 0
XAxis mode: Raman Shifts
Number of Pixels in Spectrum: 1044
>>>>>Begin Spectral Data<<<<<
160.701	127.5
166.742	242.5
172.777	632.5
178.805	1768.5
184.826	4347.5
190.841	8758.5
196.849	13817.5
202.85	17642.5
208.845	19006.5
214.833	18846.5
220.815	18550.5
226.789	18506.5
232.758	18520.5
238.719	18436.5
244.674	18260.5
250.623	17959.5
256.565	17705.5
262.5	17319.5
268.429	16950.5
274.351	16728.5
280.267	16774.5
286.176	16279.5
292.079	16135.5
297.975	15809.5
303.865	15772.5
309.748	15603.5
315.625	15594.5
321.495	15314.5
327.359	15398.5
333.217	15242.5
339.068	15256.5
344.912	15266.5
350.751	15257.5
356.583	15225.5
362.408	15228.5
368.227	15185.5
374.04	15364.5
379.847	15368.5
385.647	15396.5
391.44	15529.5
397.228	15675.5
403.009	15748.5
408.784	15903.5
414.553	15929.5
420.315	15998.5
426.071	16006.5
431.821	15986.5
437.565	15916.5
443.302	15740.5
449.033	15818.5
454.758	15710.5
460.477	15655.5
466.189	15555.5
471.896	15459.5
477.596	15354.5
483.29	15484.5
488.978	15382.5
494.66	15385.5
500.335	15423.5
506.005	15352.5
511.668	15180.5
517.325	15093.5
522.977	14967.5
528.622	14883.5
534.261	14756.5
539.894	14733.5
545.521	14679.5
551.141	14589.5
556.756	14478.5
562.365	14376.5
567.968	14266.5
573.565	14154.5
579.155	14084.5
584.74	14034.5
590.319	13941.5
595.892	13923.5
601.459	13972.5
607.02	13930.5
612.575	13910.5
618.124	13841.5
623.667	13915.5
629.204	13873.5
634.735	13779.5
640.261	13762.5
645.781	13885.5
651.294	13694.5
656.802	13542.5
662.304	13507.5
667.8	13330.5
673.29	13296.5
678.775	13271.5
684.254	13236.5
689.726	13216.5
695.193	13158.5
700.655	13138.5
706.11	13201.5
711.56	13218.5
717.004	13261.5
722.442	13362.5
727.874	13196.5
733.301	13317.5
738.722	13178.5
744.137	13092.5
749.547	13001.5
754.951	12935.5
760.349	12881.5
765.741	12819.5
771.128	12791.5
776.509	12763.5
781.885	12708.5
787.254	12720.5
792.618	12754.5
797.977	12846.5
803.33	12889.5
808.677	12910.5
814.019	12908.5
819.355	12927.5
824.686	12912.5
830.011	12879.5
835.33	12665.5
840.644	12549.5
845.952	12567.5
851.255	12315.5
856.552	12310.5
861.844	12217.5
867.13	12197.5
872.41	12160.5
877.686	12153.5
882.955	12220.5
888.219	12210.5
893.478	12251.5
898.731	12272.5
903.979	12168.5
909.221	12207.5
914.458	12140.5
919.69	11955.5
924.916	11897.5
930.136	11729.5
935.351	11673.5
940.561	11468.5
945.766	11402.5
950.965	11260.5
956.158	11391.5
961.347	11429.5
966.529	11471.5
971.707	11383.5
976.879	11412.5
982.046	11456.5
987.208	11421.5
992.364	11382.5
997.515	11369.5
1002.66	11185.5
1007.801	11304.5
1012.936	11287.5
1018.066	11190.5
1023.19	11100.5
1028.309	11130.5
1033.423	11120.5
1038.532	11254.5
1043.636	11366.5
1048.734	11372.5
1053.827	11403.5
1058.915	11413.5
1063.998	11312.5
1069.075	11199.5
1074.147	10971.5
1079.214	10975.5
1084.276	10771.5
1089.333	10734.5
1094.385	10754.5
1099.431	10690.5
1104.472	10703.5
1109.509	10848.5
1114.54	10870.5
1119.565	10932.5
1124.586	10860.5
1129.602	10888.5
1134.613	10796.5
1139.618	10672.5
1144.619	10578.5
1149.614	10491.5
1154.604	10339.5
1159.589	10342.5
1164.57	10143.5
1169.545	10119.5
1174.515	10197.5
1179.48	10264.5
1184.44	10327.5
1189.395	10451.5
1194.345	10501.5
1199.29	10560.5
1204.23	10529.5
1209.165	10562.5
1214.095	10451.5
1219.021	10352.5
1223.941	10377.5
1228.856	10312.5
1233.766	10250.5
1238.672	10174.5
1243.572	10141.5
1248.467	10195.5
1253.358	10347.5
1258.244	10270.5
1263.124	10279.5
1268	10099.5
1272.871	10125.5
1277.737	10083.5
1282.599	9889.5
1287.455	9754.5
1292.306	9596.5
1297.153	9614.5
1301.995	9475.5
1306.832	9470.5
1311.664	9501.5
1316.491	9573.5
1321.314	9501.5
1326.132	9562.5
1330.945	9511.5
1335.753	9496.5
1340.556	9318.5
1345.354	9265.5
1350.148	9076.5
1354.937	8998.5
1359.722	8935.5
1364.501	8724.5
1369.276	8689.5
1374.046	8739.5
1378.811	8695.5
1383.572	8782.5
1388.327	8754.5
1393.079	8802.5
1397.825	8914.5
1402.567	8904.5
1407.304	8844.5
1412.036	8829.5
1416.764	8863.5
1421.487	8990.5
1426.205	8654.5
1430.919	8582.5
1435.628	8439.5
1440.333	8427.5
1445.032	8364.5
1449.727	8418.5
1454.418	8419.5
1459.104	8346.5
1463.785	8431.5
1468.462	8309.5
1473.134	8321.5
1477.802	8233.5
1482.465	8171.5
1487.123	8006.5
1491.777	8099.5
1496.426	7887.5
1501.071	7848.5
1505.711	7883.5
1510.347	7853.5
1514.978	7949.5
1519.604	7998.5
1524.226	8037.5
1528.844	8254.5
1533.457	8158.5
1538.065	8238.5
1542.669	8280.5
1547.269	8351.5
1551.864	8345.5
1556.454	8373.5
1561.041	8293.5
1565.622	8222.5
1570.199	8057.5
1574.772	8056.5
1579.34	7900.5
1583.904	7987.5
1588.464	8005.5
1593.019	7982.5
1597.569	8033.5
1602.115	8070.5
1606.657	8061.5
1611.195	8089.5
1615.728	8164.5
1620.256	8188.5
1624.78	8178.5
1629.3	8129.5
1633.816	7989.5
1638.327	8036.5
1642.834	8022.5
1647.336	8036.5
1651.834	7906.5
1656.328	8001.5
1660.817	7945.5
1665.302	7912.5
1669.783	7954.5
1674.259	7878.5
1678.732	7736.5
1683.199	7518.5
1687.663	7458.5
1692.122	7197.5
1696.577	6969.5
1701.028	7083.5
1705.474	6917.5
1709.917	6910.5
1714.355	6845.5
1718.788	6756.5
1723.218	6624.5
1727.643	6438.5
1732.064	6467.5
1736.481	6328.5
1740.893	6275.5
1745.301	6137.5
1749.705	6091.5
1754.105	5864.5
1758.501	5826.5
1762.893	5676.5
1767.28	5586.5
1771.663	5353.5
1776.042	5317.5
1780.417	5260.5
1784.787	5127.5
1789.154	5185.5
1793.516	5061.5
1797.874	5288.5
1802.228	5337.5
1806.578	5506.5
1810.924	5391.5
1815.266	6202.5
1819.603	5369.5
1823.937	5422.5
1828.266	5300.5
1832.591	5336.5
1836.913	5281.5
1841.23	5255.5
1845.543	5235.5
1849.852	5126.5
1854.156	5046.5
1858.457	5089.5
1862.754	4980.5
1867.047	4955.5
1871.335	4925.5
1875.62	4933.5
1879.9	4928.5
1884.177	4961.5
1888.449	4919.5
1892.718	4913.5
1896.982	4795.5
1901.243	4959.5
1905.499	4858.5
1909.752	4873.5
1914	4859.5
1918.245	4874.5
1922.485	4855.5
1926.722	4900.5
1930.954	4843.5
1935.183	4844.5
1939.408	4807.5
1943.628	4903.5
1947.845	4906.5
1952.058	4910.5
1956.267	4856.5
1960.472	4820.5
1964.673	4944.5
1968.87	4833.5
1973.063	4803.5
1977.252	4733.5
1981.438	4598.5
1985.619	4581.5
1989.797	4545.5
1993.971	4441.5
1998.14	4362.5
2002.306	4361.5
2006.469	4330.5
2010.627	4292.5
2014.781	4181.5
2018.932	4290.5
2023.078	4202.5
2027.221	4176.5
2031.36	4196.5
2035.495	4150.5
2039.627	4146.5
2043.754	4145.5
2047.878	4086.5
2051.998	4072.5
2056.114	4047.5
2060.226	4014.5
2064.334	4018.5
2068.439	3948.5
2072.54	3933.5
2076.637	4021.5
2080.73	3973.5
2084.82	4011.5
2088.906	4023.5
2092.988	3880.5
2097.066	4145.5
2101.14	4071.5
2105.211	4101.5
2109.278	4068.5
2113.342	4121.5
2117.401	4102.5
2121.457	4027.5
2125.509	4029.5
2129.558	3941.5
2133.602	3952.5
2137.643	3813.5
2141.681	3794.5
2145.714	3774.5
2149.744	3785.5
2153.77	3634.5
2157.793	3626.5
2161.812	3691.5
2165.827	3636.5
2169.838	3599.5
2173.846	3613.5
2177.851	3533.5
2181.851	3537.5
2185.848	3618.5
2189.841	3321.5
2193.831	3403.5
2197.817	3336.5
2201.799	3338.5
2205.778	3321.5
2209.753	3314.5
2213.725	3286.5
2217.693	3248.5
2221.657	3223.5
2225.618	3199.5
2229.575	3163.5
2233.529	3115.5
2237.479	3172.5
2241.425	3184.5
2245.368	3177.5
2249.307	3149.5
2253.243	3139.5
2257.175	3120.5
2261.104	3047.5
2265.029	2937.5
2268.95	2972.5
2272.868	2926.5
2276.783	2849.5
2280.694	2786.5
2284.601	2749.5
2288.505	2731.5
2292.405	2696.5
2296.302	2723.5
2300.195	2648.5
2304.085	2684.5
2307.971	2631.5
2311.854	2611.5
2315.734	2628.5
2319.609	2605.5
2323.482	2656.5
2327.351	2522.5
2331.216	2551.5
2335.078	2592.5
2338.937	2557.5
2342.792	2510.5
2346.643	2434.5
2350.492	2482.5
2354.336	2449.5
2358.178	2460.5
2362.015	2460.5
2365.85	2448.5
2369.681	2514.5
2373.508	2466.5
2377.333	2413.5
2381.153	2522.5
2384.971	2488.5
2388.785	2459.5
2392.595	2479.5
2396.402	2524.5
2400.206	2513.5
2404.007	2523.5
2407.804	2448.5
2411.597	2370.5
2415.388	2439.5
2419.174	2385.5
2422.958	2327.5
2426.738	2322.5
2430.515	2206.5
2434.289	2315.5
2438.059	2241.5
2441.825	2255.5
2445.589	2201.5
2449.349	2266.5
2453.106	2238.5
2456.859	2190.5
2460.61	2162.5
2464.356	2188.5
2468.1	2128.5
2471.84	2217.5
2475.577	2169.5
2479.311	2101.5
2483.041	2093.5
2486.768	2014.5
2490.492	2015.5
2494.213	2169.5
2497.93	2108.5
2501.644	2091.5
2505.355	2088.5
2509.062	2028.5
2512.766	2082.5
2516.467	2067.5
2520.165	2063.5
2523.859	2051.5
2527.551	1890.5
2531.239	2048.5
2534.923	2003.5
2538.605	2011.5
2542.283	2009.5
2545.958	1947.5
2549.63	1990.5
2553.299	1949.5
2556.964	1960.5
2560.626	1943.5
2564.285	1869.5
2567.941	2022.5
2571.594	1920.5
2575.243	1877.5
2578.89	1913.5
2582.533	1899.5
2586.173	1879.5
2589.809	1815.5
2593.443	1922.5
2597.073	1870.5
2600.701	1717.5
2604.325	1860.5
2607.946	1872.5
2611.564	1832.5
2615.178	1769.5
2618.79	1680.5
2622.398	1756.5
2626.004	1810.5
2629.606	1719.5
2633.205	1830.5
2636.801	1741.5
2640.394	1690.5
2643.983	1675.5
2647.57	1654.5
2651.153	1622.5
2654.734	1544.5
2658.311	1663.5
2661.885	1630.5
2665.456	1583.5
2669.025	1551.5
2672.589	1510.5
2676.151	1457.5
2679.71	1445.5
2683.266	1384.5
2686.819	1465.5
2690.368	1412.5
2693.915	1471.5
2697.458	1444.5
2700.999	1378.5
2704.536	1372.5
2708.071	1336.5
2711.602	1369.5
2715.13	1291.5
2718.656	1314.5
2722.178	1216.5
2725.697	1215.5
2729.214	1148.5
2732.727	1175.5
2736.237	1253.5
2739.744	1200.5
2743.249	1238.5
2746.75	1255.5
2750.248	1211.5
2753.743	1335.5
2757.236	1238.5
2760.725	1253.5
2764.211	1361.5
2767.695	1250.5
2771.175	1283.5
2774.652	1279.5
2778.127	1279.5
2781.598	1282.5
2785.067	1260.5
2788.532	1269.5
2791.995	1340.5
2795.455	1270.5
2798.911	1287.5
2802.365	1288.5
2805.816	1257.5
2809.264	1234.5
2812.709	1243.5
2816.151	1282.5
2819.59	1285.5
2823.026	1312.5
2826.46	1312.5
2829.89	1286.5
2833.318	1378.5
2836.742	1338.5
2840.164	1299.5
2843.583	1311.5
2846.999	1306.5
2850.412	1289.5
2853.822	1348.5
2857.229	1285.5
2860.634	1284.5
2864.035	1351.5
2867.434	1331.5
2870.83	1237.5
2874.223	1381.5
2877.613	1266.5
2881	1462.5
2884.385	1490.5
2887.766	1495.5
2891.145	1541.5
2894.521	1461.5
2897.894	1498.5
2901.264	1432.5
2904.631	1513.5
2907.996	1468.5
2911.358	1483.5
2914.717	1486.5
2918.073	1448.5
2921.426	1391.5
2924.777	1485.5
2928.124	1574.5
2931.469	1532.5
2934.811	1577.5
2938.15	1535.5
2941.487	1573.5
2944.821	1560.5
2948.152	1639.5
2951.48	1430.5
2954.805	1556.5
2958.128	1514.5
2961.447	1645.5
2964.765	1521.5
2968.079	1620.5
2971.39	1559.5
2974.699	1590.5
2978.005	1606.5
2981.308	1613.5
2984.609	1644.5
2987.907	1686.5
2991.202	1734.5
2994.494	1757.5
2997.784	1730.5
3001.07	1759.5
3004.355	1723.5
3007.636	1762.5
3010.915	1823.5
3014.191	1901.5
3017.464	1860.5
3020.734	1894.5
3024.002	1957.5
3027.267	1929.5
3030.53	1997.5
3033.789	2012.5
3037.046	2057.5
3040.301	2086.5
3043.552	2121.5
3046.801	2172.5
3050.048	2127.5
3053.291	2107.5
3056.532	2255.5
3059.771	2304.5
3063.006	2292.5
3066.239	2366.5
3069.469	2414.5
3072.697	2608.5
3075.922	2583.5
3079.144	2599.5
3082.364	2747.5
3085.581	2847.5
3088.795	2901.5
3092.007	2967.5
3095.216	3079.5
3098.423	3199.5
3101.627	3247.5
3104.828	3270.5
3108.026	3383.5
3111.222	3415.5
3114.416	3463.5
3117.607	3579.5
3120.795	3596.5
3123.98	3738.5
3127.163	3757.5
3130.344	3810.5
3133.521	3872.5
3136.696	3992.5
3139.869	4071.5
3143.039	4152.5
3146.206	4170.5
3149.371	4320.5
3152.533	4361.5
3155.693	4433.5
3158.85	4468.5
3162.005	4507.5
3165.157	4590.5
3168.306	4621.5
3171.453	4545.5
3174.597	4652.5
3177.739	4619.5
3180.878	4577.5
3184.014	4542.5
3187.149	4643.5
3190.28	4544.5
3193.409	4604.5
3196.536	4612.5
3199.659	4542.5
3202.781	4516.5
3205.9	4602.5
3209.016	4543.5
3212.13	4594.5
3215.241	4665.5
3218.35	4620.5
3221.456	4644.5
3224.56	4597.5
3227.661	4625.5
3230.76	4642.5
3233.856	4672.5
3236.95	4597.5
3240.041	4652.5
3243.13	4517.5
3246.216	4531.5
3249.3	4417.5
3252.382	4438.5
3255.46	4493.5
3258.537	4566.5
3261.611	4417.5
3264.682	4262.5
3267.751	4280.5
3270.818	4307.5
3273.882	4133.5
3276.943	4132.5
3280.002	4150.5
3283.059	4068.5
3286.113	4059.5
3289.165	4082.5
3292.214	4098.5
3295.261	3879.5
3298.306	3906.5
3301.348	3855.5
3304.387	3870.5
3307.425	3793.5
3310.459	3799.5
3313.492	3641.5
3316.521	3645.5
3319.549	3537.5
3322.574	3497.5
3325.597	3472.5
3328.617	3413.5
3331.635	3368.5
3334.65	3404.5
3337.663	3379.5
3340.674	3353.5
3343.682	3256.5
3346.688	3208.5
3349.691	3209.5
3352.692	3253.5
3355.691	3129.5
3358.687	3264.5
3361.681	3238.5
3364.673	3161.5
3367.662	3175.5
3370.649	3227.5
3373.633	3200.5
3376.615	3164.5
3379.595	3150.5
3382.572	3041.5
3385.547	3074.5
3388.52	3021.5
3391.49	2926.5
3394.458	2930.5
3397.424	2885.5
3400.387	2871.5
3403.348	2606.5
3406.307	2709.5
3409.263	2696.5
3412.217	2591.5
3415.168	2574.5
3418.118	2583.5
3421.065	2580.5
3424.009	2474.5
3426.951	2482.5
3429.891	2256.5
3432.829	2425.5
3435.764	2414.5
3438.697	2384.5
3441.628	2266.5
3444.557	2308.5
3447.483	2302.5
3450.407	2175.5
3453.328	2160.5
3456.247	2163.5
3459.164	2126.5
3462.079	1995.5
3464.991	1966.5
3467.902	1877.5
3470.809	1870.5
3473.715	1784.5
3476.618	1737.5
3479.519	1726.5
3482.418	1729.5
3485.315	1561.5
3488.209	1522.5
3491.101	1527.5
3493.99	1533.5
3496.878	1186.5
3499.763	1332.5
3502.646	1267.5
3505.527	1324.5
3508.405	1249.5
3511.281	1205.5
3514.155	1220.5
3517.027	1171.5
3519.897	1247.5
3522.764	1005.5
3525.629	1011.5
3528.492	1010.5
3531.352	960.5
3534.211	928.5
3537.067	902.5
3539.921	837.5
3542.773	871.5
3545.622	771.5
3548.469	730.5
3551.315	770.5
3554.157	680.5
3556.998	565.5
3559.837	530.5
3562.673	509.5
3565.507	512.5
3568.339	505.5
3571.169	521.5
3573.996	511.5
3576.822	507.5
3579.645	441.5
3582.466	422.5
3585.285	378.5
3588.101	349.5
3590.916	404.5
3593.728	285.5
3596.538	363.5
3599.346	317.5
3602.152	333.5
3604.956	287.5
3607.757	244.5
3610.556	290.5
3613.354	180.5
3616.149	195.5
3618.942	173.5
3621.732	10.5
3624.521	179.5
3627.307	155.5
3630.092	100.5
3632.874	131.5
3635.654	138.5
3638.432	112.5
3641.208	55.5
3643.982	100.5
3646.753	74.5
3649.523	43.5
3652.29	78.5
3655.055	107.5
3657.818	-29.5
3660.579	75.5
3663.338	89.5
3666.095	-90.5
3668.849	82.5
3671.602	-7.5
3674.352	-28.5
3677.101	19.5
3679.847	-48.5
3682.591	-30.5
3685.333	-61.5
3688.073	-98.5
3690.811	-48.5
3693.547	17.5
3696.281	-16.5
3699.013	-166.5
3701.742	-102.5
3704.47	-41.5
3707.195	-120.5
3709.919	-135.5
3712.64	-137.5
3715.359	-300.5
3718.076	-142.5
3720.792	-103.5
3723.505	-104.5
3726.216	-131.5
3728.925	-172.5
3731.632	-121.5
3734.336	-87.5
3737.039	-114.5
3739.74	-120.5
3742.439	-3.5
3745.136	-118.5
3747.83	-140.5
3750.523	-127.5
3753.213	-568.5
3755.902	-209.5
3758.589	-106.5
3761.273	-73.5
3763.956	-242.5
3766.636	-185.5
3769.315	-218.5
3771.991	-121.5
3774.665	-168.5
3777.338	-123.5
3780.008	-130.5
3782.677	-168.5
3785.343	-112.5
3788.007	103.5
3790.67	-193.5
3793.33	-112.5
3795.989	-168.5
3798.645	-176.5
3801.299	-133.5
3803.952	-215.5
3806.602	-168.5
3809.251	-225.5
3811.897	-152.5
3814.542	-246.5
3817.184	-178.5
3819.825	-175.5
3822.463	-196.5
3825.1	-174.5
3827.735	-169.5
3830.367	-199.5
3832.998	-260.5
3835.627	-253.5
3838.253	-213.5
3840.878	-218.5
3843.501	-275.5
3846.122	-244.5
3848.741	-237.5
3851.358	-211.5
3853.973	-173.5
3856.586	-168.5
3859.197	-254.5
3861.806	-261.5
3864.414	-139.5
3867.019	-206.5
3869.622	-238.5
3872.224	-289.5
3874.823	-185.5
3877.421	-162.5
3880.016	-151.5
3882.61	-43.5
3885.202	-190.5
3887.792	-157.5
3890.38	-215.5
3892.966	-141.5
3895.55	-197.5
3898.132	-165.5
3900.713	-231.5
3903.291	-184.5
3905.868	-208.5
3908.442	-213.5
3911.015	-205.5
3913.586	-271.5
3916.155	-266.5
3918.722	-146.5
3921.287	-193.5
3923.85	-190.5
3926.411	-255.5
3928.971	-286.5
3931.528	-241.5
3934.084	-262.5
3936.638	-237.5
3939.19	-240.5
3941.74	-221.5
3944.288	-242.5
3946.834	-214.5
3949.378	-237.5
3951.921	-177.5
3954.462	-224.5
3957	-241.5
3959.537	-178.5
3962.072	-197.5
3964.606	-181.5
3967.137	-252.5
3969.667	-226.5
3972.194	-207.5
3974.72	-195.5
3977.244	-230.5
3979.766	-183.5
3982.286	-181.5
3984.805	-257.5
3987.321	-237.5
3989.836	-223.5
3992.349	-205.5
3994.86	-219.5
3997.369	-250.5
3999.877	-282.5
4002.382	-224.5
4004.886	-293.5
4007.388	-207.5
4009.888	-73.5
4012.386	-236.5
4014.883	-229.5
4017.377	-247.5
4019.87	-322.5
4022.361	-213.5
4024.85	-207.5
4027.338	-100.5
4029.823	-239.5
4032.307	-191.5
4034.789	-165.5
4037.269	-201.5
4039.747	-164.5
4042.224	-265.5
4044.699	-218.5
4047.172	-196.5
4049.643	-295.5
4052.112	-216.5
4054.58	-235.5
4057.046	-169.5
4059.51	-189.5
4061.972	-251.5
4064.432	-147.5
4066.891	-182.5
4069.348	-191.5
4071.803	-268.5
4074.256	-228.5
4076.708	-236.5
4079.158	-211.5
4081.606	-255.5
4084.052	-184.5
4086.497	-225.5
4088.939	-182.5
4091.38	-195.5
4093.819	-202.5
4096.257	-698.5
4098.693	-664.5
4101.127	-702.5
4103.559	-720.5
4105.989	23.5
4108.418	51.5
4110.845	60.5
4113.27	7.5
4115.694	94.5
4118.115	77.5
4120.535	-273.5
4122.954	-269.5
4125.37	-254.5
4127.785	-243.5
4130.198	-295.5
4132.609	-252.5
4135.019	-719.5
4137.427	-739.5
4139.833	-690.5
4142.237	-621.5
