Data from 2018-2-8_conc=6_RamanShift_11.txt Node
Date: Wed Feb 07 11:30:10 IST 2018
User: aro
Spectrometer: QEPB0276
Trigger mode: 0
Integration Time (sec): 3.000000E1
Scans to average: 1
Electric dark correction enabled: true
Nonlinearity correction enabled: false
Boxcar width: 0
XAxis mode: Raman Shifts
Number of Pixels in Spectrum: 1044
>>>>>Begin Spectral Data<<<<<
160.701	806.4
166.742	909.4
172.777	1356.4
178.805	2697.4
184.826	5593.4
190.841	10515.4
196.849	16494.4
202.85	20877.4
208.845	22492.4
214.833	22361.4
220.815	22119.4
226.789	22067.4
232.758	21915.4
238.719	21864.4
244.674	21759.4
250.623	21354.4
256.565	21018.4
262.5	20725.4
268.429	20168.4
274.351	19953.4
280.267	19932.4
286.176	19387.4
292.079	19188.4
297.975	18876.4
303.865	18888.4
309.748	18657.4
315.625	18547.4
321.495	18107.4
327.359	18145.4
333.217	18305.4
339.068	18269.4
344.912	18324.4
350.751	18322.4
356.583	18093.4
362.408	18176.4
368.227	18096.4
374.04	18289.4
379.847	18305.4
385.647	18444.4
391.44	18688.4
397.228	18566.4
403.009	18780.4
408.784	18691.4
414.553	18958.4
420.315	18984.4
426.071	19153.4
431.821	18971.4
437.565	19024.4
443.302	18894.4
449.033	18840.4
454.758	18820.4
460.477	18662.4
466.189	18577.4
471.896	18442.4
477.596	18322.4
483.29	18399.4
488.978	18363.4
494.66	18401.4
500.335	18386.4
506.005	18222.4
511.668	17926.4
517.325	17845.4
522.977	17689.4
528.622	17529.4
534.261	17401.4
539.894	17470.4
545.521	17329.4
551.141	17233.4
556.756	17060.4
562.365	16909.4
567.968	16785.4
573.565	16684.4
579.155	16537.4
584.74	16515.4
590.319	16328.4
595.892	16264.4
601.459	16301.4
607.02	16315.4
612.575	16294.4
618.124	16118.4
623.667	16322.4
629.204	16201.4
634.735	16248.4
640.261	16063.4
645.781	16464.4
651.294	16093.4
656.802	15846.4
662.304	15772.4
667.8	15455.4
673.29	15616.4
678.775	15461.4
684.254	15587.4
689.726	15578.4
695.193	15333.4
700.655	15399.4
706.11	15597.4
711.56	15319.4
717.004	15394.4
722.442	15720.4
727.874	15473.4
733.301	15407.4
738.722	15513.4
744.137	15289.4
749.547	15237.4
754.951	15133.4
760.349	15010.4
765.741	14827.4
771.128	14848.4
776.509	14943.4
781.885	14832.4
787.254	14770.4
792.618	14903.4
797.977	15066.4
803.33	15048.4
808.677	15141.4
814.019	14999.4
819.355	15005.4
824.686	15087.4
830.011	15105.4
835.33	14817.4
840.644	14674.4
845.952	14693.4
851.255	14397.4
856.552	14413.4
861.844	14237.4
867.13	14226.4
872.41	14169.4
877.686	14032.4
882.955	14136.4
888.219	14235.4
893.478	14324.4
898.731	14147.4
903.979	14128.4
909.221	14172.4
914.458	14137.4
919.69	14008.4
924.916	13856.4
930.136	13630.4
935.351	13609.4
940.561	13366.4
945.766	13307.4
950.965	12974.4
956.158	13343.4
961.347	13368.4
966.529	13306.4
971.707	13185.4
976.879	13217.4
982.046	13288.4
987.208	13362.4
992.364	13245.4
997.515	13156.4
1002.66	12965.4
1007.801	13228.4
1012.936	13139.4
1018.066	13197.4
1023.19	12956.4
1028.309	12759.4
1033.423	12929.4
1038.532	13023.4
1043.636	13236.4
1048.734	13181.4
1053.827	13316.4
1058.915	13314.4
1063.998	13104.4
1069.075	13016.4
1074.147	12687.4
1079.214	12845.4
1084.276	12444.4
1089.333	12496.4
1094.385	12363.4
1099.431	12524.4
1104.472	12359.4
1109.509	12572.4
1114.54	12589.4
1119.565	12663.4
1124.586	12604.4
1129.602	12641.4
1134.613	12541.4
1139.618	12512.4
1144.619	12323.4
1149.614	12061.4
1154.604	12078.4
1159.589	12008.4
1164.57	11748.4
1169.545	11766.4
1174.515	11786.4
1179.48	11932.4
1184.44	11883.4
1189.395	12046.4
1194.345	12232.4
1199.29	12154.4
1204.23	12245.4
1209.165	12216.4
1214.095	11997.4
1219.021	11939.4
1223.941	11936.4
1228.856	11980.4
1233.766	11902.4
1238.672	11753.4
1243.572	11748.4
1248.467	11744.4
1253.358	11913.4
1258.244	11953.4
1263.124	11835.4
1268	11640.4
1272.871	11736.4
1277.737	11632.4
1282.599	11505.4
1287.455	11405.4
1292.306	11111.4
1297.153	11280.4
1301.995	10986.4
1306.832	10865.4
1311.664	10988.4
1316.491	11007.4
1321.314	11007.4
1326.132	10916.4
1330.945	10918.4
1335.753	10792.4
1340.556	10732.4
1345.354	10629.4
1350.148	10387.4
1354.937	10281.4
1359.722	10266.4
1364.501	10084.4
1369.276	9743.4
1374.046	9844.4
1378.811	10041.4
1383.572	10054.4
1388.327	9681.4
1393.079	10208.4
1397.825	10253.4
1402.567	10272.4
1407.304	10162.4
1412.036	10237.4
1416.764	10034.4
1421.487	10370.4
1426.205	10040.4
1430.919	9966.4
1435.628	9810.4
1440.333	9746.4
1445.032	9558.4
1449.727	9488.4
1454.418	9637.4
1459.104	9604.4
1463.785	9449.4
1468.462	9448.4
1473.134	9506.4
1477.802	9323.4
1482.465	9482.4
1487.123	8915.4
1491.777	9228.4
1496.426	9204.4
1501.071	8845.4
1505.711	8927.4
1510.347	8932.4
1514.978	9004.4
1519.604	9033.4
1524.226	9012.4
1528.844	9441.4
1533.457	9169.4
1538.065	9462.4
1542.669	9399.4
1547.269	9449.4
1551.864	9288.4
1556.454	9637.4
1561.041	9546.4
1565.622	9589.4
1570.199	9270.4
1574.772	9288.4
1579.34	9089.4
1583.904	9183.4
1588.464	9147.4
1593.019	9099.4
1597.569	9333.4
1602.115	9174.4
1606.657	9369.4
1611.195	9400.4
1615.728	9352.4
1620.256	9566.4
1624.78	9556.4
1629.3	9552.4
1633.816	9310.4
1638.327	9384.4
1642.834	9216.4
1647.336	9192.4
1651.834	9090.4
1656.328	9237.4
1660.817	9058.4
1665.302	9226.4
1669.783	9198.4
1674.259	8973.4
1678.732	8700.4
1683.199	8624.4
1687.663	8600.4
1692.122	8125.4
1696.577	7980.4
1701.028	7936.4
1705.474	7843.4
1709.917	7803.4
1714.355	7782.4
1718.788	7672.4
1723.218	7599.4
1727.643	7409.4
1732.064	7261.4
1736.481	7424.4
1740.893	7116.4
1745.301	7017.4
1749.705	7196.4
1754.105	6717.4
1758.501	6771.4
1762.893	6437.4
1767.28	6495.4
1771.663	6267.4
1776.042	6147.4
1780.417	6062.4
1784.787	5818.4
1789.154	5875.4
1793.516	5931.4
1797.874	6056.4
1802.228	6110.4
1806.578	6237.4
1810.924	6057.4
1815.266	7066.4
1819.603	6207.4
1823.937	6270.4
1828.266	6147.4
1832.591	6080.4
1836.913	6125.4
1841.23	6158.4
1845.543	6153.4
1849.852	5973.4
1854.156	5918.4
1858.457	5877.4
1862.754	5604.4
1867.047	5771.4
1871.335	5574.4
1875.62	5543.4
1879.9	5520.4
1884.177	5790.4
1888.449	5570.4
1892.718	5619.4
1896.982	5532.4
1901.243	5746.4
1905.499	5622.4
1909.752	5497.4
1914	5758.4
1918.245	5493.4
1922.485	5453.4
1926.722	5569.4
1930.954	5590.4
1935.183	5545.4
1939.408	5448.4
1943.628	5546.4
1947.845	5583.4
1952.058	5699.4
1956.267	5452.4
1960.472	5390.4
1964.673	5548.4
1968.87	5642.4
1973.063	5636.4
1977.252	5436.4
1981.438	5435.4
1985.619	5389.4
1989.797	5247.4
1993.971	5223.4
1998.14	5110.4
2002.306	5120.4
2006.469	5077.4
2010.627	5094.4
2014.781	5108.4
2018.932	5102.4
2023.078	4850.4
2027.221	4805.4
2031.36	4983.4
2035.495	4999.4
2039.627	4904.4
2043.754	4864.4
2047.878	4807.4
2051.998	4853.4
2056.114	4808.4
2060.226	4825.4
2064.334	4746.4
2068.439	4600.4
2072.54	4579.4
2076.637	4863.4
2080.73	4705.4
2084.82	4634.4
2088.906	4694.4
2092.988	4649.4
2097.066	4856.4
2101.14	4633.4
2105.211	4686.4
2109.278	4736.4
2113.342	4687.4
2117.401	4866.4
2121.457	4821.4
2125.509	4798.4
2129.558	4526.4
2133.602	4651.4
2137.643	4620.4
2141.681	4564.4
2145.714	4450.4
2149.744	4458.4
2153.77	4492.4
2157.793	4416.4
2161.812	4593.4
2165.827	4501.4
2169.838	4186.4
2173.846	4298.4
2177.851	4280.4
2181.851	4075.4
2185.848	4403.4
2189.841	4213.4
2193.831	4297.4
2197.817	3963.4
2201.799	4020.4
2205.778	4127.4
2209.753	4133.4
2213.725	4011.4
2217.693	3983.4
2221.657	4012.4
2225.618	3901.4
2229.575	3898.4
2233.529	3805.4
2237.479	3871.4
2241.425	3857.4
2245.368	3990.4
2249.307	3885.4
2253.243	3876.4
2257.175	3824.4
2261.104	3805.4
2265.029	3661.4
2268.95	3663.4
2272.868	3690.4
2276.783	3741.4
2280.694	3417.4
2284.601	3495.4
2288.505	3436.4
2292.405	3273.4
2296.302	3523.4
2300.195	3330.4
2304.085	3526.4
2307.971	3271.4
2311.854	3412.4
2315.734	3231.4
2319.609	3251.4
2323.482	3471.4
2327.351	3284.4
2331.216	3296.4
2335.078	3248.4
2338.937	3316.4
2342.792	3270.4
2346.643	3245.4
2350.492	3214.4
2354.336	3265.4
2358.178	3168.4
2362.015	3127.4
2365.85	3197.4
2369.681	3232.4
2373.508	3230.4
2377.333	3064.4
2381.153	3235.4
2384.971	3281.4
2388.785	3246.4
2392.595	3264.4
2396.402	3187.4
2400.206	3323.4
2404.007	3358.4
2407.804	3228.4
2411.597	3063.4
2415.388	3193.4
2419.174	3177.4
2422.958	3081.4
2426.738	3096.4
2430.515	3028.4
2434.289	3127.4
2438.059	3153.4
2441.825	3102.4
2445.589	2853.4
2449.349	3113.4
2453.106	2960.4
2456.859	2954.4
2460.61	2887.4
2464.356	2936.4
2468.1	2929.4
2471.84	2973.4
2475.577	2917.4
2479.311	2824.4
2483.041	2797.4
2486.768	2635.4
2490.492	2488.4
2494.213	2791.4
2497.93	2824.4
2501.644	2817.4
2505.355	2887.4
2509.062	2687.4
2512.766	2736.4
2516.467	2781.4
2520.165	2717.4
2523.859	2926.4
2527.551	2487.4
2531.239	2706.4
2534.923	2723.4
2538.605	2728.4
2542.283	2701.4
2545.958	2701.4
2549.63	2508.4
2553.299	2537.4
2556.964	2449.4
2560.626	2683.4
2564.285	2550.4
2567.941	2640.4
2571.594	2607.4
2575.243	2500.4
2578.89	2664.4
2582.533	2671.4
2586.173	2607.4
2589.809	2602.4
2593.443	2857.4
2597.073	2601.4
2600.701	2406.4
2604.325	2502.4
2607.946	2565.4
2611.564	2484.4
2615.178	2350.4
2618.79	2433.4
2622.398	2546.4
2626.004	2471.4
2629.606	2368.4
2633.205	2629.4
2636.801	2427.4
2640.394	2335.4
2643.983	2418.4
2647.57	2416.4
2651.153	2316.4
2654.734	2166.4
2658.311	2470.4
2661.885	2294.4
2665.456	2270.4
2669.025	2273.4
2672.589	2246.4
2676.151	2102.4
2679.71	2071.4
2683.266	2291.4
2686.819	1937.4
2690.368	2122.4
2693.915	2107.4
2697.458	2186.4
2700.999	2014.4
2704.536	2024.4
2708.071	2034.4
2711.602	1964.4
2715.13	2026.4
2718.656	2058.4
2722.178	1890.4
2725.697	2016.4
2729.214	1724.4
2732.727	1854.4
2736.237	1915.4
2739.744	1854.4
2743.249	1968.4
2746.75	2011.4
2750.248	1955.4
2753.743	1951.4
2757.236	1909.4
2760.725	1900.4
2764.211	2156.4
2767.695	1985.4
2771.175	1974.4
2774.652	1894.4
2778.127	1905.4
2781.598	1859.4
2785.067	1955.4
2788.532	1976.4
2791.995	1875.4
2795.455	1915.4
2798.911	1855.4
2802.365	2093.4
2805.816	1931.4
2809.264	1788.4
2812.709	2009.4
2816.151	1952.4
2819.59	2093.4
2823.026	2073.4
2826.46	2124.4
2829.89	2000.4
2833.318	2238.4
2836.742	1995.4
2840.164	1954.4
2843.583	2140.4
2846.999	2064.4
2850.412	2017.4
2853.822	2174.4
2857.229	1905.4
2860.634	2073.4
2864.035	2184.4
2867.434	2042.4
2870.83	2035.4
2874.223	2144.4
2877.613	1998.4
2881	2232.4
2884.385	2315.4
2887.766	2217.4
2891.145	2192.4
2894.521	2298.4
2897.894	2359.4
2901.264	1984.4
2904.631	2258.4
2907.996	2249.4
2911.358	2188.4
2914.717	2334.4
2918.073	2312.4
2921.426	2264.4
2924.777	2431.4
2928.124	2381.4
2931.469	2229.4
2934.811	2585.4
2938.15	2289.4
2941.487	2429.4
2944.821	2061.4
2948.152	2486.4
2951.48	2424.4
2954.805	2419.4
2958.128	2281.4
2961.447	2447.4
2964.765	2275.4
2968.079	2521.4
2971.39	2443.4
2974.699	2455.4
2978.005	2462.4
2981.308	2485.4
2984.609	2656.4
2987.907	2484.4
2991.202	2547.4
2994.494	2647.4
2997.784	2198.4
3001.07	2490.4
3004.355	2591.4
3007.636	2659.4
3010.915	2704.4
3014.191	2722.4
3017.464	2769.4
3020.734	2693.4
3024.002	2807.4
3027.267	2919.4
3030.53	2803.4
3033.789	2907.4
3037.046	3016.4
3040.301	3031.4
3043.552	3102.4
3046.801	3092.4
3050.048	2989.4
3053.291	2896.4
3056.532	3127.4
3059.771	3348.4
3063.006	3252.4
3066.239	3312.4
3069.469	3414.4
3072.697	3666.4
3075.922	3698.4
3079.144	3659.4
3082.364	3606.4
3085.581	3926.4
3088.795	3663.4
3092.007	3868.4
3095.216	4090.4
3098.423	4316.4
3101.627	4452.4
3104.828	4432.4
3108.026	4543.4
3111.222	4566.4
3114.416	4548.4
3117.607	4701.4
3120.795	4775.4
3123.98	4888.4
3127.163	5109.4
3130.344	5066.4
3133.521	5159.4
3136.696	5121.4
3139.869	5248.4
3143.039	5368.4
3146.206	5304.4
3149.371	5522.4
3152.533	5656.4
3155.693	5759.4
3158.85	5795.4
3162.005	5748.4
3165.157	5888.4
3168.306	5951.4
3171.453	5821.4
3174.597	6141.4
3177.739	6146.4
3180.878	5912.4
3184.014	5958.4
3187.149	6055.4
3190.28	5917.4
3193.409	5958.4
3196.536	5853.4
3199.659	5860.4
3202.781	5863.4
3205.9	6074.4
3209.016	5933.4
3212.13	5895.4
3215.241	5931.4
3218.35	5862.4
3221.456	6137.4
3224.56	6134.4
3227.661	6086.4
3230.76	6163.4
3233.856	6058.4
3236.95	6000.4
3240.041	6080.4
3243.13	5851.4
3246.216	5952.4
3249.3	5739.4
3252.382	5781.4
3255.46	5915.4
3258.537	5330.4
3261.611	5834.4
3264.682	5687.4
3267.751	5668.4
3270.818	5758.4
3273.882	5474.4
3276.943	5424.4
3280.002	5409.4
3283.059	5452.4
3286.113	5434.4
3289.165	5494.4
3292.214	5386.4
3295.261	5218.4
3298.306	5428.4
3301.348	5225.4
3304.387	5158.4
3307.425	5071.4
3310.459	5064.4
3313.492	4848.4
3316.521	4926.4
3319.549	4764.4
3322.574	4721.4
3325.597	4682.4
3328.617	4769.4
3331.635	4602.4
3334.65	4684.4
3337.663	4513.4
3340.674	4551.4
3343.682	4478.4
3346.688	4551.4
3349.691	4483.4
3352.692	4635.4
3355.691	4378.4
3358.687	4404.4
3361.681	4355.4
3364.673	4352.4
3367.662	4300.4
3370.649	4128.4
3373.633	4358.4
3376.615	4183.4
3379.595	4458.4
3382.572	4269.4
3385.547	4227.4
3388.52	4292.4
3391.49	4177.4
3394.458	4179.4
3397.424	3937.4
3400.387	4088.4
3403.348	3758.4
3406.307	3904.4
3409.263	3866.4
3412.217	3678.4
3415.168	3708.4
3418.118	3690.4
3421.065	3652.4
3424.009	3447.4
3426.951	3612.4
3429.891	3684.4
3432.829	3511.4
3435.764	3503.4
3438.697	3483.4
3441.628	3165.4
3444.557	3348.4
3447.483	3430.4
3450.407	3098.4
3453.328	2999.4
3456.247	3157.4
3459.164	3218.4
3462.079	2926.4
3464.991	2855.4
3467.902	2854.4
3470.809	2794.4
3473.715	2684.4
3476.618	2609.4
3479.519	2521.4
3482.418	2736.4
3485.315	2523.4
3488.209	2469.4
3491.101	2247.4
3493.99	2373.4
3496.878	2103.4
3499.763	2138.4
3502.646	2079.4
3505.527	2226.4
3508.405	2090.4
3511.281	2041.4
3514.155	2056.4
3517.027	1993.4
3519.897	2170.4
3522.764	1866.4
3525.629	1980.4
3528.492	1805.4
3531.352	1696.4
3534.211	1698.4
3537.067	1835.4
3539.921	1731.4
3542.773	1632.4
3545.622	1592.4
3548.469	1700.4
3551.315	1570.4
3554.157	1457.4
3556.998	1379.4
3559.837	1270.4
3562.673	1158.4
3565.507	1355.4
3568.339	1201.4
3571.169	1327.4
3573.996	1214.4
3576.822	1140.4
3579.645	1232.4
3582.466	1158.4
3585.285	1111.4
3588.101	1032.4
3590.916	1089.4
3593.728	1004.4
3596.538	1080.4
3599.346	924.4
3602.152	1100.4
3604.956	998.4
3607.757	768.4
3610.556	1100.4
3613.354	828.4
3616.149	851.4
3618.942	796.4
3621.732	598.4
3624.521	860.4
3627.307	871.4
3630.092	692.4
3632.874	665.4
3635.654	738.4
3638.432	888.4
3641.208	714.4
3643.982	762.4
3646.753	686.4
3649.523	793.4
3652.29	743.4
3655.055	746.4
3657.818	618.4
3660.579	549.4
3663.338	852.4
3666.095	582.4
3668.849	787.4
3671.602	577.4
3674.352	781.4
3677.101	550.4
3679.847	472.4
3682.591	689.4
3685.333	630.4
3688.073	548.4
3690.811	683.4
3693.547	601.4
3696.281	574.4
3699.013	487.4
3701.742	561.4
3704.47	660.4
3707.195	479.4
3709.919	498.4
3712.64	554.4
3715.359	459.4
3718.076	245.4
3720.792	621.4
3723.505	459.4
3726.216	369.4
3728.925	564.4
3731.632	389.4
3734.336	577.4
3737.039	464.4
3739.74	535.4
3742.439	856.4
3745.136	442.4
3747.83	378.4
3750.523	411.4
3753.213	333.4
3755.902	399.4
3758.589	589.4
3761.273	533.4
3763.956	320.4
3766.636	537.4
3769.315	272.4
3771.991	557.4
3774.665	470.4
3777.338	619.4
3780.008	565.4
3782.677	266.4
3785.343	568.4
3788.007	830.4
3790.67	382.4
3793.33	410.4
3795.989	441.4
3798.645	399.4
3801.299	620.4
3803.952	447.4
3806.602	370.4
3809.251	496.4
3811.897	475.4
3814.542	491.4
3817.184	443.4
3819.825	489.4
3822.463	151.4
3825.1	397.4
3827.735	468.4
3830.367	473.4
3832.998	273.4
3835.627	366.4
3838.253	340.4
3840.878	258.4
3843.501	247.4
3846.122	339.4
3848.741	242.4
3851.358	391.4
3853.973	654.4
3856.586	393.4
3859.197	376.4
3861.806	374.4
3864.414	483.4
3867.019	429.4
3869.622	321.4
3872.224	311.4
3874.823	494.4
3877.421	462.4
3880.016	527.4
3882.61	642.4
3885.202	563.4
3887.792	567.4
3890.38	317.4
3892.966	517.4
3895.55	459.4
3898.132	466.4
3900.713	316.4
3903.291	423.4
3905.868	519.4
3908.442	345.4
3911.015	348.4
3913.586	418.4
3916.155	365.4
3918.722	499.4
3921.287	435.4
3923.85	212.4
3926.411	328.4
3928.971	346.4
3931.528	406.4
3934.084	371.4
3936.638	464.4
3939.19	329.4
3941.74	443.4
3944.288	340.4
3946.834	408.4
3949.378	311.4
3951.921	513.4
3954.462	354.4
3957	324.4
3959.537	411.4
3962.072	530.4
3964.606	546.4
3967.137	302.4
3969.667	416.4
3972.194	437.4
3974.72	388.4
3977.244	554.4
3979.766	318.4
3982.286	556.4
3984.805	332.4
3987.321	279.4
3989.836	311.4
3992.349	495.4
3994.86	382.4
3997.369	334.4
3999.877	295.4
4002.382	405.4
4004.886	405.4
4007.388	414.4
4009.888	512.4
4012.386	370.4
4014.883	367.4
4017.377	418.4
4019.87	275.4
4022.361	452.4
4024.85	470.4
4027.338	522.4
4029.823	317.4
4032.307	401.4
4034.789	453.4
4037.269	449.4
4039.747	473.4
4042.224	337.4
4044.699	424.4
4047.172	460.4
4049.643	323.4
4052.112	466.4
4054.58	465.4
4057.046	397.4
4059.51	485.4
4061.972	377.4
4064.432	567.4
4066.891	277.4
4069.348	448.4
4071.803	309.4
4074.256	323.4
4076.708	366.4
4079.158	455.4
4081.606	213.4
4084.052	449.4
4086.497	227.4
4088.939	519.4
4091.38	455.4
4093.819	372.4
4096.257	-1348.6
4098.693	-1491.6
4101.127	-1500.6
4103.559	-1522.6
4105.989	571.4
4108.418	609.4
4110.845	813.4
4113.27	561.4
4115.694	725.4
4118.115	776.4
4120.535	309.4
4122.954	210.4
4125.37	191.4
4127.785	340.4
4130.198	300.4
4132.609	335.4
4135.019	-1572.6
4137.427	-1496.6
4139.833	-1482.6
4142.237	-1217.6
