Data from 2018-2-8_conc=4_RamanShift_05.txt Node
Date: Wed Feb 07 10:34:10 IST 2018
User: aro
Spectrometer: QEPB0276
Trigger mode: 0
Integration Time (sec): 3.000000E1
Scans to average: 1
Electric dark correction enabled: true
Nonlinearity correction enabled: false
Boxcar width: 0
XAxis mode: Raman Shifts
Number of Pixels in Spectrum: 1044
>>>>>Begin Spectral Data<<<<<
160.701	438.1
166.742	605.1
172.777	1087.1
178.805	2602.1
184.826	6149.1
190.841	12224.1
196.849	19545.1
202.85	24984.1
208.845	26932.1
214.833	26667.1
220.815	26252.1
226.789	25029.1
232.758	26122.1
238.719	25950.1
244.674	25639.1
250.623	25201.1
256.565	24854.1
262.5	24434.1
268.429	23753.1
274.351	23531.1
280.267	23210.1
286.176	22647.1
292.079	22448.1
297.975	22113.1
303.865	21914.1
309.748	21683.1
315.625	21604.1
321.495	21065.1
327.359	21086.1
333.217	21095.1
339.068	21091.1
344.912	21090.1
350.751	21068.1
356.583	21068.1
362.408	21000.1
368.227	21024.1
374.04	21108.1
379.847	21146.1
385.647	21329.1
391.44	21557.1
397.228	21447.1
403.009	21742.1
408.784	21845.1
414.553	21882.1
420.315	22042.1
426.071	22046.1
431.821	22032.1
437.565	21981.1
443.302	21685.1
449.033	21690.1
454.758	21702.1
460.477	21552.1
466.189	21476.1
471.896	21417.1
477.596	21231.1
483.29	21262.1
488.978	21273.1
494.66	21309.1
500.335	21167.1
506.005	21108.1
511.668	20852.1
517.325	20715.1
522.977	20629.1
528.622	20534.1
534.261	20402.1
539.894	20234.1
545.521	20210.1
551.141	20100.1
556.756	19821.1
562.365	19791.1
567.968	19680.1
573.565	19512.1
579.155	19276.1
584.74	19276.1
590.319	19118.1
595.892	19131.1
601.459	19077.1
607.02	19044.1
612.575	19131.1
618.124	18948.1
623.667	19042.1
629.204	19037.1
634.735	19054.1
640.261	18894.1
645.781	19043.1
651.294	18753.1
656.802	18561.1
662.304	18550.1
667.8	18184.1
673.29	18307.1
678.775	18085.1
684.254	18103.1
689.726	18222.1
695.193	17988.1
700.655	18057.1
706.11	18197.1
711.56	18048.1
717.004	18051.1
722.442	18152.1
727.874	18063.1
733.301	17988.1
738.722	18102.1
744.137	17917.1
749.547	17725.1
754.951	17748.1
760.349	17575.1
765.741	17378.1
771.128	17447.1
776.509	17458.1
781.885	17340.1
787.254	17373.1
792.618	17429.1
797.977	17535.1
803.33	17514.1
808.677	17640.1
814.019	17463.1
819.355	17506.1
824.686	17530.1
830.011	17561.1
835.33	17331.1
840.644	17030.1
845.952	17119.1
851.255	16868.1
856.552	16825.1
861.844	16700.1
867.13	16626.1
872.41	16547.1
877.686	16549.1
882.955	16510.1
888.219	16689.1
893.478	16789.1
898.731	16632.1
903.979	16525.1
909.221	16545.1
914.458	16467.1
919.69	16317.1
924.916	16168.1
930.136	15922.1
935.351	15931.1
940.561	15610.1
945.766	15584.1
950.965	15390.1
956.158	15543.1
961.347	15533.1
966.529	15539.1
971.707	15488.1
976.879	15473.1
982.046	15496.1
987.208	15548.1
992.364	15408.1
997.515	15377.1
1002.66	15294.1
1007.801	15258.1
1012.936	15238.1
1018.066	15261.1
1023.19	15117.1
1028.309	15025.1
1033.423	15103.1
1038.532	15234.1
1043.636	15478.1
1048.734	15297.1
1053.827	15445.1
1058.915	15450.1
1063.998	15270.1
1069.075	15035.1
1074.147	14909.1
1079.214	14970.1
1084.276	14580.1
1089.333	14623.1
1094.385	14461.1
1099.431	14505.1
1104.472	14509.1
1109.509	14637.1
1114.54	14727.1
1119.565	14720.1
1124.586	14763.1
1129.602	14746.1
1134.613	14598.1
1139.618	14577.1
1144.619	14244.1
1149.614	14186.1
1154.604	14054.1
1159.589	13959.1
1164.57	13708.1
1169.545	13796.1
1174.515	13807.1
1179.48	13961.1
1184.44	13937.1
1189.395	14085.1
1194.345	14272.1
1199.29	14175.1
1204.23	14288.1
1209.165	14259.1
1214.095	14032.1
1219.021	13940.1
1223.941	13933.1
1228.856	13886.1
1233.766	13880.1
1238.672	13817.1
1243.572	13733.1
1248.467	13775.1
1253.358	13903.1
1258.244	13917.1
1263.124	13799.1
1268	13713.1
1272.871	13646.1
1277.737	13695.1
1282.599	13438.1
1287.455	13286.1
1292.306	13085.1
1297.153	13073.1
1301.995	12860.1
1306.832	12798.1
1311.664	12856.1
1316.491	12949.1
1321.314	12893.1
1326.132	12882.1
1330.945	12779.1
1335.753	12685.1
1340.556	12509.1
1345.354	12401.1
1350.148	12132.1
1354.937	11930.1
1359.722	11907.1
1364.501	11664.1
1369.276	11532.1
1374.046	11622.1
1378.811	11682.1
1383.572	11827.1
1388.327	11501.1
1393.079	12033.1
1397.825	12095.1
1402.567	12027.1
1407.304	11997.1
1412.036	12031.1
1416.764	11942.1
1421.487	12140.1
1426.205	11762.1
1430.919	11575.1
1435.628	11440.1
1440.333	11285.1
1445.032	11163.1
1449.727	11289.1
1454.418	11240.1
1459.104	11213.1
1463.785	10979.1
1468.462	11062.1
1473.134	10967.1
1477.802	10857.1
1482.465	10876.1
1487.123	10578.1
1491.777	10648.1
1496.426	10577.1
1501.071	10373.1
1505.711	10461.1
1510.347	10422.1
1514.978	10607.1
1519.604	10651.1
1524.226	10793.1
1528.844	11080.1
1533.457	10915.1
1538.065	11139.1
1542.669	11131.1
1547.269	11219.1
1551.864	11131.1
1556.454	11307.1
1561.041	11242.1
1565.622	11151.1
1570.199	10898.1
1574.772	10860.1
1579.34	10634.1
1583.904	10807.1
1588.464	10770.1
1593.019	10793.1
1597.569	10930.1
1602.115	10994.1
1606.657	10999.1
1611.195	11068.1
1615.728	11039.1
1620.256	11189.1
1624.78	11183.1
1629.3	11167.1
1633.816	10942.1
1638.327	10939.1
1642.834	10929.1
1647.336	10790.1
1651.834	10753.1
1656.328	10842.1
1660.817	10708.1
1665.302	10783.1
1669.783	10680.1
1674.259	10618.1
1678.732	10367.1
1683.199	10055.1
1687.663	9931.1
1692.122	9441.1
1696.577	9208.1
1701.028	9429.1
1705.474	9189.1
1709.917	9206.1
1714.355	9159.1
1718.788	9047.1
1723.218	8978.1
1727.643	8716.1
1732.064	8510.1
1736.481	8574.1
1740.893	8340.1
1745.301	8172.1
1749.705	8270.1
1754.105	7834.1
1758.501	7834.1
1762.893	7488.1
1767.28	7458.1
1771.663	7219.1
1776.042	7068.1
1780.417	6908.1
1784.787	6731.1
1789.154	6749.1
1793.516	6716.1
1797.874	6953.1
1802.228	7132.1
1806.578	7301.1
1810.924	7194.1
1815.266	7963.1
1819.603	7291.1
1823.937	7240.1
1828.266	7142.1
1832.591	7093.1
1836.913	7004.1
1841.23	7011.1
1845.543	6941.1
1849.852	6769.1
1854.156	6822.1
1858.457	6701.1
1862.754	6437.1
1867.047	6633.1
1871.335	6482.1
1875.62	6416.1
1879.9	6382.1
1884.177	6542.1
1888.449	6460.1
1892.718	6449.1
1896.982	6385.1
1901.243	6538.1
1905.499	6477.1
1909.752	6393.1
1914	6477.1
1918.245	6310.1
1922.485	6432.1
1926.722	6421.1
1930.954	6454.1
1935.183	6446.1
1939.408	6425.1
1943.628	6484.1
1947.845	6468.1
1952.058	6565.1
1956.267	6354.1
1960.472	6394.1
1964.673	6426.1
1968.87	6492.1
1973.063	6406.1
1977.252	6346.1
1981.438	6275.1
1985.619	6111.1
1989.797	6127.1
1993.971	6047.1
1998.14	5854.1
2002.306	5871.1
2006.469	5823.1
2010.627	5834.1
2014.781	5861.1
2018.932	5879.1
2023.078	5636.1
2027.221	5645.1
2031.36	5657.1
2035.495	5711.1
2039.627	5642.1
2043.754	5592.1
2047.878	5481.1
2051.998	5480.1
2056.114	5501.1
2060.226	5456.1
2064.334	5396.1
2068.439	5285.1
2072.54	5296.1
2076.637	5484.1
2080.73	5384.1
2084.82	5389.1
2088.906	5422.1
2092.988	5480.1
2097.066	5561.1
2101.14	5393.1
2105.211	5471.1
2109.278	5490.1
2113.342	5448.1
2117.401	5603.1
2121.457	5516.1
2125.509	5488.1
2129.558	5223.1
2133.602	5327.1
2137.643	5275.1
2141.681	5149.1
2145.714	5141.1
2149.744	5076.1
2153.77	5022.1
2157.793	5034.1
2161.812	5088.1
2165.827	5085.1
2169.838	4879.1
2173.846	4932.1
2177.851	4877.1
2181.851	4815.1
2185.848	5013.1
2189.841	4709.1
2193.831	4811.1
2197.817	4548.1
2201.799	4572.1
2205.778	4622.1
2209.753	4578.1
2213.725	4503.1
2217.693	4493.1
2221.657	4461.1
2225.618	4077.1
2229.575	4410.1
2233.529	4333.1
2237.479	4375.1
2241.425	4353.1
2245.368	4456.1
2249.307	4291.1
2253.243	4343.1
2257.175	4360.1
2261.104	4291.1
2265.029	4110.1
2268.95	4137.1
2272.868	4045.1
2276.783	4030.1
2280.694	3862.1
2284.601	3883.1
2288.505	3894.1
2292.405	3684.1
2296.302	3835.1
2300.195	3713.1
2304.085	3810.1
2307.971	3684.1
2311.854	3744.1
2315.734	3627.1
2319.609	3657.1
2323.482	3699.1
2327.351	3641.1
2331.216	3632.1
2335.078	3581.1
2338.937	3604.1
2342.792	3600.1
2346.643	3503.1
2350.492	3504.1
2354.336	3476.1
2358.178	3357.1
2362.015	3428.1
2365.85	3550.1
2369.681	3468.1
2373.508	3504.1
2377.333	3395.1
2381.153	3477.1
2384.971	3517.1
2388.785	3525.1
2392.595	3499.1
2396.402	3540.1
2400.206	3596.1
2404.007	3456.1
2407.804	3394.1
2411.597	3351.1
2415.388	3450.1
2419.174	3330.1
2422.958	3373.1
2426.738	3315.1
2430.515	3186.1
2434.289	3314.1
2438.059	3300.1
2441.825	3291.1
2445.589	3050.1
2449.349	3261.1
2453.106	3130.1
2456.859	3095.1
2460.61	3032.1
2464.356	3137.1
2468.1	3073.1
2471.84	3086.1
2475.577	3088.1
2479.311	2888.1
2483.041	2960.1
2486.768	2817.1
2490.492	2662.1
2494.213	2927.1
2497.93	2922.1
2501.644	2920.1
2505.355	2963.1
2509.062	2932.1
2512.766	2891.1
2516.467	2869.1
2520.165	2847.1
2523.859	2973.1
2527.551	2709.1
2531.239	2876.1
2534.923	2882.1
2538.605	2898.1
2542.283	2826.1
2545.958	2813.1
2549.63	2740.1
2553.299	2664.1
2556.964	2780.1
2560.626	2799.1
2564.285	2680.1
2567.941	2776.1
2571.594	2797.1
2575.243	2668.1
2578.89	2759.1
2582.533	2793.1
2586.173	2665.1
2589.809	2699.1
2593.443	2885.1
2597.073	2668.1
2600.701	2578.1
2604.325	2662.1
2607.946	2648.1
2611.564	2573.1
2615.178	2509.1
2618.79	2489.1
2622.398	2597.1
2626.004	2540.1
2629.606	2462.1
2633.205	2660.1
2636.801	2514.1
2640.394	2480.1
2643.983	2469.1
2647.57	2510.1
2651.153	2408.1
2654.734	2259.1
2658.311	2520.1
2661.885	2379.1
2665.456	2272.1
2669.025	2294.1
2672.589	2239.1
2676.151	2217.1
2679.71	2152.1
2683.266	2145.1
2686.819	2157.1
2690.368	2083.1
2693.915	2125.1
2697.458	2179.1
2700.999	2004.1
2704.536	2043.1
2708.071	2007.1
2711.602	1940.1
2715.13	1965.1
2718.656	1981.1
2722.178	1878.1
2725.697	1982.1
2729.214	1649.1
2732.727	1776.1
2736.237	1846.1
2739.744	1851.1
2743.249	1887.1
2746.75	1947.1
2750.248	1946.1
2753.743	1960.1
2757.236	1930.1
2760.725	1892.1
2764.211	2178.1
2767.695	1901.1
2771.175	1928.1
2774.652	1906.1
2778.127	1922.1
2781.598	1939.1
2785.067	1906.1
2788.532	1900.1
2791.995	1870.1
2795.455	1926.1
2798.911	1817.1
2802.365	1993.1
2805.816	1877.1
2809.264	1849.1
2812.709	1934.1
2816.151	1879.1
2819.59	2062.1
2823.026	2018.1
2826.46	1997.1
2829.89	1954.1
2833.318	2200.1
2836.742	2018.1
2840.164	1989.1
2843.583	2062.1
2846.999	2042.1
2850.412	2003.1
2853.822	2075.1
2857.229	1930.1
2860.634	2001.1
2864.035	2155.1
2867.434	1962.1
2870.83	2076.1
2874.223	2208.1
2877.613	2082.1
2881	2286.1
2884.385	2332.1
2887.766	2265.1
2891.145	2198.1
2894.521	2307.1
2897.894	2396.1
2901.264	2067.1
2904.631	2344.1
2907.996	2312.1
2911.358	2287.1
2914.717	2302.1
2918.073	2339.1
2921.426	2334.1
2924.777	2430.1
2928.124	2453.1
2931.469	2354.1
2934.811	2579.1
2938.15	2481.1
2941.487	2472.1
2944.821	2228.1
2948.152	2596.1
2951.48	2540.1
2954.805	2480.1
2958.128	2422.1
2961.447	2514.1
2964.765	2466.1
2968.079	2538.1
2971.39	2498.1
2974.699	2577.1
2978.005	2524.1
2981.308	2601.1
2984.609	2707.1
2987.907	2615.1
2991.202	2694.1
2994.494	2775.1
2997.784	2517.1
3001.07	2718.1
3004.355	2786.1
3007.636	2839.1
3010.915	2909.1
3014.191	2927.1
3017.464	2962.1
3020.734	2948.1
3024.002	3076.1
3027.267	3095.1
3030.53	3069.1
3033.789	3140.1
3037.046	3256.1
3040.301	3287.1
3043.552	3343.1
3046.801	3441.1
3050.048	3320.1
3053.291	3305.1
3056.532	3508.1
3059.771	3635.1
3063.006	3599.1
3066.239	3700.1
3069.469	3810.1
3072.697	4101.1
3075.922	4087.1
3079.144	4146.1
3082.364	4181.1
3085.581	4441.1
3088.795	4305.1
3092.007	4561.1
3095.216	4773.1
3098.423	4930.1
3101.627	5088.1
3104.828	5159.1
3108.026	5197.1
3111.222	5231.1
3114.416	5286.1
3117.607	5544.1
3120.795	5516.1
3123.98	5677.1
3127.163	5863.1
3130.344	5905.1
3133.521	5994.1
3136.696	6142.1
3139.869	6178.1
3143.039	6333.1
3146.206	6329.1
3149.371	6517.1
3152.533	6664.1
3155.693	6783.1
3158.85	6819.1
3162.005	6884.1
3165.157	6959.1
3168.306	7034.1
3171.453	6940.1
3174.597	7218.1
3177.739	7286.1
3180.878	7119.1
3184.014	7076.1
3187.149	7150.1
3190.28	7032.1
3193.409	7026.1
3196.536	7025.1
3199.659	6960.1
3202.781	6982.1
3205.9	7152.1
3209.016	7157.1
3212.13	7051.1
3215.241	6973.1
3218.35	7079.1
3221.456	7107.1
3224.56	7239.1
3227.661	7143.1
3230.76	7249.1
3233.856	7159.1
3236.95	7085.1
3240.041	7182.1
3243.13	6902.1
3246.216	7031.1
3249.3	6861.1
3252.382	6914.1
3255.46	6883.1
3258.537	7254.1
3261.611	6859.1
3264.682	6758.1
3267.751	6623.1
3270.818	6726.1
3273.882	6486.1
3276.943	6436.1
3280.002	6402.1
3283.059	6457.1
3286.113	6393.1
3289.165	6492.1
3292.214	6320.1
3295.261	6139.1
3298.306	6293.1
3301.348	6105.1
3304.387	6044.1
3307.425	5916.1
3310.459	6024.1
3313.492	5789.1
3316.521	5685.1
3319.549	5589.1
3322.574	5615.1
3325.597	5472.1
3328.617	5481.1
3331.635	5411.1
3334.65	5445.1
3337.663	5350.1
3340.674	5278.1
3343.682	5194.1
3346.688	5238.1
3349.691	5176.1
3352.692	5276.1
3355.691	5101.1
3358.687	5127.1
3361.681	5098.1
3364.673	5069.1
3367.662	5037.1
3370.649	4948.1
3373.633	5070.1
3376.615	5007.1
3379.595	5123.1
3382.572	5030.1
3385.547	4766.1
3388.52	4865.1
3391.49	4708.1
3394.458	4754.1
3397.424	4575.1
3400.387	4622.1
3403.348	4342.1
3406.307	4388.1
3409.263	4360.1
3412.217	4175.1
3415.168	4222.1
3418.118	4213.1
3421.065	4148.1
3424.009	4017.1
3426.951	4040.1
3429.891	3794.1
3432.829	3927.1
3435.764	3986.1
3438.697	3846.1
3441.628	3673.1
3444.557	3738.1
3447.483	3760.1
3450.407	3506.1
3453.328	3385.1
3456.247	3551.1
3459.164	3458.1
3462.079	3259.1
3464.991	3184.1
3467.902	3125.1
3470.809	3091.1
3473.715	2962.1
3476.618	2944.1
3479.519	2817.1
3482.418	2835.1
3485.315	2718.1
3488.209	2657.1
3491.101	2606.1
3493.99	2629.1
3496.878	2231.1
3499.763	2289.1
3502.646	2226.1
3505.527	2320.1
3508.405	2192.1
3511.281	2074.1
3514.155	2113.1
3517.027	1999.1
3519.897	2171.1
3522.764	1877.1
3525.629	1922.1
3528.492	1855.1
3531.352	1668.1
3534.211	1633.1
3537.067	1661.1
3539.921	1564.1
3542.773	1536.1
3545.622	1464.1
3548.469	1498.1
3551.315	1416.1
3554.157	1309.1
3556.998	1214.1
3559.837	1101.1
3562.673	1089.1
3565.507	1204.1
3568.339	1024.1
3571.169	1101.1
3573.996	984.1
3576.822	1002.1
3579.645	1032.1
3582.466	938.1
3585.285	873.1
3588.101	812.1
3590.916	888.1
3593.728	791.1
3596.538	833.1
3599.346	707.1
3602.152	839.1
3604.956	708.1
3607.757	551.1
3610.556	778.1
3613.354	668.1
3616.149	582.1
3618.942	566.1
3621.732	370.1
3624.521	606.1
3627.307	506.1
3630.092	526.1
3632.874	397.1
3635.654	485.1
3638.432	566.1
3641.208	387.1
3643.982	434.1
3646.753	368.1
3649.523	446.1
3652.29	443.1
3655.055	403.1
3657.818	343.1
3660.579	215.1
3663.338	446.1
3666.095	199.1
3668.849	465.1
3671.602	237.1
3674.352	356.1
3677.101	237.1
3679.847	164.1
3682.591	254.1
3685.333	258.1
3688.073	199.1
3690.811	285.1
3693.547	219.1
3696.281	251.1
3699.013	120.1
3701.742	166.1
3704.47	258.1
3707.195	150.1
3709.919	132.1
3712.64	117.1
3715.359	-2.9
3718.076	-89.9
3720.792	85.1
3723.505	82.1
3726.216	96.1
3728.925	143.1
3731.632	-83.9
3734.336	207.1
3737.039	101.1
3739.74	117.1
3742.439	154.1
3745.136	51.1
3747.83	53.1
3750.523	96.1
3753.213	-132.9
3755.902	42.1
3758.589	132.1
3761.273	146.1
3763.956	-9.9
3766.636	76.1
3769.315	-130.9
3771.991	150.1
3774.665	-19.9
3777.338	195.1
3780.008	113.1
3782.677	0.1
3785.343	174.1
3788.007	119.1
3790.67	3.1
3793.33	-43.9
3795.989	71.1
3798.645	31.1
3801.299	134.1
3803.952	-25.9
3806.602	-4.9
3809.251	-1.9
3811.897	43.1
3814.542	35.1
3817.184	43.1
3819.825	90.1
3822.463	-77.9
3825.1	46.1
3827.735	30.1
3830.367	34.1
3832.998	-132.9
3835.627	-68.9
3838.253	-34.9
3840.878	-171.9
3843.501	-105.9
3846.122	-107.9
3848.741	-117.9
3851.358	-31.9
3853.973	157.1
3856.586	29.1
3859.197	-14.9
3861.806	-54.9
3864.414	95.1
3867.019	9.1
3869.622	-41.9
3872.224	-84.9
3874.823	44.1
3877.421	54.1
3880.016	71.1
3882.61	184.1
3885.202	147.1
3887.792	100.1
3890.38	-89.9
3892.966	68.1
3895.55	0.1
3898.132	-19.9
3900.713	-53.9
3903.291	-6.9
3905.868	-46.9
3908.442	-23.9
3911.015	-31.9
3913.586	-40.9
3916.155	-20.9
3918.722	52.1
3921.287	-35.9
3923.85	-241.9
3926.411	-31.9
3928.971	-91.9
3931.528	-29.9
3934.084	-49.9
3936.638	-53.9
3939.19	-46.9
3941.74	-62.9
3944.288	-51.9
3946.834	-39.9
3949.378	-50.9
3951.921	69.1
3954.462	-28.9
3957	-16.9
3959.537	50.1
3962.072	97.1
3964.606	78.1
3967.137	1.1
3969.667	-36.9
3972.194	-19.9
3974.72	-0.9
3977.244	69.1
3979.766	2.1
3982.286	129.1
3984.805	-83.9
3987.321	-154.9
3989.836	-34.9
3992.349	34.1
3994.86	-30.9
3997.369	-28.9
3999.877	-30.9
4002.382	-35.9
4004.886	-30.9
4007.388	22.1
4009.888	111.1
4012.386	-45.9
4014.883	-55.9
4017.377	-22.9
4019.87	-115.9
4022.361	24.1
4024.85	110.1
4027.338	77.1
4029.823	-92.9
4032.307	-1.9
4034.789	34.1
4037.269	43.1
4039.747	36.1
4042.224	-12.9
4044.699	-14.9
4047.172	-23.9
4049.643	-20.9
4052.112	106.1
4054.58	34.1
4057.046	15.1
4059.51	54.1
4061.972	-60.9
4064.432	80.1
4066.891	-108.9
4069.348	-7.9
4071.803	-49.9
4074.256	-63.9
4076.708	27.1
4079.158	-30.9
4081.606	-95.9
4084.052	5.1
4086.497	-13.9
4088.939	65.1
4091.38	2.1
4093.819	-69.9
4096.257	-1164.9
4098.693	-1181.9
4101.127	-1235.9
4103.559	-1234.9
4105.989	132.1
4108.418	161.1
4110.845	376.1
4113.27	217.1
4115.694	371.1
4118.115	382.1
4120.535	-22.9
4122.954	-121.9
4125.37	-116.9
4127.785	-6.9
4130.198	-55.9
4132.609	-68.9
4135.019	-1245.9
4137.427	-1248.9
4139.833	-1199.9
4142.237	-1037.9
