Data from 2018-2-8_conc=5_RamanShift_19.txt Node
Date: Wed Feb 07 11:12:10 IST 2018
User: aro
Spectrometer: QEPB0276
Trigger mode: 0
Integration Time (sec): 3.000000E1
Scans to average: 1
Electric dark correction enabled: true
Nonlinearity correction enabled: false
Boxcar width: 0
XAxis mode: Raman Shifts
Number of Pixels in Spectrum: 1044
>>>>>Begin Spectral Data<<<<<
160.701	606.4
166.742	731.4
172.777	1260.4
178.805	2857.4
184.826	6381.4
190.841	12453.4
196.849	20009.4
202.85	25408.4
208.845	27477.4
214.833	27331.4
220.815	26912.4
226.789	26868.4
232.758	26675.4
238.719	26705.4
244.674	26392.4
250.623	25982.4
256.565	25583.4
262.5	25150.4
268.429	24543.4
274.351	24292.4
280.267	24123.4
286.176	23563.4
292.079	23353.4
297.975	23032.4
303.865	22894.4
309.748	22729.4
315.625	22574.4
321.495	22087.4
327.359	22182.4
333.217	22193.4
339.068	22134.4
344.912	22128.4
350.751	22052.4
356.583	21932.4
362.408	21967.4
368.227	22020.4
374.04	22124.4
379.847	22084.4
385.647	22252.4
391.44	22571.4
397.228	22556.4
403.009	22725.4
408.784	22673.4
414.553	23055.4
420.315	23061.4
426.071	23115.4
431.821	22988.4
437.565	23040.4
443.302	22815.4
449.033	22770.4
454.758	22656.4
460.477	22600.4
466.189	22404.4
471.896	22390.4
477.596	22227.4
483.29	22286.4
488.978	22292.4
494.66	22200.4
500.335	22150.4
506.005	22110.4
511.668	21857.4
517.325	21803.4
522.977	21627.4
528.622	21508.4
534.261	21382.4
539.894	21350.4
545.521	21268.4
551.141	21216.4
556.756	20979.4
562.365	20858.4
567.968	20684.4
573.565	20518.4
579.155	20328.4
584.74	20360.4
590.319	20122.4
595.892	20152.4
601.459	20057.4
607.02	20275.4
612.575	20183.4
618.124	19971.4
623.667	20142.4
629.204	20021.4
634.735	20122.4
640.261	20011.4
645.781	20191.4
651.294	19887.4
656.802	19594.4
662.304	19592.4
667.8	19221.4
673.29	19332.4
678.775	19175.4
684.254	19069.4
689.726	19208.4
695.193	18961.4
700.655	19050.4
706.11	19213.4
711.56	19069.4
717.004	19235.4
722.442	19415.4
727.874	19101.4
733.301	19107.4
738.722	19161.4
744.137	18871.4
749.547	18903.4
754.951	18853.4
760.349	18624.4
765.741	18504.4
771.128	18549.4
776.509	18471.4
781.885	18427.4
787.254	18430.4
792.618	18550.4
797.977	18598.4
803.33	18749.4
808.677	18699.4
814.019	18622.4
819.355	18721.4
824.686	18822.4
830.011	18712.4
835.33	18395.4
840.644	18205.4
845.952	18237.4
851.255	17940.4
856.552	17936.4
861.844	17780.4
867.13	17704.4
872.41	17766.4
877.686	17586.4
882.955	17689.4
888.219	17763.4
893.478	17918.4
898.731	17637.4
903.979	17699.4
909.221	17776.4
914.458	17598.4
919.69	17370.4
924.916	17294.4
930.136	17116.4
935.351	16914.4
940.561	16723.4
945.766	16688.4
950.965	16482.4
956.158	16575.4
961.347	16641.4
966.529	16648.4
971.707	16667.4
976.879	16643.4
982.046	16606.4
987.208	16709.4
992.364	16537.4
997.515	16593.4
1002.66	16396.4
1007.801	16441.4
1012.936	16352.4
1018.066	16401.4
1023.19	16200.4
1028.309	16051.4
1033.423	16267.4
1038.532	16343.4
1043.636	16574.4
1048.734	16512.4
1053.827	16612.4
1058.915	16601.4
1063.998	16407.4
1069.075	16306.4
1074.147	16038.4
1079.214	16101.4
1084.276	15740.4
1089.333	15686.4
1094.385	15656.4
1099.431	15726.4
1104.472	15616.4
1109.509	15797.4
1114.54	15791.4
1119.565	15905.4
1124.586	15869.4
1129.602	15871.4
1134.613	15864.4
1139.618	15726.4
1144.619	15425.4
1149.614	15272.4
1154.604	15191.4
1159.589	15187.4
1164.57	14796.4
1169.545	14865.4
1174.515	14813.4
1179.48	14992.4
1184.44	15097.4
1189.395	15253.4
1194.345	15342.4
1199.29	15369.4
1204.23	15387.4
1209.165	15312.4
1214.095	15206.4
1219.021	15102.4
1223.941	14974.4
1228.856	15078.4
1233.766	15073.4
1238.672	14959.4
1243.572	14887.4
1248.467	14935.4
1253.358	15034.4
1258.244	15135.4
1263.124	14954.4
1268	14792.4
1272.871	14842.4
1277.737	14739.4
1282.599	14603.4
1287.455	14437.4
1292.306	14061.4
1297.153	14217.4
1301.995	13944.4
1306.832	13877.4
1311.664	13883.4
1316.491	14005.4
1321.314	13903.4
1326.132	13944.4
1330.945	13871.4
1335.753	13626.4
1340.556	13576.4
1345.354	13394.4
1350.148	13091.4
1354.937	12914.4
1359.722	12879.4
1364.501	12659.4
1369.276	12478.4
1374.046	12568.4
1378.811	12724.4
1383.572	12819.4
1388.327	12649.4
1393.079	13092.4
1397.825	13178.4
1402.567	13114.4
1407.304	12987.4
1412.036	13064.4
1416.764	12870.4
1421.487	13161.4
1426.205	12829.4
1430.919	12670.4
1435.628	12544.4
1440.333	12373.4
1445.032	12270.4
1449.727	12181.4
1454.418	12263.4
1459.104	12157.4
1463.785	12031.4
1468.462	11953.4
1473.134	11974.4
1477.802	11814.4
1482.465	11888.4
1487.123	11465.4
1491.777	11594.4
1496.426	11528.4
1501.071	11316.4
1505.711	11357.4
1510.347	11361.4
1514.978	11504.4
1519.604	11664.4
1524.226	11718.4
1528.844	12061.4
1533.457	11942.4
1538.065	12153.4
1542.669	12097.4
1547.269	12204.4
1551.864	12092.4
1556.454	12302.4
1561.041	12208.4
1565.622	12157.4
1570.199	11865.4
1574.772	11890.4
1579.34	11620.4
1583.904	11749.4
1588.464	11752.4
1593.019	11776.4
1597.569	11912.4
1602.115	11774.4
1606.657	11996.4
1611.195	11993.4
1615.728	11964.4
1620.256	12100.4
1624.78	12154.4
1629.3	12135.4
1633.816	11848.4
1638.327	11836.4
1642.834	11835.4
1647.336	11782.4
1651.834	11649.4
1656.328	11641.4
1660.817	11569.4
1665.302	11724.4
1669.783	11606.4
1674.259	11362.4
1678.732	11144.4
1683.199	10903.4
1687.663	10817.4
1692.122	10256.4
1696.577	10050.4
1701.028	10025.4
1705.474	9949.4
1709.917	10023.4
1714.355	10014.4
1718.788	9864.4
1723.218	9783.4
1727.643	9549.4
1732.064	9390.4
1736.481	9435.4
1740.893	9138.4
1745.301	9055.4
1749.705	9123.4
1754.105	8700.4
1758.501	8614.4
1762.893	8371.4
1767.28	8301.4
1771.663	7970.4
1776.042	7833.4
1780.417	7696.4
1784.787	7497.4
1789.154	7508.4
1793.516	7643.4
1797.874	7735.4
1802.228	7931.4
1806.578	8022.4
1810.924	7942.4
1815.266	8631.4
1819.603	8035.4
1823.937	8088.4
1828.266	7944.4
1832.591	7908.4
1836.913	7768.4
1841.23	7785.4
1845.543	7791.4
1849.852	7582.4
1854.156	7598.4
1858.457	7555.4
1862.754	7214.4
1867.047	7447.4
1871.335	7242.4
1875.62	7142.4
1879.9	7188.4
1884.177	7343.4
1888.449	7142.4
1892.718	7150.4
1896.982	7046.4
1901.243	7273.4
1905.499	7165.4
1909.752	7052.4
1914	7284.4
1918.245	6989.4
1922.485	7025.4
1926.722	7050.4
1930.954	7100.4
1935.183	7187.4
1939.408	7108.4
1943.628	7203.4
1947.845	7230.4
1952.058	7182.4
1956.267	7287.4
1960.472	7149.4
1964.673	7228.4
1968.87	7270.4
1973.063	7176.4
1977.252	7089.4
1981.438	7029.4
1985.619	6902.4
1989.797	6802.4
1993.971	6764.4
1998.14	6565.4
2002.306	6593.4
2006.469	6515.4
2010.627	6462.4
2014.781	6490.4
2018.932	6496.4
2023.078	6294.4
2027.221	6298.4
2031.36	6385.4
2035.495	6250.4
2039.627	6292.4
2043.754	6234.4
2047.878	6143.4
2051.998	6177.4
2056.114	6130.4
2060.226	6151.4
2064.334	5991.4
2068.439	5872.4
2072.54	5914.4
2076.637	6075.4
2080.73	5974.4
2084.82	5933.4
2088.906	6027.4
2092.988	5964.4
2097.066	6189.4
2101.14	5933.4
2105.211	6080.4
2109.278	6062.4
2113.342	6096.4
2117.401	6205.4
2121.457	6181.4
2125.509	6089.4
2129.558	5872.4
2133.602	6015.4
2137.643	5869.4
2141.681	5793.4
2145.714	5881.4
2149.744	5608.4
2153.77	5728.4
2157.793	5631.4
2161.812	5767.4
2165.827	5669.4
2169.838	5394.4
2173.846	5601.4
2177.851	5535.4
2181.851	5402.4
2185.848	5471.4
2189.841	5245.4
2193.831	5408.4
2197.817	5157.4
2201.799	5186.4
2205.778	5221.4
2209.753	5168.4
2213.725	5078.4
2217.693	5092.4
2221.657	5131.4
2225.618	4946.4
2229.575	4980.4
2233.529	4894.4
2237.479	5004.4
2241.425	4967.4
2245.368	5049.4
2249.307	4909.4
2253.243	4949.4
2257.175	4935.4
2261.104	4797.4
2265.029	4668.4
2268.95	4709.4
2272.868	4595.4
2276.783	4606.4
2280.694	4420.4
2284.601	4454.4
2288.505	4368.4
2292.405	4267.4
2296.302	4403.4
2300.195	4198.4
2304.085	4360.4
2307.971	4171.4
2311.854	4290.4
2315.734	4092.4
2319.609	4187.4
2323.482	4298.4
2327.351	4170.4
2331.216	4135.4
2335.078	4116.4
2338.937	4103.4
2342.792	4136.4
2346.643	4021.4
2350.492	4060.4
2354.336	4007.4
2358.178	3979.4
2362.015	3926.4
2365.85	4120.4
2369.681	4055.4
2373.508	3999.4
2377.333	3911.4
2381.153	4078.4
2384.971	4106.4
2388.785	4062.4
2392.595	4066.4
2396.402	4071.4
2400.206	4165.4
2404.007	4091.4
2407.804	3989.4
2411.597	3905.4
2415.388	3934.4
2419.174	3894.4
2422.958	3887.4
2426.738	3872.4
2430.515	3758.4
2434.289	3856.4
2438.059	3813.4
2441.825	3833.4
2445.589	3603.4
2449.349	3798.4
2453.106	3676.4
2456.859	3694.4
2460.61	3539.4
2464.356	3644.4
2468.1	3638.4
2471.84	3658.4
2475.577	3668.4
2479.311	3530.4
2483.041	3494.4
2486.768	3352.4
2490.492	3110.4
2494.213	3425.4
2497.93	3482.4
2501.644	3516.4
2505.355	3509.4
2509.062	3340.4
2512.766	3506.4
2516.467	3396.4
2520.165	3315.4
2523.859	3565.4
2527.551	3178.4
2531.239	3370.4
2534.923	3403.4
2538.605	3423.4
2542.283	3386.4
2545.958	3360.4
2549.63	3258.4
2553.299	3191.4
2556.964	3048.4
2560.626	3232.4
2564.285	3117.4
2567.941	3271.4
2571.594	3212.4
2575.243	3093.4
2578.89	3296.4
2582.533	3261.4
2586.173	3272.4
2589.809	3163.4
2593.443	3404.4
2597.073	3271.4
2600.701	3027.4
2604.325	3116.4
2607.946	3122.4
2611.564	3080.4
2615.178	2910.4
2618.79	2982.4
2622.398	3091.4
2626.004	3104.4
2629.606	2884.4
2633.205	3140.4
2636.801	3014.4
2640.394	2930.4
2643.983	2919.4
2647.57	2951.4
2651.153	2922.4
2654.734	2727.4
2658.311	3012.4
2661.885	2828.4
2665.456	2883.4
2669.025	2709.4
2672.589	2773.4
2676.151	2610.4
2679.71	2553.4
2683.266	2883.4
2686.819	2575.4
2690.368	2590.4
2693.915	2450.4
2697.458	2650.4
2700.999	2446.4
2704.536	2403.4
2708.071	2436.4
2711.602	2337.4
2715.13	2407.4
2718.656	2445.4
2722.178	2247.4
2725.697	2349.4
2729.214	2036.4
2732.727	2180.4
2736.237	2163.4
2739.744	2105.4
2743.249	2278.4
2746.75	2267.4
2750.248	2310.4
2753.743	2316.4
2757.236	2279.4
2760.725	2290.4
2764.211	2539.4
2767.695	2323.4
2771.175	2366.4
2774.652	2277.4
2778.127	2334.4
2781.598	2290.4
2785.067	2291.4
2788.532	2291.4
2791.995	2190.4
2795.455	2308.4
2798.911	2237.4
2802.365	2384.4
2805.816	2166.4
2809.264	2226.4
2812.709	2371.4
2816.151	2294.4
2819.59	2423.4
2823.026	2411.4
2826.46	2404.4
2829.89	2380.4
2833.318	2529.4
2836.742	2259.4
2840.164	2357.4
2843.583	2492.4
2846.999	2413.4
2850.412	2394.4
2853.822	2752.4
2857.229	2336.4
2860.634	2408.4
2864.035	2487.4
2867.434	2390.4
2870.83	2469.4
2874.223	2504.4
2877.613	2416.4
2881	2709.4
2884.385	2711.4
2887.766	2662.4
2891.145	2618.4
2894.521	2750.4
2897.894	2810.4
2901.264	2442.4
2904.631	2654.4
2907.996	2636.4
2911.358	2649.4
2914.717	2672.4
2918.073	2664.4
2921.426	2682.4
2924.777	2803.4
2928.124	2782.4
2931.469	2620.4
2934.811	2964.4
2938.15	2744.4
2941.487	2830.4
2944.821	2526.4
2948.152	2844.4
2951.48	2859.4
2954.805	2798.4
2958.128	2687.4
2961.447	2837.4
2964.765	2670.4
2968.079	2885.4
2971.39	2778.4
2974.699	2841.4
2978.005	2812.4
2981.308	2896.4
2984.609	2988.4
2987.907	2874.4
2991.202	3009.4
2994.494	3096.4
2997.784	2692.4
3001.07	2979.4
3004.355	3045.4
3007.636	3124.4
3010.915	3197.4
3014.191	3222.4
3017.464	3188.4
3020.734	3147.4
3024.002	3315.4
3027.267	3393.4
3030.53	3381.4
3033.789	3382.4
3037.046	3481.4
3040.301	3543.4
3043.552	3600.4
3046.801	3725.4
3050.048	3540.4
3053.291	3522.4
3056.532	3680.4
3059.771	3897.4
3063.006	3867.4
3066.239	3940.4
3069.469	4060.4
3072.697	4322.4
3075.922	4284.4
3079.144	4342.4
3082.364	4344.4
3085.581	4633.4
3088.795	4462.4
3092.007	4724.4
3095.216	4914.4
3098.423	5158.4
3101.627	5250.4
3104.828	5294.4
3108.026	5375.4
3111.222	5443.4
3114.416	5412.4
3117.607	5673.4
3120.795	5732.4
3123.98	5891.4
3127.163	6027.4
3130.344	6116.4
3133.521	6165.4
3136.696	6268.4
3139.869	6321.4
3143.039	6447.4
3146.206	6401.4
3149.371	6605.4
3152.533	6783.4
3155.693	6860.4
3158.85	6988.4
3162.005	7010.4
3165.157	7141.4
3168.306	7161.4
3171.453	7034.4
3174.597	7333.4
3177.739	7321.4
3180.878	7173.4
3184.014	7226.4
3187.149	7241.4
3190.28	7149.4
3193.409	7126.4
3196.536	7110.4
3199.659	7060.4
3202.781	7074.4
3205.9	7242.4
3209.016	7138.4
3212.13	7158.4
3215.241	7123.4
3218.35	7134.4
3221.456	7116.4
3224.56	7381.4
3227.661	7332.4
3230.76	7372.4
3233.856	7281.4
3236.95	7236.4
3240.041	7316.4
3243.13	7083.4
3246.216	7130.4
3249.3	6914.4
3252.382	6908.4
3255.46	7068.4
3258.537	7420.4
3261.611	7044.4
3264.682	6764.4
3267.751	6767.4
3270.818	6887.4
3273.882	6573.4
3276.943	6570.4
3280.002	6478.4
3283.059	6546.4
3286.113	6534.4
3289.165	6609.4
3292.214	6526.4
3295.261	6294.4
3298.306	6457.4
3301.348	6255.4
3304.387	6186.4
3307.425	6074.4
3310.459	6125.4
3313.492	5914.4
3316.521	5778.4
3319.549	5729.4
3322.574	5666.4
3325.597	5588.4
3328.617	5605.4
3331.635	5475.4
3334.65	5566.4
3337.663	5437.4
3340.674	5419.4
3343.682	5278.4
3346.688	5380.4
3349.691	5320.4
3352.692	5449.4
3355.691	5220.4
3358.687	5243.4
3361.681	5185.4
3364.673	5252.4
3367.662	5143.4
3370.649	5030.4
3373.633	5118.4
3376.615	5106.4
3379.595	5186.4
3382.572	4968.4
3385.547	4893.4
3388.52	5003.4
3391.49	4940.4
3394.458	4893.4
3397.424	4653.4
3400.387	4859.4
3403.348	4454.4
3406.307	4533.4
3409.263	4612.4
3412.217	4320.4
3415.168	4306.4
3418.118	4354.4
3421.065	4321.4
3424.009	4093.4
3426.951	4225.4
3429.891	4192.4
3432.829	4082.4
3435.764	4036.4
3438.697	4048.4
3441.628	3810.4
3444.557	3861.4
3447.483	3909.4
3450.407	3682.4
3453.328	3499.4
3456.247	3707.4
3459.164	3606.4
3462.079	3354.4
3464.991	3332.4
3467.902	3243.4
3470.809	3243.4
3473.715	3129.4
3476.618	3016.4
3479.519	2922.4
3482.418	3119.4
3485.315	2789.4
3488.209	2744.4
3491.101	2583.4
3493.99	2736.4
3496.878	2368.4
3499.763	2370.4
3502.646	2315.4
3505.527	2465.4
3508.405	2350.4
3511.281	2247.4
3514.155	2274.4
3517.027	2214.4
3519.897	2330.4
3522.764	2049.4
3525.629	2111.4
3528.492	1988.4
3531.352	1840.4
3534.211	1862.4
3537.067	1911.4
3539.921	1781.4
3542.773	1725.4
3545.622	1679.4
3548.469	1656.4
3551.315	1570.4
3554.157	1510.4
3556.998	1423.4
3559.837	1323.4
3562.673	1202.4
3565.507	1305.4
3568.339	1168.4
3571.169	1288.4
3573.996	1239.4
3576.822	1185.4
3579.645	1177.4
3582.466	1117.4
3585.285	1053.4
3588.101	989.4
3590.916	1036.4
3593.728	928.4
3596.538	1035.4
3599.346	888.4
3602.152	957.4
3604.956	958.4
3607.757	752.4
3610.556	964.4
3613.354	790.4
3616.149	737.4
3618.942	699.4
3621.732	487.4
3624.521	816.4
3627.307	680.4
3630.092	656.4
3632.874	554.4
3635.654	647.4
3638.432	755.4
3641.208	589.4
3643.982	668.4
3646.753	565.4
3649.523	596.4
3652.29	588.4
3655.055	515.4
3657.818	507.4
3660.579	415.4
3663.338	637.4
3666.095	424.4
3668.849	617.4
3671.602	396.4
3674.352	607.4
3677.101	450.4
3679.847	263.4
3682.591	477.4
3685.333	453.4
3688.073	328.4
3690.811	447.4
3693.547	259.4
3696.281	395.4
3699.013	350.4
3701.742	320.4
3704.47	504.4
3707.195	276.4
3709.919	295.4
3712.64	311.4
3715.359	175.4
3718.076	39.4
3720.792	357.4
3723.505	288.4
3726.216	280.4
3728.925	345.4
3731.632	150.4
3734.336	332.4
3737.039	250.4
3739.74	303.4
3742.439	374.4
3745.136	247.4
3747.83	246.4
3750.523	241.4
3753.213	304.4
3755.902	205.4
3758.589	376.4
3761.273	315.4
3763.956	51.4
3766.636	290.4
3769.315	82.4
3771.991	315.4
3774.665	196.4
3777.338	350.4
3780.008	246.4
3782.677	44.4
3785.343	315.4
3788.007	426.4
3790.67	205.4
3793.33	178.4
3795.989	301.4
3798.645	154.4
3801.299	342.4
3803.952	161.4
3806.602	129.4
3809.251	212.4
3811.897	201.4
3814.542	243.4
3817.184	213.4
3819.825	224.4
3822.463	-163.6
3825.1	195.4
3827.735	174.4
3830.367	208.4
3832.998	27.4
3835.627	72.4
3838.253	102.4
3840.878	26.4
3843.501	-9.6
3846.122	99.4
3848.741	44.4
3851.358	150.4
3853.973	343.4
3856.586	180.4
3859.197	127.4
3861.806	113.4
3864.414	253.4
3867.019	199.4
3869.622	75.4
3872.224	61.4
3874.823	225.4
3877.421	203.4
3880.016	233.4
3882.61	367.4
3885.202	317.4
3887.792	306.4
3890.38	82.4
3892.966	226.4
3895.55	182.4
3898.132	177.4
3900.713	102.4
3903.291	151.4
3905.868	237.4
3908.442	114.4
3911.015	81.4
3913.586	186.4
3916.155	124.4
3918.722	293.4
3921.287	162.4
3923.85	-49.6
3926.411	64.4
3928.971	41.4
3931.528	149.4
3934.084	114.4
3936.638	180.4
3939.19	69.4
3941.74	193.4
3944.288	94.4
3946.834	180.4
3949.378	93.4
3951.921	219.4
3954.462	152.4
3957	107.4
3959.537	150.4
3962.072	242.4
3964.606	267.4
3967.137	57.4
3969.667	123.4
3972.194	155.4
3974.72	210.4
3977.244	241.4
3979.766	116.4
3982.286	282.4
3984.805	126.4
3987.321	25.4
3989.836	122.4
3992.349	168.4
3994.86	151.4
3997.369	87.4
3999.877	64.4
4002.382	159.4
4004.886	159.4
4007.388	163.4
4009.888	263.4
4012.386	109.4
4014.883	108.4
4017.377	132.4
4019.87	73.4
4022.361	167.4
4024.85	219.4
4027.338	128.4
4029.823	120.4
4032.307	169.4
4034.789	243.4
4037.269	187.4
4039.747	215.4
4042.224	92.4
4044.699	178.4
4047.172	168.4
4049.643	111.4
4052.112	206.4
4054.58	171.4
4057.046	150.4
4059.51	208.4
4061.972	102.4
4064.432	316.4
4066.891	71.4
4069.348	138.4
4071.803	96.4
4074.256	107.4
4076.708	131.4
4079.158	209.4
4081.606	2.4
4084.052	202.4
4086.497	123.4
4088.939	179.4
4091.38	259.4
4093.819	113.4
4096.257	-1356.6
4098.693	-1399.6
4101.127	-1420.6
4103.559	-1409.6
4105.989	378.4
4108.418	340.4
4110.845	559.4
4113.27	390.4
4115.694	529.4
4118.115	548.4
4120.535	94.4
4122.954	19.4
4125.37	28.4
4127.785	140.4
4130.198	112.4
4132.609	114.4
4135.019	-1476.6
4137.427	-1424.6
4139.833	-1384.6
4142.237	-1169.6
