Data from 2018-2-8_conc=2_RamanShift_04.txt Node
Date: Wed Feb 07 09:50:40 IST 2018
User: aro
Spectrometer: QEPB0276
Trigger mode: 0
Integration Time (sec): 3.000000E1
Scans to average: 1
Electric dark correction enabled: true
Nonlinearity correction enabled: false
Boxcar width: 0
XAxis mode: Raman Shifts
Number of Pixels in Spectrum: 1044
>>>>>Begin Spectral Data<<<<<
160.701	465.6
166.742	645.6
172.777	1084.6
178.805	2649.6
184.826	5953.6
190.841	11578.6
196.849	18416.6
202.85	23370.6
208.845	25278.6
214.833	24980.6
220.815	24599.6
226.789	23167.6
232.758	24308.6
238.719	24206.6
244.674	23992.6
250.623	23568.6
256.565	23241.6
262.5	22735.6
268.429	22139.6
274.351	21952.6
280.267	21665.6
286.176	21123.6
292.079	20861.6
297.975	20660.6
303.865	20529.6
309.748	20280.6
315.625	20104.6
321.495	19730.6
327.359	19654.6
333.217	19750.6
339.068	19660.6
344.912	19734.6
350.751	19673.6
356.583	19626.6
362.408	19567.6
368.227	19589.6
374.04	19762.6
379.847	19749.6
385.647	19822.6
391.44	20104.6
397.228	20129.6
403.009	20301.6
408.784	20438.6
414.553	20416.6
420.315	20520.6
426.071	20603.6
431.821	20607.6
437.565	20521.6
443.302	20304.6
449.033	20297.6
454.758	20207.6
460.477	20011.6
466.189	19982.6
471.896	19953.6
477.596	19872.6
483.29	19861.6
488.978	19873.6
494.66	19907.6
500.335	19718.6
506.005	19677.6
511.668	19442.6
517.325	19392.6
522.977	19134.6
528.622	19186.6
534.261	19021.6
539.894	18917.6
545.521	18914.6
551.141	18776.6
556.756	18580.6
562.365	18507.6
567.968	18369.6
573.565	18307.6
579.155	18098.6
584.74	18015.6
590.319	17920.6
595.892	17876.6
601.459	17784.6
607.02	17852.6
612.575	17880.6
618.124	17722.6
623.667	17894.6
629.204	17775.6
634.735	17801.6
640.261	17736.6
645.781	17819.6
651.294	17558.6
656.802	17387.6
662.304	17314.6
667.8	16996.6
673.29	17118.6
678.775	16923.6
684.254	16963.6
689.726	17052.6
695.193	16812.6
700.655	16857.6
706.11	16976.6
711.56	16820.6
717.004	16974.6
722.442	16824.6
727.874	16939.6
733.301	16930.6
738.722	16892.6
744.137	16773.6
749.547	16708.6
754.951	16625.6
760.349	16486.6
765.741	16322.6
771.128	16328.6
776.509	16301.6
781.885	16281.6
787.254	16337.6
792.618	16343.6
797.977	16524.6
803.33	16483.6
808.677	16574.6
814.019	16494.6
819.355	16530.6
824.686	16516.6
830.011	16517.6
835.33	16224.6
840.644	16064.6
845.952	16105.6
851.255	15840.6
856.552	15872.6
861.844	15688.6
867.13	15580.6
872.41	15622.6
877.686	15463.6
882.955	15591.6
888.219	15655.6
893.478	15800.6
898.731	15587.6
903.979	15498.6
909.221	15619.6
914.458	15642.6
919.69	15426.6
924.916	15284.6
930.136	15045.6
935.351	15092.6
940.561	14727.6
945.766	14649.6
950.965	14463.6
956.158	14657.6
961.347	14676.6
966.529	14631.6
971.707	14608.6
976.879	14645.6
982.046	14671.6
987.208	14691.6
992.364	14505.6
997.515	14507.6
1002.66	14289.6
1007.801	14464.6
1012.936	14402.6
1018.066	14483.6
1023.19	14140.6
1028.309	14153.6
1033.423	14319.6
1038.532	14347.6
1043.636	14598.6
1048.734	14511.6
1053.827	14620.6
1058.915	14552.6
1063.998	14492.6
1069.075	14246.6
1074.147	14097.6
1079.214	14135.6
1084.276	13796.6
1089.333	13779.6
1094.385	13693.6
1099.431	13758.6
1104.472	13705.6
1109.509	13798.6
1114.54	13939.6
1119.565	14034.6
1124.586	13984.6
1129.602	13962.6
1134.613	13853.6
1139.618	13784.6
1144.619	13568.6
1149.614	13397.6
1154.604	13287.6
1159.589	13196.6
1164.57	12976.6
1169.545	12995.6
1174.515	13089.6
1179.48	13209.6
1184.44	13219.6
1189.395	13331.6
1194.345	13454.6
1199.29	13447.6
1204.23	13545.6
1209.165	13431.6
1214.095	13305.6
1219.021	13202.6
1223.941	13224.6
1228.856	13203.6
1233.766	13118.6
1238.672	13067.6
1243.572	13057.6
1248.467	13024.6
1253.358	13204.6
1258.244	13202.6
1263.124	13055.6
1268	12991.6
1272.871	13028.6
1277.737	12974.6
1282.599	12690.6
1287.455	12578.6
1292.306	12393.6
1297.153	12447.6
1301.995	12369.6
1306.832	12249.6
1311.664	12126.6
1316.491	12297.6
1321.314	12230.6
1326.132	12214.6
1330.945	12136.6
1335.753	12007.6
1340.556	11951.6
1345.354	11860.6
1350.148	11472.6
1354.937	11246.6
1359.722	11255.6
1364.501	11055.6
1369.276	11042.6
1374.046	10979.6
1378.811	11068.6
1383.572	11185.6
1388.327	11012.6
1393.079	11388.6
1397.825	11483.6
1402.567	11466.6
1407.304	11429.6
1412.036	11447.6
1416.764	11362.6
1421.487	11520.6
1426.205	11261.6
1430.919	11036.6
1435.628	10931.6
1440.333	10936.6
1445.032	10749.6
1449.727	10756.6
1454.418	10633.6
1459.104	10632.6
1463.785	10504.6
1468.462	10504.6
1473.134	10482.6
1477.802	10345.6
1482.465	10380.6
1487.123	10062.6
1491.777	10153.6
1496.426	10051.6
1501.071	9786.6
1505.711	9918.6
1510.347	9918.6
1514.978	10009.6
1519.604	10142.6
1524.226	10146.6
1528.844	10502.6
1533.457	10382.6
1538.065	10480.6
1542.669	10555.6
1547.269	10703.6
1551.864	10599.6
1556.454	10785.6
1561.041	10670.6
1565.622	10638.6
1570.199	10359.6
1574.772	10418.6
1579.34	10102.6
1583.904	10261.6
1588.464	10307.6
1593.019	10281.6
1597.569	10411.6
1602.115	10427.6
1606.657	10441.6
1611.195	10515.6
1615.728	10571.6
1620.256	10597.6
1624.78	10684.6
1629.3	10636.6
1633.816	10483.6
1638.327	10414.6
1642.834	10359.6
1647.336	10344.6
1651.834	10168.6
1656.328	10309.6
1660.817	10191.6
1665.302	10220.6
1669.783	10218.6
1674.259	9915.6
1678.732	9767.6
1683.199	9495.6
1687.663	9473.6
1692.122	8934.6
1696.577	8786.6
1701.028	8757.6
1705.474	8655.6
1709.917	8789.6
1714.355	8671.6
1718.788	8659.6
1723.218	8441.6
1727.643	8234.6
1732.064	8108.6
1736.481	8185.6
1740.893	7977.6
1745.301	7838.6
1749.705	7957.6
1754.105	7544.6
1758.501	7478.6
1762.893	7184.6
1767.28	7115.6
1771.663	6896.6
1776.042	6778.6
1780.417	6593.6
1784.787	6437.6
1789.154	6487.6
1793.516	6434.6
1797.874	6604.6
1802.228	6796.6
1806.578	6926.6
1810.924	6851.6
1815.266	7827.6
1819.603	6983.6
1823.937	6934.6
1828.266	6827.6
1832.591	6756.6
1836.913	6714.6
1841.23	6732.6
1845.543	6703.6
1849.852	6533.6
1854.156	6502.6
1858.457	6513.6
1862.754	6447.6
1867.047	6308.6
1871.335	6197.6
1875.62	6256.6
1879.9	6176.6
1884.177	6324.6
1888.449	6116.6
1892.718	6230.6
1896.982	6067.6
1901.243	6256.6
1905.499	6094.6
1909.752	6057.6
1914	6208.6
1918.245	6013.6
1922.485	6063.6
1926.722	6106.6
1930.954	6113.6
1935.183	6137.6
1939.408	6099.6
1943.628	6207.6
1947.845	6210.6
1952.058	6254.6
1956.267	6115.6
1960.472	6097.6
1964.673	6265.6
1968.87	6264.6
1973.063	6189.6
1977.252	6147.6
1981.438	5987.6
1985.619	5909.6
1989.797	5899.6
1993.971	5885.6
1998.14	5631.6
2002.306	5736.6
2006.469	5624.6
2010.627	5616.6
2014.781	5605.6
2018.932	5676.6
2023.078	5400.6
2027.221	5517.6
2031.36	5452.6
2035.495	5542.6
2039.627	5463.6
2043.754	5383.6
2047.878	5339.6
2051.998	5298.6
2056.114	5283.6
2060.226	5272.6
2064.334	5228.6
2068.439	5081.6
2072.54	5088.6
2076.637	5332.6
2080.73	5195.6
2084.82	5135.6
2088.906	5196.6
2092.988	5125.6
2097.066	5376.6
2101.14	5188.6
2105.211	5270.6
2109.278	5279.6
2113.342	5294.6
2117.401	5415.6
2121.457	5316.6
2125.509	5268.6
2129.558	5122.6
2133.602	5186.6
2137.643	5084.6
2141.681	4983.6
2145.714	4969.6
2149.744	4951.6
2153.77	4987.6
2157.793	4897.6
2161.812	4938.6
2165.827	4923.6
2169.838	4744.6
2173.846	4812.6
2177.851	4637.6
2181.851	4652.6
2185.848	4846.6
2189.841	4485.6
2193.831	4629.6
2197.817	4454.6
2201.799	4452.6
2205.778	4507.6
2209.753	4470.6
2213.725	4494.6
2217.693	4363.6
2221.657	4382.6
2225.618	4244.6
2229.575	4291.6
2233.529	4232.6
2237.479	4285.6
2241.425	4261.6
2245.368	4351.6
2249.307	4308.6
2253.243	4219.6
2257.175	4258.6
2261.104	4160.6
2265.029	4042.6
2268.95	4051.6
2272.868	3987.6
2276.783	4017.6
2280.694	3724.6
2284.601	3802.6
2288.505	3781.6
2292.405	3650.6
2296.302	3795.6
2300.195	3683.6
2304.085	3754.6
2307.971	3649.6
2311.854	3645.6
2315.734	3594.6
2319.609	3654.6
2323.482	3730.6
2327.351	3603.6
2331.216	3572.6
2335.078	3596.6
2338.937	3533.6
2342.792	3540.6
2346.643	3479.6
2350.492	3416.6
2354.336	3464.6
2358.178	3444.6
2362.015	3389.6
2365.85	3502.6
2369.681	3513.6
2373.508	3463.6
2377.333	3434.6
2381.153	3490.6
2384.971	3495.6
2388.785	3482.6
2392.595	3567.6
2396.402	3534.6
2400.206	3589.6
2404.007	3566.6
2407.804	3487.6
2411.597	3373.6
2415.388	3466.6
2419.174	3395.6
2422.958	3297.6
2426.738	3313.6
2430.515	3211.6
2434.289	3407.6
2438.059	3287.6
2441.825	3341.6
2445.589	3094.6
2449.349	3282.6
2453.106	3160.6
2456.859	3145.6
2460.61	3042.6
2464.356	3093.6
2468.1	3176.6
2471.84	3147.6
2475.577	3112.6
2479.311	3058.6
2483.041	2991.6
2486.768	2881.6
2490.492	2716.6
2494.213	3148.6
2497.93	3011.6
2501.644	3013.6
2505.355	2956.6
2509.062	2947.6
2512.766	3011.6
2516.467	3025.6
2520.165	2971.6
2523.859	3057.6
2527.551	2740.6
2531.239	2884.6
2534.923	2936.6
2538.605	2958.6
2542.283	2893.6
2545.958	2844.6
2549.63	2720.6
2553.299	2794.6
2556.964	2776.6
2560.626	2778.6
2564.285	2708.6
2567.941	2879.6
2571.594	2830.6
2575.243	2678.6
2578.89	2807.6
2582.533	2824.6
2586.173	2768.6
2589.809	2683.6
2593.443	2960.6
2597.073	2779.6
2600.701	2614.6
2604.325	2731.6
2607.946	2728.6
2611.564	2627.6
2615.178	2540.6
2618.79	2578.6
2622.398	2687.6
2626.004	2695.6
2629.606	2491.6
2633.205	2758.6
2636.801	2551.6
2640.394	2518.6
2643.983	2402.6
2647.57	2525.6
2651.153	2404.6
2654.734	2346.6
2658.311	2600.6
2661.885	2412.6
2665.456	2397.6
2669.025	2323.6
2672.589	2331.6
2676.151	2194.6
2679.71	2187.6
2683.266	2218.6
2686.819	2232.6
2690.368	2156.6
2693.915	2130.6
2697.458	2255.6
2700.999	2078.6
2704.536	2105.6
2708.071	2093.6
2711.602	2019.6
2715.13	2006.6
2718.656	2027.6
2722.178	1949.6
2725.697	2030.6
2729.214	1714.6
2732.727	1851.6
2736.237	2014.6
2739.744	1859.6
2743.249	1965.6
2746.75	1932.6
2750.248	2021.6
2753.743	1969.6
2757.236	1949.6
2760.725	1958.6
2764.211	2176.6
2767.695	2024.6
2771.175	2024.6
2774.652	2016.6
2778.127	1991.6
2781.598	1962.6
2785.067	1977.6
2788.532	1984.6
2791.995	1925.6
2795.455	1972.6
2798.911	1885.6
2802.365	2105.6
2805.816	1948.6
2809.264	1905.6
2812.709	1986.6
2816.151	1953.6
2819.59	2094.6
2823.026	2040.6
2826.46	2081.6
2829.89	2020.6
2833.318	2320.6
2836.742	2125.6
2840.164	2052.6
2843.583	2137.6
2846.999	2121.6
2850.412	2034.6
2853.822	2166.6
2857.229	2059.6
2860.634	2089.6
2864.035	2173.6
2867.434	2109.6
2870.83	2084.6
2874.223	2194.6
2877.613	2099.6
2881	2291.6
2884.385	2371.6
2887.766	2299.6
2891.145	2253.6
2894.521	2347.6
2897.894	2440.6
2901.264	2105.6
2904.631	2410.6
2907.996	2357.6
2911.358	2311.6
2914.717	2341.6
2918.073	2354.6
2921.426	2284.6
2924.777	2467.6
2928.124	2463.6
2931.469	2313.6
2934.811	2583.6
2938.15	2481.6
2941.487	2517.6
2944.821	2433.6
2948.152	2578.6
2951.48	2549.6
2954.805	2482.6
2958.128	2418.6
2961.447	2548.6
2964.765	2307.6
2968.079	2598.6
2971.39	2453.6
2974.699	2537.6
2978.005	2532.6
2981.308	2570.6
2984.609	2670.6
2987.907	2643.6
2991.202	2746.6
2994.494	2807.6
2997.784	2477.6
3001.07	2738.6
3004.355	2751.6
3007.636	2775.6
3010.915	2848.6
3014.191	2927.6
3017.464	2896.6
3020.734	2896.6
3024.002	3002.6
3027.267	3029.6
3030.53	3051.6
3033.789	3093.6
3037.046	3237.6
3040.301	3207.6
3043.552	3250.6
3046.801	3312.6
3050.048	3206.6
3053.291	3161.6
3056.532	3444.6
3059.771	3565.6
3063.006	3493.6
3066.239	3613.6
3069.469	3688.6
3072.697	3950.6
3075.922	4029.6
3079.144	3973.6
3082.364	4015.6
3085.581	4337.6
3088.795	4218.6
3092.007	4304.6
3095.216	4520.6
3098.423	4772.6
3101.627	4882.6
3104.828	4873.6
3108.026	4984.6
3111.222	5059.6
3114.416	4996.6
3117.607	5319.6
3120.795	5277.6
3123.98	5388.6
3127.163	5550.6
3130.344	5600.6
3133.521	5694.6
3136.696	5791.6
3139.869	5904.6
3143.039	6000.6
3146.206	6064.6
3149.371	6162.6
3152.533	6358.6
3155.693	6432.6
3158.85	6524.6
3162.005	6572.6
3165.157	6673.6
3168.306	6614.6
3171.453	6603.6
3174.597	6823.6
3177.739	6816.6
3180.878	6691.6
3184.014	6681.6
3187.149	6724.6
3190.28	6668.6
3193.409	6734.6
3196.536	6643.6
3199.659	6607.6
3202.781	6672.6
3205.9	6799.6
3209.016	6632.6
3212.13	6677.6
3215.241	6585.6
3218.35	6678.6
3221.456	6709.6
3224.56	6826.6
3227.661	6775.6
3230.76	6772.6
3233.856	6805.6
3236.95	6688.6
3240.041	6790.6
3243.13	6610.6
3246.216	6667.6
3249.3	6500.6
3252.382	6477.6
3255.46	6569.6
3258.537	6787.6
3261.611	6505.6
3264.682	6326.6
3267.751	6383.6
3270.818	6414.6
3273.882	6198.6
3276.943	6107.6
3280.002	6088.6
3283.059	6081.6
3286.113	6070.6
3289.165	6188.6
3292.214	6096.6
3295.261	5850.6
3298.306	5959.6
3301.348	5785.6
3304.387	5791.6
3307.425	5646.6
3310.459	5644.6
3313.492	5456.6
3316.521	5409.6
3319.549	5334.6
3322.574	5345.6
3325.597	5218.6
3328.617	5151.6
3331.635	5076.6
3334.65	5185.6
3337.663	5095.6
3340.674	5077.6
3343.682	4930.6
3346.688	4929.6
3349.691	4903.6
3352.692	5019.6
3355.691	4704.6
3358.687	4840.6
3361.681	4864.6
3364.673	4808.6
3367.662	4791.6
3370.649	4811.6
3373.633	4742.6
3376.615	4608.6
3379.595	4818.6
3382.572	4669.6
3385.547	4635.6
3388.52	4645.6
3391.49	4537.6
3394.458	4504.6
3397.424	4357.6
3400.387	4403.6
3403.348	4070.6
3406.307	4156.6
3409.263	4241.6
3412.217	4006.6
3415.168	4036.6
3418.118	4013.6
3421.065	3962.6
3424.009	3798.6
3426.951	3894.6
3429.891	3682.6
3432.829	3830.6
3435.764	3776.6
3438.697	3742.6
3441.628	3509.6
3444.557	3602.6
3447.483	3615.6
3450.407	3392.6
3453.328	3419.6
3456.247	3370.6
3459.164	3335.6
3462.079	3116.6
3464.991	3054.6
3467.902	3094.6
3470.809	2978.6
3473.715	2842.6
3476.618	2842.6
3479.519	2667.6
3482.418	2746.6
3485.315	2615.6
3488.209	2503.6
3491.101	2504.6
3493.99	2492.6
3496.878	2150.6
3499.763	2196.6
3502.646	2230.6
3505.527	2326.6
3508.405	2131.6
3511.281	2024.6
3514.155	2083.6
3517.027	2022.6
3519.897	2140.6
3522.764	1830.6
3525.629	1876.6
3528.492	1804.6
3531.352	1698.6
3534.211	1623.6
3537.067	1668.6
3539.921	1599.6
3542.773	1542.6
3545.622	1450.6
3548.469	1506.6
3551.315	1433.6
3554.157	1329.6
3556.998	1239.6
3559.837	1171.6
3562.673	1071.6
3565.507	1207.6
3568.339	1127.6
3571.169	1146.6
3573.996	1034.6
3576.822	1065.6
3579.645	1009.6
3582.466	973.6
3585.285	890.6
3588.101	822.6
3590.916	891.6
3593.728	804.6
3596.538	884.6
3599.346	732.6
3602.152	849.6
3604.956	782.6
3607.757	622.6
3610.556	792.6
3613.354	660.6
3616.149	689.6
3618.942	604.6
3621.732	446.6
3624.521	672.6
3627.307	587.6
3630.092	574.6
3632.874	465.6
3635.654	580.6
3638.432	648.6
3641.208	490.6
3643.982	528.6
3646.753	413.6
3649.523	467.6
3652.29	476.6
3655.055	481.6
3657.818	366.6
3660.579	395.6
3663.338	556.6
3666.095	343.6
3668.849	601.6
3671.602	272.6
3674.352	449.6
3677.101	350.6
3679.847	239.6
3682.591	383.6
3685.333	375.6
3688.073	265.6
3690.811	367.6
3693.547	393.6
3696.281	318.6
3699.013	215.6
3701.742	226.6
3704.47	359.6
3707.195	221.6
3709.919	179.6
3712.64	237.6
3715.359	109.6
3718.076	32.6
3720.792	211.6
3723.505	228.6
3726.216	164.6
3728.925	267.6
3731.632	69.6
3734.336	250.6
3737.039	161.6
3739.74	205.6
3742.439	480.6
3745.136	117.6
3747.83	170.6
3750.523	135.6
3753.213	128.6
3755.902	129.6
3758.589	200.6
3761.273	186.6
3763.956	47.6
3766.636	160.6
3769.315	-55.4
3771.991	235.6
3774.665	113.6
3777.338	238.6
3780.008	214.6
3782.677	163.6
3785.343	266.6
3788.007	214.6
3790.67	107.6
3793.33	53.6
3795.989	163.6
3798.645	84.6
3801.299	243.6
3803.952	107.6
3806.602	75.6
3809.251	152.6
3811.897	113.6
3814.542	183.6
3817.184	135.6
3819.825	170.6
3822.463	158.6
3825.1	145.6
3827.735	94.6
3830.367	140.6
3832.998	1.6
3835.627	62.6
3838.253	38.6
3840.878	159.6
3843.501	-40.4
3846.122	82.6
3848.741	-21.4
3851.358	86.6
3853.973	237.6
3856.586	100.6
3859.197	41.6
3861.806	79.6
3864.414	189.6
3867.019	58.6
3869.622	10.6
3872.224	-49.4
3874.823	163.6
3877.421	181.6
3880.016	184.6
3882.61	269.6
3885.202	239.6
3887.792	207.6
3890.38	41.6
3892.966	168.6
3895.55	88.6
3898.132	124.6
3900.713	32.6
3903.291	55.6
3905.868	72.6
3908.442	61.6
3911.015	106.6
3913.586	84.6
3916.155	11.6
3918.722	116.6
3921.287	56.6
3923.85	142.6
3926.411	46.6
3928.971	21.6
3931.528	48.6
3934.084	89.6
3936.638	16.6
3939.19	21.6
3941.74	60.6
3944.288	19.6
3946.834	46.6
3949.378	68.6
3951.921	165.6
3954.462	83.6
3957	66.6
3959.537	78.6
3962.072	151.6
3964.606	227.6
3967.137	91.6
3969.667	64.6
3972.194	79.6
3974.72	44.6
3977.244	136.6
3979.766	184.6
3982.286	218.6
3984.805	26.6
3987.321	-16.4
3989.836	46.6
3992.349	105.6
3994.86	76.6
3997.369	72.6
3999.877	-20.4
4002.382	73.6
4004.886	35.6
4007.388	106.6
4009.888	201.6
4012.386	10.6
4014.883	90.6
4017.377	42.6
4019.87	-30.4
4022.361	156.6
4024.85	109.6
4027.338	83.6
4029.823	5.6
4032.307	57.6
4034.789	124.6
4037.269	183.6
4039.747	175.6
4042.224	94.6
4044.699	90.6
4047.172	69.6
4049.643	34.6
4052.112	196.6
4054.58	107.6
4057.046	110.6
4059.51	170.6
4061.972	66.6
4064.432	226.6
4066.891	-8.4
4069.348	172.6
4071.803	30.6
4074.256	45.6
4076.708	58.6
4079.158	63.6
4081.606	-38.4
4084.052	117.6
4086.497	51.6
4088.939	169.6
4091.38	151.6
4093.819	22.6
4096.257	-1205.4
4098.693	-1245.4
4101.127	-1251.4
4103.559	-1289.4
4105.989	437.6
4108.418	247.6
4110.845	458.6
4113.27	319.6
4115.694	405.6
4118.115	451.6
4120.535	60.6
4122.954	-16.4
4125.37	-72.4
4127.785	74.6
4130.198	69.6
4132.609	-5.4
4135.019	-1302.4
4137.427	-1285.4
4139.833	-1212.4
4142.237	-1045.4
