Data from 2018-2-8_conc=2_RamanShift_20.txt Node
Date: Wed Feb 07 10:05:40 IST 2018
User: aro
Spectrometer: QEPB0276
Trigger mode: 0
Integration Time (sec): 3.000000E1
Scans to average: 1
Electric dark correction enabled: true
Nonlinearity correction enabled: false
Boxcar width: 0
XAxis mode: Raman Shifts
Number of Pixels in Spectrum: 1044
>>>>>Begin Spectral Data<<<<<
160.701	387.8
166.742	534.8
172.777	991.8
178.805	2686.8
184.826	6093.8
190.841	12183.8
196.849	19576.8
202.85	24995.8
208.845	27060.8
214.833	26754.8
220.815	26308.8
226.789	24961.8
232.758	26045.8
238.719	25889.8
244.674	25659.8
250.623	25126.8
256.565	24725.8
262.5	24268.8
268.429	23612.8
274.351	23332.8
280.267	23094.8
286.176	22488.8
292.079	22312.8
297.975	21947.8
303.865	21771.8
309.748	21631.8
315.625	21450.8
321.495	21041.8
327.359	21011.8
333.217	21029.8
339.068	20958.8
344.912	20989.8
350.751	20911.8
356.583	20962.8
362.408	20887.8
368.227	20892.8
374.04	20953.8
379.847	21041.8
385.647	21126.8
391.44	21341.8
397.228	21505.8
403.009	21532.8
408.784	21665.8
414.553	21743.8
420.315	21873.8
426.071	21816.8
431.821	21915.8
437.565	21773.8
443.302	21652.8
449.033	21614.8
454.758	21516.8
460.477	21375.8
466.189	21264.8
471.896	21146.8
477.596	21056.8
483.29	21089.8
488.978	21100.8
494.66	20993.8
500.335	20944.8
506.005	20851.8
511.668	20695.8
517.325	20532.8
522.977	20348.8
528.622	20259.8
534.261	20190.8
539.894	20056.8
545.521	19987.8
551.141	19923.8
556.756	19694.8
562.365	19520.8
567.968	19418.8
573.565	19316.8
579.155	19164.8
584.74	19090.8
590.319	18930.8
595.892	18888.8
601.459	18859.8
607.02	18755.8
612.575	18885.8
618.124	18765.8
623.667	18864.8
629.204	18714.8
634.735	18773.8
640.261	18657.8
645.781	18811.8
651.294	18552.8
656.802	18305.8
662.304	18271.8
667.8	17988.8
673.29	18047.8
678.775	17863.8
684.254	18038.8
689.726	17930.8
695.193	17750.8
700.655	17729.8
706.11	17914.8
711.56	17790.8
717.004	17817.8
722.442	17782.8
727.874	17824.8
733.301	17815.8
738.722	17922.8
744.137	17631.8
749.547	17516.8
754.951	17475.8
760.349	17330.8
765.741	17212.8
771.128	17175.8
776.509	17092.8
781.885	17121.8
787.254	17203.8
792.618	17286.8
797.977	17319.8
803.33	17346.8
808.677	17371.8
814.019	17291.8
819.355	17307.8
824.686	17372.8
830.011	17335.8
835.33	17055.8
840.644	16897.8
845.952	16870.8
851.255	16671.8
856.552	16656.8
861.844	16412.8
867.13	16398.8
872.41	16415.8
877.686	16332.8
882.955	16328.8
888.219	16457.8
893.478	16549.8
898.731	16397.8
903.979	16295.8
909.221	16367.8
914.458	16248.8
919.69	16085.8
924.916	15981.8
930.136	15719.8
935.351	15772.8
940.561	15343.8
945.766	15348.8
950.965	15250.8
956.158	15283.8
961.347	15290.8
966.529	15352.8
971.707	15315.8
976.879	15281.8
982.046	15360.8
987.208	15431.8
992.364	15212.8
997.515	15170.8
1002.66	15128.8
1007.801	15102.8
1012.936	15066.8
1018.066	15064.8
1023.19	14902.8
1028.309	14842.8
1033.423	14989.8
1038.532	15078.8
1043.636	15201.8
1048.734	15170.8
1053.827	15248.8
1058.915	15286.8
1063.998	15081.8
1069.075	14966.8
1074.147	14747.8
1079.214	14789.8
1084.276	14418.8
1089.333	14372.8
1094.385	14348.8
1099.431	14565.8
1104.472	14365.8
1109.509	14443.8
1114.54	14612.8
1119.565	14621.8
1124.586	14551.8
1129.602	14612.8
1134.613	14492.8
1139.618	14359.8
1144.619	14147.8
1149.614	14043.8
1154.604	13933.8
1159.589	13800.8
1164.57	13614.8
1169.545	13601.8
1174.515	13653.8
1179.48	13820.8
1184.44	13851.8
1189.395	13969.8
1194.345	14059.8
1199.29	14078.8
1204.23	14174.8
1209.165	14076.8
1214.095	13998.8
1219.021	13750.8
1223.941	13700.8
1228.856	13788.8
1233.766	13770.8
1238.672	13699.8
1243.572	13667.8
1248.467	13681.8
1253.358	13832.8
1258.244	13828.8
1263.124	13687.8
1268	13604.8
1272.871	13565.8
1277.737	13540.8
1282.599	13341.8
1287.455	13186.8
1292.306	12932.8
1297.153	13044.8
1301.995	12944.8
1306.832	12749.8
1311.664	12783.8
1316.491	12878.8
1321.314	12850.8
1326.132	12819.8
1330.945	12724.8
1335.753	12612.8
1340.556	12386.8
1345.354	12283.8
1350.148	11954.8
1354.937	11775.8
1359.722	11802.8
1364.501	11556.8
1369.276	11436.8
1374.046	11498.8
1378.811	11618.8
1383.572	11735.8
1388.327	11494.8
1393.079	11948.8
1397.825	12028.8
1402.567	11926.8
1407.304	11890.8
1412.036	11970.8
1416.764	11869.8
1421.487	12013.8
1426.205	11686.8
1430.919	11503.8
1435.628	11370.8
1440.333	11411.8
1445.032	11139.8
1449.727	11211.8
1454.418	11189.8
1459.104	11142.8
1463.785	10955.8
1468.462	11012.8
1473.134	10990.8
1477.802	10745.8
1482.465	10773.8
1487.123	10576.8
1491.777	10616.8
1496.426	10481.8
1501.071	10323.8
1505.711	10419.8
1510.347	10390.8
1514.978	10583.8
1519.604	10615.8
1524.226	10773.8
1528.844	11037.8
1533.457	10878.8
1538.065	11103.8
1542.669	11091.8
1547.269	11146.8
1551.864	11152.8
1556.454	11246.8
1561.041	11150.8
1565.622	11053.8
1570.199	10870.8
1574.772	10839.8
1579.34	10614.8
1583.904	10815.8
1588.464	10760.8
1593.019	10746.8
1597.569	10920.8
1602.115	10973.8
1606.657	11034.8
1611.195	11088.8
1615.728	11050.8
1620.256	11238.8
1624.78	11257.8
1629.3	11188.8
1633.816	10972.8
1638.327	11070.8
1642.834	10915.8
1647.336	10826.8
1651.834	10708.8
1656.328	10865.8
1660.817	10702.8
1665.302	10709.8
1669.783	10786.8
1674.259	10476.8
1678.732	10263.8
1683.199	10061.8
1687.663	9867.8
1692.122	9474.8
1696.577	9222.8
1701.028	9293.8
1705.474	9134.8
1709.917	9141.8
1714.355	9142.8
1718.788	9054.8
1723.218	8848.8
1727.643	8648.8
1732.064	8504.8
1736.481	8500.8
1740.893	8352.8
1745.301	8212.8
1749.705	8235.8
1754.105	7819.8
1758.501	7842.8
1762.893	7453.8
1767.28	7352.8
1771.663	7138.8
1776.042	6994.8
1780.417	6860.8
1784.787	6713.8
1789.154	6773.8
1793.516	6753.8
1797.874	7014.8
1802.228	7084.8
1806.578	7332.8
1810.924	7160.8
1815.266	7517.8
1819.603	7238.8
1823.937	7215.8
1828.266	7106.8
1832.591	7094.8
1836.913	7013.8
1841.23	7039.8
1845.543	6980.8
1849.852	6760.8
1854.156	6790.8
1858.457	6705.8
1862.754	6425.8
1867.047	6565.8
1871.335	6471.8
1875.62	6395.8
1879.9	6417.8
1884.177	6506.8
1888.449	6384.8
1892.718	6414.8
1896.982	6387.8
1901.243	6484.8
1905.499	6343.8
1909.752	6425.8
1914	6450.8
1918.245	6356.8
1922.485	6412.8
1926.722	6438.8
1930.954	6434.8
1935.183	6491.8
1939.408	6424.8
1943.628	6520.8
1947.845	6453.8
1952.058	6551.8
1956.267	6415.8
1960.472	6441.8
1964.673	6478.8
1968.87	6504.8
1973.063	6489.8
1977.252	6341.8
1981.438	6264.8
1985.619	6180.8
1989.797	6110.8
1993.971	6045.8
1998.14	5881.8
2002.306	5862.8
2006.469	5803.8
2010.627	5822.8
2014.781	5793.8
2018.932	5871.8
2023.078	5660.8
2027.221	5627.8
2031.36	5673.8
2035.495	5602.8
2039.627	5611.8
2043.754	5558.8
2047.878	5483.8
2051.998	5494.8
2056.114	5482.8
2060.226	5478.8
2064.334	5410.8
2068.439	5296.8
2072.54	5309.8
2076.637	5525.8
2080.73	5411.8
2084.82	5366.8
2088.906	5433.8
2092.988	5342.8
2097.066	5533.8
2101.14	5453.8
2105.211	5491.8
2109.278	5537.8
2113.342	5467.8
2117.401	5590.8
2121.457	5485.8
2125.509	5514.8
2129.558	5273.8
2133.602	5385.8
2137.643	5332.8
2141.681	5173.8
2145.714	5166.8
2149.744	5097.8
2153.77	5090.8
2157.793	5121.8
2161.812	5150.8
2165.827	5077.8
2169.838	4934.8
2173.846	4924.8
2177.851	4806.8
2181.851	4794.8
2185.848	4944.8
2189.841	4776.8
2193.831	4745.8
2197.817	4601.8
2201.799	4567.8
2205.778	4613.8
2209.753	4571.8
2213.725	4581.8
2217.693	4468.8
2221.657	4504.8
2225.618	4379.8
2229.575	4425.8
2233.529	4336.8
2237.479	4416.8
2241.425	4359.8
2245.368	4441.8
2249.307	4431.8
2253.243	4332.8
2257.175	4348.8
2261.104	4242.8
2265.029	4169.8
2268.95	4144.8
2272.868	4091.8
2276.783	4034.8
2280.694	3811.8
2284.601	3858.8
2288.505	3918.8
2292.405	3764.8
2296.302	3819.8
2300.195	3746.8
2304.085	3783.8
2307.971	3738.8
2311.854	3699.8
2315.734	3661.8
2319.609	3648.8
2323.482	3766.8
2327.351	3628.8
2331.216	3639.8
2335.078	3626.8
2338.937	3572.8
2342.792	3571.8
2346.643	3476.8
2350.492	3444.8
2354.336	3426.8
2358.178	3472.8
2362.015	3447.8
2365.85	3640.8
2369.681	3468.8
2373.508	3471.8
2377.333	3439.8
2381.153	3514.8
2384.971	3524.8
2388.785	3505.8
2392.595	3541.8
2396.402	3585.8
2400.206	3602.8
2404.007	3517.8
2407.804	3435.8
2411.597	3330.8
2415.388	3399.8
2419.174	3352.8
2422.958	3314.8
2426.738	3279.8
2430.515	3192.8
2434.289	3309.8
2438.059	3282.8
2441.825	3297.8
2445.589	3097.8
2449.349	3266.8
2453.106	3153.8
2456.859	3134.8
2460.61	3045.8
2464.356	3099.8
2468.1	3107.8
2471.84	3099.8
2475.577	3088.8
2479.311	3033.8
2483.041	2989.8
2486.768	2849.8
2490.492	2730.8
2494.213	3089.8
2497.93	2965.8
2501.644	2967.8
2505.355	2965.8
2509.062	2931.8
2512.766	2941.8
2516.467	2969.8
2520.165	2918.8
2523.859	2932.8
2527.551	2743.8
2531.239	2835.8
2534.923	2845.8
2538.605	2918.8
2542.283	2782.8
2545.958	2840.8
2549.63	2740.8
2553.299	2751.8
2556.964	2786.8
2560.626	2798.8
2564.285	2681.8
2567.941	2776.8
2571.594	2757.8
2575.243	2686.8
2578.89	2795.8
2582.533	2788.8
2586.173	2723.8
2589.809	2643.8
2593.443	2867.8
2597.073	2769.8
2600.701	2578.8
2604.325	2705.8
2607.946	2626.8
2611.564	2596.8
2615.178	2516.8
2618.79	2550.8
2622.398	2586.8
2626.004	2587.8
2629.606	2445.8
2633.205	2651.8
2636.801	2525.8
2640.394	2513.8
2643.983	2428.8
2647.57	2457.8
2651.153	2396.8
2654.734	2283.8
2658.311	2472.8
2661.885	2333.8
2665.456	2307.8
2669.025	2302.8
2672.589	2275.8
2676.151	2159.8
2679.71	2179.8
2683.266	2114.8
2686.819	2178.8
2690.368	2112.8
2693.915	2166.8
2697.458	2115.8
2700.999	2017.8
2704.536	2072.8
2708.071	2020.8
2711.602	1960.8
2715.13	1986.8
2718.656	2065.8
2722.178	1884.8
2725.697	1990.8
2729.214	1652.8
2732.727	1841.8
2736.237	1852.8
2739.744	1854.8
2743.249	1846.8
2746.75	1883.8
2750.248	1935.8
2753.743	2022.8
2757.236	1908.8
2760.725	1893.8
2764.211	2160.8
2767.695	1906.8
2771.175	1976.8
2774.652	1895.8
2778.127	1925.8
2781.598	1959.8
2785.067	1923.8
2788.532	1930.8
2791.995	1988.8
2795.455	1898.8
2798.911	1881.8
2802.365	1977.8
2805.816	1892.8
2809.264	1841.8
2812.709	1972.8
2816.151	1842.8
2819.59	2037.8
2823.026	1997.8
2826.46	2044.8
2829.89	1979.8
2833.318	2177.8
2836.742	2010.8
2840.164	1963.8
2843.583	2081.8
2846.999	2126.8
2850.412	2013.8
2853.822	2097.8
2857.229	1946.8
2860.634	2074.8
2864.035	2132.8
2867.434	2055.8
2870.83	1960.8
2874.223	2153.8
2877.613	2051.8
2881	2311.8
2884.385	2300.8
2887.766	2206.8
2891.145	2217.8
2894.521	2345.8
2897.894	2382.8
2901.264	2056.8
2904.631	2355.8
2907.996	2350.8
2911.358	2332.8
2914.717	2344.8
2918.073	2343.8
2921.426	2332.8
2924.777	2432.8
2928.124	2467.8
2931.469	2342.8
2934.811	2598.8
2938.15	2466.8
2941.487	2529.8
2944.821	2412.8
2948.152	2559.8
2951.48	2539.8
2954.805	2547.8
2958.128	2449.8
2961.447	2565.8
2964.765	2400.8
2968.079	2585.8
2971.39	2517.8
2974.699	2562.8
2978.005	2533.8
2981.308	2653.8
2984.609	2718.8
2987.907	2617.8
2991.202	2729.8
2994.494	2827.8
2997.784	2426.8
3001.07	2759.8
3004.355	2771.8
3007.636	2857.8
3010.915	2910.8
3014.191	2956.8
3017.464	2974.8
3020.734	2938.8
3024.002	3054.8
3027.267	3107.8
3030.53	3147.8
3033.789	3139.8
3037.046	3340.8
3040.301	3291.8
3043.552	3330.8
3046.801	3441.8
3050.048	3314.8
3053.291	3291.8
3056.532	3542.8
3059.771	3644.8
3063.006	3611.8
3066.239	3637.8
3069.469	3854.8
3072.697	4040.8
3075.922	4027.8
3079.144	4137.8
3082.364	4209.8
3085.581	4414.8
3088.795	4412.8
3092.007	4522.8
3095.216	4747.8
3098.423	4950.8
3101.627	5052.8
3104.828	5095.8
3108.026	5207.8
3111.222	5225.8
3114.416	5249.8
3117.607	5442.8
3120.795	5518.8
3123.98	5678.8
3127.163	5810.8
3130.344	5903.8
3133.521	5985.8
3136.696	6138.8
3139.869	6186.8
3143.039	6340.8
3146.206	6351.8
3149.371	6519.8
3152.533	6680.8
3155.693	6796.8
3158.85	6857.8
3162.005	6914.8
3165.157	7005.8
3168.306	7048.8
3171.453	6985.8
3174.597	7212.8
3177.739	7222.8
3180.878	7082.8
3184.014	7047.8
3187.149	7149.8
3190.28	7092.8
3193.409	7025.8
3196.536	7080.8
3199.659	7037.8
3202.781	7091.8
3205.9	7236.8
3209.016	7065.8
3212.13	7122.8
3215.241	7056.8
3218.35	7114.8
3221.456	7109.8
3224.56	7196.8
3227.661	7235.8
3230.76	7234.8
3233.856	7208.8
3236.95	7124.8
3240.041	7199.8
3243.13	6954.8
3246.216	7006.8
3249.3	6924.8
3252.382	6935.8
3255.46	6996.8
3258.537	6199.8
3261.611	6893.8
3264.682	6756.8
3267.751	6685.8
3270.818	6811.8
3273.882	6583.8
3276.943	6528.8
3280.002	6449.8
3283.059	6470.8
3286.113	6462.8
3289.165	6498.8
3292.214	6380.8
3295.261	6250.8
3298.306	6336.8
3301.348	6182.8
3304.387	6108.8
3307.425	6016.8
3310.459	5977.8
3313.492	5735.8
3316.521	5727.8
3319.549	5699.8
3322.574	5635.8
3325.597	5506.8
3328.617	5399.8
3331.635	5442.8
3334.65	5453.8
3337.663	5432.8
3340.674	5344.8
3343.682	5249.8
3346.688	5234.8
3349.691	5236.8
3352.692	5301.8
3355.691	5045.8
3358.687	5225.8
3361.681	5192.8
3364.673	5175.8
3367.662	5043.8
3370.649	4973.8
3373.633	5082.8
3376.615	5081.8
3379.595	5126.8
3382.572	5022.8
3385.547	4839.8
3388.52	4945.8
3391.49	4825.8
3394.458	4832.8
3397.424	4674.8
3400.387	4741.8
3403.348	4364.8
3406.307	4449.8
3409.263	4449.8
3412.217	4239.8
3415.168	4262.8
3418.118	4204.8
3421.065	4236.8
3424.009	4073.8
3426.951	4139.8
3429.891	3844.8
3432.829	4044.8
3435.764	3978.8
3438.697	3967.8
3441.628	3712.8
3444.557	3775.8
3447.483	3789.8
3450.407	3640.8
3453.328	3516.8
3456.247	3523.8
3459.164	3514.8
3462.079	3292.8
3464.991	3265.8
3467.902	3268.8
3470.809	3106.8
3473.715	3008.8
3476.618	2927.8
3479.519	2806.8
3482.418	2907.8
3485.315	2673.8
3488.209	2588.8
3491.101	2593.8
3493.99	2575.8
3496.878	2205.8
3499.763	2289.8
3502.646	2267.8
3505.527	2331.8
3508.405	2193.8
3511.281	2085.8
3514.155	2113.8
3517.027	2048.8
3519.897	2146.8
3522.764	1885.8
3525.629	1909.8
3528.492	1828.8
3531.352	1687.8
3534.211	1607.8
3537.067	1690.8
3539.921	1563.8
3542.773	1503.8
3545.622	1409.8
3548.469	1476.8
3551.315	1427.8
3554.157	1280.8
3556.998	1232.8
3559.837	1108.8
3562.673	1082.8
3565.507	1190.8
3568.339	1026.8
3571.169	1093.8
3573.996	988.8
3576.822	978.8
3579.645	1016.8
3582.466	941.8
3585.285	840.8
3588.101	791.8
3590.916	838.8
3593.728	716.8
3596.538	786.8
3599.346	659.8
3602.152	728.8
3604.956	700.8
3607.757	577.8
3610.556	758.8
3613.354	619.8
3616.149	566.8
3618.942	512.8
3621.732	351.8
3624.521	552.8
3627.307	422.8
3630.092	445.8
3632.874	346.8
3635.654	454.8
3638.432	505.8
3641.208	337.8
3643.982	405.8
3646.753	310.8
3649.523	441.8
3652.29	421.8
3655.055	388.8
3657.818	254.8
3660.579	319.8
3663.338	451.8
3666.095	186.8
3668.849	392.8
3671.602	246.8
3674.352	301.8
3677.101	212.8
3679.847	144.8
3682.591	243.8
3685.333	213.8
3688.073	130.8
3690.811	185.8
3693.547	229.8
3696.281	267.8
3699.013	82.8
3701.742	106.8
3704.47	183.8
3707.195	112.8
3709.919	73.8
3712.64	132.8
3715.359	-16.2
3718.076	-89.2
3720.792	52.8
3723.505	45.8
3726.216	54.8
3728.925	83.8
3731.632	-75.2
3734.336	98.8
3737.039	53.8
3739.74	66.8
3742.439	106.8
3745.136	7.8
3747.83	7.8
3750.523	26.8
3753.213	-726.2
3755.902	29.8
3758.589	95.8
3761.273	101.8
3763.956	-101.2
3766.636	60.8
3769.315	-92.2
3771.991	42.8
3774.665	-128.2
3777.338	96.8
3780.008	41.8
3782.677	55.8
3785.343	46.8
3788.007	-6.2
3790.67	-20.2
3793.33	-39.2
3795.989	56.8
3798.645	-44.2
3801.299	41.8
3803.952	-63.2
3806.602	-75.2
3809.251	12.8
3811.897	-23.2
3814.542	5.8
3817.184	-41.2
3819.825	9.8
3822.463	22.8
3825.1	-51.2
3827.735	62.8
3830.367	6.8
3832.998	-152.2
3835.627	-98.2
3838.253	-71.2
3840.878	-65.2
3843.501	-167.2
3846.122	-77.2
3848.741	-89.2
3851.358	-13.2
3853.973	8.8
3856.586	-60.2
3859.197	-88.2
3861.806	-79.2
3864.414	3.8
3867.019	-45.2
3869.622	-137.2
3872.224	-108.2
3874.823	30.8
3877.421	-45.2
3880.016	29.8
3882.61	166.8
3885.202	77.8
3887.792	54.8
3890.38	-55.2
3892.966	5.8
3895.55	-22.2
3898.132	-74.2
3900.713	-117.2
3903.291	-40.2
3905.868	-125.2
3908.442	-51.2
3911.015	-80.2
3913.586	-49.2
3916.155	-123.2
3918.722	-23.2
3921.287	-71.2
3923.85	-165.2
3926.411	-137.2
3928.971	-122.2
3931.528	-128.2
3934.084	-62.2
3936.638	-89.2
3939.19	-97.2
3941.74	-103.2
3944.288	-76.2
3946.834	-79.2
3949.378	-112.2
3951.921	-32.2
3954.462	-68.2
3957	-113.2
3959.537	-76.2
3962.072	33.8
3964.606	66.8
3967.137	-38.2
3969.667	-80.2
3972.194	-84.2
3974.72	-14.2
3977.244	-8.2
3979.766	8.8
3982.286	55.8
3984.805	-77.2
3987.321	-159.2
3989.836	-99.2
3992.349	-46.2
3994.86	-44.2
3997.369	-69.2
3999.877	-79.2
4002.382	-120.2
4004.886	-62.2
4007.388	-36.2
4009.888	63.8
4012.386	-114.2
4014.883	-71.2
4017.377	-66.2
4019.87	-147.2
4022.361	-15.2
4024.85	-39.2
4027.338	-117.2
4029.823	-145.2
4032.307	-41.2
4034.789	-17.2
4037.269	-19.2
4039.747	26.8
4042.224	-77.2
4044.699	-38.2
4047.172	-53.2
4049.643	-98.2
4052.112	66.8
4054.58	-49.2
4057.046	-20.2
4059.51	2.8
4061.972	-76.2
4064.432	37.8
4066.891	-136.2
4069.348	-33.2
4071.803	-125.2
4074.256	-111.2
4076.708	-49.2
4079.158	-95.2
4081.606	-198.2
4084.052	-28.2
4086.497	-29.2
4088.939	-33.2
4091.38	-36.2
4093.819	-83.2
4096.257	-1109.2
4098.693	-1132.2
4101.127	-1175.2
4103.559	-1200.2
4105.989	109.8
4108.418	93.8
4110.845	329.8
4113.27	241.8
4115.694	300.8
4118.115	348.8
4120.535	-97.2
4122.954	-133.2
4125.37	-217.2
4127.785	-73.2
4130.198	-115.2
4132.609	-150.2
4135.019	-1202.2
4137.427	-1208.2
4139.833	-1158.2
4142.237	-1032.2
