Data from 2018-2-8_conc=5_RamanShift_03.txt Node
Date: Wed Feb 07 10:59:10 IST 2018
User: aro
Spectrometer: QEPB0276
Trigger mode: 0
Integration Time (sec): 3.000000E1
Scans to average: 1
Electric dark correction enabled: true
Nonlinearity correction enabled: false
Boxcar width: 0
XAxis mode: Raman Shifts
Number of Pixels in Spectrum: 1044
>>>>>Begin Spectral Data<<<<<
160.701	590.5
166.742	709.5
172.777	1205.5
178.805	2736.5
184.826	6083.5
190.841	11865.5
196.849	18814.5
202.85	23801.5
208.845	25733.5
214.833	25555.5
220.815	25111.5
226.789	25049.5
232.758	24921.5
238.719	24889.5
244.674	24638.5
250.623	24216.5
256.565	23924.5
262.5	23374.5
268.429	22792.5
274.351	22597.5
280.267	22434.5
286.176	21891.5
292.079	21615.5
297.975	21285.5
303.865	21130.5
309.748	21011.5
315.625	20901.5
321.495	20430.5
327.359	20467.5
333.217	20461.5
339.068	20443.5
344.912	20502.5
350.751	20427.5
356.583	20322.5
362.408	20329.5
368.227	20372.5
374.04	20495.5
379.847	20622.5
385.647	20641.5
391.44	20854.5
397.228	20830.5
403.009	21060.5
408.784	21226.5
414.553	21216.5
420.315	21281.5
426.071	21456.5
431.821	21358.5
437.565	21352.5
443.302	21156.5
449.033	21118.5
454.758	21033.5
460.477	20823.5
466.189	20711.5
471.896	20724.5
477.596	20545.5
483.29	20627.5
488.978	20520.5
494.66	20621.5
500.335	20512.5
506.005	20485.5
511.668	20186.5
517.325	20088.5
522.977	19890.5
528.622	19784.5
534.261	19699.5
539.894	19520.5
545.521	19552.5
551.141	19394.5
556.756	19192.5
562.365	19097.5
567.968	18986.5
573.565	18802.5
579.155	18657.5
584.74	18557.5
590.319	18473.5
595.892	18559.5
601.459	18370.5
607.02	18487.5
612.575	18457.5
618.124	18268.5
623.667	18450.5
629.204	18375.5
634.735	18399.5
640.261	18217.5
645.781	18414.5
651.294	18182.5
656.802	17914.5
662.304	17716.5
667.8	17498.5
673.29	17653.5
678.775	17463.5
684.254	17490.5
689.726	17507.5
695.193	17324.5
700.655	17387.5
706.11	17531.5
711.56	17402.5
717.004	17412.5
722.442	17626.5
727.874	17406.5
733.301	17361.5
738.722	17449.5
744.137	17240.5
749.547	17191.5
754.951	17167.5
760.349	16977.5
765.741	16787.5
771.128	16772.5
776.509	16771.5
781.885	16747.5
787.254	16753.5
792.618	16856.5
797.977	16911.5
803.33	17015.5
808.677	17001.5
814.019	16946.5
819.355	17071.5
824.686	16997.5
830.011	17046.5
835.33	16674.5
840.644	16520.5
845.952	16597.5
851.255	16280.5
856.552	16210.5
861.844	16131.5
867.13	16009.5
872.41	16028.5
877.686	15939.5
882.955	16006.5
888.219	16063.5
893.478	16181.5
898.731	15992.5
903.979	15923.5
909.221	15927.5
914.458	15970.5
919.69	15656.5
924.916	15686.5
930.136	15387.5
935.351	15232.5
940.561	15092.5
945.766	15075.5
950.965	14858.5
956.158	14977.5
961.347	14925.5
966.529	15051.5
971.707	14989.5
976.879	14988.5
982.046	14992.5
987.208	15024.5
992.364	14870.5
997.515	14864.5
1002.66	14639.5
1007.801	14834.5
1012.936	14711.5
1018.066	14738.5
1023.19	14595.5
1028.309	14498.5
1033.423	14583.5
1038.532	14651.5
1043.636	14917.5
1048.734	14797.5
1053.827	14942.5
1058.915	14946.5
1063.998	14766.5
1069.075	14592.5
1074.147	14380.5
1079.214	14349.5
1084.276	14096.5
1089.333	14011.5
1094.385	14052.5
1099.431	13984.5
1104.472	13955.5
1109.509	14151.5
1114.54	14219.5
1119.565	14261.5
1124.586	14279.5
1129.602	14237.5
1134.613	14177.5
1139.618	14093.5
1144.619	13811.5
1149.614	13578.5
1154.604	13517.5
1159.589	13470.5
1164.57	13298.5
1169.545	13335.5
1174.515	13301.5
1179.48	13412.5
1184.44	13444.5
1189.395	13584.5
1194.345	13721.5
1199.29	13691.5
1204.23	13796.5
1209.165	13745.5
1214.095	13535.5
1219.021	13464.5
1223.941	13464.5
1228.856	13481.5
1233.766	13402.5
1238.672	13264.5
1243.572	13288.5
1248.467	13302.5
1253.358	13390.5
1258.244	13435.5
1263.124	13315.5
1268	13197.5
1272.871	13158.5
1277.737	13195.5
1282.599	12997.5
1287.455	12865.5
1292.306	12592.5
1297.153	12652.5
1301.995	12373.5
1306.832	12263.5
1311.664	12317.5
1316.491	12366.5
1321.314	12413.5
1326.132	12396.5
1330.945	12251.5
1335.753	12141.5
1340.556	12086.5
1345.354	11917.5
1350.148	11702.5
1354.937	11558.5
1359.722	11555.5
1364.501	11287.5
1369.276	11124.5
1374.046	11200.5
1378.811	11366.5
1383.572	11325.5
1388.327	11088.5
1393.079	11541.5
1397.825	11608.5
1402.567	11550.5
1407.304	11518.5
1412.036	11557.5
1416.764	11368.5
1421.487	11637.5
1426.205	11358.5
1430.919	11199.5
1435.628	11037.5
1440.333	10897.5
1445.032	10798.5
1449.727	10768.5
1454.418	10793.5
1459.104	10768.5
1463.785	10590.5
1468.462	10623.5
1473.134	10630.5
1477.802	10467.5
1482.465	10632.5
1487.123	10188.5
1491.777	10407.5
1496.426	10343.5
1501.071	10084.5
1505.711	10123.5
1510.347	10118.5
1514.978	10189.5
1519.604	10318.5
1524.226	10391.5
1528.844	10672.5
1533.457	10475.5
1538.065	10716.5
1542.669	10682.5
1547.269	10781.5
1551.864	10768.5
1556.454	10941.5
1561.041	10741.5
1565.622	10727.5
1570.199	10487.5
1574.772	10487.5
1579.34	10247.5
1583.904	10368.5
1588.464	10370.5
1593.019	10358.5
1597.569	10529.5
1602.115	10579.5
1606.657	10565.5
1611.195	10594.5
1615.728	10658.5
1620.256	10799.5
1624.78	10825.5
1629.3	10779.5
1633.816	10597.5
1638.327	10551.5
1642.834	10475.5
1647.336	10516.5
1651.834	10362.5
1656.328	10463.5
1660.817	10287.5
1665.302	10346.5
1669.783	10351.5
1674.259	10190.5
1678.732	9882.5
1683.199	9692.5
1687.663	9693.5
1692.122	9270.5
1696.577	9003.5
1701.028	9026.5
1705.474	8915.5
1709.917	8919.5
1714.355	8850.5
1718.788	8682.5
1723.218	8674.5
1727.643	8432.5
1732.064	8181.5
1736.481	8243.5
1740.893	8078.5
1745.301	7915.5
1749.705	8017.5
1754.105	7573.5
1758.501	7564.5
1762.893	7329.5
1767.28	7317.5
1771.663	6982.5
1776.042	6911.5
1780.417	6849.5
1784.787	6635.5
1789.154	6702.5
1793.516	6803.5
1797.874	6859.5
1802.228	6943.5
1806.578	7166.5
1810.924	7004.5
1815.266	7866.5
1819.603	7038.5
1823.937	7069.5
1828.266	6939.5
1832.591	6885.5
1836.913	6851.5
1841.23	6817.5
1845.543	6837.5
1849.852	6600.5
1854.156	6672.5
1858.457	6593.5
1862.754	6321.5
1867.047	6454.5
1871.335	6353.5
1875.62	6288.5
1879.9	6245.5
1884.177	6440.5
1888.449	6358.5
1892.718	6250.5
1896.982	6276.5
1901.243	6455.5
1905.499	6410.5
1909.752	6319.5
1914	6414.5
1918.245	6271.5
1922.485	6231.5
1926.722	6318.5
1930.954	6328.5
1935.183	6382.5
1939.408	6300.5
1943.628	6334.5
1947.845	6297.5
1952.058	6437.5
1956.267	6327.5
1960.472	6222.5
1964.673	6226.5
1968.87	6371.5
1973.063	6379.5
1977.252	6203.5
1981.438	6113.5
1985.619	5992.5
1989.797	5990.5
1993.971	5917.5
1998.14	5691.5
2002.306	5732.5
2006.469	5685.5
2010.627	5738.5
2014.781	5679.5
2018.932	5681.5
2023.078	5525.5
2027.221	5503.5
2031.36	5570.5
2035.495	5566.5
2039.627	5557.5
2043.754	5433.5
2047.878	5374.5
2051.998	5439.5
2056.114	5364.5
2060.226	5405.5
2064.334	5309.5
2068.439	5171.5
2072.54	5254.5
2076.637	5421.5
2080.73	5310.5
2084.82	5255.5
2088.906	5343.5
2092.988	5244.5
2097.066	5438.5
2101.14	5258.5
2105.211	5414.5
2109.278	5372.5
2113.342	5401.5
2117.401	5451.5
2121.457	5360.5
2125.509	5342.5
2129.558	5124.5
2133.602	5243.5
2137.643	5131.5
2141.681	5067.5
2145.714	5081.5
2149.744	4967.5
2153.77	5017.5
2157.793	5030.5
2161.812	5091.5
2165.827	4986.5
2169.838	4661.5
2173.846	4860.5
2177.851	4808.5
2181.851	4716.5
2185.848	4916.5
2189.841	4626.5
2193.831	4732.5
2197.817	4503.5
2201.799	4490.5
2205.778	4559.5
2209.753	4546.5
2213.725	4435.5
2217.693	4462.5
2221.657	4485.5
2225.618	4270.5
2229.575	4300.5
2233.529	4277.5
2237.479	4301.5
2241.425	4294.5
2245.368	4430.5
2249.307	4269.5
2253.243	4230.5
2257.175	4339.5
2261.104	4128.5
2265.029	4010.5
2268.95	4036.5
2272.868	3937.5
2276.783	4007.5
2280.694	3763.5
2284.601	3825.5
2288.505	3812.5
2292.405	3637.5
2296.302	3803.5
2300.195	3670.5
2304.085	3815.5
2307.971	3605.5
2311.854	3689.5
2315.734	3580.5
2319.609	3545.5
2323.482	3688.5
2327.351	3550.5
2331.216	3526.5
2335.078	3552.5
2338.937	3513.5
2342.792	3500.5
2346.643	3502.5
2350.492	3485.5
2354.336	3463.5
2358.178	3429.5
2362.015	3367.5
2365.85	3494.5
2369.681	3519.5
2373.508	3435.5
2377.333	3310.5
2381.153	3512.5
2384.971	3496.5
2388.785	3467.5
2392.595	3488.5
2396.402	3461.5
2400.206	3581.5
2404.007	3519.5
2407.804	3446.5
2411.597	3255.5
2415.388	3419.5
2419.174	3399.5
2422.958	3308.5
2426.738	3299.5
2430.515	3187.5
2434.289	3360.5
2438.059	3337.5
2441.825	3224.5
2445.589	3031.5
2449.349	3251.5
2453.106	3128.5
2456.859	3142.5
2460.61	3012.5
2464.356	3081.5
2468.1	3066.5
2471.84	3113.5
2475.577	3123.5
2479.311	3037.5
2483.041	3002.5
2486.768	2851.5
2490.492	2655.5
2494.213	3110.5
2497.93	3014.5
2501.644	2935.5
2505.355	3060.5
2509.062	2891.5
2512.766	2931.5
2516.467	2881.5
2520.165	2862.5
2523.859	3050.5
2527.551	2711.5
2531.239	2881.5
2534.923	2910.5
2538.605	2892.5
2542.283	2855.5
2545.958	2838.5
2549.63	2780.5
2553.299	2711.5
2556.964	2645.5
2560.626	2835.5
2564.285	2697.5
2567.941	2818.5
2571.594	2753.5
2575.243	2721.5
2578.89	2823.5
2582.533	2791.5
2586.173	2761.5
2589.809	2716.5
2593.443	2954.5
2597.073	2736.5
2600.701	2588.5
2604.325	2661.5
2607.946	2669.5
2611.564	2596.5
2615.178	2452.5
2618.79	2548.5
2622.398	2678.5
2626.004	2595.5
2629.606	2440.5
2633.205	2741.5
2636.801	2507.5
2640.394	2489.5
2643.983	2516.5
2647.57	2501.5
2651.153	2430.5
2654.734	2283.5
2658.311	2579.5
2661.885	2437.5
2665.456	2450.5
2669.025	2362.5
2672.589	2306.5
2676.151	2190.5
2679.71	2150.5
2683.266	2181.5
2686.819	2257.5
2690.368	2125.5
2693.915	1986.5
2697.458	2232.5
2700.999	2087.5
2704.536	2052.5
2708.071	2102.5
2711.602	2011.5
2715.13	2075.5
2718.656	2012.5
2722.178	1923.5
2725.697	2051.5
2729.214	1742.5
2732.727	1878.5
2736.237	1905.5
2739.744	1908.5
2743.249	2002.5
2746.75	2007.5
2750.248	2042.5
2753.743	1987.5
2757.236	1985.5
2760.725	1966.5
2764.211	2176.5
2767.695	2050.5
2771.175	1993.5
2774.652	1952.5
2778.127	2023.5
2781.598	1951.5
2785.067	1999.5
2788.532	1998.5
2791.995	1901.5
2795.455	1944.5
2798.911	1913.5
2802.365	2103.5
2805.816	1909.5
2809.264	1868.5
2812.709	2039.5
2816.151	1947.5
2819.59	2134.5
2823.026	2112.5
2826.46	2103.5
2829.89	2038.5
2833.318	2202.5
2836.742	2069.5
2840.164	2021.5
2843.583	2155.5
2846.999	2141.5
2850.412	2020.5
2853.822	2129.5
2857.229	2017.5
2860.634	2136.5
2864.035	2174.5
2867.434	2056.5
2870.83	2121.5
2874.223	2241.5
2877.613	2119.5
2881	2348.5
2884.385	2378.5
2887.766	2340.5
2891.145	2295.5
2894.521	2416.5
2897.894	2446.5
2901.264	2123.5
2904.631	2374.5
2907.996	2260.5
2911.358	2337.5
2914.717	2338.5
2918.073	2401.5
2921.426	2353.5
2924.777	2504.5
2928.124	2507.5
2931.469	2375.5
2934.811	2612.5
2938.15	2460.5
2941.487	2506.5
2944.821	2168.5
2948.152	2591.5
2951.48	2531.5
2954.805	2555.5
2958.128	2468.5
2961.447	2559.5
2964.765	2434.5
2968.079	2615.5
2971.39	2513.5
2974.699	2585.5
2978.005	2526.5
2981.308	2607.5
2984.609	2748.5
2987.907	2618.5
2991.202	2720.5
2994.494	2769.5
2997.784	2444.5
3001.07	2697.5
3004.355	2818.5
3007.636	2875.5
3010.915	2879.5
3014.191	2896.5
3017.464	2905.5
3020.734	2864.5
3024.002	3069.5
3027.267	3094.5
3030.53	3086.5
3033.789	3135.5
3037.046	3360.5
3040.301	3259.5
3043.552	3327.5
3046.801	3343.5
3050.048	3251.5
3053.291	3201.5
3056.532	3381.5
3059.771	3574.5
3063.006	3533.5
3066.239	3616.5
3069.469	3725.5
3072.697	4012.5
3075.922	3979.5
3079.144	4111.5
3082.364	4137.5
3085.581	4310.5
3088.795	4105.5
3092.007	4376.5
3095.216	4583.5
3098.423	4766.5
3101.627	4927.5
3104.828	4986.5
3108.026	5043.5
3111.222	5077.5
3114.416	5039.5
3117.607	5352.5
3120.795	5371.5
3123.98	5481.5
3127.163	5698.5
3130.344	5690.5
3133.521	5755.5
3136.696	5754.5
3139.869	5951.5
3143.039	6098.5
3146.206	6020.5
3149.371	6168.5
3152.533	6311.5
3155.693	6478.5
3158.85	6543.5
3162.005	6553.5
3165.157	6709.5
3168.306	6739.5
3171.453	6613.5
3174.597	6833.5
3177.739	6851.5
3180.878	6761.5
3184.014	6766.5
3187.149	6830.5
3190.28	6797.5
3193.409	6741.5
3196.536	6706.5
3199.659	6660.5
3202.781	6696.5
3205.9	6880.5
3209.016	6760.5
3212.13	6695.5
3215.241	6672.5
3218.35	6677.5
3221.456	6827.5
3224.56	6917.5
3227.661	6826.5
3230.76	6985.5
3233.856	6846.5
3236.95	6825.5
3240.041	6916.5
3243.13	6674.5
3246.216	6726.5
3249.3	6582.5
3252.382	6560.5
3255.46	6611.5
3258.537	6628.5
3261.611	6631.5
3264.682	6462.5
3267.751	6358.5
3270.818	6493.5
3273.882	6248.5
3276.943	6194.5
3280.002	6115.5
3283.059	6128.5
3286.113	6208.5
3289.165	6246.5
3292.214	6134.5
3295.261	5915.5
3298.306	6047.5
3301.348	5868.5
3304.387	5830.5
3307.425	5712.5
3310.459	5663.5
3313.492	5442.5
3316.521	5558.5
3319.549	5418.5
3322.574	5320.5
3325.597	5221.5
3328.617	5223.5
3331.635	5176.5
3334.65	5210.5
3337.663	5165.5
3340.674	5099.5
3343.682	4980.5
3346.688	5040.5
3349.691	5046.5
3352.692	5053.5
3355.691	4820.5
3358.687	4911.5
3361.681	4885.5
3364.673	4893.5
3367.662	4871.5
3370.649	4668.5
3373.633	4843.5
3376.615	4719.5
3379.595	4904.5
3382.572	4692.5
3385.547	4633.5
3388.52	4746.5
3391.49	4633.5
3394.458	4580.5
3397.424	4393.5
3400.387	4543.5
3403.348	4187.5
3406.307	4242.5
3409.263	4277.5
3412.217	4098.5
3415.168	4054.5
3418.118	4043.5
3421.065	4001.5
3424.009	3808.5
3426.951	3945.5
3429.891	3882.5
3432.829	3845.5
3435.764	3860.5
3438.697	3809.5
3441.628	3505.5
3444.557	3624.5
3447.483	3670.5
3450.407	3418.5
3453.328	3322.5
3456.247	3428.5
3459.164	3466.5
3462.079	3175.5
3464.991	3161.5
3467.902	3071.5
3470.809	3013.5
3473.715	2892.5
3476.618	2812.5
3479.519	2769.5
3482.418	2890.5
3485.315	2698.5
3488.209	2600.5
3491.101	2401.5
3493.99	2583.5
3496.878	2240.5
3499.763	2325.5
3502.646	2199.5
3505.527	2392.5
3508.405	2196.5
3511.281	2129.5
3514.155	2164.5
3517.027	2110.5
3519.897	2210.5
3522.764	1928.5
3525.629	2020.5
3528.492	1840.5
3531.352	1777.5
3534.211	1711.5
3537.067	1811.5
3539.921	1697.5
3542.773	1584.5
3545.622	1540.5
3548.469	1560.5
3551.315	1533.5
3554.157	1376.5
3556.998	1330.5
3559.837	1228.5
3562.673	1175.5
3565.507	1247.5
3568.339	1105.5
3571.169	1199.5
3573.996	1164.5
3576.822	1104.5
3579.645	1151.5
3582.466	1094.5
3585.285	970.5
3588.101	950.5
3590.916	997.5
3593.728	922.5
3596.538	949.5
3599.346	804.5
3602.152	937.5
3604.956	924.5
3607.757	728.5
3610.556	887.5
3613.354	735.5
3616.149	684.5
3618.942	724.5
3621.732	511.5
3624.521	772.5
3627.307	644.5
3630.092	633.5
3632.874	471.5
3635.654	603.5
3638.432	731.5
3641.208	557.5
3643.982	573.5
3646.753	511.5
3649.523	595.5
3652.29	570.5
3655.055	600.5
3657.818	415.5
3660.579	400.5
3663.338	656.5
3666.095	391.5
3668.849	604.5
3671.602	399.5
3674.352	601.5
3677.101	373.5
3679.847	285.5
3682.591	419.5
3685.333	392.5
3688.073	334.5
3690.811	436.5
3693.547	261.5
3696.281	350.5
3699.013	300.5
3701.742	332.5
3704.47	431.5
3707.195	263.5
3709.919	292.5
3712.64	309.5
3715.359	219.5
3718.076	-12.5
3720.792	323.5
3723.505	281.5
3726.216	298.5
3728.925	279.5
3731.632	126.5
3734.336	355.5
3737.039	229.5
3739.74	307.5
3742.439	532.5
3745.136	277.5
3747.83	179.5
3750.523	230.5
3753.213	324.5
3755.902	220.5
3758.589	357.5
3761.273	315.5
3763.956	96.5
3766.636	226.5
3769.315	62.5
3771.991	348.5
3774.665	218.5
3777.338	393.5
3780.008	291.5
3782.677	245.5
3785.343	324.5
3788.007	433.5
3790.67	185.5
3793.33	128.5
3795.989	211.5
3798.645	166.5
3801.299	360.5
3803.952	175.5
3806.602	158.5
3809.251	218.5
3811.897	176.5
3814.542	293.5
3817.184	210.5
3819.825	157.5
3822.463	-72.5
3825.1	218.5
3827.735	214.5
3830.367	191.5
3832.998	27.5
3835.627	89.5
3838.253	151.5
3840.878	15.5
3843.501	35.5
3846.122	103.5
3848.741	54.5
3851.358	136.5
3853.973	356.5
3856.586	147.5
3859.197	117.5
3861.806	160.5
3864.414	242.5
3867.019	210.5
3869.622	59.5
3872.224	30.5
3874.823	232.5
3877.421	211.5
3880.016	246.5
3882.61	382.5
3885.202	329.5
3887.792	321.5
3890.38	120.5
3892.966	248.5
3895.55	173.5
3898.132	183.5
3900.713	110.5
3903.291	187.5
3905.868	186.5
3908.442	141.5
3911.015	60.5
3913.586	144.5
3916.155	96.5
3918.722	245.5
3921.287	194.5
3923.85	-36.5
3926.411	91.5
3928.971	83.5
3931.528	189.5
3934.084	127.5
3936.638	180.5
3939.19	95.5
3941.74	186.5
3944.288	82.5
3946.834	154.5
3949.378	92.5
3951.921	214.5
3954.462	140.5
3957	137.5
3959.537	190.5
3962.072	304.5
3964.606	266.5
3967.137	67.5
3969.667	153.5
3972.194	191.5
3974.72	182.5
3977.244	226.5
3979.766	121.5
3982.286	257.5
3984.805	101.5
3987.321	47.5
3989.836	91.5
3992.349	203.5
3994.86	143.5
3997.369	177.5
3999.877	162.5
4002.382	135.5
4004.886	148.5
4007.388	235.5
4009.888	285.5
4012.386	160.5
4014.883	96.5
4017.377	178.5
4019.87	45.5
4022.361	213.5
4024.85	285.5
4027.338	280.5
4029.823	129.5
4032.307	158.5
4034.789	245.5
4037.269	152.5
4039.747	257.5
4042.224	147.5
4044.699	232.5
4047.172	222.5
4049.643	184.5
4052.112	204.5
4054.58	165.5
4057.046	199.5
4059.51	211.5
4061.972	148.5
4064.432	297.5
4066.891	85.5
4069.348	207.5
4071.803	111.5
4074.256	148.5
4076.708	241.5
4079.158	232.5
4081.606	47.5
4084.052	181.5
4086.497	50.5
4088.939	204.5
4091.38	226.5
4093.819	138.5
4096.257	-1304.5
4098.693	-1280.5
4101.127	-1358.5
4103.559	-1373.5
4105.989	347.5
4108.418	346.5
4110.845	526.5
4113.27	408.5
4115.694	539.5
4118.115	558.5
4120.535	97.5
4122.954	33.5
4125.37	8.5
4127.785	115.5
4130.198	78.5
4132.609	97.5
4135.019	-1389.5
4137.427	-1389.5
4139.833	-1304.5
4142.237	-1158.5
