Data from 2018-2-8_conc=2_RamanShift_19.txt Node
Date: Wed Feb 07 10:04:40 IST 2018
User: aro
Spectrometer: QEPB0276
Trigger mode: 0
Integration Time (sec): 3.000000E1
Scans to average: 1
Electric dark correction enabled: true
Nonlinearity correction enabled: false
Boxcar width: 0
XAxis mode: Raman Shifts
Number of Pixels in Spectrum: 1044
>>>>>Begin Spectral Data<<<<<
160.701	440.5
166.742	572.5
172.777	1046.5
178.805	2727.5
184.826	6325.5
190.841	12531.5
196.849	20044.5
202.85	25666.5
208.845	27717.5
214.833	27421.5
220.815	27066.5
226.789	25721.5
232.758	26858.5
238.719	26717.5
244.674	26459.5
250.623	25938.5
256.565	25623.5
262.5	25010.5
268.429	24462.5
274.351	24180.5
280.267	23982.5
286.176	23412.5
292.079	23181.5
297.975	22831.5
303.865	22636.5
309.748	22459.5
315.625	22242.5
321.495	21874.5
327.359	21834.5
333.217	21946.5
339.068	21837.5
344.912	21891.5
350.751	21855.5
356.583	21789.5
362.408	21782.5
368.227	21787.5
374.04	21907.5
379.847	21917.5
385.647	22133.5
391.44	22371.5
397.228	22358.5
403.009	22547.5
408.784	22659.5
414.553	22683.5
420.315	22794.5
426.071	22860.5
431.821	22856.5
437.565	22822.5
443.302	22589.5
449.033	22590.5
454.758	22439.5
460.477	22399.5
466.189	22208.5
471.896	22144.5
477.596	22002.5
483.29	22038.5
488.978	22042.5
494.66	22083.5
500.335	21992.5
506.005	21880.5
511.668	21610.5
517.325	21528.5
522.977	21315.5
528.622	21306.5
534.261	21082.5
539.894	21057.5
545.521	20976.5
551.141	20843.5
556.756	20655.5
562.365	20528.5
567.968	20431.5
573.565	20237.5
579.155	20098.5
584.74	20102.5
590.319	19863.5
595.892	19888.5
601.459	19822.5
607.02	19805.5
612.575	19853.5
618.124	19719.5
623.667	19809.5
629.204	19788.5
634.735	19766.5
640.261	19596.5
645.781	19802.5
651.294	19486.5
656.802	19334.5
662.304	19228.5
667.8	18910.5
673.29	18960.5
678.775	18755.5
684.254	18858.5
689.726	18871.5
695.193	18666.5
700.655	18684.5
706.11	18894.5
711.56	18694.5
717.004	18843.5
722.442	18636.5
727.874	18766.5
733.301	18784.5
738.722	18826.5
744.137	18594.5
749.547	18514.5
754.951	18396.5
760.349	18232.5
765.741	18114.5
771.128	18054.5
776.509	18136.5
781.885	18078.5
787.254	18022.5
792.618	18114.5
797.977	18248.5
803.33	18228.5
808.677	18301.5
814.019	18217.5
819.355	18341.5
824.686	18338.5
830.011	18188.5
835.33	17970.5
840.644	17820.5
845.952	17863.5
851.255	17595.5
856.552	17463.5
861.844	17399.5
867.13	17309.5
872.41	17297.5
877.686	17173.5
882.955	17364.5
888.219	17407.5
893.478	17447.5
898.731	17326.5
903.979	17193.5
909.221	17222.5
914.458	17190.5
919.69	16941.5
924.916	16851.5
930.136	16675.5
935.351	16554.5
940.561	16273.5
945.766	16255.5
950.965	16029.5
956.158	16183.5
961.347	16254.5
966.529	16217.5
971.707	16204.5
976.879	16133.5
982.046	16243.5
987.208	16276.5
992.364	16055.5
997.515	16048.5
1002.66	15914.5
1007.801	15947.5
1012.936	15856.5
1018.066	15935.5
1023.19	15736.5
1028.309	15634.5
1033.423	15764.5
1038.532	15870.5
1043.636	16055.5
1048.734	15987.5
1053.827	16102.5
1058.915	16120.5
1063.998	15960.5
1069.075	15692.5
1074.147	15553.5
1079.214	15604.5
1084.276	15288.5
1089.333	15255.5
1094.385	15107.5
1099.431	15137.5
1104.472	15103.5
1109.509	15312.5
1114.54	15416.5
1119.565	15424.5
1124.586	15417.5
1129.602	15412.5
1134.613	15354.5
1139.618	15219.5
1144.619	14952.5
1149.614	14749.5
1154.604	14608.5
1159.589	14540.5
1164.57	14361.5
1169.545	14387.5
1174.515	14430.5
1179.48	14591.5
1184.44	14629.5
1189.395	14710.5
1194.345	14900.5
1199.29	14840.5
1204.23	14944.5
1209.165	14824.5
1214.095	14745.5
1219.021	14536.5
1223.941	14506.5
1228.856	14538.5
1233.766	14515.5
1238.672	14426.5
1243.572	14410.5
1248.467	14373.5
1253.358	14549.5
1258.244	14605.5
1263.124	14460.5
1268	14321.5
1272.871	14291.5
1277.737	14261.5
1282.599	14010.5
1287.455	13867.5
1292.306	13582.5
1297.153	13676.5
1301.995	13555.5
1306.832	13443.5
1311.664	13462.5
1316.491	13526.5
1321.314	13508.5
1326.132	13433.5
1330.945	13342.5
1335.753	13214.5
1340.556	13057.5
1345.354	12856.5
1350.148	12520.5
1354.937	12492.5
1359.722	12403.5
1364.501	12222.5
1369.276	12092.5
1374.046	12142.5
1378.811	12344.5
1383.572	12446.5
1388.327	12129.5
1393.079	12594.5
1397.825	12703.5
1402.567	12540.5
1407.304	12551.5
1412.036	12610.5
1416.764	12491.5
1421.487	12594.5
1426.205	12359.5
1430.919	12134.5
1435.628	11951.5
1440.333	11850.5
1445.032	11768.5
1449.727	11799.5
1454.418	11642.5
1459.104	11677.5
1463.785	11479.5
1468.462	11568.5
1473.134	11478.5
1477.802	11292.5
1482.465	11433.5
1487.123	11075.5
1491.777	11215.5
1496.426	11075.5
1501.071	10879.5
1505.711	10948.5
1510.347	10950.5
1514.978	11168.5
1519.604	11173.5
1524.226	11340.5
1528.844	11528.5
1533.457	11478.5
1538.065	11683.5
1542.669	11724.5
1547.269	11812.5
1551.864	11779.5
1556.454	11868.5
1561.041	11714.5
1565.622	11697.5
1570.199	11432.5
1574.772	11355.5
1579.34	11169.5
1583.904	11318.5
1588.464	11295.5
1593.019	11313.5
1597.569	11396.5
1602.115	11522.5
1606.657	11562.5
1611.195	11530.5
1615.728	11580.5
1620.256	11719.5
1624.78	11789.5
1629.3	11685.5
1633.816	11456.5
1638.327	11504.5
1642.834	11429.5
1647.336	11267.5
1651.834	11234.5
1656.328	11282.5
1660.817	11201.5
1665.302	11110.5
1669.783	11267.5
1674.259	11059.5
1678.732	10774.5
1683.199	10550.5
1687.663	10310.5
1692.122	9955.5
1696.577	9695.5
1701.028	9769.5
1705.474	9733.5
1709.917	9604.5
1714.355	9616.5
1718.788	9508.5
1723.218	9444.5
1727.643	9136.5
1732.064	8962.5
1736.481	9024.5
1740.893	8838.5
1745.301	8596.5
1749.705	8771.5
1754.105	8252.5
1758.501	8316.5
1762.893	7884.5
1767.28	7819.5
1771.663	7644.5
1776.042	7424.5
1780.417	7365.5
1784.787	7128.5
1789.154	7210.5
1793.516	7223.5
1797.874	7429.5
1802.228	7604.5
1806.578	7769.5
1810.924	7599.5
1815.266	7984.5
1819.603	7659.5
1823.937	7678.5
1828.266	7607.5
1832.591	7471.5
1836.913	7432.5
1841.23	7404.5
1845.543	7435.5
1849.852	7234.5
1854.156	7161.5
1858.457	7149.5
1862.754	6845.5
1867.047	7011.5
1871.335	6889.5
1875.62	6849.5
1879.9	6761.5
1884.177	6919.5
1888.449	6823.5
1892.718	6903.5
1896.982	6696.5
1901.243	6885.5
1905.499	6810.5
1909.752	6802.5
1914	6847.5
1918.245	6761.5
1922.485	6816.5
1926.722	6853.5
1930.954	6847.5
1935.183	6851.5
1939.408	6830.5
1943.628	6900.5
1947.845	6897.5
1952.058	6975.5
1956.267	6786.5
1960.472	6769.5
1964.673	6847.5
1968.87	6904.5
1973.063	6881.5
1977.252	6751.5
1981.438	6692.5
1985.619	6538.5
1989.797	6470.5
1993.971	6417.5
1998.14	6243.5
2002.306	6213.5
2006.469	6207.5
2010.627	6221.5
2014.781	6105.5
2018.932	6157.5
2023.078	5965.5
2027.221	6027.5
2031.36	6019.5
2035.495	5957.5
2039.627	5934.5
2043.754	5924.5
2047.878	5875.5
2051.998	5767.5
2056.114	5865.5
2060.226	5802.5
2064.334	5679.5
2068.439	5583.5
2072.54	5621.5
2076.637	5787.5
2080.73	5802.5
2084.82	5728.5
2088.906	5736.5
2092.988	5645.5
2097.066	5902.5
2101.14	5791.5
2105.211	5753.5
2109.278	5800.5
2113.342	5845.5
2117.401	5899.5
2121.457	5818.5
2125.509	5848.5
2129.558	5598.5
2133.602	5664.5
2137.643	5541.5
2141.681	5531.5
2145.714	5448.5
2149.744	5407.5
2153.77	5441.5
2157.793	5318.5
2161.812	5436.5
2165.827	5342.5
2169.838	5237.5
2173.846	5180.5
2177.851	5154.5
2181.851	5109.5
2185.848	5270.5
2189.841	5030.5
2193.831	5006.5
2197.817	4874.5
2201.799	4817.5
2205.778	4932.5
2209.753	4825.5
2213.725	4872.5
2217.693	4742.5
2221.657	4772.5
2225.618	4672.5
2229.575	4686.5
2233.529	4658.5
2237.479	4641.5
2241.425	4623.5
2245.368	4758.5
2249.307	4581.5
2253.243	4572.5
2257.175	4598.5
2261.104	4447.5
2265.029	4376.5
2268.95	4358.5
2272.868	4227.5
2276.783	4317.5
2280.694	4033.5
2284.601	4124.5
2288.505	4096.5
2292.405	3950.5
2296.302	4020.5
2300.195	3969.5
2304.085	4023.5
2307.971	3926.5
2311.854	3918.5
2315.734	3794.5
2319.609	3829.5
2323.482	3972.5
2327.351	3803.5
2331.216	3809.5
2335.078	3770.5
2338.937	3769.5
2342.792	3823.5
2346.643	3653.5
2350.492	3615.5
2354.336	3671.5
2358.178	3668.5
2362.015	3656.5
2365.85	3754.5
2369.681	3658.5
2373.508	3685.5
2377.333	3661.5
2381.153	3684.5
2384.971	3710.5
2388.785	3732.5
2392.595	3681.5
2396.402	3807.5
2400.206	3777.5
2404.007	3722.5
2407.804	3620.5
2411.597	3531.5
2415.388	3616.5
2419.174	3557.5
2422.958	3506.5
2426.738	3468.5
2430.515	3371.5
2434.289	3457.5
2438.059	3442.5
2441.825	3469.5
2445.589	3265.5
2449.349	3386.5
2453.106	3301.5
2456.859	3324.5
2460.61	3237.5
2464.356	3258.5
2468.1	3256.5
2471.84	3286.5
2475.577	3245.5
2479.311	3216.5
2483.041	3133.5
2486.768	3027.5
2490.492	2838.5
2494.213	3279.5
2497.93	3141.5
2501.644	3181.5
2505.355	3100.5
2509.062	3096.5
2512.766	3105.5
2516.467	3103.5
2520.165	3070.5
2523.859	3129.5
2527.551	2843.5
2531.239	3028.5
2534.923	3032.5
2538.605	3085.5
2542.283	2948.5
2545.958	3038.5
2549.63	2906.5
2553.299	2911.5
2556.964	2941.5
2560.626	2923.5
2564.285	2864.5
2567.941	2905.5
2571.594	2994.5
2575.243	2720.5
2578.89	2933.5
2582.533	2920.5
2586.173	2924.5
2589.809	2815.5
2593.443	3047.5
2597.073	2900.5
2600.701	2758.5
2604.325	2819.5
2607.946	2787.5
2611.564	2698.5
2615.178	2618.5
2618.79	2658.5
2622.398	2732.5
2626.004	2702.5
2629.606	2587.5
2633.205	2821.5
2636.801	2697.5
2640.394	2641.5
2643.983	2581.5
2647.57	2608.5
2651.153	2591.5
2654.734	2434.5
2658.311	2640.5
2661.885	2491.5
2665.456	2420.5
2669.025	2423.5
2672.589	2403.5
2676.151	2326.5
2679.71	2330.5
2683.266	2277.5
2686.819	2252.5
2690.368	2255.5
2693.915	2257.5
2697.458	2274.5
2700.999	2185.5
2704.536	2149.5
2708.071	2104.5
2711.602	2105.5
2715.13	2129.5
2718.656	2124.5
2722.178	1986.5
2725.697	2054.5
2729.214	1775.5
2732.727	1974.5
2736.237	2064.5
2739.744	1940.5
2743.249	1981.5
2746.75	2020.5
2750.248	2061.5
2753.743	2071.5
2757.236	1992.5
2760.725	2061.5
2764.211	2239.5
2767.695	2035.5
2771.175	2019.5
2774.652	2009.5
2778.127	2028.5
2781.598	2040.5
2785.067	2026.5
2788.532	2070.5
2791.995	1984.5
2795.455	2016.5
2798.911	1962.5
2802.365	2135.5
2805.816	2016.5
2809.264	1924.5
2812.709	2077.5
2816.151	2025.5
2819.59	2183.5
2823.026	2118.5
2826.46	2071.5
2829.89	2072.5
2833.318	2262.5
2836.742	2125.5
2840.164	2076.5
2843.583	2183.5
2846.999	2169.5
2850.412	2132.5
2853.822	2222.5
2857.229	2099.5
2860.634	2195.5
2864.035	2208.5
2867.434	2130.5
2870.83	2104.5
2874.223	2283.5
2877.613	2181.5
2881	2378.5
2884.385	2430.5
2887.766	2315.5
2891.145	2267.5
2894.521	2440.5
2897.894	2477.5
2901.264	2186.5
2904.631	2488.5
2907.996	2403.5
2911.358	2353.5
2914.717	2409.5
2918.073	2425.5
2921.426	2423.5
2924.777	2519.5
2928.124	2525.5
2931.469	2398.5
2934.811	2658.5
2938.15	2560.5
2941.487	2585.5
2944.821	2522.5
2948.152	2693.5
2951.48	2623.5
2954.805	2561.5
2958.128	2531.5
2961.447	2613.5
2964.765	2499.5
2968.079	2647.5
2971.39	2590.5
2974.699	2640.5
2978.005	2593.5
2981.308	2697.5
2984.609	2781.5
2987.907	2742.5
2991.202	2821.5
2994.494	2901.5
2997.784	2512.5
3001.07	2839.5
3004.355	2842.5
3007.636	2964.5
3010.915	2997.5
3014.191	3094.5
3017.464	3069.5
3020.734	3065.5
3024.002	3145.5
3027.267	3157.5
3030.53	3211.5
3033.789	3276.5
3037.046	3394.5
3040.301	3388.5
3043.552	3407.5
3046.801	3480.5
3050.048	3332.5
3053.291	3328.5
3056.532	3589.5
3059.771	3701.5
3063.006	3670.5
3066.239	3740.5
3069.469	3890.5
3072.697	4075.5
3075.922	4149.5
3079.144	4184.5
3082.364	4241.5
3085.581	4492.5
3088.795	4414.5
3092.007	4594.5
3095.216	4741.5
3098.423	4993.5
3101.627	5118.5
3104.828	5162.5
3108.026	5249.5
3111.222	5281.5
3114.416	5379.5
3117.607	5449.5
3120.795	5564.5
3123.98	5695.5
3127.163	5912.5
3130.344	5916.5
3133.521	6217.5
3136.696	6179.5
3139.869	6254.5
3143.039	6428.5
3146.206	6375.5
3149.371	6572.5
3152.533	6710.5
3155.693	6825.5
3158.85	6942.5
3162.005	6938.5
3165.157	7042.5
3168.306	7084.5
3171.453	6958.5
3174.597	7231.5
3177.739	7239.5
3180.878	7138.5
3184.014	7114.5
3187.149	7170.5
3190.28	7132.5
3193.409	7111.5
3196.536	7083.5
3199.659	7038.5
3202.781	7144.5
3205.9	7239.5
3209.016	7161.5
3212.13	7092.5
3215.241	7024.5
3218.35	7184.5
3221.456	7170.5
3224.56	7294.5
3227.661	7207.5
3230.76	7374.5
3233.856	7278.5
3236.95	7169.5
3240.041	7254.5
3243.13	7009.5
3246.216	7145.5
3249.3	6942.5
3252.382	6961.5
3255.46	7037.5
3258.537	6209.5
3261.611	6985.5
3264.682	6733.5
3267.751	6699.5
3270.818	6846.5
3273.882	6615.5
3276.943	6598.5
3280.002	6525.5
3283.059	6532.5
3286.113	6491.5
3289.165	6518.5
3292.214	6447.5
3295.261	6265.5
3298.306	6399.5
3301.348	6157.5
3304.387	6116.5
3307.425	6032.5
3310.459	6012.5
3313.492	5748.5
3316.521	5824.5
3319.549	5724.5
3322.574	5661.5
3325.597	5514.5
3328.617	5560.5
3331.635	5472.5
3334.65	5481.5
3337.663	5433.5
3340.674	5387.5
3343.682	5275.5
3346.688	5260.5
3349.691	5245.5
3352.692	5360.5
3355.691	5120.5
3358.687	5300.5
3361.681	5186.5
3364.673	5172.5
3367.662	5183.5
3370.649	4930.5
3373.633	5131.5
3376.615	4968.5
3379.595	5089.5
3382.572	5033.5
3385.547	4918.5
3388.52	4939.5
3391.49	4868.5
3394.458	4827.5
3397.424	4649.5
3400.387	4724.5
3403.348	4395.5
3406.307	4420.5
3409.263	4480.5
3412.217	4339.5
3415.168	4273.5
3418.118	4304.5
3421.065	4186.5
3424.009	4069.5
3426.951	4118.5
3429.891	3905.5
3432.829	3987.5
3435.764	4004.5
3438.697	3968.5
3441.628	3739.5
3444.557	3815.5
3447.483	3824.5
3450.407	3663.5
3453.328	3586.5
3456.247	3579.5
3459.164	3555.5
3462.079	3293.5
3464.991	3276.5
3467.902	3288.5
3470.809	3167.5
3473.715	3072.5
3476.618	2994.5
3479.519	2878.5
3482.418	2912.5
3485.315	2772.5
3488.209	2638.5
3491.101	2659.5
3493.99	2555.5
3496.878	2227.5
3499.763	2329.5
3502.646	2204.5
3505.527	2383.5
3508.405	2194.5
3511.281	2122.5
3514.155	2109.5
3517.027	2014.5
3519.897	2145.5
3522.764	1928.5
3525.629	1954.5
3528.492	1919.5
3531.352	1696.5
3534.211	1674.5
3537.067	1713.5
3539.921	1612.5
3542.773	1561.5
3545.622	1497.5
3548.469	1489.5
3551.315	1445.5
3554.157	1348.5
3556.998	1259.5
3559.837	1184.5
3562.673	1086.5
3565.507	1150.5
3568.339	1103.5
3571.169	1089.5
3573.996	1020.5
3576.822	990.5
3579.645	1021.5
3582.466	958.5
3585.285	926.5
3588.101	836.5
3590.916	830.5
3593.728	801.5
3596.538	839.5
3599.346	727.5
3602.152	775.5
3604.956	708.5
3607.757	624.5
3610.556	761.5
3613.354	582.5
3616.149	617.5
3618.942	594.5
3621.732	400.5
3624.521	604.5
3627.307	508.5
3630.092	500.5
3632.874	374.5
3635.654	457.5
3638.432	561.5
3641.208	415.5
3643.982	464.5
3646.753	355.5
3649.523	401.5
3652.29	440.5
3655.055	464.5
3657.818	256.5
3660.579	373.5
3663.338	440.5
3666.095	206.5
3668.849	461.5
3671.602	308.5
3674.352	400.5
3677.101	304.5
3679.847	124.5
3682.591	255.5
3685.333	268.5
3688.073	194.5
3690.811	279.5
3693.547	268.5
3696.281	268.5
3699.013	147.5
3701.742	149.5
3704.47	262.5
3707.195	165.5
3709.919	118.5
3712.64	108.5
3715.359	25.5
3718.076	-87.5
3720.792	114.5
3723.505	112.5
3726.216	109.5
3728.925	152.5
3731.632	-56.5
3734.336	140.5
3737.039	69.5
3739.74	123.5
3742.439	114.5
3745.136	68.5
3747.83	13.5
3750.523	62.5
3753.213	-295.5
3755.902	49.5
3758.589	167.5
3761.273	116.5
3763.956	-52.5
3766.636	110.5
3769.315	-98.5
3771.991	172.5
3774.665	-62.5
3777.338	124.5
3780.008	98.5
3782.677	49.5
3785.343	133.5
3788.007	82.5
3790.67	-1.5
3793.33	-37.5
3795.989	45.5
3798.645	-45.5
3801.299	168.5
3803.952	8.5
3806.602	-4.5
3809.251	38.5
3811.897	87.5
3814.542	20.5
3817.184	13.5
3819.825	86.5
3822.463	71.5
3825.1	38.5
3827.735	27.5
3830.367	5.5
3832.998	-119.5
3835.627	-35.5
3838.253	-34.5
3840.878	-6.5
3843.501	-149.5
3846.122	-65.5
3848.741	-88.5
3851.358	-13.5
3853.973	72.5
3856.586	24.5
3859.197	-61.5
3861.806	-46.5
3864.414	76.5
3867.019	-16.5
3869.622	-46.5
3872.224	-69.5
3874.823	56.5
3877.421	80.5
3880.016	54.5
3882.61	195.5
3885.202	120.5
3887.792	62.5
3890.38	-48.5
3892.966	48.5
3895.55	-4.5
3898.132	-21.5
3900.713	-63.5
3903.291	-20.5
3905.868	-62.5
3908.442	-30.5
3911.015	-41.5
3913.586	-19.5
3916.155	-23.5
3918.722	-2.5
3921.287	-16.5
3923.85	-92.5
3926.411	-78.5
3928.971	-99.5
3931.528	-22.5
3934.084	-15.5
3936.638	-48.5
3939.19	-93.5
3941.74	-100.5
3944.288	-79.5
3946.834	-24.5
3949.378	-61.5
3951.921	14.5
3954.462	-10.5
3957	-54.5
3959.537	26.5
3962.072	89.5
3964.606	104.5
3967.137	-4.5
3969.667	-35.5
3972.194	-55.5
3974.72	-14.5
3977.244	41.5
3979.766	41.5
3982.286	97.5
3984.805	-42.5
3987.321	-87.5
3989.836	-42.5
3992.349	26.5
3994.86	-11.5
3997.369	-12.5
3999.877	-81.5
4002.382	-45.5
4004.886	-7.5
4007.388	9.5
4009.888	86.5
4012.386	-37.5
4014.883	-6.5
4017.377	16.5
4019.87	-146.5
4022.361	-3.5
4024.85	55.5
4027.338	-81.5
4029.823	-88.5
4032.307	-24.5
4034.789	68.5
4037.269	30.5
4039.747	52.5
4042.224	-59.5
4044.699	-17.5
4047.172	-21.5
4049.643	-21.5
4052.112	118.5
4054.58	18.5
4057.046	18.5
4059.51	66.5
4061.972	-91.5
4064.432	75.5
4066.891	-105.5
4069.348	-9.5
4071.803	-78.5
4074.256	-26.5
4076.708	15.5
4079.158	-69.5
4081.606	-125.5
4084.052	2.5
4086.497	-190.5
4088.939	27.5
4091.38	-4.5
4093.819	-47.5
4096.257	-1201.5
4098.693	-1165.5
4101.127	-1210.5
4103.559	-1244.5
4105.989	118.5
4108.418	162.5
4110.845	382.5
4113.27	295.5
4115.694	368.5
4118.115	377.5
4120.535	-19.5
4122.954	-118.5
4125.37	-171.5
4127.785	-50.5
4130.198	-117.5
4132.609	-76.5
4135.019	-1264.5
4137.427	-1254.5
4139.833	-1197.5
4142.237	-1070.5
