Data from 2018-2-8_conc=6_RamanShift_15.txt Node
Date: Wed Feb 07 11:33:40 IST 2018
User: aro
Spectrometer: QEPB0276
Trigger mode: 0
Integration Time (sec): 3.000000E1
Scans to average: 1
Electric dark correction enabled: true
Nonlinearity correction enabled: false
Boxcar width: 0
XAxis mode: Raman Shifts
Number of Pixels in Spectrum: 1044
>>>>>Begin Spectral Data<<<<<
160.701	831.8
166.742	914.8
172.777	1429.8
178.805	2997.8
184.826	6512.8
190.841	12457.8
196.849	19664.8
202.85	25042.8
208.845	27039.8
214.833	26786.8
220.815	26487.8
226.789	26292.8
232.758	26182.8
238.719	26063.8
244.674	25770.8
250.623	25266.8
256.565	24788.8
262.5	24475.8
268.429	23719.8
274.351	23455.8
280.267	23286.8
286.176	22677.8
292.079	22408.8
297.975	22125.8
303.865	21846.8
309.748	21712.8
315.625	21599.8
321.495	21065.8
327.359	21132.8
333.217	21187.8
339.068	21151.8
344.912	21119.8
350.751	21081.8
356.583	20987.8
362.408	20906.8
368.227	20985.8
374.04	21079.8
379.847	21120.8
385.647	21236.8
391.44	21492.8
397.228	21526.8
403.009	21656.8
408.784	21587.8
414.553	21822.8
420.315	21907.8
426.071	22051.8
431.821	21880.8
437.565	21891.8
443.302	21674.8
449.033	21737.8
454.758	21678.8
460.477	21449.8
466.189	21343.8
471.896	21234.8
477.596	21087.8
483.29	21293.8
488.978	21124.8
494.66	21244.8
500.335	21128.8
506.005	21051.8
511.668	20768.8
517.325	20636.8
522.977	20488.8
528.622	20492.8
534.261	20273.8
539.894	20252.8
545.521	20119.8
551.141	20082.8
556.756	19824.8
562.365	19705.8
567.968	19558.8
573.565	19411.8
579.155	19222.8
584.74	19231.8
590.319	18940.8
595.892	18910.8
601.459	18899.8
607.02	18952.8
612.575	19002.8
618.124	18819.8
623.667	19061.8
629.204	18904.8
634.735	18966.8
640.261	18773.8
645.781	19017.8
651.294	18730.8
656.802	18431.8
662.304	18370.8
667.8	17987.8
673.29	18234.8
678.775	18027.8
684.254	18092.8
689.726	18154.8
695.193	17816.8
700.655	18011.8
706.11	18089.8
711.56	17901.8
717.004	17984.8
722.442	18289.8
727.874	17896.8
733.301	17944.8
738.722	18011.8
744.137	17839.8
749.547	17738.8
754.951	17670.8
760.349	17503.8
765.741	17320.8
771.128	17381.8
776.509	17314.8
781.885	17312.8
787.254	17255.8
792.618	17376.8
797.977	17471.8
803.33	17527.8
808.677	17659.8
814.019	17503.8
819.355	17534.8
824.686	17552.8
830.011	17619.8
835.33	17211.8
840.644	17008.8
845.952	17147.8
851.255	16740.8
856.552	16807.8
861.844	16722.8
867.13	16520.8
872.41	16501.8
877.686	16400.8
882.955	16546.8
888.219	16546.8
893.478	16727.8
898.731	16449.8
903.979	16393.8
909.221	16584.8
914.458	16446.8
919.69	16263.8
924.916	16174.8
930.136	15918.8
935.351	15799.8
940.561	15604.8
945.766	15491.8
950.965	15152.8
956.158	15527.8
961.347	15527.8
966.529	15534.8
971.707	15410.8
976.879	15488.8
982.046	15513.8
987.208	15530.8
992.364	15338.8
997.515	15363.8
1002.66	15118.8
1007.801	15292.8
1012.936	15277.8
1018.066	15367.8
1023.19	15102.8
1028.309	14969.8
1033.423	15085.8
1038.532	15167.8
1043.636	15433.8
1048.734	15252.8
1053.827	15397.8
1058.915	15483.8
1063.998	15221.8
1069.075	15100.8
1074.147	14868.8
1079.214	14961.8
1084.276	14550.8
1089.333	14570.8
1094.385	14432.8
1099.431	14590.8
1104.472	14433.8
1109.509	14611.8
1114.54	14661.8
1119.565	14763.8
1124.586	14740.8
1129.602	14686.8
1134.613	14693.8
1139.618	14560.8
1144.619	14296.8
1149.614	14147.8
1154.604	14091.8
1159.589	14048.8
1164.57	13655.8
1169.545	13778.8
1174.515	13716.8
1179.48	13940.8
1184.44	13925.8
1189.395	14100.8
1194.345	14169.8
1199.29	14177.8
1204.23	14315.8
1209.165	14240.8
1214.095	13985.8
1219.021	13893.8
1223.941	13943.8
1228.856	13973.8
1233.766	13896.8
1238.672	13774.8
1243.572	13663.8
1248.467	13741.8
1253.358	13902.8
1258.244	13942.8
1263.124	13815.8
1268	13636.8
1272.871	13737.8
1277.737	13663.8
1282.599	13448.8
1287.455	13354.8
1292.306	12998.8
1297.153	13146.8
1301.995	12859.8
1306.832	12769.8
1311.664	12826.8
1316.491	12976.8
1321.314	12916.8
1326.132	12825.8
1330.945	12747.8
1335.753	12686.8
1340.556	12581.8
1345.354	12443.8
1350.148	12104.8
1354.937	11908.8
1359.722	11907.8
1364.501	11744.8
1369.276	11478.8
1374.046	11579.8
1378.811	11837.8
1383.572	11799.8
1388.327	11513.8
1393.079	12053.8
1397.825	12167.8
1402.567	12121.8
1407.304	11980.8
1412.036	12026.8
1416.764	11836.8
1421.487	12133.8
1426.205	11831.8
1430.919	11667.8
1435.628	11471.8
1440.333	11411.8
1445.032	11246.8
1449.727	11247.8
1454.418	11349.8
1459.104	11276.8
1463.785	11146.8
1468.462	11113.8
1473.134	11065.8
1477.802	10887.8
1482.465	11060.8
1487.123	10463.8
1491.777	10739.8
1496.426	10764.8
1501.071	10355.8
1505.711	10483.8
1510.347	10481.8
1514.978	10584.8
1519.604	10678.8
1524.226	10704.8
1528.844	11192.8
1533.457	10956.8
1538.065	11076.8
1542.669	11099.8
1547.269	11259.8
1551.864	11105.8
1556.454	11347.8
1561.041	11265.8
1565.622	11241.8
1570.199	10997.8
1574.772	10968.8
1579.34	10761.8
1583.904	10860.8
1588.464	10824.8
1593.019	10892.8
1597.569	10988.8
1602.115	10905.8
1606.657	11139.8
1611.195	11097.8
1615.728	11141.8
1620.256	11269.8
1624.78	11403.8
1629.3	11369.8
1633.816	11133.8
1638.327	11127.8
1642.834	10932.8
1647.336	10991.8
1651.834	10832.8
1656.328	10947.8
1660.817	10774.8
1665.302	10981.8
1669.783	10926.8
1674.259	10651.8
1678.732	10371.8
1683.199	10165.8
1687.663	10158.8
1692.122	9607.8
1696.577	9420.8
1701.028	9332.8
1705.474	9326.8
1709.917	9292.8
1714.355	9235.8
1718.788	9121.8
1723.218	9036.8
1727.643	8810.8
1732.064	8571.8
1736.481	8737.8
1740.893	8449.8
1745.301	8314.8
1749.705	8525.8
1754.105	7908.8
1758.501	8020.8
1762.893	7627.8
1767.28	7608.8
1771.663	7413.8
1776.042	7229.8
1780.417	7119.8
1784.787	6913.8
1789.154	6958.8
1793.516	7074.8
1797.874	7044.8
1802.228	7288.8
1806.578	7405.8
1810.924	7291.8
1815.266	8291.8
1819.603	7389.8
1823.937	7458.8
1828.266	7339.8
1832.591	7268.8
1836.913	7171.8
1841.23	7246.8
1845.543	7197.8
1849.852	6978.8
1854.156	6991.8
1858.457	6902.8
1862.754	6659.8
1867.047	6841.8
1871.335	6621.8
1875.62	6598.8
1879.9	6614.8
1884.177	6841.8
1888.449	6626.8
1892.718	6652.8
1896.982	6574.8
1901.243	6788.8
1905.499	6684.8
1909.752	6533.8
1914	6744.8
1918.245	6494.8
1922.485	6524.8
1926.722	6605.8
1930.954	6669.8
1935.183	6584.8
1939.408	6546.8
1943.628	6619.8
1947.845	6676.8
1952.058	6724.8
1956.267	6605.8
1960.472	6565.8
1964.673	6645.8
1968.87	6667.8
1973.063	6673.8
1977.252	6456.8
1981.438	6475.8
1985.619	6399.8
1989.797	6309.8
1993.971	6198.8
1998.14	6077.8
2002.306	6174.8
2006.469	6073.8
2010.627	6124.8
2014.781	6058.8
2018.932	6079.8
2023.078	5836.8
2027.221	5866.8
2031.36	5921.8
2035.495	5861.8
2039.627	5849.8
2043.754	5759.8
2047.878	5752.8
2051.998	5731.8
2056.114	5749.8
2060.226	5773.8
2064.334	5634.8
2068.439	5508.8
2072.54	5532.8
2076.637	5798.8
2080.73	5663.8
2084.82	5567.8
2088.906	5683.8
2092.988	5611.8
2097.066	5784.8
2101.14	5543.8
2105.211	5642.8
2109.278	5680.8
2113.342	5728.8
2117.401	5843.8
2121.457	5722.8
2125.509	5720.8
2129.558	5438.8
2133.602	5568.8
2137.643	5536.8
2141.681	5459.8
2145.714	5389.8
2149.744	5315.8
2153.77	5352.8
2157.793	5325.8
2161.812	5460.8
2165.827	5377.8
2169.838	5039.8
2173.846	5218.8
2177.851	5147.8
2181.851	5058.8
2185.848	5156.8
2189.841	5014.8
2193.831	5060.8
2197.817	4839.8
2201.799	4906.8
2205.778	4913.8
2209.753	4925.8
2213.725	4794.8
2217.693	4823.8
2221.657	4834.8
2225.618	4670.8
2229.575	4728.8
2233.529	4588.8
2237.479	4676.8
2241.425	4618.8
2245.368	4818.8
2249.307	4646.8
2253.243	4603.8
2257.175	4699.8
2261.104	4500.8
2265.029	4382.8
2268.95	4428.8
2272.868	4371.8
2276.783	4400.8
2280.694	4080.8
2284.601	4130.8
2288.505	4184.8
2292.405	4000.8
2296.302	4207.8
2300.195	4046.8
2304.085	4186.8
2307.971	3951.8
2311.854	4046.8
2315.734	3886.8
2319.609	3967.8
2323.482	4132.8
2327.351	3902.8
2331.216	3895.8
2335.078	3877.8
2338.937	3919.8
2342.792	3890.8
2346.643	3825.8
2350.492	3796.8
2354.336	3858.8
2358.178	3747.8
2362.015	3747.8
2365.85	3960.8
2369.681	3844.8
2373.508	3763.8
2377.333	3718.8
2381.153	3812.8
2384.971	3826.8
2388.785	3820.8
2392.595	3886.8
2396.402	3839.8
2400.206	3906.8
2404.007	3953.8
2407.804	3791.8
2411.597	3670.8
2415.388	3748.8
2419.174	3789.8
2422.958	3653.8
2426.738	3612.8
2430.515	3535.8
2434.289	3699.8
2438.059	3687.8
2441.825	3651.8
2445.589	3369.8
2449.349	3651.8
2453.106	3442.8
2456.859	3466.8
2460.61	3369.8
2464.356	3455.8
2468.1	3438.8
2471.84	3446.8
2475.577	3437.8
2479.311	3347.8
2483.041	3271.8
2486.768	3162.8
2490.492	2998.8
2494.213	3307.8
2497.93	3343.8
2501.644	3298.8
2505.355	3412.8
2509.062	3179.8
2512.766	3290.8
2516.467	3244.8
2520.165	3205.8
2523.859	3401.8
2527.551	3009.8
2531.239	3256.8
2534.923	3251.8
2538.605	3253.8
2542.283	3049.8
2545.958	3171.8
2549.63	3031.8
2553.299	3008.8
2556.964	2936.8
2560.626	3128.8
2564.285	2931.8
2567.941	3168.8
2571.594	3110.8
2575.243	2944.8
2578.89	3137.8
2582.533	3083.8
2586.173	3086.8
2589.809	2985.8
2593.443	3357.8
2597.073	3063.8
2600.701	2949.8
2604.325	3001.8
2607.946	3023.8
2611.564	2927.8
2615.178	2806.8
2618.79	2866.8
2622.398	3043.8
2626.004	2922.8
2629.606	2792.8
2633.205	3120.8
2636.801	2876.8
2640.394	2793.8
2643.983	2802.8
2647.57	2851.8
2651.153	2700.8
2654.734	2626.8
2658.311	2953.8
2661.885	2782.8
2665.456	2682.8
2669.025	2664.8
2672.589	2633.8
2676.151	2438.8
2679.71	2436.8
2683.266	2597.8
2686.819	2365.8
2690.368	2493.8
2693.915	2516.8
2697.458	2568.8
2700.999	2412.8
2704.536	2392.8
2708.071	2402.8
2711.602	2346.8
2715.13	2348.8
2718.656	2401.8
2722.178	2231.8
2725.697	2394.8
2729.214	2011.8
2732.727	2161.8
2736.237	2224.8
2739.744	2133.8
2743.249	2288.8
2746.75	2342.8
2750.248	2357.8
2753.743	2336.8
2757.236	2313.8
2760.725	2268.8
2764.211	2531.8
2767.695	2345.8
2771.175	2319.8
2774.652	2297.8
2778.127	2330.8
2781.598	2188.8
2785.067	2317.8
2788.532	2317.8
2791.995	2358.8
2795.455	2313.8
2798.911	2302.8
2802.365	2484.8
2805.816	2237.8
2809.264	2208.8
2812.709	2384.8
2816.151	2242.8
2819.59	2428.8
2823.026	2387.8
2826.46	2462.8
2829.89	2356.8
2833.318	2607.8
2836.742	2291.8
2840.164	2379.8
2843.583	2464.8
2846.999	2472.8
2850.412	2408.8
2853.822	2884.8
2857.229	2323.8
2860.634	2419.8
2864.035	2545.8
2867.434	2331.8
2870.83	2458.8
2874.223	2563.8
2877.613	2467.8
2881	2673.8
2884.385	2736.8
2887.766	2646.8
2891.145	2607.8
2894.521	2732.8
2897.894	2818.8
2901.264	2392.8
2904.631	2707.8
2907.996	2700.8
2911.358	2658.8
2914.717	2835.8
2918.073	2786.8
2921.426	2719.8
2924.777	2885.8
2928.124	2843.8
2931.469	2714.8
2934.811	3085.8
2938.15	2816.8
2941.487	2875.8
2944.821	2532.8
2948.152	2993.8
2951.48	2933.8
2954.805	2905.8
2958.128	2785.8
2961.447	2965.8
2964.765	2750.8
2968.079	3011.8
2971.39	2914.8
2974.699	2993.8
2978.005	2986.8
2981.308	2960.8
2984.609	3196.8
2987.907	2979.8
2991.202	3117.8
2994.494	3193.8
2997.784	2817.8
3001.07	3046.8
3004.355	3222.8
3007.636	3190.8
3010.915	3284.8
3014.191	3347.8
3017.464	3383.8
3020.734	3276.8
3024.002	3484.8
3027.267	3536.8
3030.53	3506.8
3033.789	3604.8
3037.046	3678.8
3040.301	3691.8
3043.552	3757.8
3046.801	3865.8
3050.048	3674.8
3053.291	3638.8
3056.532	3907.8
3059.771	4103.8
3063.006	4061.8
3066.239	4095.8
3069.469	4168.8
3072.697	4530.8
3075.922	4485.8
3079.144	4599.8
3082.364	4531.8
3085.581	4901.8
3088.795	4590.8
3092.007	4862.8
3095.216	5163.8
3098.423	5369.8
3101.627	5481.8
3104.828	5551.8
3108.026	5642.8
3111.222	5698.8
3114.416	5637.8
3117.607	5850.8
3120.795	5995.8
3123.98	6139.8
3127.163	6307.8
3130.344	6314.8
3133.521	6456.8
3136.696	6386.8
3139.869	6618.8
3143.039	6750.8
3146.206	6698.8
3149.371	6884.8
3152.533	7027.8
3155.693	7233.8
3158.85	7299.8
3162.005	7304.8
3165.157	7422.8
3168.306	7488.8
3171.453	7373.8
3174.597	7700.8
3177.739	7711.8
3180.878	7514.8
3184.014	7503.8
3187.149	7588.8
3190.28	7536.8
3193.409	7449.8
3196.536	7501.8
3199.659	7425.8
3202.781	7501.8
3205.9	7649.8
3209.016	7490.8
3212.13	7496.8
3215.241	7425.8
3218.35	7508.8
3221.456	7703.8
3224.56	7727.8
3227.661	7647.8
3230.76	7737.8
3233.856	7659.8
3236.95	7621.8
3240.041	7689.8
3243.13	7416.8
3246.216	7454.8
3249.3	7368.8
3252.382	7330.8
3255.46	7506.8
3258.537	6759.8
3261.611	7372.8
3264.682	7150.8
3267.751	7122.8
3270.818	7276.8
3273.882	7006.8
3276.943	6954.8
3280.002	6842.8
3283.059	6897.8
3286.113	6831.8
3289.165	6939.8
3292.214	6838.8
3295.261	6598.8
3298.306	6837.8
3301.348	6612.8
3304.387	6605.8
3307.425	6416.8
3310.459	6464.8
3313.492	6153.8
3316.521	6168.8
3319.549	6099.8
3322.574	6010.8
3325.597	5932.8
3328.617	5922.8
3331.635	5799.8
3334.65	5928.8
3337.663	5746.8
3340.674	5798.8
3343.682	5630.8
3346.688	5684.8
3349.691	5658.8
3352.692	5778.8
3355.691	5515.8
3358.687	5534.8
3361.681	5483.8
3364.673	5575.8
3367.662	5467.8
3370.649	5334.8
3373.633	5501.8
3376.615	5298.8
3379.595	5601.8
3382.572	5372.8
3385.547	5259.8
3388.52	5335.8
3391.49	5263.8
3394.458	5222.8
3397.424	5025.8
3400.387	5100.8
3403.348	4767.8
3406.307	4863.8
3409.263	4897.8
3412.217	4652.8
3415.168	4707.8
3418.118	4680.8
3421.065	4602.8
3424.009	4342.8
3426.951	4545.8
3429.891	4552.8
3432.829	4384.8
3435.764	4353.8
3438.697	4346.8
3441.628	4029.8
3444.557	4221.8
3447.483	4205.8
3450.407	3942.8
3453.328	3835.8
3456.247	3936.8
3459.164	3981.8
3462.079	3643.8
3464.991	3573.8
3467.902	3491.8
3470.809	3559.8
3473.715	3317.8
3476.618	3305.8
3479.519	3188.8
3482.418	3376.8
3485.315	3131.8
3488.209	2969.8
3491.101	2820.8
3493.99	3056.8
3496.878	2619.8
3499.763	2714.8
3502.646	2581.8
3505.527	2767.8
3508.405	2593.8
3511.281	2464.8
3514.155	2494.8
3517.027	2445.8
3519.897	2572.8
3522.764	2284.8
3525.629	2342.8
3528.492	2171.8
3531.352	2040.8
3534.211	2017.8
3537.067	2166.8
3539.921	2066.8
3542.773	1918.8
3545.622	1782.8
3548.469	1957.8
3551.315	1875.8
3554.157	1696.8
3556.998	1642.8
3559.837	1484.8
3562.673	1434.8
3565.507	1561.8
3568.339	1432.8
3571.169	1489.8
3573.996	1375.8
3576.822	1327.8
3579.645	1353.8
3582.466	1317.8
3585.285	1230.8
3588.101	1184.8
3590.916	1261.8
3593.728	1078.8
3596.538	1180.8
3599.346	1056.8
3602.152	1160.8
3604.956	1132.8
3607.757	958.8
3610.556	1156.8
3613.354	972.8
3616.149	954.8
3618.942	927.8
3621.732	727.8
3624.521	1001.8
3627.307	915.8
3630.092	762.8
3632.874	691.8
3635.654	855.8
3638.432	978.8
3641.208	789.8
3643.982	816.8
3646.753	701.8
3649.523	795.8
3652.29	814.8
3655.055	757.8
3657.818	642.8
3660.579	594.8
3663.338	850.8
3666.095	643.8
3668.849	826.8
3671.602	601.8
3674.352	829.8
3677.101	653.8
3679.847	439.8
3682.591	649.8
3685.333	690.8
3688.073	529.8
3690.811	664.8
3693.547	569.8
3696.281	564.8
3699.013	492.8
3701.742	510.8
3704.47	711.8
3707.195	465.8
3709.919	472.8
3712.64	556.8
3715.359	417.8
3718.076	231.8
3720.792	605.8
3723.505	488.8
3726.216	370.8
3728.925	537.8
3731.632	327.8
3734.336	528.8
3737.039	431.8
3739.74	499.8
3742.439	595.8
3745.136	430.8
3747.83	414.8
3750.523	433.8
3753.213	658.8
3755.902	373.8
3758.589	584.8
3761.273	496.8
3763.956	263.8
3766.636	511.8
3769.315	160.8
3771.991	542.8
3774.665	444.8
3777.338	564.8
3780.008	475.8
3782.677	182.8
3785.343	599.8
3788.007	813.8
3790.67	379.8
3793.33	355.8
3795.989	375.8
3798.645	343.8
3801.299	562.8
3803.952	380.8
3806.602	312.8
3809.251	397.8
3811.897	387.8
3814.542	424.8
3817.184	416.8
3819.825	435.8
3822.463	78.8
3825.1	412.8
3827.735	389.8
3830.367	409.8
3832.998	233.8
3835.627	325.8
3838.253	284.8
3840.878	203.8
3843.501	195.8
3846.122	272.8
3848.741	259.8
3851.358	354.8
3853.973	607.8
3856.586	335.8
3859.197	280.8
3861.806	339.8
3864.414	476.8
3867.019	399.8
3869.622	326.8
3872.224	263.8
3874.823	498.8
3877.421	426.8
3880.016	505.8
3882.61	578.8
3885.202	496.8
3887.792	514.8
3890.38	280.8
3892.966	429.8
3895.55	464.8
3898.132	378.8
3900.713	303.8
3903.291	381.8
3905.868	484.8
3908.442	312.8
3911.015	308.8
3913.586	385.8
3916.155	306.8
3918.722	471.8
3921.287	358.8
3923.85	168.8
3926.411	294.8
3928.971	261.8
3931.528	305.8
3934.084	367.8
3936.638	360.8
3939.19	296.8
3941.74	250.8
3944.288	279.8
3946.834	361.8
3949.378	304.8
3951.921	474.8
3954.462	319.8
3957	263.8
3959.537	408.8
3962.072	472.8
3964.606	504.8
3967.137	228.8
3969.667	302.8
3972.194	408.8
3974.72	373.8
3977.244	455.8
3979.766	335.8
3982.286	519.8
3984.805	286.8
3987.321	200.8
3989.836	302.8
3992.349	457.8
3994.86	397.8
3997.369	333.8
3999.877	264.8
4002.382	283.8
4004.886	450.8
4007.388	350.8
4009.888	463.8
4012.386	307.8
4014.883	331.8
4017.377	306.8
4019.87	229.8
4022.361	386.8
4024.85	416.8
4027.338	258.8
4029.823	314.8
4032.307	313.8
4034.789	459.8
4037.269	378.8
4039.747	417.8
4042.224	339.8
4044.699	331.8
4047.172	397.8
4049.643	220.8
4052.112	408.8
4054.58	382.8
4057.046	363.8
4059.51	420.8
4061.972	319.8
4064.432	482.8
4066.891	196.8
4069.348	393.8
4071.803	283.8
4074.256	276.8
4076.708	340.8
4079.158	410.8
4081.606	161.8
4084.052	392.8
4086.497	252.8
4088.939	435.8
4091.38	407.8
4093.819	324.8
4096.257	-1482.2
4098.693	-1566.2
4101.127	-1604.2
4103.559	-1626.2
4105.989	541.8
4108.418	556.8
4110.845	793.8
4113.27	609.8
4115.694	708.8
4118.115	750.8
4120.535	266.8
4122.954	186.8
4125.37	160.8
4127.785	297.8
4130.198	305.8
4132.609	248.8
4135.019	-1683.2
4137.427	-1605.2
4139.833	-1575.2
4142.237	-1310.2
