Data from 2018-2-8_conc=2_RamanShift_02.txt Node
Date: Wed Feb 07 09:48:40 IST 2018
User: aro
Spectrometer: QEPB0276
Trigger mode: 0
Integration Time (sec): 3.000000E1
Scans to average: 1
Electric dark correction enabled: true
Nonlinearity correction enabled: false
Boxcar width: 0
XAxis mode: Raman Shifts
Number of Pixels in Spectrum: 1044
>>>>>Begin Spectral Data<<<<<
160.701	521.4
166.742	673.4
172.777	1148.4
178.805	2675.4
184.826	5998.4
190.841	11780.4
196.849	18612.4
202.85	23781.4
208.845	25629.4
214.833	25365.4
220.815	24959.4
226.789	23498.4
232.758	24656.4
238.719	24523.4
244.674	24385.4
250.623	23854.4
256.565	23573.4
262.5	22960.4
268.429	22456.4
274.351	22174.4
280.267	21990.4
286.176	21433.4
292.079	21189.4
297.975	20895.4
303.865	20688.4
309.748	20497.4
315.625	20486.4
321.495	19952.4
327.359	19949.4
333.217	20015.4
339.068	19921.4
344.912	19917.4
350.751	19887.4
356.583	19877.4
362.408	19823.4
368.227	19815.4
374.04	19923.4
379.847	20007.4
385.647	20053.4
391.44	20398.4
397.228	20384.4
403.009	20491.4
408.784	20692.4
414.553	20804.4
420.315	20844.4
426.071	20845.4
431.821	20859.4
437.565	20811.4
443.302	20667.4
449.033	20564.4
454.758	20484.4
460.477	20251.4
466.189	20232.4
471.896	20168.4
477.596	19988.4
483.29	20062.4
488.978	20248.4
494.66	20112.4
500.335	20053.4
506.005	19998.4
511.668	19822.4
517.325	19643.4
522.977	19492.4
528.622	19441.4
534.261	19259.4
539.894	19177.4
545.521	19129.4
551.141	19112.4
556.756	18768.4
562.365	18725.4
567.968	18655.4
573.565	18473.4
579.155	18330.4
584.74	18313.4
590.319	18016.4
595.892	18141.4
601.459	18122.4
607.02	18021.4
612.575	18067.4
618.124	17957.4
623.667	18064.4
629.204	18026.4
634.735	18020.4
640.261	17988.4
645.781	18012.4
651.294	17825.4
656.802	17640.4
662.304	17488.4
667.8	17274.4
673.29	17348.4
678.775	17157.4
684.254	17139.4
689.726	17246.4
695.193	17093.4
700.655	17109.4
706.11	17277.4
711.56	17003.4
717.004	17186.4
722.442	17084.4
727.874	17074.4
733.301	17097.4
738.722	17195.4
744.137	17004.4
749.547	16876.4
754.951	16800.4
760.349	16767.4
765.741	16579.4
771.128	16483.4
776.509	16481.4
781.885	16515.4
787.254	16486.4
792.618	16607.4
797.977	16675.4
803.33	16698.4
808.677	16700.4
814.019	16691.4
819.355	16674.4
824.686	16691.4
830.011	16759.4
835.33	16471.4
840.644	16221.4
845.952	16382.4
851.255	16027.4
856.552	16035.4
861.844	15875.4
867.13	15799.4
872.41	15800.4
877.686	15659.4
882.955	15780.4
888.219	15843.4
893.478	15950.4
898.731	15738.4
903.979	15701.4
909.221	15832.4
914.458	15726.4
919.69	15556.4
924.916	15428.4
930.136	15195.4
935.351	15233.4
940.561	14931.4
945.766	14783.4
950.965	14613.4
956.158	14733.4
961.347	14844.4
966.529	14736.4
971.707	14811.4
976.879	14771.4
982.046	14779.4
987.208	14839.4
992.364	14656.4
997.515	14675.4
1002.66	14509.4
1007.801	14634.4
1012.936	14557.4
1018.066	14627.4
1023.19	14343.4
1028.309	14281.4
1033.423	14425.4
1038.532	14537.4
1043.636	14703.4
1048.734	14613.4
1053.827	14764.4
1058.915	14750.4
1063.998	14603.4
1069.075	14438.4
1074.147	14229.4
1079.214	14202.4
1084.276	13891.4
1089.333	14007.4
1094.385	13869.4
1099.431	14035.4
1104.472	13854.4
1109.509	13985.4
1114.54	14123.4
1119.565	14120.4
1124.586	14106.4
1129.602	14111.4
1134.613	14057.4
1139.618	14013.4
1144.619	13649.4
1149.614	13595.4
1154.604	13442.4
1159.589	13357.4
1164.57	13062.4
1169.545	13158.4
1174.515	13241.4
1179.48	13319.4
1184.44	13348.4
1189.395	13447.4
1194.345	13593.4
1199.29	13556.4
1204.23	13737.4
1209.165	13579.4
1214.095	13473.4
1219.021	13373.4
1223.941	13460.4
1228.856	13406.4
1233.766	13318.4
1238.672	13258.4
1243.572	13195.4
1248.467	13188.4
1253.358	13353.4
1258.244	13330.4
1263.124	13257.4
1268	13049.4
1272.871	13166.4
1277.737	13088.4
1282.599	12872.4
1287.455	12791.4
1292.306	12535.4
1297.153	12570.4
1301.995	12388.4
1306.832	12350.4
1311.664	12350.4
1316.491	12313.4
1321.314	12430.4
1326.132	12399.4
1330.945	12295.4
1335.753	12203.4
1340.556	12125.4
1345.354	11947.4
1350.148	11657.4
1354.937	11422.4
1359.722	11319.4
1364.501	11174.4
1369.276	11138.4
1374.046	11143.4
1378.811	11239.4
1383.572	11335.4
1388.327	11070.4
1393.079	11530.4
1397.825	11646.4
1402.567	11565.4
1407.304	11468.4
1412.036	11637.4
1416.764	11514.4
1421.487	11664.4
1426.205	11351.4
1430.919	11155.4
1435.628	11018.4
1440.333	10968.4
1445.032	10861.4
1449.727	10964.4
1454.418	10778.4
1459.104	10786.4
1463.785	10604.4
1468.462	10655.4
1473.134	10620.4
1477.802	10513.4
1482.465	10484.4
1487.123	10203.4
1491.777	10370.4
1496.426	10191.4
1501.071	10003.4
1505.711	10018.4
1510.347	10073.4
1514.978	10100.4
1519.604	10254.4
1524.226	10297.4
1528.844	10633.4
1533.457	10518.4
1538.065	10730.4
1542.669	10637.4
1547.269	10726.4
1551.864	10693.4
1556.454	10850.4
1561.041	10772.4
1565.622	10688.4
1570.199	10495.4
1574.772	10542.4
1579.34	10324.4
1583.904	10463.4
1588.464	10427.4
1593.019	10347.4
1597.569	10539.4
1602.115	10592.4
1606.657	10665.4
1611.195	10572.4
1615.728	10670.4
1620.256	10731.4
1624.78	10852.4
1629.3	10775.4
1633.816	10579.4
1638.327	10590.4
1642.834	10543.4
1647.336	10510.4
1651.834	10407.4
1656.328	10466.4
1660.817	10356.4
1665.302	10427.4
1669.783	10412.4
1674.259	10266.4
1678.732	9939.4
1683.199	9699.4
1687.663	9601.4
1692.122	9144.4
1696.577	8941.4
1701.028	8908.4
1705.474	8816.4
1709.917	8834.4
1714.355	8810.4
1718.788	8712.4
1723.218	8627.4
1727.643	8366.4
1732.064	8206.4
1736.481	8288.4
1740.893	8071.4
1745.301	7932.4
1749.705	8020.4
1754.105	7601.4
1758.501	7590.4
1762.893	7289.4
1767.28	7196.4
1771.663	7040.4
1776.042	6849.4
1780.417	6803.4
1784.787	6551.4
1789.154	6578.4
1793.516	6543.4
1797.874	6757.4
1802.228	6895.4
1806.578	7042.4
1810.924	6965.4
1815.266	7042.4
1819.603	6975.4
1823.937	7064.4
1828.266	6951.4
1832.591	6902.4
1836.913	6807.4
1841.23	6854.4
1845.543	6781.4
1849.852	6623.4
1854.156	6593.4
1858.457	6553.4
1862.754	6558.4
1867.047	6467.4
1871.335	6328.4
1875.62	6360.4
1879.9	6310.4
1884.177	6404.4
1888.449	6273.4
1892.718	6277.4
1896.982	6187.4
1901.243	6396.4
1905.499	6320.4
1909.752	6211.4
1914	6337.4
1918.245	6206.4
1922.485	6203.4
1926.722	6294.4
1930.954	6208.4
1935.183	6203.4
1939.408	6204.4
1943.628	6249.4
1947.845	6263.4
1952.058	6388.4
1956.267	6223.4
1960.472	6173.4
1964.673	6319.4
1968.87	6366.4
1973.063	6328.4
1977.252	6161.4
1981.438	6127.4
1985.619	6004.4
1989.797	5944.4
1993.971	5962.4
1998.14	5736.4
2002.306	5848.4
2006.469	5715.4
2010.627	5697.4
2014.781	5677.4
2018.932	5701.4
2023.078	5463.4
2027.221	5608.4
2031.36	5571.4
2035.495	5599.4
2039.627	5495.4
2043.754	5436.4
2047.878	5358.4
2051.998	5392.4
2056.114	5406.4
2060.226	5393.4
2064.334	5271.4
2068.439	5190.4
2072.54	5204.4
2076.637	5356.4
2080.73	5277.4
2084.82	5247.4
2088.906	5306.4
2092.988	5157.4
2097.066	5413.4
2101.14	5232.4
2105.211	5356.4
2109.278	5351.4
2113.342	5347.4
2117.401	5451.4
2121.457	5393.4
2125.509	5326.4
2129.558	5128.4
2133.602	5212.4
2137.643	5141.4
2141.681	5081.4
2145.714	5137.4
2149.744	4968.4
2153.77	5000.4
2157.793	4968.4
2161.812	4981.4
2165.827	4939.4
2169.838	4796.4
2173.846	4844.4
2177.851	4731.4
2181.851	4725.4
2185.848	4910.4
2189.841	4555.4
2193.831	4676.4
2197.817	4484.4
2201.799	4495.4
2205.778	4503.4
2209.753	4548.4
2213.725	4498.4
2217.693	4438.4
2221.657	4443.4
2225.618	4326.4
2229.575	4336.4
2233.529	4258.4
2237.479	4344.4
2241.425	4283.4
2245.368	4414.4
2249.307	4317.4
2253.243	4292.4
2257.175	4263.4
2261.104	4200.4
2265.029	4091.4
2268.95	4072.4
2272.868	4042.4
2276.783	4031.4
2280.694	3788.4
2284.601	3824.4
2288.505	3855.4
2292.405	3654.4
2296.302	3785.4
2300.195	3765.4
2304.085	3808.4
2307.971	3679.4
2311.854	3716.4
2315.734	3580.4
2319.609	3663.4
2323.482	3728.4
2327.351	3611.4
2331.216	3628.4
2335.078	3606.4
2338.937	3533.4
2342.792	3584.4
2346.643	3477.4
2350.492	3410.4
2354.336	3438.4
2358.178	3392.4
2362.015	3394.4
2365.85	3620.4
2369.681	3499.4
2373.508	3479.4
2377.333	3444.4
2381.153	3518.4
2384.971	3496.4
2388.785	3513.4
2392.595	3500.4
2396.402	3605.4
2400.206	3553.4
2404.007	3541.4
2407.804	3445.4
2411.597	3353.4
2415.388	3430.4
2419.174	3387.4
2422.958	3318.4
2426.738	3299.4
2430.515	3151.4
2434.289	3334.4
2438.059	3366.4
2441.825	3287.4
2445.589	3103.4
2449.349	3249.4
2453.106	3129.4
2456.859	3155.4
2460.61	3067.4
2464.356	3126.4
2468.1	3062.4
2471.84	3153.4
2475.577	3096.4
2479.311	3058.4
2483.041	3001.4
2486.768	2896.4
2490.492	2726.4
2494.213	2903.4
2497.93	3005.4
2501.644	3021.4
2505.355	2971.4
2509.062	2932.4
2512.766	3054.4
2516.467	2976.4
2520.165	2953.4
2523.859	3029.4
2527.551	2732.4
2531.239	2901.4
2534.923	2890.4
2538.605	2999.4
2542.283	2807.4
2545.958	2845.4
2549.63	2740.4
2553.299	2778.4
2556.964	2761.4
2560.626	2786.4
2564.285	2704.4
2567.941	2851.4
2571.594	2817.4
2575.243	2640.4
2578.89	2807.4
2582.533	2831.4
2586.173	2792.4
2589.809	2663.4
2593.443	2938.4
2597.073	2742.4
2600.701	2546.4
2604.325	2687.4
2607.946	2702.4
2611.564	2589.4
2615.178	2539.4
2618.79	2533.4
2622.398	2648.4
2626.004	2646.4
2629.606	2554.4
2633.205	2695.4
2636.801	2464.4
2640.394	2557.4
2643.983	2361.4
2647.57	2519.4
2651.153	2439.4
2654.734	2282.4
2658.311	2542.4
2661.885	2354.4
2665.456	2390.4
2669.025	2300.4
2672.589	2336.4
2676.151	2176.4
2679.71	2193.4
2683.266	2198.4
2686.819	2177.4
2690.368	2170.4
2693.915	2232.4
2697.458	2257.4
2700.999	2087.4
2704.536	2047.4
2708.071	2061.4
2711.602	2059.4
2715.13	2027.4
2718.656	2022.4
2722.178	1908.4
2725.697	2040.4
2729.214	1740.4
2732.727	1871.4
2736.237	2072.4
2739.744	1908.4
2743.249	1981.4
2746.75	1916.4
2750.248	2028.4
2753.743	2064.4
2757.236	1935.4
2760.725	1960.4
2764.211	2222.4
2767.695	1962.4
2771.175	1989.4
2774.652	1971.4
2778.127	2027.4
2781.598	1938.4
2785.067	2010.4
2788.532	2063.4
2791.995	2101.4
2795.455	1963.4
2798.911	1917.4
2802.365	2090.4
2805.816	1915.4
2809.264	1884.4
2812.709	2022.4
2816.151	1989.4
2819.59	2107.4
2823.026	2038.4
2826.46	2067.4
2829.89	2017.4
2833.318	2254.4
2836.742	2079.4
2840.164	2048.4
2843.583	2104.4
2846.999	2129.4
2850.412	1982.4
2853.822	2180.4
2857.229	2004.4
2860.634	2052.4
2864.035	2188.4
2867.434	2133.4
2870.83	2029.4
2874.223	2214.4
2877.613	2149.4
2881	2298.4
2884.385	2390.4
2887.766	2294.4
2891.145	2252.4
2894.521	2385.4
2897.894	2430.4
2901.264	2078.4
2904.631	2405.4
2907.996	2311.4
2911.358	2381.4
2914.717	2327.4
2918.073	2366.4
2921.426	2320.4
2924.777	2467.4
2928.124	2466.4
2931.469	2325.4
2934.811	2605.4
2938.15	2490.4
2941.487	2530.4
2944.821	2449.4
2948.152	2615.4
2951.48	2547.4
2954.805	2481.4
2958.128	2439.4
2961.447	2486.4
2964.765	2373.4
2968.079	2602.4
2971.39	2479.4
2974.699	2578.4
2978.005	2547.4
2981.308	2635.4
2984.609	2750.4
2987.907	2584.4
2991.202	2720.4
2994.494	2762.4
2997.784	2498.4
3001.07	2739.4
3004.355	2783.4
3007.636	2807.4
3010.915	2908.4
3014.191	3027.4
3017.464	2950.4
3020.734	2980.4
3024.002	3005.4
3027.267	3019.4
3030.53	3077.4
3033.789	3112.4
3037.046	3315.4
3040.301	3268.4
3043.552	3302.4
3046.801	3368.4
3050.048	3246.4
3053.291	3285.4
3056.532	3459.4
3059.771	3610.4
3063.006	3504.4
3066.239	3616.4
3069.469	3735.4
3072.697	3982.4
3075.922	4015.4
3079.144	4091.4
3082.364	4076.4
3085.581	4337.4
3088.795	4244.4
3092.007	4385.4
3095.216	4556.4
3098.423	4801.4
3101.627	4937.4
3104.828	4936.4
3108.026	5063.4
3111.222	5095.4
3114.416	5075.4
3117.607	5265.4
3120.795	5351.4
3123.98	5433.4
3127.163	5686.4
3130.344	5731.4
3133.521	5722.4
3136.696	5791.4
3139.869	5949.4
3143.039	6077.4
3146.206	6133.4
3149.371	6250.4
3152.533	6365.4
3155.693	6543.4
3158.85	6590.4
3162.005	6596.4
3165.157	6682.4
3168.306	6797.4
3171.453	6703.4
3174.597	6911.4
3177.739	6854.4
3180.878	6814.4
3184.014	6772.4
3187.149	6845.4
3190.28	6791.4
3193.409	6798.4
3196.536	6740.4
3199.659	6737.4
3202.781	6717.4
3205.9	6911.4
3209.016	6725.4
3212.13	6759.4
3215.241	6679.4
3218.35	6733.4
3221.456	6824.4
3224.56	6949.4
3227.661	6885.4
3230.76	6860.4
3233.856	6875.4
3236.95	6761.4
3240.041	6873.4
3243.13	6694.4
3246.216	6778.4
3249.3	6585.4
3252.382	6624.4
3255.46	6673.4
3258.537	6991.4
3261.611	6545.4
3264.682	6418.4
3267.751	6412.4
3270.818	6493.4
3273.882	6255.4
3276.943	6191.4
3280.002	6142.4
3283.059	6215.4
3286.113	6174.4
3289.165	6164.4
3292.214	6147.4
3295.261	5905.4
3298.306	6019.4
3301.348	5926.4
3304.387	5805.4
3307.425	5757.4
3310.459	5745.4
3313.492	5546.4
3316.521	5558.4
3319.549	5458.4
3322.574	5347.4
3325.597	5302.4
3328.617	5202.4
3331.635	5207.4
3334.65	5192.4
3337.663	5118.4
3340.674	5125.4
3343.682	4988.4
3346.688	4989.4
3349.691	5001.4
3352.692	5111.4
3355.691	4830.4
3358.687	4945.4
3361.681	4993.4
3364.673	4937.4
3367.662	4906.4
3370.649	4907.4
3373.633	4878.4
3376.615	4678.4
3379.595	4862.4
3382.572	4673.4
3385.547	4628.4
3388.52	4722.4
3391.49	4593.4
3394.458	4536.4
3397.424	4424.4
3400.387	4543.4
3403.348	4154.4
3406.307	4238.4
3409.263	4263.4
3412.217	4108.4
3415.168	4075.4
3418.118	4040.4
3421.065	3975.4
3424.009	3807.4
3426.951	3957.4
3429.891	3706.4
3432.829	3839.4
3435.764	3855.4
3438.697	3811.4
3441.628	3554.4
3444.557	3671.4
3447.483	3652.4
3450.407	3438.4
3453.328	3459.4
3456.247	3386.4
3459.164	3421.4
3462.079	3171.4
3464.991	3164.4
3467.902	3147.4
3470.809	3050.4
3473.715	2843.4
3476.618	2867.4
3479.519	2774.4
3482.418	2776.4
3485.315	2591.4
3488.209	2548.4
3491.101	2535.4
3493.99	2595.4
3496.878	2190.4
3499.763	2255.4
3502.646	2250.4
3505.527	2311.4
3508.405	2137.4
3511.281	2086.4
3514.155	2112.4
3517.027	2025.4
3519.897	2112.4
3522.764	1857.4
3525.629	1966.4
3528.492	1824.4
3531.352	1638.4
3534.211	1643.4
3537.067	1743.4
3539.921	1659.4
3542.773	1550.4
3545.622	1524.4
3548.469	1503.4
3551.315	1487.4
3554.157	1323.4
3556.998	1275.4
3559.837	1183.4
3562.673	1132.4
3565.507	1227.4
3568.339	1173.4
3571.169	1158.4
3573.996	1018.4
3576.822	1073.4
3579.645	1060.4
3582.466	993.4
3585.285	973.4
3588.101	848.4
3590.916	944.4
3593.728	828.4
3596.538	901.4
3599.346	759.4
3602.152	887.4
3604.956	871.4
3607.757	631.4
3610.556	870.4
3613.354	715.4
3616.149	684.4
3618.942	649.4
3621.732	460.4
3624.521	712.4
3627.307	570.4
3630.092	557.4
3632.874	459.4
3635.654	593.4
3638.432	641.4
3641.208	549.4
3643.982	517.4
3646.753	513.4
3649.523	547.4
3652.29	543.4
3655.055	498.4
3657.818	414.4
3660.579	397.4
3663.338	504.4
3666.095	303.4
3668.849	554.4
3671.602	361.4
3674.352	480.4
3677.101	327.4
3679.847	212.4
3682.591	371.4
3685.333	342.4
3688.073	262.4
3690.811	387.4
3693.547	418.4
3696.281	326.4
3699.013	241.4
3701.742	288.4
3704.47	357.4
3707.195	190.4
3709.919	233.4
3712.64	264.4
3715.359	116.4
3718.076	61.4
3720.792	197.4
3723.505	217.4
3726.216	206.4
3728.925	250.4
3731.632	86.4
3734.336	242.4
3737.039	143.4
3739.74	200.4
3742.439	219.4
3745.136	153.4
3747.83	154.4
3750.523	153.4
3753.213	81.4
3755.902	117.4
3758.589	165.4
3761.273	229.4
3763.956	2.4
3766.636	186.4
3769.315	-1.6
3771.991	234.4
3774.665	86.4
3777.338	241.4
3780.008	204.4
3782.677	133.4
3785.343	260.4
3788.007	63.4
3790.67	92.4
3793.33	85.4
3795.989	182.4
3798.645	85.4
3801.299	212.4
3803.952	119.4
3806.602	82.4
3809.251	121.4
3811.897	141.4
3814.542	202.4
3817.184	-1.6
3819.825	175.4
3822.463	154.4
3825.1	127.4
3827.735	152.4
3830.367	122.4
3832.998	2.4
3835.627	72.4
3838.253	44.4
3840.878	137.4
3843.501	-36.6
3846.122	37.4
3848.741	9.4
3851.358	108.4
3853.973	230.4
3856.586	92.4
3859.197	70.4
3861.806	27.4
3864.414	194.4
3867.019	123.4
3869.622	12.4
3872.224	45.4
3874.823	291.4
3877.421	187.4
3880.016	153.4
3882.61	245.4
3885.202	256.4
3887.792	190.4
3890.38	79.4
3892.966	186.4
3895.55	120.4
3898.132	52.4
3900.713	54.4
3903.291	93.4
3905.868	127.4
3908.442	89.4
3911.015	65.4
3913.586	110.4
3916.155	22.4
3918.722	196.4
3921.287	95.4
3923.85	177.4
3926.411	33.4
3928.971	17.4
3931.528	47.4
3934.084	26.4
3936.638	82.4
3939.19	20.4
3941.74	67.4
3944.288	52.4
3946.834	83.4
3949.378	86.4
3951.921	172.4
3954.462	98.4
3957	4.4
3959.537	136.4
3962.072	186.4
3964.606	196.4
3967.137	50.4
3969.667	30.4
3972.194	75.4
3974.72	56.4
3977.244	156.4
3979.766	140.4
3982.286	196.4
3984.805	44.4
3987.321	-10.6
3989.836	65.4
3992.349	120.4
3994.86	104.4
3997.369	45.4
3999.877	18.4
4002.382	57.4
4004.886	82.4
4007.388	83.4
4009.888	229.4
4012.386	-4.6
4014.883	77.4
4017.377	67.4
4019.87	-21.6
4022.361	144.4
4024.85	157.4
4027.338	231.4
4029.823	36.4
4032.307	78.4
4034.789	157.4
4037.269	140.4
4039.747	180.4
4042.224	60.4
4044.699	43.4
4047.172	65.4
4049.643	55.4
4052.112	262.4
4054.58	103.4
4057.046	147.4
4059.51	140.4
4061.972	89.4
4064.432	217.4
4066.891	-26.6
4069.348	171.4
4071.803	34.4
4074.256	37.4
4076.708	56.4
4079.158	39.4
4081.606	-6.6
4084.052	95.4
4086.497	-39.6
4088.939	114.4
4091.38	155.4
4093.819	70.4
4096.257	-1210.6
4098.693	-1225.6
4101.127	-1285.6
4103.559	-1299.6
4105.989	486.4
4108.418	257.4
4110.845	501.4
4113.27	356.4
4115.694	432.4
4118.115	474.4
4120.535	2.4
4122.954	-31.6
4125.37	-80.6
4127.785	88.4
4130.198	23.4
4132.609	71.4
4135.019	-1347.6
4137.427	-1309.6
4139.833	-1266.6
4142.237	-1094.6
