Data from 2018-2-8_conc=4_RamanShift_09.txt Node
Date: Wed Feb 07 10:38:10 IST 2018
User: aro
Spectrometer: QEPB0276
Trigger mode: 0
Integration Time (sec): 3.000000E1
Scans to average: 1
Electric dark correction enabled: true
Nonlinearity correction enabled: false
Boxcar width: 0
XAxis mode: Raman Shifts
Number of Pixels in Spectrum: 1044
>>>>>Begin Spectral Data<<<<<
160.701	460.5
166.742	540.5
172.777	1095.5
178.805	2614.5
184.826	5980.5
190.841	11870.5
196.849	18894.5
202.85	24118.5
208.845	26172.5
214.833	25835.5
220.815	25539.5
226.789	24109.5
232.758	25291.5
238.719	25185.5
244.674	24876.5
250.623	24507.5
256.565	24129.5
262.5	23554.5
268.429	22972.5
274.351	22721.5
280.267	22531.5
286.176	21955.5
292.079	21749.5
297.975	21492.5
303.865	21243.5
309.748	21127.5
315.625	20879.5
321.495	20526.5
327.359	20542.5
333.217	20546.5
339.068	20462.5
344.912	20553.5
350.751	20443.5
356.583	20436.5
362.408	20379.5
368.227	20379.5
374.04	20525.5
379.847	20566.5
385.647	20692.5
391.44	20956.5
397.228	20918.5
403.009	21075.5
408.784	21212.5
414.553	21283.5
420.315	21415.5
426.071	21454.5
431.821	21325.5
437.565	21359.5
443.302	21143.5
449.033	21186.5
454.758	21036.5
460.477	20974.5
466.189	20854.5
471.896	20684.5
477.596	20619.5
483.29	20648.5
488.978	20647.5
494.66	20631.5
500.335	20510.5
506.005	20495.5
511.668	20249.5
517.325	20111.5
522.977	19960.5
528.622	19871.5
534.261	19750.5
539.894	19674.5
545.521	19662.5
551.141	19493.5
556.756	19274.5
562.365	19123.5
567.968	19069.5
573.565	18912.5
579.155	18718.5
584.74	18699.5
590.319	18463.5
595.892	18543.5
601.459	18550.5
607.02	18521.5
612.575	18500.5
618.124	18394.5
623.667	18485.5
629.204	18450.5
634.735	18357.5
640.261	18302.5
645.781	18423.5
651.294	18208.5
656.802	17912.5
662.304	17856.5
667.8	17688.5
673.29	17736.5
678.775	17539.5
684.254	17565.5
689.726	17618.5
695.193	17446.5
700.655	17428.5
706.11	17564.5
711.56	17477.5
717.004	17523.5
722.442	17714.5
727.874	17496.5
733.301	17466.5
738.722	17529.5
744.137	17308.5
749.547	17171.5
754.951	17190.5
760.349	17011.5
765.741	16859.5
771.128	16821.5
776.509	16827.5
781.885	16875.5
787.254	16828.5
792.618	16865.5
797.977	17000.5
803.33	17060.5
808.677	17087.5
814.019	17019.5
819.355	17116.5
824.686	17019.5
830.011	17095.5
835.33	16779.5
840.644	16571.5
845.952	16591.5
851.255	16284.5
856.552	16345.5
861.844	16168.5
867.13	16114.5
872.41	16070.5
877.686	15966.5
882.955	16129.5
888.219	16181.5
893.478	16224.5
898.731	16096.5
903.979	15994.5
909.221	16066.5
914.458	16018.5
919.69	15754.5
924.916	15742.5
930.136	15511.5
935.351	15305.5
940.561	15105.5
945.766	15114.5
950.965	14919.5
956.158	15074.5
961.347	15076.5
966.529	14992.5
971.707	15096.5
976.879	15064.5
982.046	15047.5
987.208	15129.5
992.364	14924.5
997.515	14832.5
1002.66	14724.5
1007.801	14847.5
1012.936	14749.5
1018.066	14803.5
1023.19	14637.5
1028.309	14562.5
1033.423	14701.5
1038.532	14782.5
1043.636	14933.5
1048.734	14943.5
1053.827	15003.5
1058.915	14959.5
1063.998	14775.5
1069.075	14664.5
1074.147	14436.5
1079.214	14488.5
1084.276	14172.5
1089.333	14057.5
1094.385	14168.5
1099.431	14060.5
1104.472	14033.5
1109.509	14174.5
1114.54	14299.5
1119.565	14292.5
1124.586	14269.5
1129.602	14298.5
1134.613	14217.5
1139.618	14070.5
1144.619	13902.5
1149.614	13650.5
1154.604	13587.5
1159.589	13568.5
1164.57	13318.5
1169.545	13333.5
1174.515	13342.5
1179.48	13513.5
1184.44	13566.5
1189.395	13672.5
1194.345	13842.5
1199.29	13785.5
1204.23	13860.5
1209.165	13752.5
1214.095	13602.5
1219.021	13486.5
1223.941	13487.5
1228.856	13472.5
1233.766	13467.5
1238.672	13406.5
1243.572	13313.5
1248.467	13317.5
1253.358	13522.5
1258.244	13477.5
1263.124	13416.5
1268	13259.5
1272.871	13207.5
1277.737	13252.5
1282.599	13029.5
1287.455	12838.5
1292.306	12661.5
1297.153	12654.5
1301.995	12497.5
1306.832	12466.5
1311.664	12436.5
1316.491	12583.5
1321.314	12455.5
1326.132	12467.5
1330.945	12428.5
1335.753	12239.5
1340.556	12189.5
1345.354	12011.5
1350.148	11790.5
1354.937	11590.5
1359.722	11547.5
1364.501	11353.5
1369.276	11171.5
1374.046	11227.5
1378.811	11297.5
1383.572	11480.5
1388.327	11146.5
1393.079	11573.5
1397.825	11724.5
1402.567	11587.5
1407.304	11579.5
1412.036	11662.5
1416.764	11600.5
1421.487	11658.5
1426.205	11394.5
1430.919	11214.5
1435.628	11054.5
1440.333	10951.5
1445.032	10899.5
1449.727	10903.5
1454.418	10877.5
1459.104	10827.5
1463.785	10665.5
1468.462	10700.5
1473.134	10721.5
1477.802	10595.5
1482.465	10613.5
1487.123	10312.5
1491.777	10376.5
1496.426	10286.5
1501.071	10144.5
1505.711	10171.5
1510.347	10168.5
1514.978	10244.5
1519.604	10333.5
1524.226	10409.5
1528.844	10708.5
1533.457	10608.5
1538.065	10761.5
1542.669	10757.5
1547.269	10807.5
1551.864	10762.5
1556.454	10980.5
1561.041	10814.5
1565.622	10842.5
1570.199	10553.5
1574.772	10543.5
1579.34	10286.5
1583.904	10455.5
1588.464	10446.5
1593.019	10444.5
1597.569	10498.5
1602.115	10647.5
1606.657	10665.5
1611.195	10697.5
1615.728	10784.5
1620.256	10867.5
1624.78	10854.5
1629.3	10856.5
1633.816	10657.5
1638.327	10658.5
1642.834	10541.5
1647.336	10444.5
1651.834	10409.5
1656.328	10519.5
1660.817	10370.5
1665.302	10488.5
1669.783	10389.5
1674.259	10287.5
1678.732	9944.5
1683.199	9853.5
1687.663	9678.5
1692.122	9233.5
1696.577	9016.5
1701.028	9181.5
1705.474	8934.5
1709.917	8916.5
1714.355	8944.5
1718.788	8771.5
1723.218	8628.5
1727.643	8368.5
1732.064	8236.5
1736.481	8331.5
1740.893	8056.5
1745.301	7985.5
1749.705	8041.5
1754.105	7621.5
1758.501	7639.5
1762.893	7315.5
1767.28	7268.5
1771.663	7029.5
1776.042	6914.5
1780.417	6794.5
1784.787	6613.5
1789.154	6671.5
1793.516	6528.5
1797.874	6842.5
1802.228	6995.5
1806.578	7105.5
1810.924	6960.5
1815.266	7603.5
1819.603	7050.5
1823.937	7075.5
1828.266	6949.5
1832.591	6860.5
1836.913	6800.5
1841.23	6842.5
1845.543	6811.5
1849.852	6623.5
1854.156	6594.5
1858.457	6572.5
1862.754	6306.5
1867.047	6438.5
1871.335	6348.5
1875.62	6251.5
1879.9	6229.5
1884.177	6449.5
1888.449	6254.5
1892.718	6323.5
1896.982	6264.5
1901.243	6343.5
1905.499	6322.5
1909.752	6276.5
1914	6360.5
1918.245	6225.5
1922.485	6190.5
1926.722	6214.5
1930.954	6321.5
1935.183	6296.5
1939.408	6210.5
1943.628	6320.5
1947.845	6285.5
1952.058	6419.5
1956.267	6275.5
1960.472	6243.5
1964.673	6317.5
1968.87	6329.5
1973.063	6377.5
1977.252	6129.5
1981.438	6150.5
1985.619	5976.5
1989.797	5931.5
1993.971	5884.5
1998.14	5711.5
2002.306	5744.5
2006.469	5712.5
2010.627	5688.5
2014.781	5681.5
2018.932	5690.5
2023.078	5513.5
2027.221	5453.5
2031.36	5547.5
2035.495	5562.5
2039.627	5516.5
2043.754	5470.5
2047.878	5370.5
2051.998	5373.5
2056.114	5360.5
2060.226	5309.5
2064.334	5274.5
2068.439	5197.5
2072.54	5252.5
2076.637	5349.5
2080.73	5281.5
2084.82	5243.5
2088.906	5291.5
2092.988	5206.5
2097.066	5436.5
2101.14	5267.5
2105.211	5426.5
2109.278	5384.5
2113.342	5381.5
2117.401	5428.5
2121.457	5354.5
2125.509	5373.5
2129.558	5123.5
2133.602	5236.5
2137.643	5056.5
2141.681	5059.5
2145.714	5032.5
2149.744	4946.5
2153.77	4903.5
2157.793	4937.5
2161.812	4991.5
2165.827	4945.5
2169.838	4712.5
2173.846	4870.5
2177.851	4797.5
2181.851	4657.5
2185.848	4903.5
2189.841	4493.5
2193.831	4713.5
2197.817	4473.5
2201.799	4455.5
2205.778	4519.5
2209.753	4522.5
2213.725	4460.5
2217.693	4420.5
2221.657	4355.5
2225.618	4072.5
2229.575	4314.5
2233.529	4240.5
2237.479	4254.5
2241.425	4246.5
2245.368	4423.5
2249.307	4298.5
2253.243	4232.5
2257.175	4258.5
2261.104	4107.5
2265.029	4046.5
2268.95	3977.5
2272.868	3941.5
2276.783	4032.5
2280.694	3752.5
2284.601	3785.5
2288.505	3795.5
2292.405	3615.5
2296.302	3718.5
2300.195	3630.5
2304.085	3718.5
2307.971	3599.5
2311.854	3652.5
2315.734	3526.5
2319.609	3556.5
2323.482	3675.5
2327.351	3586.5
2331.216	3529.5
2335.078	3471.5
2338.937	3558.5
2342.792	3426.5
2346.643	3391.5
2350.492	3389.5
2354.336	3372.5
2358.178	3351.5
2362.015	3337.5
2365.85	3490.5
2369.681	3437.5
2373.508	3389.5
2377.333	3374.5
2381.153	3438.5
2384.971	3441.5
2388.785	3402.5
2392.595	3420.5
2396.402	3487.5
2400.206	3491.5
2404.007	3462.5
2407.804	3356.5
2411.597	3255.5
2415.388	3310.5
2419.174	3279.5
2422.958	3253.5
2426.738	3234.5
2430.515	3128.5
2434.289	3247.5
2438.059	3216.5
2441.825	3193.5
2445.589	2982.5
2449.349	3187.5
2453.106	3073.5
2456.859	3056.5
2460.61	2961.5
2464.356	2994.5
2468.1	2992.5
2471.84	3034.5
2475.577	3033.5
2479.311	2916.5
2483.041	2915.5
2486.768	2790.5
2490.492	2660.5
2494.213	2832.5
2497.93	2884.5
2501.644	2933.5
2505.355	2950.5
2509.062	2916.5
2512.766	2859.5
2516.467	2820.5
2520.165	2841.5
2523.859	2937.5
2527.551	2657.5
2531.239	2861.5
2534.923	2817.5
2538.605	2886.5
2542.283	2765.5
2545.958	2785.5
2549.63	2708.5
2553.299	2627.5
2556.964	2745.5
2560.626	2766.5
2564.285	2618.5
2567.941	2777.5
2571.594	2814.5
2575.243	2598.5
2578.89	2729.5
2582.533	2729.5
2586.173	2658.5
2589.809	2625.5
2593.443	2822.5
2597.073	2675.5
2600.701	2546.5
2604.325	2657.5
2607.946	2628.5
2611.564	2588.5
2615.178	2385.5
2618.79	2509.5
2622.398	2564.5
2626.004	2521.5
2629.606	2384.5
2633.205	2602.5
2636.801	2400.5
2640.394	2420.5
2643.983	2413.5
2647.57	2410.5
2651.153	2330.5
2654.734	2189.5
2658.311	2413.5
2661.885	2303.5
2665.456	2265.5
2669.025	2292.5
2672.589	2249.5
2676.151	2134.5
2679.71	2068.5
2683.266	2138.5
2686.819	2128.5
2690.368	2055.5
2693.915	2120.5
2697.458	2114.5
2700.999	1959.5
2704.536	1990.5
2708.071	1974.5
2711.602	1900.5
2715.13	1960.5
2718.656	1991.5
2722.178	1859.5
2725.697	1971.5
2729.214	1656.5
2732.727	1777.5
2736.237	1802.5
2739.744	1797.5
2743.249	1825.5
2746.75	1890.5
2750.248	1894.5
2753.743	1987.5
2757.236	1800.5
2760.725	1869.5
2764.211	2080.5
2767.695	1869.5
2771.175	1964.5
2774.652	1850.5
2778.127	1941.5
2781.598	1873.5
2785.067	1898.5
2788.532	1890.5
2791.995	1871.5
2795.455	1929.5
2798.911	1787.5
2802.365	2007.5
2805.816	1860.5
2809.264	1846.5
2812.709	1888.5
2816.151	1900.5
2819.59	1973.5
2823.026	1976.5
2826.46	1987.5
2829.89	1961.5
2833.318	2098.5
2836.742	1995.5
2840.164	1944.5
2843.583	2016.5
2846.999	2045.5
2850.412	1970.5
2853.822	2056.5
2857.229	1934.5
2860.634	1999.5
2864.035	2108.5
2867.434	1960.5
2870.83	2032.5
2874.223	2120.5
2877.613	2019.5
2881	2216.5
2884.385	2288.5
2887.766	2205.5
2891.145	2122.5
2894.521	2291.5
2897.894	2311.5
2901.264	1978.5
2904.631	2301.5
2907.996	2315.5
2911.358	2255.5
2914.717	2260.5
2918.073	2238.5
2921.426	2280.5
2924.777	2327.5
2928.124	2313.5
2931.469	2249.5
2934.811	2482.5
2938.15	2398.5
2941.487	2445.5
2944.821	2153.5
2948.152	2542.5
2951.48	2458.5
2954.805	2425.5
2958.128	2360.5
2961.447	2516.5
2964.765	2341.5
2968.079	2465.5
2971.39	2430.5
2974.699	2500.5
2978.005	2465.5
2981.308	2521.5
2984.609	2691.5
2987.907	2545.5
2991.202	2679.5
2994.494	2750.5
2997.784	2334.5
3001.07	2612.5
3004.355	2728.5
3007.636	2737.5
3010.915	2812.5
3014.191	2862.5
3017.464	2822.5
3020.734	2816.5
3024.002	2965.5
3027.267	3022.5
3030.53	2990.5
3033.789	3042.5
3037.046	3220.5
3040.301	3160.5
3043.552	3234.5
3046.801	3344.5
3050.048	3186.5
3053.291	3164.5
3056.532	3384.5
3059.771	3540.5
3063.006	3494.5
3066.239	3571.5
3069.469	3695.5
3072.697	3880.5
3075.922	3917.5
3079.144	3992.5
3082.364	4045.5
3085.581	4223.5
3088.795	4083.5
3092.007	4336.5
3095.216	4514.5
3098.423	4752.5
3101.627	4869.5
3104.828	4889.5
3108.026	5032.5
3111.222	5056.5
3114.416	5062.5
3117.607	5354.5
3120.795	5320.5
3123.98	5440.5
3127.163	5608.5
3130.344	5629.5
3133.521	5727.5
3136.696	5788.5
3139.869	5927.5
3143.039	6066.5
3146.206	6023.5
3149.371	6190.5
3152.533	6346.5
3155.693	6528.5
3158.85	6560.5
3162.005	6597.5
3165.157	6768.5
3168.306	6742.5
3171.453	6601.5
3174.597	6884.5
3177.739	6838.5
3180.878	6738.5
3184.014	6761.5
3187.149	6809.5
3190.28	6756.5
3193.409	6734.5
3196.536	6658.5
3199.659	6709.5
3202.781	6718.5
3205.9	6868.5
3209.016	6722.5
3212.13	6761.5
3215.241	6683.5
3218.35	6699.5
3221.456	6773.5
3224.56	6909.5
3227.661	6840.5
3230.76	6946.5
3233.856	6849.5
3236.95	6765.5
3240.041	6824.5
3243.13	6587.5
3246.216	6668.5
3249.3	6511.5
3252.382	6574.5
3255.46	6550.5
3258.537	5847.5
3261.611	6486.5
3264.682	6435.5
3267.751	6336.5
3270.818	6375.5
3273.882	6195.5
3276.943	6223.5
3280.002	6083.5
3283.059	6184.5
3286.113	6107.5
3289.165	6154.5
3292.214	6050.5
3295.261	5919.5
3298.306	6013.5
3301.348	5838.5
3304.387	5770.5
3307.425	5662.5
3310.459	5682.5
3313.492	5481.5
3316.521	5566.5
3319.549	5333.5
3322.574	5330.5
3325.597	5212.5
3328.617	5258.5
3331.635	5184.5
3334.65	5169.5
3337.663	5038.5
3340.674	5089.5
3343.682	4929.5
3346.688	4913.5
3349.691	4978.5
3352.692	5021.5
3355.691	4875.5
3358.687	4906.5
3361.681	4881.5
3364.673	4845.5
3367.662	4824.5
3370.649	4766.5
3373.633	4826.5
3376.615	4717.5
3379.595	4871.5
3382.572	4772.5
3385.547	4579.5
3388.52	4684.5
3391.49	4596.5
3394.458	4527.5
3397.424	4427.5
3400.387	4515.5
3403.348	4169.5
3406.307	4183.5
3409.263	4239.5
3412.217	4074.5
3415.168	4019.5
3418.118	3988.5
3421.065	3887.5
3424.009	3826.5
3426.951	3866.5
3429.891	3679.5
3432.829	3782.5
3435.764	3754.5
3438.697	3746.5
3441.628	3513.5
3444.557	3547.5
3447.483	3572.5
3450.407	3337.5
3453.328	3239.5
3456.247	3368.5
3459.164	3352.5
3462.079	3129.5
3464.991	3101.5
3467.902	3000.5
3470.809	2979.5
3473.715	2842.5
3476.618	2732.5
3479.519	2700.5
3482.418	2765.5
3485.315	2550.5
3488.209	2476.5
3491.101	2477.5
3493.99	2473.5
3496.878	2105.5
3499.763	2161.5
3502.646	2097.5
3505.527	2223.5
3508.405	2101.5
3511.281	2012.5
3514.155	1959.5
3517.027	1974.5
3519.897	2044.5
3522.764	1785.5
3525.629	1883.5
3528.492	1732.5
3531.352	1611.5
3534.211	1608.5
3537.067	1632.5
3539.921	1563.5
3542.773	1449.5
3545.622	1407.5
3548.469	1428.5
3551.315	1336.5
3554.157	1252.5
3556.998	1204.5
3559.837	1111.5
3562.673	1010.5
3565.507	1099.5
3568.339	970.5
3571.169	1086.5
3573.996	982.5
3576.822	966.5
3579.645	949.5
3582.466	915.5
3585.285	796.5
3588.101	815.5
3590.916	828.5
3593.728	754.5
3596.538	813.5
3599.346	680.5
3602.152	782.5
3604.956	723.5
3607.757	581.5
3610.556	744.5
3613.354	635.5
3616.149	620.5
3618.942	535.5
3621.732	361.5
3624.521	577.5
3627.307	490.5
3630.092	499.5
3632.874	377.5
3635.654	520.5
3638.432	549.5
3641.208	417.5
3643.982	441.5
3646.753	385.5
3649.523	456.5
3652.29	409.5
3655.055	343.5
3657.818	312.5
3660.579	239.5
3663.338	432.5
3666.095	223.5
3668.849	453.5
3671.602	303.5
3674.352	383.5
3677.101	252.5
3679.847	102.5
3682.591	310.5
3685.333	257.5
3688.073	201.5
3690.811	270.5
3693.547	118.5
3696.281	272.5
3699.013	127.5
3701.742	139.5
3704.47	274.5
3707.195	165.5
3709.919	177.5
3712.64	136.5
3715.359	55.5
3718.076	-10.5
3720.792	136.5
3723.505	137.5
3726.216	90.5
3728.925	123.5
3731.632	-35.5
3734.336	207.5
3737.039	87.5
3739.74	125.5
3742.439	184.5
3745.136	65.5
3747.83	57.5
3750.523	83.5
3753.213	-42.5
3755.902	84.5
3758.589	211.5
3761.273	118.5
3763.956	-7.5
3766.636	111.5
3769.315	-103.5
3771.991	174.5
3774.665	40.5
3777.338	172.5
3780.008	128.5
3782.677	77.5
3785.343	148.5
3788.007	142.5
3790.67	17.5
3793.33	2.5
3795.989	68.5
3798.645	10.5
3801.299	151.5
3803.952	60.5
3806.602	2.5
3809.251	71.5
3811.897	19.5
3814.542	69.5
3817.184	11.5
3819.825	112.5
3822.463	-12.5
3825.1	29.5
3827.735	93.5
3830.367	40.5
3832.998	-110.5
3835.627	-3.5
3838.253	-17.5
3840.878	-136.5
3843.501	-121.5
3846.122	-51.5
3848.741	-86.5
3851.358	12.5
3853.973	151.5
3856.586	26.5
3859.197	-8.5
3861.806	-24.5
3864.414	96.5
3867.019	1.5
3869.622	-67.5
3872.224	-87.5
3874.823	51.5
3877.421	26.5
3880.016	99.5
3882.61	216.5
3885.202	174.5
3887.792	109.5
3890.38	-10.5
3892.966	85.5
3895.55	13.5
3898.132	10.5
3900.713	-23.5
3903.291	24.5
3905.868	-3.5
3908.442	8.5
3911.015	39.5
3913.586	-10.5
3916.155	-41.5
3918.722	69.5
3921.287	8.5
3923.85	-240.5
3926.411	-41.5
3928.971	-91.5
3931.528	-6.5
3934.084	-15.5
3936.638	-2.5
3939.19	-41.5
3941.74	-49.5
3944.288	-40.5
3946.834	-17.5
3949.378	-33.5
3951.921	66.5
3954.462	11.5
3957	90.5
3959.537	24.5
3962.072	102.5
3964.606	143.5
3967.137	-25.5
3969.667	-52.5
3972.194	-1.5
3974.72	29.5
3977.244	103.5
3979.766	58.5
3982.286	139.5
3984.805	-94.5
3987.321	-82.5
3989.836	-63.5
3992.349	26.5
3994.86	-2.5
3997.369	36.5
3999.877	-78.5
4002.382	24.5
4004.886	31.5
4007.388	20.5
4009.888	92.5
4012.386	-32.5
4014.883	-27.5
4017.377	-21.5
4019.87	-118.5
4022.361	72.5
4024.85	33.5
4027.338	117.5
4029.823	-9.5
4032.307	-14.5
4034.789	80.5
4037.269	-0.5
4039.747	130.5
4042.224	9.5
4044.699	35.5
4047.172	26.5
4049.643	-49.5
4052.112	90.5
4054.58	59.5
4057.046	38.5
4059.51	39.5
4061.972	-3.5
4064.432	137.5
4066.891	-78.5
4069.348	66.5
4071.803	-43.5
4074.256	4.5
4076.708	74.5
4079.158	85.5
4081.606	-121.5
4084.052	54.5
4086.497	-5.5
4088.939	35.5
4091.38	61.5
4093.819	-46.5
4096.257	-1164.5
4098.693	-1167.5
4101.127	-1208.5
4103.559	-1229.5
4105.989	143.5
4108.418	185.5
4110.845	311.5
4113.27	221.5
4115.694	365.5
4118.115	403.5
4120.535	-72.5
4122.954	-125.5
4125.37	-131.5
4127.785	6.5
4130.198	-47.5
4132.609	-56.5
4135.019	-1271.5
4137.427	-1233.5
4139.833	-1170.5
4142.237	-1035.5
