Data from 2018-2-8_conc=6_RamanShift_16.txt Node
Date: Wed Feb 07 11:34:10 IST 2018
User: aro
Spectrometer: QEPB0276
Trigger mode: 0
Integration Time (sec): 3.000000E1
Scans to average: 1
Electric dark correction enabled: true
Nonlinearity correction enabled: false
Boxcar width: 0
XAxis mode: Raman Shifts
Number of Pixels in Spectrum: 1044
>>>>>Begin Spectral Data<<<<<
160.701	812.8
166.742	890.8
172.777	1390.8
178.805	2971.8
184.826	6383.8
190.841	12248.8
196.849	19375.8
202.85	24788.8
208.845	26643.8
214.833	26434.8
220.815	26098.8
226.789	25927.8
232.758	25635.8
238.719	25641.8
244.674	25307.8
250.623	24774.8
256.565	24329.8
262.5	23930.8
268.429	23260.8
274.351	22950.8
280.267	22790.8
286.176	22160.8
292.079	21879.8
297.975	21630.8
303.865	21350.8
309.748	21144.8
315.625	21030.8
321.495	20525.8
327.359	20611.8
333.217	20640.8
339.068	20587.8
344.912	20571.8
350.751	20527.8
356.583	20372.8
362.408	20395.8
368.227	20412.8
374.04	20560.8
379.847	20520.8
385.647	20681.8
391.44	21015.8
397.228	20898.8
403.009	21153.8
408.784	21108.8
414.553	21213.8
420.315	21325.8
426.071	21524.8
431.821	21352.8
437.565	21366.8
443.302	21114.8
449.033	21176.8
454.758	21069.8
460.477	20845.8
466.189	20823.8
471.896	20653.8
477.596	20567.8
483.29	20715.8
488.978	20563.8
494.66	20656.8
500.335	20524.8
506.005	20438.8
511.668	20219.8
517.325	20078.8
522.977	19951.8
528.622	19864.8
534.261	19667.8
539.894	19626.8
545.521	19615.8
551.141	19527.8
556.756	19255.8
562.365	19098.8
567.968	19037.8
573.565	18889.8
579.155	18662.8
584.74	18677.8
590.319	18451.8
595.892	18435.8
601.459	18399.8
607.02	18428.8
612.575	18505.8
618.124	18301.8
623.667	18418.8
629.204	18359.8
634.735	18393.8
640.261	18188.8
645.781	18500.8
651.294	18095.8
656.802	17929.8
662.304	17917.8
667.8	17552.8
673.29	17659.8
678.775	17480.8
684.254	17556.8
689.726	17614.8
695.193	17319.8
700.655	17373.8
706.11	17562.8
711.56	17369.8
717.004	17452.8
722.442	17754.8
727.874	17403.8
733.301	17444.8
738.722	17524.8
744.137	17286.8
749.547	17281.8
754.951	17169.8
760.349	16974.8
765.741	16821.8
771.128	16881.8
776.509	16856.8
781.885	16754.8
787.254	16765.8
792.618	16822.8
797.977	16976.8
803.33	17124.8
808.677	17049.8
814.019	16934.8
819.355	17070.8
824.686	17070.8
830.011	16962.8
835.33	16727.8
840.644	16445.8
845.952	16606.8
851.255	16289.8
856.552	16304.8
861.844	16165.8
867.13	16041.8
872.41	15937.8
877.686	15826.8
882.955	16053.8
888.219	16107.8
893.478	16193.8
898.731	15980.8
903.979	15911.8
909.221	16088.8
914.458	15945.8
919.69	15776.8
924.916	15730.8
930.136	15421.8
935.351	15284.8
940.561	15034.8
945.766	15084.8
950.965	14771.8
956.158	15024.8
961.347	15011.8
966.529	15089.8
971.707	14921.8
976.879	14972.8
982.046	14963.8
987.208	15094.8
992.364	14969.8
997.515	14897.8
1002.66	14690.8
1007.801	14850.8
1012.936	14860.8
1018.066	14854.8
1023.19	14597.8
1028.309	14424.8
1033.423	14652.8
1038.532	14649.8
1043.636	14920.8
1048.734	14816.8
1053.827	15020.8
1058.915	15015.8
1063.998	14755.8
1069.075	14656.8
1074.147	14387.8
1079.214	14534.8
1084.276	14133.8
1089.333	14110.8
1094.385	13991.8
1099.431	14281.8
1104.472	13946.8
1109.509	14174.8
1114.54	14323.8
1119.565	14335.8
1124.586	14219.8
1129.602	14249.8
1134.613	14221.8
1139.618	14174.8
1144.619	13964.8
1149.614	13658.8
1154.604	13630.8
1159.589	13630.8
1164.57	13279.8
1169.545	13320.8
1174.515	13398.8
1179.48	13493.8
1184.44	13518.8
1189.395	13692.8
1194.345	13834.8
1199.29	13820.8
1204.23	13913.8
1209.165	13770.8
1214.095	13629.8
1219.021	13514.8
1223.941	13540.8
1228.856	13534.8
1233.766	13502.8
1238.672	13342.8
1243.572	13266.8
1248.467	13355.8
1253.358	13515.8
1258.244	13520.8
1263.124	13376.8
1268	13235.8
1272.871	13331.8
1277.737	13278.8
1282.599	13088.8
1287.455	12890.8
1292.306	12682.8
1297.153	12812.8
1301.995	12561.8
1306.832	12461.8
1311.664	12511.8
1316.491	12625.8
1321.314	12535.8
1326.132	12517.8
1330.945	12367.8
1335.753	12302.8
1340.556	12149.8
1345.354	12060.8
1350.148	11783.8
1354.937	11608.8
1359.722	11624.8
1364.501	11380.8
1369.276	11162.8
1374.046	11251.8
1378.811	11446.8
1383.572	11494.8
1388.327	11143.8
1393.079	11683.8
1397.825	11757.8
1402.567	11702.8
1407.304	11597.8
1412.036	11728.8
1416.764	11541.8
1421.487	11730.8
1426.205	11541.8
1430.919	11326.8
1435.628	11261.8
1440.333	11049.8
1445.032	10984.8
1449.727	10909.8
1454.418	10993.8
1459.104	10908.8
1463.785	10797.8
1468.462	10783.8
1473.134	10737.8
1477.802	10553.8
1482.465	10733.8
1487.123	10203.8
1491.777	10429.8
1496.426	10397.8
1501.071	10056.8
1505.711	10140.8
1510.347	10186.8
1514.978	10311.8
1519.604	10433.8
1524.226	10432.8
1528.844	10820.8
1533.457	10553.8
1538.065	10836.8
1542.669	10805.8
1547.269	10889.8
1551.864	10836.8
1556.454	11115.8
1561.041	10998.8
1565.622	10991.8
1570.199	10696.8
1574.772	10711.8
1579.34	10401.8
1583.904	10577.8
1588.464	10630.8
1593.019	10570.8
1597.569	10819.8
1602.115	10620.8
1606.657	10797.8
1611.195	10842.8
1615.728	10968.8
1620.256	11043.8
1624.78	11142.8
1629.3	11043.8
1633.816	10805.8
1638.327	10880.8
1642.834	10682.8
1647.336	10716.8
1651.834	10587.8
1656.328	10703.8
1660.817	10563.8
1665.302	10813.8
1669.783	10655.8
1674.259	10456.8
1678.732	10136.8
1683.199	9881.8
1687.663	9884.8
1692.122	9383.8
1696.577	9224.8
1701.028	9102.8
1705.474	9021.8
1709.917	9002.8
1714.355	9007.8
1718.788	8874.8
1723.218	8752.8
1727.643	8549.8
1732.064	8409.8
1736.481	8469.8
1740.893	8254.8
1745.301	8116.8
1749.705	8308.8
1754.105	7704.8
1758.501	7752.8
1762.893	7461.8
1767.28	7427.8
1771.663	7188.8
1776.042	6984.8
1780.417	6933.8
1784.787	6677.8
1789.154	6764.8
1793.516	6822.8
1797.874	6912.8
1802.228	7119.8
1806.578	7218.8
1810.924	7063.8
1815.266	8103.8
1819.603	7191.8
1823.937	7246.8
1828.266	7120.8
1832.591	7059.8
1836.913	6930.8
1841.23	6969.8
1845.543	6926.8
1849.852	6817.8
1854.156	6849.8
1858.457	6774.8
1862.754	6501.8
1867.047	6650.8
1871.335	6420.8
1875.62	6464.8
1879.9	6398.8
1884.177	6621.8
1888.449	6391.8
1892.718	6478.8
1896.982	6374.8
1901.243	6564.8
1905.499	6451.8
1909.752	6355.8
1914	6639.8
1918.245	6373.8
1922.485	6325.8
1926.722	6371.8
1930.954	6443.8
1935.183	6426.8
1939.408	6301.8
1943.628	6422.8
1947.845	6491.8
1952.058	6468.8
1956.267	6374.8
1960.472	6372.8
1964.673	6451.8
1968.87	6559.8
1973.063	6467.8
1977.252	6333.8
1981.438	6341.8
1985.619	6174.8
1989.797	6124.8
1993.971	6087.8
1998.14	5896.8
2002.306	5956.8
2006.469	5934.8
2010.627	5910.8
2014.781	5924.8
2018.932	5973.8
2023.078	5666.8
2027.221	5704.8
2031.36	5779.8
2035.495	5627.8
2039.627	5759.8
2043.754	5653.8
2047.878	5593.8
2051.998	5574.8
2056.114	5649.8
2060.226	5628.8
2064.334	5519.8
2068.439	5375.8
2072.54	5399.8
2076.637	5673.8
2080.73	5518.8
2084.82	5448.8
2088.906	5548.8
2092.988	5462.8
2097.066	5655.8
2101.14	5377.8
2105.211	5514.8
2109.278	5581.8
2113.342	5543.8
2117.401	5769.8
2121.457	5622.8
2125.509	5625.8
2129.558	5350.8
2133.602	5460.8
2137.643	5393.8
2141.681	5337.8
2145.714	5384.8
2149.744	5200.8
2153.77	5272.8
2157.793	5211.8
2161.812	5404.8
2165.827	5299.8
2169.838	4926.8
2173.846	5110.8
2177.851	5024.8
2181.851	4894.8
2185.848	4938.8
2189.841	4892.8
2193.831	4950.8
2197.817	4687.8
2201.799	4749.8
2205.778	4827.8
2209.753	4830.8
2213.725	4727.8
2217.693	4713.8
2221.657	4724.8
2225.618	4534.8
2229.575	4640.8
2233.529	4528.8
2237.479	4613.8
2241.425	4509.8
2245.368	4705.8
2249.307	4522.8
2253.243	4579.8
2257.175	4512.8
2261.104	4458.8
2265.029	4303.8
2268.95	4300.8
2272.868	4260.8
2276.783	4357.8
2280.694	4090.8
2284.601	4004.8
2288.505	4089.8
2292.405	3908.8
2296.302	4085.8
2300.195	3985.8
2304.085	4062.8
2307.971	3894.8
2311.854	3920.8
2315.734	3802.8
2319.609	3868.8
2323.482	4019.8
2327.351	3832.8
2331.216	3802.8
2335.078	3788.8
2338.937	3848.8
2342.792	3804.8
2346.643	3764.8
2350.492	3685.8
2354.336	3780.8
2358.178	3700.8
2362.015	3687.8
2365.85	3738.8
2369.681	3779.8
2373.508	3721.8
2377.333	3542.8
2381.153	3805.8
2384.971	3764.8
2388.785	3787.8
2392.595	3796.8
2396.402	3747.8
2400.206	3901.8
2404.007	3855.8
2407.804	3761.8
2411.597	3566.8
2415.388	3752.8
2419.174	3635.8
2422.958	3542.8
2426.738	3585.8
2430.515	3476.8
2434.289	3555.8
2438.059	3600.8
2441.825	3609.8
2445.589	3314.8
2449.349	3568.8
2453.106	3363.8
2456.859	3417.8
2460.61	3335.8
2464.356	3369.8
2468.1	3317.8
2471.84	3326.8
2475.577	3355.8
2479.311	3262.8
2483.041	3185.8
2486.768	3127.8
2490.492	2964.8
2494.213	3220.8
2497.93	3238.8
2501.644	3308.8
2505.355	3305.8
2509.062	3113.8
2512.766	3197.8
2516.467	3221.8
2520.165	3167.8
2523.859	3314.8
2527.551	2968.8
2531.239	3188.8
2534.923	3141.8
2538.605	3193.8
2542.283	3062.8
2545.958	3081.8
2549.63	3017.8
2553.299	3003.8
2556.964	2883.8
2560.626	3084.8
2564.285	2860.8
2567.941	3113.8
2571.594	3012.8
2575.243	2888.8
2578.89	3105.8
2582.533	3116.8
2586.173	3024.8
2589.809	2946.8
2593.443	3309.8
2597.073	3019.8
2600.701	2880.8
2604.325	2911.8
2607.946	2935.8
2611.564	2889.8
2615.178	2744.8
2618.79	2821.8
2622.398	2957.8
2626.004	2890.8
2629.606	2768.8
2633.205	3041.8
2636.801	2855.8
2640.394	2729.8
2643.983	2742.8
2647.57	2777.8
2651.153	2715.8
2654.734	2543.8
2658.311	2872.8
2661.885	2729.8
2665.456	2675.8
2669.025	2631.8
2672.589	2658.8
2676.151	2482.8
2679.71	2409.8
2683.266	2571.8
2686.819	2287.8
2690.368	2439.8
2693.915	2432.8
2697.458	2533.8
2700.999	2339.8
2704.536	2353.8
2708.071	2348.8
2711.602	2274.8
2715.13	2308.8
2718.656	2292.8
2722.178	2212.8
2725.697	2329.8
2729.214	1957.8
2732.727	2051.8
2736.237	2201.8
2739.744	2171.8
2743.249	2243.8
2746.75	2232.8
2750.248	2344.8
2753.743	2301.8
2757.236	2261.8
2760.725	2244.8
2764.211	2491.8
2767.695	2267.8
2771.175	2265.8
2774.652	2236.8
2778.127	2241.8
2781.598	2243.8
2785.067	2262.8
2788.532	2271.8
2791.995	2287.8
2795.455	2266.8
2798.911	2235.8
2802.365	2368.8
2805.816	2179.8
2809.264	2142.8
2812.709	2274.8
2816.151	2251.8
2819.59	2343.8
2823.026	2382.8
2826.46	2436.8
2829.89	2317.8
2833.318	2585.8
2836.742	2232.8
2840.164	2311.8
2843.583	2492.8
2846.999	2415.8
2850.412	2364.8
2853.822	2765.8
2857.229	2270.8
2860.634	2394.8
2864.035	2530.8
2867.434	2327.8
2870.83	2432.8
2874.223	2542.8
2877.613	2411.8
2881	2620.8
2884.385	2723.8
2887.766	2628.8
2891.145	2608.8
2894.521	2758.8
2897.894	2830.8
2901.264	2318.8
2904.631	2711.8
2907.996	2647.8
2911.358	2678.8
2914.717	2770.8
2918.073	2697.8
2921.426	2743.8
2924.777	2901.8
2928.124	2831.8
2931.469	2722.8
2934.811	3025.8
2938.15	2798.8
2941.487	2877.8
2944.821	2553.8
2948.152	2996.8
2951.48	2963.8
2954.805	2853.8
2958.128	2766.8
2961.447	2944.8
2964.765	2803.8
2968.079	2934.8
2971.39	2897.8
2974.699	2962.8
2978.005	2946.8
2981.308	2973.8
2984.609	3217.8
2987.907	2982.8
2991.202	3090.8
2994.494	3126.8
2997.784	2785.8
3001.07	3057.8
3004.355	3143.8
3007.636	3214.8
3010.915	3282.8
3014.191	3348.8
3017.464	3324.8
3020.734	3224.8
3024.002	3484.8
3027.267	3486.8
3030.53	3478.8
3033.789	3550.8
3037.046	3684.8
3040.301	3673.8
3043.552	3762.8
3046.801	3922.8
3050.048	3644.8
3053.291	3646.8
3056.532	3869.8
3059.771	4080.8
3063.006	4046.8
3066.239	4064.8
3069.469	4174.8
3072.697	4527.8
3075.922	4521.8
3079.144	4547.8
3082.364	4529.8
3085.581	4842.8
3088.795	4538.8
3092.007	4867.8
3095.216	5130.8
3098.423	5363.8
3101.627	5545.8
3104.828	5529.8
3108.026	5701.8
3111.222	5683.8
3114.416	5668.8
3117.607	5874.8
3120.795	5991.8
3123.98	6045.8
3127.163	6323.8
3130.344	6308.8
3133.521	6517.8
3136.696	6402.8
3139.869	6649.8
3143.039	6697.8
3146.206	6649.8
3149.371	6890.8
3152.533	7069.8
3155.693	7232.8
3158.85	7284.8
3162.005	7314.8
3165.157	7442.8
3168.306	7504.8
3171.453	7353.8
3174.597	7668.8
3177.739	7677.8
3180.878	7494.8
3184.014	7526.8
3187.149	7540.8
3190.28	7505.8
3193.409	7495.8
3196.536	7488.8
3199.659	7497.8
3202.781	7440.8
3205.9	7608.8
3209.016	7465.8
3212.13	7463.8
3215.241	7426.8
3218.35	7483.8
3221.456	7596.8
3224.56	7707.8
3227.661	7640.8
3230.76	7720.8
3233.856	7702.8
3236.95	7610.8
3240.041	7681.8
3243.13	7413.8
3246.216	7440.8
3249.3	7303.8
3252.382	7301.8
3255.46	7511.8
3258.537	6804.8
3261.611	7359.8
3264.682	7193.8
3267.751	7080.8
3270.818	7235.8
3273.882	7025.8
3276.943	6963.8
3280.002	6830.8
3283.059	6929.8
3286.113	6889.8
3289.165	7039.8
3292.214	6848.8
3295.261	6649.8
3298.306	6868.8
3301.348	6613.8
3304.387	6600.8
3307.425	6415.8
3310.459	6491.8
3313.492	6156.8
3316.521	6210.8
3319.549	6114.8
3322.574	6015.8
3325.597	5922.8
3328.617	5922.8
3331.635	5824.8
3334.65	5919.8
3337.663	5742.8
3340.674	5854.8
3343.682	5614.8
3346.688	5663.8
3349.691	5676.8
3352.692	5720.8
3355.691	5475.8
3358.687	5548.8
3361.681	5520.8
3364.673	5548.8
3367.662	5518.8
3370.649	5392.8
3373.633	5509.8
3376.615	5345.8
3379.595	5571.8
3382.572	5283.8
3385.547	5299.8
3388.52	5431.8
3391.49	5216.8
3394.458	5213.8
3397.424	5006.8
3400.387	5135.8
3403.348	4768.8
3406.307	4850.8
3409.263	4920.8
3412.217	4646.8
3415.168	4742.8
3418.118	4688.8
3421.065	4624.8
3424.009	4393.8
3426.951	4546.8
3429.891	4479.8
3432.829	4429.8
3435.764	4400.8
3438.697	4348.8
3441.628	4040.8
3444.557	4231.8
3447.483	4199.8
3450.407	3947.8
3453.328	3852.8
3456.247	3980.8
3459.164	3959.8
3462.079	3705.8
3464.991	3645.8
3467.902	3510.8
3470.809	3503.8
3473.715	3318.8
3476.618	3292.8
3479.519	3209.8
3482.418	3371.8
3485.315	3136.8
3488.209	2983.8
3491.101	2840.8
3493.99	2991.8
3496.878	2659.8
3499.763	2699.8
3502.646	2601.8
3505.527	2749.8
3508.405	2560.8
3511.281	2543.8
3514.155	2502.8
3517.027	2440.8
3519.897	2563.8
3522.764	2271.8
3525.629	2358.8
3528.492	2192.8
3531.352	2018.8
3534.211	2047.8
3537.067	2155.8
3539.921	2004.8
3542.773	1925.8
3545.622	1856.8
3548.469	1924.8
3551.315	1792.8
3554.157	1692.8
3556.998	1635.8
3559.837	1524.8
3562.673	1422.8
3565.507	1523.8
3568.339	1363.8
3571.169	1495.8
3573.996	1398.8
3576.822	1360.8
3579.645	1369.8
3582.466	1322.8
3585.285	1302.8
3588.101	1161.8
3590.916	1330.8
3593.728	1130.8
3596.538	1217.8
3599.346	1094.8
3602.152	1240.8
3604.956	1171.8
3607.757	959.8
3610.556	1155.8
3613.354	993.8
3616.149	927.8
3618.942	962.8
3621.732	744.8
3624.521	1025.8
3627.307	907.8
3630.092	736.8
3632.874	721.8
3635.654	883.8
3638.432	972.8
3641.208	788.8
3643.982	801.8
3646.753	748.8
3649.523	880.8
3652.29	800.8
3655.055	697.8
3657.818	630.8
3660.579	616.8
3663.338	847.8
3666.095	623.8
3668.849	768.8
3671.602	565.8
3674.352	848.8
3677.101	583.8
3679.847	432.8
3682.591	705.8
3685.333	646.8
3688.073	563.8
3690.811	679.8
3693.547	601.8
3696.281	587.8
3699.013	499.8
3701.742	516.8
3704.47	713.8
3707.195	473.8
3709.919	550.8
3712.64	545.8
3715.359	456.8
3718.076	205.8
3720.792	623.8
3723.505	482.8
3726.216	409.8
3728.925	542.8
3731.632	367.8
3734.336	580.8
3737.039	477.8
3739.74	457.8
3742.439	635.8
3745.136	408.8
3747.83	348.8
3750.523	438.8
3753.213	141.8
3755.902	418.8
3758.589	565.8
3761.273	487.8
3763.956	231.8
3766.636	550.8
3769.315	178.8
3771.991	489.8
3774.665	465.8
3777.338	580.8
3780.008	530.8
3782.677	235.8
3785.343	606.8
3788.007	635.8
3790.67	358.8
3793.33	408.8
3795.989	423.8
3798.645	345.8
3801.299	591.8
3803.952	365.8
3806.602	361.8
3809.251	347.8
3811.897	419.8
3814.542	463.8
3817.184	412.8
3819.825	429.8
3822.463	105.8
3825.1	428.8
3827.735	458.8
3830.367	476.8
3832.998	232.8
3835.627	289.8
3838.253	283.8
3840.878	213.8
3843.501	173.8
3846.122	306.8
3848.741	259.8
3851.358	367.8
3853.973	627.8
3856.586	343.8
3859.197	331.8
3861.806	319.8
3864.414	485.8
3867.019	362.8
3869.622	290.8
3872.224	286.8
3874.823	425.8
3877.421	466.8
3880.016	474.8
3882.61	531.8
3885.202	525.8
3887.792	475.8
3890.38	297.8
3892.966	447.8
3895.55	437.8
3898.132	356.8
3900.713	295.8
3903.291	409.8
3905.868	461.8
3908.442	264.8
3911.015	247.8
3913.586	358.8
3916.155	288.8
3918.722	503.8
3921.287	359.8
3923.85	174.8
3926.411	300.8
3928.971	263.8
3931.528	321.8
3934.084	382.8
3936.638	358.8
3939.19	296.8
3941.74	227.8
3944.288	289.8
3946.834	411.8
3949.378	292.8
3951.921	482.8
3954.462	330.8
3957	304.8
3959.537	389.8
3962.072	521.8
3964.606	489.8
3967.137	212.8
3969.667	326.8
3972.194	358.8
3974.72	375.8
3977.244	459.8
3979.766	284.8
3982.286	511.8
3984.805	266.8
3987.321	200.8
3989.836	284.8
3992.349	380.8
3994.86	359.8
3997.369	294.8
3999.877	301.8
4002.382	360.8
4004.886	322.8
4007.388	359.8
4009.888	479.8
4012.386	287.8
4014.883	329.8
4017.377	372.8
4019.87	230.8
4022.361	403.8
4024.85	479.8
4027.338	348.8
4029.823	276.8
4032.307	389.8
4034.789	407.8
4037.269	383.8
4039.747	429.8
4042.224	297.8
4044.699	419.8
4047.172	392.8
4049.643	316.8
4052.112	404.8
4054.58	395.8
4057.046	359.8
4059.51	428.8
4061.972	315.8
4064.432	535.8
4066.891	264.8
4069.348	400.8
4071.803	283.8
4074.256	288.8
4076.708	295.8
4079.158	411.8
4081.606	170.8
4084.052	427.8
4086.497	312.8
4088.939	399.8
4091.38	432.8
4093.819	290.8
4096.257	-1443.2
4098.693	-1559.2
4101.127	-1576.2
4103.559	-1599.2
4105.989	527.8
4108.418	578.8
4110.845	787.8
4113.27	595.8
4115.694	717.8
4118.115	777.8
4120.535	294.8
4122.954	212.8
4125.37	110.8
4127.785	306.8
4130.198	242.8
4132.609	285.8
4135.019	-1647.2
4137.427	-1593.2
4139.833	-1536.2
4142.237	-1289.2
