Data from 2018-2-8_conc=4_RamanShift_10.txt Node
Date: Wed Feb 07 10:38:40 IST 2018
User: aro
Spectrometer: QEPB0276
Trigger mode: 0
Integration Time (sec): 3.000000E1
Scans to average: 1
Electric dark correction enabled: true
Nonlinearity correction enabled: false
Boxcar width: 0
XAxis mode: Raman Shifts
Number of Pixels in Spectrum: 1044
>>>>>Begin Spectral Data<<<<<
160.701	471.9
166.742	551.9
172.777	1025.9
178.805	2506.9
184.826	5861.9
190.841	11587.9
196.849	18521.9
202.85	23678.9
208.845	25549.9
214.833	25351.9
220.815	24902.9
226.789	23636.9
232.758	24653.9
238.719	24529.9
244.674	24150.9
250.623	23755.9
256.565	23386.9
262.5	22867.9
268.429	22259.9
274.351	21978.9
280.267	21822.9
286.176	21267.9
292.079	20945.9
297.975	20588.9
303.865	20417.9
309.748	20298.9
315.625	20172.9
321.495	19683.9
327.359	19714.9
333.217	19711.9
339.068	19719.9
344.912	19688.9
350.751	19624.9
356.583	19532.9
362.408	19638.9
368.227	19588.9
374.04	19698.9
379.847	19746.9
385.647	19881.9
391.44	20081.9
397.228	20140.9
403.009	20329.9
408.784	20326.9
414.553	20397.9
420.315	20528.9
426.071	20609.9
431.821	20510.9
437.565	20496.9
443.302	20273.9
449.033	20323.9
454.758	20223.9
460.477	20013.9
466.189	19917.9
471.896	19857.9
477.596	19824.9
483.29	19818.9
488.978	19788.9
494.66	19808.9
500.335	19745.9
506.005	19640.9
511.668	19383.9
517.325	19292.9
522.977	19103.9
528.622	19036.9
534.261	18868.9
539.894	18827.9
545.521	18851.9
551.141	18751.9
556.756	18501.9
562.365	18325.9
567.968	18196.9
573.565	18118.9
579.155	17926.9
584.74	17858.9
590.319	17761.9
595.892	17778.9
601.459	17718.9
607.02	17691.9
612.575	17694.9
618.124	17510.9
623.667	17692.9
629.204	17634.9
634.735	17617.9
640.261	17495.9
645.781	17659.9
651.294	17272.9
656.802	17080.9
662.304	17140.9
667.8	16869.9
673.29	16960.9
678.775	16810.9
684.254	16788.9
689.726	16904.9
695.193	16681.9
700.655	16638.9
706.11	16811.9
711.56	16683.9
717.004	16583.9
722.442	16897.9
727.874	16679.9
733.301	16717.9
738.722	16754.9
744.137	16562.9
749.547	16505.9
754.951	16436.9
760.349	16227.9
765.741	16088.9
771.128	16117.9
776.509	16119.9
781.885	16078.9
787.254	16101.9
792.618	16158.9
797.977	16291.9
803.33	16304.9
808.677	16289.9
814.019	16305.9
819.355	16301.9
824.686	16284.9
830.011	16226.9
835.33	15991.9
840.644	15810.9
845.952	15850.9
851.255	15571.9
856.552	15640.9
861.844	15429.9
867.13	15351.9
872.41	15330.9
877.686	15222.9
882.955	15340.9
888.219	15493.9
893.478	15504.9
898.731	15377.9
903.979	15339.9
909.221	15358.9
914.458	15241.9
919.69	15079.9
924.916	14993.9
930.136	14777.9
935.351	14624.9
940.561	14478.9
945.766	14397.9
950.965	14219.9
956.158	14324.9
961.347	14344.9
966.529	14392.9
971.707	14264.9
976.879	14375.9
982.046	14305.9
987.208	14384.9
992.364	14223.9
997.515	14316.9
1002.66	14111.9
1007.801	14179.9
1012.936	14117.9
1018.066	14105.9
1023.19	13995.9
1028.309	13896.9
1033.423	13915.9
1038.532	14078.9
1043.636	14225.9
1048.734	14156.9
1053.827	14300.9
1058.915	14310.9
1063.998	14122.9
1069.075	13987.9
1074.147	13825.9
1079.214	13853.9
1084.276	13569.9
1089.333	13538.9
1094.385	13373.9
1099.431	13422.9
1104.472	13415.9
1109.509	13594.9
1114.54	13653.9
1119.565	13684.9
1124.586	13648.9
1129.602	13700.9
1134.613	13586.9
1139.618	13503.9
1144.619	13271.9
1149.614	13149.9
1154.604	12997.9
1159.589	12954.9
1164.57	12797.9
1169.545	12753.9
1174.515	12795.9
1179.48	12908.9
1184.44	12947.9
1189.395	13126.9
1194.345	13167.9
1199.29	13179.9
1204.23	13193.9
1209.165	13132.9
1214.095	13081.9
1219.021	12911.9
1223.941	12970.9
1228.856	12931.9
1233.766	12917.9
1238.672	12763.9
1243.572	12752.9
1248.467	12772.9
1253.358	12947.9
1258.244	12941.9
1263.124	12868.9
1268	12715.9
1272.871	12738.9
1277.737	12642.9
1282.599	12503.9
1287.455	12325.9
1292.306	12126.9
1297.153	12151.9
1301.995	11976.9
1306.832	11916.9
1311.664	11887.9
1316.491	11972.9
1321.314	12031.9
1326.132	11957.9
1330.945	11904.9
1335.753	11781.9
1340.556	11691.9
1345.354	11484.9
1350.148	11231.9
1354.937	11101.9
1359.722	11046.9
1364.501	10832.9
1369.276	10698.9
1374.046	10723.9
1378.811	10902.9
1383.572	10985.9
1388.327	10699.9
1393.079	11088.9
1397.825	11211.9
1402.567	11134.9
1407.304	11027.9
1412.036	11197.9
1416.764	11086.9
1421.487	11227.9
1426.205	10847.9
1430.919	10762.9
1435.628	10608.9
1440.333	10543.9
1445.032	10428.9
1449.727	10436.9
1454.418	10398.9
1459.104	10386.9
1463.785	10197.9
1468.462	10305.9
1473.134	10205.9
1477.802	10066.9
1482.465	10127.9
1487.123	9873.9
1491.777	9889.9
1496.426	9822.9
1501.071	9635.9
1505.711	9754.9
1510.347	9661.9
1514.978	9808.9
1519.604	9875.9
1524.226	9939.9
1528.844	10248.9
1533.457	10147.9
1538.065	10199.9
1542.669	10361.9
1547.269	10428.9
1551.864	10350.9
1556.454	10497.9
1561.041	10357.9
1565.622	10413.9
1570.199	10118.9
1574.772	10109.9
1579.34	9866.9
1583.904	10086.9
1588.464	10042.9
1593.019	10019.9
1597.569	10173.9
1602.115	10244.9
1606.657	10235.9
1611.195	10329.9
1615.728	10335.9
1620.256	10466.9
1624.78	10434.9
1629.3	10440.9
1633.816	10232.9
1638.327	10238.9
1642.834	10194.9
1647.336	10158.9
1651.834	10064.9
1656.328	10171.9
1660.817	9963.9
1665.302	10095.9
1669.783	10019.9
1674.259	9895.9
1678.732	9605.9
1683.199	9393.9
1687.663	9291.9
1692.122	8894.9
1696.577	8608.9
1701.028	8597.9
1705.474	8543.9
1709.917	8458.9
1714.355	8488.9
1718.788	8399.9
1723.218	8241.9
1727.643	8098.9
1732.064	7867.9
1736.481	7891.9
1740.893	7739.9
1745.301	7632.9
1749.705	7629.9
1754.105	7238.9
1758.501	7283.9
1762.893	7017.9
1767.28	7001.9
1771.663	6746.9
1776.042	6607.9
1780.417	6529.9
1784.787	6237.9
1789.154	6402.9
1793.516	6222.9
1797.874	6473.9
1802.228	6661.9
1806.578	6756.9
1810.924	6657.9
1815.266	7421.9
1819.603	6691.9
1823.937	6734.9
1828.266	6650.9
1832.591	6649.9
1836.913	6501.9
1841.23	6602.9
1845.543	6498.9
1849.852	6334.9
1854.156	6335.9
1858.457	6266.9
1862.754	5984.9
1867.047	6208.9
1871.335	6056.9
1875.62	5997.9
1879.9	6007.9
1884.177	6127.9
1888.449	5968.9
1892.718	6011.9
1896.982	5947.9
1901.243	6095.9
1905.499	6029.9
1909.752	5961.9
1914	6106.9
1918.245	5863.9
1922.485	5917.9
1926.722	5912.9
1930.954	6010.9
1935.183	5987.9
1939.408	5965.9
1943.628	6017.9
1947.845	6047.9
1952.058	6066.9
1956.267	5935.9
1960.472	5932.9
1964.673	5992.9
1968.87	6051.9
1973.063	6052.9
1977.252	5850.9
1981.438	5876.9
1985.619	5727.9
1989.797	5683.9
1993.971	5650.9
1998.14	5432.9
2002.306	5434.9
2006.469	5405.9
2010.627	5449.9
2014.781	5449.9
2018.932	5460.9
2023.078	5337.9
2027.221	5272.9
2031.36	5381.9
2035.495	5337.9
2039.627	5273.9
2043.754	5234.9
2047.878	5178.9
2051.998	5164.9
2056.114	5132.9
2060.226	5147.9
2064.334	5084.9
2068.439	4955.9
2072.54	4975.9
2076.637	5179.9
2080.73	5107.9
2084.82	5033.9
2088.906	5078.9
2092.988	5116.9
2097.066	5252.9
2101.14	5049.9
2105.211	5158.9
2109.278	5108.9
2113.342	5153.9
2117.401	5175.9
2121.457	5170.9
2125.509	5124.9
2129.558	4928.9
2133.602	4963.9
2137.643	4922.9
2141.681	4837.9
2145.714	4823.9
2149.744	4843.9
2153.77	4696.9
2157.793	4723.9
2161.812	4832.9
2165.827	4772.9
2169.838	4520.9
2173.846	4692.9
2177.851	4636.9
2181.851	4464.9
2185.848	4652.9
2189.841	4406.9
2193.831	4508.9
2197.817	4254.9
2201.799	4329.9
2205.778	4337.9
2209.753	4336.9
2213.725	4269.9
2217.693	4265.9
2221.657	4227.9
2225.618	3779.9
2229.575	4184.9
2233.529	4110.9
2237.479	4096.9
2241.425	4113.9
2245.368	4227.9
2249.307	4098.9
2253.243	4064.9
2257.175	4051.9
2261.104	3998.9
2265.029	3891.9
2268.95	3862.9
2272.868	3833.9
2276.783	3791.9
2280.694	3594.9
2284.601	3658.9
2288.505	3677.9
2292.405	3502.9
2296.302	3555.9
2300.195	3481.9
2304.085	3583.9
2307.971	3450.9
2311.854	3483.9
2315.734	3420.9
2319.609	3447.9
2323.482	3554.9
2327.351	3429.9
2331.216	3384.9
2335.078	3401.9
2338.937	3400.9
2342.792	3361.9
2346.643	3249.9
2350.492	3283.9
2354.336	3335.9
2358.178	3219.9
2362.015	3240.9
2365.85	3326.9
2369.681	3299.9
2373.508	3318.9
2377.333	3198.9
2381.153	3320.9
2384.971	3352.9
2388.785	3323.9
2392.595	3328.9
2396.402	3362.9
2400.206	3368.9
2404.007	3324.9
2407.804	3250.9
2411.597	3166.9
2415.388	3259.9
2419.174	3130.9
2422.958	3141.9
2426.738	3128.9
2430.515	2992.9
2434.289	3178.9
2438.059	3121.9
2441.825	3133.9
2445.589	2899.9
2449.349	3072.9
2453.106	2988.9
2456.859	2973.9
2460.61	2874.9
2464.356	2975.9
2468.1	2892.9
2471.84	2944.9
2475.577	2944.9
2479.311	2758.9
2483.041	2838.9
2486.768	2727.9
2490.492	2600.9
2494.213	2748.9
2497.93	2771.9
2501.644	2815.9
2505.355	2858.9
2509.062	2822.9
2512.766	2758.9
2516.467	2694.9
2520.165	2715.9
2523.859	2830.9
2527.551	2585.9
2531.239	2748.9
2534.923	2723.9
2538.605	2766.9
2542.283	2685.9
2545.958	2729.9
2549.63	2631.9
2553.299	2546.9
2556.964	2617.9
2560.626	2655.9
2564.285	2552.9
2567.941	2647.9
2571.594	2663.9
2575.243	2507.9
2578.89	2680.9
2582.533	2646.9
2586.173	2591.9
2589.809	2545.9
2593.443	2760.9
2597.073	2585.9
2600.701	2429.9
2604.325	2572.9
2607.946	2532.9
2611.564	2468.9
2615.178	2343.9
2618.79	2406.9
2622.398	2486.9
2626.004	2420.9
2629.606	2320.9
2633.205	2542.9
2636.801	2350.9
2640.394	2336.9
2643.983	2330.9
2647.57	2362.9
2651.153	2285.9
2654.734	2154.9
2658.311	2406.9
2661.885	2225.9
2665.456	2213.9
2669.025	2189.9
2672.589	2150.9
2676.151	2064.9
2679.71	2007.9
2683.266	2021.9
2686.819	2078.9
2690.368	2031.9
2693.915	2026.9
2697.458	2080.9
2700.999	1916.9
2704.536	1939.9
2708.071	1969.9
2711.602	1940.9
2715.13	1928.9
2718.656	1878.9
2722.178	1781.9
2725.697	1916.9
2729.214	1587.9
2732.727	1737.9
2736.237	1749.9
2739.744	1755.9
2743.249	1868.9
2746.75	1815.9
2750.248	1846.9
2753.743	1907.9
2757.236	1792.9
2760.725	1823.9
2764.211	1977.9
2767.695	1826.9
2771.175	1872.9
2774.652	1819.9
2778.127	1846.9
2781.598	1811.9
2785.067	1860.9
2788.532	1862.9
2791.995	1806.9
2795.455	1844.9
2798.911	1777.9
2802.365	1927.9
2805.816	1739.9
2809.264	1798.9
2812.709	1845.9
2816.151	1839.9
2819.59	1908.9
2823.026	1956.9
2826.46	1946.9
2829.89	1912.9
2833.318	2069.9
2836.742	1944.9
2840.164	1857.9
2843.583	2012.9
2846.999	2044.9
2850.412	1921.9
2853.822	2029.9
2857.229	1878.9
2860.634	1956.9
2864.035	2101.9
2867.434	1913.9
2870.83	1979.9
2874.223	2096.9
2877.613	1962.9
2881	2171.9
2884.385	2231.9
2887.766	2219.9
2891.145	2121.9
2894.521	2289.9
2897.894	2317.9
2901.264	1977.9
2904.631	2253.9
2907.996	2200.9
2911.358	2233.9
2914.717	2243.9
2918.073	2202.9
2921.426	2254.9
2924.777	2305.9
2928.124	2408.9
2931.469	2285.9
2934.811	2494.9
2938.15	2320.9
2941.487	2392.9
2944.821	2116.9
2948.152	2422.9
2951.48	2388.9
2954.805	2380.9
2958.128	2313.9
2961.447	2414.9
2964.765	2341.9
2968.079	2400.9
2971.39	2405.9
2974.699	2447.9
2978.005	2455.9
2981.308	2461.9
2984.609	2644.9
2987.907	2542.9
2991.202	2635.9
2994.494	2711.9
2997.784	2309.9
3001.07	2656.9
3004.355	2656.9
3007.636	2733.9
3010.915	2794.9
3014.191	2880.9
3017.464	2855.9
3020.734	2761.9
3024.002	2939.9
3027.267	2976.9
3030.53	2930.9
3033.789	3027.9
3037.046	3120.9
3040.301	3162.9
3043.552	3189.9
3046.801	3353.9
3050.048	3136.9
3053.291	3188.9
3056.532	3392.9
3059.771	3498.9
3063.006	3473.9
3066.239	3508.9
3069.469	3622.9
3072.697	3860.9
3075.922	3920.9
3079.144	3946.9
3082.364	3986.9
3085.581	4262.9
3088.795	4025.9
3092.007	4293.9
3095.216	4480.9
3098.423	4699.9
3101.627	4819.9
3104.828	4841.9
3108.026	4953.9
3111.222	4989.9
3114.416	5036.9
3117.607	5257.9
3120.795	5304.9
3123.98	5423.9
3127.163	5589.9
3130.344	5628.9
3133.521	5677.9
3136.696	5760.9
3139.869	5950.9
3143.039	6054.9
3146.206	6041.9
3149.371	6168.9
3152.533	6328.9
3155.693	6409.9
3158.85	6520.9
3162.005	6579.9
3165.157	6700.9
3168.306	6715.9
3171.453	6646.9
3174.597	6869.9
3177.739	6855.9
3180.878	6741.9
3184.014	6749.9
3187.149	6761.9
3190.28	6764.9
3193.409	6714.9
3196.536	6689.9
3199.659	6655.9
3202.781	6662.9
3205.9	6821.9
3209.016	6721.9
3212.13	6785.9
3215.241	6635.9
3218.35	6726.9
3221.456	6773.9
3224.56	6846.9
3227.661	6830.9
3230.76	6961.9
3233.856	6830.9
3236.95	6739.9
3240.041	6863.9
3243.13	6561.9
3246.216	6604.9
3249.3	6554.9
3252.382	6538.9
3255.46	6519.9
3258.537	5832.9
3261.611	6541.9
3264.682	6346.9
3267.751	6288.9
3270.818	6394.9
3273.882	6187.9
3276.943	6199.9
3280.002	6097.9
3283.059	6141.9
3286.113	6077.9
3289.165	6171.9
3292.214	6052.9
3295.261	5893.9
3298.306	6012.9
3301.348	5855.9
3304.387	5769.9
3307.425	5703.9
3310.459	5664.9
3313.492	5446.9
3316.521	5480.9
3319.549	5375.9
3322.574	5360.9
3325.597	5164.9
3328.617	5163.9
3331.635	5124.9
3334.65	5083.9
3337.663	5090.9
3340.674	5106.9
3343.682	4979.9
3346.688	4967.9
3349.691	4961.9
3352.692	5001.9
3355.691	4915.9
3358.687	4848.9
3361.681	4889.9
3364.673	4850.9
3367.662	4822.9
3370.649	4787.9
3373.633	4831.9
3376.615	4727.9
3379.595	4880.9
3382.572	4742.9
3385.547	4583.9
3388.52	4695.9
3391.49	4567.9
3394.458	4519.9
3397.424	4424.9
3400.387	4473.9
3403.348	4125.9
3406.307	4190.9
3409.263	4210.9
3412.217	4041.9
3415.168	4041.9
3418.118	4025.9
3421.065	3933.9
3424.009	3764.9
3426.951	3886.9
3429.891	3674.9
3432.829	3825.9
3435.764	3795.9
3438.697	3708.9
3441.628	3534.9
3444.557	3571.9
3447.483	3590.9
3450.407	3350.9
3453.328	3210.9
3456.247	3367.9
3459.164	3288.9
3462.079	3085.9
3464.991	3085.9
3467.902	2998.9
3470.809	2974.9
3473.715	2878.9
3476.618	2721.9
3479.519	2657.9
3482.418	2773.9
3485.315	2545.9
3488.209	2479.9
3491.101	2455.9
3493.99	2475.9
3496.878	2122.9
3499.763	2230.9
3502.646	2105.9
3505.527	2200.9
3508.405	2063.9
3511.281	1948.9
3514.155	1997.9
3517.027	1872.9
3519.897	2012.9
3522.764	1778.9
3525.629	1833.9
3528.492	1738.9
3531.352	1609.9
3534.211	1583.9
3537.067	1650.9
3539.921	1525.9
3542.773	1488.9
3545.622	1405.9
3548.469	1510.9
3551.315	1384.9
3554.157	1255.9
3556.998	1171.9
3559.837	1109.9
3562.673	990.9
3565.507	1088.9
3568.339	959.9
3571.169	1040.9
3573.996	963.9
3576.822	989.9
3579.645	1001.9
3582.466	914.9
3585.285	827.9
3588.101	787.9
3590.916	861.9
3593.728	724.9
3596.538	829.9
3599.346	699.9
3602.152	753.9
3604.956	740.9
3607.757	549.9
3610.556	748.9
3613.354	587.9
3616.149	588.9
3618.942	571.9
3621.732	348.9
3624.521	544.9
3627.307	491.9
3630.092	527.9
3632.874	369.9
3635.654	487.9
3638.432	576.9
3641.208	391.9
3643.982	425.9
3646.753	382.9
3649.523	405.9
3652.29	419.9
3655.055	368.9
3657.818	276.9
3660.579	268.9
3663.338	458.9
3666.095	264.9
3668.849	429.9
3671.602	265.9
3674.352	380.9
3677.101	262.9
3679.847	137.9
3682.591	310.9
3685.333	258.9
3688.073	173.9
3690.811	274.9
3693.547	125.9
3696.281	250.9
3699.013	120.9
3701.742	174.9
3704.47	305.9
3707.195	163.9
3709.919	128.9
3712.64	121.9
3715.359	50.9
3718.076	-74.1
3720.792	98.9
3723.505	168.9
3726.216	81.9
3728.925	165.9
3731.632	-24.1
3734.336	186.9
3737.039	146.9
3739.74	137.9
3742.439	167.9
3745.136	89.9
3747.83	51.9
3750.523	91.9
3753.213	-218.1
3755.902	94.9
3758.589	191.9
3761.273	159.9
3763.956	-48.1
3766.636	116.9
3769.315	-95.1
3771.991	149.9
3774.665	9.9
3777.338	210.9
3780.008	103.9
3782.677	46.9
3785.343	144.9
3788.007	-30.1
3790.67	20.9
3793.33	-17.1
3795.989	63.9
3798.645	19.9
3801.299	174.9
3803.952	11.9
3806.602	4.9
3809.251	116.9
3811.897	10.9
3814.542	101.9
3817.184	78.9
3819.825	115.9
3822.463	-10.1
3825.1	47.9
3827.735	62.9
3830.367	25.9
3832.998	-89.1
3835.627	-7.1
3838.253	5.9
3840.878	-157.1
3843.501	-87.1
3846.122	-19.1
3848.741	-118.1
3851.358	7.9
3853.973	200.9
3856.586	38.9
3859.197	-30.1
3861.806	-89.1
3864.414	100.9
3867.019	39.9
3869.622	-28.1
3872.224	-72.1
3874.823	58.9
3877.421	14.9
3880.016	109.9
3882.61	217.9
3885.202	117.9
3887.792	104.9
3890.38	-41.1
3892.966	92.9
3895.55	-6.1
3898.132	58.9
3900.713	-21.1
3903.291	10.9
3905.868	19.9
3908.442	-36.1
3911.015	-18.1
3913.586	-22.1
3916.155	-40.1
3918.722	18.9
3921.287	-0.1
3923.85	-217.1
3926.411	-98.1
3928.971	-62.1
3931.528	-4.1
3934.084	-38.1
3936.638	-7.1
3939.19	-26.1
3941.74	-66.1
3944.288	-18.1
3946.834	-39.1
3949.378	-31.1
3951.921	94.9
3954.462	19.9
3957	16.9
3959.537	95.9
3962.072	108.9
3964.606	149.9
3967.137	-7.1
3969.667	-12.1
3972.194	38.9
3974.72	31.9
3977.244	79.9
3979.766	65.9
3982.286	55.9
3984.805	-23.1
3987.321	-58.1
3989.836	-8.1
3992.349	82.9
3994.86	41.9
3997.369	16.9
3999.877	-25.1
4002.382	-23.1
4004.886	11.9
4007.388	-18.1
4009.888	121.9
4012.386	-37.1
4014.883	6.9
4017.377	-12.1
4019.87	-94.1
4022.361	46.9
4024.85	106.9
4027.338	61.9
4029.823	-60.1
4032.307	-3.1
4034.789	84.9
4037.269	-13.1
4039.747	98.9
4042.224	-25.1
4044.699	26.9
4047.172	-24.1
4049.643	-63.1
4052.112	-16.1
4054.58	3.9
4057.046	19.9
4059.51	70.9
4061.972	-58.1
4064.432	143.9
4066.891	-118.1
4069.348	29.9
4071.803	-67.1
4074.256	-1.1
4076.708	81.9
4079.158	57.9
4081.606	-91.1
4084.052	36.9
4086.497	-23.1
4088.939	52.9
4091.38	71.9
4093.819	-67.1
4096.257	-1126.1
4098.693	-1134.1
4101.127	-1174.1
4103.559	-1220.1
4105.989	124.9
4108.418	171.9
4110.845	323.9
4113.27	230.9
4115.694	401.9
4118.115	401.9
4120.535	-71.1
4122.954	-64.1
4125.37	-109.1
4127.785	-15.1
4130.198	-53.1
4132.609	-50.1
4135.019	-1198.1
4137.427	-1211.1
4139.833	-1151.1
4142.237	-996.1
