Data from 2018-2-8_conc=2_RamanShift_10.txt Node
Date: Wed Feb 07 09:55:40 IST 2018
User: aro
Spectrometer: QEPB0276
Trigger mode: 0
Integration Time (sec): 3.000000E1
Scans to average: 1
Electric dark correction enabled: true
Nonlinearity correction enabled: false
Boxcar width: 0
XAxis mode: Raman Shifts
Number of Pixels in Spectrum: 1044
>>>>>Begin Spectral Data<<<<<
160.701	630.2
166.742	716.2
172.777	873.2
178.805	1511.2
184.826	2475.2
190.841	4224.2
196.849	6482.2
202.85	8127.2
208.845	8802.2
214.833	8626.2
220.815	8677.2
226.789	8681.2
232.758	8580.2
238.719	8671.2
244.674	8648.2
250.623	8489.2
256.565	8476.2
262.5	8324.2
268.429	8110.2
274.351	8162.2
280.267	8190.2
286.176	7939.2
292.079	7828.2
297.975	7733.2
303.865	7815.2
309.748	7810.2
315.625	7758.2
321.495	7455.2
327.359	7571.2
333.217	7669.2
339.068	7674.2
344.912	7697.2
350.751	7741.2
356.583	7722.2
362.408	7642.2
368.227	7651.2
374.04	7728.2
379.847	7744.2
385.647	7700.2
391.44	7977.2
397.228	7864.2
403.009	8006.2
408.784	7998.2
414.553	7991.2
420.315	8062.2
426.071	8170.2
431.821	8052.2
437.565	8102.2
443.302	7895.2
449.033	7985.2
454.758	7939.2
460.477	7850.2
466.189	7784.2
471.896	7775.2
477.596	7665.2
483.29	7734.2
488.978	7776.2
494.66	7727.2
500.335	7702.2
506.005	7606.2
511.668	7372.2
517.325	7258.2
522.977	7148.2
528.622	7095.2
534.261	6917.2
539.894	6969.2
545.521	6907.2
551.141	6907.2
556.756	6698.2
562.365	6724.2
567.968	6680.2
573.565	6553.2
579.155	6502.2
584.74	6517.2
590.319	6427.2
595.892	6463.2
601.459	6428.2
607.02	6430.2
612.575	6517.2
618.124	6319.2
623.667	6510.2
629.204	6423.2
634.735	6429.2
640.261	6369.2
645.781	6573.2
651.294	6372.2
656.802	6240.2
662.304	6244.2
667.8	6003.2
673.29	6164.2
678.775	6054.2
684.254	6127.2
689.726	6175.2
695.193	6015.2
700.655	6022.2
706.11	6152.2
711.56	5979.2
717.004	6031.2
722.442	5934.2
727.874	6001.2
733.301	6036.2
738.722	6211.2
744.137	6027.2
749.547	5950.2
754.951	5982.2
760.349	5886.2
765.741	5788.2
771.128	5838.2
776.509	5892.2
781.885	5838.2
787.254	5840.2
792.618	5937.2
797.977	6015.2
803.33	5987.2
808.677	6093.2
814.019	5964.2
819.355	5995.2
824.686	5979.2
830.011	6037.2
835.33	5798.2
840.644	5708.2
845.952	5856.2
851.255	5649.2
856.552	5668.2
861.844	5578.2
867.13	5544.2
872.41	5570.2
877.686	5455.2
882.955	5516.2
888.219	5530.2
893.478	5614.2
898.731	5481.2
903.979	5440.2
909.221	5591.2
914.458	5619.2
919.69	5403.2
924.916	5462.2
930.136	5364.2
935.351	5479.2
940.561	5188.2
945.766	5244.2
950.965	5071.2
956.158	5233.2
961.347	5254.2
966.529	5220.2
971.707	5175.2
976.879	5158.2
982.046	5187.2
987.208	5207.2
992.364	5118.2
997.515	5088.2
1002.66	5062.2
1007.801	5140.2
1012.936	5056.2
1018.066	5273.2
1023.19	4984.2
1028.309	4977.2
1033.423	5046.2
1038.532	5056.2
1043.636	5198.2
1048.734	5142.2
1053.827	5230.2
1058.915	5239.2
1063.998	5128.2
1069.075	5106.2
1074.147	4917.2
1079.214	5052.2
1084.276	4826.2
1089.333	4833.2
1094.385	4771.2
1099.431	4895.2
1104.472	4786.2
1109.509	4860.2
1114.54	4949.2
1119.565	4930.2
1124.586	4895.2
1129.602	4875.2
1134.613	4939.2
1139.618	4966.2
1144.619	4806.2
1149.614	4737.2
1154.604	4732.2
1159.589	4691.2
1164.57	4541.2
1169.545	4577.2
1174.515	4580.2
1179.48	4712.2
1184.44	4604.2
1189.395	4679.2
1194.345	4809.2
1199.29	4703.2
1204.23	4818.2
1209.165	4709.2
1214.095	4652.2
1219.021	4514.2
1223.941	4636.2
1228.856	4699.2
1233.766	4683.2
1238.672	4573.2
1243.572	4534.2
1248.467	4546.2
1253.358	4726.2
1258.244	4676.2
1263.124	4532.2
1268	4440.2
1272.871	4536.2
1277.737	4556.2
1282.599	4471.2
1287.455	4381.2
1292.306	4275.2
1297.153	4442.2
1301.995	4331.2
1306.832	4303.2
1311.664	4264.2
1316.491	4380.2
1321.314	4317.2
1326.132	4279.2
1330.945	4293.2
1335.753	4339.2
1340.556	4282.2
1345.354	4296.2
1350.148	4096.2
1354.937	4047.2
1359.722	4136.2
1364.501	4003.2
1369.276	3921.2
1374.046	3754.2
1378.811	3905.2
1383.572	3886.2
1388.327	3594.2
1393.079	3968.2
1397.825	3997.2
1402.567	3997.2
1407.304	3951.2
1412.036	3966.2
1416.764	3978.2
1421.487	4221.2
1426.205	3989.2
1430.919	3897.2
1435.628	3918.2
1440.333	3954.2
1445.032	3878.2
1449.727	3909.2
1454.418	3857.2
1459.104	3874.2
1463.785	3707.2
1468.462	3798.2
1473.134	3844.2
1477.802	3845.2
1482.465	3972.2
1487.123	3646.2
1491.777	3867.2
1496.426	3728.2
1501.071	3564.2
1505.711	3554.2
1510.347	3509.2
1514.978	3600.2
1519.604	3620.2
1524.226	3527.2
1528.844	3698.2
1533.457	3522.2
1538.065	3674.2
1542.669	3614.2
1547.269	3689.2
1551.864	3598.2
1556.454	3778.2
1561.041	3744.2
1565.622	3785.2
1570.199	3612.2
1574.772	3682.2
1579.34	3451.2
1583.904	3557.2
1588.464	3552.2
1593.019	3570.2
1597.569	3676.2
1602.115	3665.2
1606.657	3581.2
1611.195	3638.2
1615.728	3601.2
1620.256	3756.2
1624.78	3821.2
1629.3	3799.2
1633.816	3686.2
1638.327	3706.2
1642.834	3780.2
1647.336	3733.2
1651.834	3601.2
1656.328	3697.2
1660.817	3574.2
1665.302	3698.2
1669.783	3764.2
1674.259	3685.2
1678.732	3554.2
1683.199	3489.2
1687.663	3516.2
1692.122	3305.2
1696.577	3249.2
1701.028	3333.2
1705.474	3144.2
1709.917	3197.2
1714.355	3156.2
1718.788	3039.2
1723.218	3024.2
1727.643	2955.2
1732.064	2911.2
1736.481	3041.2
1740.893	2876.2
1745.301	2918.2
1749.705	3002.2
1754.105	2685.2
1758.501	2875.2
1762.893	2642.2
1767.28	2794.2
1771.663	2670.2
1776.042	2643.2
1780.417	2628.2
1784.787	2463.2
1789.154	2473.2
1793.516	2341.2
1797.874	2462.2
1802.228	2539.2
1806.578	2667.2
1810.924	2498.2
1815.266	3541.2
1819.603	2534.2
1823.937	2557.2
1828.266	2480.2
1832.591	2517.2
1836.913	2473.2
1841.23	2559.2
1845.543	2559.2
1849.852	2433.2
1854.156	2495.2
1858.457	2493.2
1862.754	2515.2
1867.047	2415.2
1871.335	2369.2
1875.62	2291.2
1879.9	2347.2
1884.177	2528.2
1888.449	2337.2
1892.718	2415.2
1896.982	2276.2
1901.243	2496.2
1905.499	2379.2
1909.752	2377.2
1914	2505.2
1918.245	2317.2
1922.485	2290.2
1926.722	2397.2
1930.954	2394.2
1935.183	2369.2
1939.408	2294.2
1943.628	2326.2
1947.845	2315.2
1952.058	2383.2
1956.267	2367.2
1960.472	2210.2
1964.673	2297.2
1968.87	2357.2
1973.063	2370.2
1977.252	2245.2
1981.438	2272.2
1985.619	2246.2
1989.797	2226.2
1993.971	2226.2
1998.14	2088.2
2002.306	2225.2
2006.469	2142.2
2010.627	2151.2
2014.781	2140.2
2018.932	2204.2
2023.078	1982.2
2027.221	2137.2
2031.36	2080.2
2035.495	2157.2
2039.627	2072.2
2043.754	2044.2
2047.878	1997.2
2051.998	2029.2
2056.114	2101.2
2060.226	2075.2
2064.334	2045.2
2068.439	1954.2
2072.54	2025.2
2076.637	2164.2
2080.73	2019.2
2084.82	1957.2
2088.906	2039.2
2092.988	1922.2
2097.066	2081.2
2101.14	1931.2
2105.211	1924.2
2109.278	1944.2
2113.342	1941.2
2117.401	2070.2
2121.457	2054.2
2125.509	2040.2
2129.558	1882.2
2133.602	2004.2
2137.643	1957.2
2141.681	1890.2
2145.714	1921.2
2149.744	1830.2
2153.77	1892.2
2157.793	1903.2
2161.812	1935.2
2165.827	1978.2
2169.838	1793.2
2173.846	1887.2
2177.851	1776.2
2181.851	1713.2
2185.848	1822.2
2189.841	1768.2
2193.831	1831.2
2197.817	1617.2
2201.799	1711.2
2205.778	1829.2
2209.753	1790.2
2213.725	1842.2
2217.693	1715.2
2221.657	1726.2
2225.618	1665.2
2229.575	1700.2
2233.529	1594.2
2237.479	1660.2
2241.425	1600.2
2245.368	1767.2
2249.307	1657.2
2253.243	1623.2
2257.175	1649.2
2261.104	1646.2
2265.029	1552.2
2268.95	1563.2
2272.868	1551.2
2276.783	1607.2
2280.694	1406.2
2284.601	1449.2
2288.505	1490.2
2292.405	1417.2
2296.302	1563.2
2300.195	1491.2
2304.085	1555.2
2307.971	1422.2
2311.854	1486.2
2315.734	1439.2
2319.609	1455.2
2323.482	1566.2
2327.351	1437.2
2331.216	1431.2
2335.078	1447.2
2338.937	1453.2
2342.792	1517.2
2346.643	1422.2
2350.492	1372.2
2354.336	1429.2
2358.178	1409.2
2362.015	1395.2
2365.85	1611.2
2369.681	1456.2
2373.508	1370.2
2377.333	1366.2
2381.153	1423.2
2384.971	1440.2
2388.785	1401.2
2392.595	1477.2
2396.402	1508.2
2400.206	1536.2
2404.007	1543.2
2407.804	1403.2
2411.597	1343.2
2415.388	1451.2
2419.174	1383.2
2422.958	1428.2
2426.738	1394.2
2430.515	1239.2
2434.289	1466.2
2438.059	1443.2
2441.825	1397.2
2445.589	1231.2
2449.349	1434.2
2453.106	1306.2
2456.859	1335.2
2460.61	1250.2
2464.356	1238.2
2468.1	1357.2
2471.84	1382.2
2475.577	1340.2
2479.311	1304.2
2483.041	1266.2
2486.768	1149.2
2490.492	1059.2
2494.213	1469.2
2497.93	1305.2
2501.644	1375.2
2505.355	1368.2
2509.062	1291.2
2512.766	1378.2
2516.467	1361.2
2520.165	1303.2
2523.859	1356.2
2527.551	1082.2
2531.239	1255.2
2534.923	1315.2
2538.605	1315.2
2542.283	1254.2
2545.958	1271.2
2549.63	1220.2
2553.299	1242.2
2556.964	1223.2
2560.626	1253.2
2564.285	1130.2
2567.941	1305.2
2571.594	1277.2
2575.243	1086.2
2578.89	1214.2
2582.533	1246.2
2586.173	1196.2
2589.809	1145.2
2593.443	1371.2
2597.073	1234.2
2600.701	1051.2
2604.325	1164.2
2607.946	1224.2
2611.564	1131.2
2615.178	1051.2
2618.79	1133.2
2622.398	1221.2
2626.004	1164.2
2629.606	1081.2
2633.205	1254.2
2636.801	1097.2
2640.394	1046.2
2643.983	1146.2
2647.57	1177.2
2651.153	1080.2
2654.734	986.2
2658.311	1283.2
2661.885	1139.2
2665.456	1075.2
2669.025	1070.2
2672.589	1075.2
2676.151	948.2
2679.71	975.2
2683.266	1035.2
2686.819	1025.2
2690.368	1057.2
2693.915	1060.2
2697.458	1160.2
2700.999	994.2
2704.536	1006.2
2708.071	1046.2
2711.602	1011.2
2715.13	1002.2
2718.656	1074.2
2722.178	963.2
2725.697	1046.2
2729.214	806.2
2732.727	941.2
2736.237	1081.2
2739.744	970.2
2743.249	1027.2
2746.75	989.2
2750.248	1078.2
2753.743	1007.2
2757.236	945.2
2760.725	953.2
2764.211	1211.2
2767.695	904.2
2771.175	937.2
2774.652	1019.2
2778.127	958.2
2781.598	971.2
2785.067	983.2
2788.532	966.2
2791.995	915.2
2795.455	988.2
2798.911	892.2
2802.365	1092.2
2805.816	947.2
2809.264	867.2
2812.709	998.2
2816.151	987.2
2819.59	1096.2
2823.026	1028.2
2826.46	1007.2
2829.89	1000.2
2833.318	1230.2
2836.742	1037.2
2840.164	986.2
2843.583	1037.2
2846.999	1045.2
2850.412	980.2
2853.822	1048.2
2857.229	905.2
2860.634	993.2
2864.035	1054.2
2867.434	958.2
2870.83	947.2
2874.223	1040.2
2877.613	913.2
2881	1072.2
2884.385	1124.2
2887.766	1019.2
2891.145	978.2
2894.521	1105.2
2897.894	1134.2
2901.264	808.2
2904.631	1121.2
2907.996	1054.2
2911.358	1070.2
2914.717	1073.2
2918.073	1070.2
2921.426	1048.2
2924.777	1163.2
2928.124	1172.2
2931.469	1021.2
2934.811	1239.2
2938.15	1062.2
2941.487	1151.2
2944.821	1026.2
2948.152	1219.2
2951.48	1177.2
2954.805	1079.2
2958.128	1019.2
2961.447	1191.2
2964.765	989.2
2968.079	1200.2
2971.39	1085.2
2974.699	1083.2
2978.005	1084.2
2981.308	1145.2
2984.609	1242.2
2987.907	1169.2
2991.202	1204.2
2994.494	1256.2
2997.784	833.2
3001.07	1110.2
3004.355	1161.2
3007.636	1159.2
3010.915	1252.2
3014.191	1230.2
3017.464	1206.2
3020.734	1181.2
3024.002	1277.2
3027.267	1276.2
3030.53	1258.2
3033.789	1276.2
3037.046	1397.2
3040.301	1331.2
3043.552	1355.2
3046.801	1414.2
3050.048	1234.2
3053.291	1149.2
3056.532	1380.2
3059.771	1459.2
3063.006	1373.2
3066.239	1366.2
3069.469	1395.2
3072.697	1609.2
3075.922	1528.2
3079.144	1515.2
3082.364	1466.2
3085.581	1685.2
3088.795	1454.2
3092.007	1551.2
3095.216	1709.2
3098.423	1827.2
3101.627	1836.2
3104.828	1847.2
3108.026	1877.2
3111.222	1792.2
3114.416	1717.2
3117.607	1930.2
3120.795	1920.2
3123.98	1951.2
3127.163	2108.2
3130.344	1955.2
3133.521	2015.2
3136.696	2062.2
3139.869	2072.2
3143.039	2111.2
3146.206	2016.2
3149.371	2075.2
3152.533	2156.2
3155.693	2190.2
3158.85	2223.2
3162.005	2192.2
3165.157	2257.2
3168.306	2203.2
3171.453	2179.2
3174.597	2369.2
3177.739	2390.2
3180.878	2282.2
3184.014	2274.2
3187.149	2279.2
3190.28	2277.2
3193.409	2206.2
3196.536	2205.2
3199.659	2229.2
3202.781	2189.2
3205.9	2359.2
3209.016	2288.2
3212.13	2235.2
3215.241	2174.2
3218.35	2220.2
3221.456	2435.2
3224.56	2358.2
3227.661	2402.2
3230.76	2450.2
3233.856	2374.2
3236.95	2288.2
3240.041	2405.2
3243.13	2249.2
3246.216	2283.2
3249.3	2156.2
3252.382	2192.2
3255.46	2267.2
3258.537	2694.2
3261.611	2335.2
3264.682	2109.2
3267.751	2248.2
3270.818	2251.2
3273.882	2069.2
3276.943	2129.2
3280.002	2029.2
3283.059	2069.2
3286.113	2118.2
3289.165	2150.2
3292.214	2122.2
3295.261	1967.2
3298.306	2091.2
3301.348	2065.2
3304.387	1990.2
3307.425	1933.2
3310.459	2027.2
3313.492	1834.2
3316.521	1961.2
3319.549	1907.2
3322.574	1850.2
3325.597	1832.2
3328.617	1857.2
3331.635	1777.2
3334.65	1909.2
3337.663	1862.2
3340.674	1894.2
3343.682	1738.2
3346.688	1772.2
3349.691	1790.2
3352.692	1899.2
3355.691	1636.2
3358.687	1759.2
3361.681	1794.2
3364.673	1717.2
3367.662	1650.2
3370.649	1650.2
3373.633	1755.2
3376.615	1616.2
3379.595	1845.2
3382.572	1646.2
3385.547	1683.2
3388.52	1799.2
3391.49	1728.2
3394.458	1730.2
3397.424	1563.2
3400.387	1748.2
3403.348	1410.2
3406.307	1523.2
3409.263	1632.2
3412.217	1499.2
3415.168	1510.2
3418.118	1550.2
3421.065	1529.2
3424.009	1411.2
3426.951	1519.2
3429.891	1339.2
3432.829	1502.2
3435.764	1507.2
3438.697	1516.2
3441.628	1300.2
3444.557	1432.2
3447.483	1470.2
3450.407	1321.2
3453.328	1316.2
3456.247	1378.2
3459.164	1376.2
3462.079	1230.2
3464.991	1246.2
3467.902	1306.2
3470.809	1264.2
3473.715	1188.2
3476.618	1209.2
3479.519	1165.2
3482.418	1330.2
3485.315	1155.2
3488.209	1107.2
3491.101	1088.2
3493.99	1039.2
3496.878	884.2
3499.763	984.2
3502.646	961.2
3505.527	1098.2
3508.405	1011.2
3511.281	961.2
3514.155	1001.2
3517.027	962.2
3519.897	1089.2
3522.764	923.2
3525.629	956.2
3528.492	937.2
3531.352	814.2
3534.211	846.2
3537.067	990.2
3539.921	908.2
3542.773	840.2
3545.622	834.2
3548.469	920.2
3551.315	871.2
3554.157	806.2
3556.998	750.2
3559.837	663.2
3562.673	613.2
3565.507	795.2
3568.339	703.2
3571.169	780.2
3573.996	714.2
3576.822	759.2
3579.645	754.2
3582.466	738.2
3585.285	659.2
3588.101	625.2
3590.916	692.2
3593.728	615.2
3596.538	689.2
3599.346	572.2
3602.152	683.2
3604.956	708.2
3607.757	520.2
3610.556	729.2
3613.354	584.2
3616.149	612.2
3618.942	618.2
3621.732	310.2
3624.521	610.2
3627.307	581.2
3630.092	584.2
3632.874	442.2
3635.654	582.2
3638.432	634.2
3641.208	530.2
3643.982	581.2
3646.753	508.2
3649.523	610.2
3652.29	592.2
3655.055	577.2
3657.818	448.2
3660.579	480.2
3663.338	677.2
3666.095	427.2
3668.849	734.2
3671.602	469.2
3674.352	625.2
3677.101	452.2
3679.847	355.2
3682.591	514.2
3685.333	561.2
3688.073	449.2
3690.811	569.2
3693.547	681.2
3696.281	494.2
3699.013	471.2
3701.742	440.2
3704.47	556.2
3707.195	427.2
3709.919	439.2
3712.64	514.2
3715.359	359.2
3718.076	194.2
3720.792	455.2
3723.505	454.2
3726.216	426.2
3728.925	513.2
3731.632	395.2
3734.336	573.2
3737.039	445.2
3739.74	482.2
3742.439	531.2
3745.136	455.2
3747.83	442.2
3750.523	478.2
3753.213	920.2
3755.902	425.2
3758.589	485.2
3761.273	512.2
3763.956	349.2
3766.636	515.2
3769.315	295.2
3771.991	534.2
3774.665	300.2
3777.338	582.2
3780.008	511.2
3782.677	447.2
3785.343	574.2
3788.007	533.2
3790.67	477.2
3793.33	370.2
3795.989	436.2
3798.645	395.2
3801.299	620.2
3803.952	451.2
3806.602	428.2
3809.251	497.2
3811.897	479.2
3814.542	485.2
3817.184	415.2
3819.825	491.2
3822.463	556.2
3825.1	433.2
3827.735	436.2
3830.367	477.2
3832.998	356.2
3835.627	351.2
3838.253	412.2
3840.878	482.2
3843.501	323.2
3846.122	363.2
3848.741	355.2
3851.358	415.2
3853.973	594.2
3856.586	438.2
3859.197	409.2
3861.806	429.2
3864.414	521.2
3867.019	443.2
3869.622	356.2
3872.224	284.2
3874.823	466.2
3877.421	563.2
3880.016	562.2
3882.61	629.2
3885.202	578.2
3887.792	627.2
3890.38	431.2
3892.966	550.2
3895.55	492.2
3898.132	453.2
3900.713	361.2
3903.291	436.2
3905.868	365.2
3908.442	439.2
3911.015	400.2
3913.586	417.2
3916.155	417.2
3918.722	523.2
3921.287	477.2
3923.85	503.2
3926.411	342.2
3928.971	314.2
3931.528	411.2
3934.084	466.2
3936.638	419.2
3939.19	359.2
3941.74	453.2
3944.288	394.2
3946.834	489.2
3949.378	448.2
3951.921	510.2
3954.462	467.2
3957	417.2
3959.537	500.2
3962.072	546.2
3964.606	567.2
3967.137	401.2
3969.667	366.2
3972.194	442.2
3974.72	452.2
3977.244	523.2
3979.766	445.2
3982.286	559.2
3984.805	365.2
3987.321	361.2
3989.836	376.2
3992.349	462.2
3994.86	419.2
3997.369	428.2
3999.877	409.2
4002.382	394.2
4004.886	413.2
4007.388	456.2
4009.888	563.2
4012.386	387.2
4014.883	377.2
4017.377	421.2
4019.87	296.2
4022.361	512.2
4024.85	468.2
4027.338	541.2
4029.823	440.2
4032.307	404.2
4034.789	492.2
4037.269	494.2
4039.747	503.2
4042.224	394.2
4044.699	415.2
4047.172	418.2
4049.643	442.2
4052.112	597.2
4054.58	435.2
4057.046	477.2
4059.51	484.2
4061.972	407.2
4064.432	582.2
4066.891	360.2
4069.348	475.2
4071.803	411.2
4074.256	399.2
4076.708	442.2
4079.158	411.2
4081.606	315.2
4084.052	457.2
4086.497	354.2
4088.939	473.2
4091.38	476.2
4093.819	394.2
4096.257	-899.8
4098.693	-922.8
4101.127	-974.8
4103.559	-975.8
4105.989	480.2
4108.418	540.2
4110.845	702.2
4113.27	555.2
4115.694	616.2
4118.115	641.2
4120.535	357.2
4122.954	337.2
4125.37	276.2
4127.785	389.2
4130.198	386.2
4132.609	353.2
4135.019	-1021.8
4137.427	-1003.8
4139.833	-940.8
4142.237	-764.8
