Data from 2018-2-8_conc=5_RamanShift_15.txt Node
Date: Wed Feb 07 11:08:10 IST 2018
User: aro
Spectrometer: QEPB0276
Trigger mode: 0
Integration Time (sec): 3.000000E1
Scans to average: 1
Electric dark correction enabled: true
Nonlinearity correction enabled: false
Boxcar width: 0
XAxis mode: Raman Shifts
Number of Pixels in Spectrum: 1044
>>>>>Begin Spectral Data<<<<<
160.701	642.8
166.742	717.8
172.777	1291.8
178.805	2892.8
184.826	6515.8
190.841	12713.8
196.849	20364.8
202.85	26030.8
208.845	28066.8
214.833	27834.8
220.815	27579.8
226.789	27087.8
232.758	27339.8
238.719	27266.8
244.674	27032.8
250.623	26589.8
256.565	26076.8
262.5	25751.8
268.429	25072.8
274.351	24817.8
280.267	24531.8
286.176	24100.8
292.079	23842.8
297.975	23575.8
303.865	23352.8
309.748	23156.8
315.625	23006.8
321.495	22567.8
327.359	22599.8
333.217	22701.8
339.068	22522.8
344.912	22609.8
350.751	22519.8
356.583	22332.8
362.408	22480.8
368.227	22475.8
374.04	22569.8
379.847	22709.8
385.647	22749.8
391.44	23050.8
397.228	23016.8
403.009	23243.8
408.784	23179.8
414.553	23418.8
420.315	23508.8
426.071	23612.8
431.821	23556.8
437.565	23493.8
443.302	23276.8
449.033	23247.8
454.758	23224.8
460.477	22987.8
466.189	22889.8
471.896	22793.8
477.596	22631.8
483.29	22827.8
488.978	22723.8
494.66	22726.8
500.335	22664.8
506.005	22642.8
511.668	22294.8
517.325	22256.8
522.977	22048.8
528.622	21996.8
534.261	21930.8
539.894	21696.8
545.521	21716.8
551.141	21665.8
556.756	21471.8
562.365	21225.8
567.968	21124.8
573.565	20968.8
579.155	20786.8
584.74	20765.8
590.319	20577.8
595.892	20569.8
601.459	20407.8
607.02	20547.8
612.575	20536.8
618.124	20383.8
623.667	20544.8
629.204	20473.8
634.735	20527.8
640.261	20380.8
645.781	20458.8
651.294	20255.8
656.802	19994.8
662.304	19850.8
667.8	19589.8
673.29	19684.8
678.775	19533.8
684.254	19496.8
689.726	19531.8
695.193	19421.8
700.655	19425.8
706.11	19648.8
711.56	19474.8
717.004	19528.8
722.442	19735.8
727.874	19550.8
733.301	19407.8
738.722	19494.8
744.137	19313.8
749.547	19192.8
754.951	19133.8
760.349	18987.8
765.741	18826.8
771.128	18786.8
776.509	18789.8
781.885	18778.8
787.254	18782.8
792.618	18821.8
797.977	18928.8
803.33	18944.8
808.677	19122.8
814.019	18981.8
819.355	19073.8
824.686	19035.8
830.011	19031.8
835.33	18685.8
840.644	18504.8
845.952	18650.8
851.255	18309.8
856.552	18241.8
861.844	18128.8
867.13	17985.8
872.41	18034.8
877.686	17919.8
882.955	17982.8
888.219	18136.8
893.478	18172.8
898.731	18016.8
903.979	17959.8
909.221	18100.8
914.458	17884.8
919.69	17726.8
924.916	17579.8
930.136	17358.8
935.351	17233.8
940.561	17026.8
945.766	16972.8
950.965	16703.8
956.158	16867.8
961.347	16979.8
966.529	16888.8
971.707	16891.8
976.879	16886.8
982.046	16923.8
987.208	17001.8
992.364	16799.8
997.515	16783.8
1002.66	16626.8
1007.801	16753.8
1012.936	16638.8
1018.066	16654.8
1023.19	16446.8
1028.309	16414.8
1033.423	16500.8
1038.532	16571.8
1043.636	16821.8
1048.734	16812.8
1053.827	16834.8
1058.915	16926.8
1063.998	16677.8
1069.075	16459.8
1074.147	16243.8
1079.214	16342.8
1084.276	15909.8
1089.333	16001.8
1094.385	15807.8
1099.431	16000.8
1104.472	15814.8
1109.509	15944.8
1114.54	16073.8
1119.565	16176.8
1124.586	16130.8
1129.602	16152.8
1134.613	16081.8
1139.618	15952.8
1144.619	15706.8
1149.614	15547.8
1154.604	15428.8
1159.589	15264.8
1164.57	15036.8
1169.545	15066.8
1174.515	15104.8
1179.48	15224.8
1184.44	15274.8
1189.395	15490.8
1194.345	15580.8
1199.29	15539.8
1204.23	15726.8
1209.165	15548.8
1214.095	15320.8
1219.021	15257.8
1223.941	15279.8
1228.856	15319.8
1233.766	15245.8
1238.672	15148.8
1243.572	15092.8
1248.467	15131.8
1253.358	15223.8
1258.244	15309.8
1263.124	15152.8
1268	15020.8
1272.871	14975.8
1277.737	14968.8
1282.599	14755.8
1287.455	14605.8
1292.306	14346.8
1297.153	14373.8
1301.995	14112.8
1306.832	14048.8
1311.664	14058.8
1316.491	14233.8
1321.314	14090.8
1326.132	14110.8
1330.945	14002.8
1335.753	13887.8
1340.556	13756.8
1345.354	13557.8
1350.148	13208.8
1354.937	13054.8
1359.722	12962.8
1364.501	12834.8
1369.276	12611.8
1374.046	12791.8
1378.811	12982.8
1383.572	13055.8
1388.327	12838.8
1393.079	13319.8
1397.825	13367.8
1402.567	13279.8
1407.304	13207.8
1412.036	13285.8
1416.764	13071.8
1421.487	13310.8
1426.205	13022.8
1430.919	12792.8
1435.628	12621.8
1440.333	12542.8
1445.032	12442.8
1449.727	12281.8
1454.418	12314.8
1459.104	12294.8
1463.785	12160.8
1468.462	12159.8
1473.134	12122.8
1477.802	11929.8
1482.465	12041.8
1487.123	11612.8
1491.777	11753.8
1496.426	11759.8
1501.071	11465.8
1505.711	11544.8
1510.347	11594.8
1514.978	11727.8
1519.604	11848.8
1524.226	11991.8
1528.844	12353.8
1533.457	12138.8
1538.065	12385.8
1542.669	12291.8
1547.269	12468.8
1551.864	12343.8
1556.454	12545.8
1561.041	12398.8
1565.622	12382.8
1570.199	12087.8
1574.772	12003.8
1579.34	11853.8
1583.904	11961.8
1588.464	11887.8
1593.019	11927.8
1597.569	12016.8
1602.115	12088.8
1606.657	12132.8
1611.195	12138.8
1615.728	12164.8
1620.256	12289.8
1624.78	12269.8
1629.3	12278.8
1633.816	12091.8
1638.327	12025.8
1642.834	11947.8
1647.336	11999.8
1651.834	11795.8
1656.328	11986.8
1660.817	11714.8
1665.302	11860.8
1669.783	11807.8
1674.259	11650.8
1678.732	11358.8
1683.199	11090.8
1687.663	10984.8
1692.122	10447.8
1696.577	10218.8
1701.028	10220.8
1705.474	10186.8
1709.917	10192.8
1714.355	10260.8
1718.788	10089.8
1723.218	9976.8
1727.643	9757.8
1732.064	9518.8
1736.481	9587.8
1740.893	9290.8
1745.301	9180.8
1749.705	9272.8
1754.105	8793.8
1758.501	8799.8
1762.893	8439.8
1767.28	8355.8
1771.663	8122.8
1776.042	7943.8
1780.417	7859.8
1784.787	7610.8
1789.154	7619.8
1793.516	7752.8
1797.874	7889.8
1802.228	8076.8
1806.578	8227.8
1810.924	8133.8
1815.266	8307.8
1819.603	8238.8
1823.937	8233.8
1828.266	8076.8
1832.591	7988.8
1836.913	7922.8
1841.23	7935.8
1845.543	7889.8
1849.852	7648.8
1854.156	7710.8
1858.457	7615.8
1862.754	7369.8
1867.047	7534.8
1871.335	7319.8
1875.62	7307.8
1879.9	7269.8
1884.177	7452.8
1888.449	7290.8
1892.718	7319.8
1896.982	7163.8
1901.243	7484.8
1905.499	7342.8
1909.752	7209.8
1914	7345.8
1918.245	7199.8
1922.485	7217.8
1926.722	7252.8
1930.954	7314.8
1935.183	7326.8
1939.408	7279.8
1943.628	7374.8
1947.845	7428.8
1952.058	7471.8
1956.267	7430.8
1960.472	7352.8
1964.673	7380.8
1968.87	7434.8
1973.063	7355.8
1977.252	7260.8
1981.438	7130.8
1985.619	7023.8
1989.797	6914.8
1993.971	6862.8
1998.14	6649.8
2002.306	6674.8
2006.469	6703.8
2010.627	6623.8
2014.781	6562.8
2018.932	6685.8
2023.078	6401.8
2027.221	6386.8
2031.36	6386.8
2035.495	6496.8
2039.627	6389.8
2043.754	6313.8
2047.878	6235.8
2051.998	6231.8
2056.114	6273.8
2060.226	6259.8
2064.334	6111.8
2068.439	6049.8
2072.54	6035.8
2076.637	6232.8
2080.73	6146.8
2084.82	6061.8
2088.906	6150.8
2092.988	6071.8
2097.066	6300.8
2101.14	6158.8
2105.211	6218.8
2109.278	6262.8
2113.342	6248.8
2117.401	6319.8
2121.457	6261.8
2125.509	6253.8
2129.558	5976.8
2133.602	6031.8
2137.643	6028.8
2141.681	5902.8
2145.714	5860.8
2149.744	5794.8
2153.77	5886.8
2157.793	5792.8
2161.812	5857.8
2165.827	5767.8
2169.838	5478.8
2173.846	5635.8
2177.851	5573.8
2181.851	5466.8
2185.848	5649.8
2189.841	5386.8
2193.831	5481.8
2197.817	5173.8
2201.799	5208.8
2205.778	5327.8
2209.753	5283.8
2213.725	5178.8
2217.693	5133.8
2221.657	5152.8
2225.618	5048.8
2229.575	5082.8
2233.529	4932.8
2237.479	5016.8
2241.425	4972.8
2245.368	5145.8
2249.307	4971.8
2253.243	4997.8
2257.175	4936.8
2261.104	4878.8
2265.029	4731.8
2268.95	4782.8
2272.868	4621.8
2276.783	4727.8
2280.694	4465.8
2284.601	4466.8
2288.505	4445.8
2292.405	4321.8
2296.302	4414.8
2300.195	4274.8
2304.085	4405.8
2307.971	4240.8
2311.854	4273.8
2315.734	4174.8
2319.609	4200.8
2323.482	4359.8
2327.351	4186.8
2331.216	4152.8
2335.078	4162.8
2338.937	4129.8
2342.792	4090.8
2346.643	4018.8
2350.492	4039.8
2354.336	4040.8
2358.178	3973.8
2362.015	3985.8
2365.85	4070.8
2369.681	4097.8
2373.508	3986.8
2377.333	3954.8
2381.153	4069.8
2384.971	4059.8
2388.785	4028.8
2392.595	4089.8
2396.402	4067.8
2400.206	4188.8
2404.007	4149.8
2407.804	4054.8
2411.597	3928.8
2415.388	4002.8
2419.174	3919.8
2422.958	3873.8
2426.738	3850.8
2430.515	3737.8
2434.289	3812.8
2438.059	3851.8
2441.825	3856.8
2445.589	3595.8
2449.349	3793.8
2453.106	3674.8
2456.859	3672.8
2460.61	3568.8
2464.356	3618.8
2468.1	3577.8
2471.84	3634.8
2475.577	3635.8
2479.311	3515.8
2483.041	3468.8
2486.768	3334.8
2490.492	3164.8
2494.213	3526.8
2497.93	3484.8
2501.644	3448.8
2505.355	3485.8
2509.062	3336.8
2512.766	3429.8
2516.467	3362.8
2520.165	3337.8
2523.859	3504.8
2527.551	3188.8
2531.239	3405.8
2534.923	3344.8
2538.605	3435.8
2542.283	3263.8
2545.958	3344.8
2549.63	3264.8
2553.299	3223.8
2556.964	3091.8
2560.626	3319.8
2564.285	3184.8
2567.941	3265.8
2571.594	3263.8
2575.243	3105.8
2578.89	3296.8
2582.533	3222.8
2586.173	3254.8
2589.809	3108.8
2593.443	3412.8
2597.073	3275.8
2600.701	3055.8
2604.325	3068.8
2607.946	3109.8
2611.564	3062.8
2615.178	2915.8
2618.79	3020.8
2622.398	3097.8
2626.004	3094.8
2629.606	2919.8
2633.205	3155.8
2636.801	2952.8
2640.394	2919.8
2643.983	2950.8
2647.57	2937.8
2651.153	2817.8
2654.734	2718.8
2658.311	2972.8
2661.885	2841.8
2665.456	2854.8
2669.025	2708.8
2672.589	2702.8
2676.151	2545.8
2679.71	2485.8
2683.266	2703.8
2686.819	2574.8
2690.368	2536.8
2693.915	2406.8
2697.458	2595.8
2700.999	2432.8
2704.536	2380.8
2708.071	2439.8
2711.602	2359.8
2715.13	2379.8
2718.656	2364.8
2722.178	2229.8
2725.697	2363.8
2729.214	2019.8
2732.727	2152.8
2736.237	2101.8
2739.744	2149.8
2743.249	2283.8
2746.75	2266.8
2750.248	2366.8
2753.743	2237.8
2757.236	2295.8
2760.725	2295.8
2764.211	2489.8
2767.695	2301.8
2771.175	2320.8
2774.652	2319.8
2778.127	2338.8
2781.598	2266.8
2785.067	2342.8
2788.532	2298.8
2791.995	2294.8
2795.455	2275.8
2798.911	2268.8
2802.365	2376.8
2805.816	2254.8
2809.264	2237.8
2812.709	2323.8
2816.151	2236.8
2819.59	2388.8
2823.026	2391.8
2826.46	2416.8
2829.89	2376.8
2833.318	2555.8
2836.742	2368.8
2840.164	2370.8
2843.583	2408.8
2846.999	2461.8
2850.412	2336.8
2853.822	2714.8
2857.229	2308.8
2860.634	2440.8
2864.035	2510.8
2867.434	2357.8
2870.83	2388.8
2874.223	2499.8
2877.613	2425.8
2881	2668.8
2884.385	2746.8
2887.766	2654.8
2891.145	2582.8
2894.521	2738.8
2897.894	2788.8
2901.264	2445.8
2904.631	2718.8
2907.996	2642.8
2911.358	2668.8
2914.717	2598.8
2918.073	2659.8
2921.426	2603.8
2924.777	2781.8
2928.124	2804.8
2931.469	2618.8
2934.811	2917.8
2938.15	2739.8
2941.487	2813.8
2944.821	2516.8
2948.152	2930.8
2951.48	2840.8
2954.805	2807.8
2958.128	2696.8
2961.447	2860.8
2964.765	2707.8
2968.079	2906.8
2971.39	2801.8
2974.699	2892.8
2978.005	2835.8
2981.308	2873.8
2984.609	3066.8
2987.907	2890.8
2991.202	2983.8
2994.494	3059.8
2997.784	2707.8
3001.07	2983.8
3004.355	3108.8
3007.636	3120.8
3010.915	3133.8
3014.191	3210.8
3017.464	3284.8
3020.734	3193.8
3024.002	3376.8
3027.267	3422.8
3030.53	3448.8
3033.789	3444.8
3037.046	3536.8
3040.301	3531.8
3043.552	3616.8
3046.801	3675.8
3050.048	3559.8
3053.291	3516.8
3056.532	3719.8
3059.771	3859.8
3063.006	3927.8
3066.239	3978.8
3069.469	4097.8
3072.697	4301.8
3075.922	4387.8
3079.144	4421.8
3082.364	4480.8
3085.581	4717.8
3088.795	4534.8
3092.007	4770.8
3095.216	4994.8
3098.423	5243.8
3101.627	5382.8
3104.828	5376.8
3108.026	5500.8
3111.222	5525.8
3114.416	5536.8
3117.607	5680.8
3120.795	5890.8
3123.98	5986.8
3127.163	6180.8
3130.344	6175.8
3133.521	6280.8
3136.696	6350.8
3139.869	6423.8
3143.039	6613.8
3146.206	6562.8
3149.371	6755.8
3152.533	6909.8
3155.693	7066.8
3158.85	7159.8
3162.005	7133.8
3165.157	7291.8
3168.306	7274.8
3171.453	7121.8
3174.597	7462.8
3177.739	7496.8
3180.878	7345.8
3184.014	7304.8
3187.149	7349.8
3190.28	7325.8
3193.409	7290.8
3196.536	7251.8
3199.659	7250.8
3202.781	7261.8
3205.9	7453.8
3209.016	7261.8
3212.13	7321.8
3215.241	7238.8
3218.35	7314.8
3221.456	7308.8
3224.56	7487.8
3227.661	7426.8
3230.76	7521.8
3233.856	7434.8
3236.95	7313.8
3240.041	7441.8
3243.13	7153.8
3246.216	7206.8
3249.3	7109.8
3252.382	7097.8
3255.46	7142.8
3258.537	6452.8
3261.611	7125.8
3264.682	6891.8
3267.751	6910.8
3270.818	7021.8
3273.882	6779.8
3276.943	6678.8
3280.002	6618.8
3283.059	6682.8
3286.113	6676.8
3289.165	6729.8
3292.214	6616.8
3295.261	6407.8
3298.306	6517.8
3301.348	6348.8
3304.387	6309.8
3307.425	6217.8
3310.459	6194.8
3313.492	6064.8
3316.521	5940.8
3319.549	5814.8
3322.574	5839.8
3325.597	5696.8
3328.617	5672.8
3331.635	5571.8
3334.65	5631.8
3337.663	5521.8
3340.674	5576.8
3343.682	5390.8
3346.688	5462.8
3349.691	5446.8
3352.692	5554.8
3355.691	5285.8
3358.687	5317.8
3361.681	5284.8
3364.673	5356.8
3367.662	5239.8
3370.649	5106.8
3373.633	5304.8
3376.615	5126.8
3379.595	5295.8
3382.572	5082.8
3385.547	5032.8
3388.52	5113.8
3391.49	5034.8
3394.458	4960.8
3397.424	4806.8
3400.387	4855.8
3403.348	4552.8
3406.307	4655.8
3409.263	4633.8
3412.217	4395.8
3415.168	4401.8
3418.118	4401.8
3421.065	4345.8
3424.009	4173.8
3426.951	4319.8
3429.891	4270.8
3432.829	4160.8
3435.764	4166.8
3438.697	4092.8
3441.628	3804.8
3444.557	3897.8
3447.483	3993.8
3450.407	3681.8
3453.328	3594.8
3456.247	3716.8
3459.164	3643.8
3462.079	3438.8
3464.991	3387.8
3467.902	3301.8
3470.809	3296.8
3473.715	3140.8
3476.618	2984.8
3479.519	2996.8
3482.418	3130.8
3485.315	2907.8
3488.209	2776.8
3491.101	2596.8
3493.99	2646.8
3496.878	2374.8
3499.763	2460.8
3502.646	2350.8
3505.527	2528.8
3508.405	2380.8
3511.281	2282.8
3514.155	2268.8
3517.027	2261.8
3519.897	2330.8
3522.764	2008.8
3525.629	2120.8
3528.492	1988.8
3531.352	1857.8
3534.211	1854.8
3537.067	1968.8
3539.921	1772.8
3542.773	1672.8
3545.622	1653.8
3548.469	1651.8
3551.315	1625.8
3554.157	1501.8
3556.998	1401.8
3559.837	1301.8
3562.673	1213.8
3565.507	1295.8
3568.339	1178.8
3571.169	1256.8
3573.996	1200.8
3576.822	1246.8
3579.645	1150.8
3582.466	1099.8
3585.285	1005.8
3588.101	1017.8
3590.916	1107.8
3593.728	921.8
3596.538	1038.8
3599.346	885.8
3602.152	999.8
3604.956	936.8
3607.757	745.8
3610.556	915.8
3613.354	797.8
3616.149	737.8
3618.942	698.8
3621.732	489.8
3624.521	747.8
3627.307	670.8
3630.092	642.8
3632.874	525.8
3635.654	626.8
3638.432	731.8
3641.208	573.8
3643.982	578.8
3646.753	508.8
3649.523	604.8
3652.29	520.8
3655.055	559.8
3657.818	396.8
3660.579	371.8
3663.338	617.8
3666.095	414.8
3668.849	556.8
3671.602	394.8
3674.352	545.8
3677.101	360.8
3679.847	281.8
3682.591	426.8
3685.333	444.8
3688.073	296.8
3690.811	417.8
3693.547	284.8
3696.281	343.8
3699.013	241.8
3701.742	257.8
3704.47	499.8
3707.195	306.8
3709.919	288.8
3712.64	314.8
3715.359	157.8
3718.076	73.8
3720.792	344.8
3723.505	278.8
3726.216	250.8
3728.925	312.8
3731.632	97.8
3734.336	328.8
3737.039	233.8
3739.74	245.8
3742.439	330.8
3745.136	220.8
3747.83	149.8
3750.523	197.8
3753.213	512.8
3755.902	201.8
3758.589	342.8
3761.273	265.8
3763.956	115.8
3766.636	241.8
3769.315	-60.2
3771.991	285.8
3774.665	170.8
3777.338	301.8
3780.008	203.8
3782.677	29.8
3785.343	317.8
3788.007	519.8
3790.67	136.8
3793.33	116.8
3795.989	217.8
3798.645	146.8
3801.299	298.8
3803.952	141.8
3806.602	163.8
3809.251	205.8
3811.897	158.8
3814.542	222.8
3817.184	258.8
3819.825	222.8
3822.463	-118.2
3825.1	164.8
3827.735	161.8
3830.367	120.8
3832.998	38.8
3835.627	79.8
3838.253	111.8
3840.878	11.8
3843.501	-20.2
3846.122	65.8
3848.741	3.8
3851.358	145.8
3853.973	307.8
3856.586	151.8
3859.197	115.8
3861.806	117.8
3864.414	222.8
3867.019	193.8
3869.622	65.8
3872.224	-55.2
3874.823	166.8
3877.421	169.8
3880.016	276.8
3882.61	312.8
3885.202	265.8
3887.792	270.8
3890.38	64.8
3892.966	203.8
3895.55	126.8
3898.132	136.8
3900.713	68.8
3903.291	151.8
3905.868	203.8
3908.442	91.8
3911.015	65.8
3913.586	74.8
3916.155	70.8
3918.722	184.8
3921.287	109.8
3923.85	-105.2
3926.411	81.8
3928.971	86.8
3931.528	87.8
3934.084	81.8
3936.638	156.8
3939.19	69.8
3941.74	130.8
3944.288	9.8
3946.834	120.8
3949.378	74.8
3951.921	228.8
3954.462	121.8
3957	48.8
3959.537	125.8
3962.072	250.8
3964.606	226.8
3967.137	-17.2
3969.667	133.8
3972.194	142.8
3974.72	167.8
3977.244	215.8
3979.766	40.8
3982.286	258.8
3984.805	45.8
3987.321	16.8
3989.836	42.8
3992.349	209.8
3994.86	119.8
3997.369	115.8
3999.877	99.8
4002.382	114.8
4004.886	203.8
4007.388	145.8
4009.888	263.8
4012.386	78.8
4014.883	112.8
4017.377	93.8
4019.87	-9.2
4022.361	218.8
4024.85	253.8
4027.338	107.8
4029.823	64.8
4032.307	92.8
4034.789	153.8
4037.269	141.8
4039.747	184.8
4042.224	96.8
4044.699	164.8
4047.172	182.8
4049.643	57.8
4052.112	160.8
4054.58	197.8
4057.046	92.8
4059.51	209.8
4061.972	75.8
4064.432	243.8
4066.891	22.8
4069.348	163.8
4071.803	4.8
4074.256	104.8
4076.708	115.8
4079.158	198.8
4081.606	2.8
4084.052	166.8
4086.497	41.8
4088.939	204.8
4091.38	162.8
4093.819	63.8
4096.257	-1386.2
4098.693	-1372.2
4101.127	-1421.2
4103.559	-1461.2
4105.989	301.8
4108.418	342.8
4110.845	531.8
4113.27	356.8
4115.694	498.8
4118.115	515.8
4120.535	34.8
4122.954	-7.2
4125.37	-48.2
4127.785	50.8
4130.198	60.8
4132.609	33.8
4135.019	-1489.2
4137.427	-1468.2
4139.833	-1401.2
4142.237	-1186.2
