Data from 2018-2-8_conc=3_RamanShift_01.txt Node
Date: Wed Feb 07 10:08:40 IST 2018
User: aro
Spectrometer: QEPB0276
Trigger mode: 0
Integration Time (sec): 3.000000E1
Scans to average: 1
Electric dark correction enabled: true
Nonlinearity correction enabled: false
Boxcar width: 0
XAxis mode: Raman Shifts
Number of Pixels in Spectrum: 1044
>>>>>Begin Spectral Data<<<<<
160.701	417.6
166.742	502.6
172.777	1056.6
178.805	2639.6
184.826	6170.6
190.841	12311.6
196.849	19678.6
202.85	25122.6
208.845	27117.6
214.833	26741.6
220.815	26403.6
226.789	24939.6
232.758	26040.6
238.719	25813.6
244.674	25589.6
250.623	25021.6
256.565	24676.6
262.5	24099.6
268.429	23421.6
274.351	23231.6
280.267	22994.6
286.176	22339.6
292.079	22099.6
297.975	21852.6
303.865	21606.6
309.748	21360.6
315.625	21231.6
321.495	20709.6
327.359	20785.6
333.217	20746.6
339.068	20795.6
344.912	20733.6
350.751	20634.6
356.583	20696.6
362.408	20632.6
368.227	20570.6
374.04	20680.6
379.847	20789.6
385.647	20888.6
391.44	21130.6
397.228	21200.6
403.009	21347.6
408.784	21532.6
414.553	21530.6
420.315	21654.6
426.071	21624.6
431.821	21619.6
437.565	21558.6
443.302	21417.6
449.033	21415.6
454.758	21322.6
460.477	21159.6
466.189	21030.6
471.896	20956.6
477.596	20798.6
483.29	20798.6
488.978	20798.6
494.66	20792.6
500.335	20825.6
506.005	20714.6
511.668	20399.6
517.325	20321.6
522.977	20061.6
528.622	20050.6
534.261	19835.6
539.894	19815.6
545.521	19731.6
551.141	19643.6
556.756	19324.6
562.365	19303.6
567.968	19154.6
573.565	19101.6
579.155	18840.6
584.74	18812.6
590.319	18710.6
595.892	18656.6
601.459	18600.6
607.02	18631.6
612.575	18579.6
618.124	18467.6
623.667	18620.6
629.204	18501.6
634.735	18566.6
640.261	18445.6
645.781	18510.6
651.294	18278.6
656.802	18108.6
662.304	17977.6
667.8	17762.6
673.29	17779.6
678.775	17607.6
684.254	17702.6
689.726	17728.6
695.193	17424.6
700.655	17506.6
706.11	17653.6
711.56	17643.6
717.004	17576.6
722.442	17532.6
727.874	17556.6
733.301	17564.6
738.722	17598.6
744.137	17379.6
749.547	17240.6
754.951	17301.6
760.349	17092.6
765.741	16996.6
771.128	16963.6
776.509	16940.6
781.885	16889.6
787.254	16878.6
792.618	16924.6
797.977	17016.6
803.33	17047.6
808.677	17195.6
814.019	17154.6
819.355	17093.6
824.686	17135.6
830.011	17060.6
835.33	16828.6
840.644	16690.6
845.952	16662.6
851.255	16448.6
856.552	16374.6
861.844	16236.6
867.13	16094.6
872.41	16099.6
877.686	15998.6
882.955	16106.6
888.219	16207.6
893.478	16316.6
898.731	16049.6
903.979	16000.6
909.221	16115.6
914.458	16091.6
919.69	15741.6
924.916	15712.6
930.136	15482.6
935.351	15545.6
940.561	15169.6
945.766	15043.6
950.965	14910.6
956.158	15015.6
961.347	15033.6
966.529	15136.6
971.707	15130.6
976.879	15063.6
982.046	15139.6
987.208	15149.6
992.364	14917.6
997.515	14972.6
1002.66	14860.6
1007.801	14871.6
1012.936	14755.6
1018.066	14838.6
1023.19	14669.6
1028.309	14665.6
1033.423	14695.6
1038.532	14771.6
1043.636	14975.6
1048.734	14988.6
1053.827	15001.6
1058.915	15101.6
1063.998	14897.6
1069.075	14705.6
1074.147	14467.6
1079.214	14486.6
1084.276	14202.6
1089.333	14119.6
1094.385	14075.6
1099.431	14161.6
1104.472	14083.6
1109.509	14237.6
1114.54	14294.6
1119.565	14344.6
1124.586	14290.6
1129.602	14274.6
1134.613	14273.6
1139.618	14115.6
1144.619	13876.6
1149.614	13806.6
1154.604	13653.6
1159.589	13589.6
1164.57	13333.6
1169.545	13415.6
1174.515	13460.6
1179.48	13501.6
1184.44	13572.6
1189.395	13697.6
1194.345	13828.6
1199.29	13888.6
1204.23	13906.6
1209.165	13848.6
1214.095	13712.6
1219.021	13617.6
1223.941	13574.6
1228.856	13575.6
1233.766	13499.6
1238.672	13498.6
1243.572	13417.6
1248.467	13496.6
1253.358	13521.6
1258.244	13639.6
1263.124	13488.6
1268	13352.6
1272.871	13316.6
1277.737	13315.6
1282.599	13084.6
1287.455	12906.6
1292.306	12784.6
1297.153	12747.6
1301.995	12630.6
1306.832	12562.6
1311.664	12590.6
1316.491	12616.6
1321.314	12570.6
1326.132	12573.6
1330.945	12531.6
1335.753	12344.6
1340.556	12301.6
1345.354	12086.6
1350.148	11820.6
1354.937	11647.6
1359.722	11702.6
1364.501	11450.6
1369.276	11284.6
1374.046	11337.6
1378.811	11478.6
1383.572	11591.6
1388.327	11344.6
1393.079	11822.6
1397.825	11800.6
1402.567	11717.6
1407.304	11737.6
1412.036	11812.6
1416.764	11732.6
1421.487	11805.6
1426.205	11461.6
1430.919	11347.6
1435.628	11182.6
1440.333	11140.6
1445.032	10951.6
1449.727	11074.6
1454.418	10991.6
1459.104	10985.6
1463.785	10821.6
1468.462	10799.6
1473.134	10824.6
1477.802	10650.6
1482.465	10757.6
1487.123	10398.6
1491.777	10479.6
1496.426	10371.6
1501.071	10271.6
1505.711	10328.6
1510.347	10273.6
1514.978	10430.6
1519.604	10514.6
1524.226	10560.6
1528.844	10866.6
1533.457	10723.6
1538.065	10900.6
1542.669	10948.6
1547.269	11006.6
1551.864	10950.6
1556.454	11143.6
1561.041	10977.6
1565.622	10964.6
1570.199	10764.6
1574.772	10735.6
1579.34	10470.6
1583.904	10636.6
1588.464	10638.6
1593.019	10605.6
1597.569	10768.6
1602.115	10769.6
1606.657	10811.6
1611.195	10911.6
1615.728	10968.6
1620.256	11089.6
1624.78	11055.6
1629.3	11104.6
1633.816	10890.6
1638.327	10864.6
1642.834	10803.6
1647.336	10835.6
1651.834	10664.6
1656.328	10739.6
1660.817	10651.6
1665.302	10694.6
1669.783	10611.6
1674.259	10371.6
1678.732	10221.6
1683.199	9950.6
1687.663	9818.6
1692.122	9457.6
1696.577	9225.6
1701.028	9162.6
1705.474	9088.6
1709.917	9141.6
1714.355	9018.6
1718.788	8941.6
1723.218	8817.6
1727.643	8611.6
1732.064	8456.6
1736.481	8457.6
1740.893	8209.6
1745.301	8062.6
1749.705	8112.6
1754.105	7691.6
1758.501	7692.6
1762.893	7351.6
1767.28	7294.6
1771.663	7071.6
1776.042	6969.6
1780.417	6881.6
1784.787	6676.6
1789.154	6700.6
1793.516	6691.6
1797.874	6880.6
1802.228	6952.6
1806.578	7236.6
1810.924	7099.6
1815.266	7039.6
1819.603	7179.6
1823.937	7207.6
1828.266	7010.6
1832.591	7023.6
1836.913	6858.6
1841.23	6890.6
1845.543	6816.6
1849.852	6759.6
1854.156	6698.6
1858.457	6619.6
1862.754	6434.6
1867.047	6566.6
1871.335	6426.6
1875.62	6291.6
1879.9	6412.6
1884.177	6458.6
1888.449	6356.6
1892.718	6393.6
1896.982	6262.6
1901.243	6439.6
1905.499	6365.6
1909.752	6345.6
1914	6349.6
1918.245	6332.6
1922.485	6298.6
1926.722	6396.6
1930.954	6357.6
1935.183	6358.6
1939.408	6378.6
1943.628	6448.6
1947.845	6353.6
1952.058	6493.6
1956.267	6358.6
1960.472	6331.6
1964.673	6427.6
1968.87	6509.6
1973.063	6399.6
1977.252	6302.6
1981.438	6234.6
1985.619	6122.6
1989.797	6050.6
1993.971	6013.6
1998.14	5771.6
2002.306	5824.6
2006.469	5809.6
2010.627	5753.6
2014.781	5677.6
2018.932	5777.6
2023.078	5633.6
2027.221	5547.6
2031.36	5622.6
2035.495	5693.6
2039.627	5565.6
2043.754	5530.6
2047.878	5476.6
2051.998	5449.6
2056.114	5460.6
2060.226	5478.6
2064.334	5409.6
2068.439	5301.6
2072.54	5244.6
2076.637	5512.6
2080.73	5370.6
2084.82	5340.6
2088.906	5313.6
2092.988	5324.6
2097.066	5508.6
2101.14	5379.6
2105.211	5464.6
2109.278	5445.6
2113.342	5448.6
2117.401	5535.6
2121.457	5437.6
2125.509	5451.6
2129.558	5242.6
2133.602	5361.6
2137.643	5228.6
2141.681	5108.6
2145.714	5108.6
2149.744	5112.6
2153.77	5079.6
2157.793	4965.6
2161.812	5082.6
2165.827	5063.6
2169.838	4867.6
2173.846	4908.6
2177.851	4819.6
2181.851	4696.6
2185.848	4783.6
2189.841	4607.6
2193.831	4732.6
2197.817	4549.6
2201.799	4507.6
2205.778	4598.6
2209.753	4564.6
2213.725	4507.6
2217.693	4462.6
2221.657	4424.6
2225.618	4369.6
2229.575	4388.6
2233.529	4281.6
2237.479	4324.6
2241.425	4265.6
2245.368	4399.6
2249.307	4324.6
2253.243	4264.6
2257.175	4290.6
2261.104	4173.6
2265.029	4054.6
2268.95	4098.6
2272.868	4011.6
2276.783	4026.6
2280.694	3796.6
2284.601	3772.6
2288.505	3837.6
2292.405	3712.6
2296.302	3778.6
2300.195	3706.6
2304.085	3732.6
2307.971	3694.6
2311.854	3712.6
2315.734	3600.6
2319.609	3583.6
2323.482	3704.6
2327.351	3621.6
2331.216	3556.6
2335.078	3577.6
2338.937	3553.6
2342.792	3597.6
2346.643	3482.6
2350.492	3382.6
2354.336	3441.6
2358.178	3373.6
2362.015	3395.6
2365.85	3503.6
2369.681	3488.6
2373.508	3438.6
2377.333	3387.6
2381.153	3451.6
2384.971	3467.6
2388.785	3421.6
2392.595	3470.6
2396.402	3569.6
2400.206	3518.6
2404.007	3463.6
2407.804	3357.6
2411.597	3259.6
2415.388	3360.6
2419.174	3375.6
2422.958	3280.6
2426.738	3223.6
2430.515	3159.6
2434.289	3285.6
2438.059	3263.6
2441.825	3210.6
2445.589	3027.6
2449.349	3164.6
2453.106	3138.6
2456.859	3044.6
2460.61	3039.6
2464.356	3085.6
2468.1	3037.6
2471.84	3074.6
2475.577	3068.6
2479.311	2969.6
2483.041	2921.6
2486.768	2777.6
2490.492	2679.6
2494.213	3064.6
2497.93	2901.6
2501.644	2973.6
2505.355	2970.6
2509.062	2895.6
2512.766	2915.6
2516.467	2921.6
2520.165	2888.6
2523.859	2928.6
2527.551	2694.6
2531.239	2828.6
2534.923	2828.6
2538.605	2859.6
2542.283	2716.6
2545.958	2809.6
2549.63	2690.6
2553.299	2688.6
2556.964	2752.6
2560.626	2737.6
2564.285	2658.6
2567.941	2791.6
2571.594	2762.6
2575.243	2683.6
2578.89	2728.6
2582.533	2843.6
2586.173	2680.6
2589.809	2686.6
2593.443	2804.6
2597.073	2728.6
2600.701	2520.6
2604.325	2640.6
2607.946	2628.6
2611.564	2560.6
2615.178	2481.6
2618.79	2484.6
2622.398	2609.6
2626.004	2505.6
2629.606	2387.6
2633.205	2642.6
2636.801	2514.6
2640.394	2434.6
2643.983	2439.6
2647.57	2452.6
2651.153	2377.6
2654.734	2209.6
2658.311	2466.6
2661.885	2326.6
2665.456	2311.6
2669.025	2274.6
2672.589	2223.6
2676.151	2144.6
2679.71	2167.6
2683.266	2255.6
2686.819	2129.6
2690.368	2120.6
2693.915	2104.6
2697.458	2148.6
2700.999	2015.6
2704.536	2016.6
2708.071	1993.6
2711.602	1969.6
2715.13	2034.6
2718.656	1970.6
2722.178	1850.6
2725.697	1859.6
2729.214	1645.6
2732.727	1832.6
2736.237	1806.6
2739.744	1846.6
2743.249	1871.6
2746.75	1863.6
2750.248	1951.6
2753.743	1971.6
2757.236	1945.6
2760.725	1908.6
2764.211	2122.6
2767.695	1906.6
2771.175	1911.6
2774.652	1904.6
2778.127	1913.6
2781.598	1943.6
2785.067	1928.6
2788.532	1891.6
2791.995	1884.6
2795.455	1904.6
2798.911	1794.6
2802.365	1991.6
2805.816	1923.6
2809.264	1858.6
2812.709	1948.6
2816.151	1869.6
2819.59	1976.6
2823.026	1969.6
2826.46	2020.6
2829.89	1969.6
2833.318	2111.6
2836.742	2006.6
2840.164	1917.6
2843.583	2091.6
2846.999	2052.6
2850.412	1991.6
2853.822	2095.6
2857.229	2016.6
2860.634	2073.6
2864.035	2114.6
2867.434	2035.6
2870.83	2027.6
2874.223	2183.6
2877.613	2007.6
2881	2310.6
2884.385	2280.6
2887.766	2208.6
2891.145	2175.6
2894.521	2325.6
2897.894	2389.6
2901.264	2069.6
2904.631	2372.6
2907.996	2365.6
2911.358	2285.6
2914.717	2363.6
2918.073	2348.6
2921.426	2260.6
2924.777	2476.6
2928.124	2477.6
2931.469	2326.6
2934.811	2570.6
2938.15	2477.6
2941.487	2496.6
2944.821	2430.6
2948.152	2569.6
2951.48	2583.6
2954.805	2554.6
2958.128	2433.6
2961.447	2576.6
2964.765	2428.6
2968.079	2633.6
2971.39	2578.6
2974.699	2599.6
2978.005	2556.6
2981.308	2649.6
2984.609	2750.6
2987.907	2632.6
2991.202	2752.6
2994.494	2823.6
2997.784	2476.6
3001.07	2761.6
3004.355	2821.6
3007.636	2881.6
3010.915	2963.6
3014.191	3029.6
3017.464	3012.6
3020.734	2987.6
3024.002	3099.6
3027.267	3151.6
3030.53	3203.6
3033.789	3229.6
3037.046	3346.6
3040.301	3364.6
3043.552	3399.6
3046.801	3506.6
3050.048	3381.6
3053.291	3371.6
3056.532	3570.6
3059.771	3738.6
3063.006	3666.6
3066.239	3703.6
3069.469	3887.6
3072.697	4154.6
3075.922	4135.6
3079.144	4174.6
3082.364	4249.6
3085.581	4534.6
3088.795	4478.6
3092.007	4604.6
3095.216	4841.6
3098.423	4976.6
3101.627	5131.6
3104.828	5230.6
3108.026	5275.6
3111.222	5327.6
3114.416	5438.6
3117.607	5616.6
3120.795	5646.6
3123.98	5726.6
3127.163	5984.6
3130.344	5978.6
3133.521	6098.6
3136.696	6233.6
3139.869	6288.6
3143.039	6367.6
3146.206	6445.6
3149.371	6610.6
3152.533	6807.6
3155.693	6901.6
3158.85	6989.6
3162.005	7033.6
3165.157	7138.6
3168.306	7211.6
3171.453	7074.6
3174.597	7363.6
3177.739	7332.6
3180.878	7246.6
3184.014	7267.6
3187.149	7285.6
3190.28	7228.6
3193.409	7227.6
3196.536	7177.6
3199.659	7134.6
3202.781	7184.6
3205.9	7339.6
3209.016	7248.6
3212.13	7224.6
3215.241	7165.6
3218.35	7227.6
3221.456	7309.6
3224.56	7323.6
3227.661	7350.6
3230.76	7461.6
3233.856	7383.6
3236.95	7256.6
3240.041	7359.6
3243.13	7168.6
3246.216	7209.6
3249.3	7036.6
3252.382	7038.6
3255.46	7081.6
3258.537	7349.6
3261.611	7040.6
3264.682	6863.6
3267.751	6766.6
3270.818	6953.6
3273.882	6694.6
3276.943	6648.6
3280.002	6589.6
3283.059	6584.6
3286.113	6618.6
3289.165	6612.6
3292.214	6521.6
3295.261	6409.6
3298.306	6450.6
3301.348	6308.6
3304.387	6252.6
3307.425	6137.6
3310.459	6172.6
3313.492	5905.6
3316.521	5933.6
3319.549	5782.6
3322.574	5692.6
3325.597	5621.6
3328.617	5586.6
3331.635	5365.6
3334.65	5537.6
3337.663	5524.6
3340.674	5439.6
3343.682	5368.6
3346.688	5304.6
3349.691	5329.6
3352.692	5425.6
3355.691	5132.6
3358.687	5237.6
3361.681	5257.6
3364.673	5258.6
3367.662	5209.6
3370.649	5138.6
3373.633	5191.6
3376.615	5074.6
3379.595	5203.6
3382.572	5143.6
3385.547	4936.6
3388.52	5033.6
3391.49	4910.6
3394.458	4825.6
3397.424	4753.6
3400.387	4799.6
3403.348	4439.6
3406.307	4478.6
3409.263	4530.6
3412.217	4325.6
3415.168	4344.6
3418.118	4318.6
3421.065	4281.6
3424.009	4144.6
3426.951	4224.6
3429.891	3921.6
3432.829	4029.6
3435.764	4043.6
3438.697	4002.6
3441.628	3790.6
3444.557	3891.6
3447.483	3855.6
3450.407	3569.6
3453.328	3589.6
3456.247	3543.6
3459.164	3570.6
3462.079	3348.6
3464.991	3269.6
3467.902	3176.6
3470.809	3155.6
3473.715	3045.6
3476.618	2987.6
3479.519	2879.6
3482.418	2904.6
3485.315	2770.6
3488.209	2629.6
3491.101	2628.6
3493.99	2648.6
3496.878	2288.6
3499.763	2283.6
3502.646	2289.6
3505.527	2320.6
3508.405	2152.6
3511.281	2122.6
3514.155	2120.6
3517.027	2072.6
3519.897	2145.6
3522.764	1864.6
3525.629	1933.6
3528.492	1874.6
3531.352	1865.6
3534.211	1717.6
3537.067	1777.6
3539.921	1589.6
3542.773	1535.6
3545.622	1508.6
3548.469	1473.6
3551.315	1486.6
3554.157	1347.6
3556.998	1208.6
3559.837	1146.6
3562.673	1037.6
3565.507	1140.6
3568.339	1043.6
3571.169	1099.6
3573.996	1012.6
3576.822	988.6
3579.645	1039.6
3582.466	950.6
3585.285	842.6
3588.101	781.6
3590.916	863.6
3593.728	801.6
3596.538	853.6
3599.346	715.6
3602.152	800.6
3604.956	677.6
3607.757	582.6
3610.556	747.6
3613.354	599.6
3616.149	553.6
3618.942	587.6
3621.732	379.6
3624.521	586.6
3627.307	475.6
3630.092	475.6
3632.874	363.6
3635.654	421.6
3638.432	523.6
3641.208	356.6
3643.982	422.6
3646.753	333.6
3649.523	384.6
3652.29	337.6
3655.055	414.6
3657.818	253.6
3660.579	356.6
3663.338	354.6
3666.095	204.6
3668.849	386.6
3671.602	247.6
3674.352	361.6
3677.101	227.6
3679.847	168.6
3682.591	272.6
3685.333	254.6
3688.073	156.6
3690.811	233.6
3693.547	214.6
3696.281	212.6
3699.013	97.6
3701.742	116.6
3704.47	189.6
3707.195	58.6
3709.919	95.6
3712.64	130.6
3715.359	18.6
3718.076	-99.4
3720.792	70.6
3723.505	85.6
3726.216	24.6
3728.925	72.6
3731.632	-51.4
3734.336	146.6
3737.039	30.6
3739.74	81.6
3742.439	104.6
3745.136	25.6
3747.83	6.6
3750.523	18.6
3753.213	-631.4
3755.902	28.6
3758.589	121.6
3761.273	67.6
3763.956	-35.4
3766.636	48.6
3769.315	-179.4
3771.991	118.6
3774.665	-131.4
3777.338	169.6
3780.008	39.6
3782.677	-106.4
3785.343	110.6
3788.007	55.6
3790.67	-18.4
3793.33	-74.4
3795.989	26.6
3798.645	-51.4
3801.299	108.6
3803.952	-19.4
3806.602	-58.4
3809.251	-19.4
3811.897	37.6
3814.542	6.6
3817.184	3.6
3819.825	83.6
3822.463	-127.4
3825.1	-15.4
3827.735	11.6
3830.367	-46.4
3832.998	-147.4
3835.627	-56.4
3838.253	-83.4
3840.878	-56.4
3843.501	-127.4
3846.122	-88.4
3848.741	-148.4
3851.358	-87.4
3853.973	49.6
3856.586	-4.4
3859.197	-87.4
3861.806	-35.4
3864.414	47.6
3867.019	-39.4
3869.622	-94.4
3872.224	-146.4
3874.823	30.6
3877.421	-4.4
3880.016	30.6
3882.61	123.6
3885.202	109.6
3887.792	124.6
3890.38	-103.4
3892.966	4.6
3895.55	-22.4
3898.132	-26.4
3900.713	-101.4
3903.291	-12.4
3905.868	-135.4
3908.442	-64.4
3911.015	-55.4
3913.586	-54.4
3916.155	-109.4
3918.722	-41.4
3921.287	-81.4
3923.85	-135.4
3926.411	-100.4
3928.971	-125.4
3931.528	-80.4
3934.084	-120.4
3936.638	-104.4
3939.19	-104.4
3941.74	-50.4
3944.288	-84.4
3946.834	-72.4
3949.378	-93.4
3951.921	18.6
3954.462	-56.4
3957	-34.4
3959.537	14.6
3962.072	-17.4
3964.606	44.6
3967.137	-72.4
3969.667	-28.4
3972.194	-61.4
3974.72	-13.4
3977.244	13.6
3979.766	4.6
3982.286	19.6
3984.805	-126.4
3987.321	-136.4
3989.836	-82.4
3992.349	-26.4
3994.86	-32.4
3997.369	-6.4
3999.877	-72.4
4002.382	-168.4
4004.886	-7.4
4007.388	-53.4
4009.888	70.6
4012.386	-166.4
4014.883	-52.4
4017.377	-67.4
4019.87	-205.4
4022.361	-6.4
4024.85	-22.4
4027.338	-79.4
4029.823	-79.4
4032.307	-79.4
4034.789	-4.4
4037.269	-3.4
4039.747	23.6
4042.224	-101.4
4044.699	-66.4
4047.172	-50.4
4049.643	-104.4
4052.112	54.6
4054.58	-6.4
4057.046	-28.4
4059.51	-4.4
4061.972	-59.4
4064.432	56.6
4066.891	-177.4
4069.348	-13.4
4071.803	-90.4
4074.256	-90.4
4076.708	-2.4
4079.158	-81.4
4081.606	-173.4
4084.052	-71.4
4086.497	-60.4
4088.939	-51.4
4091.38	3.6
4093.819	-100.4
4096.257	-1138.4
4098.693	-1129.4
4101.127	-1185.4
4103.559	-1195.4
4105.989	81.6
4108.418	152.6
4110.845	396.6
4113.27	254.6
4115.694	339.6
4118.115	330.6
4120.535	-52.4
4122.954	-135.4
4125.37	-171.4
4127.785	-37.4
4130.198	-78.4
4132.609	-85.4
4135.019	-1213.4
4137.427	-1198.4
4139.833	-1156.4
4142.237	-1048.4
