Data from 2018-2-8_conc=5_RamanShift_06.txt Node
Date: Wed Feb 07 11:01:10 IST 2018
User: aro
Spectrometer: QEPB0276
Trigger mode: 0
Integration Time (sec): 3.000000E1
Scans to average: 1
Electric dark correction enabled: true
Nonlinearity correction enabled: false
Boxcar width: 0
XAxis mode: Raman Shifts
Number of Pixels in Spectrum: 1044
>>>>>Begin Spectral Data<<<<<
160.701	620.8
166.742	740.8
172.777	1271.8
178.805	2871.8
184.826	6402.8
190.841	12469.8
196.849	19884.8
202.85	25273.8
208.845	27257.8
214.833	27153.8
220.815	26694.8
226.789	26518.8
232.758	26359.8
238.719	26350.8
244.674	26029.8
250.623	25591.8
256.565	25227.8
262.5	24695.8
268.429	24007.8
274.351	23701.8
280.267	23537.8
286.176	22894.8
292.079	22719.8
297.975	22371.8
303.865	22163.8
309.748	22024.8
315.625	21885.8
321.495	21382.8
327.359	21341.8
333.217	21401.8
339.068	21356.8
344.912	21402.8
350.751	21407.8
356.583	21300.8
362.408	21250.8
368.227	21296.8
374.04	21395.8
379.847	21473.8
385.647	21685.8
391.44	21884.8
397.228	21762.8
403.009	22049.8
408.784	21950.8
414.553	22171.8
420.315	22256.8
426.071	22321.8
431.821	22308.8
437.565	22339.8
443.302	22066.8
449.033	22060.8
454.758	21964.8
460.477	21841.8
466.189	21754.8
471.896	21691.8
477.596	21480.8
483.29	21615.8
488.978	21595.8
494.66	21556.8
500.335	21473.8
506.005	21439.8
511.668	21164.8
517.325	21047.8
522.977	20736.8
528.622	20789.8
534.261	20591.8
539.894	20542.8
545.521	20453.8
551.141	20413.8
556.756	20125.8
562.365	19983.8
567.968	19915.8
573.565	19788.8
579.155	19559.8
584.74	19487.8
590.319	19366.8
595.892	19428.8
601.459	19230.8
607.02	19347.8
612.575	19326.8
618.124	19154.8
623.667	19334.8
629.204	19232.8
634.735	19225.8
640.261	19161.8
645.781	19323.8
651.294	19029.8
656.802	18724.8
662.304	18566.8
667.8	18340.8
673.29	18469.8
678.775	18305.8
684.254	18256.8
689.726	18369.8
695.193	18177.8
700.655	18202.8
706.11	18353.8
711.56	18236.8
717.004	18284.8
722.442	18498.8
727.874	18272.8
733.301	18267.8
738.722	18301.8
744.137	18086.8
749.547	17980.8
754.951	17997.8
760.349	17759.8
765.741	17616.8
771.128	17686.8
776.509	17731.8
781.885	17609.8
787.254	17551.8
792.618	17597.8
797.977	17775.8
803.33	17812.8
808.677	17849.8
814.019	17806.8
819.355	17831.8
824.686	17848.8
830.011	17762.8
835.33	17482.8
840.644	17304.8
845.952	17357.8
851.255	17070.8
856.552	17010.8
861.844	16907.8
867.13	16757.8
872.41	16834.8
877.686	16681.8
882.955	16763.8
888.219	16864.8
893.478	16951.8
898.731	16806.8
903.979	16681.8
909.221	16810.8
914.458	16745.8
919.69	16594.8
924.916	16438.8
930.136	16138.8
935.351	16029.8
940.561	15805.8
945.766	15790.8
950.965	15562.8
956.158	15707.8
961.347	15806.8
966.529	15674.8
971.707	15667.8
976.879	15717.8
982.046	15730.8
987.208	15812.8
992.364	15624.8
997.515	15583.8
1002.66	15484.8
1007.801	15573.8
1012.936	15512.8
1018.066	15599.8
1023.19	15352.8
1028.309	15239.8
1033.423	15354.8
1038.532	15430.8
1043.636	15625.8
1048.734	15672.8
1053.827	15645.8
1058.915	15739.8
1063.998	15538.8
1069.075	15408.8
1074.147	15165.8
1079.214	15142.8
1084.276	14870.8
1089.333	14816.8
1094.385	14746.8
1099.431	14778.8
1104.472	14697.8
1109.509	14896.8
1114.54	15021.8
1119.565	15103.8
1124.586	14956.8
1129.602	15049.8
1134.613	14927.8
1139.618	14878.8
1144.619	14619.8
1149.614	14396.8
1154.604	14252.8
1159.589	14198.8
1164.57	13936.8
1169.545	13989.8
1174.515	14033.8
1179.48	14197.8
1184.44	14241.8
1189.395	14320.8
1194.345	14477.8
1199.29	14451.8
1204.23	14680.8
1209.165	14485.8
1214.095	14306.8
1219.021	14274.8
1223.941	14226.8
1228.856	14180.8
1233.766	14125.8
1238.672	14067.8
1243.572	13977.8
1248.467	14045.8
1253.358	14205.8
1258.244	14230.8
1263.124	14082.8
1268	13940.8
1272.871	13943.8
1277.737	13930.8
1282.599	13728.8
1287.455	13526.8
1292.306	13358.8
1297.153	13411.8
1301.995	13113.8
1306.832	12994.8
1311.664	13094.8
1316.491	13174.8
1321.314	13201.8
1326.132	13100.8
1330.945	13067.8
1335.753	12865.8
1340.556	12791.8
1345.354	12636.8
1350.148	12358.8
1354.937	12088.8
1359.722	12113.8
1364.501	11887.8
1369.276	11699.8
1374.046	11692.8
1378.811	11935.8
1383.572	12038.8
1388.327	11797.8
1393.079	12311.8
1397.825	12444.8
1402.567	12340.8
1407.304	12239.8
1412.036	12275.8
1416.764	12150.8
1421.487	12345.8
1426.205	12041.8
1430.919	11873.8
1435.628	11793.8
1440.333	11586.8
1445.032	11532.8
1449.727	11460.8
1454.418	11450.8
1459.104	11447.8
1463.785	11276.8
1468.462	11285.8
1473.134	11257.8
1477.802	11071.8
1482.465	11150.8
1487.123	10676.8
1491.777	10891.8
1496.426	10778.8
1501.071	10527.8
1505.711	10545.8
1510.347	10513.8
1514.978	10673.8
1519.604	10837.8
1524.226	10912.8
1528.844	11267.8
1533.457	11164.8
1538.065	11313.8
1542.669	11320.8
1547.269	11417.8
1551.864	11390.8
1556.454	11513.8
1561.041	11434.8
1565.622	11381.8
1570.199	11099.8
1574.772	11134.8
1579.34	10840.8
1583.904	11035.8
1588.464	11015.8
1593.019	11012.8
1597.569	11150.8
1602.115	11315.8
1606.657	11273.8
1611.195	11252.8
1615.728	11348.8
1620.256	11454.8
1624.78	11485.8
1629.3	11422.8
1633.816	11301.8
1638.327	11188.8
1642.834	11198.8
1647.336	11053.8
1651.834	10937.8
1656.328	11042.8
1660.817	10981.8
1665.302	10944.8
1669.783	10926.8
1674.259	10840.8
1678.732	10444.8
1683.199	10296.8
1687.663	10085.8
1692.122	9659.8
1696.577	9294.8
1701.028	9341.8
1705.474	9190.8
1709.917	9220.8
1714.355	9371.8
1718.788	9194.8
1723.218	9037.8
1727.643	8824.8
1732.064	8684.8
1736.481	8738.8
1740.893	8507.8
1745.301	8384.8
1749.705	8443.8
1754.105	8016.8
1758.501	8022.8
1762.893	7714.8
1767.28	7634.8
1771.663	7402.8
1776.042	7203.8
1780.417	7093.8
1784.787	6839.8
1789.154	6864.8
1793.516	6992.8
1797.874	7065.8
1802.228	7201.8
1806.578	7489.8
1810.924	7237.8
1815.266	8270.8
1819.603	7385.8
1823.937	7407.8
1828.266	7301.8
1832.591	7262.8
1836.913	7171.8
1841.23	7187.8
1845.543	7147.8
1849.852	6862.8
1854.156	6974.8
1858.457	6932.8
1862.754	6643.8
1867.047	6801.8
1871.335	6614.8
1875.62	6544.8
1879.9	6561.8
1884.177	6747.8
1888.449	6526.8
1892.718	6569.8
1896.982	6478.8
1901.243	6663.8
1905.499	6621.8
1909.752	6441.8
1914	6596.8
1918.245	6446.8
1922.485	6436.8
1926.722	6472.8
1930.954	6449.8
1935.183	6578.8
1939.408	6471.8
1943.628	6562.8
1947.845	6567.8
1952.058	6691.8
1956.267	6699.8
1960.472	6562.8
1964.673	6599.8
1968.87	6651.8
1973.063	6595.8
1977.252	6554.8
1981.438	6433.8
1985.619	6251.8
1989.797	6261.8
1993.971	6238.8
1998.14	5964.8
2002.306	6049.8
2006.469	6038.8
2010.627	6043.8
2014.781	5998.8
2018.932	5987.8
2023.078	5806.8
2027.221	5759.8
2031.36	5805.8
2035.495	5862.8
2039.627	5801.8
2043.754	5687.8
2047.878	5671.8
2051.998	5658.8
2056.114	5701.8
2060.226	5602.8
2064.334	5519.8
2068.439	5416.8
2072.54	5426.8
2076.637	5642.8
2080.73	5477.8
2084.82	5393.8
2088.906	5551.8
2092.988	5442.8
2097.066	5624.8
2101.14	5484.8
2105.211	5546.8
2109.278	5614.8
2113.342	5660.8
2117.401	5616.8
2121.457	5637.8
2125.509	5621.8
2129.558	5395.8
2133.602	5452.8
2137.643	5436.8
2141.681	5323.8
2145.714	5347.8
2149.744	5199.8
2153.77	5269.8
2157.793	5160.8
2161.812	5323.8
2165.827	5257.8
2169.838	4977.8
2173.846	5114.8
2177.851	4972.8
2181.851	4928.8
2185.848	4977.8
2189.841	4831.8
2193.831	4961.8
2197.817	4674.8
2201.799	4711.8
2205.778	4816.8
2209.753	4754.8
2213.725	4688.8
2217.693	4682.8
2221.657	4640.8
2225.618	4520.8
2229.575	4595.8
2233.529	4505.8
2237.479	4550.8
2241.425	4516.8
2245.368	4687.8
2249.307	4552.8
2253.243	4521.8
2257.175	4502.8
2261.104	4377.8
2265.029	4258.8
2268.95	4300.8
2272.868	4193.8
2276.783	4197.8
2280.694	4040.8
2284.601	4009.8
2288.505	4001.8
2292.405	3847.8
2296.302	4052.8
2300.195	3826.8
2304.085	4018.8
2307.971	3790.8
2311.854	3905.8
2315.734	3768.8
2319.609	3850.8
2323.482	3983.8
2327.351	3820.8
2331.216	3782.8
2335.078	3774.8
2338.937	3776.8
2342.792	3756.8
2346.643	3703.8
2350.492	3672.8
2354.336	3705.8
2358.178	3632.8
2362.015	3653.8
2365.85	3769.8
2369.681	3703.8
2373.508	3670.8
2377.333	3549.8
2381.153	3746.8
2384.971	3767.8
2388.785	3704.8
2392.595	3702.8
2396.402	3673.8
2400.206	3825.8
2404.007	3801.8
2407.804	3682.8
2411.597	3552.8
2415.388	3662.8
2419.174	3616.8
2422.958	3544.8
2426.738	3539.8
2430.515	3462.8
2434.289	3515.8
2438.059	3523.8
2441.825	3560.8
2445.589	3246.8
2449.349	3444.8
2453.106	3312.8
2456.859	3353.8
2460.61	3209.8
2464.356	3338.8
2468.1	3253.8
2471.84	3319.8
2475.577	3337.8
2479.311	3237.8
2483.041	3165.8
2486.768	3038.8
2490.492	2877.8
2494.213	3271.8
2497.93	3104.8
2501.644	3205.8
2505.355	3255.8
2509.062	3020.8
2512.766	3125.8
2516.467	3059.8
2520.165	3043.8
2523.859	3245.8
2527.551	2870.8
2531.239	3065.8
2534.923	2994.8
2538.605	3141.8
2542.283	2975.8
2545.958	3047.8
2549.63	2915.8
2553.299	2871.8
2556.964	2782.8
2560.626	2990.8
2564.285	2826.8
2567.941	2964.8
2571.594	2857.8
2575.243	2848.8
2578.89	2959.8
2582.533	2994.8
2586.173	2913.8
2589.809	2894.8
2593.443	3158.8
2597.073	2948.8
2600.701	2747.8
2604.325	2806.8
2607.946	2848.8
2611.564	2794.8
2615.178	2668.8
2618.79	2694.8
2622.398	2874.8
2626.004	2746.8
2629.606	2621.8
2633.205	2883.8
2636.801	2721.8
2640.394	2620.8
2643.983	2653.8
2647.57	2703.8
2651.153	2571.8
2654.734	2429.8
2658.311	2735.8
2661.885	2544.8
2665.456	2600.8
2669.025	2492.8
2672.589	2507.8
2676.151	2335.8
2679.71	2315.8
2683.266	2363.8
2686.819	2419.8
2690.368	2309.8
2693.915	2173.8
2697.458	2355.8
2700.999	2248.8
2704.536	2218.8
2708.071	2230.8
2711.602	2180.8
2715.13	2222.8
2718.656	2165.8
2722.178	2066.8
2725.697	2205.8
2729.214	1832.8
2732.727	1917.8
2736.237	1978.8
2739.744	2005.8
2743.249	2067.8
2746.75	2069.8
2750.248	2136.8
2753.743	2109.8
2757.236	2089.8
2760.725	2092.8
2764.211	2295.8
2767.695	2109.8
2771.175	2107.8
2774.652	2057.8
2778.127	2083.8
2781.598	2047.8
2785.067	2086.8
2788.532	2064.8
2791.995	2025.8
2795.455	2063.8
2798.911	2048.8
2802.365	2196.8
2805.816	2039.8
2809.264	1989.8
2812.709	2127.8
2816.151	2088.8
2819.59	2229.8
2823.026	2206.8
2826.46	2259.8
2829.89	2169.8
2833.318	2362.8
2836.742	2214.8
2840.164	2179.8
2843.583	2278.8
2846.999	2249.8
2850.412	2176.8
2853.822	2481.8
2857.229	2117.8
2860.634	2216.8
2864.035	2314.8
2867.434	2173.8
2870.83	2249.8
2874.223	2354.8
2877.613	2224.8
2881	2439.8
2884.385	2530.8
2887.766	2439.8
2891.145	2449.8
2894.521	2521.8
2897.894	2612.8
2901.264	2266.8
2904.631	2561.8
2907.996	2472.8
2911.358	2525.8
2914.717	2501.8
2918.073	2506.8
2921.426	2508.8
2924.777	2659.8
2928.124	2630.8
2931.469	2520.8
2934.811	2841.8
2938.15	2619.8
2941.487	2707.8
2944.821	2365.8
2948.152	2801.8
2951.48	2703.8
2954.805	2705.8
2958.128	2597.8
2961.447	2714.8
2964.765	2545.8
2968.079	2746.8
2971.39	2693.8
2974.699	2714.8
2978.005	2687.8
2981.308	2774.8
2984.609	2968.8
2987.907	2837.8
2991.202	2909.8
2994.494	2989.8
2997.784	2602.8
3001.07	2920.8
3004.355	2946.8
3007.636	3001.8
3010.915	3150.8
3014.191	3131.8
3017.464	3148.8
3020.734	3108.8
3024.002	3221.8
3027.267	3309.8
3030.53	3284.8
3033.789	3375.8
3037.046	3499.8
3040.301	3526.8
3043.552	3570.8
3046.801	3568.8
3050.048	3468.8
3053.291	3466.8
3056.532	3631.8
3059.771	3878.8
3063.006	3815.8
3066.239	3875.8
3069.469	4015.8
3072.697	4189.8
3075.922	4258.8
3079.144	4389.8
3082.364	4400.8
3085.581	4584.8
3088.795	4382.8
3092.007	4692.8
3095.216	4866.8
3098.423	5145.8
3101.627	5273.8
3104.828	5311.8
3108.026	5389.8
3111.222	5431.8
3114.416	5402.8
3117.607	5600.8
3120.795	5703.8
3123.98	5853.8
3127.163	6017.8
3130.344	6050.8
3133.521	6161.8
3136.696	6222.8
3139.869	6375.8
3143.039	6510.8
3146.206	6466.8
3149.371	6655.8
3152.533	6790.8
3155.693	7009.8
3158.85	7058.8
3162.005	7102.8
3165.157	7221.8
3168.306	7264.8
3171.453	7114.8
3174.597	7388.8
3177.739	7416.8
3180.878	7243.8
3184.014	7254.8
3187.149	7330.8
3190.28	7336.8
3193.409	7247.8
3196.536	7219.8
3199.659	7146.8
3202.781	7199.8
3205.9	7425.8
3209.016	7225.8
3212.13	7277.8
3215.241	7194.8
3218.35	7239.8
3221.456	7323.8
3224.56	7470.8
3227.661	7352.8
3230.76	7467.8
3233.856	7423.8
3236.95	7293.8
3240.041	7423.8
3243.13	7126.8
3246.216	7251.8
3249.3	7093.8
3252.382	7083.8
3255.46	7214.8
3258.537	6486.8
3261.611	7116.8
3264.682	6920.8
3267.751	6841.8
3270.818	6971.8
3273.882	6687.8
3276.943	6635.8
3280.002	6591.8
3283.059	6645.8
3286.113	6606.8
3289.165	6682.8
3292.214	6576.8
3295.261	6404.8
3298.306	6496.8
3301.348	6325.8
3304.387	6307.8
3307.425	6159.8
3310.459	6182.8
3313.492	5922.8
3316.521	5880.8
3319.549	5810.8
3322.574	5740.8
3325.597	5664.8
3328.617	5725.8
3331.635	5559.8
3334.65	5624.8
3337.663	5496.8
3340.674	5560.8
3343.682	5388.8
3346.688	5459.8
3349.691	5325.8
3352.692	5461.8
3355.691	5303.8
3358.687	5316.8
3361.681	5279.8
3364.673	5305.8
3367.662	5203.8
3370.649	5153.8
3373.633	5233.8
3376.615	5169.8
3379.595	5271.8
3382.572	5058.8
3385.547	5010.8
3388.52	5091.8
3391.49	4940.8
3394.458	4931.8
3397.424	4782.8
3400.387	4908.8
3403.348	4519.8
3406.307	4600.8
3409.263	4620.8
3412.217	4436.8
3415.168	4441.8
3418.118	4372.8
3421.065	4261.8
3424.009	4122.8
3426.951	4260.8
3429.891	4245.8
3432.829	4180.8
3435.764	4063.8
3438.697	4047.8
3441.628	3778.8
3444.557	3943.8
3447.483	4004.8
3450.407	3703.8
3453.328	3568.8
3456.247	3706.8
3459.164	3673.8
3462.079	3449.8
3464.991	3346.8
3467.902	3344.8
3470.809	3248.8
3473.715	3134.8
3476.618	3064.8
3479.519	2959.8
3482.418	3128.8
3485.315	2844.8
3488.209	2747.8
3491.101	2593.8
3493.99	2784.8
3496.878	2425.8
3499.763	2403.8
3502.646	2363.8
3505.527	2489.8
3508.405	2321.8
3511.281	2303.8
3514.155	2274.8
3517.027	2204.8
3519.897	2380.8
3522.764	2006.8
3525.629	2146.8
3528.492	1963.8
3531.352	1873.8
3534.211	1844.8
3537.067	1888.8
3539.921	1806.8
3542.773	1733.8
3545.622	1665.8
3548.469	1685.8
3551.315	1612.8
3554.157	1427.8
3556.998	1410.8
3559.837	1271.8
3562.673	1223.8
3565.507	1292.8
3568.339	1219.8
3571.169	1313.8
3573.996	1209.8
3576.822	1186.8
3579.645	1155.8
3582.466	1099.8
3585.285	993.8
3588.101	988.8
3590.916	1063.8
3593.728	968.8
3596.538	982.8
3599.346	844.8
3602.152	953.8
3604.956	924.8
3607.757	721.8
3610.556	928.8
3613.354	762.8
3616.149	705.8
3618.942	701.8
3621.732	504.8
3624.521	721.8
3627.307	661.8
3630.092	663.8
3632.874	505.8
3635.654	667.8
3638.432	702.8
3641.208	533.8
3643.982	552.8
3646.753	505.8
3649.523	590.8
3652.29	603.8
3655.055	496.8
3657.818	461.8
3660.579	392.8
3663.338	632.8
3666.095	376.8
3668.849	645.8
3671.602	394.8
3674.352	592.8
3677.101	382.8
3679.847	219.8
3682.591	443.8
3685.333	407.8
3688.073	334.8
3690.811	418.8
3693.547	358.8
3696.281	321.8
3699.013	296.8
3701.742	294.8
3704.47	412.8
3707.195	309.8
3709.919	308.8
3712.64	299.8
3715.359	189.8
3718.076	45.8
3720.792	385.8
3723.505	260.8
3726.216	218.8
3728.925	331.8
3731.632	82.8
3734.336	373.8
3737.039	258.8
3739.74	281.8
3742.439	320.8
3745.136	243.8
3747.83	218.8
3750.523	214.8
3753.213	-104.2
3755.902	185.8
3758.589	329.8
3761.273	262.8
3763.956	64.8
3766.636	267.8
3769.315	49.8
3771.991	328.8
3774.665	189.8
3777.338	343.8
3780.008	275.8
3782.677	215.8
3785.343	306.8
3788.007	555.8
3790.67	171.8
3793.33	139.8
3795.989	188.8
3798.645	107.8
3801.299	358.8
3803.952	69.8
3806.602	127.8
3809.251	196.8
3811.897	159.8
3814.542	222.8
3817.184	150.8
3819.825	261.8
3822.463	-143.2
3825.1	153.8
3827.735	168.8
3830.367	148.8
3832.998	13.8
3835.627	85.8
3838.253	99.8
3840.878	6.8
3843.501	-16.2
3846.122	55.8
3848.741	11.8
3851.358	105.8
3853.973	302.8
3856.586	139.8
3859.197	93.8
3861.806	122.8
3864.414	266.8
3867.019	148.8
3869.622	83.8
3872.224	-21.2
3874.823	248.8
3877.421	186.8
3880.016	256.8
3882.61	344.8
3885.202	302.8
3887.792	260.8
3890.38	74.8
3892.966	201.8
3895.55	177.8
3898.132	172.8
3900.713	68.8
3903.291	151.8
3905.868	191.8
3908.442	99.8
3911.015	50.8
3913.586	145.8
3916.155	48.8
3918.722	210.8
3921.287	129.8
3923.85	-39.2
3926.411	66.8
3928.971	78.8
3931.528	116.8
3934.084	156.8
3936.638	168.8
3939.19	85.8
3941.74	145.8
3944.288	69.8
3946.834	121.8
3949.378	91.8
3951.921	231.8
3954.462	78.8
3957	183.8
3959.537	177.8
3962.072	240.8
3964.606	224.8
3967.137	15.8
3969.667	107.8
3972.194	172.8
3974.72	169.8
3977.244	224.8
3979.766	98.8
3982.286	242.8
3984.805	81.8
3987.321	6.8
3989.836	88.8
3992.349	218.8
3994.86	147.8
3997.369	111.8
3999.877	73.8
4002.382	140.8
4004.886	133.8
4007.388	222.8
4009.888	248.8
4012.386	99.8
4014.883	98.8
4017.377	176.8
4019.87	-47.2
4022.361	215.8
4024.85	267.8
4027.338	250.8
4029.823	86.8
4032.307	105.8
4034.789	174.8
4037.269	139.8
4039.747	189.8
4042.224	96.8
4044.699	174.8
4047.172	164.8
4049.643	96.8
4052.112	171.8
4054.58	170.8
4057.046	136.8
4059.51	233.8
4061.972	98.8
4064.432	271.8
4066.891	26.8
4069.348	154.8
4071.803	118.8
4074.256	106.8
4076.708	120.8
4079.158	189.8
4081.606	-15.2
4084.052	199.8
4086.497	27.8
4088.939	189.8
4091.38	155.8
4093.819	78.8
4096.257	-1357.2
4098.693	-1395.2
4101.127	-1438.2
4103.559	-1430.2
4105.989	305.8
4108.418	317.8
4110.845	512.8
4113.27	444.8
4115.694	557.8
4118.115	547.8
4120.535	61.8
4122.954	2.8
4125.37	-28.2
4127.785	51.8
4130.198	81.8
4132.609	74.8
4135.019	-1484.2
4137.427	-1443.2
4139.833	-1379.2
4142.237	-1198.2
