Data from 2018-2-8_conc=0_RamanShift_03.txt Node
Date: Wed Feb 07 09:22:40 IST 2018
User: aro
Spectrometer: QEPB0276
Trigger mode: 0
Integration Time (sec): 3.000000E1
Scans to average: 1
Electric dark correction enabled: true
Nonlinearity correction enabled: false
Boxcar width: 0
XAxis mode: Raman Shifts
Number of Pixels in Spectrum: 1044
>>>>>Begin Spectral Data<<<<<
160.701	158.8
166.742	251.8
172.777	777.8
178.805	2378.8
184.826	6028.8
190.841	12147.8
196.849	19476.8
202.85	24757.8
208.845	26701.8
214.833	26531.8
220.815	26089.8
226.789	25969.8
232.758	25944.8
238.719	25815.8
244.674	25590.8
250.623	25136.8
256.565	24704.8
262.5	24268.8
268.429	23593.8
274.351	23259.8
280.267	23248.8
286.176	22734.8
292.079	22475.8
297.975	22156.8
303.865	21900.8
309.748	21719.8
315.625	21615.8
321.495	21213.8
327.359	21285.8
333.217	21194.8
339.068	21151.8
344.912	21168.8
350.751	21055.8
356.583	21006.8
362.408	21064.8
368.227	21145.8
374.04	21114.8
379.847	21288.8
385.647	21328.8
391.44	21530.8
397.228	21627.8
403.009	21775.8
408.784	21956.8
414.553	22091.8
420.315	22101.8
426.071	22123.8
431.821	22107.8
437.565	22018.8
443.302	21828.8
449.033	21887.8
454.758	21720.8
460.477	21659.8
466.189	21519.8
471.896	21439.8
477.596	21252.8
483.29	21400.8
488.978	21386.8
494.66	21351.8
500.335	21249.8
506.005	21194.8
511.668	21057.8
517.325	20916.8
522.977	20708.8
528.622	20705.8
534.261	20485.8
539.894	20488.8
545.521	20303.8
551.141	20317.8
556.756	20120.8
562.365	19995.8
567.968	19791.8
573.565	19640.8
579.155	19574.8
584.74	19395.8
590.319	19377.8
595.892	19381.8
601.459	19336.8
607.02	19297.8
612.575	19329.8
618.124	19189.8
623.667	19277.8
629.204	19207.8
634.735	19236.8
640.261	19134.8
645.781	19161.8
651.294	18931.8
656.802	18778.8
662.304	18745.8
667.8	18490.8
673.29	18426.8
678.775	18363.8
684.254	18313.8
689.726	18302.8
695.193	18233.8
700.655	18240.8
706.11	18289.8
711.56	18280.8
717.004	18269.8
722.442	18387.8
727.874	18229.8
733.301	18259.8
738.722	18292.8
744.137	18065.8
749.547	18017.8
754.951	17951.8
760.349	17736.8
765.741	17657.8
771.128	17611.8
776.509	17652.8
781.885	17558.8
787.254	17601.8
792.618	17627.8
797.977	17710.8
803.33	17731.8
808.677	17795.8
814.019	17715.8
819.355	17697.8
824.686	17787.8
830.011	17744.8
835.33	17499.8
840.644	17300.8
845.952	17275.8
851.255	17094.8
856.552	17012.8
861.844	16847.8
867.13	16840.8
872.41	16759.8
877.686	16677.8
882.955	16834.8
888.219	16846.8
893.478	16901.8
898.731	16867.8
903.979	16839.8
909.221	16811.8
914.458	16676.8
919.69	16504.8
924.916	16398.8
930.136	16065.8
935.351	16057.8
940.561	15817.8
945.766	15685.8
950.965	15640.8
956.158	15554.8
961.347	15674.8
966.529	15696.8
971.707	15735.8
976.879	15682.8
982.046	15705.8
987.208	15734.8
992.364	15597.8
997.515	15499.8
1002.66	15412.8
1007.801	15434.8
1012.936	15434.8
1018.066	15391.8
1023.19	15167.8
1028.309	15204.8
1033.423	15250.8
1038.532	15403.8
1043.636	15510.8
1048.734	15559.8
1053.827	15650.8
1058.915	15538.8
1063.998	15381.8
1069.075	15295.8
1074.147	15083.8
1079.214	14956.8
1084.276	14720.8
1089.333	14744.8
1094.385	14620.8
1099.431	14691.8
1104.472	14646.8
1109.509	14785.8
1114.54	14920.8
1119.565	14973.8
1124.586	14862.8
1129.602	14874.8
1134.613	14717.8
1139.618	14643.8
1144.619	14425.8
1149.614	14249.8
1154.604	14087.8
1159.589	14053.8
1164.57	13874.8
1169.545	13928.8
1174.515	13789.8
1179.48	14032.8
1184.44	14159.8
1189.395	14210.8
1194.345	14371.8
1199.29	14330.8
1204.23	14347.8
1209.165	14359.8
1214.095	14174.8
1219.021	14068.8
1223.941	14110.8
1228.856	13962.8
1233.766	13956.8
1238.672	13811.8
1243.572	13869.8
1248.467	13876.8
1253.358	14025.8
1258.244	14023.8
1263.124	13919.8
1268	13825.8
1272.871	13867.8
1277.737	13762.8
1282.599	13484.8
1287.455	13365.8
1292.306	13119.8
1297.153	13147.8
1301.995	12914.8
1306.832	12904.8
1311.664	12949.8
1316.491	12990.8
1321.314	12959.8
1326.132	12938.8
1330.945	12948.8
1335.753	12789.8
1340.556	12673.8
1345.354	12464.8
1350.148	12186.8
1354.937	12009.8
1359.722	11974.8
1364.501	11724.8
1369.276	11664.8
1374.046	11687.8
1378.811	11793.8
1383.572	11838.8
1388.327	11889.8
1393.079	12036.8
1397.825	12074.8
1402.567	12030.8
1407.304	12034.8
1412.036	12069.8
1416.764	12030.8
1421.487	12114.8
1426.205	11741.8
1430.919	11579.8
1435.628	11443.8
1440.333	11465.8
1445.032	11282.8
1449.727	11281.8
1454.418	11315.8
1459.104	11270.8
1463.785	11254.8
1468.462	11114.8
1473.134	11070.8
1477.802	10931.8
1482.465	10861.8
1487.123	10703.8
1491.777	10707.8
1496.426	10508.8
1501.071	10405.8
1505.711	10480.8
1510.347	10403.8
1514.978	10669.8
1519.604	10713.8
1524.226	10786.8
1528.844	11031.8
1533.457	11025.8
1538.065	11104.8
1542.669	11135.8
1547.269	11204.8
1551.864	11185.8
1556.454	11210.8
1561.041	11063.8
1565.622	11106.8
1570.199	10773.8
1574.772	10780.8
1579.34	10692.8
1583.904	10758.8
1588.464	10763.8
1593.019	10746.8
1597.569	10842.8
1602.115	10890.8
1606.657	10925.8
1611.195	11002.8
1615.728	11054.8
1620.256	11083.8
1624.78	11066.8
1629.3	11032.8
1633.816	10892.8
1638.327	10832.8
1642.834	10795.8
1647.336	10747.8
1651.834	10810.8
1656.328	10669.8
1660.817	10682.8
1665.302	10686.8
1669.783	10648.8
1674.259	10548.8
1678.732	10354.8
1683.199	10012.8
1687.663	9800.8
1692.122	9503.8
1696.577	9209.8
1701.028	9176.8
1705.474	9089.8
1709.917	9135.8
1714.355	9095.8
1718.788	8987.8
1723.218	8818.8
1727.643	8611.8
1732.064	8534.8
1736.481	8434.8
1740.893	8319.8
1745.301	8178.8
1749.705	8050.8
1754.105	7787.8
1758.501	7763.8
1762.893	7440.8
1767.28	7352.8
1771.663	7088.8
1776.042	6988.8
1780.417	6883.8
1784.787	6744.8
1789.154	6830.8
1793.516	6647.8
1797.874	6900.8
1802.228	6970.8
1806.578	7090.8
1810.924	7169.8
1815.266	7812.8
1819.603	7155.8
1823.937	7126.8
1828.266	7092.8
1832.591	7019.8
1836.913	6946.8
1841.23	6954.8
1845.543	6807.8
1849.852	6737.8
1854.156	6688.8
1858.457	6590.8
1862.754	6601.8
1867.047	6477.8
1871.335	6395.8
1875.62	6381.8
1879.9	6467.8
1884.177	6488.8
1888.449	6436.8
1892.718	6403.8
1896.982	6274.8
1901.243	6393.8
1905.499	6349.8
1909.752	6330.8
1914	6302.8
1918.245	6265.8
1922.485	6269.8
1926.722	6312.8
1930.954	6341.8
1935.183	6253.8
1939.408	6300.8
1943.628	6311.8
1947.845	6433.8
1952.058	6370.8
1956.267	6313.8
1960.472	6383.8
1964.673	6424.8
1968.87	6382.8
1973.063	6330.8
1977.252	6205.8
1981.438	6119.8
1985.619	6052.8
1989.797	5944.8
1993.971	5856.8
1998.14	5760.8
2002.306	5733.8
2006.469	5705.8
2010.627	5611.8
2014.781	5597.8
2018.932	5669.8
2023.078	5517.8
2027.221	5554.8
2031.36	5554.8
2035.495	5540.8
2039.627	5483.8
2043.754	5416.8
2047.878	5359.8
2051.998	5315.8
2056.114	5329.8
2060.226	5283.8
2064.334	5221.8
2068.439	5161.8
2072.54	5122.8
2076.637	5264.8
2080.73	5173.8
2084.82	5215.8
2088.906	5199.8
2092.988	5119.8
2097.066	5346.8
2101.14	5309.8
2105.211	5280.8
2109.278	5300.8
2113.342	5387.8
2117.401	5348.8
2121.457	5275.8
2125.509	5297.8
2129.558	5117.8
2133.602	5148.8
2137.643	5044.8
2141.681	4991.8
2145.714	4973.8
2149.744	4844.8
2153.77	4885.8
2157.793	4846.8
2161.812	4855.8
2165.827	4762.8
2169.838	4703.8
2173.846	4680.8
2177.851	4687.8
2181.851	4593.8
2185.848	4704.8
2189.841	4413.8
2193.831	4527.8
2197.817	4378.8
2201.799	4369.8
2205.778	4355.8
2209.753	4303.8
2213.725	4301.8
2217.693	4255.8
2221.657	4216.8
2225.618	4172.8
2229.575	4193.8
2233.529	4183.8
2237.479	4133.8
2241.425	4180.8
2245.368	4156.8
2249.307	4129.8
2253.243	4128.8
2257.175	4107.8
2261.104	3983.8
2265.029	3899.8
2268.95	3914.8
2272.868	3791.8
2276.783	3775.8
2280.694	3634.8
2284.601	3614.8
2288.505	3604.8
2292.405	3533.8
2296.302	3568.8
2300.195	3534.8
2304.085	3510.8
2307.971	3522.8
2311.854	3438.8
2315.734	3408.8
2319.609	3438.8
2323.482	3443.8
2327.351	3303.8
2331.216	3396.8
2335.078	3314.8
2338.937	3305.8
2342.792	3316.8
2346.643	3201.8
2350.492	3246.8
2354.336	3249.8
2358.178	3191.8
2362.015	3218.8
2365.85	3319.8
2369.681	3226.8
2373.508	3246.8
2377.333	3172.8
2381.153	3240.8
2384.971	3236.8
2388.785	3201.8
2392.595	3267.8
2396.402	3241.8
2400.206	3300.8
2404.007	3253.8
2407.804	3192.8
2411.597	3108.8
2415.388	3133.8
2419.174	3087.8
2422.958	3077.8
2426.738	3090.8
2430.515	2913.8
2434.289	3041.8
2438.059	2984.8
2441.825	2974.8
2445.589	2898.8
2449.349	2926.8
2453.106	2885.8
2456.859	2869.8
2460.61	2864.8
2464.356	2824.8
2468.1	2805.8
2471.84	2825.8
2475.577	2798.8
2479.311	2731.8
2483.041	2710.8
2486.768	2613.8
2490.492	2555.8
2494.213	2855.8
2497.93	2669.8
2501.644	2671.8
2505.355	2710.8
2509.062	2578.8
2512.766	2660.8
2516.467	2675.8
2520.165	2622.8
2523.859	2615.8
2527.551	2446.8
2531.239	2622.8
2534.923	2498.8
2538.605	2644.8
2542.283	2532.8
2545.958	2584.8
2549.63	2493.8
2553.299	2473.8
2556.964	2504.8
2560.626	2451.8
2564.285	2407.8
2567.941	2526.8
2571.594	2482.8
2575.243	2322.8
2578.89	2486.8
2582.533	2502.8
2586.173	2391.8
2589.809	2396.8
2593.443	2470.8
2597.073	2431.8
2600.701	2267.8
2604.325	2330.8
2607.946	2344.8
2611.564	2269.8
2615.178	2208.8
2618.79	2238.8
2622.398	2260.8
2626.004	2276.8
2629.606	2227.8
2633.205	2339.8
2636.801	2241.8
2640.394	2172.8
2643.983	2104.8
2647.57	2169.8
2651.153	2134.8
2654.734	1990.8
2658.311	2132.8
2661.885	2150.8
2665.456	2027.8
2669.025	2002.8
2672.589	1899.8
2676.151	1917.8
2679.71	1799.8
2683.266	1788.8
2686.819	1866.8
2690.368	1862.8
2693.915	1839.8
2697.458	1880.8
2700.999	1764.8
2704.536	1758.8
2708.071	1770.8
2711.602	1729.8
2715.13	1623.8
2718.656	1659.8
2722.178	1566.8
2725.697	1621.8
2729.214	1511.8
2732.727	1537.8
2736.237	1637.8
2739.744	1545.8
2743.249	1534.8
2746.75	1574.8
2750.248	1645.8
2753.743	1631.8
2757.236	1601.8
2760.725	1645.8
2764.211	1741.8
2767.695	1619.8
2771.175	1613.8
2774.652	1681.8
2778.127	1695.8
2781.598	1617.8
2785.067	1617.8
2788.532	1654.8
2791.995	1736.8
2795.455	1584.8
2798.911	1618.8
2802.365	1691.8
2805.816	1583.8
2809.264	1592.8
2812.709	1594.8
2816.151	1700.8
2819.59	1710.8
2823.026	1678.8
2826.46	1652.8
2829.89	1686.8
2833.318	1794.8
2836.742	1658.8
2840.164	1724.8
2843.583	1724.8
2846.999	1742.8
2850.412	1687.8
2853.822	1735.8
2857.229	1725.8
2860.634	1684.8
2864.035	1787.8
2867.434	1784.8
2870.83	1651.8
2874.223	1833.8
2877.613	1721.8
2881	1919.8
2884.385	2019.8
2887.766	1936.8
2891.145	2042.8
2894.521	1960.8
2897.894	2001.8
2901.264	1931.8
2904.631	1966.8
2907.996	1991.8
2911.358	1966.8
2914.717	2018.8
2918.073	1983.8
2921.426	1942.8
2924.777	2089.8
2928.124	2063.8
2931.469	2046.8
2934.811	2153.8
2938.15	2151.8
2941.487	2170.8
2944.821	2090.8
2948.152	2225.8
2951.48	1948.8
2954.805	2171.8
2958.128	2129.8
2961.447	2207.8
2964.765	2121.8
2968.079	2216.8
2971.39	2189.8
2974.699	2198.8
2978.005	2181.8
2981.308	2277.8
2984.609	2317.8
2987.907	2286.8
2991.202	2399.8
2994.494	2377.8
2997.784	2391.8
3001.07	2408.8
3004.355	2442.8
3007.636	2527.8
3010.915	2577.8
3014.191	2617.8
3017.464	2651.8
3020.734	2687.8
3024.002	2725.8
3027.267	2741.8
3030.53	2784.8
3033.789	2813.8
3037.046	2928.8
3040.301	2898.8
3043.552	2957.8
3046.801	3032.8
3050.048	2992.8
3053.291	3032.8
3056.532	3249.8
3059.771	3281.8
3063.006	3317.8
3066.239	3339.8
3069.469	3504.8
3072.697	3623.8
3075.922	3694.8
3079.144	3732.8
3082.364	3859.8
3085.581	4050.8
3088.795	4067.8
3092.007	4169.8
3095.216	4358.8
3098.423	4472.8
3101.627	4654.8
3104.828	4830.8
3108.026	4848.8
3111.222	4888.8
3114.416	4904.8
3117.607	5099.8
3120.795	5196.8
3123.98	5257.8
3127.163	5447.8
3130.344	5472.8
3133.521	5537.8
3136.696	5696.8
3139.869	5786.8
3143.039	5912.8
3146.206	6051.8
3149.371	6107.8
3152.533	6281.8
3155.693	6342.8
3158.85	6431.8
3162.005	6462.8
3165.157	6535.8
3168.306	6585.8
3171.453	6599.8
3174.597	6714.8
3177.739	6720.8
3180.878	6661.8
3184.014	6638.8
3187.149	6720.8
3190.28	6614.8
3193.409	6627.8
3196.536	6590.8
3199.659	6569.8
3202.781	6556.8
3205.9	6670.8
3209.016	6604.8
3212.13	6660.8
3215.241	6537.8
3218.35	6643.8
3221.456	6681.8
3224.56	6696.8
3227.661	6670.8
3230.76	6778.8
3233.856	6751.8
3236.95	6673.8
3240.041	6770.8
3243.13	6561.8
3246.216	6552.8
3249.3	6363.8
3252.382	6513.8
3255.46	6490.8
3258.537	6541.8
3261.611	6403.8
3264.682	6259.8
3267.751	6254.8
3270.818	6281.8
3273.882	6062.8
3276.943	6057.8
3280.002	5971.8
3283.059	5959.8
3286.113	5996.8
3289.165	5988.8
3292.214	5943.8
3295.261	5773.8
3298.306	5785.8
3301.348	5683.8
3304.387	5628.8
3307.425	5516.8
3310.459	5497.8
3313.492	5342.8
3316.521	5273.8
3319.549	5191.8
3322.574	5088.8
3325.597	5059.8
3328.617	5018.8
3331.635	4944.8
3334.65	4990.8
3337.663	4888.8
3340.674	4855.8
3343.682	4739.8
3346.688	4715.8
3349.691	4752.8
3352.692	4788.8
3355.691	4646.8
3358.687	4666.8
3361.681	4755.8
3364.673	4632.8
3367.662	4587.8
3370.649	4660.8
3373.633	4615.8
3376.615	4559.8
3379.595	4557.8
3382.572	4469.8
3385.547	4319.8
3388.52	4410.8
3391.49	4328.8
3394.458	4256.8
3397.424	4132.8
3400.387	4204.8
3403.348	3930.8
3406.307	3920.8
3409.263	3938.8
3412.217	3794.8
3415.168	3818.8
3418.118	3772.8
3421.065	3713.8
3424.009	3604.8
3426.951	3617.8
3429.891	3377.8
3432.829	3509.8
3435.764	3497.8
3438.697	3495.8
3441.628	3335.8
3444.557	3326.8
3447.483	3290.8
3450.407	3137.8
3453.328	3081.8
3456.247	3086.8
3459.164	3019.8
3462.079	2885.8
3464.991	2835.8
3467.902	2693.8
3470.809	2710.8
3473.715	2601.8
3476.618	2519.8
3479.519	2431.8
3482.418	2454.8
3485.315	2239.8
3488.209	2199.8
3491.101	2174.8
3493.99	2179.8
3496.878	1852.8
3499.763	1952.8
3502.646	1925.8
3505.527	1941.8
3508.405	1744.8
3511.281	1724.8
3514.155	1684.8
3517.027	1661.8
3519.897	1693.8
3522.764	1505.8
3525.629	1512.8
3528.492	1437.8
3531.352	1323.8
3534.211	1312.8
3537.067	1384.8
3539.921	1257.8
3542.773	1222.8
3545.622	1115.8
3548.469	1127.8
3551.315	1048.8
3554.157	966.8
3556.998	869.8
3559.837	822.8
3562.673	761.8
3565.507	774.8
3568.339	755.8
3571.169	735.8
3573.996	687.8
3576.822	686.8
3579.645	632.8
3582.466	570.8
3585.285	570.8
3588.101	521.8
3590.916	517.8
3593.728	477.8
3596.538	483.8
3599.346	425.8
3602.152	404.8
3604.956	383.8
3607.757	394.8
3610.556	426.8
3613.354	310.8
3616.149	252.8
3618.942	238.8
3621.732	81.8
3624.521	248.8
3627.307	174.8
3630.092	143.8
3632.874	134.8
3635.654	158.8
3638.432	147.8
3641.208	94.8
3643.982	119.8
3646.753	75.8
3649.523	119.8
3652.29	69.8
3655.055	39.8
3657.818	-15.2
3660.579	67.8
3663.338	81.8
3666.095	-103.2
3668.849	14.8
3671.602	-44.2
3674.352	-32.2
3677.101	-41.2
3679.847	-142.2
3682.591	-62.2
3685.333	-78.2
3688.073	-130.2
3690.811	-94.2
3693.547	-107.2
3696.281	-127.2
3699.013	-187.2
3701.742	-218.2
3704.47	-80.2
3707.195	-172.2
3709.919	-213.2
3712.64	-179.2
3715.359	-325.2
3718.076	-218.2
3720.792	-206.2
3723.505	-188.2
3726.216	-235.2
3728.925	-208.2
3731.632	-160.2
3734.336	-195.2
3737.039	-232.2
3739.74	-251.2
3742.439	-71.2
3745.136	-263.2
3747.83	-249.2
3750.523	-245.2
3753.213	-609.2
3755.902	-232.2
3758.589	-284.2
3761.273	-245.2
3763.956	-357.2
3766.636	-268.2
3769.315	-232.2
3771.991	-191.2
3774.665	-235.2
3777.338	-221.2
3780.008	-213.2
3782.677	-265.2
3785.343	-164.2
3788.007	-179.2
3790.67	-310.2
3793.33	-255.2
3795.989	-293.2
3798.645	-306.2
3801.299	-198.2
3803.952	-334.2
3806.602	-326.2
3809.251	-240.2
3811.897	-266.2
3814.542	-290.2
3817.184	-293.2
3819.825	-292.2
3822.463	-285.2
3825.1	-322.2
3827.735	-240.2
3830.367	-303.2
3832.998	-344.2
3835.627	-400.2
3838.253	-333.2
3840.878	-282.2
3843.501	-391.2
3846.122	-309.2
3848.741	-307.2
3851.358	-291.2
3853.973	-271.2
3856.586	-302.2
3859.197	-362.2
3861.806	-350.2
3864.414	-281.2
3867.019	-295.2
3869.622	-408.2
3872.224	-386.2
3874.823	-270.2
3877.421	-229.2
3880.016	-254.2
3882.61	-142.2
3885.202	-227.2
3887.792	-241.2
3890.38	-316.2
3892.966	-295.2
3895.55	-288.2
3898.132	-284.2
3900.713	-372.2
3903.291	-325.2
3905.868	-314.2
3908.442	-337.2
3911.015	-327.2
3913.586	-327.2
3916.155	-344.2
3918.722	-309.2
3921.287	-349.2
3923.85	-321.2
3926.411	-379.2
3928.971	-383.2
3931.528	-380.2
3934.084	-357.2
3936.638	-364.2
3939.19	-421.2
3941.74	-337.2
3944.288	-380.2
3946.834	-388.2
3949.378	-314.2
3951.921	-343.2
3954.462	-359.2
3957	-351.2
3959.537	-346.2
3962.072	-313.2
3964.606	-263.2
3967.137	-352.2
3969.667	-380.2
3972.194	-340.2
3974.72	-334.2
3977.244	-313.2
3979.766	-314.2
3982.286	-260.2
3984.805	-344.2
3987.321	-342.2
3989.836	-307.2
3992.349	-285.2
3994.86	-315.2
3997.369	-300.2
3999.877	-363.2
4002.382	-328.2
4004.886	-335.2
4007.388	-353.2
4009.888	-193.2
4012.386	-407.2
4014.883	-332.2
4017.377	-327.2
4019.87	-478.2
4022.361	-329.2
4024.85	-313.2
4027.338	-210.2
4029.823	-345.2
4032.307	-349.2
4034.789	-305.2
4037.269	-287.2
4039.747	-284.2
4042.224	-354.2
4044.699	-315.2
4047.172	-346.2
4049.643	-346.2
4052.112	-253.2
4054.58	-307.2
4057.046	-288.2
4059.51	-268.2
4061.972	-296.2
4064.432	-266.2
4066.891	-359.2
4069.348	-275.2
4071.803	-362.2
4074.256	-381.2
4076.708	-269.2
4079.158	-337.2
4081.606	-322.2
4084.052	-287.2
4086.497	-376.2
4088.939	-248.2
4091.38	-316.2
4093.819	-363.2
4096.257	-870.2
4098.693	-863.2
4101.127	-893.2
4103.559	-927.2
4105.989	30.8
4108.418	-46.2
4110.845	46.8
4113.27	-59.2
4115.694	-10.2
4118.115	74.8
4120.535	-340.2
4122.954	-441.2
4125.37	-407.2
4127.785	-329.2
4130.198	-362.2
4132.609	-357.2
4135.019	-920.2
4137.427	-931.2
4139.833	-886.2
4142.237	-829.2
