Data from 2018-2-8_conc=5_RamanShift_02.txt Node
Date: Wed Feb 07 10:58:10 IST 2018
User: aro
Spectrometer: QEPB0276
Trigger mode: 0
Integration Time (sec): 3.000000E1
Scans to average: 1
Electric dark correction enabled: true
Nonlinearity correction enabled: false
Boxcar width: 0
XAxis mode: Raman Shifts
Number of Pixels in Spectrum: 1044
>>>>>Begin Spectral Data<<<<<
160.701	663.5
166.742	692.5
172.777	1177.5
178.805	2494.5
184.826	5341.5
190.841	10085.5
196.849	15921.5
202.85	20205.5
208.845	21701.5
214.833	21581.5
220.815	21326.5
226.789	21242.5
232.758	21112.5
238.719	20930.5
244.674	20812.5
250.623	20551.5
256.565	20186.5
262.5	19894.5
268.429	19249.5
274.351	19127.5
280.267	18985.5
286.176	18472.5
292.079	18385.5
297.975	18073.5
303.865	17981.5
309.748	17819.5
315.625	17784.5
321.495	17280.5
327.359	17336.5
333.217	17405.5
339.068	17402.5
344.912	17381.5
350.751	17391.5
356.583	17297.5
362.408	17236.5
368.227	17372.5
374.04	17475.5
379.847	17408.5
385.647	17576.5
391.44	17687.5
397.228	17828.5
403.009	17880.5
408.784	18060.5
414.553	18066.5
420.315	18092.5
426.071	18281.5
431.821	18230.5
437.565	18140.5
443.302	17992.5
449.033	17992.5
454.758	17890.5
460.477	17779.5
466.189	17668.5
471.896	17538.5
477.596	17420.5
483.29	17546.5
488.978	17529.5
494.66	17528.5
500.335	17481.5
506.005	17318.5
511.668	17065.5
517.325	16918.5
522.977	16749.5
528.622	16692.5
534.261	16540.5
539.894	16468.5
545.521	16506.5
551.141	16371.5
556.756	16121.5
562.365	15992.5
567.968	15916.5
573.565	15777.5
579.155	15629.5
584.74	15632.5
590.319	15479.5
595.892	15461.5
601.459	15371.5
607.02	15447.5
612.575	15421.5
618.124	15271.5
623.667	15449.5
629.204	15358.5
634.735	15404.5
640.261	15241.5
645.781	15477.5
651.294	15183.5
656.802	14922.5
662.304	14873.5
667.8	14678.5
673.29	14786.5
678.775	14565.5
684.254	14588.5
689.726	14722.5
695.193	14504.5
700.655	14549.5
706.11	14712.5
711.56	14521.5
717.004	14590.5
722.442	14817.5
727.874	14535.5
733.301	14579.5
738.722	14658.5
744.137	14432.5
749.547	14361.5
754.951	14337.5
760.349	14109.5
765.741	14075.5
771.128	14133.5
776.509	14085.5
781.885	14050.5
787.254	14016.5
792.618	14127.5
797.977	14252.5
803.33	14259.5
808.677	14272.5
814.019	14142.5
819.355	14172.5
824.686	14216.5
830.011	14238.5
835.33	13983.5
840.644	13742.5
845.952	13894.5
851.255	13598.5
856.552	13627.5
861.844	13442.5
867.13	13419.5
872.41	13394.5
877.686	13285.5
882.955	13345.5
888.219	13348.5
893.478	13468.5
898.731	13375.5
903.979	13315.5
909.221	13271.5
914.458	13280.5
919.69	13124.5
924.916	13120.5
930.136	12804.5
935.351	12784.5
940.561	12559.5
945.766	12615.5
950.965	12316.5
956.158	12530.5
961.347	12508.5
966.529	12523.5
971.707	12474.5
976.879	12489.5
982.046	12534.5
987.208	12565.5
992.364	12414.5
997.515	12391.5
1002.66	12284.5
1007.801	12357.5
1012.936	12333.5
1018.066	12486.5
1023.19	12136.5
1028.309	12052.5
1033.423	12182.5
1038.532	12211.5
1043.636	12453.5
1048.734	12417.5
1053.827	12513.5
1058.915	12543.5
1063.998	12290.5
1069.075	12205.5
1074.147	12011.5
1079.214	12105.5
1084.276	11713.5
1089.333	11738.5
1094.385	11661.5
1099.431	11662.5
1104.472	11653.5
1109.509	11809.5
1114.54	11882.5
1119.565	11894.5
1124.586	11825.5
1129.602	11878.5
1134.613	11822.5
1139.618	11753.5
1144.619	11498.5
1149.614	11399.5
1154.604	11318.5
1159.589	11300.5
1164.57	11045.5
1169.545	11056.5
1174.515	11127.5
1179.48	11201.5
1184.44	11196.5
1189.395	11339.5
1194.345	11465.5
1199.29	11388.5
1204.23	11546.5
1209.165	11430.5
1214.095	11322.5
1219.021	11181.5
1223.941	11212.5
1228.856	11208.5
1233.766	11204.5
1238.672	11142.5
1243.572	11014.5
1248.467	11028.5
1253.358	11189.5
1258.244	11246.5
1263.124	11131.5
1268	10954.5
1272.871	11039.5
1277.737	11002.5
1282.599	10740.5
1287.455	10653.5
1292.306	10443.5
1297.153	10503.5
1301.995	10313.5
1306.832	10294.5
1311.664	10268.5
1316.491	10387.5
1321.314	10344.5
1326.132	10264.5
1330.945	10216.5
1335.753	10135.5
1340.556	10078.5
1345.354	9985.5
1350.148	9840.5
1354.937	9693.5
1359.722	9681.5
1364.501	9367.5
1369.276	9192.5
1374.046	9241.5
1378.811	9283.5
1383.572	9333.5
1388.327	9057.5
1393.079	9504.5
1397.825	9576.5
1402.567	9579.5
1407.304	9529.5
1412.036	9567.5
1416.764	9387.5
1421.487	9726.5
1426.205	9430.5
1430.919	9308.5
1435.628	9220.5
1440.333	9087.5
1445.032	8965.5
1449.727	8887.5
1454.418	8943.5
1459.104	8939.5
1463.785	8855.5
1468.462	8840.5
1473.134	8828.5
1477.802	8674.5
1482.465	8829.5
1487.123	8360.5
1491.777	8552.5
1496.426	8451.5
1501.071	8279.5
1505.711	8278.5
1510.347	8276.5
1514.978	8310.5
1519.604	8362.5
1524.226	8462.5
1528.844	8741.5
1533.457	8475.5
1538.065	8718.5
1542.669	8737.5
1547.269	8837.5
1551.864	8731.5
1556.454	8936.5
1561.041	8856.5
1565.622	8899.5
1570.199	8612.5
1574.772	8635.5
1579.34	8350.5
1583.904	8600.5
1588.464	8577.5
1593.019	8599.5
1597.569	8732.5
1602.115	8748.5
1606.657	8759.5
1611.195	8741.5
1615.728	8846.5
1620.256	8896.5
1624.78	8996.5
1629.3	8954.5
1633.816	8814.5
1638.327	8729.5
1642.834	8727.5
1647.336	8676.5
1651.834	8518.5
1656.328	8580.5
1660.817	8457.5
1665.302	8520.5
1669.783	8556.5
1674.259	8347.5
1678.732	8056.5
1683.199	7901.5
1687.663	7878.5
1692.122	7544.5
1696.577	7295.5
1701.028	7278.5
1705.474	7228.5
1709.917	7126.5
1714.355	7131.5
1718.788	7045.5
1723.218	6990.5
1727.643	6788.5
1732.064	6687.5
1736.481	6745.5
1740.893	6566.5
1745.301	6390.5
1749.705	6594.5
1754.105	6140.5
1758.501	6200.5
1762.893	5929.5
1767.28	5950.5
1771.663	5758.5
1776.042	5575.5
1780.417	5542.5
1784.787	5355.5
1789.154	5367.5
1793.516	5428.5
1797.874	5461.5
1802.228	5490.5
1806.578	5759.5
1810.924	5554.5
1815.266	6426.5
1819.603	5674.5
1823.937	5719.5
1828.266	5640.5
1832.591	5619.5
1836.913	5523.5
1841.23	5518.5
1845.543	5550.5
1849.852	5348.5
1854.156	5405.5
1858.457	5400.5
1862.754	5122.5
1867.047	5244.5
1871.335	5125.5
1875.62	5067.5
1879.9	5063.5
1884.177	5272.5
1888.449	5072.5
1892.718	5156.5
1896.982	5043.5
1901.243	5240.5
1905.499	5165.5
1909.752	5032.5
1914	5176.5
1918.245	4958.5
1922.485	4981.5
1926.722	5001.5
1930.954	4992.5
1935.183	5044.5
1939.408	4988.5
1943.628	5061.5
1947.845	5033.5
1952.058	5149.5
1956.267	5144.5
1960.472	4988.5
1964.673	4869.5
1968.87	5107.5
1973.063	5144.5
1977.252	4973.5
1981.438	4901.5
1985.619	4843.5
1989.797	4861.5
1993.971	4753.5
1998.14	4615.5
2002.306	4646.5
2006.469	4625.5
2010.627	4599.5
2014.781	4653.5
2018.932	4655.5
2023.078	4448.5
2027.221	4456.5
2031.36	4506.5
2035.495	4562.5
2039.627	4464.5
2043.754	4369.5
2047.878	4348.5
2051.998	4415.5
2056.114	4344.5
2060.226	4378.5
2064.334	4320.5
2068.439	4166.5
2072.54	4240.5
2076.637	4406.5
2080.73	4251.5
2084.82	4203.5
2088.906	4358.5
2092.988	4193.5
2097.066	4420.5
2101.14	4177.5
2105.211	4314.5
2109.278	4274.5
2113.342	4275.5
2117.401	4409.5
2121.457	4313.5
2125.509	4346.5
2129.558	4101.5
2133.602	4239.5
2137.643	4152.5
2141.681	4114.5
2145.714	4067.5
2149.744	4017.5
2153.77	4046.5
2157.793	4017.5
2161.812	4142.5
2165.827	4120.5
2169.838	3808.5
2173.846	3942.5
2177.851	3901.5
2181.851	3774.5
2185.848	4026.5
2189.841	3742.5
2193.831	3873.5
2197.817	3617.5
2201.799	3667.5
2205.778	3761.5
2209.753	3695.5
2213.725	3647.5
2217.693	3625.5
2221.657	3642.5
2225.618	3529.5
2229.575	3539.5
2233.529	3423.5
2237.479	3561.5
2241.425	3496.5
2245.368	3650.5
2249.307	3537.5
2253.243	3524.5
2257.175	3545.5
2261.104	3395.5
2265.029	3300.5
2268.95	3347.5
2272.868	3288.5
2276.783	3322.5
2280.694	3097.5
2284.601	3106.5
2288.505	3137.5
2292.405	2953.5
2296.302	3119.5
2300.195	3025.5
2304.085	3189.5
2307.971	3004.5
2311.854	3093.5
2315.734	2976.5
2319.609	2964.5
2323.482	3131.5
2327.351	3002.5
2331.216	2971.5
2335.078	3015.5
2338.937	2994.5
2342.792	2955.5
2346.643	2948.5
2350.492	2918.5
2354.336	2977.5
2358.178	2852.5
2362.015	2884.5
2365.85	2982.5
2369.681	2982.5
2373.508	2860.5
2377.333	2739.5
2381.153	2961.5
2384.971	2916.5
2388.785	2908.5
2392.595	2910.5
2396.402	2894.5
2400.206	3007.5
2404.007	2970.5
2407.804	2858.5
2411.597	2819.5
2415.388	2913.5
2419.174	2866.5
2422.958	2791.5
2426.738	2765.5
2430.515	2634.5
2434.289	2825.5
2438.059	2832.5
2441.825	2773.5
2445.589	2557.5
2449.349	2788.5
2453.106	2617.5
2456.859	2636.5
2460.61	2572.5
2464.356	2623.5
2468.1	2550.5
2471.84	2619.5
2475.577	2671.5
2479.311	2557.5
2483.041	2463.5
2486.768	2366.5
2490.492	2211.5
2494.213	2706.5
2497.93	2611.5
2501.644	2500.5
2505.355	2588.5
2509.062	2371.5
2512.766	2503.5
2516.467	2468.5
2520.165	2425.5
2523.859	2583.5
2527.551	2282.5
2531.239	2497.5
2534.923	2418.5
2538.605	2503.5
2542.283	2354.5
2545.958	2421.5
2549.63	2312.5
2553.299	2293.5
2556.964	2176.5
2560.626	2396.5
2564.285	2293.5
2567.941	2381.5
2571.594	2278.5
2575.243	2228.5
2578.89	2382.5
2582.533	2379.5
2586.173	2358.5
2589.809	2256.5
2593.443	2544.5
2597.073	2326.5
2600.701	2150.5
2604.325	2247.5
2607.946	2247.5
2611.564	2178.5
2615.178	2082.5
2618.79	2142.5
2622.398	2240.5
2626.004	2211.5
2629.606	2119.5
2633.205	2392.5
2636.801	2142.5
2640.394	2114.5
2643.983	2112.5
2647.57	2118.5
2651.153	2079.5
2654.734	1945.5
2658.311	2137.5
2661.885	2060.5
2665.456	2122.5
2669.025	2068.5
2672.589	1982.5
2676.151	1854.5
2679.71	1867.5
2683.266	1867.5
2686.819	1908.5
2690.368	1841.5
2693.915	1764.5
2697.458	1936.5
2700.999	1741.5
2704.536	1782.5
2708.071	1752.5
2711.602	1726.5
2715.13	1762.5
2718.656	1759.5
2722.178	1667.5
2725.697	1757.5
2729.214	1463.5
2732.727	1606.5
2736.237	1660.5
2739.744	1637.5
2743.249	1706.5
2746.75	1740.5
2750.248	1733.5
2753.743	1724.5
2757.236	1693.5
2760.725	1669.5
2764.211	1815.5
2767.695	1703.5
2771.175	1655.5
2774.652	1621.5
2778.127	1717.5
2781.598	1632.5
2785.067	1682.5
2788.532	1717.5
2791.995	1637.5
2795.455	1715.5
2798.911	1621.5
2802.365	1739.5
2805.816	1627.5
2809.264	1615.5
2812.709	1732.5
2816.151	1684.5
2819.59	1814.5
2823.026	1826.5
2826.46	1806.5
2829.89	1734.5
2833.318	1975.5
2836.742	1814.5
2840.164	1722.5
2843.583	1835.5
2846.999	1850.5
2850.412	1736.5
2853.822	1873.5
2857.229	1695.5
2860.634	1806.5
2864.035	1877.5
2867.434	1718.5
2870.83	1816.5
2874.223	1871.5
2877.613	1770.5
2881	1965.5
2884.385	2032.5
2887.766	1975.5
2891.145	1913.5
2894.521	2032.5
2897.894	2128.5
2901.264	1779.5
2904.631	2077.5
2907.996	1983.5
2911.358	1974.5
2914.717	1996.5
2918.073	1963.5
2921.426	2011.5
2924.777	2169.5
2928.124	2097.5
2931.469	1940.5
2934.811	2279.5
2938.15	2136.5
2941.487	2132.5
2944.821	1827.5
2948.152	2284.5
2951.48	2166.5
2954.805	2127.5
2958.128	2055.5
2961.447	2215.5
2964.765	2062.5
2968.079	2205.5
2971.39	2157.5
2974.699	2184.5
2978.005	2197.5
2981.308	2189.5
2984.609	2372.5
2987.907	2241.5
2991.202	2310.5
2994.494	2321.5
2997.784	2006.5
3001.07	2242.5
3004.355	2322.5
3007.636	2380.5
3010.915	2359.5
3014.191	2441.5
3017.464	2476.5
3020.734	2437.5
3024.002	2534.5
3027.267	2581.5
3030.53	2576.5
3033.789	2628.5
3037.046	2792.5
3040.301	2734.5
3043.552	2819.5
3046.801	2953.5
3050.048	2710.5
3053.291	2682.5
3056.532	2812.5
3059.771	3036.5
3063.006	2991.5
3066.239	2991.5
3069.469	3084.5
3072.697	3328.5
3075.922	3323.5
3079.144	3426.5
3082.364	3463.5
3085.581	3596.5
3088.795	3369.5
3092.007	3641.5
3095.216	3805.5
3098.423	4006.5
3101.627	4141.5
3104.828	4115.5
3108.026	4200.5
3111.222	4269.5
3114.416	4214.5
3117.607	4364.5
3120.795	4469.5
3123.98	4561.5
3127.163	4739.5
3130.344	4707.5
3133.521	4778.5
3136.696	4768.5
3139.869	4889.5
3143.039	4988.5
3146.206	4963.5
3149.371	5113.5
3152.533	5210.5
3155.693	5351.5
3158.85	5400.5
3162.005	5400.5
3165.157	5547.5
3168.306	5540.5
3171.453	5401.5
3174.597	5696.5
3177.739	5679.5
3180.878	5525.5
3184.014	5533.5
3187.149	5604.5
3190.28	5585.5
3193.409	5522.5
3196.536	5471.5
3199.659	5495.5
3202.781	5468.5
3205.9	5639.5
3209.016	5531.5
3212.13	5507.5
3215.241	5437.5
3218.35	5457.5
3221.456	5599.5
3224.56	5693.5
3227.661	5606.5
3230.76	5785.5
3233.856	5580.5
3236.95	5527.5
3240.041	5648.5
3243.13	5426.5
3246.216	5475.5
3249.3	5346.5
3252.382	5314.5
3255.46	5429.5
3258.537	5866.5
3261.611	5322.5
3264.682	5265.5
3267.751	5168.5
3270.818	5348.5
3273.882	5082.5
3276.943	5049.5
3280.002	4961.5
3283.059	4996.5
3286.113	5195.5
3289.165	5107.5
3292.214	4978.5
3295.261	4776.5
3298.306	4953.5
3301.348	4856.5
3304.387	4768.5
3307.425	4688.5
3310.459	4774.5
3313.492	4435.5
3316.521	4525.5
3319.549	4492.5
3322.574	4394.5
3325.597	4343.5
3328.617	4321.5
3331.635	4258.5
3334.65	4301.5
3337.663	4263.5
3340.674	4256.5
3343.682	4142.5
3346.688	4171.5
3349.691	4166.5
3352.692	4269.5
3355.691	4080.5
3358.687	4085.5
3361.681	4045.5
3364.673	4074.5
3367.662	4054.5
3370.649	3787.5
3373.633	4100.5
3376.615	3982.5
3379.595	4143.5
3382.572	3905.5
3385.547	3919.5
3388.52	3930.5
3391.49	3789.5
3394.458	3821.5
3397.424	3707.5
3400.387	3838.5
3403.348	3504.5
3406.307	3513.5
3409.263	3605.5
3412.217	3356.5
3415.168	3397.5
3418.118	3385.5
3421.065	3334.5
3424.009	3166.5
3426.951	3371.5
3429.891	3322.5
3432.829	3237.5
3435.764	3235.5
3438.697	3169.5
3441.628	2857.5
3444.557	3086.5
3447.483	3132.5
3450.407	2868.5
3453.328	2751.5
3456.247	2843.5
3459.164	2921.5
3462.079	2646.5
3464.991	2622.5
3467.902	2650.5
3470.809	2532.5
3473.715	2421.5
3476.618	2342.5
3479.519	2291.5
3482.418	2427.5
3485.315	2289.5
3488.209	2159.5
3491.101	2077.5
3493.99	2233.5
3496.878	1839.5
3499.763	1898.5
3502.646	1876.5
3505.527	2028.5
3508.405	1826.5
3511.281	1737.5
3514.155	1832.5
3517.027	1781.5
3519.897	1956.5
3522.764	1653.5
3525.629	1754.5
3528.492	1638.5
3531.352	1503.5
3534.211	1477.5
3537.067	1569.5
3539.921	1494.5
3542.773	1402.5
3545.622	1324.5
3548.469	1464.5
3551.315	1370.5
3554.157	1236.5
3556.998	1215.5
3559.837	1097.5
3562.673	1000.5
3565.507	1163.5
3568.339	1016.5
3571.169	1063.5
3573.996	1009.5
3576.822	1064.5
3579.645	1070.5
3582.466	960.5
3585.285	892.5
3588.101	909.5
3590.916	886.5
3593.728	815.5
3596.538	849.5
3599.346	751.5
3602.152	921.5
3604.956	816.5
3607.757	640.5
3610.556	862.5
3613.354	713.5
3616.149	630.5
3618.942	652.5
3621.732	461.5
3624.521	738.5
3627.307	642.5
3630.092	618.5
3632.874	492.5
3635.654	623.5
3638.432	701.5
3641.208	553.5
3643.982	579.5
3646.753	541.5
3649.523	580.5
3652.29	612.5
3655.055	527.5
3657.818	451.5
3660.579	391.5
3663.338	648.5
3666.095	437.5
3668.849	656.5
3671.602	450.5
3674.352	586.5
3677.101	445.5
3679.847	341.5
3682.591	495.5
3685.333	538.5
3688.073	390.5
3690.811	500.5
3693.547	381.5
3696.281	428.5
3699.013	337.5
3701.742	394.5
3704.47	508.5
3707.195	338.5
3709.919	302.5
3712.64	329.5
3715.359	243.5
3718.076	168.5
3720.792	419.5
3723.505	328.5
3726.216	306.5
3728.925	408.5
3731.632	183.5
3734.336	417.5
3737.039	299.5
3739.74	368.5
3742.439	583.5
3745.136	375.5
3747.83	289.5
3750.523	286.5
3753.213	877.5
3755.902	314.5
3758.589	417.5
3761.273	348.5
3763.956	184.5
3766.636	335.5
3769.315	100.5
3771.991	395.5
3774.665	225.5
3777.338	440.5
3780.008	324.5
3782.677	309.5
3785.343	447.5
3788.007	668.5
3790.67	245.5
3793.33	262.5
3795.989	287.5
3798.645	238.5
3801.299	441.5
3803.952	271.5
3806.602	220.5
3809.251	242.5
3811.897	271.5
3814.542	327.5
3817.184	292.5
3819.825	348.5
3822.463	-9.5
3825.1	223.5
3827.735	285.5
3830.367	253.5
3832.998	83.5
3835.627	174.5
3838.253	180.5
3840.878	57.5
3843.501	80.5
3846.122	183.5
3848.741	145.5
3851.358	204.5
3853.973	412.5
3856.586	204.5
3859.197	229.5
3861.806	265.5
3864.414	332.5
3867.019	304.5
3869.622	167.5
3872.224	115.5
3874.823	355.5
3877.421	338.5
3880.016	366.5
3882.61	424.5
3885.202	413.5
3887.792	388.5
3890.38	182.5
3892.966	312.5
3895.55	240.5
3898.132	275.5
3900.713	173.5
3903.291	273.5
3905.868	273.5
3908.442	245.5
3911.015	207.5
3913.586	238.5
3916.155	227.5
3918.722	346.5
3921.287	233.5
3923.85	72.5
3926.411	164.5
3928.971	142.5
3931.528	218.5
3934.084	203.5
3936.638	269.5
3939.19	148.5
3941.74	232.5
3944.288	202.5
3946.834	193.5
3949.378	190.5
3951.921	333.5
3954.462	198.5
3957	180.5
3959.537	288.5
3962.072	335.5
3964.606	423.5
3967.137	142.5
3969.667	207.5
3972.194	251.5
3974.72	264.5
3977.244	377.5
3979.766	168.5
3982.286	316.5
3984.805	203.5
3987.321	94.5
3989.836	190.5
3992.349	226.5
3994.86	272.5
3997.369	244.5
3999.877	215.5
4002.382	253.5
4004.886	236.5
4007.388	343.5
4009.888	355.5
4012.386	184.5
4014.883	223.5
4017.377	294.5
4019.87	110.5
4022.361	310.5
4024.85	349.5
4027.338	377.5
4029.823	141.5
4032.307	234.5
4034.789	268.5
4037.269	258.5
4039.747	287.5
4042.224	174.5
4044.699	248.5
4047.172	250.5
4049.643	189.5
4052.112	277.5
4054.58	285.5
4057.046	227.5
4059.51	308.5
4061.972	161.5
4064.432	363.5
4066.891	129.5
4069.348	256.5
4071.803	174.5
4074.256	194.5
4076.708	292.5
4079.158	307.5
4081.606	92.5
4084.052	288.5
4086.497	96.5
4088.939	300.5
4091.38	292.5
4093.819	208.5
4096.257	-1246.5
4098.693	-1262.5
4101.127	-1297.5
4103.559	-1352.5
4105.989	453.5
4108.418	433.5
4110.845	622.5
4113.27	531.5
4115.694	552.5
4118.115	609.5
4120.535	183.5
4122.954	87.5
4125.37	58.5
4127.785	173.5
4130.198	171.5
4132.609	206.5
4135.019	-1362.5
4137.427	-1332.5
4139.833	-1272.5
4142.237	-1060.5
