Data from 2018-2-8_conc=6_RamanShift_10.txt Node
Date: Wed Feb 07 11:28:40 IST 2018
User: aro
Spectrometer: QEPB0276
Trigger mode: 0
Integration Time (sec): 3.000000E1
Scans to average: 1
Electric dark correction enabled: true
Nonlinearity correction enabled: false
Boxcar width: 0
XAxis mode: Raman Shifts
Number of Pixels in Spectrum: 1044
>>>>>Begin Spectral Data<<<<<
160.701	730.2
166.742	895.2
172.777	1331.2
178.805	2643.2
184.826	5433.2
190.841	10210.2
196.849	16133.2
202.85	20513.2
208.845	22090.2
214.833	21955.2
220.815	21666.2
226.789	21693.2
232.758	21543.2
238.719	21461.2
244.674	21298.2
250.623	20888.2
256.565	20593.2
262.5	20246.2
268.429	19691.2
274.351	19522.2
280.267	19471.2
286.176	18972.2
292.079	18694.2
297.975	18476.2
303.865	18347.2
309.748	18246.2
315.625	18169.2
321.495	17658.2
327.359	17737.2
333.217	17774.2
339.068	17807.2
344.912	17806.2
350.751	17809.2
356.583	17574.2
362.408	17642.2
368.227	17690.2
374.04	17758.2
379.847	17803.2
385.647	17933.2
391.44	18178.2
397.228	18145.2
403.009	18375.2
408.784	18142.2
414.553	18454.2
420.315	18492.2
426.071	18620.2
431.821	18635.2
437.565	18565.2
443.302	18306.2
449.033	18400.2
454.758	18228.2
460.477	18044.2
466.189	18058.2
471.896	17937.2
477.596	17821.2
483.29	17891.2
488.978	17794.2
494.66	17894.2
500.335	17784.2
506.005	17752.2
511.668	17436.2
517.325	17362.2
522.977	17105.2
528.622	17171.2
534.261	16963.2
539.894	16904.2
545.521	16814.2
551.141	16805.2
556.756	16469.2
562.365	16451.2
567.968	16433.2
573.565	16264.2
579.155	16129.2
584.74	16026.2
590.319	15864.2
595.892	15802.2
601.459	15822.2
607.02	15846.2
612.575	15889.2
618.124	15655.2
623.667	15900.2
629.204	15705.2
634.735	15795.2
640.261	15644.2
645.781	15882.2
651.294	15626.2
656.802	15384.2
662.304	15380.2
667.8	15073.2
673.29	15180.2
678.775	15038.2
684.254	15082.2
689.726	15185.2
695.193	14855.2
700.655	14981.2
706.11	15110.2
711.56	14901.2
717.004	14964.2
722.442	15331.2
727.874	14949.2
733.301	15051.2
738.722	15129.2
744.137	14819.2
749.547	14881.2
754.951	14758.2
760.349	14653.2
765.741	14487.2
771.128	14491.2
776.509	14531.2
781.885	14443.2
787.254	14426.2
792.618	14520.2
797.977	14667.2
803.33	14731.2
808.677	14777.2
814.019	14589.2
819.355	14704.2
824.686	14639.2
830.011	14649.2
835.33	14423.2
840.644	14236.2
845.952	14379.2
851.255	14086.2
856.552	14017.2
861.844	13961.2
867.13	13848.2
872.41	13816.2
877.686	13690.2
882.955	13777.2
888.219	13834.2
893.478	14019.2
898.731	13776.2
903.979	13719.2
909.221	13864.2
914.458	13707.2
919.69	13618.2
924.916	13492.2
930.136	13351.2
935.351	13259.2
940.561	13052.2
945.766	13030.2
950.965	12721.2
956.158	12997.2
961.347	13046.2
966.529	13019.2
971.707	12861.2
976.879	12956.2
982.046	12974.2
987.208	13045.2
992.364	12840.2
997.515	12919.2
1002.66	12709.2
1007.801	12796.2
1012.936	12867.2
1018.066	12928.2
1023.19	12592.2
1028.309	12531.2
1033.423	12694.2
1038.532	12675.2
1043.636	12891.2
1048.734	12747.2
1053.827	12981.2
1058.915	12933.2
1063.998	12745.2
1069.075	12644.2
1074.147	12422.2
1079.214	12613.2
1084.276	12188.2
1089.333	12220.2
1094.385	12179.2
1099.431	12189.2
1104.472	12118.2
1109.509	12262.2
1114.54	12344.2
1119.565	12383.2
1124.586	12282.2
1129.602	12278.2
1134.613	12313.2
1139.618	12267.2
1144.619	12025.2
1149.614	11866.2
1154.604	11843.2
1159.589	11779.2
1164.57	11505.2
1169.545	11473.2
1174.515	11526.2
1179.48	11646.2
1184.44	11697.2
1189.395	11808.2
1194.345	11974.2
1199.29	11873.2
1204.23	12001.2
1209.165	11938.2
1214.095	11838.2
1219.021	11722.2
1223.941	11668.2
1228.856	11750.2
1233.766	11723.2
1238.672	11559.2
1243.572	11460.2
1248.467	11573.2
1253.358	11670.2
1258.244	11792.2
1263.124	11574.2
1268	11477.2
1272.871	11504.2
1277.737	11515.2
1282.599	11286.2
1287.455	11174.2
1292.306	10856.2
1297.153	11020.2
1301.995	10809.2
1306.832	10718.2
1311.664	10751.2
1316.491	10845.2
1321.314	10840.2
1326.132	10738.2
1330.945	10701.2
1335.753	10613.2
1340.556	10547.2
1345.354	10475.2
1350.148	10254.2
1354.937	10109.2
1359.722	10111.2
1364.501	9862.2
1369.276	9607.2
1374.046	9585.2
1378.811	9831.2
1383.572	9710.2
1388.327	9483.2
1393.079	9955.2
1397.825	10034.2
1402.567	10052.2
1407.304	9975.2
1412.036	10061.2
1416.764	9888.2
1421.487	10221.2
1426.205	9989.2
1430.919	9759.2
1435.628	9643.2
1440.333	9548.2
1445.032	9531.2
1449.727	9411.2
1454.418	9410.2
1459.104	9436.2
1463.785	9282.2
1468.462	9261.2
1473.134	9322.2
1477.802	9144.2
1482.465	9292.2
1487.123	8746.2
1491.777	9093.2
1496.426	8940.2
1501.071	8632.2
1505.711	8726.2
1510.347	8647.2
1514.978	8791.2
1519.604	8788.2
1524.226	8785.2
1528.844	9166.2
1533.457	8960.2
1538.065	9182.2
1542.669	9220.2
1547.269	9263.2
1551.864	9159.2
1556.454	9460.2
1561.041	9445.2
1565.622	9388.2
1570.199	9086.2
1574.772	9103.2
1579.34	8880.2
1583.904	9094.2
1588.464	9013.2
1593.019	8920.2
1597.569	9077.2
1602.115	8995.2
1606.657	9191.2
1611.195	9194.2
1615.728	9280.2
1620.256	9392.2
1624.78	9362.2
1629.3	9390.2
1633.816	9266.2
1638.327	9241.2
1642.834	9019.2
1647.336	9107.2
1651.834	8948.2
1656.328	9085.2
1660.817	8893.2
1665.302	9143.2
1669.783	8967.2
1674.259	8672.2
1678.732	8568.2
1683.199	8417.2
1687.663	8430.2
1692.122	8018.2
1696.577	7823.2
1701.028	7691.2
1705.474	7639.2
1709.917	7512.2
1714.355	7484.2
1718.788	7407.2
1723.218	7415.2
1727.643	7227.2
1732.064	7105.2
1736.481	7221.2
1740.893	6960.2
1745.301	6863.2
1749.705	6983.2
1754.105	6541.2
1758.501	6604.2
1762.893	6356.2
1767.28	6351.2
1771.663	6170.2
1776.042	5984.2
1780.417	5968.2
1784.787	5724.2
1789.154	5740.2
1793.516	5760.2
1797.874	5747.2
1802.228	6014.2
1806.578	6069.2
1810.924	5861.2
1815.266	7372.2
1819.603	6063.2
1823.937	6099.2
1828.266	6020.2
1832.591	5967.2
1836.913	5841.2
1841.23	5939.2
1845.543	5948.2
1849.852	5773.2
1854.156	5800.2
1858.457	5769.2
1862.754	5505.2
1867.047	5671.2
1871.335	5463.2
1875.62	5447.2
1879.9	5442.2
1884.177	5657.2
1888.449	5451.2
1892.718	5473.2
1896.982	5383.2
1901.243	5609.2
1905.499	5522.2
1909.752	5390.2
1914	5586.2
1918.245	5297.2
1922.485	5305.2
1926.722	5352.2
1930.954	5393.2
1935.183	5417.2
1939.408	5347.2
1943.628	5385.2
1947.845	5378.2
1952.058	5515.2
1956.267	5382.2
1960.472	5290.2
1964.673	5368.2
1968.87	5503.2
1973.063	5513.2
1977.252	5300.2
1981.438	5241.2
1985.619	5230.2
1989.797	5124.2
1993.971	5079.2
1998.14	4978.2
2002.306	4985.2
2006.469	4953.2
2010.627	4969.2
2014.781	5000.2
2018.932	5046.2
2023.078	4736.2
2027.221	4791.2
2031.36	4826.2
2035.495	4904.2
2039.627	4829.2
2043.754	4753.2
2047.878	4729.2
2051.998	4738.2
2056.114	4723.2
2060.226	4684.2
2064.334	4647.2
2068.439	4517.2
2072.54	4531.2
2076.637	4769.2
2080.73	4607.2
2084.82	4521.2
2088.906	4646.2
2092.988	4553.2
2097.066	4778.2
2101.14	4504.2
2105.211	4630.2
2109.278	4664.2
2113.342	4644.2
2117.401	4714.2
2121.457	4663.2
2125.509	4688.2
2129.558	4517.2
2133.602	4568.2
2137.643	4530.2
2141.681	4490.2
2145.714	4460.2
2149.744	4291.2
2153.77	4434.2
2157.793	4326.2
2161.812	4539.2
2165.827	4475.2
2169.838	4069.2
2173.846	4286.2
2177.851	4151.2
2181.851	4074.2
2185.848	4308.2
2189.841	4099.2
2193.831	4184.2
2197.817	3936.2
2201.799	4016.2
2205.778	4121.2
2209.753	4026.2
2213.725	3957.2
2217.693	3966.2
2221.657	3953.2
2225.618	3829.2
2229.575	3860.2
2233.529	3763.2
2237.479	3797.2
2241.425	3764.2
2245.368	3978.2
2249.307	3803.2
2253.243	3809.2
2257.175	3843.2
2261.104	3766.2
2265.029	3631.2
2268.95	3616.2
2272.868	3564.2
2276.783	3623.2
2280.694	3421.2
2284.601	3433.2
2288.505	3440.2
2292.405	3259.2
2296.302	3440.2
2300.195	3289.2
2304.085	3423.2
2307.971	3317.2
2311.854	3372.2
2315.734	3247.2
2319.609	3303.2
2323.482	3465.2
2327.351	3286.2
2331.216	3233.2
2335.078	3197.2
2338.937	3275.2
2342.792	3299.2
2346.643	3228.2
2350.492	3212.2
2354.336	3218.2
2358.178	3172.2
2362.015	3130.2
2365.85	3261.2
2369.681	3245.2
2373.508	3202.2
2377.333	3020.2
2381.153	3237.2
2384.971	3283.2
2388.785	3238.2
2392.595	3257.2
2396.402	3247.2
2400.206	3302.2
2404.007	3289.2
2407.804	3223.2
2411.597	3086.2
2415.388	3240.2
2419.174	3198.2
2422.958	3153.2
2426.738	3132.2
2430.515	3045.2
2434.289	3117.2
2438.059	3119.2
2441.825	3089.2
2445.589	2840.2
2449.349	3101.2
2453.106	2935.2
2456.859	2937.2
2460.61	2873.2
2464.356	2935.2
2468.1	2931.2
2471.84	2966.2
2475.577	2934.2
2479.311	2847.2
2483.041	2811.2
2486.768	2649.2
2490.492	2498.2
2494.213	2820.2
2497.93	2843.2
2501.644	2838.2
2505.355	2895.2
2509.062	2648.2
2512.766	2794.2
2516.467	2757.2
2520.165	2719.2
2523.859	2909.2
2527.551	2489.2
2531.239	2741.2
2534.923	2725.2
2538.605	2737.2
2542.283	2688.2
2545.958	2705.2
2549.63	2647.2
2553.299	2562.2
2556.964	2480.2
2560.626	2647.2
2564.285	2573.2
2567.941	2631.2
2571.594	2609.2
2575.243	2455.2
2578.89	2640.2
2582.533	2655.2
2586.173	2583.2
2589.809	2589.2
2593.443	2896.2
2597.073	2610.2
2600.701	2404.2
2604.325	2528.2
2607.946	2551.2
2611.564	2510.2
2615.178	2361.2
2618.79	2451.2
2622.398	2625.2
2626.004	2487.2
2629.606	2406.2
2633.205	2623.2
2636.801	2454.2
2640.394	2343.2
2643.983	2364.2
2647.57	2427.2
2651.153	2360.2
2654.734	2210.2
2658.311	2576.2
2661.885	2342.2
2665.456	2263.2
2669.025	2260.2
2672.589	2285.2
2676.151	2087.2
2679.71	2081.2
2683.266	2259.2
2686.819	1923.2
2690.368	2081.2
2693.915	2088.2
2697.458	2194.2
2700.999	2012.2
2704.536	1998.2
2708.071	2078.2
2711.602	1959.2
2715.13	2031.2
2718.656	2064.2
2722.178	1918.2
2725.697	1999.2
2729.214	1714.2
2732.727	1814.2
2736.237	1918.2
2739.744	1884.2
2743.249	1978.2
2746.75	1936.2
2750.248	2027.2
2753.743	1942.2
2757.236	1959.2
2760.725	1893.2
2764.211	2164.2
2767.695	1969.2
2771.175	1975.2
2774.652	1874.2
2778.127	1959.2
2781.598	1889.2
2785.067	1934.2
2788.532	1941.2
2791.995	1924.2
2795.455	2008.2
2798.911	1898.2
2802.365	2089.2
2805.816	1874.2
2809.264	1816.2
2812.709	1999.2
2816.151	1891.2
2819.59	2113.2
2823.026	2062.2
2826.46	2075.2
2829.89	2032.2
2833.318	2225.2
2836.742	1936.2
2840.164	1998.2
2843.583	2115.2
2846.999	2113.2
2850.412	2023.2
2853.822	2228.2
2857.229	1931.2
2860.634	2064.2
2864.035	2168.2
2867.434	2002.2
2870.83	2097.2
2874.223	2171.2
2877.613	2008.2
2881	2247.2
2884.385	2312.2
2887.766	2240.2
2891.145	2200.2
2894.521	2332.2
2897.894	2352.2
2901.264	1983.2
2904.631	2286.2
2907.996	2236.2
2911.358	2217.2
2914.717	2361.2
2918.073	2276.2
2921.426	2274.2
2924.777	2494.2
2928.124	2391.2
2931.469	2280.2
2934.811	2574.2
2938.15	2345.2
2941.487	2388.2
2944.821	2065.2
2948.152	2463.2
2951.48	2461.2
2954.805	2450.2
2958.128	2307.2
2961.447	2484.2
2964.765	2224.2
2968.079	2542.2
2971.39	2364.2
2974.699	2427.2
2978.005	2455.2
2981.308	2455.2
2984.609	2648.2
2987.907	2493.2
2991.202	2624.2
2994.494	2563.2
2997.784	2239.2
3001.07	2506.2
3004.355	2572.2
3007.636	2608.2
3010.915	2709.2
3014.191	2738.2
3017.464	2757.2
3020.734	2659.2
3024.002	2793.2
3027.267	2827.2
3030.53	2825.2
3033.789	2921.2
3037.046	3033.2
3040.301	3023.2
3043.552	3026.2
3046.801	3192.2
3050.048	2932.2
3053.291	2896.2
3056.532	3084.2
3059.771	3238.2
3063.006	3245.2
3066.239	3319.2
3069.469	3363.2
3072.697	3642.2
3075.922	3656.2
3079.144	3666.2
3082.364	3640.2
3085.581	3897.2
3088.795	3639.2
3092.007	3889.2
3095.216	4129.2
3098.423	4317.2
3101.627	4474.2
3104.828	4472.2
3108.026	4574.2
3111.222	4535.2
3114.416	4496.2
3117.607	4634.2
3120.795	4712.2
3123.98	4855.2
3127.163	5052.2
3130.344	5054.2
3133.521	5133.2
3136.696	5032.2
3139.869	5240.2
3143.039	5356.2
3146.206	5259.2
3149.371	5487.2
3152.533	5544.2
3155.693	5720.2
3158.85	5764.2
3162.005	5744.2
3165.157	5813.2
3168.306	5900.2
3171.453	5764.2
3174.597	6040.2
3177.739	6025.2
3180.878	5906.2
3184.014	5965.2
3187.149	5953.2
3190.28	5905.2
3193.409	5856.2
3196.536	5823.2
3199.659	5867.2
3202.781	5772.2
3205.9	6043.2
3209.016	5911.2
3212.13	5833.2
3215.241	5794.2
3218.35	5847.2
3221.456	6000.2
3224.56	6060.2
3227.661	5959.2
3230.76	6172.2
3233.856	6007.2
3236.95	5964.2
3240.041	6090.2
3243.13	5774.2
3246.216	5889.2
3249.3	5740.2
3252.382	5696.2
3255.46	5868.2
3258.537	6252.2
3261.611	5836.2
3264.682	5582.2
3267.751	5584.2
3270.818	5771.2
3273.882	5460.2
3276.943	5413.2
3280.002	5344.2
3283.059	5434.2
3286.113	5409.2
3289.165	5510.2
3292.214	5394.2
3295.261	5195.2
3298.306	5363.2
3301.348	5225.2
3304.387	5166.2
3307.425	5073.2
3310.459	5096.2
3313.492	4823.2
3316.521	4840.2
3319.549	4800.2
3322.574	4760.2
3325.597	4664.2
3328.617	4680.2
3331.635	4590.2
3334.65	4727.2
3337.663	4601.2
3340.674	4575.2
3343.682	4413.2
3346.688	4489.2
3349.691	4466.2
3352.692	4563.2
3355.691	4353.2
3358.687	4412.2
3361.681	4342.2
3364.673	4396.2
3367.662	4322.2
3370.649	4100.2
3373.633	4353.2
3376.615	4161.2
3379.595	4420.2
3382.572	4228.2
3385.547	4175.2
3388.52	4263.2
3391.49	4168.2
3394.458	4106.2
3397.424	3917.2
3400.387	4108.2
3403.348	3760.2
3406.307	3831.2
3409.263	3896.2
3412.217	3680.2
3415.168	3668.2
3418.118	3661.2
3421.065	3656.2
3424.009	3465.2
3426.951	3631.2
3429.891	3604.2
3432.829	3533.2
3435.764	3468.2
3438.697	3510.2
3441.628	3119.2
3444.557	3379.2
3447.483	3347.2
3450.407	3086.2
3453.328	2981.2
3456.247	3178.2
3459.164	3212.2
3462.079	2872.2
3464.991	2884.2
3467.902	2829.2
3470.809	2794.2
3473.715	2711.2
3476.618	2587.2
3479.519	2547.2
3482.418	2700.2
3485.315	2516.2
3488.209	2431.2
3491.101	2267.2
3493.99	2315.2
3496.878	2088.2
3499.763	2180.2
3502.646	2088.2
3505.527	2235.2
3508.405	2149.2
3511.281	2028.2
3514.155	2056.2
3517.027	2003.2
3519.897	2149.2
3522.764	1854.2
3525.629	1972.2
3528.492	1802.2
3531.352	1685.2
3534.211	1672.2
3537.067	1790.2
3539.921	1678.2
3542.773	1655.2
3545.622	1576.2
3548.469	1628.2
3551.315	1556.2
3554.157	1415.2
3556.998	1392.2
3559.837	1242.2
3562.673	1165.2
3565.507	1377.2
3568.339	1172.2
3571.169	1285.2
3573.996	1202.2
3576.822	1080.2
3579.645	1173.2
3582.466	1136.2
3585.285	1040.2
3588.101	1056.2
3590.916	1119.2
3593.728	995.2
3596.538	1065.2
3599.346	927.2
3602.152	1091.2
3604.956	985.2
3607.757	850.2
3610.556	1045.2
3613.354	845.2
3616.149	837.2
3618.942	809.2
3621.732	664.2
3624.521	848.2
3627.307	815.2
3630.092	685.2
3632.874	644.2
3635.654	802.2
3638.432	899.2
3641.208	710.2
3643.982	743.2
3646.753	734.2
3649.523	724.2
3652.29	764.2
3655.055	781.2
3657.818	637.2
3660.579	603.2
3663.338	777.2
3666.095	624.2
3668.849	773.2
3671.602	617.2
3674.352	765.2
3677.101	595.2
3679.847	446.2
3682.591	678.2
3685.333	666.2
3688.073	581.2
3690.811	636.2
3693.547	574.2
3696.281	544.2
3699.013	457.2
3701.742	503.2
3704.47	646.2
3707.195	496.2
3709.919	460.2
3712.64	570.2
3715.359	471.2
3718.076	260.2
3720.792	603.2
3723.505	535.2
3726.216	375.2
3728.925	597.2
3731.632	360.2
3734.336	560.2
3737.039	493.2
3739.74	478.2
3742.439	617.2
3745.136	453.2
3747.83	397.2
3750.523	404.2
3753.213	-195.8
3755.902	432.2
3758.589	628.2
3761.273	552.2
3763.956	304.2
3766.636	529.2
3769.315	209.2
3771.991	558.2
3774.665	446.2
3777.338	589.2
3780.008	517.2
3782.677	240.2
3785.343	632.2
3788.007	663.2
3790.67	374.2
3793.33	372.2
3795.989	414.2
3798.645	366.2
3801.299	576.2
3803.952	435.2
3806.602	333.2
3809.251	502.2
3811.897	396.2
3814.542	438.2
3817.184	435.2
3819.825	459.2
3822.463	146.2
3825.1	408.2
3827.735	448.2
3830.367	475.2
3832.998	219.2
3835.627	379.2
3838.253	315.2
3840.878	245.2
3843.501	209.2
3846.122	343.2
3848.741	260.2
3851.358	361.2
3853.973	590.2
3856.586	450.2
3859.197	384.2
3861.806	375.2
3864.414	500.2
3867.019	429.2
3869.622	318.2
3872.224	340.2
3874.823	495.2
3877.421	415.2
3880.016	491.2
3882.61	605.2
3885.202	528.2
3887.792	517.2
3890.38	323.2
3892.966	469.2
3895.55	463.2
3898.132	434.2
3900.713	302.2
3903.291	409.2
3905.868	507.2
3908.442	354.2
3911.015	312.2
3913.586	410.2
3916.155	337.2
3918.722	513.2
3921.287	367.2
3923.85	196.2
3926.411	312.2
3928.971	291.2
3931.528	365.2
3934.084	389.2
3936.638	400.2
3939.19	334.2
3941.74	439.2
3944.288	309.2
3946.834	442.2
3949.378	296.2
3951.921	487.2
3954.462	402.2
3957	322.2
3959.537	419.2
3962.072	560.2
3964.606	565.2
3967.137	279.2
3969.667	393.2
3972.194	409.2
3974.72	398.2
3977.244	520.2
3979.766	324.2
3982.286	556.2
3984.805	333.2
3987.321	294.2
3989.836	369.2
3992.349	452.2
3994.86	384.2
3997.369	415.2
3999.877	344.2
4002.382	375.2
4004.886	352.2
4007.388	361.2
4009.888	516.2
4012.386	331.2
4014.883	376.2
4017.377	388.2
4019.87	271.2
4022.361	472.2
4024.85	471.2
4027.338	474.2
4029.823	329.2
4032.307	366.2
4034.789	444.2
4037.269	407.2
4039.747	424.2
4042.224	361.2
4044.699	510.2
4047.172	389.2
4049.643	362.2
4052.112	432.2
4054.58	446.2
4057.046	432.2
4059.51	508.2
4061.972	354.2
4064.432	549.2
4066.891	297.2
4069.348	442.2
4071.803	352.2
4074.256	351.2
4076.708	352.2
4079.158	474.2
4081.606	239.2
4084.052	425.2
4086.497	329.2
4088.939	477.2
4091.38	456.2
4093.819	329.2
4096.257	-1341.8
4098.693	-1473.8
4101.127	-1451.8
4103.559	-1512.8
4105.989	549.2
4108.418	506.2
4110.845	819.2
4113.27	583.2
4115.694	737.2
4118.115	743.2
4120.535	306.2
4122.954	282.2
4125.37	194.2
4127.785	333.2
4130.198	338.2
4132.609	298.2
4135.019	-1557.8
4137.427	-1444.8
4139.833	-1422.8
4142.237	-1174.8
