Data from 2018-2-8_conc=3_RamanShift_04.txt Node
Date: Wed Feb 07 10:10:40 IST 2018
User: aro
Spectrometer: QEPB0276
Trigger mode: 0
Integration Time (sec): 3.000000E1
Scans to average: 1
Electric dark correction enabled: true
Nonlinearity correction enabled: false
Boxcar width: 0
XAxis mode: Raman Shifts
Number of Pixels in Spectrum: 1044
>>>>>Begin Spectral Data<<<<<
160.701	388.9
166.742	516.9
172.777	985.9
178.805	2564.9
184.826	5936.9
190.841	11784.9
196.849	18934.9
202.85	24170.9
208.845	26138.9
214.833	25871.9
220.815	25486.9
226.789	25371.9
232.758	25233.9
238.719	25092.9
244.674	24866.9
250.623	24402.9
256.565	24020.9
262.5	23526.9
268.429	22868.9
274.351	22619.9
280.267	22408.9
286.176	21863.9
292.079	21611.9
297.975	21378.9
303.865	21124.9
309.748	20909.9
315.625	20793.9
321.495	20347.9
327.359	20397.9
333.217	20457.9
339.068	20322.9
344.912	20381.9
350.751	20341.9
356.583	20273.9
362.408	20272.9
368.227	20275.9
374.04	20392.9
379.847	20437.9
385.647	20549.9
391.44	20719.9
397.228	20788.9
403.009	20950.9
408.784	21094.9
414.553	21222.9
420.315	21363.9
426.071	21326.9
431.821	21240.9
437.565	21328.9
443.302	21066.9
449.033	21047.9
454.758	20875.9
460.477	20791.9
466.189	20681.9
471.896	20651.9
477.596	20466.9
483.29	20530.9
488.978	20382.9
494.66	20488.9
500.335	20442.9
506.005	20360.9
511.668	20119.9
517.325	20008.9
522.977	19824.9
528.622	19740.9
534.261	19589.9
539.894	19548.9
545.521	19410.9
551.141	19390.9
556.756	19156.9
562.365	19039.9
567.968	18896.9
573.565	18768.9
579.155	18531.9
584.74	18584.9
590.319	18442.9
595.892	18445.9
601.459	18403.9
607.02	18345.9
612.575	18441.9
618.124	18236.9
623.667	18356.9
629.204	18239.9
634.735	18341.9
640.261	18231.9
645.781	18254.9
651.294	18052.9
656.802	17882.9
662.304	17801.9
667.8	17523.9
673.29	17617.9
678.775	17455.9
684.254	17510.9
689.726	17541.9
695.193	17304.9
700.655	17329.9
706.11	17494.9
711.56	17329.9
717.004	17451.9
722.442	17264.9
727.874	17347.9
733.301	17384.9
738.722	17367.9
744.137	17188.9
749.547	17129.9
754.951	17016.9
760.349	16905.9
765.741	16739.9
771.128	16778.9
776.509	16737.9
781.885	16751.9
787.254	16734.9
792.618	16833.9
797.977	16849.9
803.33	16971.9
808.677	16988.9
814.019	16831.9
819.355	16882.9
824.686	16953.9
830.011	16870.9
835.33	16609.9
840.644	16444.9
845.952	16497.9
851.255	16314.9
856.552	16200.9
861.844	16099.9
867.13	15954.9
872.41	15957.9
877.686	15945.9
882.955	15938.9
888.219	16063.9
893.478	16114.9
898.731	15986.9
903.979	15899.9
909.221	15964.9
914.458	15812.9
919.69	15603.9
924.916	15538.9
930.136	15386.9
935.351	15392.9
940.561	15078.9
945.766	14974.9
950.965	14836.9
956.158	14907.9
961.347	14942.9
966.529	15015.9
971.707	14938.9
976.879	14886.9
982.046	15018.9
987.208	15004.9
992.364	14859.9
997.515	14855.9
1002.66	14684.9
1007.801	14786.9
1012.936	14599.9
1018.066	14729.9
1023.19	14586.9
1028.309	14420.9
1033.423	14602.9
1038.532	14592.9
1043.636	14826.9
1048.734	14769.9
1053.827	14876.9
1058.915	14854.9
1063.998	14734.9
1069.075	14671.9
1074.147	14360.9
1079.214	14399.9
1084.276	14116.9
1089.333	14048.9
1094.385	14017.9
1099.431	14098.9
1104.472	13893.9
1109.509	14056.9
1114.54	14154.9
1119.565	14283.9
1124.586	14132.9
1129.602	14211.9
1134.613	14139.9
1139.618	14029.9
1144.619	13847.9
1149.614	13668.9
1154.604	13577.9
1159.589	13429.9
1164.57	13266.9
1169.545	13368.9
1174.515	13298.9
1179.48	13428.9
1184.44	13496.9
1189.395	13626.9
1194.345	13681.9
1199.29	13659.9
1204.23	13787.9
1209.165	13691.9
1214.095	13614.9
1219.021	13493.9
1223.941	13370.9
1228.856	13427.9
1233.766	13427.9
1238.672	13348.9
1243.572	13310.9
1248.467	13321.9
1253.358	13403.9
1258.244	13495.9
1263.124	13312.9
1268	13244.9
1272.871	13190.9
1277.737	13235.9
1282.599	12916.9
1287.455	12783.9
1292.306	12629.9
1297.153	12630.9
1301.995	12553.9
1306.832	12393.9
1311.664	12410.9
1316.491	12483.9
1321.314	12434.9
1326.132	12367.9
1330.945	12320.9
1335.753	12207.9
1340.556	12051.9
1345.354	11920.9
1350.148	11685.9
1354.937	11476.9
1359.722	11508.9
1364.501	11274.9
1369.276	11141.9
1374.046	11215.9
1378.811	11342.9
1383.572	11408.9
1388.327	11155.9
1393.079	11653.9
1397.825	11683.9
1402.567	11605.9
1407.304	11675.9
1412.036	11642.9
1416.764	11547.9
1421.487	11672.9
1426.205	11466.9
1430.919	11162.9
1435.628	11062.9
1440.333	11018.9
1445.032	10867.9
1449.727	10878.9
1454.418	10861.9
1459.104	10804.9
1463.785	10573.9
1468.462	10651.9
1473.134	10644.9
1477.802	10419.9
1482.465	10526.9
1487.123	10188.9
1491.777	10316.9
1496.426	10212.9
1501.071	9996.9
1505.711	10104.9
1510.347	10087.9
1514.978	10194.9
1519.604	10296.9
1524.226	10406.9
1528.844	10675.9
1533.457	10579.9
1538.065	10675.9
1542.669	10699.9
1547.269	10798.9
1551.864	10832.9
1556.454	10849.9
1561.041	10769.9
1565.622	10756.9
1570.199	10495.9
1574.772	10588.9
1579.34	10321.9
1583.904	10486.9
1588.464	10454.9
1593.019	10380.9
1597.569	10559.9
1602.115	10605.9
1606.657	10736.9
1611.195	10665.9
1615.728	10793.9
1620.256	10863.9
1624.78	10846.9
1629.3	10862.9
1633.816	10653.9
1638.327	10626.9
1642.834	10589.9
1647.336	10509.9
1651.834	10418.9
1656.328	10474.9
1660.817	10354.9
1665.302	10443.9
1669.783	10372.9
1674.259	10270.9
1678.732	9952.9
1683.199	9696.9
1687.663	9570.9
1692.122	9243.9
1696.577	8981.9
1701.028	8929.9
1705.474	8904.9
1709.917	8813.9
1714.355	8869.9
1718.788	8727.9
1723.218	8635.9
1727.643	8410.9
1732.064	8236.9
1736.481	8290.9
1740.893	8084.9
1745.301	7958.9
1749.705	7921.9
1754.105	7578.9
1758.501	7565.9
1762.893	7280.9
1767.28	7159.9
1771.663	6928.9
1776.042	6861.9
1780.417	6704.9
1784.787	6523.9
1789.154	6614.9
1793.516	6554.9
1797.874	6762.9
1802.228	6858.9
1806.578	7056.9
1810.924	6970.9
1815.266	7411.9
1819.603	7005.9
1823.937	7005.9
1828.266	6900.9
1832.591	6863.9
1836.913	6752.9
1841.23	6745.9
1845.543	6793.9
1849.852	6555.9
1854.156	6606.9
1858.457	6486.9
1862.754	6264.9
1867.047	6378.9
1871.335	6279.9
1875.62	6180.9
1879.9	6202.9
1884.177	6323.9
1888.449	6247.9
1892.718	6203.9
1896.982	6196.9
1901.243	6284.9
1905.499	6309.9
1909.752	6203.9
1914	6283.9
1918.245	6177.9
1922.485	6136.9
1926.722	6233.9
1930.954	6190.9
1935.183	6235.9
1939.408	6210.9
1943.628	6279.9
1947.845	6257.9
1952.058	6326.9
1956.267	6222.9
1960.472	6177.9
1964.673	6202.9
1968.87	6308.9
1973.063	6199.9
1977.252	6156.9
1981.438	6110.9
1985.619	5940.9
1989.797	5913.9
1993.971	5863.9
1998.14	5673.9
2002.306	5770.9
2006.469	5647.9
2010.627	5632.9
2014.781	5627.9
2018.932	5644.9
2023.078	5511.9
2027.221	5446.9
2031.36	5554.9
2035.495	5526.9
2039.627	5548.9
2043.754	5437.9
2047.878	5325.9
2051.998	5415.9
2056.114	5325.9
2060.226	5313.9
2064.334	5267.9
2068.439	5102.9
2072.54	5152.9
2076.637	5319.9
2080.73	5250.9
2084.82	5226.9
2088.906	5273.9
2092.988	5194.9
2097.066	5392.9
2101.14	5224.9
2105.211	5317.9
2109.278	5338.9
2113.342	5366.9
2117.401	5437.9
2121.457	5355.9
2125.509	5312.9
2129.558	5128.9
2133.602	5229.9
2137.643	5105.9
2141.681	4984.9
2145.714	5066.9
2149.744	4957.9
2153.77	4993.9
2157.793	4892.9
2161.812	4951.9
2165.827	4943.9
2169.838	4748.9
2173.846	4783.9
2177.851	4763.9
2181.851	4657.9
2185.848	4672.9
2189.841	4561.9
2193.831	4631.9
2197.817	4435.9
2201.799	4421.9
2205.778	4455.9
2209.753	4461.9
2213.725	4420.9
2217.693	4376.9
2221.657	4355.9
2225.618	4272.9
2229.575	4279.9
2233.529	4199.9
2237.479	4255.9
2241.425	4171.9
2245.368	4334.9
2249.307	4238.9
2253.243	4221.9
2257.175	4247.9
2261.104	4093.9
2265.029	3979.9
2268.95	4071.9
2272.868	3961.9
2276.783	3902.9
2280.694	3742.9
2284.601	3720.9
2288.505	3730.9
2292.405	3719.9
2296.302	3680.9
2300.195	3688.9
2304.085	3718.9
2307.971	3620.9
2311.854	3585.9
2315.734	3525.9
2319.609	3548.9
2323.482	3649.9
2327.351	3506.9
2331.216	3506.9
2335.078	3491.9
2338.937	3496.9
2342.792	3481.9
2346.643	3376.9
2350.492	3368.9
2354.336	3385.9
2358.178	3287.9
2362.015	3343.9
2365.85	3410.9
2369.681	3399.9
2373.508	3367.9
2377.333	3373.9
2381.153	3419.9
2384.971	3399.9
2388.785	3362.9
2392.595	3432.9
2396.402	3478.9
2400.206	3438.9
2404.007	3458.9
2407.804	3346.9
2411.597	3252.9
2415.388	3336.9
2419.174	3240.9
2422.958	3222.9
2426.738	3202.9
2430.515	3122.9
2434.289	3246.9
2438.059	3221.9
2441.825	3148.9
2445.589	2967.9
2449.349	3144.9
2453.106	3009.9
2456.859	3003.9
2460.61	2967.9
2464.356	3009.9
2468.1	2939.9
2471.84	2983.9
2475.577	3018.9
2479.311	2912.9
2483.041	2919.9
2486.768	2775.9
2490.492	2628.9
2494.213	3005.9
2497.93	2859.9
2501.644	2883.9
2505.355	2916.9
2509.062	2864.9
2512.766	2812.9
2516.467	2883.9
2520.165	2830.9
2523.859	2867.9
2527.551	2601.9
2531.239	2749.9
2534.923	2801.9
2538.605	2833.9
2542.283	2683.9
2545.958	2792.9
2549.63	2718.9
2553.299	2671.9
2556.964	2680.9
2560.626	2728.9
2564.285	2619.9
2567.941	2738.9
2571.594	2723.9
2575.243	2672.9
2578.89	2699.9
2582.533	2646.9
2586.173	2614.9
2589.809	2606.9
2593.443	2738.9
2597.073	2626.9
2600.701	2526.9
2604.325	2600.9
2607.946	2517.9
2611.564	2528.9
2615.178	2449.9
2618.79	2465.9
2622.398	2570.9
2626.004	2519.9
2629.606	2420.9
2633.205	2559.9
2636.801	2417.9
2640.394	2394.9
2643.983	2346.9
2647.57	2405.9
2651.153	2296.9
2654.734	2217.9
2658.311	2392.9
2661.885	2299.9
2665.456	2163.9
2669.025	2216.9
2672.589	2205.9
2676.151	2154.9
2679.71	2146.9
2683.266	2260.9
2686.819	2109.9
2690.368	2000.9
2693.915	2041.9
2697.458	2053.9
2700.999	2003.9
2704.536	1983.9
2708.071	1971.9
2711.602	1907.9
2715.13	1930.9
2718.656	1925.9
2722.178	1845.9
2725.697	1796.9
2729.214	1605.9
2732.727	1755.9
2736.237	1810.9
2739.744	1784.9
2743.249	1862.9
2746.75	1873.9
2750.248	1927.9
2753.743	1901.9
2757.236	1852.9
2760.725	1870.9
2764.211	2121.9
2767.695	1860.9
2771.175	1863.9
2774.652	1812.9
2778.127	1874.9
2781.598	1842.9
2785.067	1886.9
2788.532	1885.9
2791.995	1832.9
2795.455	1817.9
2798.911	1803.9
2802.365	1919.9
2805.816	1807.9
2809.264	1788.9
2812.709	1872.9
2816.151	1774.9
2819.59	1990.9
2823.026	1938.9
2826.46	1947.9
2829.89	1919.9
2833.318	2123.9
2836.742	1945.9
2840.164	1946.9
2843.583	1958.9
2846.999	1998.9
2850.412	1939.9
2853.822	1990.9
2857.229	1929.9
2860.634	1974.9
2864.035	2040.9
2867.434	1938.9
2870.83	1956.9
2874.223	2105.9
2877.613	1941.9
2881	2175.9
2884.385	2285.9
2887.766	2156.9
2891.145	2145.9
2894.521	2227.9
2897.894	2288.9
2901.264	2011.9
2904.631	2290.9
2907.996	2262.9
2911.358	2223.9
2914.717	2265.9
2918.073	2207.9
2921.426	2214.9
2924.777	2364.9
2928.124	2348.9
2931.469	2261.9
2934.811	2488.9
2938.15	2355.9
2941.487	2425.9
2944.821	2350.9
2948.152	2504.9
2951.48	2448.9
2954.805	2423.9
2958.128	2413.9
2961.447	2447.9
2964.765	2354.9
2968.079	2548.9
2971.39	2453.9
2974.699	2505.9
2978.005	2462.9
2981.308	2537.9
2984.609	2614.9
2987.907	2527.9
2991.202	2599.9
2994.494	2668.9
2997.784	2335.9
3001.07	2632.9
3004.355	2694.9
3007.636	2721.9
3010.915	2811.9
3014.191	2831.9
3017.464	2867.9
3020.734	2811.9
3024.002	2974.9
3027.267	3049.9
3030.53	3027.9
3033.789	3060.9
3037.046	3235.9
3040.301	3148.9
3043.552	3240.9
3046.801	3286.9
3050.048	3208.9
3053.291	3178.9
3056.532	3406.9
3059.771	3553.9
3063.006	3480.9
3066.239	3583.9
3069.469	3687.9
3072.697	3913.9
3075.922	3908.9
3079.144	3953.9
3082.364	4042.9
3085.581	4276.9
3088.795	4236.9
3092.007	4384.9
3095.216	4589.9
3098.423	4766.9
3101.627	4890.9
3104.828	4954.9
3108.026	5004.9
3111.222	5097.9
3114.416	5062.9
3117.607	5263.9
3120.795	5339.9
3123.98	5453.9
3127.163	5605.9
3130.344	5622.9
3133.521	5749.9
3136.696	5885.9
3139.869	5988.9
3143.039	6080.9
3146.206	6058.9
3149.371	6251.9
3152.533	6408.9
3155.693	6488.9
3158.85	6600.9
3162.005	6606.9
3165.157	6694.9
3168.306	6785.9
3171.453	6661.9
3174.597	6902.9
3177.739	6880.9
3180.878	6816.9
3184.014	6815.9
3187.149	6884.9
3190.28	6817.9
3193.409	6782.9
3196.536	6798.9
3199.659	6744.9
3202.781	6761.9
3205.9	6890.9
3209.016	6804.9
3212.13	6869.9
3215.241	6712.9
3218.35	6840.9
3221.456	6862.9
3224.56	6935.9
3227.661	6924.9
3230.76	7031.9
3233.856	6960.9
3236.95	6826.9
3240.041	6933.9
3243.13	6728.9
3246.216	6837.9
3249.3	6615.9
3252.382	6580.9
3255.46	6739.9
3258.537	6965.9
3261.611	6559.9
3264.682	6505.9
3267.751	6406.9
3270.818	6476.9
3273.882	6263.9
3276.943	6295.9
3280.002	6207.9
3283.059	6152.9
3286.113	6178.9
3289.165	6204.9
3292.214	6181.9
3295.261	6011.9
3298.306	6050.9
3301.348	5916.9
3304.387	5896.9
3307.425	5790.9
3310.459	5758.9
3313.492	5538.9
3316.521	5518.9
3319.549	5465.9
3322.574	5399.9
3325.597	5261.9
3328.617	5249.9
3331.635	5171.9
3334.65	5185.9
3337.663	5164.9
3340.674	5127.9
3343.682	5039.9
3346.688	5019.9
3349.691	5020.9
3352.692	5069.9
3355.691	4882.9
3358.687	4979.9
3361.681	4929.9
3364.673	4925.9
3367.662	4887.9
3370.649	4809.9
3373.633	4853.9
3376.615	4811.9
3379.595	4911.9
3382.572	4876.9
3385.547	4695.9
3388.52	4696.9
3391.49	4556.9
3394.458	4578.9
3397.424	4441.9
3400.387	4537.9
3403.348	4209.9
3406.307	4261.9
3409.263	4259.9
3412.217	4133.9
3415.168	4125.9
3418.118	4024.9
3421.065	4000.9
3424.009	3869.9
3426.951	3946.9
3429.891	3732.9
3432.829	3823.9
3435.764	3843.9
3438.697	3769.9
3441.628	3629.9
3444.557	3628.9
3447.483	3658.9
3450.407	3418.9
3453.328	3243.9
3456.247	3379.9
3459.164	3355.9
3462.079	3165.9
3464.991	3139.9
3467.902	3054.9
3470.809	2978.9
3473.715	2886.9
3476.618	2840.9
3479.519	2712.9
3482.418	2748.9
3485.315	2551.9
3488.209	2543.9
3491.101	2524.9
3493.99	2531.9
3496.878	2157.9
3499.763	2210.9
3502.646	2190.9
3505.527	2208.9
3508.405	2071.9
3511.281	2019.9
3514.155	2033.9
3517.027	2017.9
3519.897	2042.9
3522.764	1790.9
3525.629	1849.9
3528.492	1741.9
3531.352	1825.9
3534.211	1614.9
3537.067	1656.9
3539.921	1530.9
3542.773	1495.9
3545.622	1404.9
3548.469	1443.9
3551.315	1401.9
3554.157	1278.9
3556.998	1165.9
3559.837	1129.9
3562.673	1029.9
3565.507	1145.9
3568.339	956.9
3571.169	1096.9
3573.996	939.9
3576.822	970.9
3579.645	960.9
3582.466	965.9
3585.285	879.9
3588.101	753.9
3590.916	848.9
3593.728	739.9
3596.538	791.9
3599.346	668.9
3602.152	752.9
3604.956	633.9
3607.757	514.9
3610.556	714.9
3613.354	546.9
3616.149	576.9
3618.942	566.9
3621.732	335.9
3624.521	573.9
3627.307	504.9
3630.092	493.9
3632.874	346.9
3635.654	444.9
3638.432	510.9
3641.208	364.9
3643.982	404.9
3646.753	285.9
3649.523	440.9
3652.29	379.9
3655.055	401.9
3657.818	239.9
3660.579	316.9
3663.338	387.9
3666.095	235.9
3668.849	411.9
3671.602	239.9
3674.352	364.9
3677.101	267.9
3679.847	153.9
3682.591	239.9
3685.333	243.9
3688.073	177.9
3690.811	248.9
3693.547	227.9
3696.281	249.9
3699.013	92.9
3701.742	131.9
3704.47	208.9
3707.195	113.9
3709.919	103.9
3712.64	129.9
3715.359	-6.1
3718.076	-71.1
3720.792	56.9
3723.505	15.9
3726.216	63.9
3728.925	98.9
3731.632	-38.1
3734.336	188.9
3737.039	49.9
3739.74	55.9
3742.439	96.9
3745.136	84.9
3747.83	57.9
3750.523	52.9
3753.213	-452.1
3755.902	79.9
3758.589	134.9
3761.273	100.9
3763.956	-36.1
3766.636	83.9
3769.315	-140.1
3771.991	115.9
3774.665	-107.1
3777.338	175.9
3780.008	94.9
3782.677	-129.1
3785.343	121.9
3788.007	86.9
3790.67	-28.1
3793.33	-29.1
3795.989	85.9
3798.645	-46.1
3801.299	93.9
3803.952	9.9
3806.602	-39.1
3809.251	54.9
3811.897	24.9
3814.542	-16.1
3817.184	22.9
3819.825	15.9
3822.463	-42.1
3825.1	8.9
3827.735	36.9
3830.367	1.9
3832.998	-177.1
3835.627	-77.1
3838.253	-59.1
3840.878	41.9
3843.501	-185.1
3846.122	-95.1
3848.741	-141.1
3851.358	-36.1
3853.973	100.9
3856.586	-37.1
3859.197	-74.1
3861.806	-51.1
3864.414	23.9
3867.019	-2.1
3869.622	-100.1
3872.224	-117.1
3874.823	72.9
3877.421	52.9
3880.016	40.9
3882.61	189.9
3885.202	153.9
3887.792	108.9
3890.38	-28.1
3892.966	-5.1
3895.55	-53.1
3898.132	-0.1
3900.713	-113.1
3903.291	-27.1
3905.868	-124.1
3908.442	3.9
3911.015	-84.1
3913.586	-59.1
3916.155	-21.1
3918.722	23.9
3921.287	-20.1
3923.85	-113.1
3926.411	-66.1
3928.971	-135.1
3931.528	-65.1
3934.084	-66.1
3936.638	-57.1
3939.19	-88.1
3941.74	-88.1
3944.288	-69.1
3946.834	-3.1
3949.378	-65.1
3951.921	18.9
3954.462	-26.1
3957	-88.1
3959.537	11.9
3962.072	37.9
3964.606	55.9
3967.137	-55.1
3969.667	-42.1
3972.194	-45.1
3974.72	-46.1
3977.244	55.9
3979.766	0.9
3982.286	62.9
3984.805	-88.1
3987.321	-103.1
3989.836	-61.1
3992.349	-6.1
3994.86	-19.1
3997.369	0.9
3999.877	-109.1
4002.382	-104.1
4004.886	-19.1
4007.388	-16.1
4009.888	103.9
4012.386	-87.1
4014.883	-9.1
4017.377	-16.1
4019.87	-174.1
4022.361	41.9
4024.85	-26.1
4027.338	-94.1
4029.823	-71.1
4032.307	-49.1
4034.789	-0.1
4037.269	-26.1
4039.747	52.9
4042.224	-94.1
4044.699	-10.1
4047.172	28.9
4049.643	-46.1
4052.112	84.9
4054.58	-57.1
4057.046	26.9
4059.51	26.9
4061.972	-71.1
4064.432	28.9
4066.891	-106.1
4069.348	-53.1
4071.803	-68.1
4074.256	-83.1
4076.708	-7.1
4079.158	-52.1
4081.606	-129.1
4084.052	2.9
4086.497	-64.1
4088.939	22.9
4091.38	-36.1
4093.819	-62.1
4096.257	-1101.1
4098.693	-1102.1
4101.127	-1140.1
4103.559	-1151.1
4105.989	124.9
4108.418	148.9
4110.845	331.9
4113.27	228.9
4115.694	365.9
4118.115	346.9
4120.535	-55.1
4122.954	-117.1
4125.37	-152.1
4127.785	-55.1
4130.198	-102.1
4132.609	-103.1
4135.019	-1189.1
4137.427	-1156.1
4139.833	-1114.1
4142.237	-997.1
