Data from 2018-2-8_conc=3_RamanShift_09.txt Node
Date: Wed Feb 07 10:15:10 IST 2018
User: aro
Spectrometer: QEPB0276
Trigger mode: 0
Integration Time (sec): 3.000000E1
Scans to average: 1
Electric dark correction enabled: true
Nonlinearity correction enabled: false
Boxcar width: 0
XAxis mode: Raman Shifts
Number of Pixels in Spectrum: 1044
>>>>>Begin Spectral Data<<<<<
160.701	446.2
166.742	596.2
172.777	1034.2
178.805	2584.2
184.826	5950.2
190.841	11887.2
196.849	19087.2
202.85	24436.2
208.845	26409.2
214.833	26273.2
220.815	25867.2
226.789	25750.2
232.758	25620.2
238.719	25534.2
244.674	25384.2
250.623	24886.2
256.565	24523.2
262.5	24002.2
268.429	23418.2
274.351	23187.2
280.267	22990.2
286.176	22473.2
292.079	22227.2
297.975	21903.2
303.865	21736.2
309.748	21632.2
315.625	21457.2
321.495	20982.2
327.359	21048.2
333.217	21050.2
339.068	20972.2
344.912	21041.2
350.751	20910.2
356.583	20855.2
362.408	20939.2
368.227	20864.2
374.04	21079.2
379.847	21074.2
385.647	21176.2
391.44	21423.2
397.228	21397.2
403.009	21688.2
408.784	21768.2
414.553	21899.2
420.315	21922.2
426.071	22064.2
431.821	21929.2
437.565	21883.2
443.302	21657.2
449.033	21735.2
454.758	21571.2
460.477	21423.2
466.189	21339.2
471.896	21276.2
477.596	21174.2
483.29	21189.2
488.978	21144.2
494.66	21188.2
500.335	21025.2
506.005	21018.2
511.668	20796.2
517.325	20597.2
522.977	20533.2
528.622	20445.2
534.261	20254.2
539.894	20186.2
545.521	20145.2
551.141	20045.2
556.756	19866.2
562.365	19708.2
567.968	19642.2
573.565	19466.2
579.155	19330.2
584.74	19214.2
590.319	19145.2
595.892	19101.2
601.459	19052.2
607.02	19056.2
612.575	19086.2
618.124	18920.2
623.667	19130.2
629.204	18912.2
634.735	19063.2
640.261	18862.2
645.781	18970.2
651.294	18718.2
656.802	18590.2
662.304	18429.2
667.8	18186.2
673.29	18211.2
678.775	18072.2
684.254	18118.2
689.726	18179.2
695.193	17959.2
700.655	17975.2
706.11	18186.2
711.56	18058.2
717.004	18095.2
722.442	18214.2
727.874	18009.2
733.301	17988.2
738.722	18041.2
744.137	17925.2
749.547	17740.2
754.951	17722.2
760.349	17545.2
765.741	17415.2
771.128	17359.2
776.509	17392.2
781.885	17338.2
787.254	17384.2
792.618	17372.2
797.977	17571.2
803.33	17552.2
808.677	17630.2
814.019	17536.2
819.355	17592.2
824.686	17648.2
830.011	17553.2
835.33	17235.2
840.644	17135.2
845.952	17102.2
851.255	16882.2
856.552	16802.2
861.844	16669.2
867.13	16654.2
872.41	16600.2
877.686	16523.2
882.955	16539.2
888.219	16669.2
893.478	16804.2
898.731	16645.2
903.979	16619.2
909.221	16608.2
914.458	16526.2
919.69	16349.2
924.916	16271.2
930.136	15975.2
935.351	16015.2
940.561	15704.2
945.766	15647.2
950.965	15447.2
956.158	15575.2
961.347	15615.2
966.529	15514.2
971.707	15628.2
976.879	15540.2
982.046	15672.2
987.208	15652.2
992.364	15494.2
997.515	15413.2
1002.66	15314.2
1007.801	15312.2
1012.936	15286.2
1018.066	15383.2
1023.19	15147.2
1028.309	15091.2
1033.423	15147.2
1038.532	15254.2
1043.636	15527.2
1048.734	15487.2
1053.827	15540.2
1058.915	15557.2
1063.998	15402.2
1069.075	15159.2
1074.147	14930.2
1079.214	14995.2
1084.276	14673.2
1089.333	14640.2
1094.385	14588.2
1099.431	14624.2
1104.472	14525.2
1109.509	14763.2
1114.54	14811.2
1119.565	14846.2
1124.586	14857.2
1129.602	14873.2
1134.613	14734.2
1139.618	14604.2
1144.619	14461.2
1149.614	14217.2
1154.604	14099.2
1159.589	14055.2
1164.57	13789.2
1169.545	13855.2
1174.515	13889.2
1179.48	13963.2
1184.44	14035.2
1189.395	14218.2
1194.345	14324.2
1199.29	14271.2
1204.23	14356.2
1209.165	14252.2
1214.095	14138.2
1219.021	14044.2
1223.941	13970.2
1228.856	13970.2
1233.766	13981.2
1238.672	13846.2
1243.572	13820.2
1248.467	13831.2
1253.358	13920.2
1258.244	13996.2
1263.124	13877.2
1268	13791.2
1272.871	13761.2
1277.737	13731.2
1282.599	13500.2
1287.455	13343.2
1292.306	13184.2
1297.153	13253.2
1301.995	13074.2
1306.832	12935.2
1311.664	12924.2
1316.491	12981.2
1321.314	12901.2
1326.132	12981.2
1330.945	12774.2
1335.753	12640.2
1340.556	12449.2
1345.354	12450.2
1350.148	12080.2
1354.937	11985.2
1359.722	11946.2
1364.501	11745.2
1369.276	11574.2
1374.046	11644.2
1378.811	11842.2
1383.572	11901.2
1388.327	11714.2
1393.079	12121.2
1397.825	12168.2
1402.567	12137.2
1407.304	12083.2
1412.036	12098.2
1416.764	12029.2
1421.487	12085.2
1426.205	11790.2
1430.919	11649.2
1435.628	11548.2
1440.333	11477.2
1445.032	11313.2
1449.727	11393.2
1454.418	11359.2
1459.104	11268.2
1463.785	11116.2
1468.462	11113.2
1473.134	11044.2
1477.802	10907.2
1482.465	10930.2
1487.123	10640.2
1491.777	10715.2
1496.426	10591.2
1501.071	10460.2
1505.711	10529.2
1510.347	10617.2
1514.978	10672.2
1519.604	10769.2
1524.226	10886.2
1528.844	11191.2
1533.457	11029.2
1538.065	11179.2
1542.669	11206.2
1547.269	11302.2
1551.864	11266.2
1556.454	11318.2
1561.041	11273.2
1565.622	11181.2
1570.199	10940.2
1574.772	10956.2
1579.34	10694.2
1583.904	10883.2
1588.464	10872.2
1593.019	10807.2
1597.569	11008.2
1602.115	10987.2
1606.657	11154.2
1611.195	11076.2
1615.728	11209.2
1620.256	11290.2
1624.78	11233.2
1629.3	11222.2
1633.816	11045.2
1638.327	10974.2
1642.834	10957.2
1647.336	10788.2
1651.834	10742.2
1656.328	10805.2
1660.817	10684.2
1665.302	10835.2
1669.783	10805.2
1674.259	10620.2
1678.732	10322.2
1683.199	10071.2
1687.663	9877.2
1692.122	9520.2
1696.577	9320.2
1701.028	9310.2
1705.474	9245.2
1709.917	9221.2
1714.355	9256.2
1718.788	9141.2
1723.218	9014.2
1727.643	8787.2
1732.064	8657.2
1736.481	8662.2
1740.893	8409.2
1745.301	8277.2
1749.705	8345.2
1754.105	7946.2
1758.501	7895.2
1762.893	7603.2
1767.28	7494.2
1771.663	7266.2
1776.042	7144.2
1780.417	7041.2
1784.787	6906.2
1789.154	6965.2
1793.516	6826.2
1797.874	7040.2
1802.228	7212.2
1806.578	7433.2
1810.924	7280.2
1815.266	7926.2
1819.603	7335.2
1823.937	7358.2
1828.266	7310.2
1832.591	7195.2
1836.913	7158.2
1841.23	7160.2
1845.543	7104.2
1849.852	6913.2
1854.156	6938.2
1858.457	6866.2
1862.754	6636.2
1867.047	6711.2
1871.335	6624.2
1875.62	6540.2
1879.9	6476.2
1884.177	6668.2
1888.449	6529.2
1892.718	6581.2
1896.982	6444.2
1901.243	6644.2
1905.499	6538.2
1909.752	6546.2
1914	6550.2
1918.245	6432.2
1922.485	6454.2
1926.722	6504.2
1930.954	6529.2
1935.183	6535.2
1939.408	6480.2
1943.628	6576.2
1947.845	6583.2
1952.058	6624.2
1956.267	6527.2
1960.472	6517.2
1964.673	6606.2
1968.87	6627.2
1973.063	6560.2
1977.252	6462.2
1981.438	6356.2
1985.619	6256.2
1989.797	6179.2
1993.971	6116.2
1998.14	5946.2
2002.306	5916.2
2006.469	5949.2
2010.627	5877.2
2014.781	5928.2
2018.932	5915.2
2023.078	5776.2
2027.221	5745.2
2031.36	5784.2
2035.495	5824.2
2039.627	5707.2
2043.754	5653.2
2047.878	5601.2
2051.998	5584.2
2056.114	5581.2
2060.226	5545.2
2064.334	5517.2
2068.439	5373.2
2072.54	5393.2
2076.637	5502.2
2080.73	5428.2
2084.82	5404.2
2088.906	5527.2
2092.988	5428.2
2097.066	5609.2
2101.14	5462.2
2105.211	5574.2
2109.278	5558.2
2113.342	5616.2
2117.401	5659.2
2121.457	5573.2
2125.509	5595.2
2129.558	5361.2
2133.602	5437.2
2137.643	5346.2
2141.681	5237.2
2145.714	5248.2
2149.744	5200.2
2153.77	5202.2
2157.793	5134.2
2161.812	5193.2
2165.827	5142.2
2169.838	5014.2
2173.846	4991.2
2177.851	4938.2
2181.851	4876.2
2185.848	4893.2
2189.841	4789.2
2193.831	4831.2
2197.817	4665.2
2201.799	4697.2
2205.778	4714.2
2209.753	4615.2
2213.725	4696.2
2217.693	4564.2
2221.657	4618.2
2225.618	4463.2
2229.575	4497.2
2233.529	4381.2
2237.479	4468.2
2241.425	4459.2
2245.368	4531.2
2249.307	4450.2
2253.243	4333.2
2257.175	4400.2
2261.104	4282.2
2265.029	4243.2
2268.95	4199.2
2272.868	4146.2
2276.783	4108.2
2280.694	3961.2
2284.601	3925.2
2288.505	3944.2
2292.405	3823.2
2296.302	3871.2
2300.195	3741.2
2304.085	3887.2
2307.971	3769.2
2311.854	3787.2
2315.734	3719.2
2319.609	3762.2
2323.482	3791.2
2327.351	3673.2
2331.216	3681.2
2335.078	3681.2
2338.937	3639.2
2342.792	3691.2
2346.643	3536.2
2350.492	3555.2
2354.336	3549.2
2358.178	3487.2
2362.015	3529.2
2365.85	3626.2
2369.681	3557.2
2373.508	3562.2
2377.333	3492.2
2381.153	3586.2
2384.971	3605.2
2388.785	3596.2
2392.595	3632.2
2396.402	3642.2
2400.206	3620.2
2404.007	3596.2
2407.804	3526.2
2411.597	3388.2
2415.388	3493.2
2419.174	3401.2
2422.958	3383.2
2426.738	3357.2
2430.515	3215.2
2434.289	3433.2
2438.059	3325.2
2441.825	3358.2
2445.589	3142.2
2449.349	3349.2
2453.106	3203.2
2456.859	3205.2
2460.61	3102.2
2464.356	3156.2
2468.1	3084.2
2471.84	3174.2
2475.577	3171.2
2479.311	3133.2
2483.041	3051.2
2486.768	2937.2
2490.492	2737.2
2494.213	2998.2
2497.93	3007.2
2501.644	3044.2
2505.355	3043.2
2509.062	2994.2
2512.766	3002.2
2516.467	3026.2
2520.165	2957.2
2523.859	3057.2
2527.551	2836.2
2531.239	2909.2
2534.923	2912.2
2538.605	2974.2
2542.283	2908.2
2545.958	2894.2
2549.63	2827.2
2553.299	2844.2
2556.964	2838.2
2560.626	2850.2
2564.285	2755.2
2567.941	2848.2
2571.594	2862.2
2575.243	2706.2
2578.89	2869.2
2582.533	2824.2
2586.173	2773.2
2589.809	2763.2
2593.443	2905.2
2597.073	2768.2
2600.701	2599.2
2604.325	2726.2
2607.946	2729.2
2611.564	2629.2
2615.178	2565.2
2618.79	2602.2
2622.398	2651.2
2626.004	2635.2
2629.606	2554.2
2633.205	2595.2
2636.801	2548.2
2640.394	2560.2
2643.983	2520.2
2647.57	2535.2
2651.153	2443.2
2654.734	2383.2
2658.311	2551.2
2661.885	2399.2
2665.456	2370.2
2669.025	2365.2
2672.589	2332.2
2676.151	2214.2
2679.71	2266.2
2683.266	2341.2
2686.819	2199.2
2690.368	2179.2
2693.915	2198.2
2697.458	2254.2
2700.999	2085.2
2704.536	2037.2
2708.071	2081.2
2711.602	2036.2
2715.13	2009.2
2718.656	2038.2
2722.178	1917.2
2725.697	1911.2
2729.214	1667.2
2732.727	1847.2
2736.237	1869.2
2739.744	1927.2
2743.249	1915.2
2746.75	1884.2
2750.248	2004.2
2753.743	2009.2
2757.236	1962.2
2760.725	1959.2
2764.211	2176.2
2767.695	1962.2
2771.175	1966.2
2774.652	1945.2
2778.127	1916.2
2781.598	1918.2
2785.067	1984.2
2788.532	1948.2
2791.995	1957.2
2795.455	1949.2
2798.911	1946.2
2802.365	2042.2
2805.816	1932.2
2809.264	1902.2
2812.709	2013.2
2816.151	1850.2
2819.59	2079.2
2823.026	2052.2
2826.46	2044.2
2829.89	2026.2
2833.318	2238.2
2836.742	2034.2
2840.164	2033.2
2843.583	2109.2
2846.999	2068.2
2850.412	2029.2
2853.822	2120.2
2857.229	1988.2
2860.634	2090.2
2864.035	2153.2
2867.434	2090.2
2870.83	1999.2
2874.223	2163.2
2877.613	2087.2
2881	2346.2
2884.385	2309.2
2887.766	2286.2
2891.145	2235.2
2894.521	2351.2
2897.894	2347.2
2901.264	2076.2
2904.631	2342.2
2907.996	2269.2
2911.358	2305.2
2914.717	2313.2
2918.073	2324.2
2921.426	2286.2
2924.777	2435.2
2928.124	2437.2
2931.469	2340.2
2934.811	2560.2
2938.15	2411.2
2941.487	2453.2
2944.821	2406.2
2948.152	2549.2
2951.48	2488.2
2954.805	2448.2
2958.128	2392.2
2961.447	2535.2
2964.765	2395.2
2968.079	2548.2
2971.39	2486.2
2974.699	2502.2
2978.005	2475.2
2981.308	2581.2
2984.609	2664.2
2987.907	2583.2
2991.202	2660.2
2994.494	2792.2
2997.784	2358.2
3001.07	2681.2
3004.355	2763.2
3007.636	2759.2
3010.915	2813.2
3014.191	2919.2
3017.464	2877.2
3020.734	2866.2
3024.002	2969.2
3027.267	3051.2
3030.53	3010.2
3033.789	3100.2
3037.046	3271.2
3040.301	3202.2
3043.552	3248.2
3046.801	3319.2
3050.048	3226.2
3053.291	3204.2
3056.532	3424.2
3059.771	3556.2
3063.006	3495.2
3066.239	3622.2
3069.469	3733.2
3072.697	3900.2
3075.922	3898.2
3079.144	4005.2
3082.364	4018.2
3085.581	4311.2
3088.795	4214.2
3092.007	4294.2
3095.216	4601.2
3098.423	4739.2
3101.627	4869.2
3104.828	4917.2
3108.026	5013.2
3111.222	5024.2
3114.416	5075.2
3117.607	5215.2
3120.795	5321.2
3123.98	5443.2
3127.163	5604.2
3130.344	5649.2
3133.521	5753.2
3136.696	5893.2
3139.869	5848.2
3143.039	6050.2
3146.206	6086.2
3149.371	6220.2
3152.533	6359.2
3155.693	6464.2
3158.85	6569.2
3162.005	6637.2
3165.157	6743.2
3168.306	6723.2
3171.453	6638.2
3174.597	6838.2
3177.739	6954.2
3180.878	6758.2
3184.014	6805.2
3187.149	6854.2
3190.28	6839.2
3193.409	6751.2
3196.536	6722.2
3199.659	6712.2
3202.781	6669.2
3205.9	6850.2
3209.016	6687.2
3212.13	6751.2
3215.241	6632.2
3218.35	6756.2
3221.456	6815.2
3224.56	6923.2
3227.661	6853.2
3230.76	6928.2
3233.856	6869.2
3236.95	6755.2
3240.041	6869.2
3243.13	6639.2
3246.216	6699.2
3249.3	6534.2
3252.382	6558.2
3255.46	6703.2
3258.537	6870.2
3261.611	6499.2
3264.682	6398.2
3267.751	6342.2
3270.818	6460.2
3273.882	6277.2
3276.943	6159.2
3280.002	6117.2
3283.059	6120.2
3286.113	6137.2
3289.165	6145.2
3292.214	6137.2
3295.261	5887.2
3298.306	6013.2
3301.348	5906.2
3304.387	5795.2
3307.425	5752.2
3310.459	5750.2
3313.492	5542.2
3316.521	5538.2
3319.549	5352.2
3322.574	5334.2
3325.597	5207.2
3328.617	5262.2
3331.635	4998.2
3334.65	5241.2
3337.663	5142.2
3340.674	5056.2
3343.682	4983.2
3346.688	4909.2
3349.691	4947.2
3352.692	5081.2
3355.691	4898.2
3358.687	4891.2
3361.681	4855.2
3364.673	4923.2
3367.662	4815.2
3370.649	4767.2
3373.633	4860.2
3376.615	4761.2
3379.595	4930.2
3382.572	4823.2
3385.547	4569.2
3388.52	4677.2
3391.49	4531.2
3394.458	4552.2
3397.424	4398.2
3400.387	4482.2
3403.348	4158.2
3406.307	4193.2
3409.263	4192.2
3412.217	4071.2
3415.168	4072.2
3418.118	4041.2
3421.065	4023.2
3424.009	3831.2
3426.951	3930.2
3429.891	3704.2
3432.829	3810.2
3435.764	3775.2
3438.697	3784.2
3441.628	3558.2
3444.557	3637.2
3447.483	3638.2
3450.407	3382.2
3453.328	3237.2
3456.247	3389.2
3459.164	3371.2
3462.079	3128.2
3464.991	3092.2
3467.902	3143.2
3470.809	2946.2
3473.715	2866.2
3476.618	2796.2
3479.519	2682.2
3482.418	2836.2
3485.315	2585.2
3488.209	2516.2
3491.101	2491.2
3493.99	2459.2
3496.878	2114.2
3499.763	2159.2
3502.646	2101.2
3505.527	2202.2
3508.405	2100.2
3511.281	1998.2
3514.155	2008.2
3517.027	2001.2
3519.897	2081.2
3522.764	1838.2
3525.629	1890.2
3528.492	1753.2
3531.352	1615.2
3534.211	1570.2
3537.067	1646.2
3539.921	1544.2
3542.773	1532.2
3545.622	1450.2
3548.469	1425.2
3551.315	1449.2
3554.157	1278.2
3556.998	1198.2
3559.837	1103.2
3562.673	995.2
3565.507	1062.2
3568.339	983.2
3571.169	1063.2
3573.996	992.2
3576.822	1003.2
3579.645	897.2
3582.466	921.2
3585.285	860.2
3588.101	745.2
3590.916	818.2
3593.728	763.2
3596.538	820.2
3599.346	722.2
3602.152	775.2
3604.956	688.2
3607.757	558.2
3610.556	714.2
3613.354	604.2
3616.149	606.2
3618.942	536.2
3621.732	380.2
3624.521	599.2
3627.307	523.2
3630.092	500.2
3632.874	343.2
3635.654	497.2
3638.432	523.2
3641.208	422.2
3643.982	399.2
3646.753	342.2
3649.523	413.2
3652.29	445.2
3655.055	377.2
3657.818	285.2
3660.579	349.2
3663.338	446.2
3666.095	247.2
3668.849	367.2
3671.602	303.2
3674.352	376.2
3677.101	271.2
3679.847	137.2
3682.591	300.2
3685.333	232.2
3688.073	187.2
3690.811	241.2
3693.547	241.2
3696.281	272.2
3699.013	94.2
3701.742	166.2
3704.47	239.2
3707.195	129.2
3709.919	109.2
3712.64	110.2
3715.359	61.2
3718.076	-72.8
3720.792	124.2
3723.505	117.2
3726.216	51.2
3728.925	135.2
3731.632	-42.8
3734.336	142.2
3737.039	56.2
3739.74	74.2
3742.439	100.2
3745.136	95.2
3747.83	59.2
3750.523	92.2
3753.213	-93.8
3755.902	52.2
3758.589	175.2
3761.273	109.2
3763.956	-85.8
3766.636	88.2
3769.315	-92.8
3771.991	137.2
3774.665	-110.8
3777.338	192.2
3780.008	62.2
3782.677	-95.8
3785.343	112.2
3788.007	91.2
3790.67	-11.8
3793.33	-17.8
3795.989	54.2
3798.645	-26.8
3801.299	105.2
3803.952	24.2
3806.602	-56.8
3809.251	10.2
3811.897	7.2
3814.542	46.2
3817.184	65.2
3819.825	10.2
3822.463	-48.8
3825.1	40.2
3827.735	41.2
3830.367	57.2
3832.998	-98.8
3835.627	-88.8
3838.253	-39.8
3840.878	-38.8
3843.501	-158.8
3846.122	-84.8
3848.741	-89.8
3851.358	-31.8
3853.973	134.2
3856.586	12.2
3859.197	-82.8
3861.806	-45.8
3864.414	43.2
3867.019	-11.8
3869.622	-72.8
3872.224	-105.8
3874.823	71.2
3877.421	40.2
3880.016	88.2
3882.61	184.2
3885.202	135.2
3887.792	127.2
3890.38	-50.8
3892.966	30.2
3895.55	8.2
3898.132	-24.8
3900.713	-81.8
3903.291	1.2
3905.868	-89.8
3908.442	-33.8
3911.015	5.2
3913.586	-35.8
3916.155	-3.8
3918.722	12.2
3921.287	6.2
3923.85	-136.8
3926.411	-101.8
3928.971	-60.8
3931.528	-87.8
3934.084	-33.8
3936.638	-26.8
3939.19	-136.8
3941.74	-14.8
3944.288	-76.8
3946.834	-13.8
3949.378	-51.8
3951.921	-7.8
3954.462	-0.8
3957	-92.8
3959.537	22.2
3962.072	81.2
3964.606	103.2
3967.137	8.2
3969.667	-9.8
3972.194	-25.8
3974.72	3.2
3977.244	66.2
3979.766	10.2
3982.286	73.2
3984.805	-80.8
3987.321	-99.8
3989.836	-51.8
3992.349	25.2
3994.86	-12.8
3997.369	-47.8
3999.877	-51.8
4002.382	-40.8
4004.886	-47.8
4007.388	-20.8
4009.888	89.2
4012.386	-76.8
4014.883	-25.8
4017.377	-45.8
4019.87	-146.8
4022.361	33.2
4024.85	21.2
4027.338	-57.8
4029.823	-79.8
4032.307	-27.8
4034.789	25.2
4037.269	70.2
4039.747	96.2
4042.224	-29.8
4044.699	-11.8
4047.172	-53.8
4049.643	-85.8
4052.112	76.2
4054.58	12.2
4057.046	1.2
4059.51	72.2
4061.972	-49.8
4064.432	136.2
4066.891	-135.8
4069.348	6.2
4071.803	-87.8
4074.256	-41.8
4076.708	22.2
4079.158	-42.8
4081.606	-111.8
4084.052	-2.8
4086.497	-54.8
4088.939	17.2
4091.38	-7.8
4093.819	-110.8
4096.257	-1123.8
4098.693	-1169.8
4101.127	-1200.8
4103.559	-1215.8
4105.989	125.2
4108.418	175.2
4110.845	385.2
4113.27	210.2
4115.694	347.2
4118.115	399.2
4120.535	-63.8
4122.954	-106.8
4125.37	-160.8
4127.785	18.2
4130.198	-35.8
4132.609	-92.8
4135.019	-1232.8
4137.427	-1221.8
4139.833	-1171.8
4142.237	-1034.8
