Data from 2018-2-8_conc=4_RamanShift_17.txt Node
Date: Wed Feb 07 10:46:40 IST 2018
User: aro
Spectrometer: QEPB0276
Trigger mode: 0
Integration Time (sec): 3.000000E1
Scans to average: 1
Electric dark correction enabled: true
Nonlinearity correction enabled: false
Boxcar width: 0
XAxis mode: Raman Shifts
Number of Pixels in Spectrum: 1044
>>>>>Begin Spectral Data<<<<<
160.701	499.5
166.742	599.5
172.777	1099.5
178.805	2612.5
184.826	6038.5
190.841	11917.5
196.849	19153.5
202.85	24501.5
208.845	26469.5
214.833	26295.5
220.815	25974.5
226.789	25713.5
232.758	25575.5
238.719	25563.5
244.674	25245.5
250.623	24807.5
256.565	24466.5
262.5	23917.5
268.429	23310.5
274.351	23038.5
280.267	22860.5
286.176	22307.5
292.079	22092.5
297.975	21730.5
303.865	21503.5
309.748	21394.5
315.625	21198.5
321.495	20724.5
327.359	20775.5
333.217	20868.5
339.068	20800.5
344.912	20727.5
350.751	20694.5
356.583	20681.5
362.408	20662.5
368.227	20600.5
374.04	20817.5
379.847	20812.5
385.647	20943.5
391.44	21244.5
397.228	21259.5
403.009	21389.5
408.784	21444.5
414.553	21579.5
420.315	21609.5
426.071	21726.5
431.821	21648.5
437.565	21581.5
443.302	21375.5
449.033	21459.5
454.758	21357.5
460.477	21061.5
466.189	21059.5
471.896	21010.5
477.596	20832.5
483.29	20941.5
488.978	20874.5
494.66	20872.5
500.335	20796.5
506.005	20741.5
511.668	20550.5
517.325	20449.5
522.977	20295.5
528.622	20239.5
534.261	19968.5
539.894	19892.5
545.521	19911.5
551.141	19704.5
556.756	19502.5
562.365	19346.5
567.968	19294.5
573.565	19203.5
579.155	19021.5
584.74	18936.5
590.319	18751.5
595.892	18781.5
601.459	18738.5
607.02	18668.5
612.575	18741.5
618.124	18617.5
623.667	18776.5
629.204	18610.5
634.735	18611.5
640.261	18539.5
645.781	18689.5
651.294	18410.5
656.802	18160.5
662.304	18132.5
667.8	17847.5
673.29	17925.5
678.775	17799.5
684.254	17742.5
689.726	17866.5
695.193	17644.5
700.655	17607.5
706.11	17809.5
711.56	17685.5
717.004	17646.5
722.442	17871.5
727.874	17685.5
733.301	17671.5
738.722	17746.5
744.137	17503.5
749.547	17470.5
754.951	17386.5
760.349	17242.5
765.741	17091.5
771.128	17031.5
776.509	17038.5
781.885	16989.5
787.254	16981.5
792.618	17094.5
797.977	17166.5
803.33	17280.5
808.677	17337.5
814.019	17188.5
819.355	17212.5
824.686	17191.5
830.011	17184.5
835.33	16910.5
840.644	16690.5
845.952	16817.5
851.255	16549.5
856.552	16538.5
861.844	16354.5
867.13	16340.5
872.41	16304.5
877.686	16126.5
882.955	16233.5
888.219	16305.5
893.478	16430.5
898.731	16241.5
903.979	16150.5
909.221	16245.5
914.458	16147.5
919.69	15964.5
924.916	15862.5
930.136	15600.5
935.351	15519.5
940.561	15277.5
945.766	15193.5
950.965	15044.5
956.158	15203.5
961.347	15224.5
966.529	15152.5
971.707	15204.5
976.879	15120.5
982.046	15188.5
987.208	15249.5
992.364	15073.5
997.515	15128.5
1002.66	14907.5
1007.801	15000.5
1012.936	14901.5
1018.066	14955.5
1023.19	14784.5
1028.309	14664.5
1033.423	14751.5
1038.532	14854.5
1043.636	15040.5
1048.734	14998.5
1053.827	15118.5
1058.915	15107.5
1063.998	14891.5
1069.075	14778.5
1074.147	14523.5
1079.214	14524.5
1084.276	14267.5
1089.333	14220.5
1094.385	14299.5
1099.431	14117.5
1104.472	14185.5
1109.509	14230.5
1114.54	14410.5
1119.565	14474.5
1124.586	14388.5
1129.602	14480.5
1134.613	14316.5
1139.618	14218.5
1144.619	14022.5
1149.614	13760.5
1154.604	13656.5
1159.589	13597.5
1164.57	13363.5
1169.545	13445.5
1174.515	13436.5
1179.48	13536.5
1184.44	13667.5
1189.395	13704.5
1194.345	13834.5
1199.29	13781.5
1204.23	13956.5
1209.165	13878.5
1214.095	13708.5
1219.021	13571.5
1223.941	13543.5
1228.856	13574.5
1233.766	13567.5
1238.672	13413.5
1243.572	13348.5
1248.467	13487.5
1253.358	13567.5
1258.244	13625.5
1263.124	13478.5
1268	13342.5
1272.871	13344.5
1277.737	13347.5
1282.599	13099.5
1287.455	12926.5
1292.306	12695.5
1297.153	12767.5
1301.995	12561.5
1306.832	12500.5
1311.664	12544.5
1316.491	12597.5
1321.314	12604.5
1326.132	12548.5
1330.945	12446.5
1335.753	12321.5
1340.556	12243.5
1345.354	12075.5
1350.148	11832.5
1354.937	11603.5
1359.722	11559.5
1364.501	11385.5
1369.276	11206.5
1374.046	11218.5
1378.811	11421.5
1383.572	11435.5
1388.327	11227.5
1393.079	11627.5
1397.825	11712.5
1402.567	11673.5
1407.304	11617.5
1412.036	11689.5
1416.764	11485.5
1421.487	11792.5
1426.205	11465.5
1430.919	11261.5
1435.628	11092.5
1440.333	11036.5
1445.032	10882.5
1449.727	10874.5
1454.418	10963.5
1459.104	10844.5
1463.785	10712.5
1468.462	10760.5
1473.134	10661.5
1477.802	10536.5
1482.465	10642.5
1487.123	10241.5
1491.777	10355.5
1496.426	10231.5
1501.071	10057.5
1505.711	10105.5
1510.347	10133.5
1514.978	10252.5
1519.604	10345.5
1524.226	10400.5
1528.844	10709.5
1533.457	10582.5
1538.065	10760.5
1542.669	10734.5
1547.269	10835.5
1551.864	10836.5
1556.454	10914.5
1561.041	10888.5
1565.622	10786.5
1570.199	10659.5
1574.772	10593.5
1579.34	10317.5
1583.904	10486.5
1588.464	10466.5
1593.019	10507.5
1597.569	10587.5
1602.115	10640.5
1606.657	10671.5
1611.195	10660.5
1615.728	10791.5
1620.256	10861.5
1624.78	10874.5
1629.3	10879.5
1633.816	10661.5
1638.327	10630.5
1642.834	10566.5
1647.336	10575.5
1651.834	10477.5
1656.328	10502.5
1660.817	10425.5
1665.302	10358.5
1669.783	10402.5
1674.259	10276.5
1678.732	9933.5
1683.199	9719.5
1687.663	9655.5
1692.122	9275.5
1696.577	8973.5
1701.028	8988.5
1705.474	8796.5
1709.917	8839.5
1714.355	8912.5
1718.788	8688.5
1723.218	8613.5
1727.643	8386.5
1732.064	8265.5
1736.481	8300.5
1740.893	8045.5
1745.301	7945.5
1749.705	8032.5
1754.105	7552.5
1758.501	7611.5
1762.893	7259.5
1767.28	7250.5
1771.663	6987.5
1776.042	6857.5
1780.417	6789.5
1784.787	6594.5
1789.154	6592.5
1793.516	6606.5
1797.874	6712.5
1802.228	6823.5
1806.578	7055.5
1810.924	6873.5
1815.266	7417.5
1819.603	6956.5
1823.937	7019.5
1828.266	6884.5
1832.591	6858.5
1836.913	6768.5
1841.23	6813.5
1845.543	6777.5
1849.852	6568.5
1854.156	6558.5
1858.457	6547.5
1862.754	6270.5
1867.047	6393.5
1871.335	6261.5
1875.62	6206.5
1879.9	6181.5
1884.177	6307.5
1888.449	6209.5
1892.718	6252.5
1896.982	6172.5
1901.243	6294.5
1905.499	6219.5
1909.752	6202.5
1914	6263.5
1918.245	6130.5
1922.485	6089.5
1926.722	6176.5
1930.954	6163.5
1935.183	6177.5
1939.408	6168.5
1943.628	6216.5
1947.845	6219.5
1952.058	6261.5
1956.267	6264.5
1960.472	6153.5
1964.673	6181.5
1968.87	6212.5
1973.063	6259.5
1977.252	6059.5
1981.438	6057.5
1985.619	5953.5
1989.797	5850.5
1993.971	5757.5
1998.14	5650.5
2002.306	5634.5
2006.469	5689.5
2010.627	5596.5
2014.781	5604.5
2018.932	5614.5
2023.078	5444.5
2027.221	5399.5
2031.36	5543.5
2035.495	5476.5
2039.627	5467.5
2043.754	5409.5
2047.878	5331.5
2051.998	5344.5
2056.114	5318.5
2060.226	5315.5
2064.334	5228.5
2068.439	5141.5
2072.54	5129.5
2076.637	5297.5
2080.73	5184.5
2084.82	5155.5
2088.906	5226.5
2092.988	5117.5
2097.066	5383.5
2101.14	5224.5
2105.211	5309.5
2109.278	5306.5
2113.342	5291.5
2117.401	5360.5
2121.457	5290.5
2125.509	5256.5
2129.558	5083.5
2133.602	5164.5
2137.643	5061.5
2141.681	5012.5
2145.714	5008.5
2149.744	4919.5
2153.77	4890.5
2157.793	4873.5
2161.812	4944.5
2165.827	4870.5
2169.838	4675.5
2173.846	4764.5
2177.851	4694.5
2181.851	4642.5
2185.848	4786.5
2189.841	4498.5
2193.831	4607.5
2197.817	4353.5
2201.799	4402.5
2205.778	4515.5
2209.753	4447.5
2213.725	4301.5
2217.693	4349.5
2221.657	4354.5
2225.618	4256.5
2229.575	4314.5
2233.529	4220.5
2237.479	4264.5
2241.425	4199.5
2245.368	4335.5
2249.307	4264.5
2253.243	4197.5
2257.175	4237.5
2261.104	4079.5
2265.029	3988.5
2268.95	4032.5
2272.868	3868.5
2276.783	3954.5
2280.694	3746.5
2284.601	3741.5
2288.505	3756.5
2292.405	3627.5
2296.302	3722.5
2300.195	3545.5
2304.085	3686.5
2307.971	3540.5
2311.854	3609.5
2315.734	3485.5
2319.609	3545.5
2323.482	3618.5
2327.351	3564.5
2331.216	3508.5
2335.078	3483.5
2338.937	3448.5
2342.792	3468.5
2346.643	3379.5
2350.492	3381.5
2354.336	3370.5
2358.178	3334.5
2362.015	3287.5
2365.85	3418.5
2369.681	3414.5
2373.508	3364.5
2377.333	3248.5
2381.153	3391.5
2384.971	3376.5
2388.785	3450.5
2392.595	3451.5
2396.402	3483.5
2400.206	3497.5
2404.007	3401.5
2407.804	3330.5
2411.597	3230.5
2415.388	3329.5
2419.174	3257.5
2422.958	3270.5
2426.738	3181.5
2430.515	3066.5
2434.289	3280.5
2438.059	3242.5
2441.825	3185.5
2445.589	3025.5
2449.349	3126.5
2453.106	3058.5
2456.859	3079.5
2460.61	2983.5
2464.356	3056.5
2468.1	2979.5
2471.84	3026.5
2475.577	3055.5
2479.311	2878.5
2483.041	2856.5
2486.768	2811.5
2490.492	2593.5
2494.213	2859.5
2497.93	2918.5
2501.644	2882.5
2505.355	2935.5
2509.062	2797.5
2512.766	2881.5
2516.467	2782.5
2520.165	2765.5
2523.859	2879.5
2527.551	2632.5
2531.239	2831.5
2534.923	2768.5
2538.605	2854.5
2542.283	2663.5
2545.958	2770.5
2549.63	2716.5
2553.299	2600.5
2556.964	2682.5
2560.626	2689.5
2564.285	2612.5
2567.941	2708.5
2571.594	2639.5
2575.243	2561.5
2578.89	2671.5
2582.533	2693.5
2586.173	2679.5
2589.809	2571.5
2593.443	2801.5
2597.073	2608.5
2600.701	2423.5
2604.325	2508.5
2607.946	2553.5
2611.564	2505.5
2615.178	2421.5
2618.79	2442.5
2622.398	2524.5
2626.004	2526.5
2629.606	2387.5
2633.205	2633.5
2636.801	2497.5
2640.394	2387.5
2643.983	2370.5
2647.57	2378.5
2651.153	2301.5
2654.734	2192.5
2658.311	2400.5
2661.885	2358.5
2665.456	2231.5
2669.025	2217.5
2672.589	2177.5
2676.151	2100.5
2679.71	2062.5
2683.266	2123.5
2686.819	2123.5
2690.368	2095.5
2693.915	2051.5
2697.458	2120.5
2700.999	1956.5
2704.536	2014.5
2708.071	1977.5
2711.602	1958.5
2715.13	1923.5
2718.656	1974.5
2722.178	1793.5
2725.697	1900.5
2729.214	1640.5
2732.727	1762.5
2736.237	1770.5
2739.744	1804.5
2743.249	1857.5
2746.75	1901.5
2750.248	1953.5
2753.743	1890.5
2757.236	1878.5
2760.725	1873.5
2764.211	2022.5
2767.695	1834.5
2771.175	1896.5
2774.652	1850.5
2778.127	1860.5
2781.598	1863.5
2785.067	1886.5
2788.532	1888.5
2791.995	1983.5
2795.455	1897.5
2798.911	1813.5
2802.365	1953.5
2805.816	1805.5
2809.264	1807.5
2812.709	1888.5
2816.151	1899.5
2819.59	1967.5
2823.026	1927.5
2826.46	1983.5
2829.89	1956.5
2833.318	2061.5
2836.742	1963.5
2840.164	1963.5
2843.583	1980.5
2846.999	2065.5
2850.412	1957.5
2853.822	2060.5
2857.229	1924.5
2860.634	2029.5
2864.035	2089.5
2867.434	1962.5
2870.83	2069.5
2874.223	2128.5
2877.613	2050.5
2881	2211.5
2884.385	2319.5
2887.766	2236.5
2891.145	2212.5
2894.521	2282.5
2897.894	2338.5
2901.264	2056.5
2904.631	2284.5
2907.996	2281.5
2911.358	2213.5
2914.717	2297.5
2918.073	2280.5
2921.426	2262.5
2924.777	2409.5
2928.124	2409.5
2931.469	2322.5
2934.811	2550.5
2938.15	2416.5
2941.487	2442.5
2944.821	2170.5
2948.152	2584.5
2951.48	2525.5
2954.805	2398.5
2958.128	2426.5
2961.447	2524.5
2964.765	2371.5
2968.079	2512.5
2971.39	2479.5
2974.699	2546.5
2978.005	2490.5
2981.308	2552.5
2984.609	2660.5
2987.907	2560.5
2991.202	2641.5
2994.494	2715.5
2997.784	2389.5
3001.07	2638.5
3004.355	2716.5
3007.636	2739.5
3010.915	2958.5
3014.191	2882.5
3017.464	2869.5
3020.734	2860.5
3024.002	3036.5
3027.267	3039.5
3030.53	3158.5
3033.789	3073.5
3037.046	3250.5
3040.301	3169.5
3043.552	3237.5
3046.801	3409.5
3050.048	3217.5
3053.291	3230.5
3056.532	3493.5
3059.771	3608.5
3063.006	3563.5
3066.239	3646.5
3069.469	3735.5
3072.697	3977.5
3075.922	4014.5
3079.144	4033.5
3082.364	4213.5
3085.581	4346.5
3088.795	4130.5
3092.007	4410.5
3095.216	4621.5
3098.423	4843.5
3101.627	4957.5
3104.828	5010.5
3108.026	5126.5
3111.222	5136.5
3114.416	5121.5
3117.607	5323.5
3120.795	5476.5
3123.98	5593.5
3127.163	5716.5
3130.344	5764.5
3133.521	5845.5
3136.696	5895.5
3139.869	6055.5
3143.039	6175.5
3146.206	6120.5
3149.371	6303.5
3152.533	6473.5
3155.693	6553.5
3158.85	6686.5
3162.005	6739.5
3165.157	6868.5
3168.306	6857.5
3171.453	6794.5
3174.597	7056.5
3177.739	6985.5
3180.878	6875.5
3184.014	6849.5
3187.149	6932.5
3190.28	6922.5
3193.409	6909.5
3196.536	6888.5
3199.659	6881.5
3202.781	6859.5
3205.9	6974.5
3209.016	6912.5
3212.13	6914.5
3215.241	6821.5
3218.35	6917.5
3221.456	6963.5
3224.56	7076.5
3227.661	7031.5
3230.76	7112.5
3233.856	7018.5
3236.95	6868.5
3240.041	6995.5
3243.13	6776.5
3246.216	6824.5
3249.3	6725.5
3252.382	6736.5
3255.46	6782.5
3258.537	6107.5
3261.611	6721.5
3264.682	6586.5
3267.751	6486.5
3270.818	6604.5
3273.882	6405.5
3276.943	6313.5
3280.002	6270.5
3283.059	6311.5
3286.113	6258.5
3289.165	6320.5
3292.214	6183.5
3295.261	6053.5
3298.306	6168.5
3301.348	6028.5
3304.387	5953.5
3307.425	5820.5
3310.459	5860.5
3313.492	5592.5
3316.521	5670.5
3319.549	5542.5
3322.574	5486.5
3325.597	5402.5
3328.617	5365.5
3331.635	5242.5
3334.65	5314.5
3337.663	5238.5
3340.674	5206.5
3343.682	5104.5
3346.688	5086.5
3349.691	5093.5
3352.692	5154.5
3355.691	5025.5
3358.687	4997.5
3361.681	4992.5
3364.673	5023.5
3367.662	4921.5
3370.649	4880.5
3373.633	4899.5
3376.615	4915.5
3379.595	4988.5
3382.572	4966.5
3385.547	4746.5
3388.52	4788.5
3391.49	4693.5
3394.458	4635.5
3397.424	4506.5
3400.387	4591.5
3403.348	4222.5
3406.307	4279.5
3409.263	4342.5
3412.217	4174.5
3415.168	4134.5
3418.118	4175.5
3421.065	4054.5
3424.009	3931.5
3426.951	4010.5
3429.891	3769.5
3432.829	3891.5
3435.764	3883.5
3438.697	3814.5
3441.628	3623.5
3444.557	3686.5
3447.483	3731.5
3450.407	3497.5
3453.328	3343.5
3456.247	3468.5
3459.164	3421.5
3462.079	3162.5
3464.991	3186.5
3467.902	3087.5
3470.809	3034.5
3473.715	2899.5
3476.618	2812.5
3479.519	2787.5
3482.418	2844.5
3485.315	2670.5
3488.209	2535.5
3491.101	2555.5
3493.99	2578.5
3496.878	2179.5
3499.763	2256.5
3502.646	2185.5
3505.527	2341.5
3508.405	2160.5
3511.281	2119.5
3514.155	2029.5
3517.027	1994.5
3519.897	2106.5
3522.764	1853.5
3525.629	1924.5
3528.492	1799.5
3531.352	1673.5
3534.211	1690.5
3537.067	1715.5
3539.921	1604.5
3542.773	1538.5
3545.622	1495.5
3548.469	1564.5
3551.315	1434.5
3554.157	1298.5
3556.998	1193.5
3559.837	1106.5
3562.673	1039.5
3565.507	1183.5
3568.339	1026.5
3571.169	1109.5
3573.996	1057.5
3576.822	997.5
3579.645	1029.5
3582.466	930.5
3585.285	923.5
3588.101	839.5
3590.916	915.5
3593.728	800.5
3596.538	844.5
3599.346	718.5
3602.152	806.5
3604.956	765.5
3607.757	635.5
3610.556	764.5
3613.354	625.5
3616.149	632.5
3618.942	556.5
3621.732	365.5
3624.521	592.5
3627.307	519.5
3630.092	524.5
3632.874	421.5
3635.654	510.5
3638.432	578.5
3641.208	414.5
3643.982	466.5
3646.753	407.5
3649.523	439.5
3652.29	395.5
3655.055	340.5
3657.818	364.5
3660.579	241.5
3663.338	474.5
3666.095	256.5
3668.849	487.5
3671.602	260.5
3674.352	401.5
3677.101	234.5
3679.847	165.5
3682.591	302.5
3685.333	350.5
3688.073	227.5
3690.811	306.5
3693.547	148.5
3696.281	234.5
3699.013	173.5
3701.742	204.5
3704.47	299.5
3707.195	164.5
3709.919	174.5
3712.64	180.5
3715.359	22.5
3718.076	-1.5
3720.792	130.5
3723.505	152.5
3726.216	113.5
3728.925	173.5
3731.632	-60.5
3734.336	252.5
3737.039	120.5
3739.74	103.5
3742.439	313.5
3745.136	104.5
3747.83	67.5
3750.523	53.5
3753.213	387.5
3755.902	70.5
3758.589	207.5
3761.273	177.5
3763.956	-34.5
3766.636	100.5
3769.315	-100.5
3771.991	179.5
3774.665	6.5
3777.338	206.5
3780.008	139.5
3782.677	108.5
3785.343	193.5
3788.007	237.5
3790.67	28.5
3793.33	0.5
3795.989	61.5
3798.645	-18.5
3801.299	206.5
3803.952	5.5
3806.602	11.5
3809.251	16.5
3811.897	75.5
3814.542	92.5
3817.184	60.5
3819.825	140.5
3822.463	-10.5
3825.1	55.5
3827.735	47.5
3830.367	26.5
3832.998	-135.5
3835.627	-62.5
3838.253	-38.5
3840.878	-156.5
3843.501	-93.5
3846.122	-37.5
3848.741	-57.5
3851.358	14.5
3853.973	174.5
3856.586	39.5
3859.197	-13.5
3861.806	3.5
3864.414	65.5
3867.019	4.5
3869.622	-15.5
3872.224	-163.5
3874.823	96.5
3877.421	14.5
3880.016	121.5
3882.61	224.5
3885.202	134.5
3887.792	121.5
3890.38	-11.5
3892.966	52.5
3895.55	67.5
3898.132	58.5
3900.713	-46.5
3903.291	25.5
3905.868	79.5
3908.442	6.5
3911.015	-18.5
3913.586	0.5
3916.155	-59.5
3918.722	56.5
3921.287	4.5
3923.85	-199.5
3926.411	-89.5
3928.971	-47.5
3931.528	-90.5
3934.084	16.5
3936.638	44.5
3939.19	-62.5
3941.74	-15.5
3944.288	-35.5
3946.834	-44.5
3949.378	-50.5
3951.921	84.5
3954.462	-55.5
3957	-41.5
3959.537	73.5
3962.072	99.5
3964.606	104.5
3967.137	-42.5
3969.667	-31.5
3972.194	35.5
3974.72	26.5
3977.244	72.5
3979.766	84.5
3982.286	130.5
3984.805	-39.5
3987.321	-82.5
3989.836	-15.5
3992.349	92.5
3994.86	1.5
3997.369	-25.5
3999.877	-41.5
4002.382	-17.5
4004.886	16.5
4007.388	34.5
4009.888	146.5
4012.386	-95.5
4014.883	-18.5
4017.377	37.5
4019.87	-119.5
4022.361	63.5
4024.85	137.5
4027.338	-7.5
4029.823	-7.5
4032.307	-13.5
4034.789	44.5
4037.269	52.5
4039.747	48.5
4042.224	4.5
4044.699	26.5
4047.172	24.5
4049.643	-15.5
4052.112	22.5
4054.58	36.5
4057.046	24.5
4059.51	92.5
4061.972	-44.5
4064.432	73.5
4066.891	-55.5
4069.348	56.5
4071.803	-28.5
4074.256	23.5
4076.708	33.5
4079.158	67.5
4081.606	-107.5
4084.052	18.5
4086.497	-69.5
4088.939	104.5
4091.38	32.5
4093.819	-50.5
4096.257	-1152.5
4098.693	-1173.5
4101.127	-1229.5
4103.559	-1270.5
4105.989	180.5
4108.418	173.5
4110.845	395.5
4113.27	349.5
4115.694	385.5
4118.115	390.5
4120.535	-50.5
4122.954	-97.5
4125.37	-125.5
4127.785	-10.5
4130.198	7.5
4132.609	-36.5
4135.019	-1277.5
4137.427	-1245.5
4139.833	-1216.5
4142.237	-1071.5
