Data from 2018-2-8_conc=5_RamanShift_05.txt Node
Date: Wed Feb 07 11:00:40 IST 2018
User: aro
Spectrometer: QEPB0276
Trigger mode: 0
Integration Time (sec): 3.000000E1
Scans to average: 1
Electric dark correction enabled: true
Nonlinearity correction enabled: false
Boxcar width: 0
XAxis mode: Raman Shifts
Number of Pixels in Spectrum: 1044
>>>>>Begin Spectral Data<<<<<
160.701	588.8
166.742	677.8
172.777	1291.8
178.805	2915.8
184.826	6560.8
190.841	12934.8
196.849	20569.8
202.85	26260.8
208.845	28296.8
214.833	28223.8
220.815	27837.8
226.789	27776.8
232.758	27663.8
238.719	27522.8
244.674	27377.8
250.623	26968.8
256.565	26515.8
262.5	26085.8
268.429	25378.8
274.351	25131.8
280.267	24954.8
286.176	24475.8
292.079	24125.8
297.975	23739.8
303.865	23631.8
309.748	23468.8
315.625	23356.8
321.495	22908.8
327.359	22899.8
333.217	22941.8
339.068	22946.8
344.912	22992.8
350.751	22857.8
356.583	22778.8
362.408	22762.8
368.227	22829.8
374.04	22895.8
379.847	22986.8
385.647	23138.8
391.44	23453.8
397.228	23367.8
403.009	23541.8
408.784	23564.8
414.553	23831.8
420.315	23821.8
426.071	23983.8
431.821	23864.8
437.565	23936.8
443.302	23621.8
449.033	23659.8
454.758	23542.8
460.477	23382.8
466.189	23271.8
471.896	23169.8
477.596	23046.8
483.29	23117.8
488.978	23088.8
494.66	23073.8
500.335	23008.8
506.005	22966.8
511.668	22704.8
517.325	22598.8
522.977	22362.8
528.622	22354.8
534.261	22130.8
539.894	22108.8
545.521	22034.8
551.141	21907.8
556.756	21671.8
562.365	21526.8
567.968	21374.8
573.565	21270.8
579.155	21093.8
584.74	21086.8
590.319	20907.8
595.892	20850.8
601.459	20784.8
607.02	20810.8
612.575	20823.8
618.124	20647.8
623.667	20814.8
629.204	20702.8
634.735	20796.8
640.261	20658.8
645.781	20836.8
651.294	20512.8
656.802	20201.8
662.304	20135.8
667.8	19901.8
673.29	20012.8
678.775	19761.8
684.254	19754.8
689.726	19855.8
695.193	19558.8
700.655	19702.8
706.11	19891.8
711.56	19752.8
717.004	19728.8
722.442	19977.8
727.874	19676.8
733.301	19718.8
738.722	19744.8
744.137	19513.8
749.547	19461.8
754.951	19383.8
760.349	19192.8
765.741	19040.8
771.128	19016.8
776.509	19032.8
781.885	18974.8
787.254	18948.8
792.618	19052.8
797.977	19133.8
803.33	19180.8
808.677	19306.8
814.019	19188.8
819.355	19255.8
824.686	19281.8
830.011	19229.8
835.33	18917.8
840.644	18679.8
845.952	18746.8
851.255	18489.8
856.552	18406.8
861.844	18289.8
867.13	18176.8
872.41	18130.8
877.686	18088.8
882.955	18189.8
888.219	18247.8
893.478	18381.8
898.731	18205.8
903.979	18140.8
909.221	18141.8
914.458	18090.8
919.69	17839.8
924.916	17813.8
930.136	17417.8
935.351	17317.8
940.561	17080.8
945.766	17105.8
950.965	16927.8
956.158	17052.8
961.347	17082.8
966.529	17047.8
971.707	17025.8
976.879	17068.8
982.046	17063.8
987.208	17116.8
992.364	16931.8
997.515	16854.8
1002.66	16735.8
1007.801	16851.8
1012.936	16713.8
1018.066	16834.8
1023.19	16595.8
1028.309	16518.8
1033.423	16597.8
1038.532	16692.8
1043.636	16994.8
1048.734	16928.8
1053.827	16991.8
1058.915	16987.8
1063.998	16681.8
1069.075	16624.8
1074.147	16447.8
1079.214	16445.8
1084.276	16032.8
1089.333	16005.8
1094.385	15963.8
1099.431	15988.8
1104.472	15926.8
1109.509	16057.8
1114.54	16204.8
1119.565	16272.8
1124.586	16190.8
1129.602	16250.8
1134.613	16130.8
1139.618	16006.8
1144.619	15828.8
1149.614	15543.8
1154.604	15440.8
1159.589	15401.8
1164.57	15029.8
1169.545	15090.8
1174.515	15193.8
1179.48	15288.8
1184.44	15336.8
1189.395	15559.8
1194.345	15672.8
1199.29	15614.8
1204.23	15736.8
1209.165	15600.8
1214.095	15458.8
1219.021	15358.8
1223.941	15352.8
1228.856	15297.8
1233.766	15188.8
1238.672	15236.8
1243.572	15058.8
1248.467	15135.8
1253.358	15252.8
1258.244	15288.8
1263.124	15178.8
1268	15048.8
1272.871	15000.8
1277.737	15044.8
1282.599	14813.8
1287.455	14557.8
1292.306	14351.8
1297.153	14386.8
1301.995	14158.8
1306.832	14060.8
1311.664	14128.8
1316.491	14283.8
1321.314	14185.8
1326.132	14101.8
1330.945	14041.8
1335.753	13923.8
1340.556	13736.8
1345.354	13562.8
1350.148	13271.8
1354.937	12976.8
1359.722	13001.8
1364.501	12819.8
1369.276	12564.8
1374.046	12630.8
1378.811	12851.8
1383.572	12923.8
1388.327	12736.8
1393.079	13238.8
1397.825	13302.8
1402.567	13217.8
1407.304	13182.8
1412.036	13306.8
1416.764	13008.8
1421.487	13338.8
1426.205	12942.8
1430.919	12806.8
1435.628	12517.8
1440.333	12398.8
1445.032	12352.8
1449.727	12259.8
1454.418	12325.8
1459.104	12250.8
1463.785	12073.8
1468.462	12095.8
1473.134	12093.8
1477.802	11870.8
1482.465	11943.8
1487.123	11470.8
1491.777	11635.8
1496.426	11586.8
1501.071	11327.8
1505.711	11379.8
1510.347	11433.8
1514.978	11565.8
1519.604	11644.8
1524.226	11736.8
1528.844	12130.8
1533.457	11970.8
1538.065	12259.8
1542.669	12190.8
1547.269	12246.8
1551.864	12195.8
1556.454	12372.8
1561.041	12203.8
1565.622	12248.8
1570.199	11998.8
1574.772	11885.8
1579.34	11632.8
1583.904	11812.8
1588.464	11767.8
1593.019	11762.8
1597.569	11901.8
1602.115	11955.8
1606.657	12087.8
1611.195	12070.8
1615.728	12101.8
1620.256	12114.8
1624.78	12159.8
1629.3	12129.8
1633.816	11941.8
1638.327	11921.8
1642.834	11866.8
1647.336	11785.8
1651.834	11714.8
1656.328	11730.8
1660.817	11575.8
1665.302	11664.8
1669.783	11647.8
1674.259	11455.8
1678.732	11190.8
1683.199	10911.8
1687.663	10780.8
1692.122	10290.8
1696.577	9986.8
1701.028	9967.8
1705.474	9902.8
1709.917	9944.8
1714.355	10067.8
1718.788	9792.8
1723.218	9808.8
1727.643	9532.8
1732.064	9282.8
1736.481	9401.8
1740.893	9156.8
1745.301	8945.8
1749.705	9130.8
1754.105	8663.8
1758.501	8622.8
1762.893	8279.8
1767.28	8178.8
1771.663	7905.8
1776.042	7731.8
1780.417	7621.8
1784.787	7372.8
1789.154	7455.8
1793.516	7482.8
1797.874	7636.8
1802.228	7764.8
1806.578	8001.8
1810.924	7906.8
1815.266	8698.8
1819.603	7954.8
1823.937	7949.8
1828.266	7888.8
1832.591	7788.8
1836.913	7712.8
1841.23	7713.8
1845.543	7731.8
1849.852	7485.8
1854.156	7461.8
1858.457	7410.8
1862.754	7151.8
1867.047	7244.8
1871.335	7118.8
1875.62	7095.8
1879.9	7053.8
1884.177	7244.8
1888.449	7051.8
1892.718	7030.8
1896.982	6931.8
1901.243	7119.8
1905.499	7096.8
1909.752	6972.8
1914	7103.8
1918.245	6902.8
1922.485	6856.8
1926.722	6929.8
1930.954	7029.8
1935.183	7049.8
1939.408	6978.8
1943.628	7051.8
1947.845	7034.8
1952.058	7159.8
1956.267	7153.8
1960.472	7052.8
1964.673	7081.8
1968.87	7162.8
1973.063	6999.8
1977.252	6942.8
1981.438	6877.8
1985.619	6764.8
1989.797	6650.8
1993.971	6578.8
1998.14	6380.8
2002.306	6426.8
2006.469	6406.8
2010.627	6335.8
2014.781	6388.8
2018.932	6341.8
2023.078	6187.8
2027.221	6161.8
2031.36	6206.8
2035.495	6265.8
2039.627	6168.8
2043.754	6115.8
2047.878	6009.8
2051.998	6043.8
2056.114	6013.8
2060.226	5890.8
2064.334	5872.8
2068.439	5729.8
2072.54	5706.8
2076.637	5985.8
2080.73	5870.8
2084.82	5805.8
2088.906	5871.8
2092.988	5816.8
2097.066	6050.8
2101.14	5849.8
2105.211	5920.8
2109.278	5952.8
2113.342	6006.8
2117.401	6076.8
2121.457	5969.8
2125.509	5954.8
2129.558	5764.8
2133.602	5815.8
2137.643	5741.8
2141.681	5703.8
2145.714	5630.8
2149.744	5547.8
2153.77	5590.8
2157.793	5551.8
2161.812	5645.8
2165.827	5591.8
2169.838	5270.8
2173.846	5396.8
2177.851	5312.8
2181.851	5200.8
2185.848	5293.8
2189.841	5154.8
2193.831	5216.8
2197.817	4968.8
2201.799	5076.8
2205.778	5101.8
2209.753	5053.8
2213.725	4928.8
2217.693	4941.8
2221.657	4969.8
2225.618	4779.8
2229.575	4866.8
2233.529	4760.8
2237.479	4818.8
2241.425	4772.8
2245.368	4924.8
2249.307	4838.8
2253.243	4739.8
2257.175	4782.8
2261.104	4658.8
2265.029	4512.8
2268.95	4512.8
2272.868	4434.8
2276.783	4487.8
2280.694	4223.8
2284.601	4274.8
2288.505	4203.8
2292.405	4075.8
2296.302	4251.8
2300.195	4063.8
2304.085	4145.8
2307.971	4000.8
2311.854	4064.8
2315.734	3975.8
2319.609	3999.8
2323.482	4178.8
2327.351	4001.8
2331.216	3984.8
2335.078	3989.8
2338.937	3976.8
2342.792	3932.8
2346.643	3907.8
2350.492	3842.8
2354.336	3912.8
2358.178	3808.8
2362.015	3790.8
2365.85	3964.8
2369.681	3899.8
2373.508	3897.8
2377.333	3740.8
2381.153	3942.8
2384.971	3939.8
2388.785	3892.8
2392.595	3928.8
2396.402	3917.8
2400.206	3994.8
2404.007	3986.8
2407.804	3883.8
2411.597	3701.8
2415.388	3909.8
2419.174	3741.8
2422.958	3718.8
2426.738	3629.8
2430.515	3580.8
2434.289	3701.8
2438.059	3674.8
2441.825	3700.8
2445.589	3425.8
2449.349	3663.8
2453.106	3506.8
2456.859	3509.8
2460.61	3431.8
2464.356	3472.8
2468.1	3448.8
2471.84	3482.8
2475.577	3474.8
2479.311	3378.8
2483.041	3301.8
2486.768	3204.8
2490.492	3041.8
2494.213	3531.8
2497.93	3363.8
2501.644	3353.8
2505.355	3348.8
2509.062	3235.8
2512.766	3317.8
2516.467	3258.8
2520.165	3214.8
2523.859	3293.8
2527.551	3033.8
2531.239	3168.8
2534.923	3156.8
2538.605	3201.8
2542.283	3083.8
2545.958	3199.8
2549.63	3020.8
2553.299	3022.8
2556.964	2935.8
2560.626	3123.8
2564.285	2985.8
2567.941	3101.8
2571.594	3002.8
2575.243	3042.8
2578.89	3109.8
2582.533	3101.8
2586.173	3083.8
2589.809	3000.8
2593.443	3206.8
2597.073	3040.8
2600.701	2832.8
2604.325	2972.8
2607.946	2922.8
2611.564	2860.8
2615.178	2757.8
2618.79	2782.8
2622.398	2934.8
2626.004	2918.8
2629.606	2789.8
2633.205	3036.8
2636.801	2842.8
2640.394	2773.8
2643.983	2742.8
2647.57	2777.8
2651.153	2732.8
2654.734	2527.8
2658.311	2792.8
2661.885	2675.8
2665.456	2732.8
2669.025	2576.8
2672.589	2566.8
2676.151	2400.8
2679.71	2412.8
2683.266	2401.8
2686.819	2455.8
2690.368	2431.8
2693.915	2279.8
2697.458	2486.8
2700.999	2271.8
2704.536	2349.8
2708.071	2302.8
2711.602	2206.8
2715.13	2241.8
2718.656	2271.8
2722.178	2127.8
2725.697	2212.8
2729.214	1900.8
2732.727	2051.8
2736.237	2059.8
2739.744	1974.8
2743.249	2204.8
2746.75	2147.8
2750.248	2175.8
2753.743	2171.8
2757.236	2128.8
2760.725	2142.8
2764.211	2293.8
2767.695	2146.8
2771.175	2111.8
2774.652	2142.8
2778.127	2129.8
2781.598	2137.8
2785.067	2134.8
2788.532	2110.8
2791.995	2108.8
2795.455	2147.8
2798.911	2119.8
2802.365	2197.8
2805.816	2051.8
2809.264	2035.8
2812.709	2130.8
2816.151	2134.8
2819.59	2237.8
2823.026	2208.8
2826.46	2241.8
2829.89	2226.8
2833.318	2423.8
2836.742	2276.8
2840.164	2204.8
2843.583	2300.8
2846.999	2299.8
2850.412	2243.8
2853.822	2559.8
2857.229	2206.8
2860.634	2275.8
2864.035	2340.8
2867.434	2249.8
2870.83	2342.8
2874.223	2434.8
2877.613	2341.8
2881	2511.8
2884.385	2617.8
2887.766	2515.8
2891.145	2499.8
2894.521	2559.8
2897.894	2669.8
2901.264	2298.8
2904.631	2609.8
2907.996	2532.8
2911.358	2497.8
2914.717	2556.8
2918.073	2574.8
2921.426	2571.8
2924.777	2625.8
2928.124	2618.8
2931.469	2578.8
2934.811	2795.8
2938.15	2670.8
2941.487	2707.8
2944.821	2377.8
2948.152	2858.8
2951.48	2771.8
2954.805	2694.8
2958.128	2616.8
2961.447	2718.8
2964.765	2601.8
2968.079	2769.8
2971.39	2719.8
2974.699	2756.8
2978.005	2728.8
2981.308	2742.8
2984.609	2953.8
2987.907	2858.8
2991.202	2918.8
2994.494	2950.8
2997.784	2612.8
3001.07	2926.8
3004.355	2992.8
3007.636	3024.8
3010.915	3102.8
3014.191	3155.8
3017.464	3139.8
3020.734	3129.8
3024.002	3273.8
3027.267	3306.8
3030.53	3325.8
3033.789	3356.8
3037.046	3517.8
3040.301	3536.8
3043.552	3576.8
3046.801	3598.8
3050.048	3492.8
3053.291	3459.8
3056.532	3646.8
3059.771	3899.8
3063.006	3835.8
3066.239	3873.8
3069.469	3990.8
3072.697	4248.8
3075.922	4310.8
3079.144	4332.8
3082.364	4471.8
3085.581	4629.8
3088.795	4418.8
3092.007	4690.8
3095.216	4874.8
3098.423	5167.8
3101.627	5271.8
3104.828	5262.8
3108.026	5431.8
3111.222	5496.8
3114.416	5424.8
3117.607	5653.8
3120.795	5786.8
3123.98	5877.8
3127.163	6095.8
3130.344	6100.8
3133.521	6197.8
3136.696	6169.8
3139.869	6381.8
3143.039	6505.8
3146.206	6509.8
3149.371	6681.8
3152.533	6862.8
3155.693	6984.8
3158.85	7042.8
3162.005	7010.8
3165.157	7210.8
3168.306	7265.8
3171.453	7155.8
3174.597	7422.8
3177.739	7371.8
3180.878	7289.8
3184.014	7313.8
3187.149	7316.8
3190.28	7257.8
3193.409	7272.8
3196.536	7229.8
3199.659	7169.8
3202.781	7221.8
3205.9	7390.8
3209.016	7250.8
3212.13	7236.8
3215.241	7155.8
3218.35	7246.8
3221.456	7323.8
3224.56	7417.8
3227.661	7330.8
3230.76	7496.8
3233.856	7346.8
3236.95	7342.8
3240.041	7387.8
3243.13	7109.8
3246.216	7219.8
3249.3	7135.8
3252.382	7038.8
3255.46	7127.8
3258.537	6490.8
3261.611	7142.8
3264.682	6859.8
3267.751	6846.8
3270.818	6930.8
3273.882	6760.8
3276.943	6622.8
3280.002	6614.8
3283.059	6589.8
3286.113	6623.8
3289.165	6675.8
3292.214	6591.8
3295.261	6332.8
3298.306	6449.8
3301.348	6295.8
3304.387	6249.8
3307.425	6109.8
3310.459	6161.8
3313.492	5893.8
3316.521	5883.8
3319.549	5738.8
3322.574	5781.8
3325.597	5612.8
3328.617	5621.8
3331.635	5507.8
3334.65	5590.8
3337.663	5495.8
3340.674	5530.8
3343.682	5320.8
3346.688	5401.8
3349.691	5412.8
3352.692	5445.8
3355.691	5226.8
3358.687	5213.8
3361.681	5239.8
3364.673	5238.8
3367.662	5186.8
3370.649	5150.8
3373.633	5230.8
3376.615	5139.8
3379.595	5267.8
3382.572	5019.8
3385.547	4988.8
3388.52	5029.8
3391.49	4934.8
3394.458	4910.8
3397.424	4716.8
3400.387	4891.8
3403.348	4459.8
3406.307	4523.8
3409.263	4644.8
3412.217	4370.8
3415.168	4429.8
3418.118	4322.8
3421.065	4314.8
3424.009	4158.8
3426.951	4191.8
3429.891	4174.8
3432.829	4112.8
3435.764	4057.8
3438.697	4035.8
3441.628	3802.8
3444.557	3932.8
3447.483	3932.8
3450.407	3650.8
3453.328	3508.8
3456.247	3649.8
3459.164	3671.8
3462.079	3398.8
3464.991	3312.8
3467.902	3256.8
3470.809	3214.8
3473.715	3097.8
3476.618	2985.8
3479.519	2918.8
3482.418	3063.8
3485.315	2876.8
3488.209	2772.8
3491.101	2585.8
3493.99	2749.8
3496.878	2359.8
3499.763	2415.8
3502.646	2305.8
3505.527	2510.8
3508.405	2348.8
3511.281	2239.8
3514.155	2232.8
3517.027	2195.8
3519.897	2293.8
3522.764	2029.8
3525.629	2085.8
3528.492	1937.8
3531.352	1833.8
3534.211	1804.8
3537.067	1867.8
3539.921	1742.8
3542.773	1649.8
3545.622	1587.8
3548.469	1686.8
3551.315	1541.8
3554.157	1441.8
3556.998	1366.8
3559.837	1263.8
3562.673	1144.8
3565.507	1282.8
3568.339	1127.8
3571.169	1185.8
3573.996	1177.8
3576.822	1153.8
3579.645	1134.8
3582.466	1061.8
3585.285	994.8
3588.101	953.8
3590.916	1047.8
3593.728	912.8
3596.538	984.8
3599.346	861.8
3602.152	940.8
3604.956	894.8
3607.757	707.8
3610.556	904.8
3613.354	727.8
3616.149	676.8
3618.942	667.8
3621.732	478.8
3624.521	703.8
3627.307	625.8
3630.092	597.8
3632.874	477.8
3635.654	594.8
3638.432	688.8
3641.208	552.8
3643.982	605.8
3646.753	483.8
3649.523	575.8
3652.29	565.8
3655.055	520.8
3657.818	375.8
3660.579	351.8
3663.338	562.8
3666.095	377.8
3668.849	589.8
3671.602	342.8
3674.352	520.8
3677.101	342.8
3679.847	220.8
3682.591	392.8
3685.333	429.8
3688.073	343.8
3690.811	373.8
3693.547	340.8
3696.281	294.8
3699.013	246.8
3701.742	259.8
3704.47	411.8
3707.195	275.8
3709.919	245.8
3712.64	218.8
3715.359	154.8
3718.076	53.8
3720.792	316.8
3723.505	211.8
3726.216	149.8
3728.925	288.8
3731.632	81.8
3734.336	294.8
3737.039	190.8
3739.74	246.8
3742.439	305.8
3745.136	227.8
3747.83	99.8
3750.523	130.8
3753.213	-186.2
3755.902	173.8
3758.589	286.8
3761.273	257.8
3763.956	19.8
3766.636	223.8
3769.315	-20.2
3771.991	293.8
3774.665	142.8
3777.338	235.8
3780.008	221.8
3782.677	181.8
3785.343	260.8
3788.007	351.8
3790.67	120.8
3793.33	81.8
3795.989	185.8
3798.645	132.8
3801.299	268.8
3803.952	84.8
3806.602	78.8
3809.251	140.8
3811.897	144.8
3814.542	123.8
3817.184	105.8
3819.825	272.8
3822.463	-193.2
3825.1	128.8
3827.735	129.8
3830.367	91.8
3832.998	-13.2
3835.627	80.8
3838.253	54.8
3840.878	-61.2
3843.501	-31.2
3846.122	40.8
3848.741	-10.2
3851.358	109.8
3853.973	238.8
3856.586	134.8
3859.197	58.8
3861.806	126.8
3864.414	214.8
3867.019	142.8
3869.622	39.8
3872.224	-74.2
3874.823	155.8
3877.421	142.8
3880.016	252.8
3882.61	268.8
3885.202	271.8
3887.792	249.8
3890.38	60.8
3892.966	163.8
3895.55	75.8
3898.132	117.8
3900.713	60.8
3903.291	81.8
3905.868	130.8
3908.442	49.8
3911.015	41.8
3913.586	104.8
3916.155	67.8
3918.722	155.8
3921.287	95.8
3923.85	-125.2
3926.411	57.8
3928.971	0.8
3931.528	70.8
3934.084	97.8
3936.638	105.8
3939.19	35.8
3941.74	138.8
3944.288	13.8
3946.834	51.8
3949.378	82.8
3951.921	150.8
3954.462	55.8
3957	108.8
3959.537	74.8
3962.072	216.8
3964.606	199.8
3967.137	-6.2
3969.667	82.8
3972.194	151.8
3974.72	92.8
3977.244	177.8
3979.766	26.8
3982.286	226.8
3984.805	61.8
3987.321	-19.2
3989.836	77.8
3992.349	184.8
3994.86	124.8
3997.369	75.8
3999.877	-51.2
4002.382	57.8
4004.886	118.8
4007.388	167.8
4009.888	216.8
4012.386	34.8
4014.883	68.8
4017.377	112.8
4019.87	-54.2
4022.361	156.8
4024.85	186.8
4027.338	220.8
4029.823	15.8
4032.307	92.8
4034.789	114.8
4037.269	132.8
4039.747	123.8
4042.224	68.8
4044.699	136.8
4047.172	113.8
4049.643	7.8
4052.112	135.8
4054.58	161.8
4057.046	43.8
4059.51	179.8
4061.972	87.8
4064.432	197.8
4066.891	4.8
4069.348	149.8
4071.803	54.8
4074.256	75.8
4076.708	101.8
4079.158	155.8
4081.606	-67.2
4084.052	123.8
4086.497	-66.2
4088.939	135.8
4091.38	161.8
4093.819	-6.2
4096.257	-1350.2
4098.693	-1347.2
4101.127	-1408.2
4103.559	-1439.2
4105.989	291.8
4108.418	341.8
4110.845	489.8
4113.27	354.8
4115.694	538.8
4118.115	513.8
4120.535	32.8
4122.954	-7.2
4125.37	-33.2
4127.785	37.8
4130.198	31.8
4132.609	29.8
4135.019	-1463.2
4137.427	-1437.2
4139.833	-1385.2
4142.237	-1188.2
