Data from 2018-2-8_conc=5_RamanShift_09.txt Node
Date: Wed Feb 07 11:03:10 IST 2018
User: aro
Spectrometer: QEPB0276
Trigger mode: 0
Integration Time (sec): 3.000000E1
Scans to average: 1
Electric dark correction enabled: true
Nonlinearity correction enabled: false
Boxcar width: 0
XAxis mode: Raman Shifts
Number of Pixels in Spectrum: 1044
>>>>>Begin Spectral Data<<<<<
160.701	620.4
166.742	748.4
172.777	1292.4
178.805	2962.4
184.826	6572.4
190.841	12879.4
196.849	20487.4
202.85	26160.4
208.845	28137.4
214.833	27932.4
220.815	27569.4
226.789	27437.4
232.758	27271.4
238.719	27287.4
244.674	26941.4
250.623	26464.4
256.565	26041.4
262.5	25555.4
268.429	24882.4
274.351	24644.4
280.267	24355.4
286.176	23842.4
292.079	23563.4
297.975	23199.4
303.865	23015.4
309.748	22853.4
315.625	22680.4
321.495	22264.4
327.359	22164.4
333.217	22157.4
339.068	22266.4
344.912	22260.4
350.751	22193.4
356.583	22021.4
362.408	22048.4
368.227	22132.4
374.04	22220.4
379.847	22271.4
385.647	22453.4
391.44	22632.4
397.228	22624.4
403.009	22840.4
408.784	22848.4
414.553	23094.4
420.315	23188.4
426.071	23226.4
431.821	23195.4
437.565	23134.4
443.302	23006.4
449.033	22994.4
454.758	22788.4
460.477	22723.4
466.189	22548.4
471.896	22491.4
477.596	22362.4
483.29	22411.4
488.978	22401.4
494.66	22465.4
500.335	22312.4
506.005	22307.4
511.668	22018.4
517.325	21859.4
522.977	21681.4
528.622	21569.4
534.261	21414.4
539.894	21396.4
545.521	21425.4
551.141	21304.4
556.756	20963.4
562.365	20816.4
567.968	20695.4
573.565	20571.4
579.155	20470.4
584.74	20336.4
590.319	20190.4
595.892	20172.4
601.459	20063.4
607.02	20204.4
612.575	20210.4
618.124	20011.4
623.667	20158.4
629.204	20061.4
634.735	20013.4
640.261	19984.4
645.781	20173.4
651.294	19846.4
656.802	19569.4
662.304	19497.4
667.8	19222.4
673.29	19302.4
678.775	19140.4
684.254	19120.4
689.726	19231.4
695.193	18976.4
700.655	18958.4
706.11	19169.4
711.56	19045.4
717.004	19059.4
722.442	19282.4
727.874	19025.4
733.301	19044.4
738.722	19134.4
744.137	18907.4
749.547	18778.4
754.951	18722.4
760.349	18589.4
765.741	18383.4
771.128	18431.4
776.509	18422.4
781.885	18361.4
787.254	18263.4
792.618	18448.4
797.977	18563.4
803.33	18578.4
808.677	18602.4
814.019	18494.4
819.355	18619.4
824.686	18554.4
830.011	18617.4
835.33	18313.4
840.644	18068.4
845.952	18128.4
851.255	17780.4
856.552	17804.4
861.844	17597.4
867.13	17547.4
872.41	17519.4
877.686	17400.4
882.955	17560.4
888.219	17606.4
893.478	17706.4
898.731	17536.4
903.979	17503.4
909.221	17572.4
914.458	17504.4
919.69	17226.4
924.916	17134.4
930.136	16958.4
935.351	16734.4
940.561	16528.4
945.766	16443.4
950.965	16337.4
956.158	16362.4
961.347	16482.4
966.529	16437.4
971.707	16455.4
976.879	16370.4
982.046	16441.4
987.208	16519.4
992.364	16347.4
997.515	16321.4
1002.66	16173.4
1007.801	16201.4
1012.936	16167.4
1018.066	16208.4
1023.19	15968.4
1028.309	15878.4
1033.423	15962.4
1038.532	16055.4
1043.636	16328.4
1048.734	16289.4
1053.827	16322.4
1058.915	16338.4
1063.998	16147.4
1069.075	16003.4
1074.147	15816.4
1079.214	15846.4
1084.276	15507.4
1089.333	15478.4
1094.385	15408.4
1099.431	15432.4
1104.472	15357.4
1109.509	15490.4
1114.54	15580.4
1119.565	15675.4
1124.586	15611.4
1129.602	15661.4
1134.613	15590.4
1139.618	15431.4
1144.619	15226.4
1149.614	14981.4
1154.604	14912.4
1159.589	14790.4
1164.57	14583.4
1169.545	14556.4
1174.515	14611.4
1179.48	14740.4
1184.44	14783.4
1189.395	14936.4
1194.345	15050.4
1199.29	15049.4
1204.23	15135.4
1209.165	14955.4
1214.095	14931.4
1219.021	14768.4
1223.941	14764.4
1228.856	14728.4
1233.766	14664.4
1238.672	14603.4
1243.572	14609.4
1248.467	14580.4
1253.358	14730.4
1258.244	14751.4
1263.124	14692.4
1268	14498.4
1272.871	14550.4
1277.737	14452.4
1282.599	14306.4
1287.455	14122.4
1292.306	13868.4
1297.153	13886.4
1301.995	13626.4
1306.832	13568.4
1311.664	13635.4
1316.491	13702.4
1321.314	13634.4
1326.132	13642.4
1330.945	13556.4
1335.753	13367.4
1340.556	13314.4
1345.354	13117.4
1350.148	12819.4
1354.937	12666.4
1359.722	12565.4
1364.501	12375.4
1369.276	12118.4
1374.046	12210.4
1378.811	12358.4
1383.572	12395.4
1388.327	12260.4
1393.079	12815.4
1397.825	12769.4
1402.567	12743.4
1407.304	12750.4
1412.036	12820.4
1416.764	12541.4
1421.487	12825.4
1426.205	12515.4
1430.919	12317.4
1435.628	12177.4
1440.333	12076.4
1445.032	11968.4
1449.727	11881.4
1454.418	11937.4
1459.104	11895.4
1463.785	11794.4
1468.462	11752.4
1473.134	11721.4
1477.802	11491.4
1482.465	11621.4
1487.123	11108.4
1491.777	11368.4
1496.426	11202.4
1501.071	11026.4
1505.711	11089.4
1510.347	11032.4
1514.978	11237.4
1519.604	11266.4
1524.226	11459.4
1528.844	11750.4
1533.457	11607.4
1538.065	11759.4
1542.669	11792.4
1547.269	11862.4
1551.864	11853.4
1556.454	11975.4
1561.041	11878.4
1565.622	11859.4
1570.199	11515.4
1574.772	11520.4
1579.34	11306.4
1583.904	11555.4
1588.464	11455.4
1593.019	11434.4
1597.569	11572.4
1602.115	11667.4
1606.657	11750.4
1611.195	11676.4
1615.728	11791.4
1620.256	11920.4
1624.78	11865.4
1629.3	11878.4
1633.816	11663.4
1638.327	11682.4
1642.834	11631.4
1647.336	11455.4
1651.834	11484.4
1656.328	11520.4
1660.817	11378.4
1665.302	11452.4
1669.783	11417.4
1674.259	11221.4
1678.732	10938.4
1683.199	10665.4
1687.663	10638.4
1692.122	10111.4
1696.577	9878.4
1701.028	9827.4
1705.474	9754.4
1709.917	9681.4
1714.355	9829.4
1718.788	9600.4
1723.218	9480.4
1727.643	9193.4
1732.064	9106.4
1736.481	9180.4
1740.893	8903.4
1745.301	8806.4
1749.705	8822.4
1754.105	8367.4
1758.501	8362.4
1762.893	8018.4
1767.28	7954.4
1771.663	7755.4
1776.042	7593.4
1780.417	7579.4
1784.787	7297.4
1789.154	7315.4
1793.516	7381.4
1797.874	7450.4
1802.228	7591.4
1806.578	7770.4
1810.924	7601.4
1815.266	8247.4
1819.603	7735.4
1823.937	7766.4
1828.266	7632.4
1832.591	7597.4
1836.913	7499.4
1841.23	7503.4
1845.543	7544.4
1849.852	7271.4
1854.156	7300.4
1858.457	7245.4
1862.754	6994.4
1867.047	7123.4
1871.335	6897.4
1875.62	6882.4
1879.9	6922.4
1884.177	7118.4
1888.449	6957.4
1892.718	7019.4
1896.982	6872.4
1901.243	7064.4
1905.499	6921.4
1909.752	6846.4
1914	7018.4
1918.245	6794.4
1922.485	6815.4
1926.722	6814.4
1930.954	6907.4
1935.183	6892.4
1939.408	6832.4
1943.628	6945.4
1947.845	6849.4
1952.058	7044.4
1956.267	6975.4
1960.472	6880.4
1964.673	6881.4
1968.87	6933.4
1973.063	6923.4
1977.252	6790.4
1981.438	6777.4
1985.619	6578.4
1989.797	6539.4
1993.971	6440.4
1998.14	6282.4
2002.306	6306.4
2006.469	6231.4
2010.627	6259.4
2014.781	6258.4
2018.932	6331.4
2023.078	6029.4
2027.221	6008.4
2031.36	6101.4
2035.495	6161.4
2039.627	6071.4
2043.754	5990.4
2047.878	5911.4
2051.998	5970.4
2056.114	5947.4
2060.226	5910.4
2064.334	5773.4
2068.439	5699.4
2072.54	5746.4
2076.637	5976.4
2080.73	5856.4
2084.82	5724.4
2088.906	5821.4
2092.988	5727.4
2097.066	6003.4
2101.14	5755.4
2105.211	5883.4
2109.278	5900.4
2113.342	5861.4
2117.401	5933.4
2121.457	5894.4
2125.509	5891.4
2129.558	5645.4
2133.602	5739.4
2137.643	5671.4
2141.681	5560.4
2145.714	5553.4
2149.744	5475.4
2153.77	5520.4
2157.793	5461.4
2161.812	5556.4
2165.827	5507.4
2169.838	5173.4
2173.846	5293.4
2177.851	5299.4
2181.851	5162.4
2185.848	5216.4
2189.841	5056.4
2193.831	5159.4
2197.817	4920.4
2201.799	4954.4
2205.778	5060.4
2209.753	5016.4
2213.725	4876.4
2217.693	4828.4
2221.657	4862.4
2225.618	4717.4
2229.575	4764.4
2233.529	4638.4
2237.479	4750.4
2241.425	4703.4
2245.368	4825.4
2249.307	4761.4
2253.243	4687.4
2257.175	4691.4
2261.104	4547.4
2265.029	4494.4
2268.95	4489.4
2272.868	4363.4
2276.783	4386.4
2280.694	4181.4
2284.601	4230.4
2288.505	4167.4
2292.405	4026.4
2296.302	4181.4
2300.195	4013.4
2304.085	4158.4
2307.971	3979.4
2311.854	4055.4
2315.734	3903.4
2319.609	3901.4
2323.482	4126.4
2327.351	3913.4
2331.216	3940.4
2335.078	3917.4
2338.937	3876.4
2342.792	3858.4
2346.643	3862.4
2350.492	3783.4
2354.336	3802.4
2358.178	3764.4
2362.015	3706.4
2365.85	3815.4
2369.681	3858.4
2373.508	3831.4
2377.333	3656.4
2381.153	3869.4
2384.971	3832.4
2388.785	3806.4
2392.595	3840.4
2396.402	3750.4
2400.206	3933.4
2404.007	3880.4
2407.804	3750.4
2411.597	3640.4
2415.388	3786.4
2419.174	3631.4
2422.958	3656.4
2426.738	3588.4
2430.515	3579.4
2434.289	3642.4
2438.059	3650.4
2441.825	3631.4
2445.589	3363.4
2449.349	3600.4
2453.106	3429.4
2456.859	3465.4
2460.61	3326.4
2464.356	3394.4
2468.1	3395.4
2471.84	3469.4
2475.577	3384.4
2479.311	3283.4
2483.041	3301.4
2486.768	3130.4
2490.492	2981.4
2494.213	3210.4
2497.93	3302.4
2501.644	3259.4
2505.355	3340.4
2509.062	3135.4
2512.766	3202.4
2516.467	3136.4
2520.165	3114.4
2523.859	3336.4
2527.551	3024.4
2531.239	3149.4
2534.923	3141.4
2538.605	3081.4
2542.283	3129.4
2545.958	3127.4
2549.63	3048.4
2553.299	2938.4
2556.964	2871.4
2560.626	3050.4
2564.285	2943.4
2567.941	3036.4
2571.594	3040.4
2575.243	2857.4
2578.89	3065.4
2582.533	2993.4
2586.173	2990.4
2589.809	2941.4
2593.443	3211.4
2597.073	3040.4
2600.701	2844.4
2604.325	2838.4
2607.946	2918.4
2611.564	2872.4
2615.178	2746.4
2618.79	2791.4
2622.398	2935.4
2626.004	2875.4
2629.606	2694.4
2633.205	2959.4
2636.801	2805.4
2640.394	2749.4
2643.983	2743.4
2647.57	2757.4
2651.153	2673.4
2654.734	2517.4
2658.311	2832.4
2661.885	2636.4
2665.456	2687.4
2669.025	2538.4
2672.589	2515.4
2676.151	2393.4
2679.71	2337.4
2683.266	2538.4
2686.819	2442.4
2690.368	2344.4
2693.915	2241.4
2697.458	2441.4
2700.999	2286.4
2704.536	2271.4
2708.071	2295.4
2711.602	2207.4
2715.13	2258.4
2718.656	2201.4
2722.178	2108.4
2725.697	2274.4
2729.214	1910.4
2732.727	2054.4
2736.237	2059.4
2739.744	1971.4
2743.249	2158.4
2746.75	2136.4
2750.248	2175.4
2753.743	2207.4
2757.236	2166.4
2760.725	2137.4
2764.211	2341.4
2767.695	2156.4
2771.175	2179.4
2774.652	2152.4
2778.127	2156.4
2781.598	2080.4
2785.067	2185.4
2788.532	2140.4
2791.995	2131.4
2795.455	2155.4
2798.911	2089.4
2802.365	2217.4
2805.816	2121.4
2809.264	2088.4
2812.709	2200.4
2816.151	2154.4
2819.59	2237.4
2823.026	2252.4
2826.46	2249.4
2829.89	2264.4
2833.318	2449.4
2836.742	2244.4
2840.164	2181.4
2843.583	2323.4
2846.999	2309.4
2850.412	2230.4
2853.822	2512.4
2857.229	2146.4
2860.634	2297.4
2864.035	2395.4
2867.434	2226.4
2870.83	2289.4
2874.223	2439.4
2877.613	2289.4
2881	2534.4
2884.385	2584.4
2887.766	2527.4
2891.145	2444.4
2894.521	2644.4
2897.894	2647.4
2901.264	2276.4
2904.631	2657.4
2907.996	2560.4
2911.358	2527.4
2914.717	2608.4
2918.073	2608.4
2921.426	2579.4
2924.777	2768.4
2928.124	2721.4
2931.469	2605.4
2934.811	2871.4
2938.15	2690.4
2941.487	2831.4
2944.821	2449.4
2948.152	2873.4
2951.48	2817.4
2954.805	2688.4
2958.128	2681.4
2961.447	2798.4
2964.765	2672.4
2968.079	2858.4
2971.39	2764.4
2974.699	2856.4
2978.005	2838.4
2981.308	2834.4
2984.609	3010.4
2987.907	2914.4
2991.202	2947.4
2994.494	3095.4
2997.784	2715.4
3001.07	2941.4
3004.355	3053.4
3007.636	3105.4
3010.915	3211.4
3014.191	3198.4
3017.464	3235.4
3020.734	3151.4
3024.002	3343.4
3027.267	3355.4
3030.53	3382.4
3033.789	3479.4
3037.046	3628.4
3040.301	3576.4
3043.552	3649.4
3046.801	3746.4
3050.048	3601.4
3053.291	3532.4
3056.532	3758.4
3059.771	3978.4
3063.006	3897.4
3066.239	4021.4
3069.469	4167.4
3072.697	4350.4
3075.922	4426.4
3079.144	4474.4
3082.364	4525.4
3085.581	4803.4
3088.795	4559.4
3092.007	4853.4
3095.216	5064.4
3098.423	5296.4
3101.627	5489.4
3104.828	5428.4
3108.026	5566.4
3111.222	5612.4
3114.416	5660.4
3117.607	5873.4
3120.795	5972.4
3123.98	6133.4
3127.163	6296.4
3130.344	6320.4
3133.521	6354.4
3136.696	6461.4
3139.869	6683.4
3143.039	6751.4
3146.206	6659.4
3149.371	6964.4
3152.533	7123.4
3155.693	7179.4
3158.85	7206.4
3162.005	7287.4
3165.157	7487.4
3168.306	7542.4
3171.453	7403.4
3174.597	7690.4
3177.739	7667.4
3180.878	7531.4
3184.014	7490.4
3187.149	7617.4
3190.28	7522.4
3193.409	7488.4
3196.536	7484.4
3199.659	7409.4
3202.781	7417.4
3205.9	7658.4
3209.016	7530.4
3212.13	7482.4
3215.241	7465.4
3218.35	7526.4
3221.456	7560.4
3224.56	7607.4
3227.661	7649.4
3230.76	7756.4
3233.856	7691.4
3236.95	7528.4
3240.041	7618.4
3243.13	7432.4
3246.216	7463.4
3249.3	7352.4
3252.382	7348.4
3255.46	7471.4
3258.537	6686.4
3261.611	7365.4
3264.682	7189.4
3267.751	7126.4
3270.818	7167.4
3273.882	6978.4
3276.943	6939.4
3280.002	6807.4
3283.059	6860.4
3286.113	6850.4
3289.165	6871.4
3292.214	6793.4
3295.261	6647.4
3298.306	6717.4
3301.348	6546.4
3304.387	6475.4
3307.425	6316.4
3310.459	6403.4
3313.492	6115.4
3316.521	6074.4
3319.549	5973.4
3322.574	5960.4
3325.597	5884.4
3328.617	5791.4
3331.635	5701.4
3334.65	5795.4
3337.663	5709.4
3340.674	5719.4
3343.682	5563.4
3346.688	5609.4
3349.691	5579.4
3352.692	5700.4
3355.691	5461.4
3358.687	5494.4
3361.681	5448.4
3364.673	5483.4
3367.662	5412.4
3370.649	5184.4
3373.633	5422.4
3376.615	5341.4
3379.595	5482.4
3382.572	5254.4
3385.547	5187.4
3388.52	5330.4
3391.49	5169.4
3394.458	5060.4
3397.424	4918.4
3400.387	5012.4
3403.348	4655.4
3406.307	4775.4
3409.263	4763.4
3412.217	4498.4
3415.168	4564.4
3418.118	4503.4
3421.065	4431.4
3424.009	4264.4
3426.951	4390.4
3429.891	4377.4
3432.829	4248.4
3435.764	4226.4
3438.697	4169.4
3441.628	3983.4
3444.557	4087.4
3447.483	4075.4
3450.407	3820.4
3453.328	3678.4
3456.247	3808.4
3459.164	3812.4
3462.079	3528.4
3464.991	3429.4
3467.902	3417.4
3470.809	3374.4
3473.715	3190.4
3476.618	3128.4
3479.519	3057.4
3482.418	3193.4
3485.315	2991.4
3488.209	2921.4
3491.101	2681.4
3493.99	2866.4
3496.878	2473.4
3499.763	2495.4
3502.646	2420.4
3505.527	2586.4
3508.405	2361.4
3511.281	2360.4
3514.155	2310.4
3517.027	2257.4
3519.897	2361.4
3522.764	2096.4
3525.629	2185.4
3528.492	2076.4
3531.352	1913.4
3534.211	1895.4
3537.067	1927.4
3539.921	1817.4
3542.773	1701.4
3545.622	1688.4
3548.469	1698.4
3551.315	1598.4
3554.157	1537.4
3556.998	1411.4
3559.837	1337.4
3562.673	1261.4
3565.507	1447.4
3568.339	1192.4
3571.169	1287.4
3573.996	1231.4
3576.822	1254.4
3579.645	1163.4
3582.466	1117.4
3585.285	1011.4
3588.101	975.4
3590.916	1059.4
3593.728	962.4
3596.538	1042.4
3599.346	887.4
3602.152	982.4
3604.956	959.4
3607.757	730.4
3610.556	925.4
3613.354	797.4
3616.149	735.4
3618.942	699.4
3621.732	522.4
3624.521	746.4
3627.307	686.4
3630.092	684.4
3632.874	475.4
3635.654	577.4
3638.432	774.4
3641.208	606.4
3643.982	593.4
3646.753	511.4
3649.523	561.4
3652.29	589.4
3655.055	586.4
3657.818	465.4
3660.579	352.4
3663.338	613.4
3666.095	376.4
3668.849	641.4
3671.602	397.4
3674.352	588.4
3677.101	383.4
3679.847	229.4
3682.591	470.4
3685.333	492.4
3688.073	367.4
3690.811	432.4
3693.547	236.4
3696.281	324.4
3699.013	276.4
3701.742	295.4
3704.47	465.4
3707.195	278.4
3709.919	220.4
3712.64	301.4
3715.359	178.4
3718.076	64.4
3720.792	353.4
3723.505	269.4
3726.216	202.4
3728.925	333.4
3731.632	155.4
3734.336	315.4
3737.039	230.4
3739.74	267.4
3742.439	329.4
3745.136	185.4
3747.83	193.4
3750.523	187.4
3753.213	-82.6
3755.902	236.4
3758.589	363.4
3761.273	304.4
3763.956	76.4
3766.636	261.4
3769.315	9.4
3771.991	272.4
3774.665	168.4
3777.338	340.4
3780.008	260.4
3782.677	6.4
3785.343	346.4
3788.007	458.4
3790.67	161.4
3793.33	151.4
3795.989	201.4
3798.645	124.4
3801.299	318.4
3803.952	167.4
3806.602	139.4
3809.251	153.4
3811.897	196.4
3814.542	205.4
3817.184	197.4
3819.825	273.4
3822.463	-90.6
3825.1	175.4
3827.735	155.4
3830.367	165.4
3832.998	10.4
3835.627	107.4
3838.253	78.4
3840.878	-67.6
3843.501	29.4
3846.122	40.4
3848.741	32.4
3851.358	169.4
3853.973	332.4
3856.586	142.4
3859.197	120.4
3861.806	95.4
3864.414	250.4
3867.019	160.4
3869.622	74.4
3872.224	21.4
3874.823	204.4
3877.421	192.4
3880.016	284.4
3882.61	363.4
3885.202	331.4
3887.792	311.4
3890.38	84.4
3892.966	215.4
3895.55	128.4
3898.132	178.4
3900.713	68.4
3903.291	143.4
3905.868	126.4
3908.442	106.4
3911.015	58.4
3913.586	143.4
3916.155	85.4
3918.722	203.4
3921.287	94.4
3923.85	-90.6
3926.411	79.4
3928.971	40.4
3931.528	137.4
3934.084	86.4
3936.638	136.4
3939.19	69.4
3941.74	193.4
3944.288	-12.6
3946.834	116.4
3949.378	90.4
3951.921	184.4
3954.462	102.4
3957	70.4
3959.537	146.4
3962.072	235.4
3964.606	251.4
3967.137	39.4
3969.667	102.4
3972.194	152.4
3974.72	129.4
3977.244	246.4
3979.766	101.4
3982.286	224.4
3984.805	92.4
3987.321	35.4
3989.836	100.4
3992.349	208.4
3994.86	132.4
3997.369	97.4
3999.877	82.4
4002.382	77.4
4004.886	220.4
4007.388	103.4
4009.888	275.4
4012.386	42.4
4014.883	133.4
4017.377	134.4
4019.87	11.4
4022.361	222.4
4024.85	273.4
4027.338	243.4
4029.823	64.4
4032.307	142.4
4034.789	243.4
4037.269	138.4
4039.747	148.4
4042.224	90.4
4044.699	139.4
4047.172	207.4
4049.643	56.4
4052.112	148.4
4054.58	176.4
4057.046	141.4
4059.51	193.4
4061.972	148.4
4064.432	247.4
4066.891	16.4
4069.348	139.4
4071.803	59.4
4074.256	100.4
4076.708	66.4
4079.158	206.4
4081.606	-21.6
4084.052	171.4
4086.497	20.4
4088.939	175.4
4091.38	156.4
4093.819	41.4
4096.257	-1385.6
4098.693	-1382.6
4101.127	-1453.6
4103.559	-1511.6
4105.989	343.4
4108.418	301.4
4110.845	597.4
4113.27	443.4
4115.694	508.4
4118.115	575.4
4120.535	72.4
4122.954	-18.6
4125.37	-30.6
4127.785	70.4
4130.198	70.4
4132.609	54.4
4135.019	-1508.6
4137.427	-1487.6
4139.833	-1411.6
4142.237	-1215.6
