Data from 2018-2-8_conc=4_RamanShift_07.txt Node
Date: Wed Feb 07 10:35:40 IST 2018
User: aro
Spectrometer: QEPB0276
Trigger mode: 0
Integration Time (sec): 3.000000E1
Scans to average: 1
Electric dark correction enabled: true
Nonlinearity correction enabled: false
Boxcar width: 0
XAxis mode: Raman Shifts
Number of Pixels in Spectrum: 1044
>>>>>Begin Spectral Data<<<<<
160.701	483.8
166.742	547.8
172.777	1079.8
178.805	2567.8
184.826	5953.8
190.841	11931.8
196.849	19021.8
202.85	24380.8
208.845	26360.8
214.833	26133.8
220.815	25802.8
226.789	24461.8
232.758	25586.8
238.719	25402.8
244.674	25244.8
250.623	24805.8
256.565	24430.8
262.5	23925.8
268.429	23327.8
274.351	22985.8
280.267	22815.8
286.176	22279.8
292.079	22096.8
297.975	21771.8
303.865	21591.8
309.748	21349.8
315.625	21313.8
321.495	20762.8
327.359	20821.8
333.217	20859.8
339.068	20784.8
344.912	20819.8
350.751	20769.8
356.583	20789.8
362.408	20770.8
368.227	20783.8
374.04	20867.8
379.847	20848.8
385.647	21070.8
391.44	21275.8
397.228	21290.8
403.009	21504.8
408.784	21620.8
414.553	21612.8
420.315	21747.8
426.071	21790.8
431.821	21744.8
437.565	21719.8
443.302	21512.8
449.033	21471.8
454.758	21416.8
460.477	21222.8
466.189	21104.8
471.896	21064.8
477.596	21041.8
483.29	21009.8
488.978	20963.8
494.66	21008.8
500.335	20811.8
506.005	20897.8
511.668	20602.8
517.325	20532.8
522.977	20277.8
528.622	20259.8
534.261	20099.8
539.894	19993.8
545.521	20025.8
551.141	19862.8
556.756	19597.8
562.365	19513.8
567.968	19428.8
573.565	19278.8
579.155	19106.8
584.74	18987.8
590.319	18872.8
595.892	18916.8
601.459	18825.8
607.02	18838.8
612.575	18918.8
618.124	18725.8
623.667	18887.8
629.204	18763.8
634.735	18782.8
640.261	18707.8
645.781	18833.8
651.294	18550.8
656.802	18324.8
662.304	18222.8
667.8	17999.8
673.29	17972.8
678.775	17900.8
684.254	17924.8
689.726	18011.8
695.193	17735.8
700.655	17786.8
706.11	17946.8
711.56	17854.8
717.004	17876.8
722.442	18034.8
727.874	17787.8
733.301	17831.8
738.722	17857.8
744.137	17688.8
749.547	17506.8
754.951	17464.8
760.349	17388.8
765.741	17202.8
771.128	17181.8
776.509	17187.8
781.885	17129.8
787.254	17116.8
792.618	17205.8
797.977	17329.8
803.33	17402.8
808.677	17414.8
814.019	17307.8
819.355	17346.8
824.686	17406.8
830.011	17376.8
835.33	17094.8
840.644	16868.8
845.952	16953.8
851.255	16762.8
856.552	16676.8
861.844	16534.8
867.13	16412.8
872.41	16390.8
877.686	16349.8
882.955	16411.8
888.219	16446.8
893.478	16571.8
898.731	16415.8
903.979	16312.8
909.221	16416.8
914.458	16304.8
919.69	16097.8
924.916	16078.8
930.136	15800.8
935.351	15552.8
940.561	15477.8
945.766	15349.8
950.965	15201.8
956.158	15313.8
961.347	15417.8
966.529	15367.8
971.707	15324.8
976.879	15309.8
982.046	15406.8
987.208	15454.8
992.364	15209.8
997.515	15232.8
1002.66	15093.8
1007.801	15148.8
1012.936	15055.8
1018.066	15140.8
1023.19	14952.8
1028.309	14836.8
1033.423	14962.8
1038.532	15030.8
1043.636	15245.8
1048.734	15118.8
1053.827	15234.8
1058.915	15240.8
1063.998	15115.8
1069.075	14958.8
1074.147	14749.8
1079.214	14771.8
1084.276	14431.8
1089.333	14468.8
1094.385	14365.8
1099.431	14308.8
1104.472	14325.8
1109.509	14488.8
1114.54	14538.8
1119.565	14566.8
1124.586	14609.8
1129.602	14604.8
1134.613	14538.8
1139.618	14320.8
1144.619	14232.8
1149.614	13955.8
1154.604	13878.8
1159.589	13765.8
1164.57	13516.8
1169.545	13647.8
1174.515	13651.8
1179.48	13792.8
1184.44	13867.8
1189.395	13954.8
1194.345	14067.8
1199.29	14025.8
1204.23	14105.8
1209.165	14028.8
1214.095	13901.8
1219.021	13732.8
1223.941	13743.8
1228.856	13745.8
1233.766	13637.8
1238.672	13611.8
1243.572	13538.8
1248.467	13632.8
1253.358	13783.8
1258.244	13765.8
1263.124	13719.8
1268	13534.8
1272.871	13523.8
1277.737	13475.8
1282.599	13247.8
1287.455	13116.8
1292.306	12854.8
1297.153	12947.8
1301.995	12707.8
1306.832	12738.8
1311.664	12643.8
1316.491	12774.8
1321.314	12681.8
1326.132	12627.8
1330.945	12554.8
1335.753	12398.8
1340.556	12288.8
1345.354	12187.8
1350.148	11875.8
1354.937	11733.8
1359.722	11686.8
1364.501	11494.8
1369.276	11366.8
1374.046	11459.8
1378.811	11625.8
1383.572	11683.8
1388.327	11397.8
1393.079	11851.8
1397.825	11921.8
1402.567	11894.8
1407.304	11799.8
1412.036	11846.8
1416.764	11797.8
1421.487	11918.8
1426.205	11602.8
1430.919	11366.8
1435.628	11334.8
1440.333	11181.8
1445.032	11028.8
1449.727	11097.8
1454.418	11112.8
1459.104	10985.8
1463.785	10863.8
1468.462	10849.8
1473.134	10851.8
1477.802	10706.8
1482.465	10722.8
1487.123	10441.8
1491.777	10462.8
1496.426	10373.8
1501.071	10201.8
1505.711	10244.8
1510.347	10250.8
1514.978	10421.8
1519.604	10534.8
1524.226	10580.8
1528.844	10919.8
1533.457	10864.8
1538.065	10955.8
1542.669	10976.8
1547.269	11024.8
1551.864	10929.8
1556.454	11146.8
1561.041	10992.8
1565.622	10977.8
1570.199	10674.8
1574.772	10686.8
1579.34	10506.8
1583.904	10646.8
1588.464	10625.8
1593.019	10637.8
1597.569	10736.8
1602.115	10803.8
1606.657	10802.8
1611.195	10834.8
1615.728	10807.8
1620.256	11019.8
1624.78	11009.8
1629.3	10943.8
1633.816	10793.8
1638.327	10705.8
1642.834	10687.8
1647.336	10597.8
1651.834	10672.8
1656.328	10597.8
1660.817	10432.8
1665.302	10403.8
1669.783	10494.8
1674.259	10340.8
1678.732	10061.8
1683.199	9859.8
1687.663	9721.8
1692.122	9294.8
1696.577	9048.8
1701.028	9219.8
1705.474	9011.8
1709.917	9012.8
1714.355	9005.8
1718.788	8905.8
1723.218	8761.8
1727.643	8499.8
1732.064	8323.8
1736.481	8450.8
1740.893	8153.8
1745.301	8048.8
1749.705	8103.8
1754.105	7731.8
1758.501	7661.8
1762.893	7410.8
1767.28	7332.8
1771.663	7113.8
1776.042	6915.8
1780.417	6867.8
1784.787	6662.8
1789.154	6736.8
1793.516	6623.8
1797.874	6887.8
1802.228	6971.8
1806.578	7157.8
1810.924	7073.8
1815.266	7783.8
1819.603	7107.8
1823.937	7135.8
1828.266	6979.8
1832.591	6970.8
1836.913	6920.8
1841.23	6941.8
1845.543	6846.8
1849.852	6640.8
1854.156	6729.8
1858.457	6628.8
1862.754	6430.8
1867.047	6512.8
1871.335	6407.8
1875.62	6320.8
1879.9	6305.8
1884.177	6477.8
1888.449	6346.8
1892.718	6347.8
1896.982	6279.8
1901.243	6437.8
1905.499	6377.8
1909.752	6309.8
1914	6396.8
1918.245	6187.8
1922.485	6304.8
1926.722	6346.8
1930.954	6342.8
1935.183	6321.8
1939.408	6269.8
1943.628	6364.8
1947.845	6344.8
1952.058	6423.8
1956.267	6286.8
1960.472	6285.8
1964.673	6313.8
1968.87	6352.8
1973.063	6359.8
1977.252	6260.8
1981.438	6138.8
1985.619	6084.8
1989.797	6004.8
1993.971	5942.8
1998.14	5749.8
2002.306	5720.8
2006.469	5765.8
2010.627	5701.8
2014.781	5684.8
2018.932	5666.8
2023.078	5539.8
2027.221	5519.8
2031.36	5550.8
2035.495	5646.8
2039.627	5541.8
2043.754	5475.8
2047.878	5418.8
2051.998	5388.8
2056.114	5371.8
2060.226	5322.8
2064.334	5254.8
2068.439	5200.8
2072.54	5230.8
2076.637	5369.8
2080.73	5279.8
2084.82	5242.8
2088.906	5291.8
2092.988	5193.8
2097.066	5447.8
2101.14	5312.8
2105.211	5326.8
2109.278	5416.8
2113.342	5358.8
2117.401	5425.8
2121.457	5389.8
2125.509	5346.8
2129.558	5169.8
2133.602	5237.8
2137.643	5144.8
2141.681	5095.8
2145.714	5091.8
2149.744	4999.8
2153.77	4974.8
2157.793	4991.8
2161.812	5008.8
2165.827	4940.8
2169.838	4748.8
2173.846	4827.8
2177.851	4799.8
2181.851	4691.8
2185.848	4887.8
2189.841	4545.8
2193.831	4661.8
2197.817	4452.8
2201.799	4482.8
2205.778	4578.8
2209.753	4510.8
2213.725	4428.8
2217.693	4431.8
2221.657	4440.8
2225.618	3991.8
2229.575	4300.8
2233.529	4189.8
2237.479	4284.8
2241.425	4213.8
2245.368	4395.8
2249.307	4245.8
2253.243	4258.8
2257.175	4229.8
2261.104	4140.8
2265.029	4058.8
2268.95	4055.8
2272.868	3980.8
2276.783	3985.8
2280.694	3763.8
2284.601	3801.8
2288.505	3817.8
2292.405	3639.8
2296.302	3749.8
2300.195	3604.8
2304.085	3745.8
2307.971	3620.8
2311.854	3630.8
2315.734	3592.8
2319.609	3587.8
2323.482	3691.8
2327.351	3538.8
2331.216	3523.8
2335.078	3544.8
2338.937	3470.8
2342.792	3479.8
2346.643	3470.8
2350.492	3437.8
2354.336	3429.8
2358.178	3348.8
2362.015	3282.8
2365.85	3502.8
2369.681	3450.8
2373.508	3427.8
2377.333	3330.8
2381.153	3411.8
2384.971	3501.8
2388.785	3427.8
2392.595	3434.8
2396.402	3468.8
2400.206	3522.8
2404.007	3458.8
2407.804	3393.8
2411.597	3307.8
2415.388	3414.8
2419.174	3297.8
2422.958	3287.8
2426.738	3263.8
2430.515	3141.8
2434.289	3274.8
2438.059	3213.8
2441.825	3197.8
2445.589	3015.8
2449.349	3206.8
2453.106	3081.8
2456.859	3047.8
2460.61	2988.8
2464.356	3047.8
2468.1	2982.8
2471.84	3051.8
2475.577	3107.8
2479.311	2866.8
2483.041	2912.8
2486.768	2789.8
2490.492	2617.8
2494.213	2854.8
2497.93	2879.8
2501.644	2937.8
2505.355	2871.8
2509.062	2800.8
2512.766	2859.8
2516.467	2817.8
2520.165	2816.8
2523.859	2885.8
2527.551	2664.8
2531.239	2803.8
2534.923	2818.8
2538.605	2813.8
2542.283	2811.8
2545.958	2815.8
2549.63	2643.8
2553.299	2641.8
2556.964	2683.8
2560.626	2724.8
2564.285	2567.8
2567.941	2774.8
2571.594	2733.8
2575.243	2587.8
2578.89	2710.8
2582.533	2731.8
2586.173	2645.8
2589.809	2617.8
2593.443	2843.8
2597.073	2641.8
2600.701	2543.8
2604.325	2648.8
2607.946	2622.8
2611.564	2522.8
2615.178	2430.8
2618.79	2506.8
2622.398	2520.8
2626.004	2519.8
2629.606	2382.8
2633.205	2605.8
2636.801	2499.8
2640.394	2421.8
2643.983	2399.8
2647.57	2431.8
2651.153	2376.8
2654.734	2274.8
2658.311	2474.8
2661.885	2326.8
2665.456	2167.8
2669.025	2270.8
2672.589	2232.8
2676.151	2098.8
2679.71	2090.8
2683.266	2128.8
2686.819	2110.8
2690.368	2042.8
2693.915	2047.8
2697.458	2145.8
2700.999	2002.8
2704.536	1978.8
2708.071	1961.8
2711.602	1929.8
2715.13	1932.8
2718.656	1862.8
2722.178	1860.8
2725.697	1863.8
2729.214	1576.8
2732.727	1769.8
2736.237	1686.8
2739.744	1833.8
2743.249	1848.8
2746.75	1856.8
2750.248	1873.8
2753.743	1917.8
2757.236	1854.8
2760.725	1881.8
2764.211	2007.8
2767.695	1846.8
2771.175	1922.8
2774.652	1849.8
2778.127	1849.8
2781.598	1886.8
2785.067	1870.8
2788.532	1847.8
2791.995	1845.8
2795.455	1898.8
2798.911	1842.8
2802.365	1989.8
2805.816	1817.8
2809.264	1792.8
2812.709	1865.8
2816.151	1803.8
2819.59	1996.8
2823.026	1959.8
2826.46	1900.8
2829.89	1921.8
2833.318	2143.8
2836.742	1922.8
2840.164	1903.8
2843.583	2026.8
2846.999	2016.8
2850.412	1941.8
2853.822	2084.8
2857.229	1927.8
2860.634	2019.8
2864.035	2113.8
2867.434	2048.8
2870.83	2027.8
2874.223	2097.8
2877.613	1983.8
2881	2214.8
2884.385	2276.8
2887.766	2171.8
2891.145	2155.8
2894.521	2290.8
2897.894	2280.8
2901.264	1965.8
2904.631	2242.8
2907.996	2234.8
2911.358	2230.8
2914.717	2255.8
2918.073	2251.8
2921.426	2243.8
2924.777	2329.8
2928.124	2359.8
2931.469	2275.8
2934.811	2502.8
2938.15	2320.8
2941.487	2434.8
2944.821	2121.8
2948.152	2438.8
2951.48	2406.8
2954.805	2400.8
2958.128	2358.8
2961.447	2473.8
2964.765	2290.8
2968.079	2463.8
2971.39	2416.8
2974.699	2466.8
2978.005	2425.8
2981.308	2423.8
2984.609	2624.8
2987.907	2520.8
2991.202	2633.8
2994.494	2691.8
2997.784	2428.8
3001.07	2612.8
3004.355	2663.8
3007.636	2750.8
3010.915	2820.8
3014.191	2834.8
3017.464	2821.8
3020.734	2724.8
3024.002	2898.8
3027.267	2965.8
3030.53	2980.8
3033.789	3020.8
3037.046	3151.8
3040.301	3130.8
3043.552	3162.8
3046.801	3298.8
3050.048	3134.8
3053.291	3178.8
3056.532	3400.8
3059.771	3489.8
3063.006	3477.8
3066.239	3569.8
3069.469	3690.8
3072.697	3903.8
3075.922	3942.8
3079.144	3984.8
3082.364	4042.8
3085.581	4295.8
3088.795	4048.8
3092.007	4247.8
3095.216	4513.8
3098.423	4672.8
3101.627	4888.8
3104.828	4951.8
3108.026	4935.8
3111.222	5025.8
3114.416	5024.8
3117.607	5270.8
3120.795	5282.8
3123.98	5449.8
3127.163	5633.8
3130.344	5638.8
3133.521	5709.8
3136.696	5881.8
3139.869	5893.8
3143.039	6029.8
3146.206	6040.8
3149.371	6178.8
3152.533	6354.8
3155.693	6444.8
3158.85	6511.8
3162.005	6586.8
3165.157	6681.8
3168.306	6767.8
3171.453	6621.8
3174.597	6828.8
3177.739	6862.8
3180.878	6761.8
3184.014	6714.8
3187.149	6787.8
3190.28	6772.8
3193.409	6663.8
3196.536	6715.8
3199.659	6699.8
3202.781	6645.8
3205.9	6874.8
3209.016	6736.8
3212.13	6720.8
3215.241	6599.8
3218.35	6701.8
3221.456	6822.8
3224.56	6934.8
3227.661	6837.8
3230.76	6912.8
3233.856	6821.8
3236.95	6767.8
3240.041	6850.8
3243.13	6646.8
3246.216	6675.8
3249.3	6544.8
3252.382	6554.8
3255.46	6591.8
3258.537	6853.8
3261.611	6526.8
3264.682	6398.8
3267.751	6308.8
3270.818	6421.8
3273.882	6190.8
3276.943	6230.8
3280.002	6083.8
3283.059	6103.8
3286.113	6047.8
3289.165	6159.8
3292.214	6075.8
3295.261	5844.8
3298.306	5997.8
3301.348	5803.8
3304.387	5722.8
3307.425	5674.8
3310.459	5701.8
3313.492	5483.8
3316.521	5508.8
3319.549	5328.8
3322.574	5271.8
3325.597	5199.8
3328.617	5225.8
3331.635	5141.8
3334.65	5165.8
3337.663	5028.8
3340.674	5057.8
3343.682	4964.8
3346.688	4938.8
3349.691	4929.8
3352.692	5035.8
3355.691	4853.8
3358.687	4896.8
3361.681	4825.8
3364.673	4828.8
3367.662	4777.8
3370.649	4724.8
3373.633	4752.8
3376.615	4731.8
3379.595	4836.8
3382.572	4740.8
3385.547	4569.8
3388.52	4645.8
3391.49	4550.8
3394.458	4527.8
3397.424	4352.8
3400.387	4441.8
3403.348	4132.8
3406.307	4158.8
3409.263	4156.8
3412.217	4043.8
3415.168	4046.8
3418.118	4033.8
3421.065	3890.8
3424.009	3747.8
3426.951	3831.8
3429.891	3626.8
3432.829	3824.8
3435.764	3750.8
3438.697	3703.8
3441.628	3513.8
3444.557	3542.8
3447.483	3562.8
3450.407	3322.8
3453.328	3176.8
3456.247	3360.8
3459.164	3304.8
3462.079	3100.8
3464.991	3005.8
3467.902	2983.8
3470.809	2986.8
3473.715	2832.8
3476.618	2782.8
3479.519	2673.8
3482.418	2735.8
3485.315	2574.8
3488.209	2468.8
3491.101	2459.8
3493.99	2444.8
3496.878	2074.8
3499.763	2125.8
3502.646	2112.8
3505.527	2201.8
3508.405	2027.8
3511.281	1999.8
3514.155	2010.8
3517.027	1923.8
3519.897	2025.8
3522.764	1784.8
3525.629	1851.8
3528.492	1719.8
3531.352	1616.8
3534.211	1567.8
3537.067	1637.8
3539.921	1549.8
3542.773	1475.8
3545.622	1390.8
3548.469	1433.8
3551.315	1355.8
3554.157	1293.8
3556.998	1186.8
3559.837	1100.8
3562.673	1030.8
3565.507	1095.8
3568.339	910.8
3571.169	1030.8
3573.996	946.8
3576.822	971.8
3579.645	909.8
3582.466	882.8
3585.285	800.8
3588.101	804.8
3590.916	840.8
3593.728	723.8
3596.538	783.8
3599.346	680.8
3602.152	765.8
3604.956	685.8
3607.757	564.8
3610.556	773.8
3613.354	557.8
3616.149	562.8
3618.942	535.8
3621.732	348.8
3624.521	579.8
3627.307	399.8
3630.092	484.8
3632.874	380.8
3635.654	470.8
3638.432	522.8
3641.208	365.8
3643.982	427.8
3646.753	345.8
3649.523	376.8
3652.29	391.8
3655.055	434.8
3657.818	268.8
3660.579	215.8
3663.338	377.8
3666.095	226.8
3668.849	387.8
3671.602	262.8
3674.352	325.8
3677.101	192.8
3679.847	97.8
3682.591	275.8
3685.333	229.8
3688.073	152.8
3690.811	282.8
3693.547	192.8
3696.281	207.8
3699.013	117.8
3701.742	135.8
3704.47	240.8
3707.195	77.8
3709.919	89.8
3712.64	131.8
3715.359	-6.2
3718.076	-34.2
3720.792	91.8
3723.505	109.8
3726.216	61.8
3728.925	118.8
3731.632	-63.2
3734.336	198.8
3737.039	100.8
3739.74	125.8
3742.439	87.8
3745.136	63.8
3747.83	60.8
3750.523	104.8
3753.213	38.8
3755.902	106.8
3758.589	165.8
3761.273	146.8
3763.956	-62.2
3766.636	89.8
3769.315	-102.2
3771.991	153.8
3774.665	5.8
3777.338	184.8
3780.008	80.8
3782.677	19.8
3785.343	173.8
3788.007	74.8
3790.67	7.8
3793.33	-22.2
3795.989	59.8
3798.645	9.8
3801.299	128.8
3803.952	30.8
3806.602	-15.2
3809.251	31.8
3811.897	58.8
3814.542	32.8
3817.184	37.8
3819.825	70.8
3822.463	-74.2
3825.1	7.8
3827.735	27.8
3830.367	-31.2
3832.998	-138.2
3835.627	-81.2
3838.253	-97.2
3840.878	-201.2
3843.501	-145.2
3846.122	-53.2
3848.741	-119.2
3851.358	-54.2
3853.973	144.8
3856.586	3.8
3859.197	-49.2
3861.806	-76.2
3864.414	71.8
3867.019	-42.2
3869.622	-57.2
3872.224	-88.2
3874.823	31.8
3877.421	15.8
3880.016	80.8
3882.61	161.8
3885.202	135.8
3887.792	100.8
3890.38	-48.2
3892.966	48.8
3895.55	-20.2
3898.132	11.8
3900.713	-102.2
3903.291	22.8
3905.868	-105.2
3908.442	-46.2
3911.015	-51.2
3913.586	-42.2
3916.155	-48.2
3918.722	3.8
3921.287	-21.2
3923.85	-275.2
3926.411	-37.2
3928.971	-103.2
3931.528	-59.2
3934.084	-23.2
3936.638	-58.2
3939.19	-96.2
3941.74	-43.2
3944.288	-30.2
3946.834	-79.2
3949.378	-51.2
3951.921	43.8
3954.462	-14.2
3957	-17.2
3959.537	43.8
3962.072	73.8
3964.606	117.8
3967.137	-40.2
3969.667	-38.2
3972.194	6.8
3974.72	-3.2
3977.244	55.8
3979.766	38.8
3982.286	92.8
3984.805	-74.2
3987.321	-101.2
3989.836	-21.2
3992.349	6.8
3994.86	-30.2
3997.369	-0.2
3999.877	-72.2
4002.382	-33.2
4004.886	-31.2
4007.388	20.8
4009.888	74.8
4012.386	-48.2
4014.883	-67.2
4017.377	-22.2
4019.87	-97.2
4022.361	11.8
4024.85	109.8
4027.338	62.8
4029.823	-52.2
4032.307	-40.2
4034.789	49.8
4037.269	6.8
4039.747	74.8
4042.224	-37.2
4044.699	27.8
4047.172	-39.2
4049.643	-37.2
4052.112	144.8
4054.58	-18.2
4057.046	29.8
4059.51	8.8
4061.972	-42.2
4064.432	43.8
4066.891	-130.2
4069.348	-12.2
4071.803	-99.2
4074.256	-39.2
4076.708	17.8
4079.158	67.8
4081.606	-105.2
4084.052	-28.2
4086.497	-93.2
4088.939	37.8
4091.38	13.8
4093.819	-117.2
4096.257	-1164.2
4098.693	-1157.2
4101.127	-1182.2
4103.559	-1212.2
4105.989	156.8
4108.418	189.8
4110.845	392.8
4113.27	197.8
4115.694	316.8
4118.115	379.8
4120.535	-72.2
4122.954	-128.2
4125.37	-124.2
4127.785	-29.2
4130.198	-85.2
4132.609	-73.2
4135.019	-1247.2
4137.427	-1232.2
4139.833	-1176.2
4142.237	-1023.2
