Data from 2018-2-8_conc=5_RamanShift_17.txt Node
Date: Wed Feb 07 11:10:10 IST 2018
User: aro
Spectrometer: QEPB0276
Trigger mode: 0
Integration Time (sec): 3.000000E1
Scans to average: 1
Electric dark correction enabled: true
Nonlinearity correction enabled: false
Boxcar width: 0
XAxis mode: Raman Shifts
Number of Pixels in Spectrum: 1044
>>>>>Begin Spectral Data<<<<<
160.701	644.4
166.742	747.4
172.777	1319.4
178.805	2904.4
184.826	6560.4
190.841	12993.4
196.849	20788.4
202.85	26379.4
208.845	28545.4
214.833	28254.4
220.815	28026.4
226.789	27901.4
232.758	27707.4
238.719	27721.4
244.674	27429.4
250.623	26902.4
256.565	26431.4
262.5	26012.4
268.429	25345.4
274.351	25048.4
280.267	24871.4
286.176	24350.4
292.079	23988.4
297.975	23806.4
303.865	23527.4
309.748	23347.4
315.625	23231.4
321.495	22709.4
327.359	22736.4
333.217	22752.4
339.068	22610.4
344.912	22781.4
350.751	22740.4
356.583	22540.4
362.408	22620.4
368.227	22577.4
374.04	22710.4
379.847	22711.4
385.647	22855.4
391.44	23197.4
397.228	23112.4
403.009	23362.4
408.784	23325.4
414.553	23514.4
420.315	23630.4
426.071	23743.4
431.821	23632.4
437.565	23609.4
443.302	23384.4
449.033	23412.4
454.758	23275.4
460.477	23122.4
466.189	23029.4
471.896	22963.4
477.596	22818.4
483.29	22927.4
488.978	22878.4
494.66	22896.4
500.335	22827.4
506.005	22702.4
511.668	22410.4
517.325	22304.4
522.977	22147.4
528.622	22071.4
534.261	21897.4
539.894	21859.4
545.521	21813.4
551.141	21734.4
556.756	21488.4
562.365	21321.4
567.968	21231.4
573.565	21098.4
579.155	20852.4
584.74	20781.4
590.319	20580.4
595.892	20683.4
601.459	20519.4
607.02	20576.4
612.575	20643.4
618.124	20421.4
623.667	20566.4
629.204	20517.4
634.735	20547.4
640.261	20329.4
645.781	20577.4
651.294	20228.4
656.802	19947.4
662.304	19883.4
667.8	19683.4
673.29	19662.4
678.775	19460.4
684.254	19502.4
689.726	19651.4
695.193	19399.4
700.655	19501.4
706.11	19629.4
711.56	19521.4
717.004	19525.4
722.442	19737.4
727.874	19445.4
733.301	19399.4
738.722	19633.4
744.137	19306.4
749.547	19284.4
754.951	19163.4
760.349	18974.4
765.741	18847.4
771.128	18755.4
776.509	18803.4
781.885	18752.4
787.254	18748.4
792.618	18807.4
797.977	18941.4
803.33	18977.4
808.677	18969.4
814.019	18947.4
819.355	18966.4
824.686	19007.4
830.011	18943.4
835.33	18689.4
840.644	18424.4
845.952	18478.4
851.255	18274.4
856.552	18183.4
861.844	18027.4
867.13	17862.4
872.41	17935.4
877.686	17806.4
882.955	17840.4
888.219	17982.4
893.478	18150.4
898.731	17924.4
903.979	17831.4
909.221	17876.4
914.458	17841.4
919.69	17616.4
924.916	17504.4
930.136	17260.4
935.351	17086.4
940.561	16847.4
945.766	16751.4
950.965	16629.4
956.158	16695.4
961.347	16718.4
966.529	16730.4
971.707	16686.4
976.879	16778.4
982.046	16781.4
987.208	16810.4
992.364	16667.4
997.515	16651.4
1002.66	16409.4
1007.801	16579.4
1012.936	16488.4
1018.066	16515.4
1023.19	16316.4
1028.309	16194.4
1033.423	16292.4
1038.532	16412.4
1043.636	16647.4
1048.734	16569.4
1053.827	16713.4
1058.915	16694.4
1063.998	16459.4
1069.075	16260.4
1074.147	16141.4
1079.214	16121.4
1084.276	15802.4
1089.333	15817.4
1094.385	15581.4
1099.431	15866.4
1104.472	15605.4
1109.509	15862.4
1114.54	15930.4
1119.565	16005.4
1124.586	15983.4
1129.602	15956.4
1134.613	15906.4
1139.618	15754.4
1144.619	15479.4
1149.614	15271.4
1154.604	15146.4
1159.589	15114.4
1164.57	14867.4
1169.545	14858.4
1174.515	14867.4
1179.48	15026.4
1184.44	15007.4
1189.395	15230.4
1194.345	15400.4
1199.29	15286.4
1204.23	15428.4
1209.165	15277.4
1214.095	15232.4
1219.021	15086.4
1223.941	15029.4
1228.856	15027.4
1233.766	15086.4
1238.672	14917.4
1243.572	14820.4
1248.467	14881.4
1253.358	14939.4
1258.244	15038.4
1263.124	14933.4
1268	14754.4
1272.871	14794.4
1277.737	14724.4
1282.599	14501.4
1287.455	14353.4
1292.306	14109.4
1297.153	14214.4
1301.995	13895.4
1306.832	13910.4
1311.664	13908.4
1316.491	13944.4
1321.314	13852.4
1326.132	13861.4
1330.945	13742.4
1335.753	13659.4
1340.556	13544.4
1345.354	13411.4
1350.148	13017.4
1354.937	12939.4
1359.722	12886.4
1364.501	12723.4
1369.276	12556.4
1374.046	12532.4
1378.811	12808.4
1383.572	12872.4
1388.327	12600.4
1393.079	13068.4
1397.825	13217.4
1402.567	13120.4
1407.304	12978.4
1412.036	13032.4
1416.764	12834.4
1421.487	13098.4
1426.205	12767.4
1430.919	12518.4
1435.628	12421.4
1440.333	12284.4
1445.032	12158.4
1449.727	12121.4
1454.418	12140.4
1459.104	12087.4
1463.785	12023.4
1468.462	12013.4
1473.134	11871.4
1477.802	11804.4
1482.465	11906.4
1487.123	11447.4
1491.777	11731.4
1496.426	11661.4
1501.071	11340.4
1505.711	11477.4
1510.347	11495.4
1514.978	11588.4
1519.604	11732.4
1524.226	11757.4
1528.844	12119.4
1533.457	11924.4
1538.065	12095.4
1542.669	12149.4
1547.269	12252.4
1551.864	12189.4
1556.454	12312.4
1561.041	12213.4
1565.622	12148.4
1570.199	11849.4
1574.772	11854.4
1579.34	11602.4
1583.904	11737.4
1588.464	11730.4
1593.019	11686.4
1597.569	11925.4
1602.115	11926.4
1606.657	12015.4
1611.195	12007.4
1615.728	11936.4
1620.256	12159.4
1624.78	12187.4
1629.3	12145.4
1633.816	11985.4
1638.327	11921.4
1642.834	11848.4
1647.336	11842.4
1651.834	11668.4
1656.328	11771.4
1660.817	11601.4
1665.302	11778.4
1669.783	11704.4
1674.259	11482.4
1678.732	11184.4
1683.199	10942.4
1687.663	10892.4
1692.122	10398.4
1696.577	10198.4
1701.028	10226.4
1705.474	10170.4
1709.917	10194.4
1714.355	10114.4
1718.788	10009.4
1723.218	9830.4
1727.643	9597.4
1732.064	9420.4
1736.481	9450.4
1740.893	9155.4
1745.301	9042.4
1749.705	9085.4
1754.105	8647.4
1758.501	8622.4
1762.893	8274.4
1767.28	8269.4
1771.663	7949.4
1776.042	7818.4
1780.417	7778.4
1784.787	7537.4
1789.154	7658.4
1793.516	7718.4
1797.874	7862.4
1802.228	7994.4
1806.578	8128.4
1810.924	7995.4
1815.266	8223.4
1819.603	8069.4
1823.937	8124.4
1828.266	7963.4
1832.591	7896.4
1836.913	7737.4
1841.23	7811.4
1845.543	7789.4
1849.852	7577.4
1854.156	7609.4
1858.457	7509.4
1862.754	7251.4
1867.047	7404.4
1871.335	7194.4
1875.62	7190.4
1879.9	7162.4
1884.177	7395.4
1888.449	7242.4
1892.718	7225.4
1896.982	7130.4
1901.243	7387.4
1905.499	7267.4
1909.752	7149.4
1914	7358.4
1918.245	7188.4
1922.485	7230.4
1926.722	7219.4
1930.954	7254.4
1935.183	7319.4
1939.408	7199.4
1943.628	7288.4
1947.845	7275.4
1952.058	7377.4
1956.267	7356.4
1960.472	7206.4
1964.673	7273.4
1968.87	7336.4
1973.063	7235.4
1977.252	7096.4
1981.438	7079.4
1985.619	6881.4
1989.797	6841.4
1993.971	6755.4
1998.14	6556.4
2002.306	6563.4
2006.469	6506.4
2010.627	6539.4
2014.781	6507.4
2018.932	6472.4
2023.078	6269.4
2027.221	6222.4
2031.36	6315.4
2035.495	6393.4
2039.627	6370.4
2043.754	6228.4
2047.878	6194.4
2051.998	6174.4
2056.114	6128.4
2060.226	6122.4
2064.334	6031.4
2068.439	6018.4
2072.54	5969.4
2076.637	6206.4
2080.73	6112.4
2084.82	6101.4
2088.906	6156.4
2092.988	6071.4
2097.066	6326.4
2101.14	6052.4
2105.211	6189.4
2109.278	6166.4
2113.342	6158.4
2117.401	6258.4
2121.457	6147.4
2125.509	6151.4
2129.558	5917.4
2133.602	6010.4
2137.643	5939.4
2141.681	5809.4
2145.714	5811.4
2149.744	5677.4
2153.77	5727.4
2157.793	5590.4
2161.812	5743.4
2165.827	5685.4
2169.838	5372.4
2173.846	5560.4
2177.851	5444.4
2181.851	5384.4
2185.848	5524.4
2189.841	5234.4
2193.831	5377.4
2197.817	5118.4
2201.799	5175.4
2205.778	5205.4
2209.753	5156.4
2213.725	5078.4
2217.693	5055.4
2221.657	5006.4
2225.618	4896.4
2229.575	4958.4
2233.529	4882.4
2237.479	4946.4
2241.425	4886.4
2245.368	5045.4
2249.307	4891.4
2253.243	4842.4
2257.175	4909.4
2261.104	4816.4
2265.029	4633.4
2268.95	4647.4
2272.868	4581.4
2276.783	4610.4
2280.694	4377.4
2284.601	4374.4
2288.505	4375.4
2292.405	4163.4
2296.302	4349.4
2300.195	4216.4
2304.085	4285.4
2307.971	4153.4
2311.854	4176.4
2315.734	4064.4
2319.609	4068.4
2323.482	4248.4
2327.351	4111.4
2331.216	4078.4
2335.078	3991.4
2338.937	4053.4
2342.792	3955.4
2346.643	3881.4
2350.492	3957.4
2354.336	3888.4
2358.178	3833.4
2362.015	3787.4
2365.85	3988.4
2369.681	3938.4
2373.508	3906.4
2377.333	3744.4
2381.153	3840.4
2384.971	3925.4
2388.785	3895.4
2392.595	3906.4
2396.402	3913.4
2400.206	4039.4
2404.007	3955.4
2407.804	3832.4
2411.597	3696.4
2415.388	3849.4
2419.174	3744.4
2422.958	3711.4
2426.738	3725.4
2430.515	3593.4
2434.289	3720.4
2438.059	3724.4
2441.825	3660.4
2445.589	3409.4
2449.349	3648.4
2453.106	3477.4
2456.859	3529.4
2460.61	3390.4
2464.356	3492.4
2468.1	3454.4
2471.84	3521.4
2475.577	3489.4
2479.311	3403.4
2483.041	3328.4
2486.768	3209.4
2490.492	3005.4
2494.213	3518.4
2497.93	3353.4
2501.644	3361.4
2505.355	3385.4
2509.062	3229.4
2512.766	3292.4
2516.467	3301.4
2520.165	3300.4
2523.859	3415.4
2527.551	3144.4
2531.239	3244.4
2534.923	3310.4
2538.605	3309.4
2542.283	3132.4
2545.958	3229.4
2549.63	3156.4
2553.299	3092.4
2556.964	2978.4
2560.626	3183.4
2564.285	3069.4
2567.941	3154.4
2571.594	3124.4
2575.243	3041.4
2578.89	3166.4
2582.533	3167.4
2586.173	3128.4
2589.809	3051.4
2593.443	3302.4
2597.073	3124.4
2600.701	2948.4
2604.325	3004.4
2607.946	3054.4
2611.564	2918.4
2615.178	2831.4
2618.79	2891.4
2622.398	2962.4
2626.004	2966.4
2629.606	2855.4
2633.205	3054.4
2636.801	2769.4
2640.394	2761.4
2643.983	2776.4
2647.57	2826.4
2651.153	2711.4
2654.734	2597.4
2658.311	2891.4
2661.885	2740.4
2665.456	2759.4
2669.025	2601.4
2672.589	2637.4
2676.151	2502.4
2679.71	2419.4
2683.266	2555.4
2686.819	2498.4
2690.368	2450.4
2693.915	2289.4
2697.458	2496.4
2700.999	2313.4
2704.536	2328.4
2708.071	2331.4
2711.602	2236.4
2715.13	2302.4
2718.656	2269.4
2722.178	2171.4
2725.697	2295.4
2729.214	1931.4
2732.727	2102.4
2736.237	2111.4
2739.744	2054.4
2743.249	2215.4
2746.75	2246.4
2750.248	2309.4
2753.743	2262.4
2757.236	2204.4
2760.725	2206.4
2764.211	2528.4
2767.695	2251.4
2771.175	2250.4
2774.652	2268.4
2778.127	2268.4
2781.598	2199.4
2785.067	2222.4
2788.532	2185.4
2791.995	2177.4
2795.455	2204.4
2798.911	2160.4
2802.365	2346.4
2805.816	2144.4
2809.264	2126.4
2812.709	2293.4
2816.151	2213.4
2819.59	2269.4
2823.026	2333.4
2826.46	2327.4
2829.89	2260.4
2833.318	2515.4
2836.742	2215.4
2840.164	2306.4
2843.583	2401.4
2846.999	2374.4
2850.412	2323.4
2853.822	2700.4
2857.229	2235.4
2860.634	2384.4
2864.035	2420.4
2867.434	2297.4
2870.83	2395.4
2874.223	2510.4
2877.613	2433.4
2881	2572.4
2884.385	2692.4
2887.766	2529.4
2891.145	2568.4
2894.521	2696.4
2897.894	2686.4
2901.264	2382.4
2904.631	2613.4
2907.996	2624.4
2911.358	2620.4
2914.717	2662.4
2918.073	2686.4
2921.426	2653.4
2924.777	2736.4
2928.124	2757.4
2931.469	2611.4
2934.811	2914.4
2938.15	2764.4
2941.487	2788.4
2944.821	2490.4
2948.152	2882.4
2951.48	2891.4
2954.805	2813.4
2958.128	2753.4
2961.447	2833.4
2964.765	2737.4
2968.079	2908.4
2971.39	2863.4
2974.699	2848.4
2978.005	2841.4
2981.308	2908.4
2984.609	3097.4
2987.907	2975.4
2991.202	3004.4
2994.494	3128.4
2997.784	2754.4
3001.07	3044.4
3004.355	3132.4
3007.636	3175.4
3010.915	3239.4
3014.191	3236.4
3017.464	3272.4
3020.734	3261.4
3024.002	3357.4
3027.267	3468.4
3030.53	3454.4
3033.789	3496.4
3037.046	3560.4
3040.301	3661.4
3043.552	3692.4
3046.801	3714.4
3050.048	3617.4
3053.291	3581.4
3056.532	3766.4
3059.771	4047.4
3063.006	3984.4
3066.239	4083.4
3069.469	4165.4
3072.697	4411.4
3075.922	4445.4
3079.144	4517.4
3082.364	4547.4
3085.581	4831.4
3088.795	4628.4
3092.007	4907.4
3095.216	5113.4
3098.423	5349.4
3101.627	5514.4
3104.828	5514.4
3108.026	5643.4
3111.222	5682.4
3114.416	5668.4
3117.607	5821.4
3120.795	5984.4
3123.98	6067.4
3127.163	6349.4
3130.344	6341.4
3133.521	6479.4
3136.696	6571.4
3139.869	6581.4
3143.039	6741.4
3146.206	6732.4
3149.371	6919.4
3152.533	7120.4
3155.693	7271.4
3158.85	7277.4
3162.005	7347.4
3165.157	7480.4
3168.306	7470.4
3171.453	7406.4
3174.597	7719.4
3177.739	7733.4
3180.878	7624.4
3184.014	7546.4
3187.149	7646.4
3190.28	7587.4
3193.409	7517.4
3196.536	7536.4
3199.659	7419.4
3202.781	7458.4
3205.9	7676.4
3209.016	7524.4
3212.13	7531.4
3215.241	7475.4
3218.35	7542.4
3221.456	7541.4
3224.56	7695.4
3227.661	7652.4
3230.76	7736.4
3233.856	7672.4
3236.95	7626.4
3240.041	7659.4
3243.13	7446.4
3246.216	7535.4
3249.3	7354.4
3252.382	7365.4
3255.46	7465.4
3258.537	7362.4
3261.611	7405.4
3264.682	7191.4
3267.751	7129.4
3270.818	7205.4
3273.882	6962.4
3276.943	6940.4
3280.002	6826.4
3283.059	6878.4
3286.113	6877.4
3289.165	6962.4
3292.214	6840.4
3295.261	6645.4
3298.306	6779.4
3301.348	6559.4
3304.387	6520.4
3307.425	6467.4
3310.459	6445.4
3313.492	6269.4
3316.521	6117.4
3319.549	6096.4
3322.574	5956.4
3325.597	5911.4
3328.617	5821.4
3331.635	5776.4
3334.65	5865.4
3337.663	5716.4
3340.674	5731.4
3343.682	5586.4
3346.688	5629.4
3349.691	5547.4
3352.692	5725.4
3355.691	5506.4
3358.687	5501.4
3361.681	5481.4
3364.673	5499.4
3367.662	5441.4
3370.649	5333.4
3373.633	5454.4
3376.615	5404.4
3379.595	5486.4
3382.572	5260.4
3385.547	5228.4
3388.52	5342.4
3391.49	5209.4
3394.458	5149.4
3397.424	5003.4
3400.387	5131.4
3403.348	4684.4
3406.307	4800.4
3409.263	4746.4
3412.217	4601.4
3415.168	4537.4
3418.118	4529.4
3421.065	4517.4
3424.009	4279.4
3426.951	4453.4
3429.891	4388.4
3432.829	4372.4
3435.764	4290.4
3438.697	4245.4
3441.628	4012.4
3444.557	4108.4
3447.483	4156.4
3450.407	3851.4
3453.328	3726.4
3456.247	3802.4
3459.164	3819.4
3462.079	3600.4
3464.991	3506.4
3467.902	3476.4
3470.809	3399.4
3473.715	3223.4
3476.618	3161.4
3479.519	3054.4
3482.418	3193.4
3485.315	2995.4
3488.209	2869.4
3491.101	2684.4
3493.99	2891.4
3496.878	2490.4
3499.763	2501.4
3502.646	2434.4
3505.527	2642.4
3508.405	2472.4
3511.281	2391.4
3514.155	2322.4
3517.027	2268.4
3519.897	2412.4
3522.764	2128.4
3525.629	2205.4
3528.492	2092.4
3531.352	1913.4
3534.211	1878.4
3537.067	2004.4
3539.921	1870.4
3542.773	1788.4
3545.622	1707.4
3548.469	1761.4
3551.315	1649.4
3554.157	1494.4
3556.998	1475.4
3559.837	1331.4
3562.673	1253.4
3565.507	1353.4
3568.339	1189.4
3571.169	1257.4
3573.996	1259.4
3576.822	1255.4
3579.645	1172.4
3582.466	1147.4
3585.285	1046.4
3588.101	1036.4
3590.916	1119.4
3593.728	979.4
3596.538	1020.4
3599.346	868.4
3602.152	996.4
3604.956	942.4
3607.757	785.4
3610.556	1037.4
3613.354	806.4
3616.149	748.4
3618.942	789.4
3621.732	525.4
3624.521	825.4
3627.307	715.4
3630.092	646.4
3632.874	543.4
3635.654	645.4
3638.432	714.4
3641.208	637.4
3643.982	625.4
3646.753	525.4
3649.523	585.4
3652.29	589.4
3655.055	589.4
3657.818	456.4
3660.579	373.4
3663.338	644.4
3666.095	417.4
3668.849	628.4
3671.602	430.4
3674.352	591.4
3677.101	414.4
3679.847	307.4
3682.591	472.4
3685.333	499.4
3688.073	353.4
3690.811	443.4
3693.547	313.4
3696.281	320.4
3699.013	319.4
3701.742	341.4
3704.47	441.4
3707.195	308.4
3709.919	281.4
3712.64	341.4
3715.359	187.4
3718.076	60.4
3720.792	385.4
3723.505	292.4
3726.216	256.4
3728.925	344.4
3731.632	100.4
3734.336	331.4
3737.039	238.4
3739.74	298.4
3742.439	300.4
3745.136	232.4
3747.83	167.4
3750.523	206.4
3753.213	998.4
3755.902	200.4
3758.589	350.4
3761.273	316.4
3763.956	71.4
3766.636	263.4
3769.315	0.4
3771.991	297.4
3774.665	139.4
3777.338	363.4
3780.008	289.4
3782.677	33.4
3785.343	361.4
3788.007	405.4
3790.67	154.4
3793.33	156.4
3795.989	208.4
3798.645	163.4
3801.299	323.4
3803.952	161.4
3806.602	120.4
3809.251	206.4
3811.897	206.4
3814.542	207.4
3817.184	215.4
3819.825	267.4
3822.463	-144.6
3825.1	175.4
3827.735	220.4
3830.367	168.4
3832.998	27.4
3835.627	165.4
3838.253	125.4
3840.878	14.4
3843.501	-13.6
3846.122	78.4
3848.741	46.4
3851.358	134.4
3853.973	319.4
3856.586	137.4
3859.197	125.4
3861.806	153.4
3864.414	285.4
3867.019	193.4
3869.622	77.4
3872.224	45.4
3874.823	227.4
3877.421	243.4
3880.016	247.4
3882.61	369.4
3885.202	328.4
3887.792	280.4
3890.38	48.4
3892.966	246.4
3895.55	240.4
3898.132	148.4
3900.713	95.4
3903.291	151.4
3905.868	194.4
3908.442	107.4
3911.015	53.4
3913.586	168.4
3916.155	118.4
3918.722	211.4
3921.287	142.4
3923.85	-27.6
3926.411	69.4
3928.971	58.4
3931.528	112.4
3934.084	97.4
3936.638	113.4
3939.19	61.4
3941.74	179.4
3944.288	117.4
3946.834	97.4
3949.378	75.4
3951.921	203.4
3954.462	97.4
3957	216.4
3959.537	160.4
3962.072	268.4
3964.606	226.4
3967.137	54.4
3969.667	140.4
3972.194	165.4
3974.72	163.4
3977.244	206.4
3979.766	92.4
3982.286	240.4
3984.805	92.4
3987.321	44.4
3989.836	105.4
3992.349	157.4
3994.86	160.4
3997.369	147.4
3999.877	25.4
4002.382	130.4
4004.886	115.4
4007.388	106.4
4009.888	268.4
4012.386	-13.6
4014.883	149.4
4017.377	160.4
4019.87	9.4
4022.361	217.4
4024.85	247.4
4027.338	156.4
4029.823	44.4
4032.307	123.4
4034.789	178.4
4037.269	153.4
4039.747	185.4
4042.224	104.4
4044.699	169.4
4047.172	190.4
4049.643	107.4
4052.112	170.4
4054.58	160.4
4057.046	187.4
4059.51	214.4
4061.972	92.4
4064.432	254.4
4066.891	69.4
4069.348	159.4
4071.803	62.4
4074.256	124.4
4076.708	134.4
4079.158	225.4
4081.606	11.4
4084.052	173.4
4086.497	103.4
4088.939	180.4
4091.38	175.4
4093.819	128.4
4096.257	-1420.6
4098.693	-1409.6
4101.127	-1444.6
4103.559	-1478.6
4105.989	328.4
4108.418	383.4
4110.845	541.4
4113.27	424.4
4115.694	500.4
4118.115	547.4
4120.535	93.4
4122.954	2.4
4125.37	-43.6
4127.785	66.4
4130.198	83.4
4132.609	101.4
4135.019	-1497.6
4137.427	-1476.6
4139.833	-1421.6
4142.237	-1219.6
