Data from 2018-2-8_conc=5_RamanShift_11.txt Node
Date: Wed Feb 07 11:04:40 IST 2018
User: aro
Spectrometer: QEPB0276
Trigger mode: 0
Integration Time (sec): 3.000000E1
Scans to average: 1
Electric dark correction enabled: true
Nonlinearity correction enabled: false
Boxcar width: 0
XAxis mode: Raman Shifts
Number of Pixels in Spectrum: 1044
>>>>>Begin Spectral Data<<<<<
160.701	603.5
166.742	665.5
172.777	1318.5
178.805	2916.5
184.826	6588.5
190.841	12749.5
196.849	20357.5
202.85	26016.5
208.845	28016.5
214.833	27916.5
220.815	27611.5
226.789	27297.5
232.758	27371.5
238.719	27284.5
244.674	27016.5
250.623	26610.5
256.565	26134.5
262.5	25600.5
268.429	24962.5
274.351	24803.5
280.267	24671.5
286.176	24034.5
292.079	23782.5
297.975	23388.5
303.865	23268.5
309.748	23084.5
315.625	22991.5
321.495	22502.5
327.359	22486.5
333.217	22582.5
339.068	22537.5
344.912	22585.5
350.751	22493.5
356.583	22346.5
362.408	22412.5
368.227	22368.5
374.04	22541.5
379.847	22621.5
385.647	22750.5
391.44	22945.5
397.228	22900.5
403.009	23144.5
408.784	23123.5
414.553	23379.5
420.315	23460.5
426.071	23526.5
431.821	23481.5
437.565	23360.5
443.302	23258.5
449.033	23335.5
454.758	23086.5
460.477	22964.5
466.189	22958.5
471.896	22835.5
477.596	22638.5
483.29	22744.5
488.978	22718.5
494.66	22728.5
500.335	22617.5
506.005	22622.5
511.668	22341.5
517.325	22277.5
522.977	22059.5
528.622	22022.5
534.261	21771.5
539.894	21781.5
545.521	21717.5
551.141	21587.5
556.756	21357.5
562.365	21270.5
567.968	21108.5
573.565	20989.5
579.155	20775.5
584.74	20787.5
590.319	20569.5
595.892	20642.5
601.459	20407.5
607.02	20505.5
612.575	20527.5
618.124	20405.5
623.667	20593.5
629.204	20370.5
634.735	20510.5
640.261	20429.5
645.781	20561.5
651.294	20262.5
656.802	19917.5
662.304	19852.5
667.8	19676.5
673.29	19687.5
678.775	19559.5
684.254	19577.5
689.726	19591.5
695.193	19403.5
700.655	19487.5
706.11	19630.5
711.56	19513.5
717.004	19507.5
722.442	19729.5
727.874	19500.5
733.301	19530.5
738.722	19584.5
744.137	19356.5
749.547	19189.5
754.951	19113.5
760.349	19052.5
765.741	18819.5
771.128	18761.5
776.509	18861.5
781.885	18811.5
787.254	18744.5
792.618	18832.5
797.977	18970.5
803.33	19017.5
808.677	18959.5
814.019	18968.5
819.355	19001.5
824.686	19014.5
830.011	19012.5
835.33	18784.5
840.644	18526.5
845.952	18572.5
851.255	18207.5
856.552	18240.5
861.844	18128.5
867.13	17988.5
872.41	18024.5
877.686	17862.5
882.955	17962.5
888.219	18039.5
893.478	18204.5
898.731	17935.5
903.979	17958.5
909.221	18045.5
914.458	17963.5
919.69	17670.5
924.916	17623.5
930.136	17332.5
935.351	17318.5
940.561	16973.5
945.766	16921.5
950.965	16682.5
956.158	16885.5
961.347	16939.5
966.529	16897.5
971.707	16931.5
976.879	16829.5
982.046	16932.5
987.208	16974.5
992.364	16778.5
997.515	16790.5
1002.66	16615.5
1007.801	16699.5
1012.936	16653.5
1018.066	16736.5
1023.19	16435.5
1028.309	16343.5
1033.423	16492.5
1038.532	16561.5
1043.636	16791.5
1048.734	16761.5
1053.827	16823.5
1058.915	16821.5
1063.998	16720.5
1069.075	16493.5
1074.147	16220.5
1079.214	16312.5
1084.276	15941.5
1089.333	15964.5
1094.385	15882.5
1099.431	15867.5
1104.472	15799.5
1109.509	15958.5
1114.54	16082.5
1119.565	16168.5
1124.586	16096.5
1129.602	16146.5
1134.613	16034.5
1139.618	15952.5
1144.619	15695.5
1149.614	15532.5
1154.604	15368.5
1159.589	15319.5
1164.57	15024.5
1169.545	15081.5
1174.515	15073.5
1179.48	15184.5
1184.44	15261.5
1189.395	15441.5
1194.345	15594.5
1199.29	15543.5
1204.23	15648.5
1209.165	15536.5
1214.095	15352.5
1219.021	15329.5
1223.941	15246.5
1228.856	15286.5
1233.766	15196.5
1238.672	15067.5
1243.572	15024.5
1248.467	15107.5
1253.358	15256.5
1258.244	15276.5
1263.124	15186.5
1268	14999.5
1272.871	15076.5
1277.737	14979.5
1282.599	14735.5
1287.455	14637.5
1292.306	14319.5
1297.153	14365.5
1301.995	14171.5
1306.832	14080.5
1311.664	14123.5
1316.491	14117.5
1321.314	14041.5
1326.132	14045.5
1330.945	13912.5
1335.753	13802.5
1340.556	13674.5
1345.354	13504.5
1350.148	13247.5
1354.937	13090.5
1359.722	13086.5
1364.501	12944.5
1369.276	12744.5
1374.046	12816.5
1378.811	13033.5
1383.572	13081.5
1388.327	12823.5
1393.079	13276.5
1397.825	13375.5
1402.567	13284.5
1407.304	13191.5
1412.036	13197.5
1416.764	13083.5
1421.487	13294.5
1426.205	12983.5
1430.919	12854.5
1435.628	12642.5
1440.333	12474.5
1445.032	12428.5
1449.727	12297.5
1454.418	12389.5
1459.104	12334.5
1463.785	12182.5
1468.462	12147.5
1473.134	12088.5
1477.802	11918.5
1482.465	12027.5
1487.123	11642.5
1491.777	11834.5
1496.426	11801.5
1501.071	11590.5
1505.711	11627.5
1510.347	11677.5
1514.978	11783.5
1519.604	11919.5
1524.226	12043.5
1528.844	12350.5
1533.457	12152.5
1538.065	12379.5
1542.669	12422.5
1547.269	12468.5
1551.864	12414.5
1556.454	12551.5
1561.041	12437.5
1565.622	12462.5
1570.199	12095.5
1574.772	12092.5
1579.34	11826.5
1583.904	11984.5
1588.464	11918.5
1593.019	11926.5
1597.569	12036.5
1602.115	12158.5
1606.657	12160.5
1611.195	12215.5
1615.728	12204.5
1620.256	12309.5
1624.78	12324.5
1629.3	12331.5
1633.816	12115.5
1638.327	12079.5
1642.834	11968.5
1647.336	11946.5
1651.834	11830.5
1656.328	11942.5
1660.817	11793.5
1665.302	11952.5
1669.783	11882.5
1674.259	11464.5
1678.732	11364.5
1683.199	11070.5
1687.663	10978.5
1692.122	10537.5
1696.577	10298.5
1701.028	10367.5
1705.474	10350.5
1709.917	10301.5
1714.355	10446.5
1718.788	10117.5
1723.218	10023.5
1727.643	9720.5
1732.064	9619.5
1736.481	9605.5
1740.893	9423.5
1745.301	9240.5
1749.705	9361.5
1754.105	8898.5
1758.501	8858.5
1762.893	8448.5
1767.28	8461.5
1771.663	8147.5
1776.042	7989.5
1780.417	7923.5
1784.787	7697.5
1789.154	7752.5
1793.516	7926.5
1797.874	7970.5
1802.228	8210.5
1806.578	8379.5
1810.924	8234.5
1815.266	9004.5
1819.603	8233.5
1823.937	8321.5
1828.266	8182.5
1832.591	8061.5
1836.913	7993.5
1841.23	8002.5
1845.543	7985.5
1849.852	7718.5
1854.156	7750.5
1858.457	7718.5
1862.754	7454.5
1867.047	7506.5
1871.335	7368.5
1875.62	7403.5
1879.9	7345.5
1884.177	7597.5
1888.449	7389.5
1892.718	7377.5
1896.982	7251.5
1901.243	7493.5
1905.499	7401.5
1909.752	7307.5
1914	7518.5
1918.245	7341.5
1922.485	7335.5
1926.722	7365.5
1930.954	7456.5
1935.183	7438.5
1939.408	7455.5
1943.628	7460.5
1947.845	7464.5
1952.058	7558.5
1956.267	7496.5
1960.472	7401.5
1964.673	7413.5
1968.87	7511.5
1973.063	7464.5
1977.252	7284.5
1981.438	7204.5
1985.619	7067.5
1989.797	6967.5
1993.971	6912.5
1998.14	6736.5
2002.306	6766.5
2006.469	6710.5
2010.627	6684.5
2014.781	6670.5
2018.932	6702.5
2023.078	6480.5
2027.221	6446.5
2031.36	6513.5
2035.495	6595.5
2039.627	6498.5
2043.754	6211.5
2047.878	6328.5
2051.998	6310.5
2056.114	6304.5
2060.226	6319.5
2064.334	6213.5
2068.439	6132.5
2072.54	6108.5
2076.637	6286.5
2080.73	6254.5
2084.82	6144.5
2088.906	6303.5
2092.988	6244.5
2097.066	6364.5
2101.14	6208.5
2105.211	6340.5
2109.278	6329.5
2113.342	6329.5
2117.401	6430.5
2121.457	6351.5
2125.509	6282.5
2129.558	6148.5
2133.602	6123.5
2137.643	6051.5
2141.681	6037.5
2145.714	5979.5
2149.744	5899.5
2153.77	5923.5
2157.793	5849.5
2161.812	5901.5
2165.827	5896.5
2169.838	5521.5
2173.846	5676.5
2177.851	5660.5
2181.851	5536.5
2185.848	5549.5
2189.841	5500.5
2193.831	5527.5
2197.817	5261.5
2201.799	5274.5
2205.778	5346.5
2209.753	5241.5
2213.725	5232.5
2217.693	5158.5
2221.657	5174.5
2225.618	5050.5
2229.575	5120.5
2233.529	4993.5
2237.479	5030.5
2241.425	5023.5
2245.368	5167.5
2249.307	5047.5
2253.243	5050.5
2257.175	5000.5
2261.104	4869.5
2265.029	4782.5
2268.95	4835.5
2272.868	4712.5
2276.783	4719.5
2280.694	4507.5
2284.601	4451.5
2288.505	4427.5
2292.405	4284.5
2296.302	4502.5
2300.195	4295.5
2304.085	4518.5
2307.971	4255.5
2311.854	4357.5
2315.734	4205.5
2319.609	4219.5
2323.482	4341.5
2327.351	4217.5
2331.216	4138.5
2335.078	4205.5
2338.937	4197.5
2342.792	4135.5
2346.643	4038.5
2350.492	4077.5
2354.336	4066.5
2358.178	4013.5
2362.015	3988.5
2365.85	4152.5
2369.681	4079.5
2373.508	4052.5
2377.333	3902.5
2381.153	4145.5
2384.971	4127.5
2388.785	4049.5
2392.595	4074.5
2396.402	4046.5
2400.206	4168.5
2404.007	4100.5
2407.804	4031.5
2411.597	3910.5
2415.388	3957.5
2419.174	3940.5
2422.958	3863.5
2426.738	3802.5
2430.515	3781.5
2434.289	3842.5
2438.059	3845.5
2441.825	3819.5
2445.589	3615.5
2449.349	3802.5
2453.106	3649.5
2456.859	3625.5
2460.61	3556.5
2464.356	3633.5
2468.1	3557.5
2471.84	3641.5
2475.577	3648.5
2479.311	3488.5
2483.041	3395.5
2486.768	3275.5
2490.492	3156.5
2494.213	3467.5
2497.93	3492.5
2501.644	3493.5
2505.355	3502.5
2509.062	3355.5
2512.766	3402.5
2516.467	3368.5
2520.165	3407.5
2523.859	3540.5
2527.551	3183.5
2531.239	3386.5
2534.923	3400.5
2538.605	3404.5
2542.283	3361.5
2545.958	3324.5
2549.63	3269.5
2553.299	3228.5
2556.964	3091.5
2560.626	3267.5
2564.285	3197.5
2567.941	3324.5
2571.594	3280.5
2575.243	3071.5
2578.89	3283.5
2582.533	3266.5
2586.173	3237.5
2589.809	3143.5
2593.443	3470.5
2597.073	3260.5
2600.701	3025.5
2604.325	3096.5
2607.946	3123.5
2611.564	3061.5
2615.178	2913.5
2618.79	3012.5
2622.398	3083.5
2626.004	3085.5
2629.606	2915.5
2633.205	3145.5
2636.801	2971.5
2640.394	2917.5
2643.983	2929.5
2647.57	2950.5
2651.153	2853.5
2654.734	2720.5
2658.311	3036.5
2661.885	2833.5
2665.456	2885.5
2669.025	2703.5
2672.589	2669.5
2676.151	2570.5
2679.71	2525.5
2683.266	2697.5
2686.819	2547.5
2690.368	2527.5
2693.915	2408.5
2697.458	2560.5
2700.999	2419.5
2704.536	2434.5
2708.071	2372.5
2711.602	2352.5
2715.13	2359.5
2718.656	2316.5
2722.178	2241.5
2725.697	2345.5
2729.214	2029.5
2732.727	2142.5
2736.237	2210.5
2739.744	2122.5
2743.249	2250.5
2746.75	2316.5
2750.248	2351.5
2753.743	2316.5
2757.236	2360.5
2760.725	2334.5
2764.211	2590.5
2767.695	2325.5
2771.175	2364.5
2774.652	2316.5
2778.127	2260.5
2781.598	2279.5
2785.067	2353.5
2788.532	2315.5
2791.995	2300.5
2795.455	2293.5
2798.911	2272.5
2802.365	2386.5
2805.816	2222.5
2809.264	2240.5
2812.709	2380.5
2816.151	2316.5
2819.59	2426.5
2823.026	2375.5
2826.46	2431.5
2829.89	2395.5
2833.318	2576.5
2836.742	2383.5
2840.164	2375.5
2843.583	2451.5
2846.999	2487.5
2850.412	2373.5
2853.822	2731.5
2857.229	2338.5
2860.634	2415.5
2864.035	2544.5
2867.434	2401.5
2870.83	2434.5
2874.223	2517.5
2877.613	2442.5
2881	2651.5
2884.385	2738.5
2887.766	2664.5
2891.145	2603.5
2894.521	2760.5
2897.894	2705.5
2901.264	2424.5
2904.631	2707.5
2907.996	2683.5
2911.358	2659.5
2914.717	2657.5
2918.073	2671.5
2921.426	2570.5
2924.777	2833.5
2928.124	2782.5
2931.469	2642.5
2934.811	2895.5
2938.15	2767.5
2941.487	2800.5
2944.821	2526.5
2948.152	2908.5
2951.48	2884.5
2954.805	2755.5
2958.128	2734.5
2961.447	2855.5
2964.765	2703.5
2968.079	2824.5
2971.39	2873.5
2974.699	2845.5
2978.005	2855.5
2981.308	2860.5
2984.609	3074.5
2987.907	2920.5
2991.202	3025.5
2994.494	3101.5
2997.784	2741.5
3001.07	2998.5
3004.355	3151.5
3007.636	3158.5
3010.915	3235.5
3014.191	3305.5
3017.464	3294.5
3020.734	3267.5
3024.002	3380.5
3027.267	3441.5
3030.53	3386.5
3033.789	3457.5
3037.046	3666.5
3040.301	3565.5
3043.552	3694.5
3046.801	3804.5
3050.048	3540.5
3053.291	3546.5
3056.532	3763.5
3059.771	4034.5
3063.006	3875.5
3066.239	3974.5
3069.469	4053.5
3072.697	4354.5
3075.922	4404.5
3079.144	4475.5
3082.364	4456.5
3085.581	4754.5
3088.795	4532.5
3092.007	4774.5
3095.216	4984.5
3098.423	5243.5
3101.627	5420.5
3104.828	5424.5
3108.026	5513.5
3111.222	5542.5
3114.416	5573.5
3117.607	5762.5
3120.795	5837.5
3123.98	5984.5
3127.163	6182.5
3130.344	6172.5
3133.521	6488.5
3136.696	6346.5
3139.869	6457.5
3143.039	6587.5
3146.206	6555.5
3149.371	6793.5
3152.533	6970.5
3155.693	7085.5
3158.85	7141.5
3162.005	7129.5
3165.157	7295.5
3168.306	7386.5
3171.453	7203.5
3174.597	7539.5
3177.739	7467.5
3180.878	7352.5
3184.014	7323.5
3187.149	7416.5
3190.28	7415.5
3193.409	7365.5
3196.536	7262.5
3199.659	7243.5
3202.781	7338.5
3205.9	7473.5
3209.016	7312.5
3212.13	7299.5
3215.241	7284.5
3218.35	7314.5
3221.456	7395.5
3224.56	7454.5
3227.661	7393.5
3230.76	7526.5
3233.856	7475.5
3236.95	7315.5
3240.041	7422.5
3243.13	7200.5
3246.216	7304.5
3249.3	7148.5
3252.382	7142.5
3255.46	7248.5
3258.537	6496.5
3261.611	7165.5
3264.682	6901.5
3267.751	6867.5
3270.818	7053.5
3273.882	6742.5
3276.943	6675.5
3280.002	6632.5
3283.059	6640.5
3286.113	6638.5
3289.165	6728.5
3292.214	6706.5
3295.261	6338.5
3298.306	6592.5
3301.348	6392.5
3304.387	6287.5
3307.425	6209.5
3310.459	6243.5
3313.492	6012.5
3316.521	5978.5
3319.549	5892.5
3322.574	5819.5
3325.597	5717.5
3328.617	5737.5
3331.635	5587.5
3334.65	5682.5
3337.663	5523.5
3340.674	5587.5
3343.682	5423.5
3346.688	5462.5
3349.691	5407.5
3352.692	5483.5
3355.691	5315.5
3358.687	5346.5
3361.681	5300.5
3364.673	5332.5
3367.662	5225.5
3370.649	5122.5
3373.633	5222.5
3376.615	5157.5
3379.595	5359.5
3382.572	5128.5
3385.547	5066.5
3388.52	5127.5
3391.49	4981.5
3394.458	5005.5
3397.424	4846.5
3400.387	4898.5
3403.348	4548.5
3406.307	4629.5
3409.263	4628.5
3412.217	4442.5
3415.168	4446.5
3418.118	4438.5
3421.065	4337.5
3424.009	4215.5
3426.951	4289.5
3429.891	4288.5
3432.829	4185.5
3435.764	4171.5
3438.697	4090.5
3441.628	3858.5
3444.557	3997.5
3447.483	3989.5
3450.407	3742.5
3453.328	3590.5
3456.247	3738.5
3459.164	3684.5
3462.079	3408.5
3464.991	3360.5
3467.902	3339.5
3470.809	3284.5
3473.715	3151.5
3476.618	3051.5
3479.519	2955.5
3482.418	3143.5
3485.315	2980.5
3488.209	2845.5
3491.101	2601.5
3493.99	2785.5
3496.878	2398.5
3499.763	2465.5
3502.646	2365.5
3505.527	2537.5
3508.405	2347.5
3511.281	2296.5
3514.155	2260.5
3517.027	2191.5
3519.897	2273.5
3522.764	2046.5
3525.629	2113.5
3528.492	2012.5
3531.352	1845.5
3534.211	1848.5
3537.067	1876.5
3539.921	1825.5
3542.773	1709.5
3545.622	1679.5
3548.469	1719.5
3551.315	1636.5
3554.157	1456.5
3556.998	1458.5
3559.837	1295.5
3562.673	1255.5
3565.507	1340.5
3568.339	1222.5
3571.169	1234.5
3573.996	1186.5
3576.822	1242.5
3579.645	1188.5
3582.466	1058.5
3585.285	1021.5
3588.101	1004.5
3590.916	1089.5
3593.728	941.5
3596.538	1018.5
3599.346	871.5
3602.152	1014.5
3604.956	922.5
3607.757	721.5
3610.556	916.5
3613.354	795.5
3616.149	711.5
3618.942	745.5
3621.732	570.5
3624.521	806.5
3627.307	674.5
3630.092	657.5
3632.874	566.5
3635.654	631.5
3638.432	719.5
3641.208	570.5
3643.982	637.5
3646.753	519.5
3649.523	619.5
3652.29	553.5
3655.055	541.5
3657.818	431.5
3660.579	370.5
3663.338	612.5
3666.095	410.5
3668.849	642.5
3671.602	384.5
3674.352	589.5
3677.101	444.5
3679.847	257.5
3682.591	477.5
3685.333	431.5
3688.073	402.5
3690.811	427.5
3693.547	218.5
3696.281	343.5
3699.013	267.5
3701.742	317.5
3704.47	449.5
3707.195	282.5
3709.919	258.5
3712.64	262.5
3715.359	177.5
3718.076	11.5
3720.792	364.5
3723.505	284.5
3726.216	263.5
3728.925	313.5
3731.632	105.5
3734.336	341.5
3737.039	274.5
3739.74	256.5
3742.439	502.5
3745.136	209.5
3747.83	225.5
3750.523	231.5
3753.213	28.5
3755.902	259.5
3758.589	324.5
3761.273	282.5
3763.956	51.5
3766.636	257.5
3769.315	-11.5
3771.991	362.5
3774.665	144.5
3777.338	347.5
3780.008	290.5
3782.677	49.5
3785.343	354.5
3788.007	431.5
3790.67	147.5
3793.33	152.5
3795.989	175.5
3798.645	157.5
3801.299	342.5
3803.952	167.5
3806.602	134.5
3809.251	179.5
3811.897	182.5
3814.542	201.5
3817.184	169.5
3819.825	232.5
3822.463	-146.5
3825.1	165.5
3827.735	187.5
3830.367	125.5
3832.998	8.5
3835.627	82.5
3838.253	67.5
3840.878	0.5
3843.501	31.5
3846.122	68.5
3848.741	27.5
3851.358	131.5
3853.973	319.5
3856.586	121.5
3859.197	145.5
3861.806	137.5
3864.414	241.5
3867.019	168.5
3869.622	61.5
3872.224	32.5
3874.823	222.5
3877.421	251.5
3880.016	245.5
3882.61	342.5
3885.202	287.5
3887.792	310.5
3890.38	91.5
3892.966	205.5
3895.55	202.5
3898.132	178.5
3900.713	71.5
3903.291	171.5
3905.868	159.5
3908.442	103.5
3911.015	39.5
3913.586	108.5
3916.155	111.5
3918.722	223.5
3921.287	140.5
3923.85	-93.5
3926.411	75.5
3928.971	30.5
3931.528	123.5
3934.084	65.5
3936.638	146.5
3939.19	97.5
3941.74	166.5
3944.288	45.5
3946.834	136.5
3949.378	116.5
3951.921	238.5
3954.462	103.5
3957	104.5
3959.537	125.5
3962.072	294.5
3964.606	288.5
3967.137	46.5
3969.667	129.5
3972.194	165.5
3974.72	125.5
3977.244	251.5
3979.766	55.5
3982.286	195.5
3984.805	97.5
3987.321	47.5
3989.836	108.5
3992.349	170.5
3994.86	146.5
3997.369	139.5
3999.877	85.5
4002.382	127.5
4004.886	196.5
4007.388	98.5
4009.888	264.5
4012.386	145.5
4014.883	166.5
4017.377	120.5
4019.87	17.5
4022.361	220.5
4024.85	215.5
4027.338	208.5
4029.823	151.5
4032.307	110.5
4034.789	191.5
4037.269	136.5
4039.747	228.5
4042.224	103.5
4044.699	150.5
4047.172	149.5
4049.643	77.5
4052.112	128.5
4054.58	148.5
4057.046	157.5
4059.51	189.5
4061.972	125.5
4064.432	284.5
4066.891	44.5
4069.348	164.5
4071.803	64.5
4074.256	111.5
4076.708	106.5
4079.158	192.5
4081.606	-0.5
4084.052	121.5
4086.497	109.5
4088.939	180.5
4091.38	153.5
4093.819	59.5
4096.257	-1372.5
4098.693	-1384.5
4101.127	-1423.5
4103.559	-1476.5
4105.989	372.5
4108.418	349.5
4110.845	552.5
4113.27	394.5
4115.694	532.5
4118.115	554.5
4120.535	79.5
4122.954	-4.5
4125.37	-48.5
4127.785	99.5
4130.198	53.5
4132.609	48.5
4135.019	-1482.5
4137.427	-1433.5
4139.833	-1397.5
4142.237	-1190.5
