Data from 2018-2-8_conc=2_RamanShift_11.txt Node
Date: Wed Feb 07 09:57:10 IST 2018
User: aro
Spectrometer: QEPB0276
Trigger mode: 0
Integration Time (sec): 3.000000E1
Scans to average: 1
Electric dark correction enabled: true
Nonlinearity correction enabled: false
Boxcar width: 0
XAxis mode: Raman Shifts
Number of Pixels in Spectrum: 1044
>>>>>Begin Spectral Data<<<<<
160.701	475.9
166.742	572.9
172.777	1063.9
178.805	2681.9
184.826	6201.9
190.841	12386.9
196.849	19838.9
202.85	25304.9
208.845	27397.9
214.833	27089.9
220.815	26699.9
226.789	26522.9
232.758	26364.9
238.719	26270.9
244.674	26040.9
250.623	25549.9
256.565	25077.9
262.5	24560.9
268.429	23972.9
274.351	23648.9
280.267	23507.9
286.176	22965.9
292.079	22698.9
297.975	22268.9
303.865	22140.9
309.748	21994.9
315.625	21847.9
321.495	21397.9
327.359	21408.9
333.217	21375.9
339.068	21415.9
344.912	21345.9
350.751	21285.9
356.583	21309.9
362.408	21306.9
368.227	21283.9
374.04	21379.9
379.847	21509.9
385.647	21562.9
391.44	21760.9
397.228	21929.9
403.009	22056.9
408.784	22153.9
414.553	22237.9
420.315	22305.9
426.071	22339.9
431.821	22320.9
437.565	22261.9
443.302	22064.9
449.033	22086.9
454.758	22034.9
460.477	21741.9
466.189	21737.9
471.896	21676.9
477.596	21476.9
483.29	21573.9
488.978	21590.9
494.66	21567.9
500.335	21591.9
506.005	21441.9
511.668	21066.9
517.325	21076.9
522.977	20874.9
528.622	20790.9
534.261	20704.9
539.894	20508.9
545.521	20435.9
551.141	20355.9
556.756	20133.9
562.365	20078.9
567.968	20001.9
573.565	19770.9
579.155	19570.9
584.74	19520.9
590.319	19478.9
595.892	19438.9
601.459	19360.9
607.02	19364.9
612.575	19417.9
618.124	19220.9
623.667	19341.9
629.204	19319.9
634.735	19370.9
640.261	19158.9
645.781	19298.9
651.294	19085.9
656.802	18917.9
662.304	18814.9
667.8	18475.9
673.29	18572.9
678.775	18374.9
684.254	18460.9
689.726	18321.9
695.193	18293.9
700.655	18232.9
706.11	18435.9
711.56	18343.9
717.004	18338.9
722.442	18297.9
727.874	18336.9
733.301	18332.9
738.722	18352.9
744.137	18199.9
749.547	18046.9
754.951	18030.9
760.349	17897.9
765.741	17711.9
771.128	17685.9
776.509	17632.9
781.885	17599.9
787.254	17681.9
792.618	17750.9
797.977	17777.9
803.33	17871.9
808.677	17908.9
814.019	17817.9
819.355	17860.9
824.686	17882.9
830.011	17851.9
835.33	17630.9
840.644	17362.9
845.952	17385.9
851.255	17208.9
856.552	17143.9
861.844	16941.9
867.13	16824.9
872.41	16900.9
877.686	16782.9
882.955	16919.9
888.219	16883.9
893.478	17013.9
898.731	16856.9
903.979	16773.9
909.221	16832.9
914.458	16784.9
919.69	16504.9
924.916	16449.9
930.136	16217.9
935.351	16192.9
940.561	15900.9
945.766	15825.9
950.965	15658.9
956.158	15742.9
961.347	15860.9
966.529	15790.9
971.707	15837.9
976.879	15775.9
982.046	15758.9
987.208	15871.9
992.364	15591.9
997.515	15654.9
1002.66	15580.9
1007.801	15651.9
1012.936	15502.9
1018.066	15541.9
1023.19	15322.9
1028.309	15257.9
1033.423	15430.9
1038.532	15461.9
1043.636	15707.9
1048.734	15572.9
1053.827	15746.9
1058.915	15653.9
1063.998	15573.9
1069.075	15415.9
1074.147	15194.9
1079.214	15214.9
1084.276	14942.9
1089.333	14854.9
1094.385	14753.9
1099.431	14884.9
1104.472	14723.9
1109.509	14901.9
1114.54	15015.9
1119.565	15036.9
1124.586	15060.9
1129.602	15003.9
1134.613	14955.9
1139.618	14829.9
1144.619	14641.9
1149.614	14413.9
1154.604	14290.9
1159.589	14211.9
1164.57	14061.9
1169.545	14076.9
1174.515	14105.9
1179.48	14178.9
1184.44	14239.9
1189.395	14299.9
1194.345	14504.9
1199.29	14529.9
1204.23	14562.9
1209.165	14516.9
1214.095	14347.9
1219.021	14193.9
1223.941	14187.9
1228.856	14217.9
1233.766	14214.9
1238.672	14011.9
1243.572	14052.9
1248.467	14052.9
1253.358	14171.9
1258.244	14289.9
1263.124	14092.9
1268	13986.9
1272.871	13964.9
1277.737	13896.9
1282.599	13693.9
1287.455	13555.9
1292.306	13295.9
1297.153	13382.9
1301.995	13210.9
1306.832	13188.9
1311.664	13116.9
1316.491	13197.9
1321.314	13157.9
1326.132	13115.9
1330.945	13055.9
1335.753	12891.9
1340.556	12838.9
1345.354	12608.9
1350.148	12344.9
1354.937	12192.9
1359.722	12275.9
1364.501	12001.9
1369.276	11995.9
1374.046	11888.9
1378.811	11972.9
1383.572	12145.9
1388.327	11927.9
1393.079	12295.9
1397.825	12385.9
1402.567	12296.9
1407.304	12234.9
1412.036	12319.9
1416.764	12241.9
1421.487	12408.9
1426.205	12035.9
1430.919	11799.9
1435.628	11656.9
1440.333	11661.9
1445.032	11531.9
1449.727	11562.9
1454.418	11570.9
1459.104	11447.9
1463.785	11289.9
1468.462	11297.9
1473.134	11244.9
1477.802	11134.9
1482.465	11270.9
1487.123	10898.9
1491.777	10995.9
1496.426	10879.9
1501.071	10735.9
1505.711	10738.9
1510.347	10789.9
1514.978	10921.9
1519.604	10955.9
1524.226	11077.9
1528.844	11358.9
1533.457	11337.9
1538.065	11438.9
1542.669	11507.9
1547.269	11520.9
1551.864	11493.9
1556.454	11610.9
1561.041	11612.9
1565.622	11477.9
1570.199	11157.9
1574.772	11156.9
1579.34	10936.9
1583.904	11120.9
1588.464	11098.9
1593.019	11078.9
1597.569	11173.9
1602.115	11277.9
1606.657	11314.9
1611.195	11387.9
1615.728	11461.9
1620.256	11527.9
1624.78	11440.9
1629.3	11554.9
1633.816	11310.9
1638.327	11239.9
1642.834	11204.9
1647.336	11233.9
1651.834	11072.9
1656.328	11166.9
1660.817	10997.9
1665.302	11068.9
1669.783	11026.9
1674.259	10927.9
1678.732	10573.9
1683.199	10270.9
1687.663	10196.9
1692.122	9866.9
1696.577	9607.9
1701.028	9644.9
1705.474	9565.9
1709.917	9532.9
1714.355	9523.9
1718.788	9354.9
1723.218	9199.9
1727.643	9005.9
1732.064	8792.9
1736.481	8851.9
1740.893	8630.9
1745.301	8489.9
1749.705	8559.9
1754.105	8093.9
1758.501	8053.9
1762.893	7690.9
1767.28	7684.9
1771.663	7432.9
1776.042	7256.9
1780.417	7177.9
1784.787	7024.9
1789.154	7144.9
1793.516	7073.9
1797.874	7348.9
1802.228	7396.9
1806.578	7639.9
1810.924	7539.9
1815.266	7937.9
1819.603	7541.9
1823.937	7540.9
1828.266	7432.9
1832.591	7366.9
1836.913	7266.9
1841.23	7284.9
1845.543	7250.9
1849.852	7057.9
1854.156	7061.9
1858.457	6993.9
1862.754	6977.9
1867.047	6909.9
1871.335	6735.9
1875.62	6685.9
1879.9	6698.9
1884.177	6854.9
1888.449	6695.9
1892.718	6679.9
1896.982	6624.9
1901.243	6786.9
1905.499	6761.9
1909.752	6703.9
1914	6796.9
1918.245	6664.9
1922.485	6681.9
1926.722	6785.9
1930.954	6712.9
1935.183	6779.9
1939.408	6743.9
1943.628	6834.9
1947.845	6787.9
1952.058	6807.9
1956.267	6709.9
1960.472	6649.9
1964.673	6818.9
1968.87	6805.9
1973.063	6815.9
1977.252	6663.9
1981.438	6574.9
1985.619	6468.9
1989.797	6340.9
1993.971	6307.9
1998.14	6139.9
2002.306	6191.9
2006.469	6110.9
2010.627	5996.9
2014.781	6037.9
2018.932	6110.9
2023.078	5879.9
2027.221	5944.9
2031.36	5957.9
2035.495	5939.9
2039.627	5906.9
2043.754	5834.9
2047.878	5802.9
2051.998	5711.9
2056.114	5725.9
2060.226	5744.9
2064.334	5655.9
2068.439	5551.9
2072.54	5590.9
2076.637	5760.9
2080.73	5688.9
2084.82	5637.9
2088.906	5680.9
2092.988	5637.9
2097.066	5761.9
2101.14	5686.9
2105.211	5734.9
2109.278	5767.9
2113.342	5798.9
2117.401	5812.9
2121.457	5758.9
2125.509	5727.9
2129.558	5510.9
2133.602	5639.9
2137.643	5454.9
2141.681	5428.9
2145.714	5397.9
2149.744	5341.9
2153.77	5322.9
2157.793	5281.9
2161.812	5304.9
2165.827	5294.9
2169.838	5087.9
2173.846	5131.9
2177.851	5091.9
2181.851	4967.9
2185.848	4990.9
2189.841	4998.9
2193.831	4977.9
2197.817	4762.9
2201.799	4778.9
2205.778	4812.9
2209.753	4773.9
2213.725	4791.9
2217.693	4670.9
2221.657	4663.9
2225.618	4239.9
2229.575	4593.9
2233.529	4450.9
2237.479	4595.9
2241.425	4565.9
2245.368	4637.9
2249.307	4542.9
2253.243	4528.9
2257.175	4567.9
2261.104	4476.9
2265.029	4293.9
2268.95	4307.9
2272.868	4195.9
2276.783	4206.9
2280.694	3997.9
2284.601	4040.9
2288.505	4075.9
2292.405	3928.9
2296.302	3986.9
2300.195	3874.9
2304.085	3959.9
2307.971	3872.9
2311.854	3906.9
2315.734	3817.9
2319.609	3771.9
2323.482	3916.9
2327.351	3767.9
2331.216	3772.9
2335.078	3732.9
2338.937	3723.9
2342.792	3711.9
2346.643	3661.9
2350.492	3610.9
2354.336	3652.9
2358.178	3582.9
2362.015	3574.9
2365.85	3713.9
2369.681	3601.9
2373.508	3548.9
2377.333	3555.9
2381.153	3625.9
2384.971	3626.9
2388.785	3671.9
2392.595	3654.9
2396.402	3685.9
2400.206	3717.9
2404.007	3659.9
2407.804	3526.9
2411.597	3493.9
2415.388	3517.9
2419.174	3494.9
2422.958	3468.9
2426.738	3395.9
2430.515	3257.9
2434.289	3431.9
2438.059	3416.9
2441.825	3373.9
2445.589	3234.9
2449.349	3326.9
2453.106	3254.9
2456.859	3264.9
2460.61	3123.9
2464.356	3184.9
2468.1	3189.9
2471.84	3222.9
2475.577	3178.9
2479.311	3091.9
2483.041	3051.9
2486.768	2945.9
2490.492	2808.9
2494.213	3231.9
2497.93	3030.9
2501.644	3099.9
2505.355	3090.9
2509.062	3007.9
2512.766	3093.9
2516.467	3052.9
2520.165	2982.9
2523.859	3090.9
2527.551	2889.9
2531.239	2945.9
2534.923	2995.9
2538.605	2927.9
2542.283	2959.9
2545.958	2961.9
2549.63	2864.9
2553.299	2852.9
2556.964	2857.9
2560.626	2941.9
2564.285	2799.9
2567.941	2939.9
2571.594	2925.9
2575.243	2764.9
2578.89	2883.9
2582.533	2889.9
2586.173	2818.9
2589.809	2773.9
2593.443	2951.9
2597.073	2832.9
2600.701	2675.9
2604.325	2782.9
2607.946	2736.9
2611.564	2693.9
2615.178	2558.9
2618.79	2656.9
2622.398	2746.9
2626.004	2648.9
2629.606	2539.9
2633.205	2807.9
2636.801	2512.9
2640.394	2514.9
2643.983	2529.9
2647.57	2561.9
2651.153	2455.9
2654.734	2375.9
2658.311	2613.9
2661.885	2426.9
2665.456	2403.9
2669.025	2359.9
2672.589	2313.9
2676.151	2206.9
2679.71	2281.9
2683.266	2229.9
2686.819	2230.9
2690.368	2204.9
2693.915	2197.9
2697.458	2307.9
2700.999	2084.9
2704.536	2098.9
2708.071	2087.9
2711.602	2044.9
2715.13	2043.9
2718.656	2046.9
2722.178	1936.9
2725.697	2009.9
2729.214	1736.9
2732.727	1876.9
2736.237	2049.9
2739.744	1924.9
2743.249	1984.9
2746.75	1935.9
2750.248	2063.9
2753.743	2053.9
2757.236	2004.9
2760.725	2000.9
2764.211	2249.9
2767.695	2013.9
2771.175	2047.9
2774.652	1965.9
2778.127	1989.9
2781.598	2013.9
2785.067	2011.9
2788.532	1993.9
2791.995	1954.9
2795.455	1975.9
2798.911	1914.9
2802.365	2089.9
2805.816	1988.9
2809.264	1948.9
2812.709	2032.9
2816.151	2000.9
2819.59	2160.9
2823.026	2087.9
2826.46	2072.9
2829.89	2080.9
2833.318	2269.9
2836.742	2089.9
2840.164	2070.9
2843.583	2171.9
2846.999	2113.9
2850.412	2051.9
2853.822	2115.9
2857.229	2025.9
2860.634	2112.9
2864.035	2190.9
2867.434	2123.9
2870.83	2137.9
2874.223	2253.9
2877.613	2123.9
2881	2330.9
2884.385	2400.9
2887.766	2363.9
2891.145	2240.9
2894.521	2418.9
2897.894	2447.9
2901.264	2116.9
2904.631	2425.9
2907.996	2395.9
2911.358	2401.9
2914.717	2374.9
2918.073	2394.9
2921.426	2357.9
2924.777	2451.9
2928.124	2538.9
2931.469	2415.9
2934.811	2644.9
2938.15	2491.9
2941.487	2547.9
2944.821	2531.9
2948.152	2609.9
2951.48	2631.9
2954.805	2545.9
2958.128	2511.9
2961.447	2621.9
2964.765	2521.9
2968.079	2648.9
2971.39	2575.9
2974.699	2613.9
2978.005	2644.9
2981.308	2712.9
2984.609	2772.9
2987.907	2691.9
2991.202	2816.9
2994.494	2868.9
2997.784	2492.9
3001.07	2754.9
3004.355	2883.9
3007.636	2965.9
3010.915	2999.9
3014.191	3059.9
3017.464	3036.9
3020.734	3029.9
3024.002	3109.9
3027.267	3142.9
3030.53	3169.9
3033.789	3216.9
3037.046	3388.9
3040.301	3351.9
3043.552	3362.9
3046.801	3515.9
3050.048	3405.9
3053.291	3329.9
3056.532	3542.9
3059.771	3755.9
3063.006	3699.9
3066.239	3712.9
3069.469	3839.9
3072.697	4139.9
3075.922	4127.9
3079.144	4198.9
3082.364	4319.9
3085.581	4533.9
3088.795	4438.9
3092.007	4571.9
3095.216	4806.9
3098.423	5016.9
3101.627	5120.9
3104.828	5211.9
3108.026	5301.9
3111.222	5317.9
3114.416	5339.9
3117.607	5437.9
3120.795	5638.9
3123.98	5727.9
3127.163	5943.9
3130.344	5987.9
3133.521	6000.9
3136.696	6181.9
3139.869	6290.9
3143.039	6373.9
3146.206	6407.9
3149.371	6585.9
3152.533	6697.9
3155.693	6810.9
3158.85	6923.9
3162.005	6913.9
3165.157	7067.9
3168.306	7120.9
3171.453	7108.9
3174.597	7294.9
3177.739	7220.9
3180.878	7076.9
3184.014	7122.9
3187.149	7226.9
3190.28	7077.9
3193.409	7134.9
3196.536	7078.9
3199.659	7096.9
3202.781	7114.9
3205.9	7276.9
3209.016	7196.9
3212.13	7158.9
3215.241	7052.9
3218.35	7194.9
3221.456	7353.9
3224.56	7333.9
3227.661	7271.9
3230.76	7378.9
3233.856	7285.9
3236.95	7239.9
3240.041	7307.9
3243.13	7070.9
3246.216	7078.9
3249.3	6943.9
3252.382	7014.9
3255.46	7045.9
3258.537	6199.9
3261.611	6937.9
3264.682	6799.9
3267.751	6796.9
3270.818	6859.9
3273.882	6640.9
3276.943	6514.9
3280.002	6515.9
3283.059	6513.9
3286.113	6456.9
3289.165	6499.9
3292.214	6430.9
3295.261	6292.9
3298.306	6376.9
3301.348	6195.9
3304.387	6151.9
3307.425	6050.9
3310.459	6074.9
3313.492	5797.9
3316.521	5913.9
3319.549	5717.9
3322.574	5680.9
3325.597	5593.9
3328.617	5459.9
3331.635	5417.9
3334.65	5500.9
3337.663	5454.9
3340.674	5398.9
3343.682	5292.9
3346.688	5234.9
3349.691	5270.9
3352.692	5351.9
3355.691	5026.9
3358.687	5254.9
3361.681	5163.9
3364.673	5189.9
3367.662	5143.9
3370.649	5010.9
3373.633	5107.9
3376.615	4931.9
3379.595	5167.9
3382.572	4899.9
3385.547	4856.9
3388.52	4892.9
3391.49	4849.9
3394.458	4781.9
3397.424	4577.9
3400.387	4736.9
3403.348	4391.9
3406.307	4482.9
3409.263	4430.9
3412.217	4235.9
3415.168	4286.9
3418.118	4240.9
3421.065	4207.9
3424.009	4070.9
3426.951	4148.9
3429.891	3780.9
3432.829	4028.9
3435.764	3962.9
3438.697	3980.9
3441.628	3737.9
3444.557	3788.9
3447.483	3864.9
3450.407	3671.9
3453.328	3547.9
3456.247	3553.9
3459.164	3547.9
3462.079	3280.9
3464.991	3259.9
3467.902	3308.9
3470.809	3127.9
3473.715	2986.9
3476.618	2949.9
3479.519	2868.9
3482.418	2876.9
3485.315	2678.9
3488.209	2647.9
3491.101	2589.9
3493.99	2509.9
3496.878	2250.9
3499.763	2346.9
3502.646	2268.9
3505.527	2367.9
3508.405	2225.9
3511.281	2106.9
3514.155	2163.9
3517.027	2113.9
3519.897	2218.9
3522.764	1903.9
3525.629	1975.9
3528.492	1847.9
3531.352	1896.9
3534.211	1700.9
3537.067	1748.9
3539.921	1601.9
3542.773	1558.9
3545.622	1473.9
3548.469	1534.9
3551.315	1462.9
3554.157	1346.9
3556.998	1216.9
3559.837	1170.9
3562.673	1081.9
3565.507	1156.9
3568.339	1142.9
3571.169	1116.9
3573.996	1056.9
3576.822	1030.9
3579.645	983.9
3582.466	940.9
3585.285	882.9
3588.101	852.9
3590.916	885.9
3593.728	788.9
3596.538	843.9
3599.346	728.9
3602.152	799.9
3604.956	737.9
3607.757	626.9
3610.556	753.9
3613.354	577.9
3616.149	559.9
3618.942	554.9
3621.732	340.9
3624.521	588.9
3627.307	499.9
3630.092	469.9
3632.874	359.9
3635.654	494.9
3638.432	536.9
3641.208	420.9
3643.982	463.9
3646.753	347.9
3649.523	436.9
3652.29	361.9
3655.055	241.9
3657.818	281.9
3660.579	275.9
3663.338	441.9
3666.095	225.9
3668.849	430.9
3671.602	252.9
3674.352	411.9
3677.101	240.9
3679.847	188.9
3682.591	278.9
3685.333	246.9
3688.073	173.9
3690.811	278.9
3693.547	342.9
3696.281	216.9
3699.013	103.9
3701.742	102.9
3704.47	260.9
3707.195	119.9
3709.919	137.9
3712.64	176.9
3715.359	-5.1
3718.076	-96.1
3720.792	107.9
3723.505	60.9
3726.216	44.9
3728.925	154.9
3731.632	-34.1
3734.336	174.9
3737.039	37.9
3739.74	81.9
3742.439	103.9
3745.136	78.9
3747.83	11.9
3750.523	37.9
3753.213	40.9
3755.902	17.9
3758.589	100.9
3761.273	97.9
3763.956	-44.1
3766.636	166.9
3769.315	-119.1
3771.991	140.9
3774.665	-41.1
3777.338	149.9
3780.008	80.9
3782.677	57.9
3785.343	137.9
3788.007	54.9
3790.67	13.9
3793.33	-58.1
3795.989	84.9
3798.645	-30.1
3801.299	123.9
3803.952	-21.1
3806.602	-20.1
3809.251	51.9
3811.897	19.9
3814.542	-44.1
3817.184	-1.1
3819.825	72.9
3822.463	36.9
3825.1	-20.1
3827.735	18.9
3830.367	-2.1
3832.998	-159.1
3835.627	-62.1
3838.253	-45.1
3840.878	28.9
3843.501	-140.1
3846.122	-102.1
3848.741	-86.1
3851.358	-11.1
3853.973	101.9
3856.586	-7.1
3859.197	-28.1
3861.806	-47.1
3864.414	70.9
3867.019	-43.1
3869.622	-93.1
3872.224	-138.1
3874.823	9.9
3877.421	62.9
3880.016	54.9
3882.61	138.9
3885.202	40.9
3887.792	105.9
3890.38	-103.1
3892.966	-8.1
3895.55	-20.1
3898.132	-9.1
3900.713	-125.1
3903.291	0.9
3905.868	30.9
3908.442	-52.1
3911.015	-42.1
3913.586	-62.1
3916.155	20.9
3918.722	18.9
3921.287	-43.1
3923.85	5.9
3926.411	-104.1
3928.971	-105.1
3931.528	-67.1
3934.084	-89.1
3936.638	-61.1
3939.19	-97.1
3941.74	-70.1
3944.288	-67.1
3946.834	-16.1
3949.378	-66.1
3951.921	14.9
3954.462	-29.1
3957	-79.1
3959.537	17.9
3962.072	38.9
3964.606	117.9
3967.137	-32.1
3969.667	-55.1
3972.194	-54.1
3974.72	-14.1
3977.244	24.9
3979.766	-4.1
3982.286	86.9
3984.805	-72.1
3987.321	-69.1
3989.836	-101.1
3992.349	-7.1
3994.86	-16.1
3997.369	-17.1
3999.877	-101.1
4002.382	-66.1
4004.886	-25.1
4007.388	-15.1
4009.888	116.9
4012.386	-42.1
4014.883	-97.1
4017.377	-49.1
4019.87	-157.1
4022.361	40.9
4024.85	4.9
4027.338	44.9
4029.823	-91.1
4032.307	-57.1
4034.789	45.9
4037.269	188.9
4039.747	13.9
4042.224	-23.1
4044.699	-31.1
4047.172	-18.1
4049.643	-83.1
4052.112	140.9
4054.58	8.9
4057.046	4.9
4059.51	55.9
4061.972	-63.1
4064.432	121.9
4066.891	-126.1
4069.348	25.9
4071.803	-106.1
4074.256	-111.1
4076.708	-11.1
4079.158	-23.1
4081.606	-136.1
4084.052	-28.1
4086.497	-99.1
4088.939	-7.1
4091.38	1.9
4093.819	-57.1
4096.257	-1168.1
4098.693	-1192.1
4101.127	-1235.1
4103.559	-1242.1
4105.989	128.9
4108.418	144.9
4110.845	354.9
4113.27	208.9
4115.694	355.9
4118.115	386.9
4120.535	-70.1
4122.954	-165.1
4125.37	-157.1
4127.785	-37.1
4130.198	-60.1
4132.609	-85.1
4135.019	-1275.1
4137.427	-1251.1
4139.833	-1209.1
4142.237	-1059.1
