Data from 2018-2-8_conc=2_RamanShift_17.txt Node
Date: Wed Feb 07 10:02:40 IST 2018
User: aro
Spectrometer: QEPB0276
Trigger mode: 0
Integration Time (sec): 3.000000E1
Scans to average: 1
Electric dark correction enabled: true
Nonlinearity correction enabled: false
Boxcar width: 0
XAxis mode: Raman Shifts
Number of Pixels in Spectrum: 1044
>>>>>Begin Spectral Data<<<<<
160.701	406.9
166.742	559.9
172.777	1034.9
178.805	2680.9
184.826	6194.9
190.841	12449.9
196.849	19835.9
202.85	25347.9
208.845	27430.9
214.833	27146.9
220.815	26727.9
226.789	25443.9
232.758	26409.9
238.719	26411.9
244.674	26138.9
250.623	25644.9
256.565	25302.9
262.5	24723.9
268.429	24157.9
274.351	23808.9
280.267	23691.9
286.176	23056.9
292.079	22859.9
297.975	22644.9
303.865	22333.9
309.748	22191.9
315.625	21986.9
321.495	21556.9
327.359	21563.9
333.217	21660.9
339.068	21565.9
344.912	21537.9
350.751	21534.9
356.583	21585.9
362.408	21482.9
368.227	21533.9
374.04	21541.9
379.847	21577.9
385.647	21750.9
391.44	22014.9
397.228	22077.9
403.009	22201.9
408.784	22319.9
414.553	22442.9
420.315	22469.9
426.071	22605.9
431.821	22485.9
437.565	22445.9
443.302	22312.9
449.033	22227.9
454.758	22156.9
460.477	21966.9
466.189	21946.9
471.896	21800.9
477.596	21681.9
483.29	21735.9
488.978	21723.9
494.66	21659.9
500.335	21669.9
506.005	21546.9
511.668	21296.9
517.325	21222.9
522.977	20987.9
528.622	20923.9
534.261	20805.9
539.894	20693.9
545.521	20668.9
551.141	20488.9
556.756	20335.9
562.365	20167.9
567.968	20027.9
573.565	19924.9
579.155	19768.9
584.74	19647.9
590.319	19542.9
595.892	19488.9
601.459	19459.9
607.02	19473.9
612.575	19541.9
618.124	19384.9
623.667	19498.9
629.204	19414.9
634.735	19356.9
640.261	19283.9
645.781	19423.9
651.294	19099.9
656.802	19031.9
662.304	18907.9
667.8	18613.9
673.29	18585.9
678.775	18481.9
684.254	18522.9
689.726	18487.9
695.193	18423.9
700.655	18274.9
706.11	18494.9
711.56	18358.9
717.004	18449.9
722.442	18338.9
727.874	18421.9
733.301	18491.9
738.722	18541.9
744.137	18187.9
749.547	18101.9
754.951	18076.9
760.349	17870.9
765.741	17798.9
771.128	17755.9
776.509	17693.9
781.885	17722.9
787.254	17711.9
792.618	17809.9
797.977	17900.9
803.33	17899.9
808.677	17931.9
814.019	17831.9
819.355	17920.9
824.686	17856.9
830.011	17863.9
835.33	17648.9
840.644	17466.9
845.952	17435.9
851.255	17253.9
856.552	17166.9
861.844	17049.9
867.13	16937.9
872.41	16916.9
877.686	16872.9
882.955	16926.9
888.219	17092.9
893.478	17157.9
898.731	16927.9
903.979	16862.9
909.221	16938.9
914.458	16895.9
919.69	16638.9
924.916	16543.9
930.136	16267.9
935.351	16263.9
940.561	15943.9
945.766	15912.9
950.965	15654.9
956.158	15870.9
961.347	15907.9
966.529	15860.9
971.707	15843.9
976.879	15855.9
982.046	15867.9
987.208	15937.9
992.364	15746.9
997.515	15714.9
1002.66	15570.9
1007.801	15628.9
1012.936	15540.9
1018.066	15568.9
1023.19	15455.9
1028.309	15303.9
1033.423	15465.9
1038.532	15510.9
1043.636	15753.9
1048.734	15674.9
1053.827	15818.9
1058.915	15774.9
1063.998	15585.9
1069.075	15390.9
1074.147	15211.9
1079.214	15262.9
1084.276	14906.9
1089.333	14888.9
1094.385	14838.9
1099.431	14901.9
1104.472	14807.9
1109.509	15020.9
1114.54	15060.9
1119.565	15058.9
1124.586	15097.9
1129.602	15096.9
1134.613	14997.9
1139.618	14901.9
1144.619	14679.9
1149.614	14441.9
1154.604	14356.9
1159.589	14277.9
1164.57	14085.9
1169.545	14073.9
1174.515	14128.9
1179.48	14205.9
1184.44	14304.9
1189.395	14480.9
1194.345	14554.9
1199.29	14525.9
1204.23	14589.9
1209.165	14505.9
1214.095	14333.9
1219.021	14246.9
1223.941	14278.9
1228.856	14218.9
1233.766	14116.9
1238.672	14113.9
1243.572	13984.9
1248.467	14075.9
1253.358	14245.9
1258.244	14265.9
1263.124	14097.9
1268	13974.9
1272.871	13946.9
1277.737	13917.9
1282.599	13691.9
1287.455	13583.9
1292.306	13334.9
1297.153	13357.9
1301.995	13269.9
1306.832	13246.9
1311.664	13163.9
1316.491	13228.9
1321.314	13123.9
1326.132	13188.9
1330.945	13027.9
1335.753	12943.9
1340.556	12811.9
1345.354	12717.9
1350.148	12385.9
1354.937	12170.9
1359.722	12198.9
1364.501	11983.9
1369.276	11803.9
1374.046	11856.9
1378.811	11999.9
1383.572	12098.9
1388.327	11897.9
1393.079	12283.9
1397.825	12368.9
1402.567	12361.9
1407.304	12281.9
1412.036	12284.9
1416.764	12222.9
1421.487	12407.9
1426.205	11985.9
1430.919	11904.9
1435.628	11681.9
1440.333	11694.9
1445.032	11451.9
1449.727	11519.9
1454.418	11487.9
1459.104	11496.9
1463.785	11315.9
1468.462	11345.9
1473.134	11284.9
1477.802	11193.9
1482.465	11203.9
1487.123	10921.9
1491.777	11082.9
1496.426	10932.9
1501.071	10763.9
1505.711	10770.9
1510.347	10750.9
1514.978	10928.9
1519.604	11027.9
1524.226	11153.9
1528.844	11384.9
1533.457	11242.9
1538.065	11368.9
1542.669	11431.9
1547.269	11532.9
1551.864	11434.9
1556.454	11638.9
1561.041	11449.9
1565.622	11442.9
1570.199	11156.9
1574.772	11171.9
1579.34	10918.9
1583.904	11109.9
1588.464	11109.9
1593.019	11074.9
1597.569	11183.9
1602.115	11193.9
1606.657	11298.9
1611.195	11340.9
1615.728	11339.9
1620.256	11546.9
1624.78	11452.9
1629.3	11485.9
1633.816	11279.9
1638.327	11173.9
1642.834	11186.9
1647.336	11212.9
1651.834	11022.9
1656.328	11154.9
1660.817	11007.9
1665.302	11086.9
1669.783	11074.9
1674.259	10889.9
1678.732	10669.9
1683.199	10347.9
1687.663	10175.9
1692.122	9819.9
1696.577	9613.9
1701.028	9592.9
1705.474	9535.9
1709.917	9496.9
1714.355	9492.9
1718.788	9328.9
1723.218	9219.9
1727.643	8905.9
1732.064	8824.9
1736.481	8822.9
1740.893	8609.9
1745.301	8481.9
1749.705	8538.9
1754.105	8035.9
1758.501	8099.9
1762.893	7752.9
1767.28	7661.9
1771.663	7483.9
1776.042	7260.9
1780.417	7196.9
1784.787	7045.9
1789.154	7074.9
1793.516	7042.9
1797.874	7247.9
1802.228	7387.9
1806.578	7571.9
1810.924	7427.9
1815.266	7493.9
1819.603	7525.9
1823.937	7494.9
1828.266	7418.9
1832.591	7379.9
1836.913	7265.9
1841.23	7282.9
1845.543	7245.9
1849.852	7048.9
1854.156	7027.9
1858.457	6975.9
1862.754	6718.9
1867.047	6803.9
1871.335	6734.9
1875.62	6709.9
1879.9	6666.9
1884.177	6825.9
1888.449	6713.9
1892.718	6702.9
1896.982	6581.9
1901.243	6815.9
1905.499	6694.9
1909.752	6661.9
1914	6771.9
1918.245	6688.9
1922.485	6739.9
1926.722	6734.9
1930.954	6672.9
1935.183	6713.9
1939.408	6641.9
1943.628	6781.9
1947.845	6726.9
1952.058	6828.9
1956.267	6681.9
1960.472	6650.9
1964.673	6755.9
1968.87	6766.9
1973.063	6736.9
1977.252	6587.9
1981.438	6548.9
1985.619	6389.9
1989.797	6320.9
1993.971	6289.9
1998.14	6052.9
2002.306	6119.9
2006.469	6086.9
2010.627	5986.9
2014.781	6020.9
2018.932	6069.9
2023.078	5848.9
2027.221	5805.9
2031.36	5886.9
2035.495	5945.9
2039.627	5827.9
2043.754	5851.9
2047.878	5760.9
2051.998	5737.9
2056.114	5712.9
2060.226	5701.9
2064.334	5638.9
2068.439	5495.9
2072.54	5568.9
2076.637	5694.9
2080.73	5620.9
2084.82	5619.9
2088.906	5593.9
2092.988	5578.9
2097.066	5780.9
2101.14	5681.9
2105.211	5733.9
2109.278	5711.9
2113.342	5733.9
2117.401	5759.9
2121.457	5749.9
2125.509	5673.9
2129.558	5458.9
2133.602	5614.9
2137.643	5476.9
2141.681	5380.9
2145.714	5363.9
2149.744	5285.9
2153.77	5357.9
2157.793	5233.9
2161.812	5280.9
2165.827	5280.9
2169.838	5094.9
2173.846	5068.9
2177.851	5000.9
2181.851	4971.9
2185.848	5023.9
2189.841	4950.9
2193.831	4962.9
2197.817	4706.9
2201.799	4754.9
2205.778	4809.9
2209.753	4751.9
2213.725	4773.9
2217.693	4674.9
2221.657	4697.9
2225.618	4515.9
2229.575	4560.9
2233.529	4537.9
2237.479	4600.9
2241.425	4536.9
2245.368	4626.9
2249.307	4505.9
2253.243	4463.9
2257.175	4450.9
2261.104	4381.9
2265.029	4250.9
2268.95	4268.9
2272.868	4181.9
2276.783	4170.9
2280.694	3918.9
2284.601	3952.9
2288.505	4050.9
2292.405	3883.9
2296.302	3900.9
2300.195	3884.9
2304.085	3924.9
2307.971	3865.9
2311.854	3848.9
2315.734	3787.9
2319.609	3748.9
2323.482	3809.9
2327.351	3708.9
2331.216	3671.9
2335.078	3741.9
2338.937	3709.9
2342.792	3703.9
2346.643	3639.9
2350.492	3567.9
2354.336	3575.9
2358.178	3578.9
2362.015	3546.9
2365.85	3602.9
2369.681	3625.9
2373.508	3577.9
2377.333	3525.9
2381.153	3612.9
2384.971	3592.9
2388.785	3586.9
2392.595	3622.9
2396.402	3695.9
2400.206	3703.9
2404.007	3582.9
2407.804	3582.9
2411.597	3458.9
2415.388	3500.9
2419.174	3439.9
2422.958	3409.9
2426.738	3390.9
2430.515	3238.9
2434.289	3423.9
2438.059	3377.9
2441.825	3352.9
2445.589	3166.9
2449.349	3344.9
2453.106	3233.9
2456.859	3220.9
2460.61	3143.9
2464.356	3170.9
2468.1	3169.9
2471.84	3231.9
2475.577	3197.9
2479.311	3136.9
2483.041	3099.9
2486.768	2944.9
2490.492	2811.9
2494.213	3195.9
2497.93	3074.9
2501.644	3072.9
2505.355	3117.9
2509.062	3043.9
2512.766	2978.9
2516.467	3024.9
2520.165	2990.9
2523.859	3024.9
2527.551	2768.9
2531.239	2969.9
2534.923	3002.9
2538.605	2906.9
2542.283	2908.9
2545.958	2933.9
2549.63	2847.9
2553.299	2858.9
2556.964	2864.9
2560.626	2864.9
2564.285	2781.9
2567.941	2910.9
2571.594	2933.9
2575.243	2723.9
2578.89	2798.9
2582.533	2875.9
2586.173	2811.9
2589.809	2745.9
2593.443	2966.9
2597.073	2832.9
2600.701	2665.9
2604.325	2792.9
2607.946	2688.9
2611.564	2742.9
2615.178	2610.9
2618.79	2583.9
2622.398	2720.9
2626.004	2661.9
2629.606	2552.9
2633.205	2715.9
2636.801	2617.9
2640.394	2582.9
2643.983	2549.9
2647.57	2545.9
2651.153	2471.9
2654.734	2351.9
2658.311	2540.9
2661.885	2425.9
2665.456	2386.9
2669.025	2408.9
2672.589	2311.9
2676.151	2213.9
2679.71	2247.9
2683.266	2235.9
2686.819	2264.9
2690.368	2213.9
2693.915	2260.9
2697.458	2292.9
2700.999	2111.9
2704.536	2115.9
2708.071	2062.9
2711.602	2027.9
2715.13	2074.9
2718.656	1995.9
2722.178	1935.9
2725.697	2006.9
2729.214	1748.9
2732.727	1934.9
2736.237	2052.9
2739.744	1927.9
2743.249	1965.9
2746.75	1930.9
2750.248	2019.9
2753.743	2022.9
2757.236	1979.9
2760.725	2008.9
2764.211	2128.9
2767.695	2048.9
2771.175	2014.9
2774.652	1957.9
2778.127	1970.9
2781.598	1990.9
2785.067	1986.9
2788.532	1999.9
2791.995	2115.9
2795.455	2003.9
2798.911	1958.9
2802.365	2008.9
2805.816	2015.9
2809.264	1916.9
2812.709	1997.9
2816.151	2017.9
2819.59	2134.9
2823.026	2043.9
2826.46	2112.9
2829.89	2044.9
2833.318	2271.9
2836.742	2050.9
2840.164	2077.9
2843.583	2172.9
2846.999	2141.9
2850.412	2053.9
2853.822	2156.9
2857.229	2028.9
2860.634	2066.9
2864.035	2158.9
2867.434	2063.9
2870.83	2048.9
2874.223	2222.9
2877.613	2116.9
2881	2327.9
2884.385	2393.9
2887.766	2312.9
2891.145	2241.9
2894.521	2400.9
2897.894	2419.9
2901.264	2133.9
2904.631	2371.9
2907.996	2347.9
2911.358	2381.9
2914.717	2344.9
2918.073	2391.9
2921.426	2346.9
2924.777	2489.9
2928.124	2460.9
2931.469	2378.9
2934.811	2597.9
2938.15	2479.9
2941.487	2544.9
2944.821	2511.9
2948.152	2656.9
2951.48	2590.9
2954.805	2553.9
2958.128	2481.9
2961.447	2581.9
2964.765	2458.9
2968.079	2636.9
2971.39	2566.9
2974.699	2614.9
2978.005	2584.9
2981.308	2589.9
2984.609	2742.9
2987.907	2724.9
2991.202	2752.9
2994.494	2848.9
2997.784	2488.9
3001.07	2796.9
3004.355	2861.9
3007.636	2867.9
3010.915	2979.9
3014.191	3066.9
3017.464	3019.9
3020.734	3021.9
3024.002	3084.9
3027.267	3159.9
3030.53	3166.9
3033.789	3232.9
3037.046	3313.9
3040.301	3345.9
3043.552	3401.9
3046.801	3435.9
3050.048	3378.9
3053.291	3375.9
3056.532	3546.9
3059.771	3672.9
3063.006	3612.9
3066.239	3754.9
3069.469	3857.9
3072.697	4079.9
3075.922	4134.9
3079.144	4154.9
3082.364	4255.9
3085.581	4483.9
3088.795	4445.9
3092.007	4554.9
3095.216	4787.9
3098.423	4990.9
3101.627	5072.9
3104.828	5162.9
3108.026	5267.9
3111.222	5341.9
3114.416	5323.9
3117.607	5499.9
3120.795	5587.9
3123.98	5702.9
3127.163	5952.9
3130.344	5935.9
3133.521	6053.9
3136.696	6159.9
3139.869	6242.9
3143.039	6369.9
3146.206	6367.9
3149.371	6526.9
3152.533	6717.9
3155.693	6776.9
3158.85	6902.9
3162.005	6889.9
3165.157	7058.9
3168.306	7037.9
3171.453	6995.9
3174.597	7295.9
3177.739	7264.9
3180.878	7158.9
3184.014	7146.9
3187.149	7236.9
3190.28	7133.9
3193.409	7110.9
3196.536	7047.9
3199.659	7094.9
3202.781	7095.9
3205.9	7219.9
3209.016	7119.9
3212.13	7159.9
3215.241	7045.9
3218.35	7132.9
3221.456	7153.9
3224.56	7305.9
3227.661	7257.9
3230.76	7364.9
3233.856	7266.9
3236.95	7203.9
3240.041	7216.9
3243.13	7024.9
3246.216	7094.9
3249.3	6968.9
3252.382	6953.9
3255.46	7044.9
3258.537	6301.9
3261.611	7020.9
3264.682	6784.9
3267.751	6781.9
3270.818	6809.9
3273.882	6624.9
3276.943	6602.9
3280.002	6553.9
3283.059	6523.9
3286.113	6509.9
3289.165	6511.9
3292.214	6444.9
3295.261	6281.9
3298.306	6379.9
3301.348	6209.9
3304.387	6190.9
3307.425	6038.9
3310.459	6066.9
3313.492	5794.9
3316.521	5833.9
3319.549	5713.9
3322.574	5641.9
3325.597	5487.9
3328.617	5546.9
3331.635	5421.9
3334.65	5498.9
3337.663	5375.9
3340.674	5377.9
3343.682	5257.9
3346.688	5269.9
3349.691	5197.9
3352.692	5351.9
3355.691	5082.9
3358.687	5162.9
3361.681	5220.9
3364.673	5212.9
3367.662	5110.9
3370.649	4928.9
3373.633	5111.9
3376.615	4980.9
3379.595	5149.9
3382.572	5062.9
3385.547	4904.9
3388.52	4931.9
3391.49	4859.9
3394.458	4836.9
3397.424	4677.9
3400.387	4715.9
3403.348	4432.9
3406.307	4411.9
3409.263	4475.9
3412.217	4295.9
3415.168	4282.9
3418.118	4237.9
3421.065	4217.9
3424.009	4025.9
3426.951	4094.9
3429.891	3773.9
3432.829	3996.9
3435.764	3991.9
3438.697	4011.9
3441.628	3760.9
3444.557	3784.9
3447.483	3816.9
3450.407	3637.9
3453.328	3661.9
3456.247	3533.9
3459.164	3540.9
3462.079	3301.9
3464.991	3256.9
3467.902	3325.9
3470.809	3149.9
3473.715	3058.9
3476.618	2923.9
3479.519	2885.9
3482.418	2897.9
3485.315	2746.9
3488.209	2645.9
3491.101	2625.9
3493.99	2512.9
3496.878	2284.9
3499.763	2315.9
3502.646	2276.9
3505.527	2392.9
3508.405	2219.9
3511.281	2067.9
3514.155	2149.9
3517.027	2118.9
3519.897	2165.9
3522.764	1868.9
3525.629	1956.9
3528.492	1850.9
3531.352	1744.9
3534.211	1692.9
3537.067	1716.9
3539.921	1630.9
3542.773	1570.9
3545.622	1441.9
3548.469	1481.9
3551.315	1425.9
3554.157	1331.9
3556.998	1223.9
3559.837	1142.9
3562.673	1078.9
3565.507	1151.9
3568.339	1136.9
3571.169	1138.9
3573.996	1020.9
3576.822	1036.9
3579.645	1024.9
3582.466	921.9
3585.285	876.9
3588.101	856.9
3590.916	863.9
3593.728	785.9
3596.538	835.9
3599.346	680.9
3602.152	784.9
3604.956	705.9
3607.757	590.9
3610.556	754.9
3613.354	577.9
3616.149	624.9
3618.942	545.9
3621.732	369.9
3624.521	578.9
3627.307	467.9
3630.092	509.9
3632.874	364.9
3635.654	522.9
3638.432	580.9
3641.208	409.9
3643.982	468.9
3646.753	359.9
3649.523	471.9
3652.29	379.9
3655.055	401.9
3657.818	246.9
3660.579	344.9
3663.338	399.9
3666.095	200.9
3668.849	424.9
3671.602	258.9
3674.352	338.9
3677.101	213.9
3679.847	176.9
3682.591	259.9
3685.333	268.9
3688.073	152.9
3690.811	231.9
3693.547	316.9
3696.281	227.9
3699.013	128.9
3701.742	177.9
3704.47	210.9
3707.195	101.9
3709.919	73.9
3712.64	146.9
3715.359	18.9
3718.076	-44.1
3720.792	123.9
3723.505	64.9
3726.216	20.9
3728.925	142.9
3731.632	-21.1
3734.336	193.9
3737.039	49.9
3739.74	57.9
3742.439	314.9
3745.136	23.9
3747.83	67.9
3750.523	61.9
3753.213	-335.1
3755.902	31.9
3758.589	188.9
3761.273	126.9
3763.956	-59.1
3766.636	44.9
3769.315	-132.1
3771.991	136.9
3774.665	-113.1
3777.338	152.9
3780.008	27.9
3782.677	79.9
3785.343	93.9
3788.007	143.9
3790.67	5.9
3793.33	-33.1
3795.989	27.9
3798.645	6.9
3801.299	93.9
3803.952	-21.1
3806.602	-20.1
3809.251	17.9
3811.897	56.9
3814.542	32.9
3817.184	16.9
3819.825	39.9
3822.463	31.9
3825.1	-15.1
3827.735	15.9
3830.367	32.9
3832.998	-94.1
3835.627	-64.1
3838.253	-55.1
3840.878	-18.1
3843.501	-158.1
3846.122	-123.1
3848.741	-130.1
3851.358	22.9
3853.973	79.9
3856.586	-52.1
3859.197	-40.1
3861.806	-35.1
3864.414	53.9
3867.019	-31.1
3869.622	-91.1
3872.224	-92.1
3874.823	115.9
3877.421	31.9
3880.016	79.9
3882.61	156.9
3885.202	96.9
3887.792	82.9
3890.38	-33.1
3892.966	49.9
3895.55	-22.1
3898.132	-10.1
3900.713	-53.1
3903.291	-3.1
3905.868	-81.1
3908.442	-58.1
3911.015	-14.1
3913.586	-52.1
3916.155	-55.1
3918.722	28.9
3921.287	-32.1
3923.85	-91.1
3926.411	-64.1
3928.971	-115.1
3931.528	-76.1
3934.084	-40.1
3936.638	-106.1
3939.19	-52.1
3941.74	-9.1
3944.288	-117.1
3946.834	-4.1
3949.378	-46.1
3951.921	3.9
3954.462	-28.1
3957	-97.1
3959.537	-2.1
3962.072	92.9
3964.606	50.9
3967.137	7.9
3969.667	-23.1
3972.194	-15.1
3974.72	-4.1
3977.244	-5.1
3979.766	-4.1
3982.286	70.9
3984.805	-78.1
3987.321	-99.1
3989.836	-54.1
3992.349	15.9
3994.86	-49.1
3997.369	-32.1
3999.877	-102.1
4002.382	-21.1
4004.886	-76.1
4007.388	39.9
4009.888	90.9
4012.386	-80.1
4014.883	-50.1
4017.377	-75.1
4019.87	-160.1
4022.361	-6.1
4024.85	-18.1
4027.338	18.9
4029.823	-71.1
4032.307	-64.1
4034.789	22.9
4037.269	35.9
4039.747	81.9
4042.224	-63.1
4044.699	-60.1
4047.172	-42.1
4049.643	-88.1
4052.112	26.9
4054.58	19.9
4057.046	-29.1
4059.51	68.9
4061.972	-49.1
4064.432	83.9
4066.891	-96.1
4069.348	23.9
4071.803	-105.1
4074.256	-77.1
4076.708	-31.1
4079.158	-19.1
4081.606	-129.1
4084.052	3.9
4086.497	-100.1
4088.939	-4.1
4091.38	-42.1
4093.819	-84.1
4096.257	-1157.1
4098.693	-1140.1
4101.127	-1192.1
4103.559	-1232.1
4105.989	123.9
4108.418	169.9
4110.845	339.9
4113.27	197.9
4115.694	349.9
4118.115	361.9
4120.535	-60.1
4122.954	-97.1
4125.37	-173.1
4127.785	-6.1
4130.198	-72.1
4132.609	-108.1
4135.019	-1238.1
4137.427	-1224.1
4139.833	-1168.1
4142.237	-1052.1
