Data from 2018-2-8_conc=3_RamanShift_05.txt Node
Date: Wed Feb 07 10:11:40 IST 2018
User: aro
Spectrometer: QEPB0276
Trigger mode: 0
Integration Time (sec): 3.000000E1
Scans to average: 1
Electric dark correction enabled: true
Nonlinearity correction enabled: false
Boxcar width: 0
XAxis mode: Raman Shifts
Number of Pixels in Spectrum: 1044
>>>>>Begin Spectral Data<<<<<
160.701	398.5
166.742	540.5
172.777	1026.5
178.805	2531.5
184.826	5764.5
190.841	11573.5
196.849	18554.5
202.85	23838.5
208.845	25732.5
214.833	25621.5
220.815	25359.5
226.789	25216.5
232.758	25037.5
238.719	25056.5
244.674	24947.5
250.623	24594.5
256.565	24196.5
262.5	23726.5
268.429	23286.5
274.351	22936.5
280.267	22769.5
286.176	22328.5
292.079	22090.5
297.975	21887.5
303.865	21726.5
309.748	21557.5
315.625	21384.5
321.495	20970.5
327.359	20949.5
333.217	21032.5
339.068	20992.5
344.912	21037.5
350.751	20959.5
356.583	20940.5
362.408	20988.5
368.227	20923.5
374.04	21066.5
379.847	21143.5
385.647	21246.5
391.44	21410.5
397.228	21468.5
403.009	21568.5
408.784	21722.5
414.553	21978.5
420.315	21949.5
426.071	22024.5
431.821	21925.5
437.565	21875.5
443.302	21758.5
449.033	21693.5
454.758	21572.5
460.477	21424.5
466.189	21365.5
471.896	21234.5
477.596	21230.5
483.29	21248.5
488.978	21195.5
494.66	21179.5
500.335	21147.5
506.005	21061.5
511.668	20842.5
517.325	20723.5
522.977	20610.5
528.622	20520.5
534.261	20286.5
539.894	20298.5
545.521	20182.5
551.141	20202.5
556.756	19892.5
562.365	19716.5
567.968	19679.5
573.565	19549.5
579.155	19382.5
584.74	19315.5
590.319	19246.5
595.892	19226.5
601.459	19125.5
607.02	19133.5
612.575	19201.5
618.124	19024.5
623.667	19181.5
629.204	19107.5
634.735	19080.5
640.261	18974.5
645.781	19124.5
651.294	18844.5
656.802	18704.5
662.304	18585.5
667.8	18338.5
673.29	18334.5
678.775	18214.5
684.254	18271.5
689.726	18376.5
695.193	18112.5
700.655	18120.5
706.11	18303.5
711.56	18092.5
717.004	18140.5
722.442	18118.5
727.874	18185.5
733.301	18250.5
738.722	18210.5
744.137	18036.5
749.547	17882.5
754.951	17905.5
760.349	17710.5
765.741	17551.5
771.128	17547.5
776.509	17545.5
781.885	17524.5
787.254	17513.5
792.618	17602.5
797.977	17664.5
803.33	17708.5
808.677	17774.5
814.019	17677.5
819.355	17700.5
824.686	17740.5
830.011	17638.5
835.33	17385.5
840.644	17287.5
845.952	17298.5
851.255	17048.5
856.552	16968.5
861.844	16722.5
867.13	16807.5
872.41	16730.5
877.686	16666.5
882.955	16743.5
888.219	16827.5
893.478	16953.5
898.731	16817.5
903.979	16741.5
909.221	16746.5
914.458	16614.5
919.69	16446.5
924.916	16368.5
930.136	16088.5
935.351	16173.5
940.561	15825.5
945.766	15725.5
950.965	15539.5
956.158	15716.5
961.347	15722.5
966.529	15655.5
971.707	15721.5
976.879	15749.5
982.046	15781.5
987.208	15777.5
992.364	15652.5
997.515	15626.5
1002.66	15410.5
1007.801	15519.5
1012.936	15340.5
1018.066	15496.5
1023.19	15314.5
1028.309	15198.5
1033.423	15336.5
1038.532	15412.5
1043.636	15629.5
1048.734	15633.5
1053.827	15669.5
1058.915	15678.5
1063.998	15502.5
1069.075	15311.5
1074.147	15168.5
1079.214	15190.5
1084.276	14839.5
1089.333	14784.5
1094.385	14774.5
1099.431	14856.5
1104.472	14744.5
1109.509	14873.5
1114.54	14949.5
1119.565	14978.5
1124.586	14911.5
1129.602	14951.5
1134.613	14865.5
1139.618	14765.5
1144.619	14570.5
1149.614	14380.5
1154.604	14264.5
1159.589	14190.5
1164.57	13970.5
1169.545	13966.5
1174.515	13987.5
1179.48	14177.5
1184.44	14201.5
1189.395	14338.5
1194.345	14480.5
1199.29	14420.5
1204.23	14528.5
1209.165	14433.5
1214.095	14317.5
1219.021	14158.5
1223.941	14065.5
1228.856	14085.5
1233.766	14058.5
1238.672	13948.5
1243.572	13868.5
1248.467	13970.5
1253.358	14190.5
1258.244	14094.5
1263.124	13999.5
1268	13923.5
1272.871	13893.5
1277.737	13862.5
1282.599	13652.5
1287.455	13482.5
1292.306	13254.5
1297.153	13257.5
1301.995	13088.5
1306.832	13031.5
1311.664	13010.5
1316.491	13040.5
1321.314	13080.5
1326.132	13068.5
1330.945	12912.5
1335.753	12778.5
1340.556	12634.5
1345.354	12495.5
1350.148	12195.5
1354.937	12097.5
1359.722	12115.5
1364.501	11884.5
1369.276	11660.5
1374.046	11754.5
1378.811	11847.5
1383.572	11961.5
1388.327	11708.5
1393.079	12247.5
1397.825	12244.5
1402.567	12195.5
1407.304	12163.5
1412.036	12146.5
1416.764	12144.5
1421.487	12213.5
1426.205	11923.5
1430.919	11781.5
1435.628	11583.5
1440.333	11591.5
1445.032	11402.5
1449.727	11420.5
1454.418	11422.5
1459.104	11285.5
1463.785	11206.5
1468.462	11164.5
1473.134	11093.5
1477.802	10933.5
1482.465	11059.5
1487.123	10755.5
1491.777	10807.5
1496.426	10720.5
1501.071	10562.5
1505.711	10533.5
1510.347	10585.5
1514.978	10787.5
1519.604	10818.5
1524.226	10905.5
1528.844	11195.5
1533.457	11191.5
1538.065	11214.5
1542.669	11259.5
1547.269	11381.5
1551.864	11331.5
1556.454	11447.5
1561.041	11340.5
1565.622	11280.5
1570.199	11023.5
1574.772	10937.5
1579.34	10736.5
1583.904	10910.5
1588.464	10887.5
1593.019	10870.5
1597.569	10916.5
1602.115	10980.5
1606.657	11154.5
1611.195	11057.5
1615.728	11080.5
1620.256	11174.5
1624.78	11166.5
1629.3	11113.5
1633.816	11016.5
1638.327	10978.5
1642.834	10868.5
1647.336	10865.5
1651.834	10739.5
1656.328	10810.5
1660.817	10662.5
1665.302	10738.5
1669.783	10678.5
1674.259	10527.5
1678.732	10317.5
1683.199	10023.5
1687.663	9873.5
1692.122	9501.5
1696.577	9257.5
1701.028	9203.5
1705.474	9188.5
1709.917	9263.5
1714.355	9225.5
1718.788	9111.5
1723.218	8976.5
1727.643	8772.5
1732.064	8658.5
1736.481	8779.5
1740.893	8451.5
1745.301	8338.5
1749.705	8318.5
1754.105	7972.5
1758.501	7985.5
1762.893	7591.5
1767.28	7487.5
1771.663	7347.5
1776.042	7140.5
1780.417	7007.5
1784.787	6881.5
1789.154	6928.5
1793.516	6873.5
1797.874	7105.5
1802.228	7189.5
1806.578	7401.5
1810.924	7329.5
1815.266	7809.5
1819.603	7414.5
1823.937	7427.5
1828.266	7311.5
1832.591	7214.5
1836.913	7114.5
1841.23	7149.5
1845.543	7066.5
1849.852	6942.5
1854.156	6958.5
1858.457	6880.5
1862.754	6605.5
1867.047	6756.5
1871.335	6662.5
1875.62	6540.5
1879.9	6537.5
1884.177	6687.5
1888.449	6535.5
1892.718	6602.5
1896.982	6447.5
1901.243	6600.5
1905.499	6544.5
1909.752	6518.5
1914	6562.5
1918.245	6484.5
1922.485	6457.5
1926.722	6521.5
1930.954	6525.5
1935.183	6573.5
1939.408	6554.5
1943.628	6633.5
1947.845	6590.5
1952.058	6646.5
1956.267	6543.5
1960.472	6519.5
1964.673	6534.5
1968.87	6600.5
1973.063	6487.5
1977.252	6439.5
1981.438	6443.5
1985.619	6292.5
1989.797	6182.5
1993.971	6115.5
1998.14	5919.5
2002.306	5942.5
2006.469	5930.5
2010.627	5927.5
2014.781	5836.5
2018.932	5862.5
2023.078	5708.5
2027.221	5709.5
2031.36	5752.5
2035.495	5787.5
2039.627	5749.5
2043.754	5607.5
2047.878	5550.5
2051.998	5522.5
2056.114	5574.5
2060.226	5540.5
2064.334	5433.5
2068.439	5304.5
2072.54	5343.5
2076.637	5480.5
2080.73	5423.5
2084.82	5442.5
2088.906	5445.5
2092.988	5351.5
2097.066	5555.5
2101.14	5430.5
2105.211	5533.5
2109.278	5516.5
2113.342	5513.5
2117.401	5602.5
2121.457	5528.5
2125.509	5508.5
2129.558	5368.5
2133.602	5345.5
2137.643	5303.5
2141.681	5217.5
2145.714	5157.5
2149.744	5121.5
2153.77	5161.5
2157.793	5117.5
2161.812	5143.5
2165.827	5074.5
2169.838	4918.5
2173.846	4955.5
2177.851	4844.5
2181.851	4778.5
2185.848	4907.5
2189.841	4801.5
2193.831	4789.5
2197.817	4638.5
2201.799	4523.5
2205.778	4708.5
2209.753	4608.5
2213.725	4566.5
2217.693	4500.5
2221.657	4546.5
2225.618	4401.5
2229.575	4471.5
2233.529	4368.5
2237.479	4437.5
2241.425	4368.5
2245.368	4467.5
2249.307	4402.5
2253.243	4342.5
2257.175	4384.5
2261.104	4260.5
2265.029	4177.5
2268.95	4155.5
2272.868	4114.5
2276.783	4045.5
2280.694	3881.5
2284.601	3921.5
2288.505	3878.5
2292.405	3805.5
2296.302	3829.5
2300.195	3811.5
2304.085	3821.5
2307.971	3734.5
2311.854	3755.5
2315.734	3683.5
2319.609	3668.5
2323.482	3818.5
2327.351	3627.5
2331.216	3713.5
2335.078	3647.5
2338.937	3578.5
2342.792	3612.5
2346.643	3527.5
2350.492	3463.5
2354.336	3534.5
2358.178	3474.5
2362.015	3522.5
2365.85	3594.5
2369.681	3516.5
2373.508	3437.5
2377.333	3496.5
2381.153	3540.5
2384.971	3588.5
2388.785	3565.5
2392.595	3606.5
2396.402	3620.5
2400.206	3656.5
2404.007	3627.5
2407.804	3515.5
2411.597	3418.5
2415.388	3476.5
2419.174	3421.5
2422.958	3409.5
2426.738	3305.5
2430.515	3221.5
2434.289	3360.5
2438.059	3310.5
2441.825	3312.5
2445.589	3133.5
2449.349	3286.5
2453.106	3207.5
2456.859	3138.5
2460.61	3109.5
2464.356	3135.5
2468.1	3116.5
2471.84	3150.5
2475.577	3080.5
2479.311	3065.5
2483.041	3015.5
2486.768	2850.5
2490.492	2748.5
2494.213	3150.5
2497.93	2994.5
2501.644	3028.5
2505.355	3010.5
2509.062	2990.5
2512.766	2937.5
2516.467	2938.5
2520.165	2946.5
2523.859	2982.5
2527.551	2707.5
2531.239	2895.5
2534.923	2854.5
2538.605	2937.5
2542.283	2813.5
2545.958	2880.5
2549.63	2756.5
2553.299	2759.5
2556.964	2783.5
2560.626	2806.5
2564.285	2691.5
2567.941	2812.5
2571.594	2834.5
2575.243	2703.5
2578.89	2816.5
2582.533	2812.5
2586.173	2777.5
2589.809	2684.5
2593.443	2891.5
2597.073	2761.5
2600.701	2602.5
2604.325	2718.5
2607.946	2672.5
2611.564	2631.5
2615.178	2542.5
2618.79	2544.5
2622.398	2618.5
2626.004	2613.5
2629.606	2493.5
2633.205	2663.5
2636.801	2545.5
2640.394	2526.5
2643.983	2480.5
2647.57	2484.5
2651.153	2391.5
2654.734	2281.5
2658.311	2533.5
2661.885	2413.5
2665.456	2300.5
2669.025	2333.5
2672.589	2287.5
2676.151	2191.5
2679.71	2167.5
2683.266	2284.5
2686.819	2229.5
2690.368	2147.5
2693.915	2185.5
2697.458	2178.5
2700.999	2049.5
2704.536	2060.5
2708.071	2022.5
2711.602	2034.5
2715.13	1990.5
2718.656	1966.5
2722.178	1864.5
2725.697	1862.5
2729.214	1651.5
2732.727	1832.5
2736.237	1817.5
2739.744	1804.5
2743.249	1894.5
2746.75	1844.5
2750.248	1979.5
2753.743	1954.5
2757.236	1926.5
2760.725	1895.5
2764.211	2098.5
2767.695	1949.5
2771.175	1915.5
2774.652	1845.5
2778.127	1934.5
2781.598	1935.5
2785.067	1968.5
2788.532	1896.5
2791.995	1833.5
2795.455	1892.5
2798.911	1837.5
2802.365	1977.5
2805.816	1897.5
2809.264	1815.5
2812.709	1893.5
2816.151	1841.5
2819.59	2062.5
2823.026	2032.5
2826.46	2033.5
2829.89	1961.5
2833.318	2169.5
2836.742	2004.5
2840.164	1973.5
2843.583	2020.5
2846.999	1979.5
2850.412	1966.5
2853.822	2071.5
2857.229	1967.5
2860.634	2043.5
2864.035	2043.5
2867.434	2006.5
2870.83	1925.5
2874.223	2109.5
2877.613	2028.5
2881	2196.5
2884.385	2254.5
2887.766	2113.5
2891.145	2069.5
2894.521	2284.5
2897.894	2288.5
2901.264	1981.5
2904.631	2267.5
2907.996	2232.5
2911.358	2216.5
2914.717	2249.5
2918.073	2217.5
2921.426	2247.5
2924.777	2336.5
2928.124	2298.5
2931.469	2194.5
2934.811	2480.5
2938.15	2290.5
2941.487	2334.5
2944.821	2306.5
2948.152	2466.5
2951.48	2384.5
2954.805	2343.5
2958.128	2267.5
2961.447	2370.5
2964.765	2292.5
2968.079	2443.5
2971.39	2346.5
2974.699	2391.5
2978.005	2380.5
2981.308	2453.5
2984.609	2534.5
2987.907	2389.5
2991.202	2571.5
2994.494	2612.5
2997.784	2270.5
3001.07	2508.5
3004.355	2584.5
3007.636	2623.5
3010.915	2690.5
3014.191	2746.5
3017.464	2737.5
3020.734	2686.5
3024.002	2847.5
3027.267	2814.5
3030.53	2887.5
3033.789	2925.5
3037.046	3058.5
3040.301	3023.5
3043.552	3045.5
3046.801	3168.5
3050.048	3021.5
3053.291	3009.5
3056.532	3262.5
3059.771	3385.5
3063.006	3249.5
3066.239	3382.5
3069.469	3469.5
3072.697	3645.5
3075.922	3697.5
3079.144	3752.5
3082.364	3807.5
3085.581	4002.5
3088.795	3949.5
3092.007	4109.5
3095.216	4228.5
3098.423	4445.5
3101.627	4622.5
3104.828	4655.5
3108.026	4737.5
3111.222	4747.5
3114.416	4758.5
3117.607	4898.5
3120.795	4983.5
3123.98	5122.5
3127.163	5342.5
3130.344	5251.5
3133.521	5381.5
3136.696	5498.5
3139.869	5557.5
3143.039	5646.5
3146.206	5690.5
3149.371	5836.5
3152.533	6017.5
3155.693	6070.5
3158.85	6179.5
3162.005	6155.5
3165.157	6334.5
3168.306	6331.5
3171.453	6229.5
3174.597	6460.5
3177.739	6440.5
3180.878	6386.5
3184.014	6336.5
3187.149	6412.5
3190.28	6299.5
3193.409	6311.5
3196.536	6288.5
3199.659	6295.5
3202.781	6294.5
3205.9	6477.5
3209.016	6345.5
3212.13	6337.5
3215.241	6249.5
3218.35	6286.5
3221.456	6413.5
3224.56	6423.5
3227.661	6410.5
3230.76	6541.5
3233.856	6423.5
3236.95	6365.5
3240.041	6391.5
3243.13	6243.5
3246.216	6285.5
3249.3	6103.5
3252.382	6137.5
3255.46	6197.5
3258.537	6446.5
3261.611	6165.5
3264.682	5888.5
3267.751	5912.5
3270.818	5986.5
3273.882	5858.5
3276.943	5771.5
3280.002	5743.5
3283.059	5693.5
3286.113	5703.5
3289.165	5766.5
3292.214	5694.5
3295.261	5487.5
3298.306	5625.5
3301.348	5518.5
3304.387	5356.5
3307.425	5357.5
3310.459	5328.5
3313.492	5177.5
3316.521	5172.5
3319.549	4986.5
3322.574	4985.5
3325.597	4850.5
3328.617	4864.5
3331.635	4816.5
3334.65	4787.5
3337.663	4837.5
3340.674	4770.5
3343.682	4631.5
3346.688	4674.5
3349.691	4632.5
3352.692	4733.5
3355.691	4436.5
3358.687	4590.5
3361.681	4606.5
3364.673	4562.5
3367.662	4495.5
3370.649	4384.5
3373.633	4507.5
3376.615	4479.5
3379.595	4549.5
3382.572	4453.5
3385.547	4243.5
3388.52	4351.5
3391.49	4284.5
3394.458	4257.5
3397.424	4061.5
3400.387	4088.5
3403.348	3907.5
3406.307	3910.5
3409.263	3944.5
3412.217	3793.5
3415.168	3801.5
3418.118	3768.5
3421.065	3686.5
3424.009	3511.5
3426.951	3614.5
3429.891	3421.5
3432.829	3534.5
3435.764	3529.5
3438.697	3549.5
3441.628	3336.5
3444.557	3344.5
3447.483	3362.5
3450.407	3145.5
3453.328	2973.5
3456.247	3157.5
3459.164	3081.5
3462.079	2888.5
3464.991	2846.5
3467.902	2788.5
3470.809	2730.5
3473.715	2623.5
3476.618	2606.5
3479.519	2484.5
3482.418	2556.5
3485.315	2377.5
3488.209	2328.5
3491.101	2301.5
3493.99	2286.5
3496.878	1919.5
3499.763	2081.5
3502.646	2004.5
3505.527	2083.5
3508.405	1922.5
3511.281	1871.5
3514.155	1892.5
3517.027	1843.5
3519.897	1830.5
3522.764	1689.5
3525.629	1698.5
3528.492	1649.5
3531.352	1484.5
3534.211	1525.5
3537.067	1538.5
3539.921	1413.5
3542.773	1350.5
3545.622	1339.5
3548.469	1342.5
3551.315	1311.5
3554.157	1174.5
3556.998	1170.5
3559.837	977.5
3562.673	962.5
3565.507	1017.5
3568.339	871.5
3571.169	966.5
3573.996	913.5
3576.822	911.5
3579.645	855.5
3582.466	818.5
3585.285	760.5
3588.101	752.5
3590.916	750.5
3593.728	681.5
3596.538	706.5
3599.346	592.5
3602.152	717.5
3604.956	655.5
3607.757	499.5
3610.556	707.5
3613.354	596.5
3616.149	565.5
3618.942	478.5
3621.732	309.5
3624.521	513.5
3627.307	439.5
3630.092	412.5
3632.874	328.5
3635.654	457.5
3638.432	495.5
3641.208	330.5
3643.982	362.5
3646.753	314.5
3649.523	358.5
3652.29	347.5
3655.055	424.5
3657.818	303.5
3660.579	373.5
3663.338	373.5
3666.095	156.5
3668.849	403.5
3671.602	177.5
3674.352	309.5
3677.101	184.5
3679.847	117.5
3682.591	214.5
3685.333	236.5
3688.073	121.5
3690.811	231.5
3693.547	275.5
3696.281	223.5
3699.013	59.5
3701.742	146.5
3704.47	217.5
3707.195	89.5
3709.919	93.5
3712.64	128.5
3715.359	-30.5
3718.076	-100.5
3720.792	87.5
3723.505	108.5
3726.216	48.5
3728.925	114.5
3731.632	-54.5
3734.336	127.5
3737.039	1.5
3739.74	54.5
3742.439	106.5
3745.136	61.5
3747.83	48.5
3750.523	37.5
3753.213	-416.5
3755.902	42.5
3758.589	138.5
3761.273	78.5
3763.956	-66.5
3766.636	56.5
3769.315	-154.5
3771.991	154.5
3774.665	-105.5
3777.338	179.5
3780.008	74.5
3782.677	-150.5
3785.343	114.5
3788.007	48.5
3790.67	0.5
3793.33	-89.5
3795.989	2.5
3798.645	-19.5
3801.299	126.5
3803.952	-34.5
3806.602	-38.5
3809.251	-18.5
3811.897	-2.5
3814.542	53.5
3817.184	36.5
3819.825	76.5
3822.463	-109.5
3825.1	-4.5
3827.735	47.5
3830.367	-34.5
3832.998	-93.5
3835.627	-62.5
3838.253	-50.5
3840.878	12.5
3843.501	-135.5
3846.122	-24.5
3848.741	-103.5
3851.358	-46.5
3853.973	139.5
3856.586	-44.5
3859.197	-111.5
3861.806	-82.5
3864.414	17.5
3867.019	-34.5
3869.622	-78.5
3872.224	-107.5
3874.823	-1.5
3877.421	27.5
3880.016	6.5
3882.61	135.5
3885.202	140.5
3887.792	117.5
3890.38	-76.5
3892.966	32.5
3895.55	-1.5
3898.132	0.5
3900.713	-53.5
3903.291	-16.5
3905.868	-107.5
3908.442	-74.5
3911.015	-81.5
3913.586	-40.5
3916.155	-107.5
3918.722	3.5
3921.287	-72.5
3923.85	-119.5
3926.411	-99.5
3928.971	-101.5
3931.528	-57.5
3934.084	-116.5
3936.638	-92.5
3939.19	-51.5
3941.74	-47.5
3944.288	-106.5
3946.834	-15.5
3949.378	-103.5
3951.921	12.5
3954.462	-23.5
3957	-73.5
3959.537	-4.5
3962.072	41.5
3964.606	40.5
3967.137	-71.5
3969.667	-42.5
3972.194	-49.5
3974.72	-37.5
3977.244	18.5
3979.766	7.5
3982.286	64.5
3984.805	-132.5
3987.321	-87.5
3989.836	-32.5
3992.349	16.5
3994.86	-5.5
3997.369	-32.5
3999.877	-68.5
4002.382	-46.5
4004.886	-51.5
4007.388	-27.5
4009.888	100.5
4012.386	-145.5
4014.883	-45.5
4017.377	-50.5
4019.87	-117.5
4022.361	20.5
4024.85	6.5
4027.338	-46.5
4029.823	-46.5
4032.307	-62.5
4034.789	-5.5
4037.269	44.5
4039.747	44.5
4042.224	-55.5
4044.699	-1.5
4047.172	32.5
4049.643	-52.5
4052.112	87.5
4054.58	-26.5
4057.046	-7.5
4059.51	26.5
4061.972	-66.5
4064.432	81.5
4066.891	-96.5
4069.348	-15.5
4071.803	-77.5
4074.256	-105.5
4076.708	-11.5
4079.158	-40.5
4081.606	-146.5
4084.052	-27.5
4086.497	-173.5
4088.939	3.5
4091.38	-25.5
4093.819	-46.5
4096.257	-1109.5
4098.693	-1091.5
4101.127	-1155.5
4103.559	-1150.5
4105.989	86.5
4108.418	115.5
4110.845	323.5
4113.27	257.5
4115.694	399.5
4118.115	361.5
4120.535	-122.5
4122.954	-117.5
4125.37	-156.5
4127.785	-31.5
4130.198	-96.5
4132.609	-92.5
4135.019	-1199.5
4137.427	-1180.5
4139.833	-1121.5
4142.237	-995.5
