Data from 2018-2-8_conc=4_RamanShift_18.txt Node
Date: Wed Feb 07 10:47:10 IST 2018
User: aro
Spectrometer: QEPB0276
Trigger mode: 0
Integration Time (sec): 3.000000E1
Scans to average: 1
Electric dark correction enabled: true
Nonlinearity correction enabled: false
Boxcar width: 0
XAxis mode: Raman Shifts
Number of Pixels in Spectrum: 1044
>>>>>Begin Spectral Data<<<<<
160.701	544.5
166.742	573.5
172.777	1069.5
178.805	2576.5
184.826	5923.5
190.841	11691.5
196.849	18707.5
202.85	23895.5
208.845	25810.5
214.833	25692.5
220.815	25249.5
226.789	24861.5
232.758	24957.5
238.719	24769.5
244.674	24449.5
250.623	23956.5
256.565	23690.5
262.5	23181.5
268.429	22491.5
274.351	22190.5
280.267	22013.5
286.176	21427.5
292.079	21214.5
297.975	20927.5
303.865	20604.5
309.748	20511.5
315.625	20259.5
321.495	19864.5
327.359	19899.5
333.217	19944.5
339.068	19928.5
344.912	19840.5
350.751	19814.5
356.583	19736.5
362.408	19728.5
368.227	19756.5
374.04	19914.5
379.847	19891.5
385.647	20033.5
391.44	20225.5
397.228	20228.5
403.009	20485.5
408.784	20555.5
414.553	20630.5
420.315	20668.5
426.071	20778.5
431.821	20728.5
437.565	20689.5
443.302	20492.5
449.033	20484.5
454.758	20352.5
460.477	20253.5
466.189	20123.5
471.896	20022.5
477.596	19947.5
483.29	19942.5
488.978	19944.5
494.66	19934.5
500.335	19852.5
506.005	19902.5
511.668	19584.5
517.325	19467.5
522.977	19318.5
528.622	19198.5
534.261	19108.5
539.894	18994.5
545.521	18915.5
551.141	18786.5
556.756	18576.5
562.365	18514.5
567.968	18367.5
573.565	18199.5
579.155	18051.5
584.74	18039.5
590.319	17864.5
595.892	17900.5
601.459	17826.5
607.02	17840.5
612.575	17892.5
618.124	17660.5
623.667	17847.5
629.204	17797.5
634.735	17839.5
640.261	17690.5
645.781	17836.5
651.294	17489.5
656.802	17264.5
662.304	17224.5
667.8	16967.5
673.29	17045.5
678.775	16878.5
684.254	16861.5
689.726	16969.5
695.193	16766.5
700.655	16747.5
706.11	16948.5
711.56	16898.5
717.004	16864.5
722.442	17113.5
727.874	16849.5
733.301	16853.5
738.722	16937.5
744.137	16662.5
749.547	16599.5
754.951	16532.5
760.349	16412.5
765.741	16243.5
771.128	16224.5
776.509	16303.5
781.885	16129.5
787.254	16199.5
792.618	16221.5
797.977	16349.5
803.33	16352.5
808.677	16373.5
814.019	16363.5
819.355	16363.5
824.686	16364.5
830.011	16402.5
835.33	16108.5
840.644	15900.5
845.952	15942.5
851.255	15803.5
856.552	15720.5
861.844	15520.5
867.13	15436.5
872.41	15432.5
877.686	15311.5
882.955	15465.5
888.219	15543.5
893.478	15592.5
898.731	15411.5
903.979	15343.5
909.221	15405.5
914.458	15291.5
919.69	15234.5
924.916	15143.5
930.136	14816.5
935.351	14757.5
940.561	14533.5
945.766	14398.5
950.965	14292.5
956.158	14452.5
961.347	14515.5
966.529	14434.5
971.707	14373.5
976.879	14403.5
982.046	14426.5
987.208	14531.5
992.364	14367.5
997.515	14299.5
1002.66	14135.5
1007.801	14293.5
1012.936	14141.5
1018.066	14226.5
1023.19	14083.5
1028.309	13951.5
1033.423	14099.5
1038.532	14204.5
1043.636	14299.5
1048.734	14280.5
1053.827	14345.5
1058.915	14434.5
1063.998	14185.5
1069.075	14118.5
1074.147	13821.5
1079.214	13889.5
1084.276	13567.5
1089.333	13595.5
1094.385	13520.5
1099.431	13487.5
1104.472	13414.5
1109.509	13606.5
1114.54	13662.5
1119.565	13797.5
1124.586	13634.5
1129.602	13733.5
1134.613	13676.5
1139.618	13531.5
1144.619	13321.5
1149.614	13139.5
1154.604	12987.5
1159.589	12936.5
1164.57	12753.5
1169.545	12769.5
1174.515	12852.5
1179.48	12975.5
1184.44	13036.5
1189.395	13109.5
1194.345	13260.5
1199.29	13204.5
1204.23	13281.5
1209.165	13191.5
1214.095	13105.5
1219.021	12932.5
1223.941	12992.5
1228.856	13017.5
1233.766	12954.5
1238.672	12794.5
1243.572	12712.5
1248.467	12863.5
1253.358	12918.5
1258.244	13004.5
1263.124	12857.5
1268	12676.5
1272.871	12728.5
1277.737	12666.5
1282.599	12492.5
1287.455	12335.5
1292.306	12095.5
1297.153	12105.5
1301.995	11977.5
1306.832	11939.5
1311.664	12005.5
1316.491	12067.5
1321.314	11964.5
1326.132	11997.5
1330.945	11919.5
1335.753	11759.5
1340.556	11746.5
1345.354	11542.5
1350.148	11272.5
1354.937	11147.5
1359.722	11074.5
1364.501	10874.5
1369.276	10675.5
1374.046	10715.5
1378.811	10912.5
1383.572	10873.5
1388.327	10673.5
1393.079	11143.5
1397.825	11183.5
1402.567	11192.5
1407.304	11128.5
1412.036	11166.5
1416.764	10977.5
1421.487	11261.5
1426.205	10953.5
1430.919	10801.5
1435.628	10628.5
1440.333	10543.5
1445.032	10453.5
1449.727	10407.5
1454.418	10451.5
1459.104	10468.5
1463.785	10271.5
1468.462	10280.5
1473.134	10263.5
1477.802	10027.5
1482.465	10179.5
1487.123	9759.5
1491.777	9920.5
1496.426	9848.5
1501.071	9657.5
1505.711	9675.5
1510.347	9732.5
1514.978	9811.5
1519.604	9850.5
1524.226	9968.5
1528.844	10184.5
1533.457	10066.5
1538.065	10310.5
1542.669	10317.5
1547.269	10419.5
1551.864	10353.5
1556.454	10497.5
1561.041	10368.5
1565.622	10372.5
1570.199	10129.5
1574.772	10136.5
1579.34	9896.5
1583.904	10059.5
1588.464	10106.5
1593.019	10041.5
1597.569	10220.5
1602.115	10237.5
1606.657	10292.5
1611.195	10283.5
1615.728	10355.5
1620.256	10520.5
1624.78	10519.5
1629.3	10504.5
1633.816	10372.5
1638.327	10255.5
1642.834	10166.5
1647.336	10227.5
1651.834	10078.5
1656.328	10172.5
1660.817	10014.5
1665.302	10047.5
1669.783	10073.5
1674.259	9888.5
1678.732	9629.5
1683.199	9418.5
1687.663	9300.5
1692.122	8852.5
1696.577	8563.5
1701.028	8697.5
1705.474	8510.5
1709.917	8525.5
1714.355	8559.5
1718.788	8353.5
1723.218	8196.5
1727.643	8023.5
1732.064	7861.5
1736.481	7927.5
1740.893	7677.5
1745.301	7583.5
1749.705	7676.5
1754.105	7272.5
1758.501	7255.5
1762.893	6960.5
1767.28	6910.5
1771.663	6688.5
1776.042	6525.5
1780.417	6428.5
1784.787	6198.5
1789.154	6330.5
1793.516	6305.5
1797.874	6437.5
1802.228	6578.5
1806.578	6713.5
1810.924	6601.5
1815.266	7243.5
1819.603	6706.5
1823.937	6715.5
1828.266	6611.5
1832.591	6470.5
1836.913	6483.5
1841.23	6478.5
1845.543	6431.5
1849.852	6234.5
1854.156	6322.5
1858.457	6222.5
1862.754	6007.5
1867.047	6069.5
1871.335	5979.5
1875.62	5943.5
1879.9	6019.5
1884.177	6187.5
1888.449	5948.5
1892.718	5936.5
1896.982	5881.5
1901.243	6041.5
1905.499	5908.5
1909.752	5935.5
1914	6059.5
1918.245	5859.5
1922.485	5866.5
1926.722	5837.5
1930.954	5939.5
1935.183	5980.5
1939.408	5924.5
1943.628	5971.5
1947.845	5948.5
1952.058	5933.5
1956.267	5972.5
1960.472	5876.5
1964.673	5920.5
1968.87	6022.5
1973.063	5934.5
1977.252	5812.5
1981.438	5823.5
1985.619	5677.5
1989.797	5620.5
1993.971	5582.5
1998.14	5459.5
2002.306	5442.5
2006.469	5434.5
2010.627	5349.5
2014.781	5414.5
2018.932	5426.5
2023.078	5226.5
2027.221	5183.5
2031.36	5299.5
2035.495	5321.5
2039.627	5267.5
2043.754	5158.5
2047.878	5145.5
2051.998	5134.5
2056.114	5173.5
2060.226	5128.5
2064.334	4997.5
2068.439	4942.5
2072.54	4884.5
2076.637	5112.5
2080.73	5054.5
2084.82	5001.5
2088.906	5024.5
2092.988	4927.5
2097.066	5195.5
2101.14	5026.5
2105.211	5177.5
2109.278	5069.5
2113.342	5110.5
2117.401	5207.5
2121.457	5109.5
2125.509	5101.5
2129.558	4947.5
2133.602	4985.5
2137.643	4851.5
2141.681	4830.5
2145.714	4799.5
2149.744	4755.5
2153.77	4727.5
2157.793	4727.5
2161.812	4833.5
2165.827	4770.5
2169.838	4484.5
2173.846	4629.5
2177.851	4596.5
2181.851	4485.5
2185.848	4635.5
2189.841	4427.5
2193.831	4489.5
2197.817	4235.5
2201.799	4285.5
2205.778	4281.5
2209.753	4310.5
2213.725	4185.5
2217.693	4216.5
2221.657	4265.5
2225.618	4130.5
2229.575	4202.5
2233.529	4109.5
2237.479	4137.5
2241.425	4079.5
2245.368	4189.5
2249.307	4123.5
2253.243	4038.5
2257.175	4081.5
2261.104	3969.5
2265.029	3856.5
2268.95	3867.5
2272.868	3755.5
2276.783	3822.5
2280.694	3630.5
2284.601	3641.5
2288.505	3581.5
2292.405	3494.5
2296.302	3630.5
2300.195	3424.5
2304.085	3598.5
2307.971	3438.5
2311.854	3514.5
2315.734	3396.5
2319.609	3421.5
2323.482	3559.5
2327.351	3400.5
2331.216	3404.5
2335.078	3255.5
2338.937	3392.5
2342.792	3316.5
2346.643	3334.5
2350.492	3245.5
2354.336	3307.5
2358.178	3236.5
2362.015	3216.5
2365.85	3319.5
2369.681	3295.5
2373.508	3313.5
2377.333	3160.5
2381.153	3329.5
2384.971	3323.5
2388.785	3282.5
2392.595	3292.5
2396.402	3375.5
2400.206	3381.5
2404.007	3338.5
2407.804	3294.5
2411.597	3160.5
2415.388	3321.5
2419.174	3169.5
2422.958	3177.5
2426.738	3123.5
2430.515	3008.5
2434.289	3119.5
2438.059	3118.5
2441.825	3088.5
2445.589	2932.5
2449.349	3049.5
2453.106	2981.5
2456.859	2959.5
2460.61	2918.5
2464.356	2899.5
2468.1	2914.5
2471.84	2935.5
2475.577	2935.5
2479.311	2752.5
2483.041	2816.5
2486.768	2675.5
2490.492	2527.5
2494.213	2775.5
2497.93	2861.5
2501.644	2825.5
2505.355	2824.5
2509.062	2729.5
2512.766	2838.5
2516.467	2653.5
2520.165	2716.5
2523.859	2809.5
2527.551	2583.5
2531.239	2699.5
2534.923	2636.5
2538.605	2770.5
2542.283	2677.5
2545.958	2683.5
2549.63	2566.5
2553.299	2575.5
2556.964	2663.5
2560.626	2615.5
2564.285	2544.5
2567.941	2645.5
2571.594	2556.5
2575.243	2466.5
2578.89	2641.5
2582.533	2587.5
2586.173	2548.5
2589.809	2528.5
2593.443	2753.5
2597.073	2553.5
2600.701	2473.5
2604.325	2490.5
2607.946	2518.5
2611.564	2457.5
2615.178	2358.5
2618.79	2399.5
2622.398	2506.5
2626.004	2503.5
2629.606	2382.5
2633.205	2555.5
2636.801	2397.5
2640.394	2365.5
2643.983	2359.5
2647.57	2347.5
2651.153	2238.5
2654.734	2115.5
2658.311	2381.5
2661.885	2295.5
2665.456	2166.5
2669.025	2230.5
2672.589	2225.5
2676.151	2096.5
2679.71	2001.5
2683.266	2053.5
2686.819	2075.5
2690.368	2007.5
2693.915	2062.5
2697.458	2031.5
2700.999	1914.5
2704.536	1949.5
2708.071	1959.5
2711.602	1909.5
2715.13	1889.5
2718.656	1877.5
2722.178	1783.5
2725.697	1951.5
2729.214	1576.5
2732.727	1750.5
2736.237	1734.5
2739.744	1771.5
2743.249	1839.5
2746.75	1841.5
2750.248	1913.5
2753.743	1882.5
2757.236	1798.5
2760.725	1843.5
2764.211	2104.5
2767.695	1829.5
2771.175	1859.5
2774.652	1809.5
2778.127	1844.5
2781.598	1862.5
2785.067	1908.5
2788.532	1883.5
2791.995	1936.5
2795.455	1821.5
2798.911	1777.5
2802.365	1945.5
2805.816	1822.5
2809.264	1789.5
2812.709	1908.5
2816.151	1803.5
2819.59	1929.5
2823.026	1966.5
2826.46	1928.5
2829.89	1933.5
2833.318	2101.5
2836.742	1959.5
2840.164	1957.5
2843.583	1992.5
2846.999	1984.5
2850.412	1939.5
2853.822	2103.5
2857.229	1883.5
2860.634	1947.5
2864.035	2094.5
2867.434	1939.5
2870.83	1996.5
2874.223	2062.5
2877.613	1955.5
2881	2171.5
2884.385	2271.5
2887.766	2208.5
2891.145	2190.5
2894.521	2321.5
2897.894	2332.5
2901.264	2030.5
2904.631	2283.5
2907.996	2225.5
2911.358	2290.5
2914.717	2267.5
2918.073	2257.5
2921.426	2289.5
2924.777	2367.5
2928.124	2375.5
2931.469	2341.5
2934.811	2534.5
2938.15	2422.5
2941.487	2440.5
2944.821	2180.5
2948.152	2550.5
2951.48	2494.5
2954.805	2385.5
2958.128	2405.5
2961.447	2509.5
2964.765	2346.5
2968.079	2484.5
2971.39	2477.5
2974.699	2505.5
2978.005	2459.5
2981.308	2525.5
2984.609	2706.5
2987.907	2609.5
2991.202	2665.5
2994.494	2681.5
2997.784	2325.5
3001.07	2641.5
3004.355	2725.5
3007.636	2816.5
3010.915	2848.5
3014.191	2891.5
3017.464	2863.5
3020.734	2818.5
3024.002	3002.5
3027.267	3009.5
3030.53	3077.5
3033.789	3100.5
3037.046	3275.5
3040.301	3249.5
3043.552	3283.5
3046.801	3352.5
3050.048	3224.5
3053.291	3217.5
3056.532	3410.5
3059.771	3578.5
3063.006	3526.5
3066.239	3596.5
3069.469	3719.5
3072.697	4017.5
3075.922	3968.5
3079.144	4033.5
3082.364	4178.5
3085.581	4368.5
3088.795	4136.5
3092.007	4394.5
3095.216	4657.5
3098.423	4833.5
3101.627	4913.5
3104.828	5001.5
3108.026	5098.5
3111.222	5140.5
3114.416	5174.5
3117.607	5269.5
3120.795	5427.5
3123.98	5501.5
3127.163	5756.5
3130.344	5775.5
3133.521	5842.5
3136.696	5915.5
3139.869	6084.5
3143.039	6192.5
3146.206	6141.5
3149.371	6343.5
3152.533	6492.5
3155.693	6656.5
3158.85	6712.5
3162.005	6725.5
3165.157	6876.5
3168.306	6896.5
3171.453	6798.5
3174.597	7065.5
3177.739	7037.5
3180.878	6925.5
3184.014	6932.5
3187.149	6993.5
3190.28	6976.5
3193.409	6887.5
3196.536	6849.5
3199.659	6908.5
3202.781	6828.5
3205.9	6978.5
3209.016	6927.5
3212.13	6922.5
3215.241	6812.5
3218.35	6924.5
3221.456	7007.5
3224.56	7098.5
3227.661	7058.5
3230.76	7110.5
3233.856	6991.5
3236.95	6924.5
3240.041	7037.5
3243.13	6854.5
3246.216	6908.5
3249.3	6780.5
3252.382	6745.5
3255.46	6757.5
3258.537	7068.5
3261.611	6765.5
3264.682	6552.5
3267.751	6449.5
3270.818	6574.5
3273.882	6457.5
3276.943	6350.5
3280.002	6303.5
3283.059	6336.5
3286.113	6242.5
3289.165	6320.5
3292.214	6277.5
3295.261	6099.5
3298.306	6204.5
3301.348	6011.5
3304.387	5956.5
3307.425	5857.5
3310.459	5868.5
3313.492	5639.5
3316.521	5558.5
3319.549	5572.5
3322.574	5511.5
3325.597	5348.5
3328.617	5357.5
3331.635	5306.5
3334.65	5322.5
3337.663	5214.5
3340.674	5242.5
3343.682	5169.5
3346.688	5125.5
3349.691	5151.5
3352.692	5213.5
3355.691	5014.5
3358.687	5053.5
3361.681	4972.5
3364.673	5012.5
3367.662	5004.5
3370.649	4853.5
3373.633	5035.5
3376.615	4921.5
3379.595	4961.5
3382.572	4974.5
3385.547	4740.5
3388.52	4853.5
3391.49	4691.5
3394.458	4677.5
3397.424	4480.5
3400.387	4631.5
3403.348	4294.5
3406.307	4391.5
3409.263	4358.5
3412.217	4170.5
3415.168	4147.5
3418.118	4130.5
3421.065	4122.5
3424.009	3921.5
3426.951	4064.5
3429.891	3985.5
3432.829	3979.5
3435.764	3918.5
3438.697	3839.5
3441.628	3619.5
3444.557	3742.5
3447.483	3704.5
3450.407	3501.5
3453.328	3373.5
3456.247	3523.5
3459.164	3423.5
3462.079	3237.5
3464.991	3209.5
3467.902	3100.5
3470.809	3081.5
3473.715	2934.5
3476.618	2814.5
3479.519	2812.5
3482.418	2896.5
3485.315	2731.5
3488.209	2609.5
3491.101	2573.5
3493.99	2578.5
3496.878	2245.5
3499.763	2280.5
3502.646	2153.5
3505.527	2359.5
3508.405	2203.5
3511.281	2054.5
3514.155	2097.5
3517.027	2091.5
3519.897	2151.5
3522.764	1927.5
3525.629	1951.5
3528.492	1815.5
3531.352	1682.5
3534.211	1647.5
3537.067	1732.5
3539.921	1625.5
3542.773	1538.5
3545.622	1559.5
3548.469	1560.5
3551.315	1486.5
3554.157	1316.5
3556.998	1272.5
3559.837	1186.5
3562.673	1085.5
3565.507	1205.5
3568.339	1019.5
3571.169	1120.5
3573.996	1017.5
3576.822	1050.5
3579.645	1028.5
3582.466	956.5
3585.285	898.5
3588.101	872.5
3590.916	960.5
3593.728	763.5
3596.538	859.5
3599.346	758.5
3602.152	850.5
3604.956	786.5
3607.757	627.5
3610.556	817.5
3613.354	602.5
3616.149	645.5
3618.942	580.5
3621.732	401.5
3624.521	589.5
3627.307	521.5
3630.092	495.5
3632.874	416.5
3635.654	532.5
3638.432	587.5
3641.208	456.5
3643.982	486.5
3646.753	407.5
3649.523	471.5
3652.29	453.5
3655.055	466.5
3657.818	330.5
3660.579	244.5
3663.338	481.5
3666.095	270.5
3668.849	509.5
3671.602	297.5
3674.352	455.5
3677.101	291.5
3679.847	198.5
3682.591	317.5
3685.333	332.5
3688.073	184.5
3690.811	315.5
3693.547	166.5
3696.281	229.5
3699.013	180.5
3701.742	216.5
3704.47	305.5
3707.195	215.5
3709.919	175.5
3712.64	181.5
3715.359	69.5
3718.076	-43.5
3720.792	135.5
3723.505	151.5
3726.216	128.5
3728.925	158.5
3731.632	-15.5
3734.336	240.5
3737.039	140.5
3739.74	161.5
3742.439	413.5
3745.136	139.5
3747.83	45.5
3750.523	103.5
3753.213	476.5
3755.902	90.5
3758.589	178.5
3761.273	156.5
3763.956	-7.5
3766.636	130.5
3769.315	-73.5
3771.991	206.5
3774.665	81.5
3777.338	202.5
3780.008	127.5
3782.677	109.5
3785.343	198.5
3788.007	453.5
3790.67	88.5
3793.33	32.5
3795.989	133.5
3798.645	15.5
3801.299	243.5
3803.952	70.5
3806.602	30.5
3809.251	96.5
3811.897	75.5
3814.542	78.5
3817.184	89.5
3819.825	129.5
3822.463	-17.5
3825.1	52.5
3827.735	78.5
3830.367	31.5
3832.998	-66.5
3835.627	18.5
3838.253	-0.5
3840.878	-83.5
3843.501	-68.5
3846.122	30.5
3848.741	-93.5
3851.358	31.5
3853.973	199.5
3856.586	68.5
3859.197	39.5
3861.806	56.5
3864.414	157.5
3867.019	73.5
3869.622	-33.5
3872.224	-103.5
3874.823	102.5
3877.421	103.5
3880.016	181.5
3882.61	212.5
3885.202	156.5
3887.792	183.5
3890.38	-12.5
3892.966	88.5
3895.55	42.5
3898.132	83.5
3900.713	-17.5
3903.291	47.5
3905.868	62.5
3908.442	50.5
3911.015	-5.5
3913.586	23.5
3916.155	-37.5
3918.722	122.5
3921.287	6.5
3923.85	-205.5
3926.411	-36.5
3928.971	0.5
3931.528	-8.5
3934.084	31.5
3936.638	12.5
3939.19	15.5
3941.74	13.5
3944.288	-14.5
3946.834	7.5
3949.378	5.5
3951.921	126.5
3954.462	4.5
3957	-13.5
3959.537	55.5
3962.072	96.5
3964.606	125.5
3967.137	-27.5
3969.667	-16.5
3972.194	5.5
3974.72	32.5
3977.244	68.5
3979.766	85.5
3982.286	114.5
3984.805	-36.5
3987.321	-0.5
3989.836	25.5
3992.349	124.5
3994.86	58.5
3997.369	24.5
3999.877	12.5
4002.382	-3.5
4004.886	46.5
4007.388	92.5
4009.888	167.5
4012.386	-67.5
4014.883	26.5
4017.377	25.5
4019.87	-92.5
4022.361	82.5
4024.85	127.5
4027.338	31.5
4029.823	-23.5
4032.307	-17.5
4034.789	96.5
4037.269	56.5
4039.747	75.5
4042.224	43.5
4044.699	45.5
4047.172	49.5
4049.643	12.5
4052.112	56.5
4054.58	33.5
4057.046	30.5
4059.51	103.5
4061.972	16.5
4064.432	126.5
4066.891	-56.5
4069.348	89.5
4071.803	-68.5
4074.256	22.5
4076.708	84.5
4079.158	142.5
4081.606	-85.5
4084.052	54.5
4086.497	-3.5
4088.939	91.5
4091.38	72.5
4093.819	-51.5
4096.257	-1188.5
4098.693	-1176.5
4101.127	-1224.5
4103.559	-1245.5
4105.989	229.5
4108.418	201.5
4110.845	405.5
4113.27	256.5
4115.694	403.5
4118.115	436.5
4120.535	-7.5
4122.954	-70.5
4125.37	-81.5
4127.785	21.5
4130.198	-42.5
4132.609	-35.5
4135.019	-1254.5
4137.427	-1263.5
4139.833	-1212.5
4142.237	-1033.5
