Data from 2018-2-8_ethanol_RamanShift_01.txt Node
Date: Wed Feb 07 09:18:10 IST 2018
User: aro
Spectrometer: QEPB0276
Trigger mode: 0
Integration Time (sec): 3.000000E1
Scans to average: 1
Electric dark correction enabled: true
Nonlinearity correction enabled: false
Boxcar width: 0
XAxis mode: Raman Shifts
Number of Pixels in Spectrum: 1044
>>>>>Begin Spectral Data<<<<<
160.701	139.4
166.742	137.4
172.777	342.4
178.805	788.4
184.826	1871.4
190.841	3706.4
196.849	5815.4
202.85	7297.4
208.845	7796.4
214.833	7741.4
220.815	7720.4
226.789	6256.4
232.758	7504.4
238.719	7528.4
244.674	7515.4
250.623	7471.4
256.565	7474.4
262.5	7471.4
268.429	7414.4
274.351	7512.4
280.267	7452.4
286.176	7239.4
292.079	7118.4
297.975	6907.4
303.865	6731.4
309.748	6550.4
315.625	6293.4
321.495	6188.4
327.359	6185.4
333.217	6002.4
339.068	5970.4
344.912	5989.4
350.751	5967.4
356.583	5996.4
362.408	6066.4
368.227	6086.4
374.04	6227.4
379.847	6245.4
385.647	6473.4
391.44	6714.4
397.228	7005.4
403.009	7399.4
408.784	8030.4
414.553	8924.4
420.315	10580.4
426.071	12810.4
431.821	15512.4
437.565	17461.4
443.302	17593.4
449.033	16021.4
454.758	13689.4
460.477	11446.4
466.189	9764.4
471.896	8498.4
477.596	7675.4
483.29	7189.4
488.978	6764.4
494.66	6467.4
500.335	6216.4
506.005	6015.4
511.668	5705.4
517.325	5481.4
522.977	5238.4
528.622	5150.4
534.261	5005.4
539.894	4911.4
545.521	4856.4
551.141	4815.4
556.756	4699.4
562.365	4739.4
567.968	4670.4
573.565	4665.4
579.155	4628.4
584.74	4594.4
590.319	4583.4
595.892	4591.4
601.459	4583.4
607.02	4633.4
612.575	4656.4
618.124	4552.4
623.667	4631.4
629.204	4636.4
634.735	4620.4
640.261	4600.4
645.781	4597.4
651.294	4581.4
656.802	4534.4
662.304	4500.4
667.8	4408.4
673.29	4426.4
678.775	4378.4
684.254	4437.4
689.726	4456.4
695.193	4382.4
700.655	4331.4
706.11	4458.4
711.56	4448.4
717.004	4464.4
722.442	4563.4
727.874	4481.4
733.301	4493.4
738.722	4527.4
744.137	4469.4
749.547	4507.4
754.951	4517.4
760.349	4512.4
765.741	4555.4
771.128	4662.4
776.509	4738.4
781.885	4841.4
787.254	5029.4
792.618	5211.4
797.977	5414.4
803.33	5677.4
808.677	5963.4
814.019	6175.4
819.355	6317.4
824.686	6409.4
830.011	6544.4
835.33	6742.4
840.644	7090.4
845.952	7609.4
851.255	8364.4
856.552	9751.4
861.844	11958.4
867.13	16559.4
872.41	26628.4
877.686	46003.4
882.955	52148.4
888.219	51869.4
893.478	51614.4
898.731	52234.4
903.979	37960.4
909.221	19135.4
914.458	13142.4
919.69	10200.4
924.916	8634.4
930.136	7464.4
935.351	6918.4
940.561	6243.4
945.766	5876.4
950.965	5695.4
956.158	5546.4
961.347	5485.4
966.529	5458.4
971.707	5416.4
976.879	5543.4
982.046	5637.4
987.208	5873.4
992.364	5895.4
997.515	6262.4
1002.66	6560.4
1007.801	7213.4
1012.936	7988.4
1018.066	9207.4
1023.19	10801.4
1028.309	13116.4
1033.423	16351.4
1038.532	20558.4
1043.636	25767.4
1048.734	31900.4
1053.827	37509.4
1058.915	39061.4
1063.998	35191.4
1069.075	28827.4
1074.147	24254.4
1079.214	23200.4
1084.276	24832.4
1089.333	28797.4
1094.385	33786.4
1099.431	37365.4
1104.472	36474.4
1109.509	31004.4
1114.54	24593.4
1119.565	20159.4
1124.586	17694.4
1129.602	15885.4
1134.613	13880.4
1139.618	11779.4
1144.619	10063.4
1149.614	8803.4
1154.604	7971.4
1159.589	7385.4
1164.57	6786.4
1169.545	6323.4
1174.515	6028.4
1179.48	5685.4
1184.44	5535.4
1189.395	5401.4
1194.345	5324.4
1199.29	5278.4
1204.23	5268.4
1209.165	5265.4
1214.095	5273.4
1219.021	5356.4
1223.941	5543.4
1228.856	5708.4
1233.766	5975.4
1238.672	6240.4
1243.572	6618.4
1248.467	7140.4
1253.358	7804.4
1258.244	8645.4
1263.124	9914.4
1268	11967.4
1272.871	14987.4
1277.737	18312.4
1282.599	19651.4
1287.455	18237.4
1292.306	14883.4
1297.153	11902.4
1301.995	9859.4
1306.832	8697.4
1311.664	8112.4
1316.491	7799.4
1321.314	7457.4
1326.132	7328.4
1330.945	7225.4
1335.753	7200.4
1340.556	7167.4
1345.354	7095.4
1350.148	7023.4
1354.937	7047.4
1359.722	7147.4
1364.501	7247.4
1369.276	7579.4
1374.046	7967.4
1378.811	8669.4
1383.572	9430.4
1388.327	10121.4
1393.079	10581.4
1397.825	10954.4
1402.567	11349.4
1407.304	12060.4
1412.036	12895.4
1416.764	13801.4
1421.487	15067.4
1426.205	16124.4
1430.919	17536.4
1435.628	19402.4
1440.333	22377.4
1445.032	26747.4
1449.727	33079.4
1454.418	40139.4
1459.104	44737.4
1463.785	43564.4
1468.462	37429.4
1473.134	30327.4
1477.802	25451.4
1482.465	23341.4
1487.123	22248.4
1491.777	20702.4
1496.426	17987.4
1501.071	15015.4
1505.711	12709.4
1510.347	11006.4
1514.978	9903.4
1519.604	9054.4
1524.226	8400.4
1528.844	7949.4
1533.457	7434.4
1538.065	6977.4
1542.669	6606.4
1547.269	6359.4
1551.864	5991.4
1556.454	5733.4
1561.041	5343.4
1565.622	5209.4
1570.199	4778.4
1574.772	4576.4
1579.34	4299.4
1583.904	4202.4
1588.464	4084.4
1593.019	3925.4
1597.569	3846.4
1602.115	3757.4
1606.657	3738.4
1611.195	3738.4
1615.728	3738.4
1620.256	3744.4
1624.78	3706.4
1629.3	3582.4
1633.816	3450.4
1638.327	3280.4
1642.834	3131.4
1647.336	3107.4
1651.834	2981.4
1656.328	2976.4
1660.817	2918.4
1665.302	2924.4
1669.783	2970.4
1674.259	2825.4
1678.732	2894.4
1683.199	2850.4
1687.663	2892.4
1692.122	2783.4
1696.577	2714.4
1701.028	2892.4
1705.474	2697.4
1709.917	2750.4
1714.355	2758.4
1718.788	2699.4
1723.218	2547.4
1727.643	2474.4
1732.064	2532.4
1736.481	2478.4
1740.893	2343.4
1745.301	2346.4
1749.705	2348.4
1754.105	2179.4
1758.501	2177.4
1762.893	2136.4
1767.28	2110.4
1771.663	2010.4
1776.042	2010.4
1780.417	1910.4
1784.787	1882.4
1789.154	1877.4
1793.516	1711.4
1797.874	1855.4
1802.228	1813.4
1806.578	1870.4
1810.924	1821.4
1815.266	2284.4
1819.603	1876.4
1823.937	1863.4
1828.266	1813.4
1832.591	1820.4
1836.913	1841.4
1841.23	1872.4
1845.543	1801.4
1849.852	1767.4
1854.156	1803.4
1858.457	1765.4
1862.754	1760.4
1867.047	1739.4
1871.335	1709.4
1875.62	1787.4
1879.9	1781.4
1884.177	1793.4
1888.449	1815.4
1892.718	1832.4
1896.982	1735.4
1901.243	1845.4
1905.499	1795.4
1909.752	1774.4
1914	1739.4
1918.245	1757.4
1922.485	1766.4
1926.722	1742.4
1930.954	1785.4
1935.183	1701.4
1939.408	1656.4
1943.628	1712.4
1947.845	1690.4
1952.058	1698.4
1956.267	1679.4
1960.472	1691.4
1964.673	1751.4
1968.87	1787.4
1973.063	1741.4
1977.252	1663.4
1981.438	1688.4
1985.619	1686.4
1989.797	1603.4
1993.971	1535.4
1998.14	1552.4
2002.306	1544.4
2006.469	1468.4
2010.627	1473.4
2014.781	1489.4
2018.932	1531.4
2023.078	1482.4
2027.221	1503.4
2031.36	1510.4
2035.495	1520.4
2039.627	1461.4
2043.754	1323.4
2047.878	1439.4
2051.998	1405.4
2056.114	1429.4
2060.226	1451.4
2064.334	1517.4
2068.439	1421.4
2072.54	1437.4
2076.637	1519.4
2080.73	1484.4
2084.82	1563.4
2088.906	1593.4
2092.988	1448.4
2097.066	1634.4
2101.14	1651.4
2105.211	1618.4
2109.278	1539.4
2113.342	1561.4
2117.401	1589.4
2121.457	1518.4
2125.509	1532.4
2129.558	1422.4
2133.602	1482.4
2137.643	1483.4
2141.681	1470.4
2145.714	1522.4
2149.744	1452.4
2153.77	1412.4
2157.793	1422.4
2161.812	1427.4
2165.827	1399.4
2169.838	1435.4
2173.846	1421.4
2177.851	1430.4
2181.851	1468.4
2185.848	1504.4
2189.841	1413.4
2193.831	1428.4
2197.817	1352.4
2201.799	1438.4
2205.778	1392.4
2209.753	1379.4
2213.725	1404.4
2217.693	1425.4
2221.657	1406.4
2225.618	1413.4
2229.575	1404.4
2233.529	1409.4
2237.479	1472.4
2241.425	1494.4
2245.368	1571.4
2249.307	1541.4
2253.243	1573.4
2257.175	1665.4
2261.104	1604.4
2265.029	1578.4
2268.95	1528.4
2272.868	1529.4
2276.783	1542.4
2280.694	1506.4
2284.601	1521.4
2288.505	1531.4
2292.405	1503.4
2296.302	1530.4
2300.195	1479.4
2304.085	1412.4
2307.971	1374.4
2311.854	1334.4
2315.734	1350.4
2319.609	1371.4
2323.482	1330.4
2327.351	1294.4
2331.216	1351.4
2335.078	1392.4
2338.937	1373.4
2342.792	1326.4
2346.643	1282.4
2350.492	1310.4
2354.336	1240.4
2358.178	1270.4
2362.015	1297.4
2365.85	1383.4
2369.681	1260.4
2373.508	1268.4
2377.333	1230.4
2381.153	1324.4
2384.971	1258.4
2388.785	1263.4
2392.595	1264.4
2396.402	1312.4
2400.206	1299.4
2404.007	1337.4
2407.804	1270.4
2411.597	1297.4
2415.388	1324.4
2419.174	1344.4
2422.958	1281.4
2426.738	1349.4
2430.515	1334.4
2434.289	1405.4
2438.059	1373.4
2441.825	1357.4
2445.589	1339.4
2449.349	1379.4
2453.106	1330.4
2456.859	1400.4
2460.61	1375.4
2464.356	1416.4
2468.1	1400.4
2471.84	1484.4
2475.577	1467.4
2479.311	1461.4
2483.041	1449.4
2486.768	1400.4
2490.492	1387.4
2494.213	1359.4
2497.93	1433.4
2501.644	1484.4
2505.355	1461.4
2509.062	1506.4
2512.766	1457.4
2516.467	1518.4
2520.165	1495.4
2523.859	1528.4
2527.551	1542.4
2531.239	1685.4
2534.923	1722.4
2538.605	1861.4
2542.283	1929.4
2545.958	1995.4
2549.63	1981.4
2553.299	1999.4
2556.964	1953.4
2560.626	1976.4
2564.285	1894.4
2567.941	1945.4
2571.594	1904.4
2575.243	1861.4
2578.89	1878.4
2582.533	1927.4
2586.173	1827.4
2589.809	1931.4
2593.443	1994.4
2597.073	1932.4
2600.701	1880.4
2604.325	1932.4
2607.946	1868.4
2611.564	1896.4
2615.178	1870.4
2618.79	1818.4
2622.398	1875.4
2626.004	1842.4
2629.606	1907.4
2633.205	1982.4
2636.801	1920.4
2640.394	1926.4
2643.983	1894.4
2647.57	2014.4
2651.153	1971.4
2654.734	1976.4
2658.311	2080.4
2661.885	2122.4
2665.456	2077.4
2669.025	2206.4
2672.589	2184.4
2676.151	2265.4
2679.71	2382.4
2683.266	2460.4
2686.819	2647.4
2690.368	2886.4
2693.915	3053.4
2697.458	3476.4
2700.999	3768.4
2704.536	4208.4
2708.071	4716.4
2711.602	5156.4
2715.13	5479.4
2718.656	5745.4
2722.178	5760.4
2725.697	5788.4
2729.214	5598.4
2732.727	5348.4
2736.237	5265.4
2739.744	4965.4
2743.249	4959.4
2746.75	5008.4
2750.248	5150.4
2753.743	5244.4
2757.236	5251.4
2760.725	5149.4
2764.211	4937.4
2767.695	4742.4
2771.175	4594.4
2774.652	4442.4
2778.127	4438.4
2781.598	4392.4
2785.067	4420.4
2788.532	4552.4
2791.995	4711.4
2795.455	4854.4
2798.911	5033.4
2802.365	5458.4
2805.816	5765.4
2809.264	6236.4
2812.709	6717.4
2816.151	7409.4
2819.59	8135.4
2823.026	8943.4
2826.46	9906.4
2829.89	11021.4
2833.318	12274.4
2836.742	13179.4
2840.164	14080.4
2843.583	14694.4
2846.999	15427.4
2850.412	16093.4
2853.822	17107.4
2857.229	18262.4
2860.634	19907.4
2864.035	22043.4
2867.434	24820.4
2870.83	28137.4
2874.223	32330.4
2877.613	36121.4
2881	38934.4
2884.385	40376.4
2887.766	40502.4
2891.145	39510.4
2894.521	38049.4
2897.894	36556.4
2901.264	34963.4
2904.631	33555.4
2907.996	32472.4
2911.358	32021.4
2914.717	32481.4
2918.073	33828.4
2921.426	36466.4
2924.777	40360.4
2928.124	45111.4
2931.469	48653.4
2934.811	49064.4
2938.15	47405.4
2941.487	42501.4
2944.821	37350.4
2948.152	32794.4
2951.48	28693.4
2954.805	25898.4
2958.128	23607.4
2961.447	22426.4
2964.765	21907.4
2968.079	22351.4
2971.39	23086.4
2974.699	23601.4
2978.005	23633.4
2981.308	22728.4
2984.609	20918.4
2987.907	18407.4
2991.202	16059.4
2994.494	13749.4
2997.784	11886.4
3001.07	10322.4
3004.355	9138.4
3007.636	8157.4
3010.915	7362.4
3014.191	6686.4
3017.464	6013.4
3020.734	5529.4
3024.002	5136.4
3027.267	4764.4
3030.53	4396.4
3033.789	4138.4
3037.046	3840.4
3040.301	3612.4
3043.552	3362.4
3046.801	3304.4
3050.048	3082.4
3053.291	2826.4
3056.532	2729.4
3059.771	2625.4
3063.006	2445.4
3066.239	2353.4
3069.469	2311.4
3072.697	2334.4
3075.922	2149.4
3079.144	2082.4
3082.364	2039.4
3085.581	2003.4
3088.795	1937.4
3092.007	1864.4
3095.216	1803.4
3098.423	1837.4
3101.627	1789.4
3104.828	1698.4
3108.026	1651.4
3111.222	1638.4
3114.416	1568.4
3117.607	1588.4
3120.795	1530.4
3123.98	1502.4
3127.163	1588.4
3130.344	1487.4
3133.521	1421.4
3136.696	1529.4
3139.869	1453.4
3143.039	1496.4
3146.206	1472.4
3149.371	1490.4
3152.533	1466.4
3155.693	1478.4
3158.85	1467.4
3162.005	1458.4
3165.157	1486.4
3168.306	1489.4
3171.453	1410.4
3174.597	1515.4
3177.739	1460.4
3180.878	1429.4
3184.014	1397.4
3187.149	1479.4
3190.28	1455.4
3193.409	1391.4
3196.536	1453.4
3199.659	1415.4
3202.781	1455.4
3205.9	1521.4
3209.016	1516.4
3212.13	1506.4
3215.241	1524.4
3218.35	1507.4
3221.456	1548.4
3224.56	1548.4
3227.661	1610.4
3230.76	1552.4
3233.856	1549.4
3236.95	1545.4
3240.041	1614.4
3243.13	1549.4
3246.216	1591.4
3249.3	1514.4
3252.382	1581.4
3255.46	1556.4
3258.537	1662.4
3261.611	1499.4
3264.682	1465.4
3267.751	1491.4
3270.818	1499.4
3273.882	1373.4
3276.943	1412.4
3280.002	1406.4
3283.059	1376.4
3286.113	1412.4
3289.165	1460.4
3292.214	1471.4
3295.261	1306.4
3298.306	1367.4
3301.348	1343.4
3304.387	1335.4
3307.425	1290.4
3310.459	1375.4
3313.492	1217.4
3316.521	1351.4
3319.549	1259.4
3322.574	1239.4
3325.597	1211.4
3328.617	1149.4
3331.635	1176.4
3334.65	1184.4
3337.663	1214.4
3340.674	1174.4
3343.682	1131.4
3346.688	1090.4
3349.691	1111.4
3352.692	1196.4
3355.691	1086.4
3358.687	1127.4
3361.681	1154.4
3364.673	1070.4
3367.662	1047.4
3370.649	1134.4
3373.633	1099.4
3376.615	1017.4
3379.595	1065.4
3382.572	1023.4
3385.547	965.4
3388.52	1013.4
3391.49	959.4
3394.458	959.4
3397.424	928.4
3400.387	916.4
3403.348	866.4
3406.307	822.4
3409.263	862.4
3412.217	794.4
3415.168	777.4
3418.118	837.4
3421.065	817.4
3424.009	720.4
3426.951	769.4
3429.891	554.4
3432.829	739.4
3435.764	700.4
3438.697	697.4
3441.628	659.4
3444.557	625.4
3447.483	649.4
3450.407	657.4
3453.328	555.4
3456.247	613.4
3459.164	570.4
3462.079	562.4
3464.991	480.4
3467.902	451.4
3470.809	490.4
3473.715	447.4
3476.618	479.4
3479.519	456.4
3482.418	466.4
3485.315	407.4
3488.209	343.4
3491.101	419.4
3493.99	406.4
3496.878	144.4
3499.763	320.4
3502.646	309.4
3505.527	350.4
3508.405	252.4
3511.281	221.4
3514.155	334.4
3517.027	317.4
3519.897	336.4
3522.764	184.4
3525.629	277.4
3528.492	224.4
3531.352	174.4
3534.211	227.4
3537.067	211.4
3539.921	184.4
3542.773	218.4
3545.622	139.4
3548.469	168.4
3551.315	184.4
3554.157	123.4
3556.998	115.4
3559.837	68.4
3562.673	77.4
3565.507	91.4
3568.339	116.4
3571.169	137.4
3573.996	99.4
3576.822	119.4
3579.645	71.4
3582.466	72.4
3585.285	42.4
3588.101	54.4
3590.916	93.4
3593.728	45.4
3596.538	22.4
3599.346	11.4
3602.152	77.4
3604.956	49.4
3607.757	67.4
3610.556	122.4
3613.354	66.4
3616.149	61.4
3618.942	67.4
3621.732	1.4
3624.521	23.4
3627.307	-10.6
3630.092	30.4
3632.874	-3.6
3635.654	25.4
3638.432	17.4
3641.208	1.4
3643.982	-6.6
3646.753	-26.6
3649.523	-27.6
3652.29	1.4
3655.055	72.4
3657.818	-51.6
3660.579	19.4
3663.338	7.4
3666.095	-17.6
3668.849	61.4
3671.602	-33.6
3674.352	-38.6
3677.101	-13.6
3679.847	-65.6
3682.591	7.4
3685.333	-39.6
3688.073	-83.6
3690.811	24.4
3693.547	0.4
3696.281	-11.6
3699.013	-45.6
3701.742	-80.6
3704.47	-17.6
3707.195	-43.6
3709.919	-50.6
3712.64	-45.6
3715.359	-31.6
3718.076	-53.6
3720.792	-34.6
3723.505	-52.6
3726.216	-15.6
3728.925	-40.6
3731.632	-44.6
3734.336	-27.6
3737.039	-40.6
3739.74	-34.6
3742.439	48.4
3745.136	-35.6
3747.83	-52.6
3750.523	-36.6
3753.213	-515.6
3755.902	-43.6
3758.589	0.4
3761.273	-29.6
3763.956	-109.6
3766.636	-33.6
3769.315	-57.6
3771.991	11.4
3774.665	-79.6
3777.338	-39.6
3780.008	-33.6
3782.677	-49.6
3785.343	7.4
3788.007	55.4
3790.67	-38.6
3793.33	-38.6
3795.989	-5.6
3798.645	-97.6
3801.299	-10.6
3803.952	-125.6
3806.602	-87.6
3809.251	-32.6
3811.897	-18.6
3814.542	-44.6
3817.184	-68.6
3819.825	-39.6
3822.463	-63.6
3825.1	-33.6
3827.735	8.4
3830.367	-98.6
3832.998	-76.6
3835.627	-117.6
3838.253	-78.6
3840.878	-61.6
3843.501	-111.6
3846.122	-110.6
3848.741	-78.6
3851.358	-74.6
3853.973	-51.6
3856.586	-45.6
3859.197	-134.6
3861.806	-78.6
3864.414	-17.6
3867.019	-93.6
3869.622	-54.6
3872.224	-74.6
3874.823	-25.6
3877.421	-5.6
3880.016	-8.6
3882.61	144.4
3885.202	-4.6
3887.792	0.4
3890.38	-163.6
3892.966	-42.6
3895.55	-94.6
3898.132	-16.6
3900.713	-101.6
3903.291	-70.6
3905.868	-94.6
3908.442	-111.6
3911.015	-61.6
3913.586	-69.6
3916.155	-129.6
3918.722	-131.6
3921.287	-90.6
3923.85	-108.6
3926.411	-82.6
3928.971	-138.6
3931.528	-118.6
3934.084	-103.6
3936.638	-49.6
3939.19	-94.6
3941.74	-32.6
3944.288	-117.6
3946.834	-144.6
3949.378	-50.6
3951.921	-49.6
3954.462	-101.6
3957	-81.6
3959.537	-17.6
3962.072	-29.6
3964.606	-53.6
3967.137	-78.6
3969.667	-126.6
3972.194	-39.6
3974.72	-70.6
3977.244	-78.6
3979.766	-84.6
3982.286	-69.6
3984.805	-77.6
3987.321	-63.6
3989.836	-70.6
3992.349	-6.6
3994.86	-68.6
3997.369	-69.6
3999.877	-105.6
4002.382	-82.6
4004.886	-86.6
4007.388	-83.6
4009.888	84.4
4012.386	-65.6
4014.883	-36.6
4017.377	-87.6
4019.87	-77.6
4022.361	-15.6
4024.85	-24.6
4027.338	-120.6
4029.823	-76.6
4032.307	-79.6
4034.789	-53.6
4037.269	-20.6
4039.747	-5.6
4042.224	-104.6
4044.699	-29.6
4047.172	-83.6
4049.643	-130.6
4052.112	-133.6
4054.58	-68.6
4057.046	-50.6
4059.51	-91.6
4061.972	-85.6
4064.432	-45.6
4066.891	-104.6
4069.348	-22.6
4071.803	-62.6
4074.256	-101.6
4076.708	-26.6
4079.158	-96.6
4081.606	-106.6
4084.052	-47.6
4086.497	-31.6
4088.939	-51.6
4091.38	-38.6
4093.819	-35.6
4096.257	-347.6
4098.693	-348.6
4101.127	-375.6
4103.559	-378.6
4105.989	133.4
4108.418	132.4
4110.845	121.4
4113.27	23.4
4115.694	156.4
4118.115	77.4
4120.535	-121.6
4122.954	-88.6
4125.37	-94.6
4127.785	-50.6
4130.198	-53.6
4132.609	-68.6
4135.019	-354.6
4137.427	-380.6
4139.833	-372.6
4142.237	-299.6
