Data from 2018-2-8_conc=0_RamanShift_04.txt Node
Date: Wed Feb 07 09:23:10 IST 2018
User: aro
Spectrometer: QEPB0276
Trigger mode: 0
Integration Time (sec): 3.000000E1
Scans to average: 1
Electric dark correction enabled: true
Nonlinearity correction enabled: false
Boxcar width: 0
XAxis mode: Raman Shifts
Number of Pixels in Spectrum: 1044
>>>>>Begin Spectral Data<<<<<
160.701	162.2
166.742	280.2
172.777	733.2
178.805	2266.2
184.826	5805.2
190.841	11758.2
196.849	18948.2
202.85	24110.2
208.845	25995.2
214.833	25780.2
220.815	25323.2
226.789	25151.2
232.758	25166.2
238.719	24977.2
244.674	24697.2
250.623	24265.2
256.565	23846.2
262.5	23328.2
268.429	22779.2
274.351	22459.2
280.267	22366.2
286.176	21753.2
292.079	21481.2
297.975	21130.2
303.865	20932.2
309.748	20796.2
315.625	20632.2
321.495	20287.2
327.359	20340.2
333.217	20202.2
339.068	20165.2
344.912	20084.2
350.751	20075.2
356.583	20156.2
362.408	20108.2
368.227	20125.2
374.04	20189.2
379.847	20338.2
385.647	20376.2
391.44	20577.2
397.228	20628.2
403.009	20790.2
408.784	20956.2
414.553	21079.2
420.315	21179.2
426.071	21093.2
431.821	21154.2
437.565	20991.2
443.302	20917.2
449.033	20913.2
454.758	20821.2
460.477	20659.2
466.189	20577.2
471.896	20461.2
477.596	20399.2
483.29	20387.2
488.978	20353.2
494.66	20273.2
500.335	20275.2
506.005	20292.2
511.668	19994.2
517.325	19895.2
522.977	19743.2
528.622	19668.2
534.261	19507.2
539.894	19428.2
545.521	19424.2
551.141	19309.2
556.756	19070.2
562.365	19066.2
567.968	18844.2
573.565	18706.2
579.155	18614.2
584.74	18451.2
590.319	18469.2
595.892	18406.2
601.459	18384.2
607.02	18267.2
612.575	18355.2
618.124	18285.2
623.667	18347.2
629.204	18298.2
634.735	18244.2
640.261	18193.2
645.781	18158.2
651.294	18037.2
656.802	17926.2
662.304	17714.2
667.8	17511.2
673.29	17551.2
678.775	17451.2
684.254	17336.2
689.726	17467.2
695.193	17268.2
700.655	17269.2
706.11	17457.2
711.56	17366.2
717.004	17354.2
722.442	17475.2
727.874	17357.2
733.301	17399.2
738.722	17385.2
744.137	17184.2
749.547	17097.2
754.951	17061.2
760.349	16899.2
765.741	16769.2
771.128	16720.2
776.509	16736.2
781.885	16764.2
787.254	16730.2
792.618	16832.2
797.977	16879.2
803.33	16883.2
808.677	16984.2
814.019	16922.2
819.355	16876.2
824.686	16925.2
830.011	16804.2
835.33	16607.2
840.644	16506.2
845.952	16477.2
851.255	16266.2
856.552	16203.2
861.844	15984.2
867.13	16029.2
872.41	15912.2
877.686	15898.2
882.955	16094.2
888.219	16108.2
893.478	16147.2
898.731	16071.2
903.979	15948.2
909.221	15973.2
914.458	15827.2
919.69	15666.2
924.916	15525.2
930.136	15353.2
935.351	15223.2
940.561	15073.2
945.766	14912.2
950.965	14881.2
956.158	14838.2
961.347	14920.2
966.529	14977.2
971.707	14938.2
976.879	14949.2
982.046	14966.2
987.208	14964.2
992.364	14828.2
997.515	14801.2
1002.66	14680.2
1007.801	14724.2
1012.936	14665.2
1018.066	14629.2
1023.19	14442.2
1028.309	14433.2
1033.423	14553.2
1038.532	14710.2
1043.636	14832.2
1048.734	14753.2
1053.827	14870.2
1058.915	14822.2
1063.998	14743.2
1069.075	14589.2
1074.147	14394.2
1079.214	14340.2
1084.276	14094.2
1089.333	14078.2
1094.385	14062.2
1099.431	14019.2
1104.472	14018.2
1109.509	14138.2
1114.54	14209.2
1119.565	14283.2
1124.586	14222.2
1129.602	14231.2
1134.613	14145.2
1139.618	13971.2
1144.619	13720.2
1149.614	13642.2
1154.604	13502.2
1159.589	13393.2
1164.57	13309.2
1169.545	13252.2
1174.515	13350.2
1179.48	13408.2
1184.44	13503.2
1189.395	13605.2
1194.345	13678.2
1199.29	13713.2
1204.23	13770.2
1209.165	13738.2
1214.095	13605.2
1219.021	13561.2
1223.941	13476.2
1228.856	13437.2
1233.766	13459.2
1238.672	13286.2
1243.572	13266.2
1248.467	13354.2
1253.358	13426.2
1258.244	13460.2
1263.124	13332.2
1268	13247.2
1272.871	13321.2
1277.737	13130.2
1282.599	12938.2
1287.455	12760.2
1292.306	12580.2
1297.153	12624.2
1301.995	12395.2
1306.832	12365.2
1311.664	12390.2
1316.491	12510.2
1321.314	12503.2
1326.132	12443.2
1330.945	12428.2
1335.753	12283.2
1340.556	12115.2
1345.354	11969.2
1350.148	11710.2
1354.937	11472.2
1359.722	11417.2
1364.501	11169.2
1369.276	11186.2
1374.046	11174.2
1378.811	11215.2
1383.572	11239.2
1388.327	11409.2
1393.079	11517.2
1397.825	11559.2
1402.567	11560.2
1407.304	11559.2
1412.036	11592.2
1416.764	11511.2
1421.487	11592.2
1426.205	11312.2
1430.919	11149.2
1435.628	11008.2
1440.333	10930.2
1445.032	10854.2
1449.727	10903.2
1454.418	10892.2
1459.104	10750.2
1463.785	10792.2
1468.462	10727.2
1473.134	10672.2
1477.802	10497.2
1482.465	10416.2
1487.123	10167.2
1491.777	10187.2
1496.426	10040.2
1501.071	9918.2
1505.711	9972.2
1510.347	9974.2
1514.978	10103.2
1519.604	10134.2
1524.226	10317.2
1528.844	10574.2
1533.457	10492.2
1538.065	10718.2
1542.669	10652.2
1547.269	10743.2
1551.864	10656.2
1556.454	10739.2
1561.041	10685.2
1565.622	10613.2
1570.199	10422.2
1574.772	10408.2
1579.34	10243.2
1583.904	10321.2
1588.464	10358.2
1593.019	10363.2
1597.569	10453.2
1602.115	10431.2
1606.657	10576.2
1611.195	10631.2
1615.728	10684.2
1620.256	10748.2
1624.78	10653.2
1629.3	10642.2
1633.816	10495.2
1638.327	10538.2
1642.834	10462.2
1647.336	10382.2
1651.834	10415.2
1656.328	10368.2
1660.817	10266.2
1665.302	10296.2
1669.783	10210.2
1674.259	10092.2
1678.732	9919.2
1683.199	9655.2
1687.663	9444.2
1692.122	9080.2
1696.577	8798.2
1701.028	8637.2
1705.474	8711.2
1709.917	8679.2
1714.355	8644.2
1718.788	8577.2
1723.218	8410.2
1727.643	8159.2
1732.064	8232.2
1736.481	8049.2
1740.893	7941.2
1745.301	7725.2
1749.705	7749.2
1754.105	7439.2
1758.501	7367.2
1762.893	7132.2
1767.28	7052.2
1771.663	6764.2
1776.042	6600.2
1780.417	6446.2
1784.787	6386.2
1789.154	6375.2
1793.516	6262.2
1797.874	6480.2
1802.228	6560.2
1806.578	6767.2
1810.924	6674.2
1815.266	7432.2
1819.603	6776.2
1823.937	6801.2
1828.266	6725.2
1832.591	6623.2
1836.913	6610.2
1841.23	6562.2
1845.543	6534.2
1849.852	6396.2
1854.156	6366.2
1858.457	6310.2
1862.754	6279.2
1867.047	6178.2
1871.335	6106.2
1875.62	6126.2
1879.9	6160.2
1884.177	6073.2
1888.449	6125.2
1892.718	6049.2
1896.982	6004.2
1901.243	6045.2
1905.499	5964.2
1909.752	5982.2
1914	5975.2
1918.245	5952.2
1922.485	5900.2
1926.722	5907.2
1930.954	5939.2
1935.183	5870.2
1939.408	5945.2
1943.628	5980.2
1947.845	6018.2
1952.058	6048.2
1956.267	6020.2
1960.472	6006.2
1964.673	6030.2
1968.87	6002.2
1973.063	6002.2
1977.252	5907.2
1981.438	5780.2
1985.619	5718.2
1989.797	5661.2
1993.971	5569.2
1998.14	5529.2
2002.306	5489.2
2006.469	5392.2
2010.627	5384.2
2014.781	5416.2
2018.932	5390.2
2023.078	5311.2
2027.221	5252.2
2031.36	5294.2
2035.495	5204.2
2039.627	5246.2
2043.754	5176.2
2047.878	5128.2
2051.998	5097.2
2056.114	5077.2
2060.226	5051.2
2064.334	4969.2
2068.439	4902.2
2072.54	4851.2
2076.637	4985.2
2080.73	4929.2
2084.82	4989.2
2088.906	5037.2
2092.988	4875.2
2097.066	5100.2
2101.14	5041.2
2105.211	5102.2
2109.278	5049.2
2113.342	5104.2
2117.401	5133.2
2121.457	5041.2
2125.509	5028.2
2129.558	4884.2
2133.602	4984.2
2137.643	4844.2
2141.681	4812.2
2145.714	4746.2
2149.744	4689.2
2153.77	4712.2
2157.793	4658.2
2161.812	4638.2
2165.827	4596.2
2169.838	4569.2
2173.846	4529.2
2177.851	4507.2
2181.851	4415.2
2185.848	4363.2
2189.841	4248.2
2193.831	4327.2
2197.817	4233.2
2201.799	4229.2
2205.778	4202.2
2209.753	4186.2
2213.725	4188.2
2217.693	4089.2
2221.657	4086.2
2225.618	4015.2
2229.575	4027.2
2233.529	3944.2
2237.479	4025.2
2241.425	3980.2
2245.368	4033.2
2249.307	3961.2
2253.243	3992.2
2257.175	3956.2
2261.104	3843.2
2265.029	3802.2
2268.95	3761.2
2272.868	3659.2
2276.783	3657.2
2280.694	3567.2
2284.601	3477.2
2288.505	3485.2
2292.405	3388.2
2296.302	3466.2
2300.195	3419.2
2304.085	3435.2
2307.971	3417.2
2311.854	3340.2
2315.734	3292.2
2319.609	3288.2
2323.482	3353.2
2327.351	3182.2
2331.216	3236.2
2335.078	3230.2
2338.937	3205.2
2342.792	3225.2
2346.643	3132.2
2350.492	3232.2
2354.336	3136.2
2358.178	3120.2
2362.015	3157.2
2365.85	3195.2
2369.681	3182.2
2373.508	3151.2
2377.333	3109.2
2381.153	3182.2
2384.971	3214.2
2388.785	3204.2
2392.595	3173.2
2396.402	3219.2
2400.206	3249.2
2404.007	3189.2
2407.804	3087.2
2411.597	3039.2
2415.388	3109.2
2419.174	3050.2
2422.958	2990.2
2426.738	2958.2
2430.515	2893.2
2434.289	2995.2
2438.059	2908.2
2441.825	2930.2
2445.589	2805.2
2449.349	2893.2
2453.106	2809.2
2456.859	2833.2
2460.61	2795.2
2464.356	2763.2
2468.1	2804.2
2471.84	2808.2
2475.577	2769.2
2479.311	2707.2
2483.041	2648.2
2486.768	2548.2
2490.492	2504.2
2494.213	2761.2
2497.93	2640.2
2501.644	2661.2
2505.355	2564.2
2509.062	2589.2
2512.766	2686.2
2516.467	2642.2
2520.165	2629.2
2523.859	2563.2
2527.551	2456.2
2531.239	2509.2
2534.923	2541.2
2538.605	2518.2
2542.283	2420.2
2545.958	2506.2
2549.63	2401.2
2553.299	2394.2
2556.964	2435.2
2560.626	2442.2
2564.285	2406.2
2567.941	2441.2
2571.594	2454.2
2575.243	2320.2
2578.89	2432.2
2582.533	2385.2
2586.173	2353.2
2589.809	2315.2
2593.443	2448.2
2597.073	2358.2
2600.701	2208.2
2604.325	2351.2
2607.946	2262.2
2611.564	2257.2
2615.178	2236.2
2618.79	2148.2
2622.398	2206.2
2626.004	2252.2
2629.606	2191.2
2633.205	2254.2
2636.801	2206.2
2640.394	2162.2
2643.983	2097.2
2647.57	2106.2
2651.153	2127.2
2654.734	2045.2
2658.311	2136.2
2661.885	2091.2
2665.456	2020.2
2669.025	1982.2
2672.589	1944.2
2676.151	1863.2
2679.71	1840.2
2683.266	1751.2
2686.819	1881.2
2690.368	1831.2
2693.915	1873.2
2697.458	1832.2
2700.999	1773.2
2704.536	1707.2
2708.071	1736.2
2711.602	1759.2
2715.13	1650.2
2718.656	1680.2
2722.178	1627.2
2725.697	1568.2
2729.214	1503.2
2732.727	1455.2
2736.237	1587.2
2739.744	1554.2
2743.249	1565.2
2746.75	1529.2
2750.248	1587.2
2753.743	1660.2
2757.236	1586.2
2760.725	1584.2
2764.211	1654.2
2767.695	1614.2
2771.175	1635.2
2774.652	1586.2
2778.127	1664.2
2781.598	1594.2
2785.067	1589.2
2788.532	1617.2
2791.995	1687.2
2795.455	1560.2
2798.911	1514.2
2802.365	1599.2
2805.816	1580.2
2809.264	1595.2
2812.709	1574.2
2816.151	1657.2
2819.59	1648.2
2823.026	1676.2
2826.46	1682.2
2829.89	1672.2
2833.318	1747.2
2836.742	1728.2
2840.164	1661.2
2843.583	1688.2
2846.999	1783.2
2850.412	1686.2
2853.822	1736.2
2857.229	1677.2
2860.634	1677.2
2864.035	1764.2
2867.434	1751.2
2870.83	1698.2
2874.223	1872.2
2877.613	1693.2
2881	1835.2
2884.385	1964.2
2887.766	1987.2
2891.145	2064.2
2894.521	1964.2
2897.894	1962.2
2901.264	1919.2
2904.631	2024.2
2907.996	1999.2
2911.358	1982.2
2914.717	1930.2
2918.073	1987.2
2921.426	1939.2
2924.777	2048.2
2928.124	2061.2
2931.469	2062.2
2934.811	2176.2
2938.15	2111.2
2941.487	2136.2
2944.821	2142.2
2948.152	2166.2
2951.48	1986.2
2954.805	2131.2
2958.128	2154.2
2961.447	2166.2
2964.765	2086.2
2968.079	2220.2
2971.39	2149.2
2974.699	2225.2
2978.005	2245.2
2981.308	2252.2
2984.609	2345.2
2987.907	2332.2
2991.202	2398.2
2994.494	2448.2
2997.784	2401.2
3001.07	2403.2
3004.355	2465.2
3007.636	2533.2
3010.915	2576.2
3014.191	2648.2
3017.464	2620.2
3020.734	2656.2
3024.002	2700.2
3027.267	2756.2
3030.53	2782.2
3033.789	2827.2
3037.046	2916.2
3040.301	2912.2
3043.552	2983.2
3046.801	3098.2
3050.048	3047.2
3053.291	3022.2
3056.532	3196.2
3059.771	3253.2
3063.006	3295.2
3066.239	3401.2
3069.469	3503.2
3072.697	3664.2
3075.922	3734.2
3079.144	3749.2
3082.364	3897.2
3085.581	4047.2
3088.795	4132.2
3092.007	4156.2
3095.216	4354.2
3098.423	4475.2
3101.627	4620.2
3104.828	4720.2
3108.026	4763.2
3111.222	4839.2
3114.416	4941.2
3117.607	5111.2
3120.795	5167.2
3123.98	5282.2
3127.163	5437.2
3130.344	5466.2
3133.521	5548.2
3136.696	5721.2
3139.869	5765.2
3143.039	5958.2
3146.206	6039.2
3149.371	6137.2
3152.533	6267.2
3155.693	6345.2
3158.85	6509.2
3162.005	6506.2
3165.157	6639.2
3168.306	6674.2
3171.453	6589.2
3174.597	6766.2
3177.739	6722.2
3180.878	6684.2
3184.014	6658.2
3187.149	6702.2
3190.28	6623.2
3193.409	6645.2
3196.536	6647.2
3199.659	6673.2
3202.781	6607.2
3205.9	6714.2
3209.016	6658.2
3212.13	6710.2
3215.241	6527.2
3218.35	6656.2
3221.456	6752.2
3224.56	6710.2
3227.661	6727.2
3230.76	6772.2
3233.856	6796.2
3236.95	6693.2
3240.041	6771.2
3243.13	6627.2
3246.216	6544.2
3249.3	6460.2
3252.382	6524.2
3255.46	6548.2
3258.537	6598.2
3261.611	6403.2
3264.682	6284.2
3267.751	6280.2
3270.818	6302.2
3273.882	6150.2
3276.943	6079.2
3280.002	6042.2
3283.059	6009.2
3286.113	5996.2
3289.165	6007.2
3292.214	5941.2
3295.261	5847.2
3298.306	5821.2
3301.348	5700.2
3304.387	5641.2
3307.425	5570.2
3310.459	5567.2
3313.492	5399.2
3316.521	5327.2
3319.549	5211.2
3322.574	5174.2
3325.597	5124.2
3328.617	5046.2
3331.635	4971.2
3334.65	5018.2
3337.663	4908.2
3340.674	4907.2
3343.682	4760.2
3346.688	4762.2
3349.691	4745.2
3352.692	4770.2
3355.691	4607.2
3358.687	4709.2
3361.681	4714.2
3364.673	4673.2
3367.662	4653.2
3370.649	4687.2
3373.633	4604.2
3376.615	4572.2
3379.595	4616.2
3382.572	4446.2
3385.547	4355.2
3388.52	4387.2
3391.49	4357.2
3394.458	4294.2
3397.424	4178.2
3400.387	4222.2
3403.348	3913.2
3406.307	4025.2
3409.263	3969.2
3412.217	3844.2
3415.168	3861.2
3418.118	3801.2
3421.065	3707.2
3424.009	3664.2
3426.951	3622.2
3429.891	3418.2
3432.829	3614.2
3435.764	3526.2
3438.697	3491.2
3441.628	3385.2
3444.557	3361.2
3447.483	3341.2
3450.407	3220.2
3453.328	3224.2
3456.247	3171.2
3459.164	3023.2
3462.079	2919.2
3464.991	2843.2
3467.902	2742.2
3470.809	2712.2
3473.715	2615.2
3476.618	2563.2
3479.519	2428.2
3482.418	2468.2
3485.315	2284.2
3488.209	2222.2
3491.101	2207.2
3493.99	2117.2
3496.878	1839.2
3499.763	1939.2
3502.646	1944.2
3505.527	1945.2
3508.405	1818.2
3511.281	1745.2
3514.155	1757.2
3517.027	1701.2
3519.897	1710.2
3522.764	1549.2
3525.629	1583.2
3528.492	1447.2
3531.352	1322.2
3534.211	1315.2
3537.067	1292.2
3539.921	1228.2
3542.773	1235.2
3545.622	1158.2
3548.469	1081.2
3551.315	1047.2
3554.157	969.2
3556.998	920.2
3559.837	844.2
3562.673	730.2
3565.507	779.2
3568.339	750.2
3571.169	746.2
3573.996	658.2
3576.822	677.2
3579.645	640.2
3582.466	623.2
3585.285	583.2
3588.101	454.2
3590.916	508.2
3593.728	507.2
3596.538	446.2
3599.346	447.2
3602.152	443.2
3604.956	436.2
3607.757	359.2
3610.556	432.2
3613.354	358.2
3616.149	349.2
3618.942	254.2
3621.732	58.2
3624.521	257.2
3627.307	192.2
3630.092	239.2
3632.874	154.2
3635.654	157.2
3638.432	197.2
3641.208	125.2
3643.982	87.2
3646.753	75.2
3649.523	89.2
3652.29	152.2
3655.055	151.2
3657.818	-26.8
3660.579	67.2
3663.338	66.2
3666.095	-86.8
3668.849	72.2
3671.602	-25.8
3674.352	-3.8
3677.101	-20.8
3679.847	-111.8
3682.591	-16.8
3685.333	-109.8
3688.073	-114.8
3690.811	-36.8
3693.547	-67.8
3696.281	-97.8
3699.013	-161.8
3701.742	-170.8
3704.47	-63.8
3707.195	-123.8
3709.919	-162.8
3712.64	-149.8
3715.359	-324.8
3718.076	-232.8
3720.792	-202.8
3723.505	-177.8
3726.216	-181.8
3728.925	-157.8
3731.632	-190.8
3734.336	-141.8
3737.039	-215.8
3739.74	-218.8
3742.439	-90.8
3745.136	-263.8
3747.83	-191.8
3750.523	-199.8
3753.213	-485.8
3755.902	-270.8
3758.589	-260.8
3761.273	-221.8
3763.956	-341.8
3766.636	-262.8
3769.315	-279.8
3771.991	-221.8
3774.665	-233.8
3777.338	-236.8
3780.008	-258.8
3782.677	-257.8
3785.343	-155.8
3788.007	11.2
3790.67	-251.8
3793.33	-172.8
3795.989	-240.8
3798.645	-292.8
3801.299	-207.8
3803.952	-317.8
3806.602	-289.8
3809.251	-278.8
3811.897	-263.8
3814.542	-306.8
3817.184	-282.8
3819.825	-274.8
3822.463	-301.8
3825.1	-245.8
3827.735	-251.8
3830.367	-262.8
3832.998	-366.8
3835.627	-371.8
3838.253	-293.8
3840.878	-268.8
3843.501	-368.8
3846.122	-326.8
3848.741	-329.8
3851.358	-323.8
3853.973	-281.8
3856.586	-323.8
3859.197	-373.8
3861.806	-379.8
3864.414	-259.8
3867.019	-303.8
3869.622	-376.8
3872.224	-382.8
3874.823	-272.8
3877.421	-207.8
3880.016	-250.8
3882.61	-183.8
3885.202	-259.8
3887.792	-250.8
3890.38	-333.8
3892.966	-285.8
3895.55	-297.8
3898.132	-303.8
3900.713	-333.8
3903.291	-254.8
3905.868	-317.8
3908.442	-325.8
3911.015	-318.8
3913.586	-294.8
3916.155	-358.8
3918.722	-266.8
3921.287	-351.8
3923.85	-333.8
3926.411	-344.8
3928.971	-378.8
3931.528	-347.8
3934.084	-354.8
3936.638	-329.8
3939.19	-348.8
3941.74	-263.8
3944.288	-345.8
3946.834	-362.8
3949.378	-337.8
3951.921	-294.8
3954.462	-316.8
3957	-358.8
3959.537	-258.8
3962.072	-320.8
3964.606	-270.8
3967.137	-336.8
3969.667	-358.8
3972.194	-324.8
3974.72	-339.8
3977.244	-285.8
3979.766	-279.8
3982.286	-235.8
3984.805	-354.8
3987.321	-355.8
3989.836	-314.8
3992.349	-289.8
3994.86	-301.8
3997.369	-288.8
3999.877	-359.8
4002.382	-351.8
4004.886	-287.8
4007.388	-302.8
4009.888	-184.8
4012.386	-367.8
4014.883	-273.8
4017.377	-337.8
4019.87	-401.8
4022.361	-317.8
4024.85	-268.8
4027.338	-223.8
4029.823	-333.8
4032.307	-310.8
4034.789	-277.8
4037.269	-256.8
4039.747	-252.8
4042.224	-302.8
4044.699	-315.8
4047.172	-312.8
4049.643	-429.8
4052.112	-284.8
4054.58	-311.8
4057.046	-276.8
4059.51	-264.8
4061.972	-359.8
4064.432	-213.8
4066.891	-293.8
4069.348	-258.8
4071.803	-318.8
4074.256	-354.8
4076.708	-289.8
4079.158	-306.8
4081.606	-377.8
4084.052	-316.8
4086.497	-275.8
4088.939	-259.8
4091.38	-305.8
4093.819	-306.8
4096.257	-876.8
4098.693	-836.8
4101.127	-881.8
4103.559	-888.8
4105.989	-23.8
4108.418	-32.8
4110.845	26.2
4113.27	-126.8
4115.694	81.2
4118.115	57.2
4120.535	-393.8
4122.954	-345.8
4125.37	-360.8
4127.785	-369.8
4130.198	-366.8
4132.609	-342.8
4135.019	-924.8
4137.427	-894.8
4139.833	-858.8
4142.237	-763.8
