Data from 2018-2-8_conc=0_RamanShift_11.txt Node
Date: Wed Feb 07 09:30:10 IST 2018
User: aro
Spectrometer: QEPB0276
Trigger mode: 0
Integration Time (sec): 3.000000E1
Scans to average: 1
Electric dark correction enabled: true
Nonlinearity correction enabled: false
Boxcar width: 0
XAxis mode: Raman Shifts
Number of Pixels in Spectrum: 1044
>>>>>Begin Spectral Data<<<<<
160.701	247.6
166.742	349.6
172.777	830.6
178.805	2393.6
184.826	5839.6
190.841	11901.6
196.849	18920.6
202.85	24139.6
208.845	25941.6
214.833	25789.6
220.815	25456.6
226.789	25325.6
232.758	25188.6
238.719	25142.6
244.674	24834.6
250.623	24430.6
256.565	24005.6
262.5	23562.6
268.429	23003.6
274.351	22755.6
280.267	22579.6
286.176	22061.6
292.079	21708.6
297.975	21449.6
303.865	21289.6
309.748	21168.6
315.625	20969.6
321.495	20590.6
327.359	20556.6
333.217	20553.6
339.068	20559.6
344.912	20523.6
350.751	20483.6
356.583	20445.6
362.408	20510.6
368.227	20424.6
374.04	20594.6
379.847	20675.6
385.647	20740.6
391.44	20925.6
397.228	21003.6
403.009	21150.6
408.784	21277.6
414.553	21396.6
420.315	21470.6
426.071	21494.6
431.821	21484.6
437.565	21434.6
443.302	21143.6
449.033	21256.6
454.758	21135.6
460.477	20967.6
466.189	20852.6
471.896	20826.6
477.596	20700.6
483.29	20749.6
488.978	20842.6
494.66	20706.6
500.335	20590.6
506.005	20599.6
511.668	20415.6
517.325	20211.6
522.977	20090.6
528.622	20043.6
534.261	19923.6
539.894	19868.6
545.521	19731.6
551.141	19694.6
556.756	19369.6
562.365	19331.6
567.968	19193.6
573.565	19045.6
579.155	18988.6
584.74	18835.6
590.319	18706.6
595.892	18709.6
601.459	18754.6
607.02	18705.6
612.575	18698.6
618.124	18676.6
623.667	18705.6
629.204	18596.6
634.735	18540.6
640.261	18566.6
645.781	18545.6
651.294	18323.6
656.802	18232.6
662.304	18106.6
667.8	17890.6
673.29	17825.6
678.775	17732.6
684.254	17689.6
689.726	17752.6
695.193	17576.6
700.655	17700.6
706.11	17756.6
711.56	17697.6
717.004	17773.6
722.442	17823.6
727.874	17688.6
733.301	17692.6
738.722	17719.6
744.137	17531.6
749.547	17461.6
754.951	17386.6
760.349	17158.6
765.741	17120.6
771.128	17067.6
776.509	17106.6
781.885	17049.6
787.254	17099.6
792.618	17097.6
797.977	17177.6
803.33	17297.6
808.677	17263.6
814.019	17202.6
819.355	17212.6
824.686	17269.6
830.011	17231.6
835.33	17021.6
840.644	16787.6
845.952	16732.6
851.255	16522.6
856.552	16539.6
861.844	16360.6
867.13	16314.6
872.41	16255.6
877.686	16228.6
882.955	16328.6
888.219	16364.6
893.478	16480.6
898.731	16348.6
903.979	16311.6
909.221	16385.6
914.458	16231.6
919.69	16044.6
924.916	15845.6
930.136	15730.6
935.351	15647.6
940.561	15349.6
945.766	15297.6
950.965	15149.6
956.158	15213.6
961.347	15261.6
966.529	15246.6
971.707	15295.6
976.879	15253.6
982.046	15382.6
987.208	15325.6
992.364	15180.6
997.515	15164.6
1002.66	15044.6
1007.801	15046.6
1012.936	15031.6
1018.066	14979.6
1023.19	14800.6
1028.309	14752.6
1033.423	14979.6
1038.532	14996.6
1043.636	15207.6
1048.734	15113.6
1053.827	15316.6
1058.915	15265.6
1063.998	15143.6
1069.075	14966.6
1074.147	14665.6
1079.214	14633.6
1084.276	14434.6
1089.333	14375.6
1094.385	14287.6
1099.431	14243.6
1104.472	14311.6
1109.509	14362.6
1114.54	14557.6
1119.565	14610.6
1124.586	14560.6
1129.602	14558.6
1134.613	14486.6
1139.618	14379.6
1144.619	14112.6
1149.614	13880.6
1154.604	13794.6
1159.589	13764.6
1164.57	13621.6
1169.545	13675.6
1174.515	13655.6
1179.48	13773.6
1184.44	13761.6
1189.395	13941.6
1194.345	14034.6
1199.29	13997.6
1204.23	14020.6
1209.165	14007.6
1214.095	13952.6
1219.021	13878.6
1223.941	13872.6
1228.856	13713.6
1233.766	13692.6
1238.672	13651.6
1243.572	13540.6
1248.467	13629.6
1253.358	13747.6
1258.244	13763.6
1263.124	13685.6
1268	13568.6
1272.871	13489.6
1277.737	13448.6
1282.599	13247.6
1287.455	13102.6
1292.306	12906.6
1297.153	12906.6
1301.995	12731.6
1306.832	12659.6
1311.664	12743.6
1316.491	12834.6
1321.314	12711.6
1326.132	12700.6
1330.945	12722.6
1335.753	12525.6
1340.556	12354.6
1345.354	12211.6
1350.148	11907.6
1354.937	11763.6
1359.722	11659.6
1364.501	11388.6
1369.276	11430.6
1374.046	11416.6
1378.811	11536.6
1383.572	11562.6
1388.327	11458.6
1393.079	11857.6
1397.825	11860.6
1402.567	11863.6
1407.304	11872.6
1412.036	11842.6
1416.764	11713.6
1421.487	11873.6
1426.205	11547.6
1430.919	11396.6
1435.628	11258.6
1440.333	11236.6
1445.032	11058.6
1449.727	11101.6
1454.418	11135.6
1459.104	11022.6
1463.785	10851.6
1468.462	10916.6
1473.134	10884.6
1477.802	10735.6
1482.465	10734.6
1487.123	10494.6
1491.777	10528.6
1496.426	10387.6
1501.071	10264.6
1505.711	10282.6
1510.347	10326.6
1514.978	10427.6
1519.604	10523.6
1524.226	10604.6
1528.844	10898.6
1533.457	10886.6
1538.065	10977.6
1542.669	10997.6
1547.269	11052.6
1551.864	11014.6
1556.454	11063.6
1561.041	11007.6
1565.622	11009.6
1570.199	10737.6
1574.772	10734.6
1579.34	10499.6
1583.904	10616.6
1588.464	10652.6
1593.019	10649.6
1597.569	10746.6
1602.115	10730.6
1606.657	10795.6
1611.195	10830.6
1615.728	10881.6
1620.256	10924.6
1624.78	10913.6
1629.3	10884.6
1633.816	10720.6
1638.327	10771.6
1642.834	10672.6
1647.336	10674.6
1651.834	10561.6
1656.328	10590.6
1660.817	10538.6
1665.302	10582.6
1669.783	10515.6
1674.259	10289.6
1678.732	10182.6
1683.199	9958.6
1687.663	9670.6
1692.122	9370.6
1696.577	9137.6
1701.028	9170.6
1705.474	9009.6
1709.917	8967.6
1714.355	8952.6
1718.788	8907.6
1723.218	8771.6
1727.643	8446.6
1732.064	8562.6
1736.481	8375.6
1740.893	8191.6
1745.301	8058.6
1749.705	8112.6
1754.105	7771.6
1758.501	7705.6
1762.893	7379.6
1767.28	7325.6
1771.663	7107.6
1776.042	6970.6
1780.417	6889.6
1784.787	6659.6
1789.154	6693.6
1793.516	6631.6
1797.874	6866.6
1802.228	6952.6
1806.578	7112.6
1810.924	7098.6
1815.266	7374.6
1819.603	7117.6
1823.937	7139.6
1828.266	7032.6
1832.591	7028.6
1836.913	6889.6
1841.23	6941.6
1845.543	6829.6
1849.852	6736.6
1854.156	6663.6
1858.457	6556.6
1862.754	6571.6
1867.047	6499.6
1871.335	6380.6
1875.62	6402.6
1879.9	6384.6
1884.177	6458.6
1888.449	6361.6
1892.718	6372.6
1896.982	6316.6
1901.243	6462.6
1905.499	6357.6
1909.752	6290.6
1914	6392.6
1918.245	6254.6
1922.485	6226.6
1926.722	6289.6
1930.954	6288.6
1935.183	6303.6
1939.408	6274.6
1943.628	6309.6
1947.845	6360.6
1952.058	6436.6
1956.267	6385.6
1960.472	6364.6
1964.673	6415.6
1968.87	6387.6
1973.063	6287.6
1977.252	6290.6
1981.438	6148.6
1985.619	6052.6
1989.797	5976.6
1993.971	5894.6
1998.14	5798.6
2002.306	5776.6
2006.469	5693.6
2010.627	5647.6
2014.781	5635.6
2018.932	5684.6
2023.078	5550.6
2027.221	5524.6
2031.36	5610.6
2035.495	5562.6
2039.627	5466.6
2043.754	5529.6
2047.878	5409.6
2051.998	5346.6
2056.114	5336.6
2060.226	5330.6
2064.334	5282.6
2068.439	5149.6
2072.54	5209.6
2076.637	5271.6
2080.73	5244.6
2084.82	5289.6
2088.906	5281.6
2092.988	5162.6
2097.066	5377.6
2101.14	5337.6
2105.211	5361.6
2109.278	5358.6
2113.342	5413.6
2117.401	5427.6
2121.457	5315.6
2125.509	5306.6
2129.558	5175.6
2133.602	5171.6
2137.643	5115.6
2141.681	5008.6
2145.714	5055.6
2149.744	4976.6
2153.77	5000.6
2157.793	4895.6
2161.812	4949.6
2165.827	4917.6
2169.838	4796.6
2173.846	4776.6
2177.851	4683.6
2181.851	4694.6
2185.848	4879.6
2189.841	4500.6
2193.831	4606.6
2197.817	4487.6
2201.799	4503.6
2205.778	4460.6
2209.753	4410.6
2213.725	4379.6
2217.693	4334.6
2221.657	4360.6
2225.618	3947.6
2229.575	4275.6
2233.529	4258.6
2237.479	4285.6
2241.425	4225.6
2245.368	4317.6
2249.307	4217.6
2253.243	4225.6
2257.175	4224.6
2261.104	4049.6
2265.029	4005.6
2268.95	3974.6
2272.868	3883.6
2276.783	3949.6
2280.694	3769.6
2284.601	3807.6
2288.505	3730.6
2292.405	3655.6
2296.302	3703.6
2300.195	3546.6
2304.085	3588.6
2307.971	3570.6
2311.854	3528.6
2315.734	3496.6
2319.609	3566.6
2323.482	3526.6
2327.351	3472.6
2331.216	3507.6
2335.078	3428.6
2338.937	3445.6
2342.792	3428.6
2346.643	3398.6
2350.492	3315.6
2354.336	3367.6
2358.178	3325.6
2362.015	3303.6
2365.85	3437.6
2369.681	3407.6
2373.508	3345.6
2377.333	3303.6
2381.153	3386.6
2384.971	3398.6
2388.785	3362.6
2392.595	3444.6
2396.402	3413.6
2400.206	3443.6
2404.007	3398.6
2407.804	3307.6
2411.597	3303.6
2415.388	3259.6
2419.174	3206.6
2422.958	3176.6
2426.738	3159.6
2430.515	3025.6
2434.289	3159.6
2438.059	3117.6
2441.825	3116.6
2445.589	3031.6
2449.349	3001.6
2453.106	2975.6
2456.859	2972.6
2460.61	2976.6
2464.356	3002.6
2468.1	2929.6
2471.84	2972.6
2475.577	2944.6
2479.311	2862.6
2483.041	2807.6
2486.768	2753.6
2490.492	2681.6
2494.213	2724.6
2497.93	2794.6
2501.644	2867.6
2505.355	2821.6
2509.062	2756.6
2512.766	2809.6
2516.467	2785.6
2520.165	2713.6
2523.859	2822.6
2527.551	2604.6
2531.239	2715.6
2534.923	2673.6
2538.605	2762.6
2542.283	2716.6
2545.958	2673.6
2549.63	2623.6
2553.299	2598.6
2556.964	2583.6
2560.626	2651.6
2564.285	2552.6
2567.941	2637.6
2571.594	2658.6
2575.243	2571.6
2578.89	2609.6
2582.533	2593.6
2586.173	2592.6
2589.809	2534.6
2593.443	2663.6
2597.073	2533.6
2600.701	2419.6
2604.325	2507.6
2607.946	2488.6
2611.564	2491.6
2615.178	2392.6
2618.79	2410.6
2622.398	2410.6
2626.004	2403.6
2629.606	2419.6
2633.205	2486.6
2636.801	2373.6
2640.394	2258.6
2643.983	2319.6
2647.57	2308.6
2651.153	2234.6
2654.734	2159.6
2658.311	2316.6
2661.885	2165.6
2665.456	2179.6
2669.025	2143.6
2672.589	2100.6
2676.151	2008.6
2679.71	1984.6
2683.266	1966.6
2686.819	2002.6
2690.368	1986.6
2693.915	2016.6
2697.458	1979.6
2700.999	1884.6
2704.536	1864.6
2708.071	1896.6
2711.602	1835.6
2715.13	1799.6
2718.656	1840.6
2722.178	1675.6
2725.697	1759.6
2729.214	1617.6
2732.727	1682.6
2736.237	1741.6
2739.744	1689.6
2743.249	1717.6
2746.75	1708.6
2750.248	1723.6
2753.743	1777.6
2757.236	1703.6
2760.725	1731.6
2764.211	1877.6
2767.695	1730.6
2771.175	1741.6
2774.652	1753.6
2778.127	1727.6
2781.598	1733.6
2785.067	1705.6
2788.532	1776.6
2791.995	1657.6
2795.455	1674.6
2798.911	1670.6
2802.365	1787.6
2805.816	1743.6
2809.264	1715.6
2812.709	1721.6
2816.151	1734.6
2819.59	1822.6
2823.026	1813.6
2826.46	1746.6
2829.89	1810.6
2833.318	1931.6
2836.742	1800.6
2840.164	1822.6
2843.583	1840.6
2846.999	1894.6
2850.412	1819.6
2853.822	1933.6
2857.229	1834.6
2860.634	1826.6
2864.035	1871.6
2867.434	1797.6
2870.83	1835.6
2874.223	1945.6
2877.613	1851.6
2881	2029.6
2884.385	2095.6
2887.766	2133.6
2891.145	2176.6
2894.521	2132.6
2897.894	2097.6
2901.264	1882.6
2904.631	2107.6
2907.996	2104.6
2911.358	2109.6
2914.717	2062.6
2918.073	2074.6
2921.426	2029.6
2924.777	2173.6
2928.124	2203.6
2931.469	2122.6
2934.811	2239.6
2938.15	2254.6
2941.487	2265.6
2944.821	2236.6
2948.152	2327.6
2951.48	2079.6
2954.805	2262.6
2958.128	2202.6
2961.447	2251.6
2964.765	2178.6
2968.079	2312.6
2971.39	2266.6
2974.699	2341.6
2978.005	2312.6
2981.308	2376.6
2984.609	2425.6
2987.907	2391.6
2991.202	2474.6
2994.494	2511.6
2997.784	2467.6
3001.07	2538.6
3004.355	2556.6
3007.636	2590.6
3010.915	2670.6
3014.191	2748.6
3017.464	2714.6
3020.734	2707.6
3024.002	2796.6
3027.267	2771.6
3030.53	2856.6
3033.789	2878.6
3037.046	2980.6
3040.301	2989.6
3043.552	3035.6
3046.801	3148.6
3050.048	3028.6
3053.291	3064.6
3056.532	3194.6
3059.771	3266.6
3063.006	3367.6
3066.239	3411.6
3069.469	3495.6
3072.697	3730.6
3075.922	3783.6
3079.144	3730.6
3082.364	3932.6
3085.581	4088.6
3088.795	4109.6
3092.007	4193.6
3095.216	4378.6
3098.423	4542.6
3101.627	4650.6
3104.828	4747.6
3108.026	4781.6
3111.222	4846.6
3114.416	4930.6
3117.607	5121.6
3120.795	5176.6
3123.98	5236.6
3127.163	5454.6
3130.344	5457.6
3133.521	5740.6
3136.696	5652.6
3139.869	5743.6
3143.039	5950.6
3146.206	5981.6
3149.371	6086.6
3152.533	6265.6
3155.693	6278.6
3158.85	6346.6
3162.005	6468.6
3165.157	6568.6
3168.306	6582.6
3171.453	6519.6
3174.597	6733.6
3177.739	6740.6
3180.878	6608.6
3184.014	6624.6
3187.149	6662.6
3190.28	6638.6
3193.409	6608.6
3196.536	6522.6
3199.659	6561.6
3202.781	6591.6
3205.9	6677.6
3209.016	6580.6
3212.13	6550.6
3215.241	6499.6
3218.35	6601.6
3221.456	6659.6
3224.56	6676.6
3227.661	6715.6
3230.76	6708.6
3233.856	6654.6
3236.95	6656.6
3240.041	6696.6
3243.13	6541.6
3246.216	6558.6
3249.3	6340.6
3252.382	6419.6
3255.46	6482.6
3258.537	6604.6
3261.611	6440.6
3264.682	6235.6
3267.751	6255.6
3270.818	6282.6
3273.882	6101.6
3276.943	6007.6
3280.002	5998.6
3283.059	5988.6
3286.113	5940.6
3289.165	5962.6
3292.214	5892.6
3295.261	5735.6
3298.306	5753.6
3301.348	5709.6
3304.387	5651.6
3307.425	5575.6
3310.459	5507.6
3313.492	5295.6
3316.521	5389.6
3319.549	5175.6
3322.574	5104.6
3325.597	5021.6
3328.617	5036.6
3331.635	4941.6
3334.65	4990.6
3337.663	4888.6
3340.674	4866.6
3343.682	4744.6
3346.688	4787.6
3349.691	4731.6
3352.692	4776.6
3355.691	4654.6
3358.687	4713.6
3361.681	4744.6
3364.673	4703.6
3367.662	4678.6
3370.649	4665.6
3373.633	4627.6
3376.615	4589.6
3379.595	4635.6
3382.572	4460.6
3385.547	4361.6
3388.52	4471.6
3391.49	4320.6
3394.458	4245.6
3397.424	4146.6
3400.387	4145.6
3403.348	3926.6
3406.307	4037.6
3409.263	4019.6
3412.217	3870.6
3415.168	3779.6
3418.118	3814.6
3421.065	3688.6
3424.009	3626.6
3426.951	3643.6
3429.891	3436.6
3432.829	3580.6
3435.764	3555.6
3438.697	3552.6
3441.628	3350.6
3444.557	3385.6
3447.483	3340.6
3450.407	3204.6
3453.328	3221.6
3456.247	3091.6
3459.164	3105.6
3462.079	2923.6
3464.991	2860.6
3467.902	2804.6
3470.809	2726.6
3473.715	2672.6
3476.618	2589.6
3479.519	2490.6
3482.418	2555.6
3485.315	2318.6
3488.209	2279.6
3491.101	2204.6
3493.99	2219.6
3496.878	1902.6
3499.763	1974.6
3502.646	1932.6
3505.527	1991.6
3508.405	1890.6
3511.281	1800.6
3514.155	1821.6
3517.027	1766.6
3519.897	1820.6
3522.764	1569.6
3525.629	1637.6
3528.492	1530.6
3531.352	1416.6
3534.211	1354.6
3537.067	1360.6
3539.921	1322.6
3542.773	1247.6
3545.622	1196.6
3548.469	1213.6
3551.315	1165.6
3554.157	1072.6
3556.998	974.6
3559.837	926.6
3562.673	809.6
3565.507	878.6
3568.339	820.6
3571.169	793.6
3573.996	720.6
3576.822	719.6
3579.645	725.6
3582.466	646.6
3585.285	652.6
3588.101	554.6
3590.916	598.6
3593.728	568.6
3596.538	535.6
3599.346	511.6
3602.152	507.6
3604.956	487.6
3607.757	420.6
3610.556	490.6
3613.354	395.6
3616.149	400.6
3618.942	337.6
3621.732	152.6
3624.521	305.6
3627.307	220.6
3630.092	279.6
3632.874	188.6
3635.654	282.6
3638.432	273.6
3641.208	209.6
3643.982	185.6
3646.753	177.6
3649.523	186.6
3652.29	206.6
3655.055	224.6
3657.818	70.6
3660.579	127.6
3663.338	164.6
3666.095	-5.4
3668.849	141.6
3671.602	-2.4
3674.352	127.6
3677.101	4.6
3679.847	-87.4
3682.591	69.6
3685.333	-22.4
3688.073	-34.4
3690.811	18.6
3693.547	72.6
3696.281	5.6
3699.013	-60.4
3701.742	-57.4
3704.47	19.6
3707.195	-113.4
3709.919	-95.4
3712.64	-81.4
3715.359	-207.4
3718.076	-225.4
3720.792	-108.4
3723.505	-99.4
3726.216	-91.4
3728.925	-100.4
3731.632	-214.4
3734.336	-57.4
3737.039	-146.4
3739.74	-123.4
3742.439	120.6
3745.136	-165.4
3747.83	-144.4
3750.523	-158.4
3753.213	180.6
3755.902	-120.4
3758.589	-109.4
3761.273	-99.4
3763.956	-256.4
3766.636	-118.4
3769.315	-242.4
3771.991	-85.4
3774.665	-131.4
3777.338	-116.4
3780.008	-117.4
3782.677	-133.4
3785.343	-55.4
3788.007	-111.4
3790.67	-171.4
3793.33	-282.4
3795.989	-144.4
3798.645	-216.4
3801.299	-109.4
3803.952	-221.4
3806.602	-220.4
3809.251	-197.4
3811.897	-203.4
3814.542	-180.4
3817.184	-230.4
3819.825	-116.4
3822.463	-167.4
3825.1	-206.4
3827.735	-171.4
3830.367	-220.4
3832.998	-243.4
3835.627	-286.4
3838.253	-206.4
3840.878	-260.4
3843.501	-284.4
3846.122	-261.4
3848.741	-235.4
3851.358	-240.4
3853.973	-146.4
3856.586	-242.4
3859.197	-294.4
3861.806	-262.4
3864.414	-146.4
3867.019	-225.4
3869.622	-276.4
3872.224	-270.4
3874.823	-154.4
3877.421	-150.4
3880.016	-151.4
3882.61	-117.4
3885.202	-149.4
3887.792	-147.4
3890.38	-220.4
3892.966	-177.4
3895.55	-198.4
3898.132	-236.4
3900.713	-295.4
3903.291	-194.4
3905.868	-237.4
3908.442	-259.4
3911.015	-247.4
3913.586	-226.4
3916.155	-165.4
3918.722	-218.4
3921.287	-213.4
3923.85	-193.4
3926.411	-287.4
3928.971	-293.4
3931.528	-254.4
3934.084	-286.4
3936.638	-261.4
3939.19	-297.4
3941.74	-310.4
3944.288	-278.4
3946.834	-234.4
3949.378	-236.4
3951.921	-176.4
3954.462	-256.4
3957	-262.4
3959.537	-174.4
3962.072	-192.4
3964.606	-130.4
3967.137	-218.4
3969.667	-270.4
3972.194	-230.4
3974.72	-232.4
3977.244	-178.4
3979.766	-186.4
3982.286	-180.4
3984.805	-290.4
3987.321	-304.4
3989.836	-232.4
3992.349	-212.4
3994.86	-258.4
3997.369	-188.4
3999.877	-269.4
4002.382	-224.4
4004.886	-212.4
4007.388	-273.4
4009.888	-87.4
4012.386	-238.4
4014.883	-234.4
4017.377	-245.4
4019.87	-374.4
4022.361	-217.4
4024.85	-204.4
4027.338	-136.4
4029.823	-236.4
4032.307	-250.4
4034.789	-190.4
4037.269	-193.4
4039.747	-162.4
4042.224	-242.4
4044.699	-236.4
4047.172	-249.4
4049.643	-307.4
4052.112	-170.4
4054.58	-206.4
4057.046	-213.4
4059.51	-203.4
4061.972	-268.4
4064.432	-104.4
4066.891	-286.4
4069.348	-189.4
4071.803	-268.4
4074.256	-295.4
4076.708	-231.4
4079.158	-245.4
4081.606	-289.4
4084.052	-206.4
4086.497	-244.4
4088.939	-222.4
4091.38	-147.4
4093.819	-253.4
4096.257	-970.4
4098.693	-945.4
4101.127	-967.4
4103.559	-1012.4
4105.989	49.6
4108.418	-82.4
4110.845	89.6
4113.27	64.6
4115.694	194.6
4118.115	122.6
4120.535	-290.4
4122.954	-324.4
4125.37	-276.4
4127.785	-246.4
4130.198	-250.4
4132.609	-297.4
4135.019	-1011.4
4137.427	-1007.4
4139.833	-960.4
4142.237	-842.4
