Data from 2018-2-8_conc=3_RamanShift_02.txt Node
Date: Wed Feb 07 10:09:10 IST 2018
User: aro
Spectrometer: QEPB0276
Trigger mode: 0
Integration Time (sec): 3.000000E1
Scans to average: 1
Electric dark correction enabled: true
Nonlinearity correction enabled: false
Boxcar width: 0
XAxis mode: Raman Shifts
Number of Pixels in Spectrum: 1044
>>>>>Begin Spectral Data<<<<<
160.701	348.8
166.742	537.8
172.777	1021.8
178.805	2601.8
184.826	6098.8
190.841	12167.8
196.849	19473.8
202.85	24951.8
208.845	26941.8
214.833	26657.8
220.815	26204.8
226.789	24829.8
232.758	25870.8
238.719	25698.8
244.674	25527.8
250.623	24879.8
256.565	24523.8
262.5	23897.8
268.429	23293.8
274.351	23008.8
280.267	22764.8
286.176	22138.8
292.079	21863.8
297.975	21651.8
303.865	21402.8
309.748	21211.8
315.625	20968.8
321.495	20557.8
327.359	20547.8
333.217	20545.8
339.068	20548.8
344.912	20582.8
350.751	20456.8
356.583	20466.8
362.408	20355.8
368.227	20427.8
374.04	20555.8
379.847	20588.8
385.647	20734.8
391.44	20871.8
397.228	20902.8
403.009	21162.8
408.784	21292.8
414.553	21353.8
420.315	21374.8
426.071	21428.8
431.821	21368.8
437.565	21370.8
443.302	21209.8
449.033	21169.8
454.758	21076.8
460.477	20888.8
466.189	20812.8
471.896	20762.8
477.596	20607.8
483.29	20670.8
488.978	20583.8
494.66	20568.8
500.335	20586.8
506.005	20479.8
511.668	20202.8
517.325	20159.8
522.977	19928.8
528.622	19751.8
534.261	19691.8
539.894	19599.8
545.521	19573.8
551.141	19434.8
556.756	19239.8
562.365	19055.8
567.968	18960.8
573.565	18836.8
579.155	18642.8
584.74	18598.8
590.319	18530.8
595.892	18415.8
601.459	18405.8
607.02	18366.8
612.575	18467.8
618.124	18326.8
623.667	18426.8
629.204	18307.8
634.735	18419.8
640.261	18232.8
645.781	18244.8
651.294	18095.8
656.802	17901.8
662.304	17786.8
667.8	17500.8
673.29	17598.8
678.775	17435.8
684.254	17506.8
689.726	17528.8
695.193	17360.8
700.655	17307.8
706.11	17454.8
711.56	17292.8
717.004	17388.8
722.442	17321.8
727.874	17370.8
733.301	17407.8
738.722	17353.8
744.137	17241.8
749.547	17065.8
754.951	17065.8
760.349	16878.8
765.741	16785.8
771.128	16774.8
776.509	16774.8
781.885	16691.8
787.254	16733.8
792.618	16748.8
797.977	16911.8
803.33	16840.8
808.677	16948.8
814.019	16876.8
819.355	16886.8
824.686	16933.8
830.011	16875.8
835.33	16584.8
840.644	16448.8
845.952	16416.8
851.255	16166.8
856.552	16108.8
861.844	16004.8
867.13	15959.8
872.41	15886.8
877.686	15860.8
882.955	15944.8
888.219	16035.8
893.478	16131.8
898.731	15926.8
903.979	15861.8
909.221	15911.8
914.458	15815.8
919.69	15591.8
924.916	15565.8
930.136	15327.8
935.351	15337.8
940.561	14992.8
945.766	14922.8
950.965	14751.8
956.158	14932.8
961.347	14846.8
966.529	14871.8
971.707	14914.8
976.879	14866.8
982.046	14901.8
987.208	14997.8
992.364	14873.8
997.515	14759.8
1002.66	14655.8
1007.801	14721.8
1012.936	14609.8
1018.066	14668.8
1023.19	14505.8
1028.309	14408.8
1033.423	14509.8
1038.532	14598.8
1043.636	14727.8
1048.734	14767.8
1053.827	14817.8
1058.915	14804.8
1063.998	14693.8
1069.075	14499.8
1074.147	14347.8
1079.214	14332.8
1084.276	14037.8
1089.333	14016.8
1094.385	13942.8
1099.431	13979.8
1104.472	13913.8
1109.509	14033.8
1114.54	14166.8
1119.565	14183.8
1124.586	14126.8
1129.602	14188.8
1134.613	14088.8
1139.618	13996.8
1144.619	13763.8
1149.614	13584.8
1154.604	13499.8
1159.589	13413.8
1164.57	13241.8
1169.545	13236.8
1174.515	13288.8
1179.48	13378.8
1184.44	13400.8
1189.395	13526.8
1194.345	13665.8
1199.29	13600.8
1204.23	13740.8
1209.165	13633.8
1214.095	13567.8
1219.021	13410.8
1223.941	13391.8
1228.856	13402.8
1233.766	13354.8
1238.672	13273.8
1243.572	13248.8
1248.467	13264.8
1253.358	13390.8
1258.244	13420.8
1263.124	13309.8
1268	13181.8
1272.871	13140.8
1277.737	13203.8
1282.599	12934.8
1287.455	12828.8
1292.306	12558.8
1297.153	12565.8
1301.995	12458.8
1306.832	12402.8
1311.664	12359.8
1316.491	12475.8
1321.314	12477.8
1326.132	12420.8
1330.945	12309.8
1335.753	12220.8
1340.556	12084.8
1345.354	11870.8
1350.148	11655.8
1354.937	11483.8
1359.722	11533.8
1364.501	11288.8
1369.276	11107.8
1374.046	11203.8
1378.811	11317.8
1383.572	11345.8
1388.327	11135.8
1393.079	11549.8
1397.825	11670.8
1402.567	11576.8
1407.304	11575.8
1412.036	11662.8
1416.764	11502.8
1421.487	11689.8
1426.205	11368.8
1430.919	11154.8
1435.628	11021.8
1440.333	10963.8
1445.032	10777.8
1449.727	10840.8
1454.418	10861.8
1459.104	10824.8
1463.785	10601.8
1468.462	10656.8
1473.134	10620.8
1477.802	10469.8
1482.465	10597.8
1487.123	10206.8
1491.777	10359.8
1496.426	10181.8
1501.071	10041.8
1505.711	10140.8
1510.347	10090.8
1514.978	10249.8
1519.604	10309.8
1524.226	10429.8
1528.844	10654.8
1533.457	10611.8
1538.065	10732.8
1542.669	10811.8
1547.269	10860.8
1551.864	10869.8
1556.454	10858.8
1561.041	10822.8
1565.622	10769.8
1570.199	10547.8
1574.772	10603.8
1579.34	10286.8
1583.904	10505.8
1588.464	10524.8
1593.019	10491.8
1597.569	10618.8
1602.115	10659.8
1606.657	10717.8
1611.195	10744.8
1615.728	10810.8
1620.256	10933.8
1624.78	10964.8
1629.3	10955.8
1633.816	10740.8
1638.327	10748.8
1642.834	10635.8
1647.336	10641.8
1651.834	10474.8
1656.328	10585.8
1660.817	10477.8
1665.302	10451.8
1669.783	10494.8
1674.259	10404.8
1678.732	10068.8
1683.199	9796.8
1687.663	9697.8
1692.122	9320.8
1696.577	9026.8
1701.028	9058.8
1705.474	8971.8
1709.917	8967.8
1714.355	8851.8
1718.788	8777.8
1723.218	8639.8
1727.643	8403.8
1732.064	8242.8
1736.481	8256.8
1740.893	8037.8
1745.301	7948.8
1749.705	7998.8
1754.105	7634.8
1758.501	7579.8
1762.893	7186.8
1767.28	7163.8
1771.663	7004.8
1776.042	6792.8
1780.417	6668.8
1784.787	6559.8
1789.154	6601.8
1793.516	6579.8
1797.874	6777.8
1802.228	6862.8
1806.578	7074.8
1810.924	6940.8
1815.266	7211.8
1819.603	7026.8
1823.937	7045.8
1828.266	6909.8
1832.591	6887.8
1836.913	6759.8
1841.23	6753.8
1845.543	6708.8
1849.852	6583.8
1854.156	6530.8
1858.457	6528.8
1862.754	6289.8
1867.047	6411.8
1871.335	6297.8
1875.62	6182.8
1879.9	6253.8
1884.177	6377.8
1888.449	6220.8
1892.718	6233.8
1896.982	6152.8
1901.243	6292.8
1905.499	6252.8
1909.752	6232.8
1914	6335.8
1918.245	6170.8
1922.485	6208.8
1926.722	6214.8
1930.954	6223.8
1935.183	6251.8
1939.408	6240.8
1943.628	6297.8
1947.845	6270.8
1952.058	6283.8
1956.267	6186.8
1960.472	6261.8
1964.673	6270.8
1968.87	6337.8
1973.063	6307.8
1977.252	6186.8
1981.438	6164.8
1985.619	6005.8
1989.797	5916.8
1993.971	5821.8
1998.14	5718.8
2002.306	5733.8
2006.469	5692.8
2010.627	5616.8
2014.781	5616.8
2018.932	5687.8
2023.078	5583.8
2027.221	5433.8
2031.36	5527.8
2035.495	5606.8
2039.627	5488.8
2043.754	5407.8
2047.878	5367.8
2051.998	5367.8
2056.114	5328.8
2060.226	5341.8
2064.334	5316.8
2068.439	5181.8
2072.54	5232.8
2076.637	5376.8
2080.73	5255.8
2084.82	5264.8
2088.906	5246.8
2092.988	5158.8
2097.066	5442.8
2101.14	5308.8
2105.211	5364.8
2109.278	5344.8
2113.342	5436.8
2117.401	5462.8
2121.457	5427.8
2125.509	5350.8
2129.558	5139.8
2133.602	5241.8
2137.643	5120.8
2141.681	5065.8
2145.714	5045.8
2149.744	4931.8
2153.77	4969.8
2157.793	4955.8
2161.812	4956.8
2165.827	4913.8
2169.838	4795.8
2173.846	4818.8
2177.851	4715.8
2181.851	4680.8
2185.848	4695.8
2189.841	4516.8
2193.831	4625.8
2197.817	4459.8
2201.799	4445.8
2205.778	4489.8
2209.753	4484.8
2213.725	4420.8
2217.693	4432.8
2221.657	4365.8
2225.618	4274.8
2229.575	4354.8
2233.529	4297.8
2237.479	4265.8
2241.425	4210.8
2245.368	4356.8
2249.307	4278.8
2253.243	4210.8
2257.175	4247.8
2261.104	4060.8
2265.029	3996.8
2268.95	4030.8
2272.868	3952.8
2276.783	3978.8
2280.694	3749.8
2284.601	3772.8
2288.505	3809.8
2292.405	3673.8
2296.302	3681.8
2300.195	3646.8
2304.085	3650.8
2307.971	3631.8
2311.854	3633.8
2315.734	3529.8
2319.609	3553.8
2323.482	3592.8
2327.351	3529.8
2331.216	3547.8
2335.078	3455.8
2338.937	3510.8
2342.792	3463.8
2346.643	3392.8
2350.492	3346.8
2354.336	3392.8
2358.178	3337.8
2362.015	3334.8
2365.85	3377.8
2369.681	3396.8
2373.508	3367.8
2377.333	3328.8
2381.153	3396.8
2384.971	3401.8
2388.785	3398.8
2392.595	3361.8
2396.402	3477.8
2400.206	3452.8
2404.007	3370.8
2407.804	3393.8
2411.597	3270.8
2415.388	3347.8
2419.174	3257.8
2422.958	3191.8
2426.738	3183.8
2430.515	3050.8
2434.289	3221.8
2438.059	3237.8
2441.825	3157.8
2445.589	2975.8
2449.349	3149.8
2453.106	3043.8
2456.859	3039.8
2460.61	2969.8
2464.356	3036.8
2468.1	2940.8
2471.84	3030.8
2475.577	2980.8
2479.311	2906.8
2483.041	2927.8
2486.768	2789.8
2490.492	2629.8
2494.213	3003.8
2497.93	2878.8
2501.644	2875.8
2505.355	2892.8
2509.062	2868.8
2512.766	2828.8
2516.467	2867.8
2520.165	2788.8
2523.859	2858.8
2527.551	2630.8
2531.239	2758.8
2534.923	2792.8
2538.605	2712.8
2542.283	2723.8
2545.958	2838.8
2549.63	2684.8
2553.299	2659.8
2556.964	2675.8
2560.626	2662.8
2564.285	2608.8
2567.941	2675.8
2571.594	2729.8
2575.243	2580.8
2578.89	2703.8
2582.533	2657.8
2586.173	2653.8
2589.809	2632.8
2593.443	2822.8
2597.073	2630.8
2600.701	2490.8
2604.325	2619.8
2607.946	2575.8
2611.564	2529.8
2615.178	2443.8
2618.79	2458.8
2622.398	2503.8
2626.004	2440.8
2629.606	2370.8
2633.205	2536.8
2636.801	2416.8
2640.394	2423.8
2643.983	2430.8
2647.57	2406.8
2651.153	2295.8
2654.734	2204.8
2658.311	2415.8
2661.885	2261.8
2665.456	2201.8
2669.025	2209.8
2672.589	2212.8
2676.151	2098.8
2679.71	2137.8
2683.266	2201.8
2686.819	2072.8
2690.368	2055.8
2693.915	2051.8
2697.458	2119.8
2700.999	1979.8
2704.536	1989.8
2708.071	1954.8
2711.602	1949.8
2715.13	1910.8
2718.656	1931.8
2722.178	1831.8
2725.697	1857.8
2729.214	1620.8
2732.727	1737.8
2736.237	1784.8
2739.744	1764.8
2743.249	1824.8
2746.75	1824.8
2750.248	1919.8
2753.743	1890.8
2757.236	1830.8
2760.725	1910.8
2764.211	2082.8
2767.695	1883.8
2771.175	1850.8
2774.652	1821.8
2778.127	1888.8
2781.598	1865.8
2785.067	1836.8
2788.532	1884.8
2791.995	1822.8
2795.455	1830.8
2798.911	1805.8
2802.365	1953.8
2805.816	1886.8
2809.264	1817.8
2812.709	1881.8
2816.151	1802.8
2819.59	2015.8
2823.026	1963.8
2826.46	1954.8
2829.89	1942.8
2833.318	2101.8
2836.742	1963.8
2840.164	1892.8
2843.583	1990.8
2846.999	1973.8
2850.412	1980.8
2853.822	2074.8
2857.229	1947.8
2860.634	1991.8
2864.035	2044.8
2867.434	1953.8
2870.83	1997.8
2874.223	2136.8
2877.613	1954.8
2881	2201.8
2884.385	2271.8
2887.766	2192.8
2891.145	2193.8
2894.521	2267.8
2897.894	2319.8
2901.264	2079.8
2904.631	2282.8
2907.996	2242.8
2911.358	2280.8
2914.717	2314.8
2918.073	2308.8
2921.426	2291.8
2924.777	2447.8
2928.124	2407.8
2931.469	2367.8
2934.811	2532.8
2938.15	2399.8
2941.487	2483.8
2944.821	2416.8
2948.152	2603.8
2951.48	2515.8
2954.805	2522.8
2958.128	2429.8
2961.447	2529.8
2964.765	2420.8
2968.079	2597.8
2971.39	2510.8
2974.699	2518.8
2978.005	2511.8
2981.308	2600.8
2984.609	2713.8
2987.907	2647.8
2991.202	2741.8
2994.494	2805.8
2997.784	2495.8
3001.07	2747.8
3004.355	2798.8
3007.636	2845.8
3010.915	2926.8
3014.191	2975.8
3017.464	2979.8
3020.734	2939.8
3024.002	3069.8
3027.267	3077.8
3030.53	3107.8
3033.789	3171.8
3037.046	3316.8
3040.301	3266.8
3043.552	3338.8
3046.801	3438.8
3050.048	3350.8
3053.291	3300.8
3056.532	3583.8
3059.771	3677.8
3063.006	3635.8
3066.239	3726.8
3069.469	3826.8
3072.697	4098.8
3075.922	4083.8
3079.144	4146.8
3082.364	4245.8
3085.581	4467.8
3088.795	4409.8
3092.007	4571.8
3095.216	4807.8
3098.423	5013.8
3101.627	5119.8
3104.828	5199.8
3108.026	5258.8
3111.222	5290.8
3114.416	5336.8
3117.607	5548.8
3120.795	5624.8
3123.98	5661.8
3127.163	5922.8
3130.344	5934.8
3133.521	6050.8
3136.696	6166.8
3139.869	6226.8
3143.039	6417.8
3146.206	6442.8
3149.371	6632.8
3152.533	6754.8
3155.693	6886.8
3158.85	6933.8
3162.005	6986.8
3165.157	7108.8
3168.306	7158.8
3171.453	7046.8
3174.597	7320.8
3177.739	7228.8
3180.878	7174.8
3184.014	7157.8
3187.149	7205.8
3190.28	7240.8
3193.409	7093.8
3196.536	7149.8
3199.659	7131.8
3202.781	7154.8
3205.9	7237.8
3209.016	7236.8
3212.13	7190.8
3215.241	7103.8
3218.35	7174.8
3221.456	7246.8
3224.56	7317.8
3227.661	7301.8
3230.76	7440.8
3233.856	7378.8
3236.95	7302.8
3240.041	7294.8
3243.13	7168.8
3246.216	7165.8
3249.3	7045.8
3252.382	7070.8
3255.46	7093.8
3258.537	7309.8
3261.611	7013.8
3264.682	6843.8
3267.751	6759.8
3270.818	6832.8
3273.882	6686.8
3276.943	6611.8
3280.002	6565.8
3283.059	6542.8
3286.113	6488.8
3289.165	6551.8
3292.214	6508.8
3295.261	6372.8
3298.306	6404.8
3301.348	6292.8
3304.387	6164.8
3307.425	6055.8
3310.459	6087.8
3313.492	5842.8
3316.521	5790.8
3319.549	5713.8
3322.574	5656.8
3325.597	5551.8
3328.617	5515.8
3331.635	5335.8
3334.65	5539.8
3337.663	5484.8
3340.674	5410.8
3343.682	5289.8
3346.688	5299.8
3349.691	5319.8
3352.692	5400.8
3355.691	5124.8
3358.687	5296.8
3361.681	5240.8
3364.673	5175.8
3367.662	5186.8
3370.649	5011.8
3373.633	5147.8
3376.615	5099.8
3379.595	5187.8
3382.572	5127.8
3385.547	4906.8
3388.52	4961.8
3391.49	4855.8
3394.458	4865.8
3397.424	4696.8
3400.387	4808.8
3403.348	4418.8
3406.307	4469.8
3409.263	4518.8
3412.217	4345.8
3415.168	4296.8
3418.118	4296.8
3421.065	4246.8
3424.009	4107.8
3426.951	4144.8
3429.891	3894.8
3432.829	3991.8
3435.764	4024.8
3438.697	3994.8
3441.628	3783.8
3444.557	3874.8
3447.483	3809.8
3450.407	3568.8
3453.328	3627.8
3456.247	3575.8
3459.164	3539.8
3462.079	3366.8
3464.991	3268.8
3467.902	3206.8
3470.809	3126.8
3473.715	2998.8
3476.618	2939.8
3479.519	2865.8
3482.418	2926.8
3485.315	2735.8
3488.209	2577.8
3491.101	2608.8
3493.99	2644.8
3496.878	2214.8
3499.763	2313.8
3502.646	2286.8
3505.527	2308.8
3508.405	2185.8
3511.281	2165.8
3514.155	2087.8
3517.027	2056.8
3519.897	2120.8
3522.764	1894.8
3525.629	1948.8
3528.492	1863.8
3531.352	1843.8
3534.211	1680.8
3537.067	1735.8
3539.921	1569.8
3542.773	1523.8
3545.622	1421.8
3548.469	1482.8
3551.315	1389.8
3554.157	1304.8
3556.998	1175.8
3559.837	1137.8
3562.673	1022.8
3565.507	1159.8
3568.339	1054.8
3571.169	1068.8
3573.996	995.8
3576.822	941.8
3579.645	954.8
3582.466	891.8
3585.285	825.8
3588.101	806.8
3590.916	815.8
3593.728	708.8
3596.538	793.8
3599.346	679.8
3602.152	792.8
3604.956	667.8
3607.757	550.8
3610.556	702.8
3613.354	617.8
3616.149	551.8
3618.942	499.8
3621.732	324.8
3624.521	514.8
3627.307	457.8
3630.092	486.8
3632.874	331.8
3635.654	458.8
3638.432	486.8
3641.208	367.8
3643.982	458.8
3646.753	324.8
3649.523	411.8
3652.29	355.8
3655.055	283.8
3657.818	244.8
3660.579	343.8
3663.338	383.8
3666.095	183.8
3668.849	368.8
3671.602	231.8
3674.352	333.8
3677.101	193.8
3679.847	78.8
3682.591	225.8
3685.333	209.8
3688.073	144.8
3690.811	229.8
3693.547	194.8
3696.281	168.8
3699.013	92.8
3701.742	112.8
3704.47	214.8
3707.195	90.8
3709.919	78.8
3712.64	119.8
3715.359	0.8
3718.076	-143.2
3720.792	54.8
3723.505	76.8
3726.216	11.8
3728.925	61.8
3731.632	-129.2
3734.336	117.8
3737.039	-0.2
3739.74	52.8
3742.439	55.8
3745.136	21.8
3747.83	-35.2
3750.523	29.8
3753.213	-758.2
3755.902	2.8
3758.589	118.8
3761.273	67.8
3763.956	-102.2
3766.636	59.8
3769.315	-163.2
3771.991	130.8
3774.665	-123.2
3777.338	125.8
3780.008	10.8
3782.677	-176.2
3785.343	89.8
3788.007	-147.2
3790.67	-21.2
3793.33	-116.2
3795.989	-1.2
3798.645	-74.2
3801.299	96.8
3803.952	-45.2
3806.602	-48.2
3809.251	20.8
3811.897	-58.2
3814.542	29.8
3817.184	-13.2
3819.825	65.8
3822.463	-121.2
3825.1	-34.2
3827.735	9.8
3830.367	-35.2
3832.998	-189.2
3835.627	-94.2
3838.253	-93.2
3840.878	-37.2
3843.501	-141.2
3846.122	-111.2
3848.741	-150.2
3851.358	-37.2
3853.973	81.8
3856.586	-82.2
3859.197	-100.2
3861.806	-115.2
3864.414	24.8
3867.019	-77.2
3869.622	-148.2
3872.224	-206.2
3874.823	-37.2
3877.421	-2.2
3880.016	12.8
3882.61	97.8
3885.202	100.8
3887.792	39.8
3890.38	-76.2
3892.966	-34.2
3895.55	-77.2
3898.132	-42.2
3900.713	-119.2
3903.291	-73.2
3905.868	-132.2
3908.442	-86.2
3911.015	-94.2
3913.586	-68.2
3916.155	-92.2
3918.722	-45.2
3921.287	-77.2
3923.85	-143.2
3926.411	-105.2
3928.971	-125.2
3931.528	-50.2
3934.084	-114.2
3936.638	-78.2
3939.19	-139.2
3941.74	-124.2
3944.288	-151.2
3946.834	-57.2
3949.378	-105.2
3951.921	-28.2
3954.462	-94.2
3957	-122.2
3959.537	-37.2
3962.072	-11.2
3964.606	83.8
3967.137	-127.2
3969.667	-106.2
3972.194	-73.2
3974.72	-41.2
3977.244	-33.2
3979.766	-65.2
3982.286	31.8
3984.805	-91.2
3987.321	-178.2
3989.836	-100.2
3992.349	-56.2
3994.86	-64.2
3997.369	-31.2
3999.877	-130.2
4002.382	-122.2
4004.886	-84.2
4007.388	-66.2
4009.888	112.8
4012.386	-134.2
4014.883	-71.2
4017.377	-84.2
4019.87	-203.2
4022.361	-43.2
4024.85	-35.2
4027.338	-75.2
4029.823	-109.2
4032.307	-90.2
4034.789	2.8
4037.269	-13.2
4039.747	42.8
4042.224	-75.2
4044.699	-37.2
4047.172	-64.2
4049.643	-88.2
4052.112	32.8
4054.58	-73.2
4057.046	-87.2
4059.51	8.8
4061.972	-144.2
4064.432	52.8
4066.891	-149.2
4069.348	-36.2
4071.803	-136.2
4074.256	-111.2
4076.708	-68.2
4079.158	-128.2
4081.606	-168.2
4084.052	-98.2
4086.497	-76.2
4088.939	9.8
4091.38	-32.2
4093.819	-74.2
4096.257	-1105.2
4098.693	-1107.2
4101.127	-1146.2
4103.559	-1179.2
4105.989	86.8
4108.418	135.8
4110.845	322.8
4113.27	216.8
4115.694	249.8
4118.115	302.8
4120.535	-132.2
4122.954	-153.2
4125.37	-195.2
4127.785	-77.2
4130.198	-91.2
4132.609	-148.2
4135.019	-1197.2
4137.427	-1178.2
4139.833	-1124.2
4142.237	-1010.2
