Data from 2018-2-8_conc=4_RamanShift_19.txt Node
Date: Wed Feb 07 10:48:40 IST 2018
User: aro
Spectrometer: QEPB0276
Trigger mode: 0
Integration Time (sec): 3.000000E1
Scans to average: 1
Electric dark correction enabled: true
Nonlinearity correction enabled: false
Boxcar width: 0
XAxis mode: Raman Shifts
Number of Pixels in Spectrum: 1044
>>>>>Begin Spectral Data<<<<<
160.701	500.6
166.742	657.6
172.777	1146.6
178.805	2663.6
184.826	6037.6
190.841	11797.6
196.849	18917.6
202.85	24216.6
208.845	26084.6
214.833	25897.6
220.815	25518.6
226.789	24208.6
232.758	25212.6
238.719	25151.6
244.674	24909.6
250.623	24417.6
256.565	23962.6
262.5	23468.6
268.429	22837.6
274.351	22563.6
280.267	22398.6
286.176	21808.6
292.079	21557.6
297.975	21295.6
303.865	21041.6
309.748	20864.6
315.625	20634.6
321.495	20275.6
327.359	20282.6
333.217	20399.6
339.068	20270.6
344.912	20285.6
350.751	20233.6
356.583	20202.6
362.408	20246.6
368.227	20180.6
374.04	20391.6
379.847	20326.6
385.647	20449.6
391.44	20751.6
397.228	20682.6
403.009	20855.6
408.784	21004.6
414.553	21033.6
420.315	21193.6
426.071	21211.6
431.821	21145.6
437.565	21140.6
443.302	20852.6
449.033	20899.6
454.758	20778.6
460.477	20648.6
466.189	20540.6
471.896	20534.6
477.596	20383.6
483.29	20446.6
488.978	20351.6
494.66	20419.6
500.335	20415.6
506.005	20290.6
511.668	19984.6
517.325	19898.6
522.977	19784.6
528.622	19635.6
534.261	19484.6
539.894	19481.6
545.521	19389.6
551.141	19296.6
556.756	19036.6
562.365	18986.6
567.968	18870.6
573.565	18698.6
579.155	18529.6
584.74	18441.6
590.319	18321.6
595.892	18357.6
601.459	18241.6
607.02	18260.6
612.575	18223.6
618.124	18171.6
623.667	18245.6
629.204	18169.6
634.735	18258.6
640.261	18080.6
645.781	18199.6
651.294	17936.6
656.802	17700.6
662.304	17672.6
667.8	17403.6
673.29	17416.6
678.775	17328.6
684.254	17283.6
689.726	17442.6
695.193	17172.6
700.655	17175.6
706.11	17408.6
711.56	17232.6
717.004	17229.6
722.442	17505.6
727.874	17287.6
733.301	17231.6
738.722	17283.6
744.137	17140.6
749.547	16988.6
754.951	16929.6
760.349	16787.6
765.741	16596.6
771.128	16629.6
776.509	16619.6
781.885	16591.6
787.254	16640.6
792.618	16599.6
797.977	16703.6
803.33	16773.6
808.677	16800.6
814.019	16698.6
819.355	16800.6
824.686	16817.6
830.011	16768.6
835.33	16487.6
840.644	16286.6
845.952	16441.6
851.255	16069.6
856.552	16027.6
861.844	15974.6
867.13	15826.6
872.41	15752.6
877.686	15777.6
882.955	15865.6
888.219	15878.6
893.478	15998.6
898.731	15921.6
903.979	15802.6
909.221	15857.6
914.458	15714.6
919.69	15452.6
924.916	15431.6
930.136	15239.6
935.351	15151.6
940.561	14884.6
945.766	14801.6
950.965	14672.6
956.158	14799.6
961.347	14793.6
966.529	14840.6
971.707	14819.6
976.879	14769.6
982.046	14807.6
987.208	14915.6
992.364	14693.6
997.515	14675.6
1002.66	14477.6
1007.801	14612.6
1012.936	14517.6
1018.066	14596.6
1023.19	14343.6
1028.309	14288.6
1033.423	14409.6
1038.532	14421.6
1043.636	14720.6
1048.734	14627.6
1053.827	14726.6
1058.915	14763.6
1063.998	14518.6
1069.075	14413.6
1074.147	14243.6
1079.214	14202.6
1084.276	13929.6
1089.333	13878.6
1094.385	13808.6
1099.431	13948.6
1104.472	13769.6
1109.509	13915.6
1114.54	14039.6
1119.565	14084.6
1124.586	14019.6
1129.602	14067.6
1134.613	14017.6
1139.618	13930.6
1144.619	13647.6
1149.614	13484.6
1154.604	13386.6
1159.589	13276.6
1164.57	13046.6
1169.545	13070.6
1174.515	13163.6
1179.48	13347.6
1184.44	13348.6
1189.395	13418.6
1194.345	13507.6
1199.29	13543.6
1204.23	13572.6
1209.165	13539.6
1214.095	13394.6
1219.021	13265.6
1223.941	13242.6
1228.856	13234.6
1233.766	13228.6
1238.672	13124.6
1243.572	13115.6
1248.467	13150.6
1253.358	13312.6
1258.244	13282.6
1263.124	13152.6
1268	12985.6
1272.871	13020.6
1277.737	12957.6
1282.599	12789.6
1287.455	12656.6
1292.306	12370.6
1297.153	12517.6
1301.995	12296.6
1306.832	12220.6
1311.664	12257.6
1316.491	12287.6
1321.314	12186.6
1326.132	12204.6
1330.945	12129.6
1335.753	11981.6
1340.556	11903.6
1345.354	11808.6
1350.148	11510.6
1354.937	11362.6
1359.722	11344.6
1364.501	11108.6
1369.276	10932.6
1374.046	11017.6
1378.811	11108.6
1383.572	11274.6
1388.327	10986.6
1393.079	11401.6
1397.825	11457.6
1402.567	11447.6
1407.304	11364.6
1412.036	11462.6
1416.764	11242.6
1421.487	11554.6
1426.205	11211.6
1430.919	11053.6
1435.628	10887.6
1440.333	10778.6
1445.032	10673.6
1449.727	10654.6
1454.418	10725.6
1459.104	10663.6
1463.785	10511.6
1468.462	10527.6
1473.134	10487.6
1477.802	10342.6
1482.465	10445.6
1487.123	9968.6
1491.777	10135.6
1496.426	10064.6
1501.071	9888.6
1505.711	9930.6
1510.347	9946.6
1514.978	9963.6
1519.604	10153.6
1524.226	10187.6
1528.844	10518.6
1533.457	10307.6
1538.065	10480.6
1542.669	10529.6
1547.269	10672.6
1551.864	10657.6
1556.454	10724.6
1561.041	10558.6
1565.622	10643.6
1570.199	10395.6
1574.772	10365.6
1579.34	10099.6
1583.904	10248.6
1588.464	10285.6
1593.019	10245.6
1597.569	10488.6
1602.115	10441.6
1606.657	10547.6
1611.195	10501.6
1615.728	10558.6
1620.256	10640.6
1624.78	10801.6
1629.3	10721.6
1633.816	10520.6
1638.327	10475.6
1642.834	10457.6
1647.336	10285.6
1651.834	10261.6
1656.328	10324.6
1660.817	10194.6
1665.302	10288.6
1669.783	10327.6
1674.259	10073.6
1678.732	9810.6
1683.199	9629.6
1687.663	9450.6
1692.122	9107.6
1696.577	8811.6
1701.028	8938.6
1705.474	8658.6
1709.917	8698.6
1714.355	8746.6
1718.788	8590.6
1723.218	8483.6
1727.643	8245.6
1732.064	8085.6
1736.481	8128.6
1740.893	7912.6
1745.301	7792.6
1749.705	7880.6
1754.105	7431.6
1758.501	7404.6
1762.893	7205.6
1767.28	7139.6
1771.663	6852.6
1776.042	6718.6
1780.417	6652.6
1784.787	6473.6
1789.154	6510.6
1793.516	6499.6
1797.874	6613.6
1802.228	6824.6
1806.578	7010.6
1810.924	6832.6
1815.266	7816.6
1819.603	6886.6
1823.937	6898.6
1828.266	6775.6
1832.591	6744.6
1836.913	6690.6
1841.23	6669.6
1845.543	6658.6
1849.852	6511.6
1854.156	6499.6
1858.457	6406.6
1862.754	6123.6
1867.047	6268.6
1871.335	6195.6
1875.62	6103.6
1879.9	6077.6
1884.177	6260.6
1888.449	6148.6
1892.718	6156.6
1896.982	6020.6
1901.243	6195.6
1905.499	6158.6
1909.752	6135.6
1914	6205.6
1918.245	6021.6
1922.485	6011.6
1926.722	6103.6
1930.954	6110.6
1935.183	6161.6
1939.408	6083.6
1943.628	6120.6
1947.845	6138.6
1952.058	6255.6
1956.267	6176.6
1960.472	6063.6
1964.673	6113.6
1968.87	6200.6
1973.063	6160.6
1977.252	5969.6
1981.438	5954.6
1985.619	5853.6
1989.797	5874.6
1993.971	5787.6
1998.14	5662.6
2002.306	5630.6
2006.469	5593.6
2010.627	5565.6
2014.781	5600.6
2018.932	5561.6
2023.078	5386.6
2027.221	5396.6
2031.36	5513.6
2035.495	5456.6
2039.627	5412.6
2043.754	5364.6
2047.878	5265.6
2051.998	5237.6
2056.114	5318.6
2060.226	5253.6
2064.334	5139.6
2068.439	5110.6
2072.54	5109.6
2076.637	5197.6
2080.73	5190.6
2084.82	5110.6
2088.906	5195.6
2092.988	5145.6
2097.066	5374.6
2101.14	5175.6
2105.211	5293.6
2109.278	5220.6
2113.342	5290.6
2117.401	5270.6
2121.457	5265.6
2125.509	5283.6
2129.558	5041.6
2133.602	5137.6
2137.643	5061.6
2141.681	5010.6
2145.714	4979.6
2149.744	4893.6
2153.77	4872.6
2157.793	4901.6
2161.812	4929.6
2165.827	4868.6
2169.838	4622.6
2173.846	4772.6
2177.851	4666.6
2181.851	4613.6
2185.848	4825.6
2189.841	4501.6
2193.831	4624.6
2197.817	4348.6
2201.799	4449.6
2205.778	4443.6
2209.753	4438.6
2213.725	4286.6
2217.693	4340.6
2221.657	4342.6
2225.618	4230.6
2229.575	4276.6
2233.529	4200.6
2237.479	4272.6
2241.425	4204.6
2245.368	4292.6
2249.307	4202.6
2253.243	4126.6
2257.175	4193.6
2261.104	4068.6
2265.029	3969.6
2268.95	3974.6
2272.868	3886.6
2276.783	3842.6
2280.694	3770.6
2284.601	3716.6
2288.505	3733.6
2292.405	3587.6
2296.302	3716.6
2300.195	3536.6
2304.085	3736.6
2307.971	3567.6
2311.854	3582.6
2315.734	3476.6
2319.609	3516.6
2323.482	3673.6
2327.351	3506.6
2331.216	3475.6
2335.078	3507.6
2338.937	3516.6
2342.792	3472.6
2346.643	3404.6
2350.492	3440.6
2354.336	3384.6
2358.178	3293.6
2362.015	3326.6
2365.85	3484.6
2369.681	3445.6
2373.508	3403.6
2377.333	3239.6
2381.153	3421.6
2384.971	3365.6
2388.785	3377.6
2392.595	3402.6
2396.402	3472.6
2400.206	3526.6
2404.007	3454.6
2407.804	3364.6
2411.597	3200.6
2415.388	3346.6
2419.174	3214.6
2422.958	3293.6
2426.738	3194.6
2430.515	3116.6
2434.289	3256.6
2438.059	3207.6
2441.825	3246.6
2445.589	2966.6
2449.349	3190.6
2453.106	3005.6
2456.859	3021.6
2460.61	2969.6
2464.356	3068.6
2468.1	3003.6
2471.84	3047.6
2475.577	3054.6
2479.311	2881.6
2483.041	2855.6
2486.768	2775.6
2490.492	2609.6
2494.213	2888.6
2497.93	2930.6
2501.644	2930.6
2505.355	2931.6
2509.062	2777.6
2512.766	2863.6
2516.467	2812.6
2520.165	2833.6
2523.859	2910.6
2527.551	2684.6
2531.239	2766.6
2534.923	2750.6
2538.605	2816.6
2542.283	2781.6
2545.958	2771.6
2549.63	2736.6
2553.299	2655.6
2556.964	2710.6
2560.626	2773.6
2564.285	2590.6
2567.941	2723.6
2571.594	2692.6
2575.243	2608.6
2578.89	2748.6
2582.533	2731.6
2586.173	2692.6
2589.809	2623.6
2593.443	2820.6
2597.073	2651.6
2600.701	2568.6
2604.325	2603.6
2607.946	2592.6
2611.564	2530.6
2615.178	2464.6
2618.79	2500.6
2622.398	2583.6
2626.004	2536.6
2629.606	2408.6
2633.205	2657.6
2636.801	2508.6
2640.394	2495.6
2643.983	2464.6
2647.57	2435.6
2651.153	2345.6
2654.734	2231.6
2658.311	2500.6
2661.885	2329.6
2665.456	2306.6
2669.025	2325.6
2672.589	2250.6
2676.151	2104.6
2679.71	2067.6
2683.266	2179.6
2686.819	2200.6
2690.368	2078.6
2693.915	2150.6
2697.458	2149.6
2700.999	2003.6
2704.536	2052.6
2708.071	2031.6
2711.602	1972.6
2715.13	2009.6
2718.656	1987.6
2722.178	1907.6
2725.697	1985.6
2729.214	1680.6
2732.727	1807.6
2736.237	1799.6
2739.744	1795.6
2743.249	1919.6
2746.75	1912.6
2750.248	1966.6
2753.743	1975.6
2757.236	1896.6
2760.725	1913.6
2764.211	2061.6
2767.695	1900.6
2771.175	1943.6
2774.652	1886.6
2778.127	1885.6
2781.598	1889.6
2785.067	1918.6
2788.532	1914.6
2791.995	1944.6
2795.455	1900.6
2798.911	1906.6
2802.365	2018.6
2805.816	1806.6
2809.264	1880.6
2812.709	1951.6
2816.151	1912.6
2819.59	1991.6
2823.026	2005.6
2826.46	2029.6
2829.89	1986.6
2833.318	2194.6
2836.742	2025.6
2840.164	1987.6
2843.583	2107.6
2846.999	2035.6
2850.412	2062.6
2853.822	2190.6
2857.229	1978.6
2860.634	2097.6
2864.035	2142.6
2867.434	1985.6
2870.83	2127.6
2874.223	2164.6
2877.613	2082.6
2881	2259.6
2884.385	2304.6
2887.766	2303.6
2891.145	2250.6
2894.521	2375.6
2897.894	2376.6
2901.264	2077.6
2904.631	2383.6
2907.996	2322.6
2911.358	2286.6
2914.717	2360.6
2918.073	2296.6
2921.426	2301.6
2924.777	2436.6
2928.124	2435.6
2931.469	2321.6
2934.811	2617.6
2938.15	2446.6
2941.487	2493.6
2944.821	2196.6
2948.152	2556.6
2951.48	2549.6
2954.805	2500.6
2958.128	2429.6
2961.447	2524.6
2964.765	2433.6
2968.079	2564.6
2971.39	2519.6
2974.699	2570.6
2978.005	2555.6
2981.308	2551.6
2984.609	2728.6
2987.907	2629.6
2991.202	2660.6
2994.494	2770.6
2997.784	2405.6
3001.07	2743.6
3004.355	2732.6
3007.636	2832.6
3010.915	2942.6
3014.191	2878.6
3017.464	2985.6
3020.734	2876.6
3024.002	3071.6
3027.267	3054.6
3030.53	3107.6
3033.789	3138.6
3037.046	3204.6
3040.301	3249.6
3043.552	3328.6
3046.801	3456.6
3050.048	3251.6
3053.291	3263.6
3056.532	3455.6
3059.771	3605.6
3063.006	3597.6
3066.239	3630.6
3069.469	3770.6
3072.697	4029.6
3075.922	4028.6
3079.144	4034.6
3082.364	4159.6
3085.581	4385.6
3088.795	4220.6
3092.007	4452.6
3095.216	4679.6
3098.423	4815.6
3101.627	5010.6
3104.828	5032.6
3108.026	5179.6
3111.222	5185.6
3114.416	5185.6
3117.607	5349.6
3120.795	5453.6
3123.98	5540.6
3127.163	5758.6
3130.344	5822.6
3133.521	5879.6
3136.696	5890.6
3139.869	6079.6
3143.039	6171.6
3146.206	6171.6
3149.371	6336.6
3152.533	6493.6
3155.693	6598.6
3158.85	6667.6
3162.005	6724.6
3165.157	6900.6
3168.306	6892.6
3171.453	6775.6
3174.597	7063.6
3177.739	7104.6
3180.878	6897.6
3184.014	6901.6
3187.149	7051.6
3190.28	6822.6
3193.409	6896.6
3196.536	6857.6
3199.659	6882.6
3202.781	6848.6
3205.9	7029.6
3209.016	6851.6
3212.13	6938.6
3215.241	6790.6
3218.35	6916.6
3221.456	7073.6
3224.56	7054.6
3227.661	7043.6
3230.76	7141.6
3233.856	7004.6
3236.95	6869.6
3240.041	6996.6
3243.13	6783.6
3246.216	6839.6
3249.3	6697.6
3252.382	6694.6
3255.46	6816.6
3258.537	7078.6
3261.611	6734.6
3264.682	6542.6
3267.751	6442.6
3270.818	6601.6
3273.882	6413.6
3276.943	6338.6
3280.002	6276.6
3283.059	6317.6
3286.113	6289.6
3289.165	6323.6
3292.214	6242.6
3295.261	6061.6
3298.306	6132.6
3301.348	6070.6
3304.387	5934.6
3307.425	5858.6
3310.459	5892.6
3313.492	5666.6
3316.521	5630.6
3319.549	5514.6
3322.574	5512.6
3325.597	5370.6
3328.617	5380.6
3331.635	5316.6
3334.65	5336.6
3337.663	5266.6
3340.674	5251.6
3343.682	5117.6
3346.688	5097.6
3349.691	5127.6
3352.692	5202.6
3355.691	5052.6
3358.687	5033.6
3361.681	5011.6
3364.673	5043.6
3367.662	4977.6
3370.649	4833.6
3373.633	4976.6
3376.615	4867.6
3379.595	4973.6
3382.572	4947.6
3385.547	4764.6
3388.52	4864.6
3391.49	4670.6
3394.458	4700.6
3397.424	4552.6
3400.387	4591.6
3403.348	4283.6
3406.307	4390.6
3409.263	4349.6
3412.217	4210.6
3415.168	4304.6
3418.118	4175.6
3421.065	4185.6
3424.009	3953.6
3426.951	4056.6
3429.891	4039.6
3432.829	3910.6
3435.764	3891.6
3438.697	3856.6
3441.628	3545.6
3444.557	3742.6
3447.483	3691.6
3450.407	3449.6
3453.328	3378.6
3456.247	3503.6
3459.164	3459.6
3462.079	3265.6
3464.991	3162.6
3467.902	3110.6
3470.809	3057.6
3473.715	2975.6
3476.618	2848.6
3479.519	2789.6
3482.418	2900.6
3485.315	2707.6
3488.209	2610.6
3491.101	2552.6
3493.99	2590.6
3496.878	2240.6
3499.763	2291.6
3502.646	2211.6
3505.527	2334.6
3508.405	2185.6
3511.281	2089.6
3514.155	2070.6
3517.027	2073.6
3519.897	2173.6
3522.764	1927.6
3525.629	1957.6
3528.492	1831.6
3531.352	1746.6
3534.211	1656.6
3537.067	1788.6
3539.921	1646.6
3542.773	1510.6
3545.622	1524.6
3548.469	1574.6
3551.315	1506.6
3554.157	1397.6
3556.998	1291.6
3559.837	1197.6
3562.673	1126.6
3565.507	1270.6
3568.339	1066.6
3571.169	1147.6
3573.996	1078.6
3576.822	1127.6
3579.645	1075.6
3582.466	977.6
3585.285	954.6
3588.101	867.6
3590.916	947.6
3593.728	855.6
3596.538	932.6
3599.346	768.6
3602.152	909.6
3604.956	817.6
3607.757	618.6
3610.556	859.6
3613.354	707.6
3616.149	680.6
3618.942	639.6
3621.732	467.6
3624.521	691.6
3627.307	580.6
3630.092	539.6
3632.874	418.6
3635.654	539.6
3638.432	635.6
3641.208	510.6
3643.982	509.6
3646.753	411.6
3649.523	510.6
3652.29	506.6
3655.055	488.6
3657.818	374.6
3660.579	287.6
3663.338	516.6
3666.095	330.6
3668.849	502.6
3671.602	341.6
3674.352	465.6
3677.101	299.6
3679.847	183.6
3682.591	363.6
3685.333	326.6
3688.073	248.6
3690.811	315.6
3693.547	220.6
3696.281	270.6
3699.013	186.6
3701.742	253.6
3704.47	352.6
3707.195	222.6
3709.919	226.6
3712.64	216.6
3715.359	95.6
3718.076	-13.4
3720.792	178.6
3723.505	182.6
3726.216	140.6
3728.925	184.6
3731.632	61.6
3734.336	260.6
3737.039	116.6
3739.74	215.6
3742.439	489.6
3745.136	200.6
3747.83	132.6
3750.523	147.6
3753.213	-90.4
3755.902	124.6
3758.589	273.6
3761.273	227.6
3763.956	63.6
3766.636	232.6
3769.315	-32.4
3771.991	237.6
3774.665	89.6
3777.338	231.6
3780.008	214.6
3782.677	169.6
3785.343	198.6
3788.007	421.6
3790.67	107.6
3793.33	68.6
3795.989	123.6
3798.645	62.6
3801.299	271.6
3803.952	106.6
3806.602	82.6
3809.251	107.6
3811.897	111.6
3814.542	110.6
3817.184	114.6
3819.825	195.6
3822.463	22.6
3825.1	95.6
3827.735	136.6
3830.367	67.6
3832.998	-27.4
3835.627	24.6
3838.253	47.6
3840.878	-52.4
3843.501	-46.4
3846.122	18.6
3848.741	-56.4
3851.358	60.6
3853.973	241.6
3856.586	96.6
3859.197	22.6
3861.806	91.6
3864.414	190.6
3867.019	108.6
3869.622	33.6
3872.224	-56.4
3874.823	160.6
3877.421	108.6
3880.016	207.6
3882.61	240.6
3885.202	213.6
3887.792	211.6
3890.38	28.6
3892.966	164.6
3895.55	136.6
3898.132	127.6
3900.713	-14.4
3903.291	100.6
3905.868	161.6
3908.442	73.6
3911.015	-16.4
3913.586	69.6
3916.155	36.6
3918.722	64.6
3921.287	93.6
3923.85	-135.4
3926.411	1.6
3928.971	6.6
3931.528	83.6
3934.084	14.6
3936.638	99.6
3939.19	7.6
3941.74	22.6
3944.288	26.6
3946.834	19.6
3949.378	60.6
3951.921	156.6
3954.462	26.6
3957	48.6
3959.537	62.6
3962.072	160.6
3964.606	237.6
3967.137	32.6
3969.667	65.6
3972.194	92.6
3974.72	92.6
3977.244	163.6
3979.766	129.6
3982.286	176.6
3984.805	62.6
3987.321	-47.4
3989.836	45.6
3992.349	128.6
3994.86	82.6
3997.369	68.6
3999.877	11.6
4002.382	72.6
4004.886	139.6
4007.388	89.6
4009.888	226.6
4012.386	40.6
4014.883	102.6
4017.377	33.6
4019.87	-60.4
4022.361	73.6
4024.85	195.6
4027.338	25.6
4029.823	7.6
4032.307	81.6
4034.789	150.6
4037.269	99.6
4039.747	118.6
4042.224	55.6
4044.699	125.6
4047.172	46.6
4049.643	3.6
4052.112	131.6
4054.58	79.6
4057.046	54.6
4059.51	135.6
4061.972	36.6
4064.432	210.6
4066.891	-5.4
4069.348	107.6
4071.803	59.6
4074.256	-2.4
4076.708	105.6
4079.158	119.6
4081.606	-20.4
4084.052	108.6
4086.497	21.6
4088.939	124.6
4091.38	71.6
4093.819	36.6
4096.257	-1245.4
4098.693	-1216.4
4101.127	-1275.4
4103.559	-1327.4
4105.989	249.6
4108.418	248.6
4110.845	414.6
4113.27	315.6
4115.694	451.6
4118.115	468.6
4120.535	1.6
4122.954	-35.4
4125.37	-60.4
4127.785	96.6
4130.198	25.6
4132.609	31.6
4135.019	-1333.4
4137.427	-1302.4
4139.833	-1257.4
4142.237	-1075.4
