Data from 100000000CFU2_A_ramanshift_RamanShift_12-04-02-614.txt Node
Date: Sun Jan 01 12:04:02 IST 2017
User: aro
Spectrometer: QEPB0276
Trigger mode: 0
Integration Time (sec): 5.000000E0
Scans to average: 1
Electric dark correction enabled: true
Nonlinearity correction enabled: false
Boxcar width: 0
XAxis mode: Raman Shifts
Number of Pixels in Spectrum: 1044
>>>>>Begin Spectral Data<<<<<
160.701	8.12
166.742	15.12
172.777	43.12
178.805	138.12
184.826	409.12
190.841	1008.12
196.849	1871.12
202.85	2721.12
208.845	3164.12
214.833	3190.12
220.815	3067.12
226.789	2948.12
232.758	2885.12
238.719	2804.12
244.674	2720.12
250.623	2606.12
256.565	2494.12
262.5	2375.12
268.429	2267.12
274.351	2187.12
280.267	2100.12
286.176	2020.12
292.079	1979.12
297.975	1886.12
303.865	1834.12
309.748	1774.12
315.625	1741.12
321.495	1711.12
327.359	1683.12
333.217	1668.12
339.068	1646.12
344.912	1640.12
350.751	1615.12
356.583	1608.12
362.408	1608.12
368.227	1612.12
374.04	1626.12
379.847	1638.12
385.647	1631.12
391.44	1645.12
397.228	1645.12
403.009	1660.12
408.784	1671.12
414.553	1663.12
420.315	1669.12
426.071	1672.12
431.821	1669.12
437.565	1675.12
443.302	1662.12
449.033	1668.12
454.758	1668.12
460.477	1647.12
466.189	1668.12
471.896	1623.12
477.596	1613.12
483.29	1619.12
488.978	1611.12
494.66	1605.12
500.335	1589.12
506.005	1546.12
511.668	1527.12
517.325	1494.12
522.977	1482.12
528.622	1456.12
534.261	1421.12
539.894	1416.12
545.521	1402.12
551.141	1386.12
556.756	1373.12
562.365	1371.12
567.968	1366.12
573.565	1357.12
579.155	1347.12
584.74	1331.12
590.319	1330.12
595.892	1315.12
601.459	1315.12
607.02	1320.12
612.575	1281.12
618.124	1281.12
623.667	1256.12
629.204	1250.12
634.735	1252.12
640.261	1228.12
645.781	1234.12
651.294	1222.12
656.802	1201.12
662.304	1206.12
667.8	1204.12
673.29	1204.12
678.775	1186.12
684.254	1185.12
689.726	1182.12
695.193	1181.12
700.655	1170.12
706.11	1170.12
711.56	1152.12
717.004	1140.12
722.442	1141.12
727.874	1136.12
733.301	1119.12
738.722	1112.12
744.137	1095.12
749.547	1104.12
754.951	1100.12
760.349	1095.12
765.741	1095.12
771.128	1111.12
776.509	1110.12
781.885	1102.12
787.254	1093.12
792.618	1102.12
797.977	1110.12
803.33	1086.12
808.677	1081.12
814.019	1050.12
819.355	1055.12
824.686	1045.12
830.011	1043.12
835.33	1023.12
840.644	1019.12
845.952	1013.12
851.255	1007.12
856.552	1004.12
861.844	1008.12
867.13	995.12
872.41	992.12
877.686	996.12
882.955	1017.12
888.219	1003.12
893.478	982.12
898.731	952.12
903.979	930.12
909.221	911.12
914.458	904.12
919.69	892.12
924.916	883.12
930.136	885.12
935.351	885.12
940.561	893.12
945.766	886.12
950.965	875.12
956.158	866.12
961.347	870.12
966.529	854.12
971.707	844.12
976.879	816.12
982.046	818.12
987.208	824.12
992.364	809.12
997.515	810.12
1002.66	815.12
1007.801	830.12
1012.936	825.12
1018.066	837.12
1023.19	836.12
1028.309	856.12
1033.423	842.12
1038.532	834.12
1043.636	849.12
1048.734	845.12
1053.827	830.12
1058.915	821.12
1063.998	819.12
1069.075	815.12
1074.147	805.12
1079.214	799.12
1084.276	825.12
1089.333	820.12
1094.385	843.12
1099.431	839.12
1104.472	832.12
1109.509	827.12
1114.54	825.12
1119.565	819.12
1124.586	807.12
1129.602	796.12
1134.613	786.12
1139.618	787.12
1144.619	771.12
1149.614	776.12
1154.604	786.12
1159.589	800.12
1164.57	792.12
1169.545	793.12
1174.515	798.12
1179.48	785.12
1184.44	797.12
1189.395	781.12
1194.345	779.12
1199.29	770.12
1204.23	767.12
1209.165	774.12
1214.095	782.12
1219.021	773.12
1223.941	790.12
1228.856	798.12
1233.766	798.12
1238.672	803.12
1243.572	795.12
1248.467	802.12
1253.358	791.12
1258.244	788.12
1263.124	772.12
1268	749.12
1272.871	768.12
1277.737	747.12
1282.599	751.12
1287.455	737.12
1292.306	742.12
1297.153	749.12
1301.995	747.12
1306.832	751.12
1311.664	757.12
1316.491	758.12
1321.314	770.12
1326.132	749.12
1330.945	762.12
1335.753	742.12
1340.556	736.12
1345.354	722.12
1350.148	712.12
1354.937	714.12
1359.722	712.12
1364.501	716.12
1369.276	701.12
1374.046	695.12
1378.811	698.12
1383.572	698.12
1388.327	707.12
1393.079	692.12
1397.825	687.12
1402.567	675.12
1407.304	682.12
1412.036	677.12
1416.764	671.12
1421.487	667.12
1426.205	683.12
1430.919	673.12
1435.628	686.12
1440.333	697.12
1445.032	689.12
1449.727	709.12
1454.418	715.12
1459.104	715.12
1463.785	709.12
1468.462	707.12
1473.134	699.12
1477.802	688.12
1482.465	685.12
1487.123	682.12
1491.777	673.12
1496.426	675.12
1501.071	680.12
1505.711	679.12
1510.347	697.12
1514.978	707.12
1519.604	703.12
1524.226	711.12
1528.844	704.12
1533.457	709.12
1538.065	726.12
1542.669	706.12
1547.269	704.12
1551.864	717.12
1556.454	715.12
1561.041	726.12
1565.622	726.12
1570.199	736.12
1574.772	742.12
1579.34	763.12
1583.904	783.12
1588.464	785.12
1593.019	795.12
1597.569	814.12
1602.115	824.12
1606.657	832.12
1611.195	844.12
1615.728	844.12
1620.256	851.12
1624.78	871.12
1629.3	887.12
1633.816	895.12
1638.327	895.12
1642.834	908.12
1647.336	926.12
1651.834	926.12
1656.328	922.12
1660.817	919.12
1665.302	911.12
1669.783	891.12
1674.259	859.12
1678.732	858.12
1683.199	818.12
1687.663	797.12
1692.122	761.12
1696.577	741.12
1701.028	709.12
1705.474	686.12
1709.917	656.12
1714.355	642.12
1718.788	626.12
1723.218	612.12
1727.643	607.12
1732.064	597.12
1736.481	573.12
1740.893	568.12
1745.301	553.12
1749.705	540.12
1754.105	508.12
1758.501	506.12
1762.893	499.12
1767.28	483.12
1771.663	494.12
1776.042	477.12
1780.417	475.12
1784.787	475.12
1789.154	476.12
1793.516	476.12
1797.874	480.12
1802.228	475.12
1806.578	465.12
1810.924	454.12
1815.266	456.12
1819.603	449.12
1823.937	456.12
1828.266	452.12
1832.591	431.12
1836.913	435.12
1841.23	427.12
1845.543	435.12
1849.852	428.12
1854.156	434.12
1858.457	432.12
1862.754	432.12
1867.047	437.12
1871.335	431.12
1875.62	435.12
1879.9	443.12
1884.177	443.12
1888.449	435.12
1892.718	436.12
1896.982	440.12
1901.243	432.12
1905.499	431.12
1909.752	436.12
1914	422.12
1918.245	423.12
1922.485	430.12
1926.722	437.12
1930.954	429.12
1935.183	430.12
1939.408	432.12
1943.628	443.12
1947.845	439.12
1952.058	428.12
1956.267	434.12
1960.472	438.12
1964.673	426.12
1968.87	422.12
1973.063	415.12
1977.252	423.12
1981.438	406.12
1985.619	416.12
1989.797	403.12
1993.971	419.12
1998.14	416.12
2002.306	425.12
2006.469	427.12
2010.627	422.12
2014.781	426.12
2018.932	422.12
2023.078	429.12
2027.221	428.12
2031.36	410.12
2035.495	416.12
2039.627	414.12
2043.754	420.12
2047.878	414.12
2051.998	417.12
2056.114	409.12
2060.226	410.12
2064.334	416.12
2068.439	420.12
2072.54	415.12
2076.637	420.12
2080.73	417.12
2084.82	426.12
2088.906	425.12
2092.988	422.12
2097.066	421.12
2101.14	423.12
2105.211	412.12
2109.278	411.12
2113.342	407.12
2117.401	414.12
2121.457	415.12
2125.509	411.12
2129.558	405.12
2133.602	394.12
2137.643	403.12
2141.681	403.12
2145.714	398.12
2149.744	399.12
2153.77	395.12
2157.793	394.12
2161.812	391.12
2165.827	385.12
2169.838	381.12
2173.846	374.12
2177.851	371.12
2181.851	363.12
2185.848	358.12
2189.841	358.12
2193.831	349.12
2197.817	352.12
2201.799	349.12
2205.778	348.12
2209.753	350.12
2213.725	349.12
2217.693	342.12
2221.657	350.12
2225.618	346.12
2229.575	342.12
2233.529	343.12
2237.479	335.12
2241.425	335.12
2245.368	329.12
2249.307	324.12
2253.243	323.12
2257.175	319.12
2261.104	311.12
2265.029	305.12
2268.95	306.12
2272.868	305.12
2276.783	299.12
2280.694	296.12
2284.601	295.12
2288.505	297.12
2292.405	293.12
2296.302	277.12
2300.195	282.12
2304.085	283.12
2307.971	274.12
2311.854	266.12
2315.734	271.12
2319.609	261.12
2323.482	263.12
2327.351	259.12
2331.216	259.12
2335.078	247.12
2338.937	250.12
2342.792	247.12
2346.643	249.12
2350.492	238.12
2354.336	245.12
2358.178	238.12
2362.015	238.12
2365.85	242.12
2369.681	242.12
2373.508	251.12
2377.333	247.12
2381.153	248.12
2384.971	251.12
2388.785	255.12
2392.595	239.12
2396.402	236.12
2400.206	237.12
2404.007	237.12
2407.804	239.12
2411.597	236.12
2415.388	236.12
2419.174	242.12
2422.958	229.12
2426.738	231.12
2430.515	229.12
2434.289	229.12
2438.059	233.12
2441.825	230.12
2445.589	228.12
2449.349	226.12
2453.106	229.12
2456.859	225.12
2460.61	223.12
2464.356	214.12
2468.1	210.12
2471.84	216.12
2475.577	218.12
2479.311	211.12
2483.041	210.12
2486.768	211.12
2490.492	220.12
2494.213	207.12
2497.93	218.12
2501.644	207.12
2505.355	227.12
2509.062	213.12
2512.766	218.12
2516.467	217.12
2520.165	213.12
2523.859	209.12
2527.551	205.12
2531.239	211.12
2534.923	204.12
2538.605	199.12
2542.283	205.12
2545.958	202.12
2549.63	209.12
2553.299	199.12
2556.964	199.12
2560.626	196.12
2564.285	195.12
2567.941	190.12
2571.594	191.12
2575.243	191.12
2578.89	186.12
2582.533	185.12
2586.173	196.12
2589.809	184.12
2593.443	186.12
2597.073	187.12
2600.701	177.12
2604.325	174.12
2607.946	174.12
2611.564	185.12
2615.178	177.12
2618.79	179.12
2622.398	180.12
2626.004	173.12
2629.606	184.12
2633.205	181.12
2636.801	170.12
2640.394	180.12
2643.983	172.12
2647.57	176.12
2651.153	169.12
2654.734	157.12
2658.311	162.12
2661.885	166.12
2665.456	166.12
2669.025	154.12
2672.589	163.12
2676.151	159.12
2679.71	161.12
2683.266	162.12
2686.819	154.12
2690.368	153.12
2693.915	155.12
2697.458	154.12
2700.999	149.12
2704.536	146.12
2708.071	152.12
2711.602	151.12
2715.13	144.12
2718.656	148.12
2722.178	145.12
2725.697	147.12
2729.214	147.12
2732.727	151.12
2736.237	152.12
2739.744	152.12
2743.249	149.12
2746.75	152.12
2750.248	142.12
2753.743	157.12
2757.236	153.12
2760.725	151.12
2764.211	153.12
2767.695	150.12
2771.175	148.12
2774.652	136.12
2778.127	145.12
2781.598	142.12
2785.067	146.12
2788.532	146.12
2791.995	139.12
2795.455	150.12
2798.911	141.12
2802.365	143.12
2805.816	150.12
2809.264	145.12
2812.709	151.12
2816.151	148.12
2819.59	148.12
2823.026	154.12
2826.46	148.12
2829.89	155.12
2833.318	153.12
2836.742	157.12
2840.164	154.12
2843.583	155.12
2846.999	161.12
2850.412	164.12
2853.822	163.12
2857.229	160.12
2860.634	162.12
2864.035	172.12
2867.434	175.12
2870.83	170.12
2874.223	168.12
2877.613	178.12
2881	176.12
2884.385	180.12
2887.766	181.12
2891.145	181.12
2894.521	176.12
2897.894	181.12
2901.264	184.12
2904.631	178.12
2907.996	186.12
2911.358	191.12
2914.717	198.12
2918.073	198.12
2921.426	194.12
2924.777	201.12
2928.124	207.12
2931.469	205.12
2934.811	217.12
2938.15	221.12
2941.487	228.12
2944.821	227.12
2948.152	228.12
2951.48	228.12
2954.805	235.12
2958.128	232.12
2961.447	234.12
2964.765	229.12
2968.079	245.12
2971.39	236.12
2974.699	252.12
2978.005	253.12
2981.308	257.12
2984.609	261.12
2987.907	265.12
2991.202	264.12
2994.494	273.12
2997.784	287.12
3001.07	298.12
3004.355	303.12
3007.636	306.12
3010.915	317.12
3014.191	319.12
3017.464	332.12
3020.734	323.12
3024.002	331.12
3027.267	342.12
3030.53	352.12
3033.789	357.12
3037.046	362.12
3040.301	371.12
3043.552	375.12
3046.801	385.12
3050.048	387.12
3053.291	395.12
3056.532	408.12
3059.771	429.12
3063.006	435.12
3066.239	440.12
3069.469	465.12
3072.697	478.12
3075.922	479.12
3079.144	496.12
3082.364	498.12
3085.581	520.12
3088.795	535.12
3092.007	555.12
3095.216	555.12
3098.423	577.12
3101.627	577.12
3104.828	591.12
3108.026	611.12
3111.222	605.12
3114.416	644.12
3117.607	653.12
3120.795	669.12
3123.98	678.12
3127.163	697.12
3130.344	718.12
3133.521	723.12
3136.696	744.12
3139.869	752.12
3143.039	764.12
3146.206	777.12
3149.371	798.12
3152.533	806.12
3155.693	809.12
3158.85	822.12
3162.005	824.12
3165.157	826.12
3168.306	832.12
3171.453	839.12
3174.597	830.12
3177.739	837.12
3180.878	838.12
3184.014	850.12
3187.149	840.12
3190.28	846.12
3193.409	857.12
3196.536	858.12
3199.659	860.12
3202.781	871.12
3205.9	879.12
3209.016	854.12
3212.13	864.12
3215.241	863.12
3218.35	857.12
3221.456	858.12
3224.56	844.12
3227.661	841.12
3230.76	838.12
3233.856	821.12
3236.95	820.12
3240.041	803.12
3243.13	806.12
3246.216	779.12
3249.3	791.12
3252.382	795.12
3255.46	779.12
3258.537	794.12
3261.611	780.12
3264.682	777.12
3267.751	776.12
3270.818	775.12
3273.882	782.12
3276.943	762.12
3280.002	760.12
3283.059	758.12
3286.113	755.12
3289.165	743.12
3292.214	731.12
3295.261	731.12
3298.306	713.12
3301.348	705.12
3304.387	684.12
3307.425	671.12
3310.459	670.12
3313.492	668.12
3316.521	645.12
3319.549	643.12
3322.574	641.12
3325.597	637.12
3328.617	630.12
3331.635	625.12
3334.65	625.12
3337.663	620.12
3340.674	622.12
3343.682	616.12
3346.688	613.12
3349.691	619.12
3352.692	616.12
3355.691	604.12
3358.687	609.12
3361.681	592.12
3364.673	592.12
3367.662	587.12
3370.649	573.12
3373.633	570.12
3376.615	570.12
3379.595	566.12
3382.572	554.12
3385.547	546.12
3388.52	539.12
3391.49	538.12
3394.458	531.12
3397.424	526.12
3400.387	519.12
3403.348	501.12
3406.307	496.12
3409.263	502.12
3412.217	491.12
3415.168	477.12
3418.118	484.12
3421.065	477.12
3424.009	467.12
3426.951	474.12
3429.891	451.12
3432.829	447.12
3435.764	447.12
3438.697	444.12
3441.628	424.12
3444.557	410.12
3447.483	401.12
3450.407	394.12
3453.328	392.12
3456.247	381.12
3459.164	359.12
3462.079	360.12
3464.991	342.12
3467.902	340.12
3470.809	331.12
3473.715	318.12
3476.618	309.12
3479.519	306.12
3482.418	296.12
3485.315	287.12
3488.209	277.12
3491.101	265.12
3493.99	265.12
3496.878	252.12
3499.763	249.12
3502.646	240.12
3505.527	239.12
3508.405	229.12
3511.281	217.12
3514.155	214.12
3517.027	205.12
3519.897	202.12
3522.764	189.12
3525.629	181.12
3528.492	172.12
3531.352	162.12
3534.211	163.12
3537.067	148.12
3539.921	148.12
3542.773	131.12
3545.622	131.12
3548.469	120.12
3551.315	116.12
3554.157	109.12
3556.998	113.12
3559.837	105.12
3562.673	95.12
3565.507	93.12
3568.339	94.12
3571.169	81.12
3573.996	83.12
3576.822	85.12
3579.645	75.12
3582.466	75.12
3585.285	71.12
3588.101	57.12
3590.916	56.12
3593.728	50.12
3596.538	48.12
3599.346	45.12
3602.152	44.12
3604.956	41.12
3607.757	28.12
3610.556	31.12
3613.354	27.12
3616.149	29.12
3618.942	22.12
3621.732	23.12
3624.521	18.12
3627.307	16.12
3630.092	18.12
3632.874	7.12
3635.654	7.12
3638.432	8.12
3641.208	5.12
3643.982	2.12
3646.753	4.12
3649.523	-0.88
3652.29	2.12
3655.055	-1.88
3657.818	-5.88
3660.579	-6.88
3663.338	-7.88
3666.095	-4.88
3668.849	-8.88
3671.602	-13.88
3674.352	-19.88
3677.101	-15.88
3679.847	-18.88
3682.591	-19.88
3685.333	-22.88
3688.073	-22.88
3690.811	-21.88
3693.547	-22.88
3696.281	-26.88
3699.013	-24.88
3701.742	-28.88
3704.47	-28.88
3707.195	-25.88
3709.919	-29.88
3712.64	-29.88
3715.359	-31.88
3718.076	-27.88
3720.792	-34.88
3723.505	-32.88
3726.216	-31.88
3728.925	-32.88
3731.632	-31.88
3734.336	-30.88
3737.039	-35.88
3739.74	-34.88
3742.439	-32.88
3745.136	-30.88
3747.83	-32.88
3750.523	-34.88
3753.213	-31.88
3755.902	-33.88
3758.589	-37.88
3761.273	-40.88
3763.956	-34.88
3766.636	-37.88
3769.315	-37.88
3771.991	-38.88
3774.665	-39.88
3777.338	-40.88
3780.008	-42.88
3782.677	-42.88
3785.343	-40.88
3788.007	-38.88
3790.67	-43.88
3793.33	-43.88
3795.989	-40.88
3798.645	-44.88
3801.299	-45.88
3803.952	-44.88
3806.602	-44.88
3809.251	-47.88
3811.897	-43.88
3814.542	-48.88
3817.184	-43.88
3819.825	-40.88
3822.463	-41.88
3825.1	-45.88
3827.735	-40.88
3830.367	-41.88
3832.998	-48.88
3835.627	-45.88
3838.253	-39.88
3840.878	-47.88
3843.501	-44.88
3846.122	-43.88
3848.741	-47.88
3851.358	-48.88
3853.973	-45.88
3856.586	-46.88
3859.197	-49.88
3861.806	-47.88
3864.414	-47.88
3867.019	-47.88
3869.622	-49.88
3872.224	-48.88
3874.823	-46.88
3877.421	-48.88
3880.016	-44.88
3882.61	-42.88
3885.202	-40.88
3887.792	-36.88
3890.38	-42.88
3892.966	-42.88
3895.55	-45.88
3898.132	-46.88
3900.713	-49.88
3903.291	-48.88
3905.868	-45.88
3908.442	-43.88
3911.015	-45.88
3913.586	-43.88
3916.155	-46.88
3918.722	-45.88
3921.287	-43.88
3923.85	-47.88
3926.411	-46.88
3928.971	-47.88
3931.528	-46.88
3934.084	-47.88
3936.638	-51.88
3939.19	-49.88
3941.74	-46.88
3944.288	-48.88
3946.834	-48.88
3949.378	-56.88
3951.921	-46.88
3954.462	-49.88
3957	-47.88
3959.537	-50.88
3962.072	-52.88
3964.606	-46.88
3967.137	-47.88
3969.667	-50.88
3972.194	-47.88
3974.72	-45.88
3977.244	-48.88
3979.766	-46.88
3982.286	-46.88
3984.805	-49.88
3987.321	-47.88
3989.836	-47.88
3992.349	-47.88
3994.86	-47.88
3997.369	-50.88
3999.877	-48.88
4002.382	-48.88
4004.886	-44.88
4007.388	-50.88
4009.888	-51.88
4012.386	-46.88
4014.883	-49.88
4017.377	-50.88
4019.87	-49.88
4022.361	-50.88
4024.85	-53.88
4027.338	-49.88
4029.823	-49.88
4032.307	-50.88
4034.789	-49.88
4037.269	-51.88
4039.747	-48.88
4042.224	-50.88
4044.699	-50.88
4047.172	-48.88
4049.643	-45.88
4052.112	-47.88
4054.58	-46.88
4057.046	-44.88
4059.51	-46.88
4061.972	-46.88
4064.432	-46.88
4066.891	-43.88
4069.348	-47.88
4071.803	-48.88
4074.256	-48.88
4076.708	-49.88
4079.158	-47.88
4081.606	-47.88
4084.052	-46.88
4086.497	-48.88
4088.939	-48.88
4091.38	-49.88
4093.819	-48.88
4096.257	-52.88
4098.693	-51.88
4101.127	-52.88
4103.559	-51.88
4105.989	-13.88
4108.418	-11.88
4110.845	-10.88
4113.27	-10.88
4115.694	-7.88
4118.115	-0.88
4120.535	-50.88
4122.954	-47.88
4125.37	-48.88
4127.785	-48.88
4130.198	-47.88
4132.609	-46.88
4135.019	-52.88
4137.427	-50.88
4139.833	-50.88
4142.237	-49.88
