Data from 1000000CFU2_A_ramanshift_RamanShift_11-56-17-658.txt Node
Date: Sun Jan 01 11:56:17 IST 2017
User: aro
Spectrometer: QEPB0276
Trigger mode: 0
Integration Time (sec): 5.000000E0
Scans to average: 1
Electric dark correction enabled: true
Nonlinearity correction enabled: false
Boxcar width: 0
XAxis mode: Raman Shifts
Number of Pixels in Spectrum: 1044
>>>>>Begin Spectral Data<<<<<
160.701	7.5
166.742	19.5
172.777	58.5
178.805	187.5
184.826	552.5
190.841	1359.5
196.849	2531.5
202.85	3687.5
208.845	4288.5
214.833	4332.5
220.815	4143.5
226.789	4021.5
232.758	3905.5
238.719	3803.5
244.674	3682.5
250.623	3540.5
256.565	3409.5
262.5	3270.5
268.429	3107.5
274.351	2981.5
280.267	2871.5
286.176	2769.5
292.079	2696.5
297.975	2602.5
303.865	2534.5
309.748	2463.5
315.625	2381.5
321.495	2332.5
327.359	2307.5
333.217	2277.5
339.068	2247.5
344.912	2230.5
350.751	2216.5
356.583	2218.5
362.408	2203.5
368.227	2202.5
374.04	2186.5
379.847	2200.5
385.647	2199.5
391.44	2241.5
397.228	2232.5
403.009	2229.5
408.784	2244.5
414.553	2271.5
420.315	2278.5
426.071	2270.5
431.821	2272.5
437.565	2260.5
443.302	2256.5
449.033	2252.5
454.758	2242.5
460.477	2227.5
466.189	2225.5
471.896	2229.5
477.596	2228.5
483.29	2185.5
488.978	2201.5
494.66	2183.5
500.335	2183.5
506.005	2142.5
511.668	2108.5
517.325	2063.5
522.977	2044.5
528.622	2004.5
534.261	1982.5
539.894	1981.5
545.521	1958.5
551.141	1953.5
556.756	1922.5
562.365	1939.5
567.968	1903.5
573.565	1890.5
579.155	1894.5
584.74	1870.5
590.319	1862.5
595.892	1866.5
601.459	1854.5
607.02	1822.5
612.575	1807.5
618.124	1790.5
623.667	1772.5
629.204	1768.5
634.735	1760.5
640.261	1738.5
645.781	1737.5
651.294	1725.5
656.802	1725.5
662.304	1705.5
667.8	1713.5
673.29	1694.5
678.775	1696.5
684.254	1681.5
689.726	1678.5
695.193	1674.5
700.655	1661.5
706.11	1655.5
711.56	1646.5
717.004	1617.5
722.442	1619.5
727.874	1608.5
733.301	1603.5
738.722	1586.5
744.137	1598.5
749.547	1570.5
754.951	1587.5
760.349	1553.5
765.741	1577.5
771.128	1567.5
776.509	1571.5
781.885	1574.5
787.254	1569.5
792.618	1571.5
797.977	1573.5
803.33	1533.5
808.677	1531.5
814.019	1515.5
819.355	1513.5
824.686	1497.5
830.011	1474.5
835.33	1470.5
840.644	1456.5
845.952	1471.5
851.255	1449.5
856.552	1442.5
861.844	1444.5
867.13	1433.5
872.41	1415.5
877.686	1427.5
882.955	1400.5
888.219	1393.5
893.478	1377.5
898.731	1362.5
903.979	1323.5
909.221	1293.5
914.458	1312.5
919.69	1311.5
924.916	1304.5
930.136	1305.5
935.351	1295.5
940.561	1282.5
945.766	1304.5
950.965	1272.5
956.158	1286.5
961.347	1290.5
966.529	1257.5
971.707	1247.5
976.879	1215.5
982.046	1207.5
987.208	1209.5
992.364	1192.5
997.515	1208.5
1002.66	1201.5
1007.801	1217.5
1012.936	1237.5
1018.066	1242.5
1023.19	1246.5
1028.309	1242.5
1033.423	1250.5
1038.532	1237.5
1043.636	1250.5
1048.734	1215.5
1053.827	1219.5
1058.915	1204.5
1063.998	1182.5
1069.075	1180.5
1074.147	1198.5
1079.214	1185.5
1084.276	1194.5
1089.333	1215.5
1094.385	1212.5
1099.431	1223.5
1104.472	1229.5
1109.509	1238.5
1114.54	1220.5
1119.565	1213.5
1124.586	1192.5
1129.602	1188.5
1134.613	1176.5
1139.618	1172.5
1144.619	1160.5
1149.614	1166.5
1154.604	1173.5
1159.589	1174.5
1164.57	1188.5
1169.545	1200.5
1174.515	1186.5
1179.48	1184.5
1184.44	1184.5
1189.395	1181.5
1194.345	1162.5
1199.29	1161.5
1204.23	1169.5
1209.165	1169.5
1214.095	1184.5
1219.021	1179.5
1223.941	1187.5
1228.856	1200.5
1233.766	1200.5
1238.672	1210.5
1243.572	1211.5
1248.467	1214.5
1253.358	1209.5
1258.244	1181.5
1263.124	1173.5
1268	1155.5
1272.871	1126.5
1277.737	1132.5
1282.599	1125.5
1287.455	1118.5
1292.306	1123.5
1297.153	1135.5
1301.995	1139.5
1306.832	1146.5
1311.664	1132.5
1316.491	1144.5
1321.314	1150.5
1326.132	1145.5
1330.945	1128.5
1335.753	1123.5
1340.556	1101.5
1345.354	1095.5
1350.148	1094.5
1354.937	1093.5
1359.722	1073.5
1364.501	1059.5
1369.276	1049.5
1374.046	1042.5
1378.811	1034.5
1383.572	1029.5
1388.327	1030.5
1393.079	1058.5
1397.825	1042.5
1402.567	1018.5
1407.304	1014.5
1412.036	991.5
1416.764	1029.5
1421.487	1022.5
1426.205	1013.5
1430.919	1025.5
1435.628	1036.5
1440.333	1045.5
1445.032	1051.5
1449.727	1071.5
1454.418	1057.5
1459.104	1075.5
1463.785	1052.5
1468.462	1072.5
1473.134	1051.5
1477.802	1037.5
1482.465	1030.5
1487.123	1019.5
1491.777	1040.5
1496.426	1034.5
1501.071	1018.5
1505.711	1029.5
1510.347	1047.5
1514.978	1059.5
1519.604	1050.5
1524.226	1060.5
1528.844	1060.5
1533.457	1073.5
1538.065	1079.5
1542.669	1059.5
1547.269	1059.5
1551.864	1064.5
1556.454	1071.5
1561.041	1069.5
1565.622	1085.5
1570.199	1094.5
1574.772	1106.5
1579.34	1125.5
1583.904	1146.5
1588.464	1162.5
1593.019	1170.5
1597.569	1195.5
1602.115	1201.5
1606.657	1223.5
1611.195	1238.5
1615.728	1248.5
1620.256	1264.5
1624.78	1280.5
1629.3	1281.5
1633.816	1308.5
1638.327	1333.5
1642.834	1327.5
1647.336	1339.5
1651.834	1357.5
1656.328	1343.5
1660.817	1355.5
1665.302	1356.5
1669.783	1322.5
1674.259	1284.5
1678.732	1227.5
1683.199	1219.5
1687.663	1178.5
1692.122	1140.5
1696.577	1102.5
1701.028	1062.5
1705.474	1009.5
1709.917	969.5
1714.355	964.5
1718.788	949.5
1723.218	933.5
1727.643	926.5
1732.064	905.5
1736.481	894.5
1740.893	856.5
1745.301	842.5
1749.705	826.5
1754.105	809.5
1758.501	787.5
1762.893	775.5
1767.28	758.5
1771.663	752.5
1776.042	741.5
1780.417	746.5
1784.787	749.5
1789.154	743.5
1793.516	755.5
1797.874	756.5
1802.228	738.5
1806.578	731.5
1810.924	718.5
1815.266	717.5
1819.603	707.5
1823.937	706.5
1828.266	691.5
1832.591	680.5
1836.913	685.5
1841.23	673.5
1845.543	673.5
1849.852	683.5
1854.156	672.5
1858.457	677.5
1862.754	693.5
1867.047	692.5
1871.335	691.5
1875.62	687.5
1879.9	690.5
1884.177	698.5
1888.449	707.5
1892.718	691.5
1896.982	682.5
1901.243	697.5
1905.499	687.5
1909.752	678.5
1914	692.5
1918.245	686.5
1922.485	691.5
1926.722	681.5
1930.954	697.5
1935.183	682.5
1939.408	694.5
1943.628	678.5
1947.845	693.5
1952.058	680.5
1956.267	684.5
1960.472	678.5
1964.673	677.5
1968.87	672.5
1973.063	663.5
1977.252	656.5
1981.438	656.5
1985.619	651.5
1989.797	654.5
1993.971	649.5
1998.14	653.5
2002.306	666.5
2006.469	657.5
2010.627	658.5
2014.781	670.5
2018.932	664.5
2023.078	666.5
2027.221	675.5
2031.36	649.5
2035.495	654.5
2039.627	645.5
2043.754	646.5
2047.878	638.5
2051.998	643.5
2056.114	642.5
2060.226	642.5
2064.334	640.5
2068.439	641.5
2072.54	640.5
2076.637	659.5
2080.73	647.5
2084.82	646.5
2088.906	644.5
2092.988	660.5
2097.066	647.5
2101.14	643.5
2105.211	644.5
2109.278	647.5
2113.342	641.5
2117.401	623.5
2121.457	627.5
2125.509	621.5
2129.558	627.5
2133.602	630.5
2137.643	625.5
2141.681	618.5
2145.714	619.5
2149.744	623.5
2153.77	616.5
2157.793	618.5
2161.812	603.5
2165.827	601.5
2169.838	594.5
2173.846	589.5
2177.851	590.5
2181.851	581.5
2185.848	573.5
2189.841	559.5
2193.831	554.5
2197.817	544.5
2201.799	558.5
2205.778	548.5
2209.753	546.5
2213.725	548.5
2217.693	549.5
2221.657	551.5
2225.618	537.5
2229.575	528.5
2233.529	553.5
2237.479	536.5
2241.425	531.5
2245.368	520.5
2249.307	519.5
2253.243	507.5
2257.175	514.5
2261.104	495.5
2265.029	491.5
2268.95	488.5
2272.868	482.5
2276.783	480.5
2280.694	475.5
2284.601	465.5
2288.505	465.5
2292.405	450.5
2296.302	448.5
2300.195	447.5
2304.085	443.5
2307.971	438.5
2311.854	437.5
2315.734	418.5
2319.609	420.5
2323.482	408.5
2327.351	408.5
2331.216	403.5
2335.078	398.5
2338.937	407.5
2342.792	401.5
2346.643	390.5
2350.492	394.5
2354.336	389.5
2358.178	398.5
2362.015	391.5
2365.85	393.5
2369.681	400.5
2373.508	399.5
2377.333	400.5
2381.153	391.5
2384.971	402.5
2388.785	395.5
2392.595	395.5
2396.402	389.5
2400.206	391.5
2404.007	387.5
2407.804	383.5
2411.597	385.5
2415.388	385.5
2419.174	378.5
2422.958	377.5
2426.738	381.5
2430.515	379.5
2434.289	375.5
2438.059	371.5
2441.825	372.5
2445.589	379.5
2449.349	364.5
2453.106	372.5
2456.859	366.5
2460.61	358.5
2464.356	349.5
2468.1	355.5
2471.84	351.5
2475.577	347.5
2479.311	349.5
2483.041	342.5
2486.768	346.5
2490.492	351.5
2494.213	348.5
2497.93	348.5
2501.644	352.5
2505.355	356.5
2509.062	345.5
2512.766	352.5
2516.467	351.5
2520.165	354.5
2523.859	340.5
2527.551	349.5
2531.239	328.5
2534.923	347.5
2538.605	339.5
2542.283	329.5
2545.958	337.5
2549.63	326.5
2553.299	331.5
2556.964	322.5
2560.626	319.5
2564.285	324.5
2567.941	318.5
2571.594	311.5
2575.243	324.5
2578.89	305.5
2582.533	310.5
2586.173	302.5
2589.809	306.5
2593.443	293.5
2597.073	297.5
2600.701	295.5
2604.325	301.5
2607.946	294.5
2611.564	296.5
2615.178	295.5
2618.79	299.5
2622.398	298.5
2626.004	293.5
2629.606	290.5
2633.205	280.5
2636.801	283.5
2640.394	290.5
2643.983	284.5
2647.57	282.5
2651.153	268.5
2654.734	269.5
2658.311	270.5
2661.885	272.5
2665.456	274.5
2669.025	273.5
2672.589	259.5
2676.151	264.5
2679.71	266.5
2683.266	263.5
2686.819	253.5
2690.368	256.5
2693.915	253.5
2697.458	255.5
2700.999	246.5
2704.536	250.5
2708.071	255.5
2711.602	248.5
2715.13	249.5
2718.656	242.5
2722.178	243.5
2725.697	239.5
2729.214	241.5
2732.727	241.5
2736.237	242.5
2739.744	246.5
2743.249	243.5
2746.75	237.5
2750.248	246.5
2753.743	242.5
2757.236	249.5
2760.725	240.5
2764.211	231.5
2767.695	230.5
2771.175	227.5
2774.652	221.5
2778.127	228.5
2781.598	229.5
2785.067	225.5
2788.532	223.5
2791.995	219.5
2795.455	226.5
2798.911	222.5
2802.365	231.5
2805.816	234.5
2809.264	233.5
2812.709	237.5
2816.151	236.5
2819.59	238.5
2823.026	231.5
2826.46	234.5
2829.89	236.5
2833.318	239.5
2836.742	236.5
2840.164	238.5
2843.583	239.5
2846.999	242.5
2850.412	245.5
2853.822	248.5
2857.229	250.5
2860.634	242.5
2864.035	255.5
2867.434	254.5
2870.83	261.5
2874.223	246.5
2877.613	256.5
2881	261.5
2884.385	254.5
2887.766	260.5
2891.145	263.5
2894.521	248.5
2897.894	264.5
2901.264	256.5
2904.631	264.5
2907.996	257.5
2911.358	261.5
2914.717	271.5
2918.073	264.5
2921.426	276.5
2924.777	274.5
2928.124	281.5
2931.469	279.5
2934.811	288.5
2938.15	290.5
2941.487	304.5
2944.821	299.5
2948.152	300.5
2951.48	309.5
2954.805	316.5
2958.128	317.5
2961.447	318.5
2964.765	323.5
2968.079	321.5
2971.39	322.5
2974.699	343.5
2978.005	337.5
2981.308	346.5
2984.609	362.5
2987.907	365.5
2991.202	367.5
2994.494	387.5
2997.784	392.5
3001.07	411.5
3004.355	412.5
3007.636	414.5
3010.915	425.5
3014.191	434.5
3017.464	439.5
3020.734	442.5
3024.002	452.5
3027.267	454.5
3030.53	465.5
3033.789	469.5
3037.046	485.5
3040.301	490.5
3043.552	506.5
3046.801	510.5
3050.048	520.5
3053.291	550.5
3056.532	548.5
3059.771	568.5
3063.006	591.5
3066.239	589.5
3069.469	614.5
3072.697	645.5
3075.922	638.5
3079.144	654.5
3082.364	671.5
3085.581	690.5
3088.795	696.5
3092.007	728.5
3095.216	731.5
3098.423	736.5
3101.627	771.5
3104.828	777.5
3108.026	790.5
3111.222	805.5
3114.416	832.5
3117.607	840.5
3120.795	855.5
3123.98	886.5
3127.163	905.5
3130.344	919.5
3133.521	940.5
3136.696	971.5
3139.869	977.5
3143.039	995.5
3146.206	1015.5
3149.371	1029.5
3152.533	1044.5
3155.693	1050.5
3158.85	1044.5
3162.005	1076.5
3165.157	1061.5
3168.306	1087.5
3171.453	1066.5
3174.597	1085.5
3177.739	1097.5
3180.878	1105.5
3184.014	1090.5
3187.149	1100.5
3190.28	1106.5
3193.409	1109.5
3196.536	1116.5
3199.659	1105.5
3202.781	1125.5
3205.9	1121.5
3209.016	1111.5
3212.13	1112.5
3215.241	1122.5
3218.35	1111.5
3221.456	1106.5
3224.56	1089.5
3227.661	1097.5
3230.76	1065.5
3233.856	1062.5
3236.95	1052.5
3240.041	1039.5
3243.13	1041.5
3246.216	1023.5
3249.3	1018.5
3252.382	1024.5
3255.46	1008.5
3258.537	1008.5
3261.611	1001.5
3264.682	990.5
3267.751	989.5
3270.818	995.5
3273.882	993.5
3276.943	994.5
3280.002	979.5
3283.059	980.5
3286.113	957.5
3289.165	958.5
3292.214	935.5
3295.261	926.5
3298.306	911.5
3301.348	892.5
3304.387	881.5
3307.425	865.5
3310.459	860.5
3313.492	861.5
3316.521	845.5
3319.549	831.5
3322.574	827.5
3325.597	824.5
3328.617	814.5
3331.635	817.5
3334.65	811.5
3337.663	812.5
3340.674	808.5
3343.682	796.5
3346.688	797.5
3349.691	792.5
3352.692	797.5
3355.691	794.5
3358.687	787.5
3361.681	771.5
3364.673	769.5
3367.662	743.5
3370.649	759.5
3373.633	740.5
3376.615	729.5
3379.595	717.5
3382.572	703.5
3385.547	710.5
3388.52	703.5
3391.49	682.5
3394.458	678.5
3397.424	669.5
3400.387	666.5
3403.348	664.5
3406.307	646.5
3409.263	627.5
3412.217	637.5
3415.168	618.5
3418.118	617.5
3421.065	604.5
3424.009	593.5
3426.951	596.5
3429.891	585.5
3432.829	573.5
3435.764	575.5
3438.697	562.5
3441.628	544.5
3444.557	532.5
3447.483	523.5
3450.407	514.5
3453.328	496.5
3456.247	485.5
3459.164	471.5
3462.079	455.5
3464.991	453.5
3467.902	442.5
3470.809	428.5
3473.715	413.5
3476.618	403.5
3479.519	390.5
3482.418	372.5
3485.315	367.5
3488.209	357.5
3491.101	352.5
3493.99	338.5
3496.878	332.5
3499.763	326.5
3502.646	313.5
3505.527	303.5
3508.405	304.5
3511.281	283.5
3514.155	282.5
3517.027	267.5
3519.897	250.5
3522.764	241.5
3525.629	242.5
3528.492	220.5
3531.352	207.5
3534.211	204.5
3537.067	190.5
3539.921	177.5
3542.773	177.5
3545.622	170.5
3548.469	154.5
3551.315	152.5
3554.157	148.5
3556.998	135.5
3559.837	129.5
3562.673	122.5
3565.507	116.5
3568.339	113.5
3571.169	105.5
3573.996	103.5
3576.822	100.5
3579.645	89.5
3582.466	85.5
3585.285	77.5
3588.101	75.5
3590.916	62.5
3593.728	59.5
3596.538	60.5
3599.346	55.5
3602.152	52.5
3604.956	49.5
3607.757	44.5
3610.556	35.5
3613.354	37.5
3616.149	29.5
3618.942	25.5
3621.732	27.5
3624.521	19.5
3627.307	20.5
3630.092	15.5
3632.874	16.5
3635.654	10.5
3638.432	10.5
3641.208	3.5
3643.982	7.5
3646.753	5.5
3649.523	0.5
3652.29	3.5
3655.055	-3.5
3657.818	-6.5
3660.579	-5.5
3663.338	-9.5
3666.095	-15.5
3668.849	-11.5
3671.602	-13.5
3674.352	-19.5
3677.101	-20.5
3679.847	-22.5
3682.591	-24.5
3685.333	-25.5
3688.073	-33.5
3690.811	-29.5
3693.547	-29.5
3696.281	-35.5
3699.013	-30.5
3701.742	-34.5
3704.47	-34.5
3707.195	-35.5
3709.919	-38.5
3712.64	-42.5
3715.359	-38.5
3718.076	-41.5
3720.792	-44.5
3723.505	-44.5
3726.216	-45.5
3728.925	-43.5
3731.632	-43.5
3734.336	-47.5
3737.039	-48.5
3739.74	-49.5
3742.439	-46.5
3745.136	-49.5
3747.83	-48.5
3750.523	-48.5
3753.213	-49.5
3755.902	-48.5
3758.589	-51.5
3761.273	-49.5
3763.956	-52.5
3766.636	-54.5
3769.315	-53.5
3771.991	-55.5
3774.665	-54.5
3777.338	-55.5
3780.008	-53.5
3782.677	-56.5
3785.343	-52.5
3788.007	-54.5
3790.67	-56.5
3793.33	-58.5
3795.989	-54.5
3798.645	-58.5
3801.299	-59.5
3803.952	-59.5
3806.602	-60.5
3809.251	-59.5
3811.897	-59.5
3814.542	-60.5
3817.184	-58.5
3819.825	-54.5
3822.463	-58.5
3825.1	-56.5
3827.735	-55.5
3830.367	-59.5
3832.998	-60.5
3835.627	-60.5
3838.253	-58.5
3840.878	-66.5
3843.501	-59.5
3846.122	-60.5
3848.741	-63.5
3851.358	-64.5
3853.973	-63.5
3856.586	-61.5
3859.197	-65.5
3861.806	-67.5
3864.414	-63.5
3867.019	-65.5
3869.622	-66.5
3872.224	-65.5
3874.823	-62.5
3877.421	-61.5
3880.016	-60.5
3882.61	-58.5
3885.202	-63.5
3887.792	-60.5
3890.38	-58.5
3892.966	-59.5
3895.55	-60.5
3898.132	-61.5
3900.713	-64.5
3903.291	-66.5
3905.868	-61.5
3908.442	-64.5
3911.015	-63.5
3913.586	-65.5
3916.155	-59.5
3918.722	-61.5
3921.287	-63.5
3923.85	-64.5
3926.411	-64.5
3928.971	-68.5
3931.528	-66.5
3934.084	-67.5
3936.638	-69.5
3939.19	-68.5
3941.74	-69.5
3944.288	-67.5
3946.834	-66.5
3949.378	-71.5
3951.921	-69.5
3954.462	-69.5
3957	-66.5
3959.537	-69.5
3962.072	-68.5
3964.606	-66.5
3967.137	-65.5
3969.667	-67.5
3972.194	-69.5
3974.72	-62.5
3977.244	-65.5
3979.766	-62.5
3982.286	-62.5
3984.805	-63.5
3987.321	-62.5
3989.836	-60.5
3992.349	-65.5
3994.86	-68.5
3997.369	-66.5
3999.877	-65.5
4002.382	-63.5
4004.886	-60.5
4007.388	-63.5
4009.888	-62.5
4012.386	-61.5
4014.883	-68.5
4017.377	-63.5
4019.87	-61.5
4022.361	-67.5
4024.85	-66.5
4027.338	-63.5
4029.823	-63.5
4032.307	-65.5
4034.789	-65.5
4037.269	-65.5
4039.747	-64.5
4042.224	-63.5
4044.699	-67.5
4047.172	-62.5
4049.643	-62.5
4052.112	-65.5
4054.58	-66.5
4057.046	-62.5
4059.51	-65.5
4061.972	-65.5
4064.432	-66.5
4066.891	-66.5
4069.348	-67.5
4071.803	-68.5
4074.256	-70.5
4076.708	-65.5
4079.158	-66.5
4081.606	-67.5
4084.052	-67.5
4086.497	-68.5
4088.939	-70.5
4091.38	-67.5
4093.819	-68.5
4096.257	-71.5
4098.693	-72.5
4101.127	-70.5
4103.559	-69.5
4105.989	-22.5
4108.418	-16.5
4110.845	-20.5
4113.27	-15.5
4115.694	-15.5
4118.115	-6.5
4120.535	-66.5
4122.954	-68.5
4125.37	-67.5
4127.785	-68.5
4130.198	-65.5
4132.609	-65.5
4135.019	-70.5
4137.427	-71.5
4139.833	-64.5
4142.237	-66.5
