Data from 1000CFU1_B_ramanshift_RamanShift_12-22-42-621.txt Node
Date: Sun Jan 01 12:22:42 IST 2017
User: aro
Spectrometer: QEPB0276
Trigger mode: 0
Integration Time (sec): 5.000000E0
Scans to average: 1
Electric dark correction enabled: true
Nonlinearity correction enabled: false
Boxcar width: 0
XAxis mode: Raman Shifts
Number of Pixels in Spectrum: 1044
>>>>>Begin Spectral Data<<<<<
160.701	6.75
166.742	19.75
172.777	64.75
178.805	192.75
184.826	578.75
190.841	1400.75
196.849	2654.75
202.85	3819.75
208.845	4443.75
214.833	4453.75
220.815	4326.75
226.789	4149.75
232.758	4038.75
238.719	3943.75
244.674	3787.75
250.623	3664.75
256.565	3509.75
262.5	3333.75
268.429	3196.75
274.351	3057.75
280.267	2933.75
286.176	2824.75
292.079	2735.75
297.975	2667.75
303.865	2570.75
309.748	2494.75
315.625	2428.75
321.495	2388.75
327.359	2326.75
333.217	2314.75
339.068	2272.75
344.912	2254.75
350.751	2252.75
356.583	2250.75
362.408	2247.75
368.227	2246.75
374.04	2231.75
379.847	2240.75
385.647	2244.75
391.44	2274.75
397.228	2289.75
403.009	2292.75
408.784	2285.75
414.553	2301.75
420.315	2298.75
426.071	2317.75
431.821	2288.75
437.565	2293.75
443.302	2327.75
449.033	2294.75
454.758	2280.75
460.477	2288.75
466.189	2287.75
471.896	2265.75
477.596	2257.75
483.29	2239.75
488.978	2232.75
494.66	2235.75
500.335	2189.75
506.005	2177.75
511.668	2129.75
517.325	2115.75
522.977	2063.75
528.622	2054.75
534.261	2018.75
539.894	1990.75
545.521	1987.75
551.141	1964.75
556.756	1958.75
562.365	1930.75
567.968	1919.75
573.565	1901.75
579.155	1900.75
584.74	1890.75
590.319	1887.75
595.892	1871.75
601.459	1864.75
607.02	1842.75
612.575	1828.75
618.124	1805.75
623.667	1797.75
629.204	1784.75
634.735	1780.75
640.261	1746.75
645.781	1733.75
651.294	1725.75
656.802	1710.75
662.304	1717.75
667.8	1699.75
673.29	1701.75
678.775	1674.75
684.254	1676.75
689.726	1667.75
695.193	1679.75
700.655	1675.75
706.11	1650.75
711.56	1628.75
717.004	1620.75
722.442	1609.75
727.874	1608.75
733.301	1601.75
738.722	1582.75
744.137	1588.75
749.547	1581.75
754.951	1572.75
760.349	1570.75
765.741	1564.75
771.128	1571.75
776.509	1574.75
781.885	1557.75
787.254	1573.75
792.618	1555.75
797.977	1561.75
803.33	1522.75
808.677	1522.75
814.019	1506.75
819.355	1506.75
824.686	1465.75
830.011	1466.75
835.33	1452.75
840.644	1462.75
845.952	1444.75
851.255	1437.75
856.552	1444.75
861.844	1427.75
867.13	1407.75
872.41	1401.75
877.686	1374.75
882.955	1396.75
888.219	1361.75
893.478	1345.75
898.731	1319.75
903.979	1310.75
909.221	1295.75
914.458	1285.75
919.69	1273.75
924.916	1269.75
930.136	1260.75
935.351	1259.75
940.561	1246.75
945.766	1268.75
950.965	1268.75
956.158	1241.75
961.347	1245.75
966.529	1207.75
971.707	1209.75
976.879	1196.75
982.046	1185.75
987.208	1167.75
992.364	1157.75
997.515	1174.75
1002.66	1165.75
1007.801	1170.75
1012.936	1184.75
1018.066	1186.75
1023.19	1214.75
1028.309	1215.75
1033.423	1209.75
1038.532	1216.75
1043.636	1202.75
1048.734	1179.75
1053.827	1177.75
1058.915	1169.75
1063.998	1151.75
1069.075	1149.75
1074.147	1136.75
1079.214	1145.75
1084.276	1154.75
1089.333	1166.75
1094.385	1167.75
1099.431	1177.75
1104.472	1198.75
1109.509	1172.75
1114.54	1170.75
1119.565	1164.75
1124.586	1152.75
1129.602	1135.75
1134.613	1113.75
1139.618	1126.75
1144.619	1123.75
1149.614	1130.75
1154.604	1130.75
1159.589	1154.75
1164.57	1136.75
1169.545	1139.75
1174.515	1151.75
1179.48	1131.75
1184.44	1134.75
1189.395	1125.75
1194.345	1117.75
1199.29	1105.75
1204.23	1101.75
1209.165	1116.75
1214.095	1127.75
1219.021	1122.75
1223.941	1147.75
1228.856	1150.75
1233.766	1144.75
1238.672	1154.75
1243.572	1149.75
1248.467	1160.75
1253.358	1149.75
1258.244	1127.75
1263.124	1117.75
1268	1093.75
1272.871	1083.75
1277.737	1077.75
1282.599	1089.75
1287.455	1076.75
1292.306	1069.75
1297.153	1080.75
1301.995	1076.75
1306.832	1083.75
1311.664	1097.75
1316.491	1083.75
1321.314	1093.75
1326.132	1103.75
1330.945	1090.75
1335.753	1061.75
1340.556	1058.75
1345.354	1056.75
1350.148	1034.75
1354.937	1029.75
1359.722	1021.75
1364.501	1016.75
1369.276	1012.75
1374.046	1002.75
1378.811	998.75
1383.572	1000.75
1388.327	982.75
1393.079	992.75
1397.825	991.75
1402.567	979.75
1407.304	963.75
1412.036	969.75
1416.764	956.75
1421.487	959.75
1426.205	979.75
1430.919	992.75
1435.628	986.75
1440.333	993.75
1445.032	995.75
1449.727	1010.75
1454.418	1015.75
1459.104	1020.75
1463.785	1019.75
1468.462	1014.75
1473.134	996.75
1477.802	982.75
1482.465	967.75
1487.123	989.75
1491.777	967.75
1496.426	978.75
1501.071	975.75
1505.711	990.75
1510.347	1008.75
1514.978	1000.75
1519.604	1011.75
1524.226	1015.75
1528.844	1021.75
1533.457	1019.75
1538.065	1026.75
1542.669	1026.75
1547.269	1007.75
1551.864	1020.75
1556.454	1022.75
1561.041	1030.75
1565.622	1046.75
1570.199	1046.75
1574.772	1065.75
1579.34	1087.75
1583.904	1108.75
1588.464	1132.75
1593.019	1146.75
1597.569	1164.75
1602.115	1177.75
1606.657	1185.75
1611.195	1192.75
1615.728	1200.75
1620.256	1207.75
1624.78	1223.75
1629.3	1243.75
1633.816	1267.75
1638.327	1280.75
1642.834	1297.75
1647.336	1300.75
1651.834	1311.75
1656.328	1331.75
1660.817	1315.75
1665.302	1310.75
1669.783	1271.75
1674.259	1261.75
1678.732	1223.75
1683.199	1170.75
1687.663	1148.75
1692.122	1098.75
1696.577	1070.75
1701.028	1017.75
1705.474	964.75
1709.917	950.75
1714.355	916.75
1718.788	904.75
1723.218	888.75
1727.643	863.75
1732.064	855.75
1736.481	846.75
1740.893	817.75
1745.301	794.75
1749.705	775.75
1754.105	763.75
1758.501	736.75
1762.893	726.75
1767.28	727.75
1771.663	705.75
1776.042	689.75
1780.417	683.75
1784.787	697.75
1789.154	687.75
1793.516	688.75
1797.874	694.75
1802.228	694.75
1806.578	680.75
1810.924	669.75
1815.266	673.75
1819.603	653.75
1823.937	639.75
1828.266	638.75
1832.591	636.75
1836.913	621.75
1841.23	622.75
1845.543	624.75
1849.852	626.75
1854.156	631.75
1858.457	626.75
1862.754	625.75
1867.047	634.75
1871.335	635.75
1875.62	643.75
1879.9	638.75
1884.177	642.75
1888.449	627.75
1892.718	631.75
1896.982	629.75
1901.243	637.75
1905.499	632.75
1909.752	622.75
1914	615.75
1918.245	617.75
1922.485	608.75
1926.722	625.75
1930.954	617.75
1935.183	626.75
1939.408	639.75
1943.628	641.75
1947.845	631.75
1952.058	632.75
1956.267	627.75
1960.472	624.75
1964.673	623.75
1968.87	609.75
1973.063	603.75
1977.252	604.75
1981.438	601.75
1985.619	594.75
1989.797	589.75
1993.971	598.75
1998.14	594.75
2002.306	599.75
2006.469	600.75
2010.627	613.75
2014.781	607.75
2018.932	614.75
2023.078	611.75
2027.221	608.75
2031.36	604.75
2035.495	611.75
2039.627	608.75
2043.754	593.75
2047.878	596.75
2051.998	606.75
2056.114	598.75
2060.226	601.75
2064.334	595.75
2068.439	598.75
2072.54	602.75
2076.637	599.75
2080.73	618.75
2084.82	617.75
2088.906	610.75
2092.988	597.75
2097.066	607.75
2101.14	600.75
2105.211	590.75
2109.278	601.75
2113.342	590.75
2117.401	581.75
2121.457	581.75
2125.509	581.75
2129.558	584.75
2133.602	578.75
2137.643	576.75
2141.681	572.75
2145.714	578.75
2149.744	565.75
2153.77	575.75
2157.793	563.75
2161.812	564.75
2165.827	557.75
2169.838	547.75
2173.846	533.75
2177.851	531.75
2181.851	522.75
2185.848	523.75
2189.841	527.75
2193.831	504.75
2197.817	503.75
2201.799	504.75
2205.778	499.75
2209.753	503.75
2213.725	499.75
2217.693	495.75
2221.657	504.75
2225.618	502.75
2229.575	496.75
2233.529	492.75
2237.479	495.75
2241.425	479.75
2245.368	478.75
2249.307	476.75
2253.243	467.75
2257.175	456.75
2261.104	449.75
2265.029	444.75
2268.95	445.75
2272.868	434.75
2276.783	423.75
2280.694	422.75
2284.601	421.75
2288.505	413.75
2292.405	412.75
2296.302	409.75
2300.195	409.75
2304.085	396.75
2307.971	398.75
2311.854	404.75
2315.734	387.75
2319.609	371.75
2323.482	376.75
2327.351	373.75
2331.216	370.75
2335.078	364.75
2338.937	359.75
2342.792	357.75
2346.643	352.75
2350.492	352.75
2354.336	356.75
2358.178	361.75
2362.015	352.75
2365.85	353.75
2369.681	353.75
2373.508	361.75
2377.333	356.75
2381.153	360.75
2384.971	360.75
2388.785	356.75
2392.595	357.75
2396.402	345.75
2400.206	349.75
2404.007	343.75
2407.804	351.75
2411.597	345.75
2415.388	348.75
2419.174	347.75
2422.958	337.75
2426.738	337.75
2430.515	335.75
2434.289	338.75
2438.059	335.75
2441.825	333.75
2445.589	329.75
2449.349	334.75
2453.106	329.75
2456.859	326.75
2460.61	320.75
2464.356	322.75
2468.1	318.75
2471.84	310.75
2475.577	312.75
2479.311	313.75
2483.041	314.75
2486.768	314.75
2490.492	307.75
2494.213	315.75
2497.93	316.75
2501.644	313.75
2505.355	311.75
2509.062	312.75
2512.766	316.75
2516.467	305.75
2520.165	303.75
2523.859	305.75
2527.551	300.75
2531.239	302.75
2534.923	301.75
2538.605	290.75
2542.283	291.75
2545.958	291.75
2549.63	294.75
2553.299	297.75
2556.964	297.75
2560.626	287.75
2564.285	284.75
2567.941	274.75
2571.594	283.75
2575.243	275.75
2578.89	273.75
2582.533	280.75
2586.173	270.75
2589.809	272.75
2593.443	262.75
2597.073	266.75
2600.701	265.75
2604.325	270.75
2607.946	255.75
2611.564	261.75
2615.178	263.75
2618.79	256.75
2622.398	264.75
2626.004	255.75
2629.606	258.75
2633.205	255.75
2636.801	251.75
2640.394	246.75
2643.983	247.75
2647.57	248.75
2651.153	242.75
2654.734	239.75
2658.311	242.75
2661.885	241.75
2665.456	234.75
2669.025	233.75
2672.589	229.75
2676.151	231.75
2679.71	226.75
2683.266	230.75
2686.819	230.75
2690.368	221.75
2693.915	222.75
2697.458	217.75
2700.999	217.75
2704.536	218.75
2708.071	212.75
2711.602	206.75
2715.13	205.75
2718.656	201.75
2722.178	201.75
2725.697	202.75
2729.214	209.75
2732.727	213.75
2736.237	210.75
2739.744	225.75
2743.249	214.75
2746.75	213.75
2750.248	216.75
2753.743	211.75
2757.236	208.75
2760.725	209.75
2764.211	206.75
2767.695	204.75
2771.175	203.75
2774.652	203.75
2778.127	198.75
2781.598	197.75
2785.067	199.75
2788.532	204.75
2791.995	198.75
2795.455	202.75
2798.911	202.75
2802.365	208.75
2805.816	202.75
2809.264	206.75
2812.709	205.75
2816.151	214.75
2819.59	208.75
2823.026	222.75
2826.46	215.75
2829.89	215.75
2833.318	217.75
2836.742	214.75
2840.164	217.75
2843.583	215.75
2846.999	221.75
2850.412	224.75
2853.822	218.75
2857.229	223.75
2860.634	227.75
2864.035	234.75
2867.434	236.75
2870.83	232.75
2874.223	236.75
2877.613	236.75
2881	235.75
2884.385	238.75
2887.766	237.75
2891.145	238.75
2894.521	248.75
2897.894	236.75
2901.264	244.75
2904.631	247.75
2907.996	247.75
2911.358	250.75
2914.717	249.75
2918.073	260.75
2921.426	248.75
2924.777	267.75
2928.124	257.75
2931.469	273.75
2934.811	267.75
2938.15	280.75
2941.487	281.75
2944.821	291.75
2948.152	291.75
2951.48	305.75
2954.805	299.75
2958.128	303.75
2961.447	299.75
2964.765	308.75
2968.079	314.75
2971.39	317.75
2974.699	328.75
2978.005	343.75
2981.308	340.75
2984.609	342.75
2987.907	359.75
2991.202	357.75
2994.494	373.75
2997.784	384.75
3001.07	394.75
3004.355	406.75
3007.636	414.75
3010.915	424.75
3014.191	439.75
3017.464	436.75
3020.734	442.75
3024.002	444.75
3027.267	458.75
3030.53	475.75
3033.789	485.75
3037.046	486.75
3040.301	502.75
3043.552	511.75
3046.801	521.75
3050.048	536.75
3053.291	548.75
3056.532	552.75
3059.771	577.75
3063.006	598.75
3066.239	617.75
3069.469	628.75
3072.697	648.75
3075.922	662.75
3079.144	688.75
3082.364	698.75
3085.581	703.75
3088.795	732.75
3092.007	744.75
3095.216	766.75
3098.423	773.75
3101.627	802.75
3104.828	806.75
3108.026	826.75
3111.222	844.75
3114.416	858.75
3117.607	884.75
3120.795	902.75
3123.98	912.75
3127.163	947.75
3130.344	961.75
3133.521	990.75
3136.696	1007.75
3139.869	1029.75
3143.039	1030.75
3146.206	1060.75
3149.371	1084.75
3152.533	1071.75
3155.693	1099.75
3158.85	1095.75
3162.005	1102.75
3165.157	1113.75
3168.306	1117.75
3171.453	1137.75
3174.597	1141.75
3177.739	1137.75
3180.878	1144.75
3184.014	1134.75
3187.149	1134.75
3190.28	1146.75
3193.409	1155.75
3196.536	1168.75
3199.659	1169.75
3202.781	1154.75
3205.9	1157.75
3209.016	1169.75
3212.13	1159.75
3215.241	1165.75
3218.35	1153.75
3221.456	1150.75
3224.56	1127.75
3227.661	1138.75
3230.76	1121.75
3233.856	1112.75
3236.95	1101.75
3240.041	1096.75
3243.13	1085.75
3246.216	1082.75
3249.3	1068.75
3252.382	1066.75
3255.46	1058.75
3258.537	1048.75
3261.611	1050.75
3264.682	1040.75
3267.751	1046.75
3270.818	1041.75
3273.882	1033.75
3276.943	1028.75
3280.002	1015.75
3283.059	1031.75
3286.113	1005.75
3289.165	999.75
3292.214	980.75
3295.261	966.75
3298.306	960.75
3301.348	940.75
3304.387	924.75
3307.425	915.75
3310.459	903.75
3313.492	897.75
3316.521	874.75
3319.549	867.75
3322.574	870.75
3325.597	847.75
3328.617	852.75
3331.635	852.75
3334.65	843.75
3337.663	832.75
3340.674	820.75
3343.682	825.75
3346.688	825.75
3349.691	826.75
3352.692	818.75
3355.691	826.75
3358.687	810.75
3361.681	808.75
3364.673	795.75
3367.662	782.75
3370.649	782.75
3373.633	774.75
3376.615	760.75
3379.595	757.75
3382.572	745.75
3385.547	729.75
3388.52	717.75
3391.49	711.75
3394.458	706.75
3397.424	702.75
3400.387	690.75
3403.348	676.75
3406.307	667.75
3409.263	670.75
3412.217	657.75
3415.168	651.75
3418.118	648.75
3421.065	630.75
3424.009	626.75
3426.951	616.75
3429.891	608.75
3432.829	608.75
3435.764	591.75
3438.697	579.75
3441.628	557.75
3444.557	557.75
3447.483	548.75
3450.407	533.75
3453.328	515.75
3456.247	500.75
3459.164	493.75
3462.079	469.75
3464.991	464.75
3467.902	450.75
3470.809	446.75
3473.715	421.75
3476.618	409.75
3479.519	402.75
3482.418	381.75
3485.315	389.75
3488.209	374.75
3491.101	367.75
3493.99	353.75
3496.878	343.75
3499.763	332.75
3502.646	325.75
3505.527	311.75
3508.405	307.75
3511.281	291.75
3514.155	289.75
3517.027	275.75
3519.897	264.75
3522.764	244.75
3525.629	242.75
3528.492	228.75
3531.352	216.75
3534.211	203.75
3537.067	194.75
3539.921	183.75
3542.773	185.75
3545.622	175.75
3548.469	162.75
3551.315	157.75
3554.157	145.75
3556.998	137.75
3559.837	131.75
3562.673	124.75
3565.507	118.75
3568.339	116.75
3571.169	101.75
3573.996	104.75
3576.822	105.75
3579.645	100.75
3582.466	89.75
3585.285	82.75
3588.101	72.75
3590.916	64.75
3593.728	68.75
3596.538	59.75
3599.346	49.75
3602.152	53.75
3604.956	47.75
3607.757	37.75
3610.556	34.75
3613.354	35.75
3616.149	34.75
3618.942	26.75
3621.732	28.75
3624.521	16.75
3627.307	19.75
3630.092	14.75
3632.874	10.75
3635.654	10.75
3638.432	6.75
3641.208	8.75
3643.982	5.75
3646.753	1.75
3649.523	1.75
3652.29	1.75
3655.055	-2.25
3657.818	-0.25
3660.579	-9.25
3663.338	-9.25
3666.095	-8.25
3668.849	-10.25
3671.602	-14.25
3674.352	-21.25
3677.101	-21.25
3679.847	-24.25
3682.591	-23.25
3685.333	-30.25
3688.073	-28.25
3690.811	-29.25
3693.547	-32.25
3696.281	-36.25
3699.013	-33.25
3701.742	-35.25
3704.47	-37.25
3707.195	-38.25
3709.919	-40.25
3712.64	-43.25
3715.359	-41.25
3718.076	-41.25
3720.792	-43.25
3723.505	-46.25
3726.216	-46.25
3728.925	-48.25
3731.632	-44.25
3734.336	-45.25
3737.039	-45.25
3739.74	-50.25
3742.439	-46.25
3745.136	-47.25
3747.83	-43.25
3750.523	-49.25
3753.213	-45.25
3755.902	-48.25
3758.589	-48.25
3761.273	-52.25
3763.956	-51.25
3766.636	-53.25
3769.315	-53.25
3771.991	-57.25
3774.665	-55.25
3777.338	-55.25
3780.008	-54.25
3782.677	-61.25
3785.343	-55.25
3788.007	-53.25
3790.67	-54.25
3793.33	-57.25
3795.989	-57.25
3798.645	-58.25
3801.299	-57.25
3803.952	-57.25
3806.602	-60.25
3809.251	-62.25
3811.897	-57.25
3814.542	-62.25
3817.184	-58.25
3819.825	-57.25
3822.463	-60.25
3825.1	-58.25
3827.735	-58.25
3830.367	-58.25
3832.998	-60.25
3835.627	-61.25
3838.253	-60.25
3840.878	-67.25
3843.501	-57.25
3846.122	-61.25
3848.741	-66.25
3851.358	-64.25
3853.973	-60.25
3856.586	-64.25
3859.197	-66.25
3861.806	-66.25
3864.414	-68.25
3867.019	-65.25
3869.622	-67.25
3872.224	-68.25
3874.823	-64.25
3877.421	-68.25
3880.016	-62.25
3882.61	-56.25
3885.202	-61.25
3887.792	-59.25
3890.38	-61.25
3892.966	-61.25
3895.55	-62.25
3898.132	-64.25
3900.713	-67.25
3903.291	-65.25
3905.868	-64.25
3908.442	-63.25
3911.015	-63.25
3913.586	-63.25
3916.155	-67.25
3918.722	-69.25
3921.287	-66.25
3923.85	-68.25
3926.411	-66.25
3928.971	-70.25
3931.528	-70.25
3934.084	-69.25
3936.638	-70.25
3939.19	-70.25
3941.74	-69.25
3944.288	-69.25
3946.834	-70.25
3949.378	-72.25
3951.921	-69.25
3954.462	-68.25
3957	-63.25
3959.537	-70.25
3962.072	-68.25
3964.606	-66.25
3967.137	-67.25
3969.667	-68.25
3972.194	-65.25
3974.72	-64.25
3977.244	-64.25
3979.766	-62.25
3982.286	-63.25
3984.805	-63.25
3987.321	-60.25
3989.836	-62.25
3992.349	-64.25
3994.86	-65.25
3997.369	-66.25
3999.877	-65.25
4002.382	-62.25
4004.886	-62.25
4007.388	-66.25
4009.888	-63.25
4012.386	-58.25
4014.883	-66.25
4017.377	-66.25
4019.87	-65.25
4022.361	-67.25
4024.85	-65.25
4027.338	-65.25
4029.823	-64.25
4032.307	-65.25
4034.789	-64.25
4037.269	-65.25
4039.747	-64.25
4042.224	-66.25
4044.699	-67.25
4047.172	-63.25
4049.643	-63.25
4052.112	-64.25
4054.58	-65.25
4057.046	-67.25
4059.51	-65.25
4061.972	-63.25
4064.432	-68.25
4066.891	-64.25
4069.348	-62.25
4071.803	-66.25
4074.256	-68.25
4076.708	-66.25
4079.158	-71.25
4081.606	-66.25
4084.052	-65.25
4086.497	-68.25
4088.939	-69.25
4091.38	-67.25
4093.819	-68.25
4096.257	-73.25
4098.693	-71.25
4101.127	-72.25
4103.559	-71.25
4105.989	-23.25
4108.418	-17.25
4110.845	-16.25
4113.27	-15.25
4115.694	-12.25
4118.115	-6.25
4120.535	-67.25
4122.954	-71.25
4125.37	-71.25
4127.785	-70.25
4130.198	-68.25
4132.609	-66.25
4135.019	-72.25
4137.427	-72.25
4139.833	-69.25
4142.237	-70.25
