Data from 100000CFU1_A_ramanshift_RamanShift_11-50-42-698.txt Node
Date: Sun Jan 01 11:50:42 IST 2017
User: aro
Spectrometer: QEPB0276
Trigger mode: 0
Integration Time (sec): 5.000000E0
Scans to average: 1
Electric dark correction enabled: true
Nonlinearity correction enabled: false
Boxcar width: 0
XAxis mode: Raman Shifts
Number of Pixels in Spectrum: 1044
>>>>>Begin Spectral Data<<<<<
160.701	7.88
166.742	23.88
172.777	59.88
178.805	206.88
184.826	609.88
190.841	1491.88
196.849	2762.88
202.85	3944.88
208.845	4559.88
214.833	4567.88
220.815	4363.88
226.789	4234.88
232.758	4129.88
238.719	4014.88
244.674	3865.88
250.623	3734.88
256.565	3551.88
262.5	3432.88
268.429	3262.88
274.351	3114.88
280.267	3000.88
286.176	2895.88
292.079	2785.88
297.975	2715.88
303.865	2614.88
309.748	2552.88
315.625	2479.88
321.495	2434.88
327.359	2394.88
333.217	2366.88
339.068	2343.88
344.912	2303.88
350.751	2327.88
356.583	2298.88
362.408	2311.88
368.227	2292.88
374.04	2285.88
379.847	2299.88
385.647	2331.88
391.44	2311.88
397.228	2315.88
403.009	2350.88
408.784	2350.88
414.553	2347.88
420.315	2348.88
426.071	2340.88
431.821	2342.88
437.565	2345.88
443.302	2362.88
449.033	2337.88
454.758	2340.88
460.477	2334.88
466.189	2308.88
471.896	2325.88
477.596	2295.88
483.29	2281.88
488.978	2288.88
494.66	2258.88
500.335	2259.88
506.005	2216.88
511.668	2190.88
517.325	2130.88
522.977	2120.88
528.622	2062.88
534.261	2046.88
539.894	2020.88
545.521	2019.88
551.141	1994.88
556.756	1989.88
562.365	1994.88
567.968	1950.88
573.565	1945.88
579.155	1948.88
584.74	1912.88
590.319	1921.88
595.892	1884.88
601.459	1875.88
607.02	1880.88
612.575	1846.88
618.124	1851.88
623.667	1828.88
629.204	1817.88
634.735	1799.88
640.261	1772.88
645.781	1759.88
651.294	1746.88
656.802	1748.88
662.304	1728.88
667.8	1737.88
673.29	1729.88
678.775	1707.88
684.254	1699.88
689.726	1710.88
695.193	1693.88
700.655	1677.88
706.11	1667.88
711.56	1664.88
717.004	1637.88
722.442	1630.88
727.874	1626.88
733.301	1619.88
738.722	1622.88
744.137	1605.88
749.547	1590.88
754.951	1599.88
760.349	1568.88
765.741	1585.88
771.128	1595.88
776.509	1583.88
781.885	1587.88
787.254	1581.88
792.618	1565.88
797.977	1580.88
803.33	1565.88
808.677	1537.88
814.019	1517.88
819.355	1519.88
824.686	1481.88
830.011	1479.88
835.33	1475.88
840.644	1487.88
845.952	1454.88
851.255	1451.88
856.552	1450.88
861.844	1448.88
867.13	1435.88
872.41	1424.88
877.686	1418.88
882.955	1413.88
888.219	1379.88
893.478	1384.88
898.731	1351.88
903.979	1331.88
909.221	1324.88
914.458	1304.88
919.69	1296.88
924.916	1290.88
930.136	1286.88
935.351	1278.88
940.561	1269.88
945.766	1286.88
950.965	1268.88
956.158	1257.88
961.347	1249.88
966.529	1244.88
971.707	1218.88
976.879	1194.88
982.046	1187.88
987.208	1197.88
992.364	1174.88
997.515	1179.88
1002.66	1168.88
1007.801	1210.88
1012.936	1200.88
1018.066	1215.88
1023.19	1219.88
1028.309	1225.88
1033.423	1224.88
1038.532	1226.88
1043.636	1221.88
1048.734	1209.88
1053.827	1196.88
1058.915	1180.88
1063.998	1184.88
1069.075	1165.88
1074.147	1166.88
1079.214	1180.88
1084.276	1176.88
1089.333	1191.88
1094.385	1188.88
1099.431	1210.88
1104.472	1197.88
1109.509	1206.88
1114.54	1199.88
1119.565	1182.88
1124.586	1163.88
1129.602	1148.88
1134.613	1140.88
1139.618	1135.88
1144.619	1124.88
1149.614	1147.88
1154.604	1141.88
1159.589	1147.88
1164.57	1170.88
1169.545	1166.88
1174.515	1173.88
1179.48	1156.88
1184.44	1155.88
1189.395	1151.88
1194.345	1142.88
1199.29	1126.88
1204.23	1133.88
1209.165	1121.88
1214.095	1140.88
1219.021	1145.88
1223.941	1166.88
1228.856	1176.88
1233.766	1167.88
1238.672	1182.88
1243.572	1169.88
1248.467	1162.88
1253.358	1177.88
1258.244	1152.88
1263.124	1134.88
1268	1118.88
1272.871	1105.88
1277.737	1096.88
1282.599	1086.88
1287.455	1082.88
1292.306	1094.88
1297.153	1104.88
1301.995	1104.88
1306.832	1105.88
1311.664	1120.88
1316.491	1115.88
1321.314	1138.88
1326.132	1106.88
1330.945	1113.88
1335.753	1085.88
1340.556	1074.88
1345.354	1069.88
1350.148	1049.88
1354.937	1039.88
1359.722	1029.88
1364.501	1026.88
1369.276	1009.88
1374.046	1004.88
1378.811	1012.88
1383.572	1002.88
1388.327	1014.88
1393.079	1005.88
1397.825	1003.88
1402.567	985.88
1407.304	984.88
1412.036	984.88
1416.764	987.88
1421.487	976.88
1426.205	982.88
1430.919	988.88
1435.628	994.88
1440.333	1003.88
1445.032	1008.88
1449.727	1016.88
1454.418	1035.88
1459.104	1032.88
1463.785	1026.88
1468.462	1012.88
1473.134	1003.88
1477.802	995.88
1482.465	987.88
1487.123	976.88
1491.777	985.88
1496.426	980.88
1501.071	982.88
1505.711	988.88
1510.347	1015.88
1514.978	1023.88
1519.604	1028.88
1524.226	1037.88
1528.844	1042.88
1533.457	1026.88
1538.065	1040.88
1542.669	1032.88
1547.269	1033.88
1551.864	1039.88
1556.454	1023.88
1561.041	1063.88
1565.622	1049.88
1570.199	1066.88
1574.772	1079.88
1579.34	1111.88
1583.904	1136.88
1588.464	1144.88
1593.019	1156.88
1597.569	1171.88
1602.115	1191.88
1606.657	1201.88
1611.195	1217.88
1615.728	1216.88
1620.256	1231.88
1624.78	1252.88
1629.3	1267.88
1633.816	1298.88
1638.327	1306.88
1642.834	1332.88
1647.336	1334.88
1651.834	1346.88
1656.328	1341.88
1660.817	1327.88
1665.302	1310.88
1669.783	1297.88
1674.259	1249.88
1678.732	1216.88
1683.199	1183.88
1687.663	1149.88
1692.122	1104.88
1696.577	1058.88
1701.028	1024.88
1705.474	982.88
1709.917	951.88
1714.355	927.88
1718.788	897.88
1723.218	902.88
1727.643	888.88
1732.064	879.88
1736.481	850.88
1740.893	829.88
1745.301	810.88
1749.705	780.88
1754.105	777.88
1758.501	746.88
1762.893	745.88
1767.28	727.88
1771.663	711.88
1776.042	706.88
1780.417	704.88
1784.787	687.88
1789.154	711.88
1793.516	690.88
1797.874	694.88
1802.228	695.88
1806.578	689.88
1810.924	677.88
1815.266	671.88
1819.603	660.88
1823.937	644.88
1828.266	643.88
1832.591	644.88
1836.913	642.88
1841.23	632.88
1845.543	645.88
1849.852	635.88
1854.156	632.88
1858.457	637.88
1862.754	637.88
1867.047	647.88
1871.335	651.88
1875.62	654.88
1879.9	645.88
1884.177	662.88
1888.449	651.88
1892.718	645.88
1896.982	641.88
1901.243	641.88
1905.499	644.88
1909.752	637.88
1914	631.88
1918.245	635.88
1922.485	638.88
1926.722	627.88
1930.954	640.88
1935.183	646.88
1939.408	644.88
1943.628	629.88
1947.845	645.88
1952.058	648.88
1956.267	647.88
1960.472	640.88
1964.673	635.88
1968.87	633.88
1973.063	628.88
1977.252	623.88
1981.438	619.88
1985.619	614.88
1989.797	613.88
1993.971	628.88
1998.14	615.88
2002.306	631.88
2006.469	619.88
2010.627	628.88
2014.781	627.88
2018.932	634.88
2023.078	633.88
2027.221	633.88
2031.36	619.88
2035.495	620.88
2039.627	611.88
2043.754	613.88
2047.878	609.88
2051.998	603.88
2056.114	610.88
2060.226	612.88
2064.334	604.88
2068.439	605.88
2072.54	612.88
2076.637	624.88
2080.73	612.88
2084.82	613.88
2088.906	619.88
2092.988	619.88
2097.066	610.88
2101.14	601.88
2105.211	614.88
2109.278	608.88
2113.342	600.88
2117.401	606.88
2121.457	595.88
2125.509	600.88
2129.558	592.88
2133.602	597.88
2137.643	592.88
2141.681	590.88
2145.714	585.88
2149.744	593.88
2153.77	591.88
2157.793	586.88
2161.812	574.88
2165.827	563.88
2169.838	562.88
2173.846	550.88
2177.851	551.88
2181.851	536.88
2185.848	552.88
2189.841	535.88
2193.831	536.88
2197.817	521.88
2201.799	520.88
2205.778	527.88
2209.753	511.88
2213.725	503.88
2217.693	516.88
2221.657	504.88
2225.618	506.88
2229.575	501.88
2233.529	506.88
2237.479	509.88
2241.425	498.88
2245.368	493.88
2249.307	483.88
2253.243	472.88
2257.175	475.88
2261.104	466.88
2265.029	464.88
2268.95	455.88
2272.868	443.88
2276.783	447.88
2280.694	440.88
2284.601	437.88
2288.505	441.88
2292.405	427.88
2296.302	428.88
2300.195	419.88
2304.085	420.88
2307.971	413.88
2311.854	409.88
2315.734	402.88
2319.609	385.88
2323.482	385.88
2327.351	385.88
2331.216	371.88
2335.078	377.88
2338.937	376.88
2342.792	377.88
2346.643	368.88
2350.492	365.88
2354.336	368.88
2358.178	366.88
2362.015	370.88
2365.85	363.88
2369.681	370.88
2373.508	369.88
2377.333	377.88
2381.153	366.88
2384.971	372.88
2388.785	367.88
2392.595	364.88
2396.402	365.88
2400.206	359.88
2404.007	358.88
2407.804	365.88
2411.597	360.88
2415.388	353.88
2419.174	355.88
2422.958	356.88
2426.738	351.88
2430.515	349.88
2434.289	360.88
2438.059	340.88
2441.825	334.88
2445.589	341.88
2449.349	337.88
2453.106	339.88
2456.859	338.88
2460.61	331.88
2464.356	327.88
2468.1	322.88
2471.84	328.88
2475.577	321.88
2479.311	319.88
2483.041	324.88
2486.768	321.88
2490.492	313.88
2494.213	324.88
2497.93	323.88
2501.644	322.88
2505.355	325.88
2509.062	323.88
2512.766	330.88
2516.467	328.88
2520.165	322.88
2523.859	312.88
2527.551	314.88
2531.239	314.88
2534.923	312.88
2538.605	305.88
2542.283	308.88
2545.958	301.88
2549.63	294.88
2553.299	308.88
2556.964	299.88
2560.626	293.88
2564.285	297.88
2567.941	295.88
2571.594	296.88
2575.243	295.88
2578.89	284.88
2582.533	278.88
2586.173	285.88
2589.809	282.88
2593.443	282.88
2597.073	273.88
2600.701	277.88
2604.325	275.88
2607.946	275.88
2611.564	267.88
2615.178	269.88
2618.79	273.88
2622.398	266.88
2626.004	264.88
2629.606	271.88
2633.205	269.88
2636.801	256.88
2640.394	261.88
2643.983	253.88
2647.57	257.88
2651.153	251.88
2654.734	248.88
2658.311	250.88
2661.885	243.88
2665.456	245.88
2669.025	247.88
2672.589	247.88
2676.151	242.88
2679.71	236.88
2683.266	242.88
2686.819	237.88
2690.368	236.88
2693.915	228.88
2697.458	230.88
2700.999	222.88
2704.536	226.88
2708.071	223.88
2711.602	227.88
2715.13	219.88
2718.656	226.88
2722.178	215.88
2725.697	218.88
2729.214	218.88
2732.727	220.88
2736.237	219.88
2739.744	231.88
2743.249	225.88
2746.75	219.88
2750.248	214.88
2753.743	222.88
2757.236	219.88
2760.725	217.88
2764.211	214.88
2767.695	213.88
2771.175	213.88
2774.652	211.88
2778.127	207.88
2781.598	211.88
2785.067	215.88
2788.532	209.88
2791.995	202.88
2795.455	212.88
2798.911	208.88
2802.365	218.88
2805.816	216.88
2809.264	225.88
2812.709	217.88
2816.151	219.88
2819.59	213.88
2823.026	219.88
2826.46	223.88
2829.89	218.88
2833.318	228.88
2836.742	229.88
2840.164	215.88
2843.583	223.88
2846.999	230.88
2850.412	240.88
2853.822	235.88
2857.229	236.88
2860.634	233.88
2864.035	238.88
2867.434	247.88
2870.83	237.88
2874.223	241.88
2877.613	250.88
2881	242.88
2884.385	256.88
2887.766	249.88
2891.145	248.88
2894.521	249.88
2897.894	256.88
2901.264	248.88
2904.631	252.88
2907.996	249.88
2911.358	261.88
2914.717	265.88
2918.073	269.88
2921.426	260.88
2924.777	275.88
2928.124	284.88
2931.469	280.88
2934.811	285.88
2938.15	296.88
2941.487	298.88
2944.821	302.88
2948.152	308.88
2951.48	317.88
2954.805	310.88
2958.128	306.88
2961.447	315.88
2964.765	318.88
2968.079	323.88
2971.39	333.88
2974.699	343.88
2978.005	340.88
2981.308	345.88
2984.609	357.88
2987.907	362.88
2991.202	374.88
2994.494	378.88
2997.784	394.88
3001.07	399.88
3004.355	412.88
3007.636	427.88
3010.915	439.88
3014.191	439.88
3017.464	442.88
3020.734	452.88
3024.002	457.88
3027.267	464.88
3030.53	480.88
3033.789	475.88
3037.046	486.88
3040.301	501.88
3043.552	526.88
3046.801	525.88
3050.048	538.88
3053.291	547.88
3056.532	571.88
3059.771	583.88
3063.006	597.88
3066.239	608.88
3069.469	630.88
3072.697	652.88
3075.922	662.88
3079.144	692.88
3082.364	686.88
3085.581	719.88
3088.795	734.88
3092.007	750.88
3095.216	766.88
3098.423	781.88
3101.627	797.88
3104.828	812.88
3108.026	830.88
3111.222	841.88
3114.416	862.88
3117.607	887.88
3120.795	893.88
3123.98	921.88
3127.163	954.88
3130.344	973.88
3133.521	972.88
3136.696	1005.88
3139.869	1023.88
3143.039	1055.88
3146.206	1061.88
3149.371	1070.88
3152.533	1084.88
3155.693	1105.88
3158.85	1113.88
3162.005	1114.88
3165.157	1124.88
3168.306	1133.88
3171.453	1133.88
3174.597	1123.88
3177.739	1130.88
3180.878	1150.88
3184.014	1142.88
3187.149	1152.88
3190.28	1142.88
3193.409	1155.88
3196.536	1165.88
3199.659	1168.88
3202.781	1172.88
3205.9	1176.88
3209.016	1170.88
3212.13	1178.88
3215.241	1156.88
3218.35	1160.88
3221.456	1151.88
3224.56	1141.88
3227.661	1140.88
3230.76	1139.88
3233.856	1109.88
3236.95	1105.88
3240.041	1085.88
3243.13	1087.88
3246.216	1080.88
3249.3	1067.88
3252.382	1083.88
3255.46	1056.88
3258.537	1060.88
3261.611	1050.88
3264.682	1045.88
3267.751	1045.88
3270.818	1031.88
3273.882	1042.88
3276.943	1036.88
3280.002	1030.88
3283.059	1013.88
3286.113	1011.88
3289.165	993.88
3292.214	986.88
3295.261	975.88
3298.306	965.88
3301.348	938.88
3304.387	922.88
3307.425	908.88
3310.459	907.88
3313.492	906.88
3316.521	891.88
3319.549	874.88
3322.574	872.88
3325.597	862.88
3328.617	871.88
3331.635	844.88
3334.65	843.88
3337.663	844.88
3340.674	841.88
3343.682	834.88
3346.688	840.88
3349.691	836.88
3352.692	828.88
3355.691	825.88
3358.687	825.88
3361.681	812.88
3364.673	811.88
3367.662	800.88
3370.649	779.88
3373.633	774.88
3376.615	771.88
3379.595	759.88
3382.572	752.88
3385.547	742.88
3388.52	726.88
3391.49	720.88
3394.458	725.88
3397.424	707.88
3400.387	695.88
3403.348	692.88
3406.307	671.88
3409.263	667.88
3412.217	653.88
3415.168	665.88
3418.118	656.88
3421.065	643.88
3424.009	635.88
3426.951	635.88
3429.891	612.88
3432.829	605.88
3435.764	605.88
3438.697	595.88
3441.628	573.88
3444.557	563.88
3447.483	552.88
3450.407	529.88
3453.328	528.88
3456.247	494.88
3459.164	489.88
3462.079	492.88
3464.991	474.88
3467.902	448.88
3470.809	446.88
3473.715	437.88
3476.618	409.88
3479.519	408.88
3482.418	386.88
3485.315	387.88
3488.209	373.88
3491.101	362.88
3493.99	356.88
3496.878	341.88
3499.763	331.88
3502.646	327.88
3505.527	318.88
3508.405	308.88
3511.281	296.88
3514.155	277.88
3517.027	278.88
3519.897	272.88
3522.764	253.88
3525.629	243.88
3528.492	233.88
3531.352	222.88
3534.211	214.88
3537.067	203.88
3539.921	185.88
3542.773	193.88
3545.622	175.88
3548.469	171.88
3551.315	150.88
3554.157	148.88
3556.998	141.88
3559.837	132.88
3562.673	131.88
3565.507	125.88
3568.339	117.88
3571.169	116.88
3573.996	106.88
3576.822	103.88
3579.645	95.88
3582.466	90.88
3585.285	90.88
3588.101	78.88
3590.916	71.88
3593.728	61.88
3596.538	62.88
3599.346	61.88
3602.152	51.88
3604.956	46.88
3607.757	42.88
3610.556	40.88
3613.354	31.88
3616.149	30.88
3618.942	25.88
3621.732	23.88
3624.521	18.88
3627.307	17.88
3630.092	17.88
3632.874	12.88
3635.654	12.88
3638.432	7.88
3641.208	9.88
3643.982	7.88
3646.753	2.88
3649.523	2.88
3652.29	-0.12
3655.055	-0.12
3657.818	-8.12
3660.579	-9.12
3663.338	-12.12
3666.095	-11.12
3668.849	-14.12
3671.602	-12.12
3674.352	-21.12
3677.101	-23.12
3679.847	-26.12
3682.591	-26.12
3685.333	-29.12
3688.073	-33.12
3690.811	-32.12
3693.547	-33.12
3696.281	-36.12
3699.013	-34.12
3701.742	-39.12
3704.47	-39.12
3707.195	-36.12
3709.919	-42.12
3712.64	-42.12
3715.359	-43.12
3718.076	-45.12
3720.792	-47.12
3723.505	-45.12
3726.216	-45.12
3728.925	-49.12
3731.632	-47.12
3734.336	-50.12
3737.039	-49.12
3739.74	-48.12
3742.439	-50.12
3745.136	-51.12
3747.83	-50.12
3750.523	-53.12
3753.213	-51.12
3755.902	-53.12
3758.589	-55.12
3761.273	-56.12
3763.956	-56.12
3766.636	-60.12
3769.315	-59.12
3771.991	-61.12
3774.665	-60.12
3777.338	-60.12
3780.008	-59.12
3782.677	-63.12
3785.343	-60.12
3788.007	-56.12
3790.67	-59.12
3793.33	-62.12
3795.989	-59.12
3798.645	-62.12
3801.299	-61.12
3803.952	-62.12
3806.602	-63.12
3809.251	-62.12
3811.897	-59.12
3814.542	-62.12
3817.184	-62.12
3819.825	-57.12
3822.463	-59.12
3825.1	-57.12
3827.735	-59.12
3830.367	-61.12
3832.998	-64.12
3835.627	-61.12
3838.253	-59.12
3840.878	-65.12
3843.501	-58.12
3846.122	-62.12
3848.741	-64.12
3851.358	-66.12
3853.973	-63.12
3856.586	-61.12
3859.197	-66.12
3861.806	-68.12
3864.414	-67.12
3867.019	-67.12
3869.622	-72.12
3872.224	-69.12
3874.823	-65.12
3877.421	-69.12
3880.016	-65.12
3882.61	-59.12
3885.202	-64.12
3887.792	-59.12
3890.38	-62.12
3892.966	-65.12
3895.55	-69.12
3898.132	-67.12
3900.713	-69.12
3903.291	-71.12
3905.868	-67.12
3908.442	-68.12
3911.015	-68.12
3913.586	-69.12
3916.155	-68.12
3918.722	-69.12
3921.287	-68.12
3923.85	-70.12
3926.411	-66.12
3928.971	-70.12
3931.528	-71.12
3934.084	-72.12
3936.638	-70.12
3939.19	-70.12
3941.74	-68.12
3944.288	-70.12
3946.834	-67.12
3949.378	-74.12
3951.921	-70.12
3954.462	-72.12
3957	-65.12
3959.537	-68.12
3962.072	-71.12
3964.606	-68.12
3967.137	-69.12
3969.667	-69.12
3972.194	-68.12
3974.72	-65.12
3977.244	-68.12
3979.766	-66.12
3982.286	-66.12
3984.805	-68.12
3987.321	-69.12
3989.836	-68.12
3992.349	-71.12
3994.86	-71.12
3997.369	-71.12
3999.877	-68.12
4002.382	-66.12
4004.886	-67.12
4007.388	-69.12
4009.888	-69.12
4012.386	-65.12
4014.883	-72.12
4017.377	-70.12
4019.87	-68.12
4022.361	-68.12
4024.85	-69.12
4027.338	-67.12
4029.823	-67.12
4032.307	-70.12
4034.789	-70.12
4037.269	-70.12
4039.747	-67.12
4042.224	-69.12
4044.699	-72.12
4047.172	-68.12
4049.643	-65.12
4052.112	-64.12
4054.58	-66.12
4057.046	-67.12
4059.51	-64.12
4061.972	-68.12
4064.432	-71.12
4066.891	-65.12
4069.348	-69.12
4071.803	-68.12
4074.256	-68.12
4076.708	-67.12
4079.158	-68.12
4081.606	-70.12
4084.052	-66.12
4086.497	-70.12
4088.939	-71.12
4091.38	-71.12
4093.819	-70.12
4096.257	-72.12
4098.693	-73.12
4101.127	-72.12
4103.559	-71.12
4105.989	-27.12
4108.418	-24.12
4110.845	-19.12
4113.27	-19.12
4115.694	-16.12
4118.115	-6.12
4120.535	-69.12
4122.954	-75.12
4125.37	-71.12
4127.785	-71.12
4130.198	-70.12
4132.609	-70.12
4135.019	-77.12
4137.427	-75.12
4139.833	-72.12
4142.237	-74.12
