Data from 100000CFU2_A_ramanshift_RamanShift_11-52-37-681.txt Node
Date: Sun Jan 01 11:52:37 IST 2017
User: aro
Spectrometer: QEPB0276
Trigger mode: 0
Integration Time (sec): 5.000000E0
Scans to average: 1
Electric dark correction enabled: true
Nonlinearity correction enabled: false
Boxcar width: 0
XAxis mode: Raman Shifts
Number of Pixels in Spectrum: 1044
>>>>>Begin Spectral Data<<<<<
160.701	1.88
166.742	21.88
172.777	60.88
178.805	203.88
184.826	596.88
190.841	1448.88
196.849	2730.88
202.85	3964.88
208.845	4582.88
214.833	4595.88
220.815	4447.88
226.789	4271.88
232.758	4154.88
238.719	4051.88
244.674	3947.88
250.623	3806.88
256.565	3612.88
262.5	3474.88
268.429	3313.88
274.351	3218.88
280.267	3055.88
286.176	2962.88
292.079	2859.88
297.975	2799.88
303.865	2690.88
309.748	2628.88
315.625	2549.88
321.495	2499.88
327.359	2469.88
333.217	2435.88
339.068	2414.88
344.912	2384.88
350.751	2371.88
356.583	2370.88
362.408	2359.88
368.227	2385.88
374.04	2376.88
379.847	2351.88
385.647	2374.88
391.44	2398.88
397.228	2419.88
403.009	2414.88
408.784	2408.88
414.553	2428.88
420.315	2441.88
426.071	2442.88
431.821	2431.88
437.565	2432.88
443.302	2439.88
449.033	2415.88
454.758	2423.88
460.477	2403.88
466.189	2399.88
471.896	2402.88
477.596	2385.88
483.29	2372.88
488.978	2365.88
494.66	2349.88
500.335	2322.88
506.005	2294.88
511.668	2239.88
517.325	2206.88
522.977	2176.88
528.622	2123.88
534.261	2111.88
539.894	2078.88
545.521	2074.88
551.141	2080.88
556.756	2056.88
562.365	2042.88
567.968	2026.88
573.565	2020.88
579.155	2019.88
584.74	1993.88
590.319	1982.88
595.892	1971.88
601.459	1950.88
607.02	1929.88
612.575	1948.88
618.124	1919.88
623.667	1903.88
629.204	1888.88
634.735	1864.88
640.261	1864.88
645.781	1838.88
651.294	1834.88
656.802	1817.88
662.304	1817.88
667.8	1813.88
673.29	1804.88
678.775	1786.88
684.254	1793.88
689.726	1781.88
695.193	1768.88
700.655	1761.88
706.11	1742.88
711.56	1731.88
717.004	1720.88
722.442	1714.88
727.874	1712.88
733.301	1697.88
738.722	1689.88
744.137	1676.88
749.547	1698.88
754.951	1660.88
760.349	1672.88
765.741	1657.88
771.128	1663.88
776.509	1666.88
781.885	1662.88
787.254	1650.88
792.618	1650.88
797.977	1644.88
803.33	1640.88
808.677	1631.88
814.019	1613.88
819.355	1593.88
824.686	1576.88
830.011	1577.88
835.33	1545.88
840.644	1551.88
845.952	1551.88
851.255	1549.88
856.552	1530.88
861.844	1533.88
867.13	1517.88
872.41	1514.88
877.686	1503.88
882.955	1487.88
888.219	1473.88
893.478	1464.88
898.731	1437.88
903.979	1407.88
909.221	1389.88
914.458	1396.88
919.69	1370.88
924.916	1394.88
930.136	1387.88
935.351	1375.88
940.561	1372.88
945.766	1371.88
950.965	1363.88
956.158	1368.88
961.347	1356.88
966.529	1326.88
971.707	1285.88
976.879	1288.88
982.046	1281.88
987.208	1291.88
992.364	1275.88
997.515	1259.88
1002.66	1274.88
1007.801	1288.88
1012.936	1299.88
1018.066	1307.88
1023.19	1316.88
1028.309	1320.88
1033.423	1315.88
1038.532	1329.88
1043.636	1313.88
1048.734	1290.88
1053.827	1290.88
1058.915	1274.88
1063.998	1268.88
1069.075	1271.88
1074.147	1255.88
1079.214	1263.88
1084.276	1275.88
1089.333	1287.88
1094.385	1296.88
1099.431	1293.88
1104.472	1305.88
1109.509	1303.88
1114.54	1301.88
1119.565	1275.88
1124.586	1260.88
1129.602	1261.88
1134.613	1250.88
1139.618	1243.88
1144.619	1244.88
1149.614	1237.88
1154.604	1244.88
1159.589	1248.88
1164.57	1247.88
1169.545	1256.88
1174.515	1244.88
1179.48	1257.88
1184.44	1248.88
1189.395	1254.88
1194.345	1240.88
1199.29	1226.88
1204.23	1227.88
1209.165	1231.88
1214.095	1227.88
1219.021	1239.88
1223.941	1257.88
1228.856	1279.88
1233.766	1263.88
1238.672	1280.88
1243.572	1268.88
1248.467	1268.88
1253.358	1274.88
1258.244	1255.88
1263.124	1236.88
1268	1233.88
1272.871	1195.88
1277.737	1198.88
1282.599	1199.88
1287.455	1190.88
1292.306	1188.88
1297.153	1200.88
1301.995	1204.88
1306.832	1227.88
1311.664	1210.88
1316.491	1231.88
1321.314	1241.88
1326.132	1222.88
1330.945	1214.88
1335.753	1180.88
1340.556	1185.88
1345.354	1175.88
1350.148	1162.88
1354.937	1137.88
1359.722	1127.88
1364.501	1120.88
1369.276	1094.88
1374.046	1080.88
1378.811	1090.88
1383.572	1101.88
1388.327	1086.88
1393.079	1092.88
1397.825	1084.88
1402.567	1090.88
1407.304	1068.88
1412.036	1069.88
1416.764	1075.88
1421.487	1065.88
1426.205	1073.88
1430.919	1084.88
1435.628	1079.88
1440.333	1107.88
1445.032	1097.88
1449.727	1129.88
1454.418	1129.88
1459.104	1117.88
1463.785	1118.88
1468.462	1107.88
1473.134	1086.88
1477.802	1089.88
1482.465	1077.88
1487.123	1082.88
1491.777	1062.88
1496.426	1062.88
1501.071	1085.88
1505.711	1093.88
1510.347	1094.88
1514.978	1120.88
1519.604	1112.88
1524.226	1130.88
1528.844	1110.88
1533.457	1122.88
1538.065	1123.88
1542.669	1126.88
1547.269	1115.88
1551.864	1123.88
1556.454	1122.88
1561.041	1142.88
1565.622	1141.88
1570.199	1168.88
1574.772	1165.88
1579.34	1196.88
1583.904	1222.88
1588.464	1234.88
1593.019	1251.88
1597.569	1283.88
1602.115	1270.88
1606.657	1284.88
1611.195	1311.88
1615.728	1310.88
1620.256	1328.88
1624.78	1327.88
1629.3	1359.88
1633.816	1371.88
1638.327	1387.88
1642.834	1393.88
1647.336	1415.88
1651.834	1412.88
1656.328	1422.88
1660.817	1405.88
1665.302	1415.88
1669.783	1350.88
1674.259	1343.88
1678.732	1280.88
1683.199	1265.88
1687.663	1227.88
1692.122	1192.88
1696.577	1131.88
1701.028	1103.88
1705.474	1042.88
1709.917	1001.88
1714.355	970.88
1718.788	969.88
1723.218	972.88
1727.643	952.88
1732.064	952.88
1736.481	932.88
1740.893	901.88
1745.301	887.88
1749.705	860.88
1754.105	848.88
1758.501	833.88
1762.893	814.88
1767.28	807.88
1771.663	799.88
1776.042	789.88
1780.417	775.88
1784.787	784.88
1789.154	780.88
1793.516	781.88
1797.874	775.88
1802.228	778.88
1806.578	768.88
1810.924	754.88
1815.266	755.88
1819.603	739.88
1823.937	727.88
1828.266	729.88
1832.591	718.88
1836.913	730.88
1841.23	712.88
1845.543	707.88
1849.852	716.88
1854.156	727.88
1858.457	719.88
1862.754	727.88
1867.047	724.88
1871.335	718.88
1875.62	740.88
1879.9	719.88
1884.177	733.88
1888.449	734.88
1892.718	716.88
1896.982	723.88
1901.243	708.88
1905.499	716.88
1909.752	710.88
1914	719.88
1918.245	708.88
1922.485	719.88
1926.722	715.88
1930.954	724.88
1935.183	709.88
1939.408	722.88
1943.628	723.88
1947.845	722.88
1952.058	726.88
1956.267	706.88
1960.472	707.88
1964.673	699.88
1968.87	706.88
1973.063	702.88
1977.252	685.88
1981.438	685.88
1985.619	680.88
1989.797	690.88
1993.971	687.88
1998.14	691.88
2002.306	700.88
2006.469	708.88
2010.627	699.88
2014.781	705.88
2018.932	699.88
2023.078	712.88
2027.221	690.88
2031.36	694.88
2035.495	692.88
2039.627	678.88
2043.754	673.88
2047.878	684.88
2051.998	675.88
2056.114	684.88
2060.226	677.88
2064.334	684.88
2068.439	684.88
2072.54	673.88
2076.637	688.88
2080.73	683.88
2084.82	683.88
2088.906	674.88
2092.988	679.88
2097.066	680.88
2101.14	677.88
2105.211	678.88
2109.278	668.88
2113.342	669.88
2117.401	657.88
2121.457	662.88
2125.509	656.88
2129.558	655.88
2133.602	659.88
2137.643	660.88
2141.681	652.88
2145.714	648.88
2149.744	649.88
2153.77	647.88
2157.793	646.88
2161.812	638.88
2165.827	629.88
2169.838	632.88
2173.846	622.88
2177.851	605.88
2181.851	603.88
2185.848	591.88
2189.841	594.88
2193.831	594.88
2197.817	582.88
2201.799	586.88
2205.778	575.88
2209.753	588.88
2213.725	575.88
2217.693	581.88
2221.657	579.88
2225.618	566.88
2229.575	567.88
2233.529	573.88
2237.479	568.88
2241.425	568.88
2245.368	560.88
2249.307	543.88
2253.243	543.88
2257.175	536.88
2261.104	538.88
2265.029	521.88
2268.95	523.88
2272.868	507.88
2276.783	502.88
2280.694	505.88
2284.601	489.88
2288.505	496.88
2292.405	496.88
2296.302	488.88
2300.195	475.88
2304.085	475.88
2307.971	468.88
2311.854	465.88
2315.734	448.88
2319.609	449.88
2323.482	441.88
2327.351	443.88
2331.216	434.88
2335.078	429.88
2338.937	429.88
2342.792	428.88
2346.643	426.88
2350.492	417.88
2354.336	424.88
2358.178	418.88
2362.015	423.88
2365.85	420.88
2369.681	419.88
2373.508	431.88
2377.333	428.88
2381.153	432.88
2384.971	429.88
2388.785	430.88
2392.595	426.88
2396.402	417.88
2400.206	417.88
2404.007	420.88
2407.804	426.88
2411.597	416.88
2415.388	421.88
2419.174	415.88
2422.958	411.88
2426.738	396.88
2430.515	407.88
2434.289	407.88
2438.059	402.88
2441.825	408.88
2445.589	401.88
2449.349	399.88
2453.106	394.88
2456.859	398.88
2460.61	394.88
2464.356	391.88
2468.1	385.88
2471.84	391.88
2475.577	381.88
2479.311	378.88
2483.041	371.88
2486.768	380.88
2490.492	379.88
2494.213	372.88
2497.93	382.88
2501.644	380.88
2505.355	374.88
2509.062	375.88
2512.766	380.88
2516.467	378.88
2520.165	375.88
2523.859	375.88
2527.551	375.88
2531.239	368.88
2534.923	357.88
2538.605	361.88
2542.283	361.88
2545.958	359.88
2549.63	355.88
2553.299	353.88
2556.964	349.88
2560.626	348.88
2564.285	345.88
2567.941	348.88
2571.594	343.88
2575.243	342.88
2578.89	335.88
2582.533	332.88
2586.173	332.88
2589.809	331.88
2593.443	329.88
2597.073	322.88
2600.701	324.88
2604.325	322.88
2607.946	322.88
2611.564	321.88
2615.178	319.88
2618.79	321.88
2622.398	319.88
2626.004	312.88
2629.606	321.88
2633.205	312.88
2636.801	314.88
2640.394	314.88
2643.983	315.88
2647.57	300.88
2651.153	300.88
2654.734	296.88
2658.311	292.88
2661.885	290.88
2665.456	291.88
2669.025	297.88
2672.589	286.88
2676.151	284.88
2679.71	282.88
2683.266	286.88
2686.819	282.88
2690.368	275.88
2693.915	273.88
2697.458	270.88
2700.999	268.88
2704.536	273.88
2708.071	263.88
2711.602	256.88
2715.13	259.88
2718.656	258.88
2722.178	253.88
2725.697	256.88
2729.214	253.88
2732.727	264.88
2736.237	253.88
2739.744	254.88
2743.249	257.88
2746.75	260.88
2750.248	254.88
2753.743	262.88
2757.236	257.88
2760.725	261.88
2764.211	253.88
2767.695	253.88
2771.175	243.88
2774.652	244.88
2778.127	244.88
2781.598	238.88
2785.067	246.88
2788.532	247.88
2791.995	241.88
2795.455	243.88
2798.911	240.88
2802.365	246.88
2805.816	251.88
2809.264	254.88
2812.709	249.88
2816.151	248.88
2819.59	249.88
2823.026	254.88
2826.46	248.88
2829.89	250.88
2833.318	254.88
2836.742	261.88
2840.164	252.88
2843.583	254.88
2846.999	264.88
2850.412	261.88
2853.822	270.88
2857.229	260.88
2860.634	261.88
2864.035	268.88
2867.434	273.88
2870.83	267.88
2874.223	267.88
2877.613	273.88
2881	272.88
2884.385	268.88
2887.766	284.88
2891.145	284.88
2894.521	270.88
2897.894	275.88
2901.264	279.88
2904.631	272.88
2907.996	271.88
2911.358	284.88
2914.717	285.88
2918.073	283.88
2921.426	292.88
2924.777	293.88
2928.124	295.88
2931.469	306.88
2934.811	302.88
2938.15	314.88
2941.487	320.88
2944.821	324.88
2948.152	318.88
2951.48	326.88
2954.805	326.88
2958.128	330.88
2961.447	330.88
2964.765	341.88
2968.079	348.88
2971.39	347.88
2974.699	356.88
2978.005	363.88
2981.308	364.88
2984.609	372.88
2987.907	374.88
2991.202	383.88
2994.494	380.88
2997.784	414.88
3001.07	414.88
3004.355	417.88
3007.636	440.88
3010.915	434.88
3014.191	447.88
3017.464	446.88
3020.734	465.88
3024.002	459.88
3027.267	478.88
3030.53	493.88
3033.789	492.88
3037.046	495.88
3040.301	501.88
3043.552	515.88
3046.801	531.88
3050.048	552.88
3053.291	556.88
3056.532	571.88
3059.771	593.88
3063.006	599.88
3066.239	624.88
3069.469	642.88
3072.697	665.88
3075.922	671.88
3079.144	694.88
3082.364	703.88
3085.581	716.88
3088.795	723.88
3092.007	750.88
3095.216	758.88
3098.423	768.88
3101.627	793.88
3104.828	809.88
3108.026	803.88
3111.222	850.88
3114.416	862.88
3117.607	876.88
3120.795	891.88
3123.98	915.88
3127.163	935.88
3130.344	965.88
3133.521	962.88
3136.696	993.88
3139.869	1002.88
3143.039	1025.88
3146.206	1042.88
3149.371	1053.88
3152.533	1065.88
3155.693	1073.88
3158.85	1086.88
3162.005	1081.88
3165.157	1093.88
3168.306	1098.88
3171.453	1110.88
3174.597	1117.88
3177.739	1100.88
3180.878	1120.88
3184.014	1118.88
3187.149	1123.88
3190.28	1135.88
3193.409	1142.88
3196.536	1151.88
3199.659	1140.88
3202.781	1150.88
3205.9	1143.88
3209.016	1154.88
3212.13	1141.88
3215.241	1134.88
3218.35	1128.88
3221.456	1129.88
3224.56	1104.88
3227.661	1091.88
3230.76	1095.88
3233.856	1076.88
3236.95	1064.88
3240.041	1058.88
3243.13	1044.88
3246.216	1046.88
3249.3	1046.88
3252.382	1024.88
3255.46	1023.88
3258.537	1004.88
3261.611	1005.88
3264.682	1019.88
3267.751	1006.88
3270.818	1005.88
3273.882	1004.88
3276.943	990.88
3280.002	998.88
3283.059	984.88
3286.113	985.88
3289.165	989.88
3292.214	951.88
3295.261	956.88
3298.306	930.88
3301.348	910.88
3304.387	906.88
3307.425	890.88
3310.459	884.88
3313.492	870.88
3316.521	849.88
3319.549	851.88
3322.574	849.88
3325.597	835.88
3328.617	839.88
3331.635	830.88
3334.65	824.88
3337.663	813.88
3340.674	822.88
3343.682	815.88
3346.688	810.88
3349.691	811.88
3352.692	812.88
3355.691	801.88
3358.687	807.88
3361.681	785.88
3364.673	776.88
3367.662	773.88
3370.649	757.88
3373.633	757.88
3376.615	745.88
3379.595	732.88
3382.572	726.88
3385.547	730.88
3388.52	702.88
3391.49	701.88
3394.458	696.88
3397.424	685.88
3400.387	679.88
3403.348	659.88
3406.307	651.88
3409.263	649.88
3412.217	643.88
3415.168	636.88
3418.118	623.88
3421.065	616.88
3424.009	621.88
3426.951	615.88
3429.891	599.88
3432.829	595.88
3435.764	584.88
3438.697	575.88
3441.628	547.88
3444.557	528.88
3447.483	534.88
3450.407	522.88
3453.328	503.88
3456.247	489.88
3459.164	476.88
3462.079	471.88
3464.991	459.88
3467.902	434.88
3470.809	424.88
3473.715	412.88
3476.618	401.88
3479.519	398.88
3482.418	376.88
3485.315	366.88
3488.209	352.88
3491.101	346.88
3493.99	337.88
3496.878	321.88
3499.763	314.88
3502.646	313.88
3505.527	288.88
3508.405	283.88
3511.281	272.88
3514.155	273.88
3517.027	260.88
3519.897	244.88
3522.764	229.88
3525.629	229.88
3528.492	214.88
3531.352	201.88
3534.211	196.88
3537.067	184.88
3539.921	175.88
3542.773	170.88
3545.622	165.88
3548.469	144.88
3551.315	144.88
3554.157	137.88
3556.998	134.88
3559.837	124.88
3562.673	121.88
3565.507	113.88
3568.339	111.88
3571.169	98.88
3573.996	101.88
3576.822	96.88
3579.645	93.88
3582.466	88.88
3585.285	81.88
3588.101	72.88
3590.916	63.88
3593.728	62.88
3596.538	60.88
3599.346	49.88
3602.152	50.88
3604.956	44.88
3607.757	38.88
3610.556	35.88
3613.354	33.88
3616.149	26.88
3618.942	25.88
3621.732	22.88
3624.521	15.88
3627.307	16.88
3630.092	9.88
3632.874	12.88
3635.654	7.88
3638.432	7.88
3641.208	1.88
3643.982	2.88
3646.753	-2.12
3649.523	-5.12
3652.29	-9.12
3655.055	-7.12
3657.818	-10.12
3660.579	-16.12
3663.338	-14.12
3666.095	-13.12
3668.849	-17.12
3671.602	-15.12
3674.352	-23.12
3677.101	-23.12
3679.847	-24.12
3682.591	-27.12
3685.333	-28.12
3688.073	-33.12
3690.811	-31.12
3693.547	-36.12
3696.281	-38.12
3699.013	-36.12
3701.742	-37.12
3704.47	-37.12
3707.195	-35.12
3709.919	-41.12
3712.64	-44.12
3715.359	-46.12
3718.076	-41.12
3720.792	-47.12
3723.505	-47.12
3726.216	-42.12
3728.925	-47.12
3731.632	-51.12
3734.336	-51.12
3737.039	-51.12
3739.74	-52.12
3742.439	-49.12
3745.136	-50.12
3747.83	-53.12
3750.523	-53.12
3753.213	-54.12
3755.902	-55.12
3758.589	-52.12
3761.273	-58.12
3763.956	-56.12
3766.636	-59.12
3769.315	-58.12
3771.991	-57.12
3774.665	-57.12
3777.338	-59.12
3780.008	-57.12
3782.677	-61.12
3785.343	-57.12
3788.007	-57.12
3790.67	-59.12
3793.33	-63.12
3795.989	-57.12
3798.645	-59.12
3801.299	-60.12
3803.952	-61.12
3806.602	-60.12
3809.251	-66.12
3811.897	-59.12
3814.542	-65.12
3817.184	-63.12
3819.825	-58.12
3822.463	-61.12
3825.1	-60.12
3827.735	-57.12
3830.367	-64.12
3832.998	-64.12
3835.627	-62.12
3838.253	-63.12
3840.878	-66.12
3843.501	-64.12
3846.122	-64.12
3848.741	-66.12
3851.358	-71.12
3853.973	-66.12
3856.586	-69.12
3859.197	-69.12
3861.806	-68.12
3864.414	-69.12
3867.019	-69.12
3869.622	-71.12
3872.224	-67.12
3874.823	-67.12
3877.421	-70.12
3880.016	-67.12
3882.61	-63.12
3885.202	-68.12
3887.792	-61.12
3890.38	-62.12
3892.966	-64.12
3895.55	-64.12
3898.132	-64.12
3900.713	-69.12
3903.291	-71.12
3905.868	-66.12
3908.442	-68.12
3911.015	-66.12
3913.586	-68.12
3916.155	-67.12
3918.722	-69.12
3921.287	-67.12
3923.85	-70.12
3926.411	-69.12
3928.971	-68.12
3931.528	-69.12
3934.084	-72.12
3936.638	-73.12
3939.19	-71.12
3941.74	-71.12
3944.288	-71.12
3946.834	-70.12
3949.378	-72.12
3951.921	-72.12
3954.462	-73.12
3957	-70.12
3959.537	-72.12
3962.072	-72.12
3964.606	-70.12
3967.137	-70.12
3969.667	-71.12
3972.194	-73.12
3974.72	-70.12
3977.244	-68.12
3979.766	-67.12
3982.286	-68.12
3984.805	-68.12
3987.321	-68.12
3989.836	-66.12
3992.349	-71.12
3994.86	-71.12
3997.369	-69.12
3999.877	-67.12
4002.382	-65.12
4004.886	-67.12
4007.388	-69.12
4009.888	-68.12
4012.386	-63.12
4014.883	-68.12
4017.377	-69.12
4019.87	-67.12
4022.361	-67.12
4024.85	-69.12
4027.338	-68.12
4029.823	-67.12
4032.307	-70.12
4034.789	-68.12
4037.269	-71.12
4039.747	-68.12
4042.224	-69.12
4044.699	-69.12
4047.172	-68.12
4049.643	-67.12
4052.112	-67.12
4054.58	-66.12
4057.046	-70.12
4059.51	-67.12
4061.972	-69.12
4064.432	-72.12
4066.891	-69.12
4069.348	-72.12
4071.803	-73.12
4074.256	-72.12
4076.708	-71.12
4079.158	-72.12
4081.606	-73.12
4084.052	-72.12
4086.497	-73.12
4088.939	-74.12
4091.38	-74.12
4093.819	-73.12
4096.257	-73.12
4098.693	-75.12
4101.127	-74.12
4103.559	-74.12
4105.989	-29.12
4108.418	-23.12
4110.845	-24.12
4113.27	-21.12
4115.694	-13.12
4118.115	-7.12
4120.535	-74.12
4122.954	-73.12
4125.37	-72.12
4127.785	-72.12
4130.198	-70.12
4132.609	-70.12
4135.019	-73.12
4137.427	-73.12
4139.833	-70.12
4142.237	-72.12
