Data from 10000CFU2_A_ramanshift_RamanShift_11-48-02-713.txt Node
Date: Sun Jan 01 11:48:02 IST 2017
User: aro
Spectrometer: QEPB0276
Trigger mode: 0
Integration Time (sec): 5.000000E0
Scans to average: 1
Electric dark correction enabled: true
Nonlinearity correction enabled: false
Boxcar width: 0
XAxis mode: Raman Shifts
Number of Pixels in Spectrum: 1044
>>>>>Begin Spectral Data<<<<<
160.701	1.62
166.742	14.62
172.777	58.62
178.805	208.62
184.826	616.62
190.841	1497.62
196.849	2736.62
202.85	3946.62
208.845	4515.62
214.833	4501.62
220.815	4339.62
226.789	4175.62
232.758	4071.62
238.719	3954.62
244.674	3819.62
250.623	3679.62
256.565	3521.62
262.5	3351.62
268.429	3184.62
274.351	3037.62
280.267	2938.62
286.176	2846.62
292.079	2732.62
297.975	2656.62
303.865	2559.62
309.748	2493.62
315.625	2442.62
321.495	2364.62
327.359	2350.62
333.217	2303.62
339.068	2282.62
344.912	2287.62
350.751	2265.62
356.583	2235.62
362.408	2258.62
368.227	2238.62
374.04	2235.62
379.847	2247.62
385.647	2250.62
391.44	2236.62
397.228	2278.62
403.009	2272.62
408.784	2267.62
414.553	2293.62
420.315	2304.62
426.071	2281.62
431.821	2294.62
437.565	2295.62
443.302	2307.62
449.033	2277.62
454.758	2291.62
460.477	2290.62
466.189	2265.62
471.896	2256.62
477.596	2236.62
483.29	2226.62
488.978	2216.62
494.66	2212.62
500.335	2187.62
506.005	2162.62
511.668	2131.62
517.325	2086.62
522.977	2061.62
528.622	2023.62
534.261	2006.62
539.894	1992.62
545.521	1978.62
551.141	1952.62
556.756	1955.62
562.365	1925.62
567.968	1913.62
573.565	1882.62
579.155	1889.62
584.74	1868.62
590.319	1852.62
595.892	1845.62
601.459	1825.62
607.02	1837.62
612.575	1796.62
618.124	1790.62
623.667	1784.62
629.204	1750.62
634.735	1753.62
640.261	1740.62
645.781	1722.62
651.294	1699.62
656.802	1707.62
662.304	1692.62
667.8	1690.62
673.29	1680.62
678.775	1652.62
684.254	1670.62
689.726	1666.62
695.193	1640.62
700.655	1627.62
706.11	1624.62
711.56	1615.62
717.004	1595.62
722.442	1588.62
727.874	1587.62
733.301	1565.62
738.722	1577.62
744.137	1561.62
749.547	1531.62
754.951	1542.62
760.349	1540.62
765.741	1540.62
771.128	1541.62
776.509	1537.62
781.885	1522.62
787.254	1520.62
792.618	1537.62
797.977	1511.62
803.33	1511.62
808.677	1491.62
814.019	1475.62
819.355	1459.62
824.686	1443.62
830.011	1434.62
835.33	1429.62
840.644	1417.62
845.952	1420.62
851.255	1397.62
856.552	1406.62
861.844	1388.62
867.13	1392.62
872.41	1369.62
877.686	1366.62
882.955	1350.62
888.219	1328.62
893.478	1324.62
898.731	1276.62
903.979	1289.62
909.221	1234.62
914.458	1244.62
919.69	1236.62
924.916	1232.62
930.136	1240.62
935.351	1233.62
940.561	1211.62
945.766	1240.62
950.965	1214.62
956.158	1203.62
961.347	1194.62
966.529	1188.62
971.707	1163.62
976.879	1143.62
982.046	1130.62
987.208	1126.62
992.364	1118.62
997.515	1127.62
1002.66	1144.62
1007.801	1147.62
1012.936	1149.62
1018.066	1146.62
1023.19	1172.62
1028.309	1171.62
1033.423	1171.62
1038.532	1179.62
1043.636	1161.62
1048.734	1144.62
1053.827	1145.62
1058.915	1138.62
1063.998	1121.62
1069.075	1106.62
1074.147	1106.62
1079.214	1117.62
1084.276	1140.62
1089.333	1145.62
1094.385	1148.62
1099.431	1142.62
1104.472	1150.62
1109.509	1130.62
1114.54	1137.62
1119.565	1127.62
1124.586	1110.62
1129.602	1094.62
1134.613	1077.62
1139.618	1091.62
1144.619	1085.62
1149.614	1082.62
1154.604	1084.62
1159.589	1087.62
1164.57	1097.62
1169.545	1100.62
1174.515	1101.62
1179.48	1097.62
1184.44	1093.62
1189.395	1074.62
1194.345	1088.62
1199.29	1076.62
1204.23	1080.62
1209.165	1090.62
1214.095	1082.62
1219.021	1092.62
1223.941	1085.62
1228.856	1112.62
1233.766	1106.62
1238.672	1107.62
1243.572	1104.62
1248.467	1116.62
1253.358	1115.62
1258.244	1092.62
1263.124	1076.62
1268	1061.62
1272.871	1046.62
1277.737	1055.62
1282.599	1042.62
1287.455	1035.62
1292.306	1039.62
1297.153	1035.62
1301.995	1035.62
1306.832	1053.62
1311.664	1048.62
1316.491	1058.62
1321.314	1058.62
1326.132	1046.62
1330.945	1037.62
1335.753	1041.62
1340.556	1017.62
1345.354	1003.62
1350.148	1014.62
1354.937	983.62
1359.722	981.62
1364.501	967.62
1369.276	984.62
1374.046	963.62
1378.811	953.62
1383.572	939.62
1388.327	959.62
1393.079	954.62
1397.825	946.62
1402.567	935.62
1407.304	933.62
1412.036	936.62
1416.764	929.62
1421.487	919.62
1426.205	929.62
1430.919	926.62
1435.628	945.62
1440.333	952.62
1445.032	960.62
1449.727	968.62
1454.418	976.62
1459.104	978.62
1463.785	962.62
1468.462	972.62
1473.134	944.62
1477.802	928.62
1482.465	942.62
1487.123	924.62
1491.777	924.62
1496.426	937.62
1501.071	930.62
1505.711	938.62
1510.347	960.62
1514.978	967.62
1519.604	978.62
1524.226	976.62
1528.844	998.62
1533.457	986.62
1538.065	981.62
1542.669	987.62
1547.269	987.62
1551.864	990.62
1556.454	989.62
1561.041	982.62
1565.622	998.62
1570.199	1029.62
1574.772	1036.62
1579.34	1061.62
1583.904	1069.62
1588.464	1092.62
1593.019	1103.62
1597.569	1134.62
1602.115	1131.62
1606.657	1151.62
1611.195	1171.62
1615.728	1170.62
1620.256	1179.62
1624.78	1199.62
1629.3	1221.62
1633.816	1239.62
1638.327	1267.62
1642.834	1272.62
1647.336	1300.62
1651.834	1292.62
1656.328	1310.62
1660.817	1286.62
1665.302	1261.62
1669.783	1253.62
1674.259	1205.62
1678.732	1179.62
1683.199	1136.62
1687.663	1100.62
1692.122	1062.62
1696.577	1013.62
1701.028	985.62
1705.474	937.62
1709.917	908.62
1714.355	884.62
1718.788	868.62
1723.218	857.62
1727.643	832.62
1732.064	823.62
1736.481	806.62
1740.893	783.62
1745.301	761.62
1749.705	731.62
1754.105	731.62
1758.501	711.62
1762.893	694.62
1767.28	688.62
1771.663	665.62
1776.042	669.62
1780.417	657.62
1784.787	657.62
1789.154	658.62
1793.516	667.62
1797.874	654.62
1802.228	665.62
1806.578	643.62
1810.924	641.62
1815.266	619.62
1819.603	622.62
1823.937	620.62
1828.266	598.62
1832.591	598.62
1836.913	602.62
1841.23	597.62
1845.543	587.62
1849.852	597.62
1854.156	596.62
1858.457	589.62
1862.754	605.62
1867.047	596.62
1871.335	605.62
1875.62	599.62
1879.9	623.62
1884.177	614.62
1888.449	606.62
1892.718	605.62
1896.982	609.62
1901.243	609.62
1905.499	603.62
1909.752	609.62
1914	594.62
1918.245	603.62
1922.485	596.62
1926.722	609.62
1930.954	597.62
1935.183	601.62
1939.408	607.62
1943.628	601.62
1947.845	605.62
1952.058	613.62
1956.267	597.62
1960.472	609.62
1964.673	589.62
1968.87	587.62
1973.063	574.62
1977.252	582.62
1981.438	580.62
1985.619	570.62
1989.797	571.62
1993.971	579.62
1998.14	581.62
2002.306	585.62
2006.469	580.62
2010.627	579.62
2014.781	581.62
2018.932	587.62
2023.078	590.62
2027.221	578.62
2031.36	588.62
2035.495	578.62
2039.627	579.62
2043.754	568.62
2047.878	569.62
2051.998	571.62
2056.114	566.62
2060.226	575.62
2064.334	574.62
2068.439	574.62
2072.54	580.62
2076.637	584.62
2080.73	584.62
2084.82	576.62
2088.906	585.62
2092.988	579.62
2097.066	585.62
2101.14	578.62
2105.211	585.62
2109.278	575.62
2113.342	562.62
2117.401	570.62
2121.457	558.62
2125.509	561.62
2129.558	558.62
2133.602	561.62
2137.643	558.62
2141.681	554.62
2145.714	557.62
2149.744	548.62
2153.77	541.62
2157.793	553.62
2161.812	543.62
2165.827	537.62
2169.838	523.62
2173.846	514.62
2177.851	511.62
2181.851	510.62
2185.848	496.62
2189.841	491.62
2193.831	492.62
2197.817	485.62
2201.799	476.62
2205.778	486.62
2209.753	475.62
2213.725	481.62
2217.693	486.62
2221.657	484.62
2225.618	472.62
2229.575	472.62
2233.529	469.62
2237.479	465.62
2241.425	462.62
2245.368	460.62
2249.307	450.62
2253.243	447.62
2257.175	439.62
2261.104	437.62
2265.029	431.62
2268.95	418.62
2272.868	414.62
2276.783	406.62
2280.694	400.62
2284.601	394.62
2288.505	401.62
2292.405	396.62
2296.302	388.62
2300.195	388.62
2304.085	384.62
2307.971	368.62
2311.854	373.62
2315.734	372.62
2319.609	358.62
2323.482	356.62
2327.351	342.62
2331.216	342.62
2335.078	347.62
2338.937	340.62
2342.792	336.62
2346.643	345.62
2350.492	341.62
2354.336	337.62
2358.178	333.62
2362.015	330.62
2365.85	335.62
2369.681	348.62
2373.508	335.62
2377.333	339.62
2381.153	331.62
2384.971	336.62
2388.785	341.62
2392.595	326.62
2396.402	326.62
2400.206	320.62
2404.007	327.62
2407.804	320.62
2411.597	323.62
2415.388	322.62
2419.174	321.62
2422.958	321.62
2426.738	324.62
2430.515	321.62
2434.289	319.62
2438.059	313.62
2441.825	315.62
2445.589	312.62
2449.349	302.62
2453.106	315.62
2456.859	298.62
2460.61	309.62
2464.356	297.62
2468.1	299.62
2471.84	293.62
2475.577	293.62
2479.311	292.62
2483.041	291.62
2486.768	298.62
2490.492	295.62
2494.213	296.62
2497.93	301.62
2501.644	298.62
2505.355	293.62
2509.062	292.62
2512.766	291.62
2516.467	289.62
2520.165	288.62
2523.859	280.62
2527.551	282.62
2531.239	275.62
2534.923	282.62
2538.605	277.62
2542.283	278.62
2545.958	269.62
2549.63	274.62
2553.299	268.62
2556.964	272.62
2560.626	262.62
2564.285	264.62
2567.941	257.62
2571.594	263.62
2575.243	264.62
2578.89	245.62
2582.533	247.62
2586.173	258.62
2589.809	245.62
2593.443	257.62
2597.073	255.62
2600.701	252.62
2604.325	250.62
2607.946	243.62
2611.564	245.62
2615.178	247.62
2618.79	244.62
2622.398	245.62
2626.004	239.62
2629.606	246.62
2633.205	242.62
2636.801	245.62
2640.394	241.62
2643.983	239.62
2647.57	238.62
2651.153	237.62
2654.734	220.62
2658.311	227.62
2661.885	228.62
2665.456	217.62
2669.025	215.62
2672.589	216.62
2676.151	214.62
2679.71	221.62
2683.266	214.62
2686.819	216.62
2690.368	208.62
2693.915	206.62
2697.458	207.62
2700.999	206.62
2704.536	206.62
2708.071	199.62
2711.602	199.62
2715.13	196.62
2718.656	196.62
2722.178	194.62
2725.697	196.62
2729.214	197.62
2732.727	196.62
2736.237	194.62
2739.744	206.62
2743.249	196.62
2746.75	199.62
2750.248	197.62
2753.743	205.62
2757.236	205.62
2760.725	195.62
2764.211	192.62
2767.695	194.62
2771.175	187.62
2774.652	191.62
2778.127	194.62
2781.598	189.62
2785.067	192.62
2788.532	189.62
2791.995	183.62
2795.455	195.62
2798.911	194.62
2802.365	200.62
2805.816	189.62
2809.264	200.62
2812.709	198.62
2816.151	195.62
2819.59	200.62
2823.026	205.62
2826.46	201.62
2829.89	207.62
2833.318	202.62
2836.742	206.62
2840.164	198.62
2843.583	206.62
2846.999	209.62
2850.412	215.62
2853.822	212.62
2857.229	205.62
2860.634	209.62
2864.035	218.62
2867.434	228.62
2870.83	219.62
2874.223	226.62
2877.613	229.62
2881	216.62
2884.385	227.62
2887.766	230.62
2891.145	235.62
2894.521	231.62
2897.894	239.62
2901.264	245.62
2904.631	237.62
2907.996	239.62
2911.358	243.62
2914.717	247.62
2918.073	253.62
2921.426	252.62
2924.777	258.62
2928.124	257.62
2931.469	268.62
2934.811	270.62
2938.15	275.62
2941.487	279.62
2944.821	285.62
2948.152	287.62
2951.48	288.62
2954.805	291.62
2958.128	290.62
2961.447	304.62
2964.765	305.62
2968.079	308.62
2971.39	319.62
2974.699	327.62
2978.005	330.62
2981.308	333.62
2984.609	345.62
2987.907	350.62
2991.202	359.62
2994.494	377.62
2997.784	380.62
3001.07	394.62
3004.355	391.62
3007.636	417.62
3010.915	421.62
3014.191	421.62
3017.464	433.62
3020.734	434.62
3024.002	449.62
3027.267	453.62
3030.53	467.62
3033.789	476.62
3037.046	481.62
3040.301	501.62
3043.552	503.62
3046.801	517.62
3050.048	528.62
3053.291	542.62
3056.532	564.62
3059.771	580.62
3063.006	594.62
3066.239	613.62
3069.469	637.62
3072.697	654.62
3075.922	657.62
3079.144	681.62
3082.364	700.62
3085.581	717.62
3088.795	729.62
3092.007	741.62
3095.216	763.62
3098.423	780.62
3101.627	788.62
3104.828	815.62
3108.026	822.62
3111.222	844.62
3114.416	867.62
3117.607	877.62
3120.795	892.62
3123.98	916.62
3127.163	946.62
3130.344	961.62
3133.521	981.62
3136.696	1011.62
3139.869	1021.62
3143.039	1051.62
3146.206	1057.62
3149.371	1091.62
3152.533	1089.62
3155.693	1091.62
3158.85	1122.62
3162.005	1109.62
3165.157	1125.62
3168.306	1125.62
3171.453	1123.62
3174.597	1136.62
3177.739	1151.62
3180.878	1145.62
3184.014	1152.62
3187.149	1154.62
3190.28	1151.62
3193.409	1161.62
3196.536	1151.62
3199.659	1175.62
3202.781	1174.62
3205.9	1184.62
3209.016	1175.62
3212.13	1172.62
3215.241	1161.62
3218.35	1176.62
3221.456	1153.62
3224.56	1138.62
3227.661	1134.62
3230.76	1132.62
3233.856	1099.62
3236.95	1116.62
3240.041	1099.62
3243.13	1099.62
3246.216	1079.62
3249.3	1076.62
3252.382	1068.62
3255.46	1048.62
3258.537	1061.62
3261.611	1063.62
3264.682	1032.62
3267.751	1056.62
3270.818	1053.62
3273.882	1040.62
3276.943	1040.62
3280.002	1031.62
3283.059	1027.62
3286.113	1025.62
3289.165	996.62
3292.214	982.62
3295.261	976.62
3298.306	963.62
3301.348	945.62
3304.387	932.62
3307.425	916.62
3310.459	908.62
3313.492	898.62
3316.521	878.62
3319.549	880.62
3322.574	856.62
3325.597	862.62
3328.617	857.62
3331.635	850.62
3334.65	848.62
3337.663	844.62
3340.674	835.62
3343.682	828.62
3346.688	836.62
3349.691	827.62
3352.692	828.62
3355.691	819.62
3358.687	826.62
3361.681	821.62
3364.673	807.62
3367.662	793.62
3370.649	792.62
3373.633	773.62
3376.615	769.62
3379.595	753.62
3382.572	744.62
3385.547	738.62
3388.52	742.62
3391.49	712.62
3394.458	719.62
3397.424	705.62
3400.387	702.62
3403.348	684.62
3406.307	670.62
3409.263	677.62
3412.217	666.62
3415.168	660.62
3418.118	637.62
3421.065	655.62
3424.009	637.62
3426.951	629.62
3429.891	615.62
3432.829	613.62
3435.764	596.62
3438.697	586.62
3441.628	585.62
3444.557	547.62
3447.483	542.62
3450.407	528.62
3453.328	524.62
3456.247	502.62
3459.164	493.62
3462.079	477.62
3464.991	477.62
3467.902	450.62
3470.809	439.62
3473.715	436.62
3476.618	417.62
3479.519	413.62
3482.418	400.62
3485.315	388.62
3488.209	379.62
3491.101	358.62
3493.99	353.62
3496.878	346.62
3499.763	341.62
3502.646	327.62
3505.527	321.62
3508.405	304.62
3511.281	298.62
3514.155	282.62
3517.027	275.62
3519.897	263.62
3522.764	243.62
3525.629	238.62
3528.492	229.62
3531.352	217.62
3534.211	208.62
3537.067	198.62
3539.921	183.62
3542.773	176.62
3545.622	169.62
3548.469	158.62
3551.315	150.62
3554.157	151.62
3556.998	140.62
3559.837	137.62
3562.673	123.62
3565.507	121.62
3568.339	116.62
3571.169	116.62
3573.996	105.62
3576.822	103.62
3579.645	91.62
3582.466	87.62
3585.285	82.62
3588.101	74.62
3590.916	61.62
3593.728	66.62
3596.538	60.62
3599.346	54.62
3602.152	50.62
3604.956	43.62
3607.757	40.62
3610.556	38.62
3613.354	35.62
3616.149	34.62
3618.942	26.62
3621.732	30.62
3624.521	19.62
3627.307	16.62
3630.092	9.62
3632.874	13.62
3635.654	8.62
3638.432	6.62
3641.208	9.62
3643.982	-0.38
3646.753	1.62
3649.523	-1.38
3652.29	-0.38
3655.055	-4.38
3657.818	-5.38
3660.579	-7.38
3663.338	-8.38
3666.095	-12.38
3668.849	-13.38
3671.602	-16.38
3674.352	-19.38
3677.101	-25.38
3679.847	-25.38
3682.591	-25.38
3685.333	-26.38
3688.073	-33.38
3690.811	-32.38
3693.547	-34.38
3696.281	-37.38
3699.013	-35.38
3701.742	-37.38
3704.47	-40.38
3707.195	-39.38
3709.919	-43.38
3712.64	-46.38
3715.359	-43.38
3718.076	-43.38
3720.792	-50.38
3723.505	-46.38
3726.216	-49.38
3728.925	-50.38
3731.632	-52.38
3734.336	-49.38
3737.039	-51.38
3739.74	-51.38
3742.439	-54.38
3745.136	-52.38
3747.83	-54.38
3750.523	-54.38
3753.213	-54.38
3755.902	-56.38
3758.589	-52.38
3761.273	-59.38
3763.956	-55.38
3766.636	-56.38
3769.315	-61.38
3771.991	-57.38
3774.665	-58.38
3777.338	-58.38
3780.008	-61.38
3782.677	-62.38
3785.343	-57.38
3788.007	-56.38
3790.67	-57.38
3793.33	-61.38
3795.989	-60.38
3798.645	-59.38
3801.299	-62.38
3803.952	-63.38
3806.602	-61.38
3809.251	-61.38
3811.897	-59.38
3814.542	-63.38
3817.184	-60.38
3819.825	-56.38
3822.463	-60.38
3825.1	-58.38
3827.735	-61.38
3830.367	-61.38
3832.998	-65.38
3835.627	-64.38
3838.253	-59.38
3840.878	-69.38
3843.501	-64.38
3846.122	-64.38
3848.741	-67.38
3851.358	-68.38
3853.973	-65.38
3856.586	-66.38
3859.197	-69.38
3861.806	-68.38
3864.414	-70.38
3867.019	-69.38
3869.622	-67.38
3872.224	-70.38
3874.823	-68.38
3877.421	-66.38
3880.016	-68.38
3882.61	-60.38
3885.202	-64.38
3887.792	-60.38
3890.38	-63.38
3892.966	-65.38
3895.55	-64.38
3898.132	-66.38
3900.713	-68.38
3903.291	-65.38
3905.868	-66.38
3908.442	-64.38
3911.015	-64.38
3913.586	-65.38
3916.155	-69.38
3918.722	-68.38
3921.287	-65.38
3923.85	-69.38
3926.411	-69.38
3928.971	-69.38
3931.528	-69.38
3934.084	-70.38
3936.638	-69.38
3939.19	-69.38
3941.74	-69.38
3944.288	-70.38
3946.834	-68.38
3949.378	-72.38
3951.921	-73.38
3954.462	-71.38
3957	-70.38
3959.537	-70.38
3962.072	-72.38
3964.606	-68.38
3967.137	-70.38
3969.667	-70.38
3972.194	-70.38
3974.72	-67.38
3977.244	-69.38
3979.766	-65.38
3982.286	-68.38
3984.805	-70.38
3987.321	-69.38
3989.836	-66.38
3992.349	-71.38
3994.86	-69.38
3997.369	-68.38
3999.877	-67.38
4002.382	-68.38
4004.886	-65.38
4007.388	-68.38
4009.888	-66.38
4012.386	-64.38
4014.883	-69.38
4017.377	-68.38
4019.87	-68.38
4022.361	-67.38
4024.85	-68.38
4027.338	-68.38
4029.823	-65.38
4032.307	-70.38
4034.789	-64.38
4037.269	-70.38
4039.747	-67.38
4042.224	-68.38
4044.699	-68.38
4047.172	-66.38
4049.643	-67.38
4052.112	-66.38
4054.58	-69.38
4057.046	-66.38
4059.51	-66.38
4061.972	-69.38
4064.432	-71.38
4066.891	-67.38
4069.348	-70.38
4071.803	-70.38
4074.256	-70.38
4076.708	-73.38
4079.158	-71.38
4081.606	-73.38
4084.052	-70.38
4086.497	-71.38
4088.939	-73.38
4091.38	-72.38
4093.819	-70.38
4096.257	-77.38
4098.693	-74.38
4101.127	-75.38
4103.559	-74.38
4105.989	-28.38
4108.418	-22.38
4110.845	-25.38
4113.27	-22.38
4115.694	-17.38
4118.115	-9.38
4120.535	-71.38
4122.954	-71.38
4125.37	-73.38
4127.785	-73.38
4130.198	-69.38
4132.609	-68.38
4135.019	-72.38
4137.427	-71.38
4139.833	-69.38
4142.237	-70.38
