Data from 1000CFU3_A_ramanshift_RamanShift_11-45-52-723.txt Node
Date: Sun Jan 01 11:45:52 IST 2017
User: aro
Spectrometer: QEPB0276
Trigger mode: 0
Integration Time (sec): 5.000000E0
Scans to average: 1
Electric dark correction enabled: true
Nonlinearity correction enabled: false
Boxcar width: 0
XAxis mode: Raman Shifts
Number of Pixels in Spectrum: 1044
>>>>>Begin Spectral Data<<<<<
160.701	0.88
166.742	20.88
172.777	59.88
178.805	211.88
184.826	617.88
190.841	1475.88
196.849	2728.88
202.85	3858.88
208.845	4427.88
214.833	4440.88
220.815	4245.88
226.789	4119.88
232.758	4001.88
238.719	3870.88
244.674	3744.88
250.623	3618.88
256.565	3449.88
262.5	3308.88
268.429	3152.88
274.351	3025.88
280.267	2897.88
286.176	2787.88
292.079	2697.88
297.975	2628.88
303.865	2545.88
309.748	2469.88
315.625	2406.88
321.495	2350.88
327.359	2295.88
333.217	2293.88
339.068	2244.88
344.912	2248.88
350.751	2223.88
356.583	2207.88
362.408	2221.88
368.227	2231.88
374.04	2200.88
379.847	2232.88
385.647	2250.88
391.44	2249.88
397.228	2250.88
403.009	2240.88
408.784	2259.88
414.553	2275.88
420.315	2265.88
426.071	2281.88
431.821	2284.88
437.565	2284.88
443.302	2280.88
449.033	2292.88
454.758	2256.88
460.477	2227.88
466.189	2280.88
471.896	2246.88
477.596	2225.88
483.29	2195.88
488.978	2191.88
494.66	2186.88
500.335	2159.88
506.005	2141.88
511.668	2103.88
517.325	2064.88
522.977	2028.88
528.622	2004.88
534.261	1982.88
539.894	1938.88
545.521	1963.88
551.141	1927.88
556.756	1913.88
562.365	1892.88
567.968	1894.88
573.565	1869.88
579.155	1859.88
584.74	1851.88
590.319	1839.88
595.892	1847.88
601.459	1831.88
607.02	1809.88
612.575	1811.88
618.124	1784.88
623.667	1767.88
629.204	1742.88
634.735	1712.88
640.261	1734.88
645.781	1723.88
651.294	1689.88
656.802	1684.88
662.304	1686.88
667.8	1686.88
673.29	1661.88
678.775	1666.88
684.254	1655.88
689.726	1646.88
695.193	1647.88
700.655	1624.88
706.11	1622.88
711.56	1606.88
717.004	1600.88
722.442	1591.88
727.874	1574.88
733.301	1566.88
738.722	1566.88
744.137	1539.88
749.547	1549.88
754.951	1529.88
760.349	1533.88
765.741	1535.88
771.128	1532.88
776.509	1529.88
781.885	1527.88
787.254	1520.88
792.618	1522.88
797.977	1499.88
803.33	1500.88
808.677	1500.88
814.019	1473.88
819.355	1458.88
824.686	1434.88
830.011	1439.88
835.33	1409.88
840.644	1416.88
845.952	1422.88
851.255	1410.88
856.552	1410.88
861.844	1390.88
867.13	1380.88
872.41	1361.88
877.686	1379.88
882.955	1358.88
888.219	1343.88
893.478	1307.88
898.731	1291.88
903.979	1274.88
909.221	1257.88
914.458	1252.88
919.69	1239.88
924.916	1244.88
930.136	1250.88
935.351	1235.88
940.561	1239.88
945.766	1232.88
950.965	1233.88
956.158	1208.88
961.347	1192.88
966.529	1191.88
971.707	1177.88
976.879	1159.88
982.046	1136.88
987.208	1145.88
992.364	1132.88
997.515	1139.88
1002.66	1147.88
1007.801	1150.88
1012.936	1163.88
1018.066	1173.88
1023.19	1176.88
1028.309	1192.88
1033.423	1191.88
1038.532	1173.88
1043.636	1185.88
1048.734	1159.88
1053.827	1161.88
1058.915	1139.88
1063.998	1129.88
1069.075	1131.88
1074.147	1127.88
1079.214	1128.88
1084.276	1122.88
1089.333	1139.88
1094.385	1154.88
1099.431	1155.88
1104.472	1169.88
1109.509	1150.88
1114.54	1157.88
1119.565	1152.88
1124.586	1120.88
1129.602	1104.88
1134.613	1094.88
1139.618	1109.88
1144.619	1094.88
1149.614	1100.88
1154.604	1098.88
1159.589	1112.88
1164.57	1105.88
1169.545	1103.88
1174.515	1125.88
1179.48	1112.88
1184.44	1110.88
1189.395	1102.88
1194.345	1105.88
1199.29	1083.88
1204.23	1095.88
1209.165	1092.88
1214.095	1104.88
1219.021	1111.88
1223.941	1124.88
1228.856	1129.88
1233.766	1110.88
1238.672	1134.88
1243.572	1134.88
1248.467	1127.88
1253.358	1117.88
1258.244	1099.88
1263.124	1101.88
1268	1086.88
1272.871	1072.88
1277.737	1068.88
1282.599	1054.88
1287.455	1044.88
1292.306	1049.88
1297.153	1049.88
1301.995	1074.88
1306.832	1072.88
1311.664	1083.88
1316.491	1087.88
1321.314	1071.88
1326.132	1082.88
1330.945	1055.88
1335.753	1042.88
1340.556	1030.88
1345.354	1017.88
1350.148	1010.88
1354.937	996.88
1359.722	1006.88
1364.501	987.88
1369.276	976.88
1374.046	983.88
1378.811	973.88
1383.572	977.88
1388.327	963.88
1393.079	966.88
1397.825	967.88
1402.567	958.88
1407.304	940.88
1412.036	963.88
1416.764	929.88
1421.487	946.88
1426.205	945.88
1430.919	952.88
1435.628	971.88
1440.333	967.88
1445.032	983.88
1449.727	988.88
1454.418	989.88
1459.104	1002.88
1463.785	992.88
1468.462	977.88
1473.134	971.88
1477.802	955.88
1482.465	957.88
1487.123	944.88
1491.777	939.88
1496.426	958.88
1501.071	951.88
1505.711	954.88
1510.347	977.88
1514.978	972.88
1519.604	981.88
1524.226	996.88
1528.844	999.88
1533.457	1004.88
1538.065	1000.88
1542.669	995.88
1547.269	1001.88
1551.864	993.88
1556.454	1010.88
1561.041	1017.88
1565.622	1022.88
1570.199	1026.88
1574.772	1051.88
1579.34	1069.88
1583.904	1099.88
1588.464	1115.88
1593.019	1121.88
1597.569	1153.88
1602.115	1150.88
1606.657	1166.88
1611.195	1177.88
1615.728	1189.88
1620.256	1209.88
1624.78	1223.88
1629.3	1225.88
1633.816	1250.88
1638.327	1273.88
1642.834	1280.88
1647.336	1302.88
1651.834	1301.88
1656.328	1296.88
1660.817	1296.88
1665.302	1277.88
1669.783	1261.88
1674.259	1226.88
1678.732	1194.88
1683.199	1161.88
1687.663	1121.88
1692.122	1071.88
1696.577	1034.88
1701.028	1006.88
1705.474	948.88
1709.917	927.88
1714.355	903.88
1718.788	879.88
1723.218	876.88
1727.643	855.88
1732.064	836.88
1736.481	818.88
1740.893	782.88
1745.301	776.88
1749.705	762.88
1754.105	733.88
1758.501	723.88
1762.893	715.88
1767.28	688.88
1771.663	689.88
1776.042	678.88
1780.417	681.88
1784.787	675.88
1789.154	667.88
1793.516	671.88
1797.874	678.88
1802.228	666.88
1806.578	666.88
1810.924	660.88
1815.266	662.88
1819.603	636.88
1823.937	634.88
1828.266	642.88
1832.591	624.88
1836.913	622.88
1841.23	609.88
1845.543	612.88
1849.852	617.88
1854.156	626.88
1858.457	624.88
1862.754	623.88
1867.047	628.88
1871.335	620.88
1875.62	631.88
1879.9	634.88
1884.177	631.88
1888.449	632.88
1892.718	627.88
1896.982	627.88
1901.243	628.88
1905.499	611.88
1909.752	610.88
1914	619.88
1918.245	612.88
1922.485	615.88
1926.722	613.88
1930.954	617.88
1935.183	618.88
1939.408	616.88
1943.628	623.88
1947.845	622.88
1952.058	624.88
1956.267	616.88
1960.472	615.88
1964.673	604.88
1968.87	607.88
1973.063	596.88
1977.252	600.88
1981.438	597.88
1985.619	594.88
1989.797	588.88
1993.971	598.88
1998.14	589.88
2002.306	598.88
2006.469	613.88
2010.627	598.88
2014.781	615.88
2018.932	614.88
2023.078	618.88
2027.221	610.88
2031.36	598.88
2035.495	604.88
2039.627	604.88
2043.754	598.88
2047.878	595.88
2051.998	584.88
2056.114	595.88
2060.226	586.88
2064.334	586.88
2068.439	600.88
2072.54	597.88
2076.637	590.88
2080.73	590.88
2084.82	601.88
2088.906	610.88
2092.988	594.88
2097.066	599.88
2101.14	588.88
2105.211	585.88
2109.278	583.88
2113.342	579.88
2117.401	588.88
2121.457	580.88
2125.509	582.88
2129.558	568.88
2133.602	569.88
2137.643	576.88
2141.681	574.88
2145.714	565.88
2149.744	569.88
2153.77	569.88
2157.793	568.88
2161.812	555.88
2165.827	557.88
2169.838	548.88
2173.846	533.88
2177.851	527.88
2181.851	531.88
2185.848	516.88
2189.841	515.88
2193.831	507.88
2197.817	510.88
2201.799	500.88
2205.778	501.88
2209.753	487.88
2213.725	504.88
2217.693	490.88
2221.657	492.88
2225.618	497.88
2229.575	479.88
2233.529	482.88
2237.479	480.88
2241.425	483.88
2245.368	468.88
2249.307	467.88
2253.243	467.88
2257.175	444.88
2261.104	453.88
2265.029	443.88
2268.95	435.88
2272.868	431.88
2276.783	428.88
2280.694	431.88
2284.601	422.88
2288.505	410.88
2292.405	422.88
2296.302	415.88
2300.195	410.88
2304.085	401.88
2307.971	391.88
2311.854	394.88
2315.734	381.88
2319.609	368.88
2323.482	372.88
2327.351	368.88
2331.216	360.88
2335.078	368.88
2338.937	368.88
2342.792	354.88
2346.643	356.88
2350.492	348.88
2354.336	344.88
2358.178	346.88
2362.015	345.88
2365.85	348.88
2369.681	353.88
2373.508	351.88
2377.333	345.88
2381.153	344.88
2384.971	350.88
2388.785	344.88
2392.595	353.88
2396.402	345.88
2400.206	343.88
2404.007	340.88
2407.804	348.88
2411.597	341.88
2415.388	339.88
2419.174	333.88
2422.958	330.88
2426.738	335.88
2430.515	329.88
2434.289	334.88
2438.059	332.88
2441.825	328.88
2445.589	320.88
2449.349	327.88
2453.106	327.88
2456.859	327.88
2460.61	318.88
2464.356	309.88
2468.1	309.88
2471.84	311.88
2475.577	311.88
2479.311	311.88
2483.041	307.88
2486.768	306.88
2490.492	315.88
2494.213	305.88
2497.93	302.88
2501.644	313.88
2505.355	315.88
2509.062	300.88
2512.766	309.88
2516.467	301.88
2520.165	305.88
2523.859	301.88
2527.551	293.88
2531.239	293.88
2534.923	285.88
2538.605	295.88
2542.283	284.88
2545.958	286.88
2549.63	283.88
2553.299	287.88
2556.964	282.88
2560.626	276.88
2564.285	279.88
2567.941	279.88
2571.594	269.88
2575.243	275.88
2578.89	266.88
2582.533	266.88
2586.173	277.88
2589.809	260.88
2593.443	268.88
2597.073	264.88
2600.701	260.88
2604.325	267.88
2607.946	253.88
2611.564	256.88
2615.178	257.88
2618.79	255.88
2622.398	256.88
2626.004	258.88
2629.606	253.88
2633.205	251.88
2636.801	251.88
2640.394	244.88
2643.983	245.88
2647.57	246.88
2651.153	246.88
2654.734	228.88
2658.311	240.88
2661.885	235.88
2665.456	233.88
2669.025	231.88
2672.589	230.88
2676.151	230.88
2679.71	233.88
2683.266	219.88
2686.819	230.88
2690.368	217.88
2693.915	216.88
2697.458	219.88
2700.999	209.88
2704.536	219.88
2708.071	208.88
2711.602	215.88
2715.13	219.88
2718.656	213.88
2722.178	214.88
2725.697	215.88
2729.214	202.88
2732.727	219.88
2736.237	213.88
2739.744	217.88
2743.249	214.88
2746.75	206.88
2750.248	213.88
2753.743	216.88
2757.236	214.88
2760.725	207.88
2764.211	212.88
2767.695	207.88
2771.175	201.88
2774.652	199.88
2778.127	194.88
2781.598	199.88
2785.067	197.88
2788.532	202.88
2791.995	190.88
2795.455	199.88
2798.911	200.88
2802.365	198.88
2805.816	201.88
2809.264	211.88
2812.709	203.88
2816.151	208.88
2819.59	202.88
2823.026	209.88
2826.46	210.88
2829.89	211.88
2833.318	213.88
2836.742	207.88
2840.164	218.88
2843.583	211.88
2846.999	223.88
2850.412	222.88
2853.822	228.88
2857.229	223.88
2860.634	227.88
2864.035	224.88
2867.434	237.88
2870.83	224.88
2874.223	236.88
2877.613	240.88
2881	240.88
2884.385	236.88
2887.766	241.88
2891.145	240.88
2894.521	237.88
2897.894	244.88
2901.264	244.88
2904.631	243.88
2907.996	240.88
2911.358	248.88
2914.717	245.88
2918.073	251.88
2921.426	254.88
2924.777	254.88
2928.124	265.88
2931.469	269.88
2934.811	270.88
2938.15	280.88
2941.487	287.88
2944.821	282.88
2948.152	288.88
2951.48	293.88
2954.805	295.88
2958.128	307.88
2961.447	296.88
2964.765	305.88
2968.079	311.88
2971.39	319.88
2974.699	316.88
2978.005	324.88
2981.308	333.88
2984.609	347.88
2987.907	351.88
2991.202	361.88
2994.494	366.88
2997.784	387.88
3001.07	384.88
3004.355	399.88
3007.636	408.88
3010.915	424.88
3014.191	433.88
3017.464	438.88
3020.734	438.88
3024.002	437.88
3027.267	444.88
3030.53	465.88
3033.789	472.88
3037.046	478.88
3040.301	487.88
3043.552	501.88
3046.801	518.88
3050.048	524.88
3053.291	536.88
3056.532	560.88
3059.771	562.88
3063.006	587.88
3066.239	594.88
3069.469	618.88
3072.697	637.88
3075.922	644.88
3079.144	657.88
3082.364	687.88
3085.581	688.88
3088.795	707.88
3092.007	720.88
3095.216	740.88
3098.423	739.88
3101.627	773.88
3104.828	794.88
3108.026	812.88
3111.222	808.88
3114.416	845.88
3117.607	860.88
3120.795	879.88
3123.98	892.88
3127.163	922.88
3130.344	934.88
3133.521	952.88
3136.696	982.88
3139.869	987.88
3143.039	1014.88
3146.206	1040.88
3149.371	1051.88
3152.533	1062.88
3155.693	1069.88
3158.85	1087.88
3162.005	1085.88
3165.157	1086.88
3168.306	1083.88
3171.453	1099.88
3174.597	1105.88
3177.739	1101.88
3180.878	1110.88
3184.014	1108.88
3187.149	1130.88
3190.28	1112.88
3193.409	1130.88
3196.536	1145.88
3199.659	1141.88
3202.781	1139.88
3205.9	1133.88
3209.016	1125.88
3212.13	1132.88
3215.241	1117.88
3218.35	1126.88
3221.456	1125.88
3224.56	1127.88
3227.661	1107.88
3230.76	1089.88
3233.856	1068.88
3236.95	1061.88
3240.041	1077.88
3243.13	1050.88
3246.216	1048.88
3249.3	1047.88
3252.382	1040.88
3255.46	1033.88
3258.537	1030.88
3261.611	1014.88
3264.682	1031.88
3267.751	1014.88
3270.818	1010.88
3273.882	1008.88
3276.943	1002.88
3280.002	1006.88
3283.059	1000.88
3286.113	977.88
3289.165	977.88
3292.214	965.88
3295.261	950.88
3298.306	937.88
3301.348	927.88
3304.387	915.88
3307.425	907.88
3310.459	883.88
3313.492	874.88
3316.521	857.88
3319.549	852.88
3322.574	854.88
3325.597	851.88
3328.617	830.88
3331.635	826.88
3334.65	841.88
3337.663	819.88
3340.674	823.88
3343.682	821.88
3346.688	806.88
3349.691	824.88
3352.692	816.88
3355.691	789.88
3358.687	803.88
3361.681	787.88
3364.673	787.88
3367.662	767.88
3370.649	762.88
3373.633	756.88
3376.615	751.88
3379.595	733.88
3382.572	725.88
3385.547	719.88
3388.52	708.88
3391.49	697.88
3394.458	692.88
3397.424	692.88
3400.387	685.88
3403.348	672.88
3406.307	647.88
3409.263	661.88
3412.217	653.88
3415.168	629.88
3418.118	626.88
3421.065	632.88
3424.009	619.88
3426.951	611.88
3429.891	599.88
3432.829	594.88
3435.764	587.88
3438.697	580.88
3441.628	565.88
3444.557	545.88
3447.483	542.88
3450.407	515.88
3453.328	512.88
3456.247	483.88
3459.164	484.88
3462.079	464.88
3464.991	455.88
3467.902	442.88
3470.809	423.88
3473.715	421.88
3476.618	402.88
3479.519	396.88
3482.418	382.88
3485.315	373.88
3488.209	356.88
3491.101	356.88
3493.99	345.88
3496.878	333.88
3499.763	328.88
3502.646	322.88
3505.527	314.88
3508.405	296.88
3511.281	284.88
3514.155	275.88
3517.027	263.88
3519.897	252.88
3522.764	240.88
3525.629	232.88
3528.492	227.88
3531.352	213.88
3534.211	205.88
3537.067	185.88
3539.921	181.88
3542.773	178.88
3545.622	167.88
3548.469	156.88
3551.315	145.88
3554.157	140.88
3556.998	140.88
3559.837	125.88
3562.673	117.88
3565.507	116.88
3568.339	111.88
3571.169	102.88
3573.996	95.88
3576.822	96.88
3579.645	90.88
3582.466	86.88
3585.285	77.88
3588.101	73.88
3590.916	66.88
3593.728	61.88
3596.538	58.88
3599.346	52.88
3602.152	52.88
3604.956	48.88
3607.757	38.88
3610.556	33.88
3613.354	35.88
3616.149	30.88
3618.942	26.88
3621.732	28.88
3624.521	19.88
3627.307	15.88
3630.092	14.88
3632.874	11.88
3635.654	7.88
3638.432	5.88
3641.208	6.88
3643.982	5.88
3646.753	1.88
3649.523	-1.12
3652.29	-2.12
3655.055	-7.12
3657.818	-8.12
3660.579	-11.12
3663.338	-14.12
3666.095	-18.12
3668.849	-17.12
3671.602	-21.12
3674.352	-24.12
3677.101	-28.12
3679.847	-27.12
3682.591	-29.12
3685.333	-32.12
3688.073	-39.12
3690.811	-34.12
3693.547	-40.12
3696.281	-38.12
3699.013	-39.12
3701.742	-43.12
3704.47	-41.12
3707.195	-41.12
3709.919	-45.12
3712.64	-48.12
3715.359	-44.12
3718.076	-48.12
3720.792	-51.12
3723.505	-48.12
3726.216	-50.12
3728.925	-51.12
3731.632	-53.12
3734.336	-49.12
3737.039	-51.12
3739.74	-51.12
3742.439	-52.12
3745.136	-51.12
3747.83	-55.12
3750.523	-54.12
3753.213	-51.12
3755.902	-53.12
3758.589	-53.12
3761.273	-57.12
3763.956	-57.12
3766.636	-61.12
3769.315	-61.12
3771.991	-62.12
3774.665	-61.12
3777.338	-62.12
3780.008	-65.12
3782.677	-67.12
3785.343	-63.12
3788.007	-60.12
3790.67	-60.12
3793.33	-64.12
3795.989	-64.12
3798.645	-62.12
3801.299	-63.12
3803.952	-62.12
3806.602	-66.12
3809.251	-65.12
3811.897	-61.12
3814.542	-65.12
3817.184	-62.12
3819.825	-58.12
3822.463	-62.12
3825.1	-63.12
3827.735	-59.12
3830.367	-58.12
3832.998	-64.12
3835.627	-62.12
3838.253	-65.12
3840.878	-65.12
3843.501	-61.12
3846.122	-62.12
3848.741	-69.12
3851.358	-67.12
3853.973	-67.12
3856.586	-65.12
3859.197	-69.12
3861.806	-71.12
3864.414	-68.12
3867.019	-68.12
3869.622	-73.12
3872.224	-70.12
3874.823	-69.12
3877.421	-70.12
3880.016	-68.12
3882.61	-64.12
3885.202	-63.12
3887.792	-58.12
3890.38	-64.12
3892.966	-65.12
3895.55	-68.12
3898.132	-68.12
3900.713	-71.12
3903.291	-70.12
3905.868	-68.12
3908.442	-68.12
3911.015	-68.12
3913.586	-69.12
3916.155	-70.12
3918.722	-69.12
3921.287	-67.12
3923.85	-72.12
3926.411	-69.12
3928.971	-68.12
3931.528	-71.12
3934.084	-70.12
3936.638	-73.12
3939.19	-71.12
3941.74	-72.12
3944.288	-70.12
3946.834	-72.12
3949.378	-74.12
3951.921	-71.12
3954.462	-73.12
3957	-71.12
3959.537	-70.12
3962.072	-70.12
3964.606	-70.12
3967.137	-70.12
3969.667	-76.12
3972.194	-74.12
3974.72	-68.12
3977.244	-70.12
3979.766	-68.12
3982.286	-69.12
3984.805	-70.12
3987.321	-69.12
3989.836	-67.12
3992.349	-70.12
3994.86	-72.12
3997.369	-72.12
3999.877	-68.12
4002.382	-69.12
4004.886	-69.12
4007.388	-71.12
4009.888	-70.12
4012.386	-66.12
4014.883	-71.12
4017.377	-70.12
4019.87	-71.12
4022.361	-71.12
4024.85	-71.12
4027.338	-69.12
4029.823	-69.12
4032.307	-71.12
4034.789	-66.12
4037.269	-71.12
4039.747	-69.12
4042.224	-67.12
4044.699	-71.12
4047.172	-69.12
4049.643	-70.12
4052.112	-70.12
4054.58	-70.12
4057.046	-69.12
4059.51	-69.12
4061.972	-71.12
4064.432	-73.12
4066.891	-70.12
4069.348	-71.12
4071.803	-73.12
4074.256	-72.12
4076.708	-70.12
4079.158	-71.12
4081.606	-71.12
4084.052	-70.12
4086.497	-71.12
4088.939	-75.12
4091.38	-74.12
4093.819	-74.12
4096.257	-78.12
4098.693	-76.12
4101.127	-77.12
4103.559	-76.12
4105.989	-32.12
4108.418	-23.12
4110.845	-26.12
4113.27	-26.12
4115.694	-18.12
4118.115	-14.12
4120.535	-73.12
4122.954	-74.12
4125.37	-72.12
4127.785	-71.12
4130.198	-70.12
4132.609	-70.12
4135.019	-74.12
4137.427	-74.12
4139.833	-72.12
4142.237	-73.12
