Data from 100000000CFU1_A_ramanshift_RamanShift_12-02-32-624.txt Node
Date: Sun Jan 01 12:02:32 IST 2017
User: aro
Spectrometer: QEPB0276
Trigger mode: 0
Integration Time (sec): 5.000000E0
Scans to average: 1
Electric dark correction enabled: true
Nonlinearity correction enabled: false
Boxcar width: 0
XAxis mode: Raman Shifts
Number of Pixels in Spectrum: 1044
>>>>>Begin Spectral Data<<<<<
160.701	6.38
166.742	15.38
172.777	48.38
178.805	143.38
184.826	442.38
190.841	1054.38
196.849	1979.38
202.85	2837.38
208.845	3295.38
214.833	3302.38
220.815	3181.38
226.789	3064.38
232.758	3009.38
238.719	2902.38
244.674	2816.38
250.623	2716.38
256.565	2578.38
262.5	2477.38
268.429	2349.38
274.351	2273.38
280.267	2158.38
286.176	2096.38
292.079	2040.38
297.975	1964.38
303.865	1916.38
309.748	1848.38
315.625	1810.38
321.495	1765.38
327.359	1746.38
333.217	1718.38
339.068	1706.38
344.912	1692.38
350.751	1670.38
356.583	1678.38
362.408	1677.38
368.227	1672.38
374.04	1680.38
379.847	1681.38
385.647	1682.38
391.44	1693.38
397.228	1703.38
403.009	1708.38
408.784	1713.38
414.553	1722.38
420.315	1730.38
426.071	1728.38
431.821	1740.38
437.565	1722.38
443.302	1727.38
449.033	1741.38
454.758	1721.38
460.477	1694.38
466.189	1683.38
471.896	1685.38
477.596	1676.38
483.29	1664.38
488.978	1663.38
494.66	1667.38
500.335	1644.38
506.005	1616.38
511.668	1590.38
517.325	1568.38
522.977	1536.38
528.622	1503.38
534.261	1484.38
539.894	1465.38
545.521	1459.38
551.141	1448.38
556.756	1427.38
562.365	1427.38
567.968	1427.38
573.565	1403.38
579.155	1420.38
584.74	1382.38
590.319	1382.38
595.892	1369.38
601.459	1380.38
607.02	1350.38
612.575	1349.38
618.124	1322.38
623.667	1332.38
629.204	1303.38
634.735	1285.38
640.261	1286.38
645.781	1290.38
651.294	1272.38
656.802	1255.38
662.304	1245.38
667.8	1242.38
673.29	1237.38
678.775	1244.38
684.254	1229.38
689.726	1230.38
695.193	1222.38
700.655	1220.38
706.11	1192.38
711.56	1192.38
717.004	1203.38
722.442	1173.38
727.874	1173.38
733.301	1161.38
738.722	1155.38
744.137	1156.38
749.547	1155.38
754.951	1159.38
760.349	1140.38
765.741	1143.38
771.128	1135.38
776.509	1134.38
781.885	1143.38
787.254	1137.38
792.618	1148.38
797.977	1126.38
803.33	1135.38
808.677	1115.38
814.019	1114.38
819.355	1088.38
824.686	1091.38
830.011	1070.38
835.33	1071.38
840.644	1062.38
845.952	1061.38
851.255	1053.38
856.552	1044.38
861.844	1024.38
867.13	1029.38
872.41	1024.38
877.686	1018.38
882.955	1020.38
888.219	996.38
893.478	985.38
898.731	955.38
903.979	943.38
909.221	930.38
914.458	939.38
919.69	926.38
924.916	919.38
930.136	928.38
935.351	917.38
940.561	912.38
945.766	919.38
950.965	901.38
956.158	904.38
961.347	894.38
966.529	895.38
971.707	872.38
976.879	855.38
982.046	859.38
987.208	844.38
992.364	849.38
997.515	838.38
1002.66	846.38
1007.801	849.38
1012.936	866.38
1018.066	866.38
1023.19	877.38
1028.309	881.38
1033.423	876.38
1038.532	873.38
1043.636	874.38
1048.734	858.38
1053.827	847.38
1058.915	838.38
1063.998	847.38
1069.075	836.38
1074.147	827.38
1079.214	829.38
1084.276	832.38
1089.333	846.38
1094.385	863.38
1099.431	849.38
1104.472	859.38
1109.509	863.38
1114.54	847.38
1119.565	831.38
1124.586	835.38
1129.602	823.38
1134.613	806.38
1139.618	815.38
1144.619	812.38
1149.614	830.38
1154.604	821.38
1159.589	815.38
1164.57	827.38
1169.545	830.38
1174.515	826.38
1179.48	835.38
1184.44	833.38
1189.395	806.38
1194.345	801.38
1199.29	800.38
1204.23	801.38
1209.165	803.38
1214.095	804.38
1219.021	809.38
1223.941	832.38
1228.856	832.38
1233.766	818.38
1238.672	838.38
1243.572	832.38
1248.467	837.38
1253.358	831.38
1258.244	809.38
1263.124	807.38
1268	789.38
1272.871	783.38
1277.737	775.38
1282.599	766.38
1287.455	769.38
1292.306	772.38
1297.153	773.38
1301.995	768.38
1306.832	787.38
1311.664	784.38
1316.491	780.38
1321.314	780.38
1326.132	782.38
1330.945	785.38
1335.753	763.38
1340.556	763.38
1345.354	759.38
1350.148	732.38
1354.937	727.38
1359.722	728.38
1364.501	723.38
1369.276	724.38
1374.046	726.38
1378.811	723.38
1383.572	716.38
1388.327	719.38
1393.079	724.38
1397.825	718.38
1402.567	710.38
1407.304	697.38
1412.036	701.38
1416.764	697.38
1421.487	692.38
1426.205	682.38
1430.919	700.38
1435.628	702.38
1440.333	705.38
1445.032	717.38
1449.727	722.38
1454.418	724.38
1459.104	734.38
1463.785	732.38
1468.462	712.38
1473.134	710.38
1477.802	712.38
1482.465	689.38
1487.123	686.38
1491.777	686.38
1496.426	697.38
1501.071	695.38
1505.711	712.38
1510.347	709.38
1514.978	716.38
1519.604	723.38
1524.226	726.38
1528.844	732.38
1533.457	753.38
1538.065	741.38
1542.669	747.38
1547.269	741.38
1551.864	731.38
1556.454	737.38
1561.041	748.38
1565.622	754.38
1570.199	757.38
1574.772	763.38
1579.34	781.38
1583.904	796.38
1588.464	817.38
1593.019	818.38
1597.569	838.38
1602.115	838.38
1606.657	866.38
1611.195	871.38
1615.728	877.38
1620.256	876.38
1624.78	899.38
1629.3	912.38
1633.816	928.38
1638.327	935.38
1642.834	942.38
1647.336	964.38
1651.834	948.38
1656.328	961.38
1660.817	961.38
1665.302	942.38
1669.783	923.38
1674.259	899.38
1678.732	880.38
1683.199	855.38
1687.663	823.38
1692.122	799.38
1696.577	759.38
1701.028	739.38
1705.474	698.38
1709.917	672.38
1714.355	652.38
1718.788	658.38
1723.218	636.38
1727.643	635.38
1732.064	624.38
1736.481	594.38
1740.893	587.38
1745.301	569.38
1749.705	558.38
1754.105	538.38
1758.501	538.38
1762.893	517.38
1767.28	497.38
1771.663	493.38
1776.042	497.38
1780.417	486.38
1784.787	487.38
1789.154	497.38
1793.516	487.38
1797.874	493.38
1802.228	497.38
1806.578	485.38
1810.924	487.38
1815.266	475.38
1819.603	463.38
1823.937	470.38
1828.266	455.38
1832.591	450.38
1836.913	450.38
1841.23	439.38
1845.543	440.38
1849.852	448.38
1854.156	449.38
1858.457	448.38
1862.754	456.38
1867.047	449.38
1871.335	455.38
1875.62	447.38
1879.9	449.38
1884.177	453.38
1888.449	455.38
1892.718	463.38
1896.982	456.38
1901.243	460.38
1905.499	456.38
1909.752	460.38
1914	443.38
1918.245	446.38
1922.485	451.38
1926.722	450.38
1930.954	449.38
1935.183	451.38
1939.408	459.38
1943.628	465.38
1947.845	461.38
1952.058	465.38
1956.267	451.38
1960.472	453.38
1964.673	448.38
1968.87	451.38
1973.063	432.38
1977.252	441.38
1981.438	435.38
1985.619	432.38
1989.797	426.38
1993.971	439.38
1998.14	429.38
2002.306	430.38
2006.469	443.38
2010.627	448.38
2014.781	448.38
2018.932	445.38
2023.078	443.38
2027.221	439.38
2031.36	435.38
2035.495	437.38
2039.627	430.38
2043.754	429.38
2047.878	430.38
2051.998	430.38
2056.114	428.38
2060.226	430.38
2064.334	438.38
2068.439	430.38
2072.54	428.38
2076.637	430.38
2080.73	433.38
2084.82	441.38
2088.906	440.38
2092.988	437.38
2097.066	446.38
2101.14	440.38
2105.211	439.38
2109.278	431.38
2113.342	429.38
2117.401	421.38
2121.457	423.38
2125.509	422.38
2129.558	415.38
2133.602	422.38
2137.643	425.38
2141.681	422.38
2145.714	418.38
2149.744	416.38
2153.77	409.38
2157.793	419.38
2161.812	411.38
2165.827	403.38
2169.838	402.38
2173.846	392.38
2177.851	384.38
2181.851	372.38
2185.848	376.38
2189.841	381.38
2193.831	368.38
2197.817	363.38
2201.799	364.38
2205.778	362.38
2209.753	359.38
2213.725	361.38
2217.693	353.38
2221.657	366.38
2225.618	357.38
2229.575	356.38
2233.529	355.38
2237.479	349.38
2241.425	342.38
2245.368	337.38
2249.307	328.38
2253.243	326.38
2257.175	330.38
2261.104	324.38
2265.029	327.38
2268.95	318.38
2272.868	314.38
2276.783	306.38
2280.694	306.38
2284.601	301.38
2288.505	300.38
2292.405	304.38
2296.302	290.38
2300.195	299.38
2304.085	297.38
2307.971	285.38
2311.854	283.38
2315.734	277.38
2319.609	270.38
2323.482	277.38
2327.351	267.38
2331.216	260.38
2335.078	257.38
2338.937	256.38
2342.792	258.38
2346.643	255.38
2350.492	256.38
2354.336	254.38
2358.178	249.38
2362.015	260.38
2365.85	252.38
2369.681	264.38
2373.508	258.38
2377.333	253.38
2381.153	257.38
2384.971	257.38
2388.785	251.38
2392.595	251.38
2396.402	248.38
2400.206	244.38
2404.007	251.38
2407.804	251.38
2411.597	244.38
2415.388	243.38
2419.174	247.38
2422.958	242.38
2426.738	238.38
2430.515	239.38
2434.289	235.38
2438.059	245.38
2441.825	230.38
2445.589	238.38
2449.349	232.38
2453.106	232.38
2456.859	230.38
2460.61	229.38
2464.356	226.38
2468.1	229.38
2471.84	219.38
2475.577	224.38
2479.311	216.38
2483.041	209.38
2486.768	216.38
2490.492	220.38
2494.213	217.38
2497.93	220.38
2501.644	222.38
2505.355	221.38
2509.062	222.38
2512.766	224.38
2516.467	220.38
2520.165	221.38
2523.859	213.38
2527.551	215.38
2531.239	211.38
2534.923	213.38
2538.605	211.38
2542.283	207.38
2545.958	206.38
2549.63	212.38
2553.299	207.38
2556.964	205.38
2560.626	200.38
2564.285	198.38
2567.941	203.38
2571.594	198.38
2575.243	204.38
2578.89	191.38
2582.533	192.38
2586.173	196.38
2589.809	184.38
2593.443	188.38
2597.073	189.38
2600.701	183.38
2604.325	182.38
2607.946	182.38
2611.564	184.38
2615.178	185.38
2618.79	184.38
2622.398	182.38
2626.004	181.38
2629.606	183.38
2633.205	179.38
2636.801	174.38
2640.394	177.38
2643.983	172.38
2647.57	178.38
2651.153	171.38
2654.734	164.38
2658.311	175.38
2661.885	167.38
2665.456	160.38
2669.025	164.38
2672.589	165.38
2676.151	164.38
2679.71	156.38
2683.266	168.38
2686.819	162.38
2690.368	161.38
2693.915	160.38
2697.458	160.38
2700.999	156.38
2704.536	155.38
2708.071	152.38
2711.602	150.38
2715.13	146.38
2718.656	152.38
2722.178	150.38
2725.697	154.38
2729.214	150.38
2732.727	154.38
2736.237	154.38
2739.744	155.38
2743.249	157.38
2746.75	152.38
2750.248	151.38
2753.743	154.38
2757.236	155.38
2760.725	148.38
2764.211	153.38
2767.695	151.38
2771.175	152.38
2774.652	148.38
2778.127	144.38
2781.598	148.38
2785.067	149.38
2788.532	145.38
2791.995	146.38
2795.455	149.38
2798.911	148.38
2802.365	147.38
2805.816	153.38
2809.264	149.38
2812.709	151.38
2816.151	157.38
2819.59	146.38
2823.026	161.38
2826.46	154.38
2829.89	149.38
2833.318	158.38
2836.742	162.38
2840.164	162.38
2843.583	158.38
2846.999	158.38
2850.412	166.38
2853.822	162.38
2857.229	165.38
2860.634	171.38
2864.035	171.38
2867.434	171.38
2870.83	182.38
2874.223	175.38
2877.613	174.38
2881	177.38
2884.385	172.38
2887.766	180.38
2891.145	184.38
2894.521	177.38
2897.894	186.38
2901.264	176.38
2904.631	179.38
2907.996	180.38
2911.358	184.38
2914.717	185.38
2918.073	191.38
2921.426	192.38
2924.777	197.38
2928.124	202.38
2931.469	205.38
2934.811	209.38
2938.15	212.38
2941.487	215.38
2944.821	218.38
2948.152	218.38
2951.48	225.38
2954.805	230.38
2958.128	228.38
2961.447	225.38
2964.765	233.38
2968.079	234.38
2971.39	246.38
2974.699	247.38
2978.005	248.38
2981.308	255.38
2984.609	257.38
2987.907	265.38
2991.202	273.38
2994.494	279.38
2997.784	284.38
3001.07	295.38
3004.355	301.38
3007.636	310.38
3010.915	317.38
3014.191	327.38
3017.464	334.38
3020.734	336.38
3024.002	338.38
3027.267	351.38
3030.53	355.38
3033.789	356.38
3037.046	368.38
3040.301	387.38
3043.552	386.38
3046.801	393.38
3050.048	401.38
3053.291	410.38
3056.532	418.38
3059.771	435.38
3063.006	450.38
3066.239	461.38
3069.469	474.38
3072.697	493.38
3075.922	497.38
3079.144	516.38
3082.364	519.38
3085.581	545.38
3088.795	557.38
3092.007	568.38
3095.216	575.38
3098.423	588.38
3101.627	599.38
3104.828	615.38
3108.026	632.38
3111.222	647.38
3114.416	645.38
3117.607	669.38
3120.795	682.38
3123.98	703.38
3127.163	725.38
3130.344	727.38
3133.521	741.38
3136.696	776.38
3139.869	784.38
3143.039	804.38
3146.206	807.38
3149.371	816.38
3152.533	814.38
3155.693	827.38
3158.85	841.38
3162.005	851.38
3165.157	842.38
3168.306	856.38
3171.453	858.38
3174.597	861.38
3177.739	866.38
3180.878	871.38
3184.014	865.38
3187.149	868.38
3190.28	875.38
3193.409	873.38
3196.536	887.38
3199.659	880.38
3202.781	883.38
3205.9	893.38
3209.016	887.38
3212.13	881.38
3215.241	889.38
3218.35	864.38
3221.456	878.38
3224.56	864.38
3227.661	850.38
3230.76	838.38
3233.856	845.38
3236.95	823.38
3240.041	826.38
3243.13	818.38
3246.216	812.38
3249.3	808.38
3252.382	794.38
3255.46	819.38
3258.537	799.38
3261.611	792.38
3264.682	802.38
3267.751	790.38
3270.818	789.38
3273.882	792.38
3276.943	779.38
3280.002	792.38
3283.059	781.38
3286.113	767.38
3289.165	765.38
3292.214	751.38
3295.261	737.38
3298.306	721.38
3301.348	715.38
3304.387	703.38
3307.425	690.38
3310.459	680.38
3313.492	678.38
3316.521	687.38
3319.549	664.38
3322.574	662.38
3325.597	653.38
3328.617	650.38
3331.635	647.38
3334.65	643.38
3337.663	643.38
3340.674	638.38
3343.682	631.38
3346.688	631.38
3349.691	638.38
3352.692	642.38
3355.691	616.38
3358.687	630.38
3361.681	613.38
3364.673	612.38
3367.662	606.38
3370.649	603.38
3373.633	594.38
3376.615	582.38
3379.595	567.38
3382.572	563.38
3385.547	562.38
3388.52	554.38
3391.49	545.38
3394.458	536.38
3397.424	531.38
3400.387	532.38
3403.348	518.38
3406.307	511.38
3409.263	512.38
3412.217	509.38
3415.168	501.38
3418.118	497.38
3421.065	481.38
3424.009	487.38
3426.951	484.38
3429.891	462.38
3432.829	464.38
3435.764	455.38
3438.697	453.38
3441.628	438.38
3444.557	424.38
3447.483	416.38
3450.407	400.38
3453.328	402.38
3456.247	395.38
3459.164	376.38
3462.079	364.38
3464.991	352.38
3467.902	345.38
3470.809	341.38
3473.715	339.38
3476.618	310.38
3479.519	313.38
3482.418	304.38
3485.315	297.38
3488.209	293.38
3491.101	278.38
3493.99	276.38
3496.878	259.38
3499.763	256.38
3502.646	245.38
3505.527	240.38
3508.405	238.38
3511.281	223.38
3514.155	224.38
3517.027	206.38
3519.897	201.38
3522.764	192.38
3525.629	181.38
3528.492	167.38
3531.352	164.38
3534.211	161.38
3537.067	156.38
3539.921	145.38
3542.773	135.38
3545.622	137.38
3548.469	126.38
3551.315	112.38
3554.157	113.38
3556.998	110.38
3559.837	104.38
3562.673	99.38
3565.507	90.38
3568.339	91.38
3571.169	87.38
3573.996	87.38
3576.822	79.38
3579.645	77.38
3582.466	68.38
3585.285	69.38
3588.101	61.38
3590.916	52.38
3593.728	51.38
3596.538	53.38
3599.346	46.38
3602.152	41.38
3604.956	41.38
3607.757	37.38
3610.556	34.38
3613.354	29.38
3616.149	24.38
3618.942	23.38
3621.732	23.38
3624.521	18.38
3627.307	16.38
3630.092	15.38
3632.874	11.38
3635.654	11.38
3638.432	11.38
3641.208	8.38
3643.982	6.38
3646.753	2.38
3649.523	2.38
3652.29	0.38
3655.055	-1.62
3657.818	-2.62
3660.579	-6.62
3663.338	-10.62
3666.095	-10.62
3668.849	-8.62
3671.602	-9.62
3674.352	-19.62
3677.101	-15.62
3679.847	-19.62
3682.591	-18.62
3685.333	-21.62
3688.073	-21.62
3690.811	-22.62
3693.547	-25.62
3696.281	-27.62
3699.013	-24.62
3701.742	-30.62
3704.47	-27.62
3707.195	-28.62
3709.919	-30.62
3712.64	-31.62
3715.359	-33.62
3718.076	-28.62
3720.792	-34.62
3723.505	-35.62
3726.216	-31.62
3728.925	-35.62
3731.632	-35.62
3734.336	-34.62
3737.039	-34.62
3739.74	-36.62
3742.439	-35.62
3745.136	-32.62
3747.83	-32.62
3750.523	-37.62
3753.213	-33.62
3755.902	-36.62
3758.589	-35.62
3761.273	-41.62
3763.956	-39.62
3766.636	-40.62
3769.315	-44.62
3771.991	-43.62
3774.665	-45.62
3777.338	-44.62
3780.008	-44.62
3782.677	-45.62
3785.343	-42.62
3788.007	-40.62
3790.67	-46.62
3793.33	-44.62
3795.989	-46.62
3798.645	-45.62
3801.299	-46.62
3803.952	-47.62
3806.602	-47.62
3809.251	-47.62
3811.897	-45.62
3814.542	-50.62
3817.184	-46.62
3819.825	-41.62
3822.463	-43.62
3825.1	-44.62
3827.735	-43.62
3830.367	-42.62
3832.998	-46.62
3835.627	-43.62
3838.253	-40.62
3840.878	-49.62
3843.501	-45.62
3846.122	-44.62
3848.741	-48.62
3851.358	-49.62
3853.973	-44.62
3856.586	-46.62
3859.197	-46.62
3861.806	-43.62
3864.414	-47.62
3867.019	-48.62
3869.622	-46.62
3872.224	-48.62
3874.823	-46.62
3877.421	-48.62
3880.016	-43.62
3882.61	-40.62
3885.202	-46.62
3887.792	-43.62
3890.38	-43.62
3892.966	-44.62
3895.55	-48.62
3898.132	-45.62
3900.713	-49.62
3903.291	-49.62
3905.868	-48.62
3908.442	-47.62
3911.015	-48.62
3913.586	-48.62
3916.155	-47.62
3918.722	-53.62
3921.287	-50.62
3923.85	-51.62
3926.411	-49.62
3928.971	-54.62
3931.528	-54.62
3934.084	-54.62
3936.638	-55.62
3939.19	-53.62
3941.74	-52.62
3944.288	-51.62
3946.834	-49.62
3949.378	-55.62
3951.921	-53.62
3954.462	-54.62
3957	-51.62
3959.537	-54.62
3962.072	-52.62
3964.606	-49.62
3967.137	-52.62
3969.667	-51.62
3972.194	-48.62
3974.72	-48.62
3977.244	-46.62
3979.766	-45.62
3982.286	-46.62
3984.805	-46.62
3987.321	-48.62
3989.836	-46.62
3992.349	-51.62
3994.86	-49.62
3997.369	-50.62
3999.877	-45.62
4002.382	-46.62
4004.886	-43.62
4007.388	-47.62
4009.888	-53.62
4012.386	-44.62
4014.883	-50.62
4017.377	-52.62
4019.87	-49.62
4022.361	-48.62
4024.85	-48.62
4027.338	-48.62
4029.823	-46.62
4032.307	-51.62
4034.789	-50.62
4037.269	-52.62
4039.747	-48.62
4042.224	-50.62
4044.699	-51.62
4047.172	-48.62
4049.643	-48.62
4052.112	-47.62
4054.58	-47.62
4057.046	-48.62
4059.51	-48.62
4061.972	-49.62
4064.432	-50.62
4066.891	-49.62
4069.348	-53.62
4071.803	-51.62
4074.256	-51.62
4076.708	-53.62
4079.158	-54.62
4081.606	-50.62
4084.052	-51.62
4086.497	-51.62
4088.939	-51.62
4091.38	-52.62
4093.819	-51.62
4096.257	-56.62
4098.693	-55.62
4101.127	-55.62
4103.559	-54.62
4105.989	-12.62
4108.418	-12.62
4110.845	-12.62
4113.27	-10.62
4115.694	-6.62
4118.115	2.38
4120.535	-53.62
4122.954	-54.62
4125.37	-53.62
4127.785	-51.62
4130.198	-51.62
4132.609	-50.62
4135.019	-55.62
4137.427	-53.62
4139.833	-51.62
4142.237	-52.62
