Data from 10000000CFU2_A_ramanshift_RamanShift_12-00-27-634.txt Node
Date: Sun Jan 01 12:00:27 IST 2017
User: aro
Spectrometer: QEPB0276
Trigger mode: 0
Integration Time (sec): 5.000000E0
Scans to average: 1
Electric dark correction enabled: true
Nonlinearity correction enabled: false
Boxcar width: 0
XAxis mode: Raman Shifts
Number of Pixels in Spectrum: 1044
>>>>>Begin Spectral Data<<<<<
160.701	4.5
166.742	19.5
172.777	56.5
178.805	184.5
184.826	560.5
190.841	1333.5
196.849	2541.5
202.85	3691.5
208.845	4320.5
214.833	4357.5
220.815	4202.5
226.789	4081.5
232.758	3984.5
238.719	3915.5
244.674	3778.5
250.623	3677.5
256.565	3526.5
262.5	3357.5
268.429	3239.5
274.351	3123.5
280.267	3024.5
286.176	2927.5
292.079	2832.5
297.975	2767.5
303.865	2696.5
309.748	2646.5
315.625	2583.5
321.495	2533.5
327.359	2499.5
333.217	2455.5
339.068	2425.5
344.912	2408.5
350.751	2409.5
356.583	2416.5
362.408	2408.5
368.227	2390.5
374.04	2389.5
379.847	2388.5
385.647	2415.5
391.44	2402.5
397.228	2419.5
403.009	2439.5
408.784	2438.5
414.553	2443.5
420.315	2462.5
426.071	2454.5
431.821	2454.5
437.565	2462.5
443.302	2467.5
449.033	2451.5
454.758	2457.5
460.477	2425.5
466.189	2435.5
471.896	2420.5
477.596	2416.5
483.29	2414.5
488.978	2406.5
494.66	2381.5
500.335	2356.5
506.005	2358.5
511.668	2304.5
517.325	2281.5
522.977	2267.5
528.622	2229.5
534.261	2200.5
539.894	2164.5
545.521	2179.5
551.141	2159.5
556.756	2147.5
562.365	2130.5
567.968	2125.5
573.565	2127.5
579.155	2117.5
584.74	2090.5
590.319	2090.5
595.892	2094.5
601.459	2076.5
607.02	2060.5
612.575	2045.5
618.124	2045.5
623.667	1999.5
629.204	1998.5
634.735	1971.5
640.261	1982.5
645.781	1967.5
651.294	1964.5
656.802	1943.5
662.304	1936.5
667.8	1942.5
673.29	1931.5
678.775	1937.5
684.254	1927.5
689.726	1907.5
695.193	1902.5
700.655	1894.5
706.11	1901.5
711.56	1875.5
717.004	1861.5
722.442	1856.5
727.874	1835.5
733.301	1828.5
738.722	1824.5
744.137	1827.5
749.547	1830.5
754.951	1814.5
760.349	1807.5
765.741	1798.5
771.128	1819.5
776.509	1820.5
781.885	1815.5
787.254	1808.5
792.618	1838.5
797.977	1823.5
803.33	1782.5
808.677	1806.5
814.019	1769.5
819.355	1754.5
824.686	1746.5
830.011	1743.5
835.33	1742.5
840.644	1738.5
845.952	1732.5
851.255	1737.5
856.552	1721.5
861.844	1714.5
867.13	1715.5
872.41	1714.5
877.686	1694.5
882.955	1696.5
888.219	1674.5
893.478	1655.5
898.731	1627.5
903.979	1625.5
909.221	1586.5
914.458	1585.5
919.69	1582.5
924.916	1572.5
930.136	1589.5
935.351	1576.5
940.561	1564.5
945.766	1557.5
950.965	1574.5
956.158	1571.5
961.347	1558.5
966.529	1524.5
971.707	1511.5
976.879	1509.5
982.046	1490.5
987.208	1469.5
992.364	1469.5
997.515	1466.5
1002.66	1482.5
1007.801	1512.5
1012.936	1500.5
1018.066	1527.5
1023.19	1550.5
1028.309	1549.5
1033.423	1538.5
1038.532	1545.5
1043.636	1528.5
1048.734	1532.5
1053.827	1520.5
1058.915	1479.5
1063.998	1490.5
1069.075	1478.5
1074.147	1487.5
1079.214	1480.5
1084.276	1498.5
1089.333	1509.5
1094.385	1518.5
1099.431	1529.5
1104.472	1543.5
1109.509	1520.5
1114.54	1527.5
1119.565	1517.5
1124.586	1487.5
1129.602	1474.5
1134.613	1451.5
1139.618	1444.5
1144.619	1457.5
1149.614	1469.5
1154.604	1460.5
1159.589	1458.5
1164.57	1477.5
1169.545	1465.5
1174.515	1471.5
1179.48	1487.5
1184.44	1480.5
1189.395	1471.5
1194.345	1459.5
1199.29	1462.5
1204.23	1459.5
1209.165	1441.5
1214.095	1472.5
1219.021	1483.5
1223.941	1483.5
1228.856	1510.5
1233.766	1499.5
1238.672	1501.5
1243.572	1506.5
1248.467	1515.5
1253.358	1499.5
1258.244	1492.5
1263.124	1470.5
1268	1445.5
1272.871	1431.5
1277.737	1403.5
1282.599	1419.5
1287.455	1408.5
1292.306	1403.5
1297.153	1424.5
1301.995	1437.5
1306.832	1453.5
1311.664	1449.5
1316.491	1463.5
1321.314	1458.5
1326.132	1442.5
1330.945	1442.5
1335.753	1434.5
1340.556	1417.5
1345.354	1399.5
1350.148	1396.5
1354.937	1371.5
1359.722	1361.5
1364.501	1345.5
1369.276	1334.5
1374.046	1324.5
1378.811	1311.5
1383.572	1316.5
1388.327	1306.5
1393.079	1310.5
1397.825	1309.5
1402.567	1304.5
1407.304	1282.5
1412.036	1292.5
1416.764	1286.5
1421.487	1293.5
1426.205	1273.5
1430.919	1293.5
1435.628	1315.5
1440.333	1319.5
1445.032	1313.5
1449.727	1348.5
1454.418	1363.5
1459.104	1354.5
1463.785	1368.5
1468.462	1353.5
1473.134	1322.5
1477.802	1319.5
1482.465	1307.5
1487.123	1292.5
1491.777	1315.5
1496.426	1291.5
1501.071	1309.5
1505.711	1313.5
1510.347	1330.5
1514.978	1327.5
1519.604	1334.5
1524.226	1350.5
1528.844	1330.5
1533.457	1348.5
1538.065	1334.5
1542.669	1333.5
1547.269	1335.5
1551.864	1333.5
1556.454	1344.5
1561.041	1336.5
1565.622	1363.5
1570.199	1367.5
1574.772	1364.5
1579.34	1389.5
1583.904	1409.5
1588.464	1429.5
1593.019	1436.5
1597.569	1464.5
1602.115	1465.5
1606.657	1491.5
1611.195	1463.5
1615.728	1497.5
1620.256	1499.5
1624.78	1513.5
1629.3	1519.5
1633.816	1542.5
1638.327	1562.5
1642.834	1589.5
1647.336	1578.5
1651.834	1585.5
1656.328	1598.5
1660.817	1594.5
1665.302	1602.5
1669.783	1569.5
1674.259	1527.5
1678.732	1502.5
1683.199	1466.5
1687.663	1421.5
1692.122	1403.5
1696.577	1356.5
1701.028	1298.5
1705.474	1251.5
1709.917	1211.5
1714.355	1168.5
1718.788	1165.5
1723.218	1163.5
1727.643	1153.5
1732.064	1140.5
1736.481	1112.5
1740.893	1096.5
1745.301	1076.5
1749.705	1061.5
1754.105	1031.5
1758.501	1037.5
1762.893	1019.5
1767.28	1006.5
1771.663	991.5
1776.042	979.5
1780.417	974.5
1784.787	987.5
1789.154	983.5
1793.516	984.5
1797.874	1003.5
1802.228	983.5
1806.578	968.5
1810.924	962.5
1815.266	928.5
1819.603	925.5
1823.937	918.5
1828.266	913.5
1832.591	916.5
1836.913	911.5
1841.23	897.5
1845.543	904.5
1849.852	901.5
1854.156	898.5
1858.457	909.5
1862.754	916.5
1867.047	911.5
1871.335	919.5
1875.62	936.5
1879.9	925.5
1884.177	933.5
1888.449	936.5
1892.718	918.5
1896.982	916.5
1901.243	912.5
1905.499	907.5
1909.752	904.5
1914	895.5
1918.245	903.5
1922.485	903.5
1926.722	912.5
1930.954	912.5
1935.183	905.5
1939.408	909.5
1943.628	905.5
1947.845	902.5
1952.058	918.5
1956.267	899.5
1960.472	895.5
1964.673	879.5
1968.87	873.5
1973.063	866.5
1977.252	867.5
1981.438	864.5
1985.619	852.5
1989.797	855.5
1993.971	842.5
1998.14	864.5
2002.306	856.5
2006.469	860.5
2010.627	878.5
2014.781	869.5
2018.932	858.5
2023.078	861.5
2027.221	866.5
2031.36	861.5
2035.495	848.5
2039.627	852.5
2043.754	842.5
2047.878	841.5
2051.998	822.5
2056.114	824.5
2060.226	833.5
2064.334	834.5
2068.439	830.5
2072.54	845.5
2076.637	839.5
2080.73	837.5
2084.82	833.5
2088.906	844.5
2092.988	836.5
2097.066	848.5
2101.14	834.5
2105.211	835.5
2109.278	830.5
2113.342	820.5
2117.401	816.5
2121.457	809.5
2125.509	810.5
2129.558	815.5
2133.602	798.5
2137.643	806.5
2141.681	807.5
2145.714	787.5
2149.744	794.5
2153.77	792.5
2157.793	795.5
2161.812	788.5
2165.827	773.5
2169.838	769.5
2173.846	744.5
2177.851	759.5
2181.851	730.5
2185.848	736.5
2189.841	732.5
2193.831	720.5
2197.817	713.5
2201.799	714.5
2205.778	707.5
2209.753	711.5
2213.725	711.5
2217.693	714.5
2221.657	710.5
2225.618	703.5
2229.575	701.5
2233.529	697.5
2237.479	690.5
2241.425	696.5
2245.368	681.5
2249.307	681.5
2253.243	671.5
2257.175	658.5
2261.104	649.5
2265.029	653.5
2268.95	635.5
2272.868	642.5
2276.783	641.5
2280.694	627.5
2284.601	618.5
2288.505	610.5
2292.405	608.5
2296.302	603.5
2300.195	592.5
2304.085	592.5
2307.971	586.5
2311.854	587.5
2315.734	575.5
2319.609	553.5
2323.482	550.5
2327.351	545.5
2331.216	529.5
2335.078	538.5
2338.937	530.5
2342.792	527.5
2346.643	523.5
2350.492	524.5
2354.336	523.5
2358.178	528.5
2362.015	528.5
2365.85	530.5
2369.681	528.5
2373.508	534.5
2377.333	532.5
2381.153	533.5
2384.971	532.5
2388.785	529.5
2392.595	534.5
2396.402	522.5
2400.206	521.5
2404.007	518.5
2407.804	525.5
2411.597	510.5
2415.388	524.5
2419.174	529.5
2422.958	518.5
2426.738	511.5
2430.515	514.5
2434.289	518.5
2438.059	516.5
2441.825	508.5
2445.589	503.5
2449.349	508.5
2453.106	502.5
2456.859	504.5
2460.61	490.5
2464.356	483.5
2468.1	488.5
2471.84	478.5
2475.577	476.5
2479.311	480.5
2483.041	473.5
2486.768	473.5
2490.492	477.5
2494.213	481.5
2497.93	482.5
2501.644	482.5
2505.355	474.5
2509.062	485.5
2512.766	474.5
2516.467	474.5
2520.165	470.5
2523.859	470.5
2527.551	460.5
2531.239	454.5
2534.923	462.5
2538.605	458.5
2542.283	446.5
2545.958	452.5
2549.63	451.5
2553.299	449.5
2556.964	445.5
2560.626	442.5
2564.285	442.5
2567.941	440.5
2571.594	425.5
2575.243	431.5
2578.89	419.5
2582.533	415.5
2586.173	433.5
2589.809	419.5
2593.443	413.5
2597.073	418.5
2600.701	417.5
2604.325	408.5
2607.946	410.5
2611.564	413.5
2615.178	405.5
2618.79	406.5
2622.398	404.5
2626.004	404.5
2629.606	406.5
2633.205	405.5
2636.801	399.5
2640.394	396.5
2643.983	393.5
2647.57	386.5
2651.153	384.5
2654.734	373.5
2658.311	377.5
2661.885	371.5
2665.456	370.5
2669.025	361.5
2672.589	360.5
2676.151	363.5
2679.71	356.5
2683.266	366.5
2686.819	360.5
2690.368	342.5
2693.915	349.5
2697.458	348.5
2700.999	340.5
2704.536	346.5
2708.071	329.5
2711.602	335.5
2715.13	334.5
2718.656	336.5
2722.178	332.5
2725.697	331.5
2729.214	328.5
2732.727	330.5
2736.237	327.5
2739.744	332.5
2743.249	328.5
2746.75	335.5
2750.248	333.5
2753.743	322.5
2757.236	322.5
2760.725	328.5
2764.211	321.5
2767.695	317.5
2771.175	315.5
2774.652	307.5
2778.127	307.5
2781.598	307.5
2785.067	306.5
2788.532	305.5
2791.995	298.5
2795.455	310.5
2798.911	312.5
2802.365	312.5
2805.816	314.5
2809.264	309.5
2812.709	313.5
2816.151	307.5
2819.59	307.5
2823.026	307.5
2826.46	313.5
2829.89	308.5
2833.318	312.5
2836.742	309.5
2840.164	310.5
2843.583	309.5
2846.999	310.5
2850.412	314.5
2853.822	307.5
2857.229	318.5
2860.634	317.5
2864.035	319.5
2867.434	324.5
2870.83	323.5
2874.223	324.5
2877.613	326.5
2881	322.5
2884.385	322.5
2887.766	326.5
2891.145	321.5
2894.521	326.5
2897.894	325.5
2901.264	321.5
2904.631	333.5
2907.996	329.5
2911.358	328.5
2914.717	329.5
2918.073	336.5
2921.426	326.5
2924.777	335.5
2928.124	338.5
2931.469	340.5
2934.811	354.5
2938.15	350.5
2941.487	359.5
2944.821	362.5
2948.152	360.5
2951.48	363.5
2954.805	366.5
2958.128	367.5
2961.447	365.5
2964.765	379.5
2968.079	374.5
2971.39	382.5
2974.699	385.5
2978.005	387.5
2981.308	396.5
2984.609	403.5
2987.907	391.5
2991.202	410.5
2994.494	414.5
2997.784	426.5
3001.07	439.5
3004.355	440.5
3007.636	454.5
3010.915	468.5
3014.191	471.5
3017.464	475.5
3020.734	473.5
3024.002	479.5
3027.267	486.5
3030.53	496.5
3033.789	495.5
3037.046	506.5
3040.301	518.5
3043.552	533.5
3046.801	531.5
3050.048	547.5
3053.291	557.5
3056.532	571.5
3059.771	589.5
3063.006	604.5
3066.239	617.5
3069.469	633.5
3072.697	646.5
3075.922	647.5
3079.144	684.5
3082.364	681.5
3085.581	718.5
3088.795	734.5
3092.007	727.5
3095.216	745.5
3098.423	752.5
3101.627	781.5
3104.828	795.5
3108.026	804.5
3111.222	827.5
3114.416	843.5
3117.607	850.5
3120.795	858.5
3123.98	885.5
3127.163	909.5
3130.344	924.5
3133.521	941.5
3136.696	962.5
3139.869	973.5
3143.039	1003.5
3146.206	992.5
3149.371	1022.5
3152.533	1037.5
3155.693	1038.5
3158.85	1041.5
3162.005	1059.5
3165.157	1047.5
3168.306	1065.5
3171.453	1061.5
3174.597	1066.5
3177.739	1061.5
3180.878	1063.5
3184.014	1072.5
3187.149	1079.5
3190.28	1078.5
3193.409	1072.5
3196.536	1090.5
3199.659	1091.5
3202.781	1102.5
3205.9	1102.5
3209.016	1118.5
3212.13	1083.5
3215.241	1090.5
3218.35	1091.5
3221.456	1071.5
3224.56	1073.5
3227.661	1057.5
3230.76	1052.5
3233.856	1038.5
3236.95	1036.5
3240.041	1013.5
3243.13	1003.5
3246.216	998.5
3249.3	987.5
3252.382	997.5
3255.46	987.5
3258.537	970.5
3261.611	969.5
3264.682	961.5
3267.751	975.5
3270.818	970.5
3273.882	969.5
3276.943	969.5
3280.002	953.5
3283.059	958.5
3286.113	940.5
3289.165	938.5
3292.214	910.5
3295.261	910.5
3298.306	890.5
3301.348	864.5
3304.387	863.5
3307.425	843.5
3310.459	845.5
3313.492	841.5
3316.521	813.5
3319.549	803.5
3322.574	811.5
3325.597	800.5
3328.617	801.5
3331.635	792.5
3334.65	777.5
3337.663	783.5
3340.674	778.5
3343.682	761.5
3346.688	776.5
3349.691	769.5
3352.692	763.5
3355.691	757.5
3358.687	753.5
3361.681	755.5
3364.673	747.5
3367.662	719.5
3370.649	722.5
3373.633	721.5
3376.615	715.5
3379.595	698.5
3382.572	683.5
3385.547	673.5
3388.52	678.5
3391.49	658.5
3394.458	653.5
3397.424	642.5
3400.387	649.5
3403.348	632.5
3406.307	619.5
3409.263	620.5
3412.217	602.5
3415.168	605.5
3418.118	599.5
3421.065	602.5
3424.009	580.5
3426.951	575.5
3429.891	567.5
3432.829	551.5
3435.764	552.5
3438.697	544.5
3441.628	543.5
3444.557	518.5
3447.483	503.5
3450.407	491.5
3453.328	485.5
3456.247	465.5
3459.164	468.5
3462.079	445.5
3464.991	436.5
3467.902	417.5
3470.809	409.5
3473.715	402.5
3476.618	391.5
3479.519	370.5
3482.418	359.5
3485.315	360.5
3488.209	342.5
3491.101	341.5
3493.99	328.5
3496.878	325.5
3499.763	310.5
3502.646	312.5
3505.527	299.5
3508.405	279.5
3511.281	263.5
3514.155	267.5
3517.027	258.5
3519.897	241.5
3522.764	229.5
3525.629	225.5
3528.492	206.5
3531.352	194.5
3534.211	193.5
3537.067	183.5
3539.921	172.5
3542.773	171.5
3545.622	161.5
3548.469	153.5
3551.315	144.5
3554.157	137.5
3556.998	128.5
3559.837	126.5
3562.673	119.5
3565.507	117.5
3568.339	112.5
3571.169	104.5
3573.996	101.5
3576.822	94.5
3579.645	94.5
3582.466	87.5
3585.285	78.5
3588.101	72.5
3590.916	65.5
3593.728	61.5
3596.538	57.5
3599.346	50.5
3602.152	48.5
3604.956	47.5
3607.757	42.5
3610.556	38.5
3613.354	34.5
3616.149	27.5
3618.942	21.5
3621.732	23.5
3624.521	24.5
3627.307	17.5
3630.092	16.5
3632.874	15.5
3635.654	11.5
3638.432	14.5
3641.208	5.5
3643.982	7.5
3646.753	5.5
3649.523	4.5
3652.29	4.5
3655.055	0.5
3657.818	-1.5
3660.579	-3.5
3663.338	-6.5
3666.095	-11.5
3668.849	-9.5
3671.602	-12.5
3674.352	-16.5
3677.101	-20.5
3679.847	-20.5
3682.591	-21.5
3685.333	-26.5
3688.073	-27.5
3690.811	-28.5
3693.547	-28.5
3696.281	-33.5
3699.013	-29.5
3701.742	-35.5
3704.47	-35.5
3707.195	-37.5
3709.919	-37.5
3712.64	-41.5
3715.359	-39.5
3718.076	-37.5
3720.792	-44.5
3723.505	-45.5
3726.216	-39.5
3728.925	-40.5
3731.632	-43.5
3734.336	-44.5
3737.039	-42.5
3739.74	-41.5
3742.439	-43.5
3745.136	-45.5
3747.83	-45.5
3750.523	-44.5
3753.213	-44.5
3755.902	-46.5
3758.589	-45.5
3761.273	-46.5
3763.956	-46.5
3766.636	-49.5
3769.315	-51.5
3771.991	-53.5
3774.665	-49.5
3777.338	-50.5
3780.008	-52.5
3782.677	-55.5
3785.343	-51.5
3788.007	-54.5
3790.67	-50.5
3793.33	-55.5
3795.989	-52.5
3798.645	-53.5
3801.299	-55.5
3803.952	-59.5
3806.602	-55.5
3809.251	-58.5
3811.897	-55.5
3814.542	-60.5
3817.184	-55.5
3819.825	-54.5
3822.463	-54.5
3825.1	-57.5
3827.735	-53.5
3830.367	-57.5
3832.998	-57.5
3835.627	-59.5
3838.253	-54.5
3840.878	-63.5
3843.501	-58.5
3846.122	-57.5
3848.741	-62.5
3851.358	-59.5
3853.973	-60.5
3856.586	-58.5
3859.197	-62.5
3861.806	-64.5
3864.414	-57.5
3867.019	-55.5
3869.622	-60.5
3872.224	-58.5
3874.823	-60.5
3877.421	-62.5
3880.016	-57.5
3882.61	-57.5
3885.202	-58.5
3887.792	-54.5
3890.38	-53.5
3892.966	-56.5
3895.55	-59.5
3898.132	-62.5
3900.713	-60.5
3903.291	-63.5
3905.868	-58.5
3908.442	-58.5
3911.015	-61.5
3913.586	-60.5
3916.155	-62.5
3918.722	-67.5
3921.287	-64.5
3923.85	-64.5
3926.411	-61.5
3928.971	-64.5
3931.528	-64.5
3934.084	-68.5
3936.638	-66.5
3939.19	-66.5
3941.74	-65.5
3944.288	-66.5
3946.834	-65.5
3949.378	-69.5
3951.921	-65.5
3954.462	-66.5
3957	-62.5
3959.537	-65.5
3962.072	-63.5
3964.606	-61.5
3967.137	-62.5
3969.667	-65.5
3972.194	-63.5
3974.72	-59.5
3977.244	-63.5
3979.766	-58.5
3982.286	-60.5
3984.805	-62.5
3987.321	-60.5
3989.836	-62.5
3992.349	-62.5
3994.86	-60.5
3997.369	-60.5
3999.877	-60.5
4002.382	-56.5
4004.886	-60.5
4007.388	-61.5
4009.888	-62.5
4012.386	-58.5
4014.883	-63.5
4017.377	-61.5
4019.87	-66.5
4022.361	-59.5
4024.85	-61.5
4027.338	-65.5
4029.823	-62.5
4032.307	-65.5
4034.789	-63.5
4037.269	-68.5
4039.747	-63.5
4042.224	-66.5
4044.699	-64.5
4047.172	-63.5
4049.643	-63.5
4052.112	-65.5
4054.58	-62.5
4057.046	-64.5
4059.51	-63.5
4061.972	-65.5
4064.432	-67.5
4066.891	-64.5
4069.348	-67.5
4071.803	-63.5
4074.256	-63.5
4076.708	-65.5
4079.158	-62.5
4081.606	-63.5
4084.052	-61.5
4086.497	-64.5
4088.939	-63.5
4091.38	-65.5
4093.819	-63.5
4096.257	-66.5
4098.693	-67.5
4101.127	-67.5
4103.559	-67.5
4105.989	-20.5
4108.418	-19.5
4110.845	-17.5
4113.27	-16.5
4115.694	-14.5
4118.115	-4.5
4120.535	-61.5
4122.954	-63.5
4125.37	-62.5
4127.785	-64.5
4130.198	-62.5
4132.609	-62.5
4135.019	-67.5
4137.427	-67.5
4139.833	-62.5
4142.237	-67.5
