Data from 1000000CFU1_A_ramanshift_RamanShift_11-55-17-666.txt Node
Date: Sun Jan 01 11:55:17 IST 2017
User: aro
Spectrometer: QEPB0276
Trigger mode: 0
Integration Time (sec): 5.000000E0
Scans to average: 1
Electric dark correction enabled: true
Nonlinearity correction enabled: false
Boxcar width: 0
XAxis mode: Raman Shifts
Number of Pixels in Spectrum: 1044
>>>>>Begin Spectral Data<<<<<
160.701	8.88
166.742	16.88
172.777	58.88
178.805	187.88
184.826	555.88
190.841	1325.88
196.849	2506.88
202.85	3613.88
208.845	4235.88
214.833	4239.88
220.815	4084.88
226.789	3963.88
232.758	3883.88
238.719	3808.88
244.674	3684.88
250.623	3551.88
256.565	3438.88
262.5	3306.88
268.429	3141.88
274.351	3034.88
280.267	2924.88
286.176	2833.88
292.079	2781.88
297.975	2677.88
303.865	2611.88
309.748	2571.88
315.625	2498.88
321.495	2437.88
327.359	2400.88
333.217	2368.88
339.068	2335.88
344.912	2326.88
350.751	2315.88
356.583	2302.88
362.408	2300.88
368.227	2296.88
374.04	2302.88
379.847	2317.88
385.647	2321.88
391.44	2321.88
397.228	2337.88
403.009	2357.88
408.784	2354.88
414.553	2363.88
420.315	2359.88
426.071	2362.88
431.821	2379.88
437.565	2393.88
443.302	2363.88
449.033	2376.88
454.758	2363.88
460.477	2365.88
466.189	2346.88
471.896	2351.88
477.596	2333.88
483.29	2330.88
488.978	2299.88
494.66	2293.88
500.335	2285.88
506.005	2257.88
511.668	2226.88
517.325	2212.88
522.977	2155.88
528.622	2126.88
534.261	2101.88
539.894	2095.88
545.521	2078.88
551.141	2067.88
556.756	2064.88
562.365	2059.88
567.968	2043.88
573.565	2027.88
579.155	2014.88
584.74	2012.88
590.319	2019.88
595.892	2004.88
601.459	1980.88
607.02	1972.88
612.575	1967.88
618.124	1946.88
623.667	1919.88
629.204	1914.88
634.735	1908.88
640.261	1888.88
645.781	1865.88
651.294	1880.88
656.802	1854.88
662.304	1850.88
667.8	1853.88
673.29	1843.88
678.775	1851.88
684.254	1834.88
689.726	1824.88
695.193	1842.88
700.655	1806.88
706.11	1793.88
711.56	1790.88
717.004	1798.88
722.442	1786.88
727.874	1755.88
733.301	1765.88
738.722	1767.88
744.137	1761.88
749.547	1747.88
754.951	1737.88
760.349	1729.88
765.741	1730.88
771.128	1740.88
776.509	1736.88
781.885	1740.88
787.254	1737.88
792.618	1733.88
797.977	1728.88
803.33	1712.88
808.677	1723.88
814.019	1699.88
819.355	1670.88
824.686	1655.88
830.011	1662.88
835.33	1644.88
840.644	1650.88
845.952	1640.88
851.255	1650.88
856.552	1655.88
861.844	1631.88
867.13	1658.88
872.41	1645.88
877.686	1629.88
882.955	1626.88
888.219	1595.88
893.478	1595.88
898.731	1563.88
903.979	1542.88
909.221	1507.88
914.458	1503.88
919.69	1506.88
924.916	1500.88
930.136	1522.88
935.351	1516.88
940.561	1504.88
945.766	1516.88
950.965	1507.88
956.158	1489.88
961.347	1483.88
966.529	1492.88
971.707	1444.88
976.879	1433.88
982.046	1414.88
987.208	1405.88
992.364	1402.88
997.515	1422.88
1002.66	1425.88
1007.801	1442.88
1012.936	1448.88
1018.066	1466.88
1023.19	1468.88
1028.309	1464.88
1033.423	1470.88
1038.532	1482.88
1043.636	1485.88
1048.734	1464.88
1053.827	1450.88
1058.915	1442.88
1063.998	1426.88
1069.075	1421.88
1074.147	1415.88
1079.214	1422.88
1084.276	1430.88
1089.333	1449.88
1094.385	1454.88
1099.431	1476.88
1104.472	1465.88
1109.509	1461.88
1114.54	1452.88
1119.565	1434.88
1124.586	1429.88
1129.602	1418.88
1134.613	1406.88
1139.618	1387.88
1144.619	1398.88
1149.614	1414.88
1154.604	1390.88
1159.589	1410.88
1164.57	1413.88
1169.545	1439.88
1174.515	1427.88
1179.48	1430.88
1184.44	1409.88
1189.395	1411.88
1194.345	1407.88
1199.29	1408.88
1204.23	1389.88
1209.165	1391.88
1214.095	1422.88
1219.021	1402.88
1223.941	1439.88
1228.856	1438.88
1233.766	1434.88
1238.672	1455.88
1243.572	1448.88
1248.467	1452.88
1253.358	1455.88
1258.244	1424.88
1263.124	1413.88
1268	1373.88
1272.871	1367.88
1277.737	1359.88
1282.599	1355.88
1287.455	1360.88
1292.306	1362.88
1297.153	1368.88
1301.995	1373.88
1306.832	1374.88
1311.664	1388.88
1316.491	1410.88
1321.314	1388.88
1326.132	1399.88
1330.945	1374.88
1335.753	1373.88
1340.556	1349.88
1345.354	1336.88
1350.148	1340.88
1354.937	1328.88
1359.722	1319.88
1364.501	1317.88
1369.276	1290.88
1374.046	1303.88
1378.811	1294.88
1383.572	1278.88
1388.327	1267.88
1393.079	1260.88
1397.825	1271.88
1402.567	1253.88
1407.304	1250.88
1412.036	1241.88
1416.764	1241.88
1421.487	1232.88
1426.205	1238.88
1430.919	1258.88
1435.628	1271.88
1440.333	1272.88
1445.032	1281.88
1449.727	1304.88
1454.418	1322.88
1459.104	1317.88
1463.785	1305.88
1468.462	1311.88
1473.134	1295.88
1477.802	1273.88
1482.465	1270.88
1487.123	1259.88
1491.777	1262.88
1496.426	1261.88
1501.071	1272.88
1505.711	1269.88
1510.347	1283.88
1514.978	1302.88
1519.604	1307.88
1524.226	1305.88
1528.844	1313.88
1533.457	1306.88
1538.065	1310.88
1542.669	1302.88
1547.269	1288.88
1551.864	1304.88
1556.454	1295.88
1561.041	1306.88
1565.622	1313.88
1570.199	1320.88
1574.772	1334.88
1579.34	1355.88
1583.904	1373.88
1588.464	1382.88
1593.019	1421.88
1597.569	1428.88
1602.115	1434.88
1606.657	1430.88
1611.195	1440.88
1615.728	1455.88
1620.256	1462.88
1624.78	1464.88
1629.3	1499.88
1633.816	1484.88
1638.327	1515.88
1642.834	1536.88
1647.336	1545.88
1651.834	1564.88
1656.328	1565.88
1660.817	1547.88
1665.302	1545.88
1669.783	1549.88
1674.259	1506.88
1678.732	1479.88
1683.199	1429.88
1687.663	1397.88
1692.122	1346.88
1696.577	1326.88
1701.028	1278.88
1705.474	1250.88
1709.917	1191.88
1714.355	1149.88
1718.788	1143.88
1723.218	1145.88
1727.643	1141.88
1732.064	1124.88
1736.481	1107.88
1740.893	1080.88
1745.301	1058.88
1749.705	1043.88
1754.105	1017.88
1758.501	1007.88
1762.893	986.88
1767.28	965.88
1771.663	965.88
1776.042	973.88
1780.417	946.88
1784.787	947.88
1789.154	964.88
1793.516	961.88
1797.874	955.88
1802.228	963.88
1806.578	948.88
1810.924	942.88
1815.266	922.88
1819.603	917.88
1823.937	902.88
1828.266	892.88
1832.591	874.88
1836.913	881.88
1841.23	886.88
1845.543	886.88
1849.852	872.88
1854.156	880.88
1858.457	902.88
1862.754	900.88
1867.047	889.88
1871.335	901.88
1875.62	904.88
1879.9	914.88
1884.177	912.88
1888.449	904.88
1892.718	897.88
1896.982	900.88
1901.243	897.88
1905.499	900.88
1909.752	887.88
1914	881.88
1918.245	891.88
1922.485	899.88
1926.722	881.88
1930.954	905.88
1935.183	892.88
1939.408	905.88
1943.628	907.88
1947.845	896.88
1952.058	896.88
1956.267	895.88
1960.472	888.88
1964.673	880.88
1968.87	864.88
1973.063	866.88
1977.252	846.88
1981.438	843.88
1985.619	844.88
1989.797	845.88
1993.971	848.88
1998.14	851.88
2002.306	863.88
2006.469	861.88
2010.627	856.88
2014.781	862.88
2018.932	864.88
2023.078	860.88
2027.221	863.88
2031.36	846.88
2035.495	847.88
2039.627	841.88
2043.754	826.88
2047.878	830.88
2051.998	825.88
2056.114	832.88
2060.226	833.88
2064.334	827.88
2068.439	824.88
2072.54	821.88
2076.637	841.88
2080.73	833.88
2084.82	850.88
2088.906	825.88
2092.988	832.88
2097.066	840.88
2101.14	835.88
2105.211	824.88
2109.278	822.88
2113.342	822.88
2117.401	807.88
2121.457	816.88
2125.509	808.88
2129.558	809.88
2133.602	803.88
2137.643	802.88
2141.681	796.88
2145.714	793.88
2149.744	795.88
2153.77	789.88
2157.793	791.88
2161.812	773.88
2165.827	781.88
2169.838	777.88
2173.846	745.88
2177.851	740.88
2181.851	731.88
2185.848	728.88
2189.841	723.88
2193.831	722.88
2197.817	712.88
2201.799	712.88
2205.778	704.88
2209.753	702.88
2213.725	709.88
2217.693	697.88
2221.657	711.88
2225.618	702.88
2229.575	687.88
2233.529	706.88
2237.479	697.88
2241.425	690.88
2245.368	688.88
2249.307	682.88
2253.243	671.88
2257.175	657.88
2261.104	654.88
2265.029	647.88
2268.95	638.88
2272.868	647.88
2276.783	635.88
2280.694	617.88
2284.601	615.88
2288.505	619.88
2292.405	608.88
2296.302	609.88
2300.195	590.88
2304.085	582.88
2307.971	582.88
2311.854	574.88
2315.734	575.88
2319.609	566.88
2323.482	560.88
2327.351	546.88
2331.216	539.88
2335.078	542.88
2338.937	536.88
2342.792	534.88
2346.643	536.88
2350.492	534.88
2354.336	527.88
2358.178	532.88
2362.015	522.88
2365.85	526.88
2369.681	533.88
2373.508	545.88
2377.333	532.88
2381.153	535.88
2384.971	538.88
2388.785	535.88
2392.595	533.88
2396.402	523.88
2400.206	519.88
2404.007	521.88
2407.804	512.88
2411.597	520.88
2415.388	525.88
2419.174	510.88
2422.958	518.88
2426.738	509.88
2430.515	517.88
2434.289	506.88
2438.059	503.88
2441.825	512.88
2445.589	503.88
2449.349	491.88
2453.106	505.88
2456.859	483.88
2460.61	486.88
2464.356	484.88
2468.1	486.88
2471.84	483.88
2475.577	476.88
2479.311	483.88
2483.041	486.88
2486.768	472.88
2490.492	483.88
2494.213	472.88
2497.93	475.88
2501.644	479.88
2505.355	476.88
2509.062	482.88
2512.766	477.88
2516.467	477.88
2520.165	475.88
2523.859	475.88
2527.551	466.88
2531.239	462.88
2534.923	460.88
2538.605	451.88
2542.283	452.88
2545.958	453.88
2549.63	452.88
2553.299	456.88
2556.964	445.88
2560.626	441.88
2564.285	444.88
2567.941	436.88
2571.594	443.88
2575.243	425.88
2578.89	430.88
2582.533	422.88
2586.173	417.88
2589.809	414.88
2593.443	416.88
2597.073	419.88
2600.701	419.88
2604.325	409.88
2607.946	408.88
2611.564	411.88
2615.178	412.88
2618.79	418.88
2622.398	410.88
2626.004	411.88
2629.606	403.88
2633.205	412.88
2636.801	402.88
2640.394	401.88
2643.983	394.88
2647.57	392.88
2651.153	385.88
2654.734	390.88
2658.311	381.88
2661.885	375.88
2665.456	370.88
2669.025	365.88
2672.589	369.88
2676.151	361.88
2679.71	376.88
2683.266	366.88
2686.819	361.88
2690.368	361.88
2693.915	351.88
2697.458	353.88
2700.999	347.88
2704.536	347.88
2708.071	345.88
2711.602	343.88
2715.13	343.88
2718.656	340.88
2722.178	333.88
2725.697	342.88
2729.214	331.88
2732.727	333.88
2736.237	337.88
2739.744	337.88
2743.249	338.88
2746.75	337.88
2750.248	335.88
2753.743	334.88
2757.236	327.88
2760.725	321.88
2764.211	336.88
2767.695	324.88
2771.175	318.88
2774.652	312.88
2778.127	311.88
2781.598	312.88
2785.067	311.88
2788.532	305.88
2791.995	305.88
2795.455	317.88
2798.911	316.88
2802.365	319.88
2805.816	308.88
2809.264	318.88
2812.709	313.88
2816.151	312.88
2819.59	308.88
2823.026	316.88
2826.46	315.88
2829.89	312.88
2833.318	313.88
2836.742	311.88
2840.164	316.88
2843.583	318.88
2846.999	314.88
2850.412	312.88
2853.822	328.88
2857.229	323.88
2860.634	320.88
2864.035	330.88
2867.434	327.88
2870.83	339.88
2874.223	335.88
2877.613	337.88
2881	321.88
2884.385	328.88
2887.766	337.88
2891.145	343.88
2894.521	334.88
2897.894	331.88
2901.264	330.88
2904.631	323.88
2907.996	325.88
2911.358	333.88
2914.717	331.88
2918.073	335.88
2921.426	333.88
2924.777	343.88
2928.124	347.88
2931.469	347.88
2934.811	339.88
2938.15	356.88
2941.487	364.88
2944.821	362.88
2948.152	369.88
2951.48	369.88
2954.805	370.88
2958.128	369.88
2961.447	364.88
2964.765	371.88
2968.079	378.88
2971.39	376.88
2974.699	384.88
2978.005	389.88
2981.308	391.88
2984.609	407.88
2987.907	407.88
2991.202	417.88
2994.494	425.88
2997.784	428.88
3001.07	454.88
3004.355	454.88
3007.636	466.88
3010.915	468.88
3014.191	475.88
3017.464	473.88
3020.734	490.88
3024.002	494.88
3027.267	494.88
3030.53	503.88
3033.789	517.88
3037.046	525.88
3040.301	519.88
3043.552	519.88
3046.801	540.88
3050.048	555.88
3053.291	561.88
3056.532	561.88
3059.771	586.88
3063.006	603.88
3066.239	626.88
3069.469	637.88
3072.697	657.88
3075.922	655.88
3079.144	673.88
3082.364	698.88
3085.581	701.88
3088.795	723.88
3092.007	726.88
3095.216	735.88
3098.423	757.88
3101.627	772.88
3104.828	781.88
3108.026	801.88
3111.222	808.88
3114.416	822.88
3117.607	866.88
3120.795	863.88
3123.98	881.88
3127.163	901.88
3130.344	919.88
3133.521	920.88
3136.696	950.88
3139.869	973.88
3143.039	989.88
3146.206	1000.88
3149.371	1014.88
3152.533	1024.88
3155.693	1038.88
3158.85	1043.88
3162.005	1049.88
3165.157	1051.88
3168.306	1047.88
3171.453	1066.88
3174.597	1070.88
3177.739	1074.88
3180.878	1067.88
3184.014	1065.88
3187.149	1064.88
3190.28	1082.88
3193.409	1088.88
3196.536	1101.88
3199.659	1095.88
3202.781	1100.88
3205.9	1098.88
3209.016	1091.88
3212.13	1092.88
3215.241	1089.88
3218.35	1083.88
3221.456	1077.88
3224.56	1068.88
3227.661	1058.88
3230.76	1048.88
3233.856	1045.88
3236.95	1026.88
3240.041	1025.88
3243.13	1015.88
3246.216	1006.88
3249.3	981.88
3252.382	994.88
3255.46	978.88
3258.537	975.88
3261.611	985.88
3264.682	991.88
3267.751	968.88
3270.818	974.88
3273.882	975.88
3276.943	963.88
3280.002	953.88
3283.059	953.88
3286.113	931.88
3289.165	939.88
3292.214	915.88
3295.261	898.88
3298.306	884.88
3301.348	879.88
3304.387	860.88
3307.425	856.88
3310.459	842.88
3313.492	827.88
3316.521	818.88
3319.549	806.88
3322.574	805.88
3325.597	805.88
3328.617	787.88
3331.635	785.88
3334.65	782.88
3337.663	778.88
3340.674	766.88
3343.682	767.88
3346.688	761.88
3349.691	766.88
3352.692	760.88
3355.691	769.88
3358.687	764.88
3361.681	749.88
3364.673	744.88
3367.662	731.88
3370.649	716.88
3373.633	714.88
3376.615	707.88
3379.595	699.88
3382.572	680.88
3385.547	682.88
3388.52	670.88
3391.49	659.88
3394.458	665.88
3397.424	643.88
3400.387	634.88
3403.348	643.88
3406.307	615.88
3409.263	607.88
3412.217	621.88
3415.168	603.88
3418.118	603.88
3421.065	601.88
3424.009	588.88
3426.951	586.88
3429.891	576.88
3432.829	562.88
3435.764	556.88
3438.697	540.88
3441.628	544.88
3444.557	519.88
3447.483	512.88
3450.407	501.88
3453.328	480.88
3456.247	468.88
3459.164	454.88
3462.079	440.88
3464.991	440.88
3467.902	428.88
3470.809	412.88
3473.715	398.88
3476.618	383.88
3479.519	379.88
3482.418	367.88
3485.315	363.88
3488.209	348.88
3491.101	342.88
3493.99	330.88
3496.878	322.88
3499.763	311.88
3502.646	304.88
3505.527	295.88
3508.405	281.88
3511.281	276.88
3514.155	271.88
3517.027	257.88
3519.897	241.88
3522.764	235.88
3525.629	226.88
3528.492	216.88
3531.352	207.88
3534.211	187.88
3537.067	189.88
3539.921	174.88
3542.773	174.88
3545.622	162.88
3548.469	155.88
3551.315	146.88
3554.157	141.88
3556.998	137.88
3559.837	133.88
3562.673	116.88
3565.507	124.88
3568.339	110.88
3571.169	106.88
3573.996	101.88
3576.822	99.88
3579.645	94.88
3582.466	89.88
3585.285	80.88
3588.101	69.88
3590.916	69.88
3593.728	60.88
3596.538	62.88
3599.346	55.88
3602.152	46.88
3604.956	48.88
3607.757	43.88
3610.556	42.88
3613.354	33.88
3616.149	32.88
3618.942	25.88
3621.732	28.88
3624.521	20.88
3627.307	19.88
3630.092	20.88
3632.874	14.88
3635.654	16.88
3638.432	10.88
3641.208	12.88
3643.982	9.88
3646.753	6.88
3649.523	2.88
3652.29	1.88
3655.055	-1.12
3657.818	-0.12
3660.579	-6.12
3663.338	-8.12
3666.095	-7.12
3668.849	-7.12
3671.602	-11.12
3674.352	-14.12
3677.101	-17.12
3679.847	-22.12
3682.591	-20.12
3685.333	-27.12
3688.073	-26.12
3690.811	-24.12
3693.547	-29.12
3696.281	-28.12
3699.013	-27.12
3701.742	-32.12
3704.47	-33.12
3707.195	-29.12
3709.919	-36.12
3712.64	-38.12
3715.359	-36.12
3718.076	-36.12
3720.792	-37.12
3723.505	-40.12
3726.216	-42.12
3728.925	-41.12
3731.632	-41.12
3734.336	-42.12
3737.039	-45.12
3739.74	-48.12
3742.439	-44.12
3745.136	-42.12
3747.83	-45.12
3750.523	-46.12
3753.213	-41.12
3755.902	-48.12
3758.589	-44.12
3761.273	-48.12
3763.956	-49.12
3766.636	-50.12
3769.315	-52.12
3771.991	-53.12
3774.665	-50.12
3777.338	-51.12
3780.008	-52.12
3782.677	-55.12
3785.343	-49.12
3788.007	-47.12
3790.67	-49.12
3793.33	-55.12
3795.989	-49.12
3798.645	-54.12
3801.299	-52.12
3803.952	-54.12
3806.602	-53.12
3809.251	-52.12
3811.897	-53.12
3814.542	-56.12
3817.184	-51.12
3819.825	-51.12
3822.463	-51.12
3825.1	-55.12
3827.735	-52.12
3830.367	-52.12
3832.998	-57.12
3835.627	-56.12
3838.253	-56.12
3840.878	-61.12
3843.501	-56.12
3846.122	-57.12
3848.741	-61.12
3851.358	-59.12
3853.973	-59.12
3856.586	-60.12
3859.197	-64.12
3861.806	-62.12
3864.414	-62.12
3867.019	-63.12
3869.622	-63.12
3872.224	-64.12
3874.823	-60.12
3877.421	-63.12
3880.016	-59.12
3882.61	-56.12
3885.202	-59.12
3887.792	-54.12
3890.38	-57.12
3892.966	-57.12
3895.55	-57.12
3898.132	-56.12
3900.713	-61.12
3903.291	-59.12
3905.868	-61.12
3908.442	-59.12
3911.015	-59.12
3913.586	-62.12
3916.155	-59.12
3918.722	-61.12
3921.287	-57.12
3923.85	-64.12
3926.411	-62.12
3928.971	-61.12
3931.528	-63.12
3934.084	-64.12
3936.638	-65.12
3939.19	-66.12
3941.74	-62.12
3944.288	-62.12
3946.834	-63.12
3949.378	-66.12
3951.921	-66.12
3954.462	-65.12
3957	-61.12
3959.537	-65.12
3962.072	-62.12
3964.606	-60.12
3967.137	-64.12
3969.667	-64.12
3972.194	-65.12
3974.72	-62.12
3977.244	-62.12
3979.766	-62.12
3982.286	-58.12
3984.805	-65.12
3987.321	-61.12
3989.836	-62.12
3992.349	-63.12
3994.86	-65.12
3997.369	-65.12
3999.877	-63.12
4002.382	-59.12
4004.886	-61.12
4007.388	-62.12
4009.888	-63.12
4012.386	-62.12
4014.883	-63.12
4017.377	-62.12
4019.87	-65.12
4022.361	-63.12
4024.85	-65.12
4027.338	-60.12
4029.823	-61.12
4032.307	-67.12
4034.789	-63.12
4037.269	-65.12
4039.747	-60.12
4042.224	-63.12
4044.699	-64.12
4047.172	-61.12
4049.643	-60.12
4052.112	-60.12
4054.58	-58.12
4057.046	-60.12
4059.51	-60.12
4061.972	-60.12
4064.432	-62.12
4066.891	-62.12
4069.348	-63.12
4071.803	-63.12
4074.256	-64.12
4076.708	-60.12
4079.158	-62.12
4081.606	-63.12
4084.052	-62.12
4086.497	-62.12
4088.939	-65.12
4091.38	-64.12
4093.819	-63.12
4096.257	-68.12
4098.693	-67.12
4101.127	-66.12
4103.559	-67.12
4105.989	-17.12
4108.418	-20.12
4110.845	-20.12
4113.27	-17.12
4115.694	-12.12
4118.115	-5.12
4120.535	-65.12
4122.954	-67.12
4125.37	-66.12
4127.785	-67.12
4130.198	-62.12
4132.609	-64.12
4135.019	-69.12
4137.427	-69.12
4139.833	-67.12
4142.237	-67.12
