Data from 10000000CFU1_B_ramanshift_RamanShift_12-34-02-556.txt Node
Date: Sun Jan 01 12:34:02 IST 2017
User: aro
Spectrometer: QEPB0276
Trigger mode: 0
Integration Time (sec): 5.000000E0
Scans to average: 1
Electric dark correction enabled: true
Nonlinearity correction enabled: false
Boxcar width: 0
XAxis mode: Raman Shifts
Number of Pixels in Spectrum: 1044
>>>>>Begin Spectral Data<<<<<
160.701	6.62
166.742	18.62
172.777	60.62
178.805	188.62
184.826	561.62
190.841	1353.62
196.849	2551.62
202.85	3653.62
208.845	4274.62
214.833	4290.62
220.815	4130.62
226.789	3979.62
232.758	3893.62
238.719	3793.62
244.674	3691.62
250.623	3534.62
256.565	3379.62
262.5	3214.62
268.429	3106.62
274.351	2985.62
280.267	2842.62
286.176	2766.62
292.079	2645.62
297.975	2554.62
303.865	2512.62
309.748	2437.62
315.625	2356.62
321.495	2323.62
327.359	2288.62
333.217	2245.62
339.068	2243.62
344.912	2207.62
350.751	2204.62
356.583	2219.62
362.408	2207.62
368.227	2177.62
374.04	2180.62
379.847	2197.62
385.647	2201.62
391.44	2207.62
397.228	2216.62
403.009	2248.62
408.784	2246.62
414.553	2240.62
420.315	2246.62
426.071	2248.62
431.821	2252.62
437.565	2251.62
443.302	2267.62
449.033	2247.62
454.758	2247.62
460.477	2229.62
466.189	2212.62
471.896	2210.62
477.596	2194.62
483.29	2193.62
488.978	2169.62
494.66	2164.62
500.335	2161.62
506.005	2124.62
511.668	2097.62
517.325	2058.62
522.977	2035.62
528.622	2018.62
534.261	1992.62
539.894	1965.62
545.521	1949.62
551.141	1948.62
556.756	1926.62
562.365	1907.62
567.968	1913.62
573.565	1900.62
579.155	1880.62
584.74	1862.62
590.319	1858.62
595.892	1864.62
601.459	1848.62
607.02	1833.62
612.575	1818.62
618.124	1802.62
623.667	1785.62
629.204	1774.62
634.735	1759.62
640.261	1739.62
645.781	1742.62
651.294	1712.62
656.802	1714.62
662.304	1715.62
667.8	1705.62
673.29	1695.62
678.775	1694.62
684.254	1693.62
689.726	1678.62
695.193	1689.62
700.655	1657.62
706.11	1655.62
711.56	1632.62
717.004	1638.62
722.442	1629.62
727.874	1620.62
733.301	1605.62
738.722	1577.62
744.137	1582.62
749.547	1572.62
754.951	1567.62
760.349	1570.62
765.741	1579.62
771.128	1570.62
776.509	1586.62
781.885	1570.62
787.254	1570.62
792.618	1572.62
797.977	1557.62
803.33	1549.62
808.677	1551.62
814.019	1524.62
819.355	1505.62
824.686	1483.62
830.011	1490.62
835.33	1491.62
840.644	1462.62
845.952	1461.62
851.255	1467.62
856.552	1451.62
861.844	1448.62
867.13	1450.62
872.41	1455.62
877.686	1449.62
882.955	1424.62
888.219	1411.62
893.478	1392.62
898.731	1372.62
903.979	1341.62
909.221	1329.62
914.458	1347.62
919.69	1314.62
924.916	1311.62
930.136	1315.62
935.351	1324.62
940.561	1305.62
945.766	1307.62
950.965	1303.62
956.158	1294.62
961.347	1288.62
966.529	1265.62
971.707	1240.62
976.879	1237.62
982.046	1219.62
987.208	1216.62
992.364	1200.62
997.515	1216.62
1002.66	1216.62
1007.801	1227.62
1012.936	1247.62
1018.066	1254.62
1023.19	1251.62
1028.309	1276.62
1033.423	1261.62
1038.532	1259.62
1043.636	1248.62
1048.734	1247.62
1053.827	1234.62
1058.915	1220.62
1063.998	1221.62
1069.075	1207.62
1074.147	1201.62
1079.214	1204.62
1084.276	1212.62
1089.333	1239.62
1094.385	1249.62
1099.431	1255.62
1104.472	1245.62
1109.509	1247.62
1114.54	1236.62
1119.565	1226.62
1124.586	1225.62
1129.602	1205.62
1134.613	1194.62
1139.618	1175.62
1144.619	1183.62
1149.614	1180.62
1154.604	1189.62
1159.589	1198.62
1164.57	1200.62
1169.545	1208.62
1174.515	1196.62
1179.48	1207.62
1184.44	1197.62
1189.395	1190.62
1194.345	1176.62
1199.29	1189.62
1204.23	1175.62
1209.165	1177.62
1214.095	1198.62
1219.021	1192.62
1223.941	1220.62
1228.856	1223.62
1233.766	1226.62
1238.672	1221.62
1243.572	1228.62
1248.467	1222.62
1253.358	1215.62
1258.244	1202.62
1263.124	1190.62
1268	1182.62
1272.871	1168.62
1277.737	1145.62
1282.599	1156.62
1287.455	1144.62
1292.306	1161.62
1297.153	1150.62
1301.995	1155.62
1306.832	1155.62
1311.664	1171.62
1316.491	1194.62
1321.314	1165.62
1326.132	1177.62
1330.945	1168.62
1335.753	1148.62
1340.556	1146.62
1345.354	1133.62
1350.148	1112.62
1354.937	1104.62
1359.722	1106.62
1364.501	1098.62
1369.276	1082.62
1374.046	1075.62
1378.811	1067.62
1383.572	1056.62
1388.327	1045.62
1393.079	1051.62
1397.825	1049.62
1402.567	1046.62
1407.304	1038.62
1412.036	1041.62
1416.764	1045.62
1421.487	1044.62
1426.205	1036.62
1430.919	1037.62
1435.628	1061.62
1440.333	1059.62
1445.032	1072.62
1449.727	1094.62
1454.418	1090.62
1459.104	1103.62
1463.785	1088.62
1468.462	1090.62
1473.134	1082.62
1477.802	1061.62
1482.465	1039.62
1487.123	1049.62
1491.777	1036.62
1496.426	1059.62
1501.071	1063.62
1505.711	1046.62
1510.347	1071.62
1514.978	1090.62
1519.604	1093.62
1524.226	1093.62
1528.844	1080.62
1533.457	1084.62
1538.065	1094.62
1542.669	1080.62
1547.269	1081.62
1551.864	1077.62
1556.454	1103.62
1561.041	1086.62
1565.622	1116.62
1570.199	1116.62
1574.772	1126.62
1579.34	1148.62
1583.904	1155.62
1588.464	1185.62
1593.019	1203.62
1597.569	1221.62
1602.115	1235.62
1606.657	1224.62
1611.195	1246.62
1615.728	1273.62
1620.256	1272.62
1624.78	1295.62
1629.3	1302.62
1633.816	1319.62
1638.327	1354.62
1642.834	1354.62
1647.336	1368.62
1651.834	1346.62
1656.328	1375.62
1660.817	1366.62
1665.302	1370.62
1669.783	1334.62
1674.259	1308.62
1678.732	1283.62
1683.199	1231.62
1687.663	1214.62
1692.122	1174.62
1696.577	1127.62
1701.028	1080.62
1705.474	1031.62
1709.917	986.62
1714.355	973.62
1718.788	961.62
1723.218	944.62
1727.643	932.62
1732.064	926.62
1736.481	914.62
1740.893	884.62
1745.301	858.62
1749.705	847.62
1754.105	836.62
1758.501	817.62
1762.893	792.62
1767.28	782.62
1771.663	788.62
1776.042	784.62
1780.417	773.62
1784.787	771.62
1789.154	786.62
1793.516	765.62
1797.874	782.62
1802.228	766.62
1806.578	764.62
1810.924	750.62
1815.266	723.62
1819.603	732.62
1823.937	714.62
1828.266	718.62
1832.591	707.62
1836.913	701.62
1841.23	702.62
1845.543	701.62
1849.852	687.62
1854.156	695.62
1858.457	697.62
1862.754	720.62
1867.047	714.62
1871.335	714.62
1875.62	719.62
1879.9	714.62
1884.177	720.62
1888.449	724.62
1892.718	708.62
1896.982	721.62
1901.243	729.62
1905.499	711.62
1909.752	707.62
1914	709.62
1918.245	693.62
1922.485	703.62
1926.722	712.62
1930.954	706.62
1935.183	724.62
1939.408	706.62
1943.628	713.62
1947.845	717.62
1952.058	708.62
1956.267	714.62
1960.472	708.62
1964.673	695.62
1968.87	690.62
1973.063	681.62
1977.252	672.62
1981.438	670.62
1985.619	671.62
1989.797	659.62
1993.971	679.62
1998.14	670.62
2002.306	671.62
2006.469	674.62
2010.627	677.62
2014.781	680.62
2018.932	691.62
2023.078	693.62
2027.221	683.62
2031.36	673.62
2035.495	691.62
2039.627	664.62
2043.754	673.62
2047.878	667.62
2051.998	673.62
2056.114	664.62
2060.226	668.62
2064.334	669.62
2068.439	666.62
2072.54	668.62
2076.637	675.62
2080.73	674.62
2084.82	681.62
2088.906	685.62
2092.988	676.62
2097.066	684.62
2101.14	658.62
2105.211	674.62
2109.278	657.62
2113.342	660.62
2117.401	651.62
2121.457	645.62
2125.509	642.62
2129.558	641.62
2133.602	639.62
2137.643	651.62
2141.681	626.62
2145.714	639.62
2149.744	631.62
2153.77	628.62
2157.793	637.62
2161.812	626.62
2165.827	625.62
2169.838	617.62
2173.846	599.62
2177.851	605.62
2181.851	597.62
2185.848	587.62
2189.841	572.62
2193.831	584.62
2197.817	576.62
2201.799	579.62
2205.778	571.62
2209.753	568.62
2213.725	560.62
2217.693	555.62
2221.657	563.62
2225.618	566.62
2229.575	552.62
2233.529	556.62
2237.479	548.62
2241.425	554.62
2245.368	548.62
2249.307	530.62
2253.243	527.62
2257.175	523.62
2261.104	511.62
2265.029	509.62
2268.95	495.62
2272.868	491.62
2276.783	481.62
2280.694	488.62
2284.601	490.62
2288.505	479.62
2292.405	472.62
2296.302	468.62
2300.195	459.62
2304.085	448.62
2307.971	457.62
2311.854	453.62
2315.734	442.62
2319.609	429.62
2323.482	423.62
2327.351	428.62
2331.216	412.62
2335.078	420.62
2338.937	411.62
2342.792	405.62
2346.643	415.62
2350.492	410.62
2354.336	410.62
2358.178	411.62
2362.015	404.62
2365.85	410.62
2369.681	404.62
2373.508	415.62
2377.333	419.62
2381.153	416.62
2384.971	414.62
2388.785	406.62
2392.595	410.62
2396.402	398.62
2400.206	405.62
2404.007	403.62
2407.804	400.62
2411.597	404.62
2415.388	405.62
2419.174	396.62
2422.958	399.62
2426.738	394.62
2430.515	388.62
2434.289	391.62
2438.059	388.62
2441.825	387.62
2445.589	386.62
2449.349	384.62
2453.106	394.62
2456.859	387.62
2460.61	373.62
2464.356	372.62
2468.1	369.62
2471.84	368.62
2475.577	361.62
2479.311	371.62
2483.041	363.62
2486.768	370.62
2490.492	363.62
2494.213	371.62
2497.93	372.62
2501.644	377.62
2505.355	365.62
2509.062	362.62
2512.766	367.62
2516.467	369.62
2520.165	356.62
2523.859	367.62
2527.551	359.62
2531.239	358.62
2534.923	359.62
2538.605	357.62
2542.283	348.62
2545.958	353.62
2549.63	348.62
2553.299	344.62
2556.964	347.62
2560.626	342.62
2564.285	336.62
2567.941	340.62
2571.594	334.62
2575.243	333.62
2578.89	324.62
2582.533	328.62
2586.173	331.62
2589.809	316.62
2593.443	312.62
2597.073	321.62
2600.701	314.62
2604.325	314.62
2607.946	312.62
2611.564	317.62
2615.178	309.62
2618.79	304.62
2622.398	307.62
2626.004	304.62
2629.606	312.62
2633.205	307.62
2636.801	294.62
2640.394	305.62
2643.983	301.62
2647.57	292.62
2651.153	297.62
2654.734	288.62
2658.311	291.62
2661.885	286.62
2665.456	280.62
2669.025	276.62
2672.589	277.62
2676.151	279.62
2679.71	277.62
2683.266	280.62
2686.819	269.62
2690.368	268.62
2693.915	263.62
2697.458	268.62
2700.999	257.62
2704.536	262.62
2708.071	260.62
2711.602	258.62
2715.13	255.62
2718.656	259.62
2722.178	248.62
2725.697	261.62
2729.214	256.62
2732.727	258.62
2736.237	261.62
2739.744	260.62
2743.249	264.62
2746.75	255.62
2750.248	260.62
2753.743	262.62
2757.236	248.62
2760.725	249.62
2764.211	254.62
2767.695	238.62
2771.175	245.62
2774.652	240.62
2778.127	235.62
2781.598	239.62
2785.067	225.62
2788.532	234.62
2791.995	235.62
2795.455	239.62
2798.911	235.62
2802.365	242.62
2805.816	238.62
2809.264	246.62
2812.709	249.62
2816.151	247.62
2819.59	239.62
2823.026	246.62
2826.46	252.62
2829.89	250.62
2833.318	247.62
2836.742	254.62
2840.164	255.62
2843.583	254.62
2846.999	257.62
2850.412	259.62
2853.822	264.62
2857.229	255.62
2860.634	265.62
2864.035	267.62
2867.434	263.62
2870.83	266.62
2874.223	264.62
2877.613	271.62
2881	268.62
2884.385	268.62
2887.766	264.62
2891.145	264.62
2894.521	273.62
2897.894	265.62
2901.264	265.62
2904.631	262.62
2907.996	271.62
2911.358	274.62
2914.717	279.62
2918.073	282.62
2921.426	285.62
2924.777	290.62
2928.124	287.62
2931.469	294.62
2934.811	296.62
2938.15	296.62
2941.487	314.62
2944.821	314.62
2948.152	314.62
2951.48	316.62
2954.805	321.62
2958.128	335.62
2961.447	327.62
2964.765	329.62
2968.079	337.62
2971.39	334.62
2974.699	348.62
2978.005	356.62
2981.308	361.62
2984.609	366.62
2987.907	380.62
2991.202	387.62
2994.494	390.62
2997.784	402.62
3001.07	405.62
3004.355	415.62
3007.636	416.62
3010.915	426.62
3014.191	441.62
3017.464	451.62
3020.734	455.62
3024.002	455.62
3027.267	458.62
3030.53	476.62
3033.789	481.62
3037.046	493.62
3040.301	499.62
3043.552	511.62
3046.801	515.62
3050.048	523.62
3053.291	540.62
3056.532	550.62
3059.771	586.62
3063.006	579.62
3066.239	600.62
3069.469	635.62
3072.697	644.62
3075.922	659.62
3079.144	661.62
3082.364	689.62
3085.581	704.62
3088.795	704.62
3092.007	734.62
3095.216	746.62
3098.423	750.62
3101.627	784.62
3104.828	789.62
3108.026	821.62
3111.222	818.62
3114.416	837.62
3117.607	854.62
3120.795	870.62
3123.98	881.62
3127.163	915.62
3130.344	938.62
3133.521	959.62
3136.696	979.62
3139.869	981.62
3143.039	1003.62
3146.206	1036.62
3149.371	1035.62
3152.533	1035.62
3155.693	1045.62
3158.85	1066.62
3162.005	1078.62
3165.157	1086.62
3168.306	1078.62
3171.453	1086.62
3174.597	1092.62
3177.739	1085.62
3180.878	1095.62
3184.014	1106.62
3187.149	1097.62
3190.28	1093.62
3193.409	1106.62
3196.536	1112.62
3199.659	1110.62
3202.781	1113.62
3205.9	1126.62
3209.016	1105.62
3212.13	1125.62
3215.241	1119.62
3218.35	1097.62
3221.456	1106.62
3224.56	1095.62
3227.661	1075.62
3230.76	1065.62
3233.856	1054.62
3236.95	1050.62
3240.041	1054.62
3243.13	1045.62
3246.216	1023.62
3249.3	991.62
3252.382	1007.62
3255.46	1009.62
3258.537	1000.62
3261.611	1001.62
3264.682	996.62
3267.751	981.62
3270.818	988.62
3273.882	996.62
3276.943	973.62
3280.002	983.62
3283.059	967.62
3286.113	963.62
3289.165	950.62
3292.214	945.62
3295.261	917.62
3298.306	908.62
3301.348	898.62
3304.387	886.62
3307.425	877.62
3310.459	861.62
3313.492	853.62
3316.521	846.62
3319.549	828.62
3322.574	815.62
3325.597	821.62
3328.617	813.62
3331.635	806.62
3334.65	794.62
3337.663	800.62
3340.674	790.62
3343.682	786.62
3346.688	783.62
3349.691	790.62
3352.692	781.62
3355.691	777.62
3358.687	772.62
3361.681	758.62
3364.673	756.62
3367.662	746.62
3370.649	734.62
3373.633	747.62
3376.615	729.62
3379.595	711.62
3382.572	708.62
3385.547	693.62
3388.52	699.62
3391.49	681.62
3394.458	662.62
3397.424	659.62
3400.387	654.62
3403.348	645.62
3406.307	646.62
3409.263	637.62
3412.217	622.62
3415.168	626.62
3418.118	622.62
3421.065	607.62
3424.009	601.62
3426.951	610.62
3429.891	583.62
3432.829	576.62
3435.764	562.62
3438.697	553.62
3441.628	543.62
3444.557	530.62
3447.483	517.62
3450.407	506.62
3453.328	491.62
3456.247	476.62
3459.164	460.62
3462.079	462.62
3464.991	441.62
3467.902	428.62
3470.809	426.62
3473.715	411.62
3476.618	399.62
3479.519	386.62
3482.418	382.62
3485.315	363.62
3488.209	354.62
3491.101	345.62
3493.99	337.62
3496.878	334.62
3499.763	316.62
3502.646	311.62
3505.527	303.62
3508.405	289.62
3511.281	270.62
3514.155	274.62
3517.027	252.62
3519.897	250.62
3522.764	235.62
3525.629	225.62
3528.492	210.62
3531.352	203.62
3534.211	193.62
3537.067	182.62
3539.921	180.62
3542.773	169.62
3545.622	170.62
3548.469	154.62
3551.315	145.62
3554.157	140.62
3556.998	132.62
3559.837	127.62
3562.673	115.62
3565.507	118.62
3568.339	107.62
3571.169	109.62
3573.996	95.62
3576.822	96.62
3579.645	90.62
3582.466	84.62
3585.285	80.62
3588.101	74.62
3590.916	70.62
3593.728	63.62
3596.538	62.62
3599.346	55.62
3602.152	50.62
3604.956	42.62
3607.757	36.62
3610.556	40.62
3613.354	30.62
3616.149	27.62
3618.942	25.62
3621.732	25.62
3624.521	17.62
3627.307	17.62
3630.092	16.62
3632.874	13.62
3635.654	12.62
3638.432	10.62
3641.208	10.62
3643.982	7.62
3646.753	5.62
3649.523	3.62
3652.29	1.62
3655.055	-0.38
3657.818	-8.38
3660.579	-7.38
3663.338	-11.38
3666.095	-13.38
3668.849	-13.38
3671.602	-17.38
3674.352	-18.38
3677.101	-19.38
3679.847	-25.38
3682.591	-29.38
3685.333	-27.38
3688.073	-29.38
3690.811	-29.38
3693.547	-32.38
3696.281	-35.38
3699.013	-31.38
3701.742	-35.38
3704.47	-35.38
3707.195	-32.38
3709.919	-37.38
3712.64	-42.38
3715.359	-37.38
3718.076	-39.38
3720.792	-38.38
3723.505	-44.38
3726.216	-39.38
3728.925	-44.38
3731.632	-37.38
3734.336	-41.38
3737.039	-43.38
3739.74	-42.38
3742.439	-43.38
3745.136	-43.38
3747.83	-44.38
3750.523	-47.38
3753.213	-44.38
3755.902	-45.38
3758.589	-45.38
3761.273	-49.38
3763.956	-47.38
3766.636	-49.38
3769.315	-51.38
3771.991	-52.38
3774.665	-53.38
3777.338	-54.38
3780.008	-55.38
3782.677	-57.38
3785.343	-55.38
3788.007	-52.38
3790.67	-52.38
3793.33	-57.38
3795.989	-53.38
3798.645	-59.38
3801.299	-57.38
3803.952	-61.38
3806.602	-57.38
3809.251	-59.38
3811.897	-54.38
3814.542	-63.38
3817.184	-56.38
3819.825	-54.38
3822.463	-56.38
3825.1	-54.38
3827.735	-53.38
3830.367	-55.38
3832.998	-60.38
3835.627	-58.38
3838.253	-55.38
3840.878	-61.38
3843.501	-57.38
3846.122	-58.38
3848.741	-57.38
3851.358	-61.38
3853.973	-58.38
3856.586	-59.38
3859.197	-61.38
3861.806	-59.38
3864.414	-59.38
3867.019	-59.38
3869.622	-61.38
3872.224	-63.38
3874.823	-59.38
3877.421	-62.38
3880.016	-59.38
3882.61	-57.38
3885.202	-59.38
3887.792	-55.38
3890.38	-57.38
3892.966	-57.38
3895.55	-60.38
3898.132	-61.38
3900.713	-63.38
3903.291	-63.38
3905.868	-65.38
3908.442	-63.38
3911.015	-63.38
3913.586	-64.38
3916.155	-63.38
3918.722	-65.38
3921.287	-64.38
3923.85	-67.38
3926.411	-63.38
3928.971	-63.38
3931.528	-62.38
3934.084	-65.38
3936.638	-67.38
3939.19	-64.38
3941.74	-66.38
3944.288	-65.38
3946.834	-63.38
3949.378	-68.38
3951.921	-64.38
3954.462	-65.38
3957	-60.38
3959.537	-65.38
3962.072	-64.38
3964.606	-61.38
3967.137	-59.38
3969.667	-65.38
3972.194	-62.38
3974.72	-61.38
3977.244	-61.38
3979.766	-59.38
3982.286	-59.38
3984.805	-59.38
3987.321	-62.38
3989.836	-64.38
3992.349	-63.38
3994.86	-63.38
3997.369	-66.38
3999.877	-65.38
4002.382	-61.38
4004.886	-61.38
4007.388	-64.38
4009.888	-64.38
4012.386	-59.38
4014.883	-65.38
4017.377	-65.38
4019.87	-67.38
4022.361	-64.38
4024.85	-64.38
4027.338	-64.38
4029.823	-63.38
4032.307	-66.38
4034.789	-64.38
4037.269	-65.38
4039.747	-64.38
4042.224	-63.38
4044.699	-64.38
4047.172	-59.38
4049.643	-61.38
4052.112	-61.38
4054.58	-58.38
4057.046	-60.38
4059.51	-63.38
4061.972	-61.38
4064.432	-63.38
4066.891	-61.38
4069.348	-64.38
4071.803	-63.38
4074.256	-62.38
4076.708	-63.38
4079.158	-65.38
4081.606	-63.38
4084.052	-61.38
4086.497	-65.38
4088.939	-65.38
4091.38	-67.38
4093.819	-68.38
4096.257	-67.38
4098.693	-65.38
4101.127	-68.38
4103.559	-68.38
4105.989	-18.38
4108.418	-15.38
4110.845	-13.38
4113.27	-17.38
4115.694	-11.38
4118.115	-5.38
4120.535	-68.38
4122.954	-67.38
4125.37	-68.38
4127.785	-67.38
4130.198	-63.38
4132.609	-63.38
4135.019	-70.38
4137.427	-69.38
4139.833	-64.38
4142.237	-70.38
