Data from 1000CFU3_B_ramanshift_RamanShift_12-24-32-611.txt Node
Date: Sun Jan 01 12:24:32 IST 2017
User: aro
Spectrometer: QEPB0276
Trigger mode: 0
Integration Time (sec): 5.000000E0
Scans to average: 1
Electric dark correction enabled: true
Nonlinearity correction enabled: false
Boxcar width: 0
XAxis mode: Raman Shifts
Number of Pixels in Spectrum: 1044
>>>>>Begin Spectral Data<<<<<
160.701	9.88
166.742	18.88
172.777	60.88
178.805	193.88
184.826	570.88
190.841	1401.88
196.849	2638.88
202.85	3813.88
208.845	4425.88
214.833	4471.88
220.815	4290.88
226.789	4154.88
232.758	4045.88
238.719	3953.88
244.674	3828.88
250.623	3674.88
256.565	3513.88
262.5	3345.88
268.429	3187.88
274.351	3102.88
280.267	2971.88
286.176	2866.88
292.079	2773.88
297.975	2706.88
303.865	2608.88
309.748	2530.88
315.625	2466.88
321.495	2420.88
327.359	2358.88
333.217	2350.88
339.068	2328.88
344.912	2296.88
350.751	2290.88
356.583	2279.88
362.408	2268.88
368.227	2258.88
374.04	2266.88
379.847	2277.88
385.647	2297.88
391.44	2309.88
397.228	2327.88
403.009	2304.88
408.784	2334.88
414.553	2320.88
420.315	2338.88
426.071	2366.88
431.821	2332.88
437.565	2344.88
443.302	2341.88
449.033	2318.88
454.758	2324.88
460.477	2315.88
466.189	2303.88
471.896	2296.88
477.596	2284.88
483.29	2270.88
488.978	2281.88
494.66	2258.88
500.335	2250.88
506.005	2220.88
511.668	2176.88
517.325	2131.88
522.977	2091.88
528.622	2083.88
534.261	2060.88
539.894	2036.88
545.521	2021.88
551.141	2010.88
556.756	2010.88
562.365	1986.88
567.968	1966.88
573.565	1965.88
579.155	1953.88
584.74	1940.88
590.319	1932.88
595.892	1916.88
601.459	1915.88
607.02	1890.88
612.575	1891.88
618.124	1863.88
623.667	1871.88
629.204	1824.88
634.735	1817.88
640.261	1802.88
645.781	1797.88
651.294	1794.88
656.802	1780.88
662.304	1782.88
667.8	1779.88
673.29	1749.88
678.775	1756.88
684.254	1723.88
689.726	1724.88
695.193	1732.88
700.655	1720.88
706.11	1699.88
711.56	1687.88
717.004	1705.88
722.442	1662.88
727.874	1669.88
733.301	1663.88
738.722	1653.88
744.137	1648.88
749.547	1623.88
754.951	1627.88
760.349	1622.88
765.741	1626.88
771.128	1632.88
776.509	1635.88
781.885	1632.88
787.254	1620.88
792.618	1631.88
797.977	1634.88
803.33	1605.88
808.677	1589.88
814.019	1563.88
819.355	1565.88
824.686	1557.88
830.011	1556.88
835.33	1523.88
840.644	1516.88
845.952	1514.88
851.255	1507.88
856.552	1494.88
861.844	1493.88
867.13	1484.88
872.41	1475.88
877.686	1478.88
882.955	1475.88
888.219	1449.88
893.478	1427.88
898.731	1394.88
903.979	1383.88
909.221	1358.88
914.458	1353.88
919.69	1348.88
924.916	1343.88
930.136	1355.88
935.351	1354.88
940.561	1342.88
945.766	1339.88
950.965	1350.88
956.158	1327.88
961.347	1305.88
966.529	1294.88
971.707	1278.88
976.879	1268.88
982.046	1272.88
987.208	1260.88
992.364	1235.88
997.515	1241.88
1002.66	1244.88
1007.801	1255.88
1012.936	1273.88
1018.066	1284.88
1023.19	1298.88
1028.309	1298.88
1033.423	1301.88
1038.532	1287.88
1043.636	1277.88
1048.734	1279.88
1053.827	1273.88
1058.915	1239.88
1063.998	1232.88
1069.075	1241.88
1074.147	1232.88
1079.214	1234.88
1084.276	1250.88
1089.333	1260.88
1094.385	1267.88
1099.431	1286.88
1104.472	1282.88
1109.509	1284.88
1114.54	1248.88
1119.565	1252.88
1124.586	1238.88
1129.602	1238.88
1134.613	1224.88
1139.618	1204.88
1144.619	1198.88
1149.614	1206.88
1154.604	1211.88
1159.589	1217.88
1164.57	1219.88
1169.545	1243.88
1174.515	1233.88
1179.48	1223.88
1184.44	1227.88
1189.395	1213.88
1194.345	1202.88
1199.29	1211.88
1204.23	1189.88
1209.165	1220.88
1214.095	1222.88
1219.021	1219.88
1223.941	1238.88
1228.856	1248.88
1233.766	1248.88
1238.672	1243.88
1243.572	1253.88
1248.467	1243.88
1253.358	1242.88
1258.244	1220.88
1263.124	1218.88
1268	1184.88
1272.871	1185.88
1277.737	1181.88
1282.599	1164.88
1287.455	1168.88
1292.306	1159.88
1297.153	1171.88
1301.995	1175.88
1306.832	1182.88
1311.664	1190.88
1316.491	1198.88
1321.314	1196.88
1326.132	1183.88
1330.945	1166.88
1335.753	1163.88
1340.556	1154.88
1345.354	1138.88
1350.148	1132.88
1354.937	1120.88
1359.722	1110.88
1364.501	1104.88
1369.276	1095.88
1374.046	1072.88
1378.811	1072.88
1383.572	1059.88
1388.327	1080.88
1393.079	1078.88
1397.825	1058.88
1402.567	1064.88
1407.304	1048.88
1412.036	1049.88
1416.764	1041.88
1421.487	1048.88
1426.205	1038.88
1430.919	1047.88
1435.628	1073.88
1440.333	1078.88
1445.032	1085.88
1449.727	1093.88
1454.418	1077.88
1459.104	1100.88
1463.785	1082.88
1468.462	1098.88
1473.134	1075.88
1477.802	1064.88
1482.465	1060.88
1487.123	1056.88
1491.777	1052.88
1496.426	1060.88
1501.071	1065.88
1505.711	1071.88
1510.347	1074.88
1514.978	1086.88
1519.604	1098.88
1524.226	1095.88
1528.844	1101.88
1533.457	1103.88
1538.065	1103.88
1542.669	1109.88
1547.269	1098.88
1551.864	1103.88
1556.454	1091.88
1561.041	1115.88
1565.622	1120.88
1570.199	1135.88
1574.772	1140.88
1579.34	1165.88
1583.904	1204.88
1588.464	1218.88
1593.019	1218.88
1597.569	1239.88
1602.115	1248.88
1606.657	1264.88
1611.195	1261.88
1615.728	1290.88
1620.256	1275.88
1624.78	1307.88
1629.3	1318.88
1633.816	1348.88
1638.327	1349.88
1642.834	1372.88
1647.336	1374.88
1651.834	1390.88
1656.328	1383.88
1660.817	1395.88
1665.302	1370.88
1669.783	1350.88
1674.259	1315.88
1678.732	1288.88
1683.199	1240.88
1687.663	1207.88
1692.122	1167.88
1696.577	1139.88
1701.028	1085.88
1705.474	1042.88
1709.917	1022.88
1714.355	994.88
1718.788	963.88
1723.218	960.88
1727.643	946.88
1732.064	939.88
1736.481	918.88
1740.893	882.88
1745.301	865.88
1749.705	848.88
1754.105	825.88
1758.501	810.88
1762.893	790.88
1767.28	794.88
1771.663	772.88
1776.042	777.88
1780.417	754.88
1784.787	768.88
1789.154	767.88
1793.516	756.88
1797.874	770.88
1802.228	766.88
1806.578	763.88
1810.924	744.88
1815.266	735.88
1819.603	714.88
1823.937	722.88
1828.266	707.88
1832.591	695.88
1836.913	699.88
1841.23	691.88
1845.543	687.88
1849.852	702.88
1854.156	704.88
1858.457	699.88
1862.754	713.88
1867.047	705.88
1871.335	709.88
1875.62	713.88
1879.9	728.88
1884.177	711.88
1888.449	715.88
1892.718	712.88
1896.982	710.88
1901.243	699.88
1905.499	697.88
1909.752	705.88
1914	713.88
1918.245	694.88
1922.485	703.88
1926.722	701.88
1930.954	711.88
1935.183	697.88
1939.408	709.88
1943.628	704.88
1947.845	714.88
1952.058	701.88
1956.267	704.88
1960.472	693.88
1964.673	684.88
1968.87	687.88
1973.063	686.88
1977.252	678.88
1981.438	657.88
1985.619	671.88
1989.797	666.88
1993.971	663.88
1998.14	674.88
2002.306	667.88
2006.469	678.88
2010.627	684.88
2014.781	688.88
2018.932	681.88
2023.078	700.88
2027.221	677.88
2031.36	678.88
2035.495	667.88
2039.627	667.88
2043.754	651.88
2047.878	657.88
2051.998	656.88
2056.114	670.88
2060.226	656.88
2064.334	672.88
2068.439	658.88
2072.54	670.88
2076.637	666.88
2080.73	672.88
2084.82	666.88
2088.906	672.88
2092.988	667.88
2097.066	672.88
2101.14	670.88
2105.211	670.88
2109.278	651.88
2113.342	652.88
2117.401	655.88
2121.457	659.88
2125.509	656.88
2129.558	637.88
2133.602	652.88
2137.643	633.88
2141.681	632.88
2145.714	642.88
2149.744	647.88
2153.77	625.88
2157.793	624.88
2161.812	629.88
2165.827	624.88
2169.838	605.88
2173.846	592.88
2177.851	604.88
2181.851	574.88
2185.848	581.88
2189.841	567.88
2193.831	569.88
2197.817	561.88
2201.799	551.88
2205.778	549.88
2209.753	562.88
2213.725	552.88
2217.693	553.88
2221.657	556.88
2225.618	546.88
2229.575	549.88
2233.529	547.88
2237.479	544.88
2241.425	547.88
2245.368	536.88
2249.307	530.88
2253.243	519.88
2257.175	508.88
2261.104	510.88
2265.029	507.88
2268.95	490.88
2272.868	496.88
2276.783	479.88
2280.694	487.88
2284.601	474.88
2288.505	473.88
2292.405	473.88
2296.302	469.88
2300.195	458.88
2304.085	452.88
2307.971	441.88
2311.854	436.88
2315.734	432.88
2319.609	427.88
2323.482	425.88
2327.351	415.88
2331.216	412.88
2335.078	415.88
2338.937	408.88
2342.792	412.88
2346.643	398.88
2350.492	400.88
2354.336	400.88
2358.178	402.88
2362.015	399.88
2365.85	401.88
2369.681	402.88
2373.508	397.88
2377.333	402.88
2381.153	409.88
2384.971	411.88
2388.785	401.88
2392.595	393.88
2396.402	393.88
2400.206	389.88
2404.007	397.88
2407.804	391.88
2411.597	392.88
2415.388	393.88
2419.174	390.88
2422.958	389.88
2426.738	386.88
2430.515	387.88
2434.289	373.88
2438.059	381.88
2441.825	380.88
2445.589	377.88
2449.349	374.88
2453.106	375.88
2456.859	376.88
2460.61	364.88
2464.356	364.88
2468.1	356.88
2471.84	363.88
2475.577	355.88
2479.311	352.88
2483.041	359.88
2486.768	349.88
2490.492	356.88
2494.213	355.88
2497.93	359.88
2501.644	350.88
2505.355	348.88
2509.062	357.88
2512.766	353.88
2516.467	350.88
2520.165	350.88
2523.859	349.88
2527.551	349.88
2531.239	340.88
2534.923	337.88
2538.605	339.88
2542.283	335.88
2545.958	334.88
2549.63	332.88
2553.299	324.88
2556.964	319.88
2560.626	329.88
2564.285	323.88
2567.941	317.88
2571.594	317.88
2575.243	320.88
2578.89	306.88
2582.533	309.88
2586.173	315.88
2589.809	312.88
2593.443	304.88
2597.073	298.88
2600.701	301.88
2604.325	301.88
2607.946	296.88
2611.564	306.88
2615.178	297.88
2618.79	298.88
2622.398	299.88
2626.004	304.88
2629.606	291.88
2633.205	292.88
2636.801	299.88
2640.394	278.88
2643.983	282.88
2647.57	279.88
2651.153	284.88
2654.734	280.88
2658.311	273.88
2661.885	268.88
2665.456	269.88
2669.025	271.88
2672.589	264.88
2676.151	263.88
2679.71	258.88
2683.266	265.88
2686.819	265.88
2690.368	253.88
2693.915	255.88
2697.458	251.88
2700.999	249.88
2704.536	249.88
2708.071	244.88
2711.602	255.88
2715.13	244.88
2718.656	250.88
2722.178	247.88
2725.697	248.88
2729.214	242.88
2732.727	243.88
2736.237	251.88
2739.744	245.88
2743.249	255.88
2746.75	253.88
2750.248	242.88
2753.743	250.88
2757.236	242.88
2760.725	246.88
2764.211	239.88
2767.695	237.88
2771.175	231.88
2774.652	230.88
2778.127	230.88
2781.598	233.88
2785.067	232.88
2788.532	228.88
2791.995	223.88
2795.455	227.88
2798.911	229.88
2802.365	230.88
2805.816	226.88
2809.264	230.88
2812.709	231.88
2816.151	238.88
2819.59	229.88
2823.026	238.88
2826.46	240.88
2829.89	240.88
2833.318	243.88
2836.742	239.88
2840.164	239.88
2843.583	242.88
2846.999	247.88
2850.412	248.88
2853.822	245.88
2857.229	251.88
2860.634	252.88
2864.035	257.88
2867.434	254.88
2870.83	257.88
2874.223	256.88
2877.613	267.88
2881	262.88
2884.385	262.88
2887.766	257.88
2891.145	272.88
2894.521	264.88
2897.894	272.88
2901.264	267.88
2904.631	268.88
2907.996	265.88
2911.358	268.88
2914.717	274.88
2918.073	274.88
2921.426	280.88
2924.777	286.88
2928.124	287.88
2931.469	290.88
2934.811	295.88
2938.15	299.88
2941.487	301.88
2944.821	305.88
2948.152	310.88
2951.48	326.88
2954.805	319.88
2958.128	324.88
2961.447	323.88
2964.765	331.88
2968.079	336.88
2971.39	338.88
2974.699	348.88
2978.005	351.88
2981.308	355.88
2984.609	366.88
2987.907	376.88
2991.202	386.88
2994.494	390.88
2997.784	399.88
3001.07	406.88
3004.355	417.88
3007.636	418.88
3010.915	443.88
3014.191	440.88
3017.464	450.88
3020.734	453.88
3024.002	465.88
3027.267	472.88
3030.53	483.88
3033.789	481.88
3037.046	500.88
3040.301	512.88
3043.552	513.88
3046.801	529.88
3050.048	548.88
3053.291	553.88
3056.532	563.88
3059.771	582.88
3063.006	604.88
3066.239	616.88
3069.469	630.88
3072.697	650.88
3075.922	667.88
3079.144	678.88
3082.364	695.88
3085.581	713.88
3088.795	716.88
3092.007	745.88
3095.216	747.88
3098.423	764.88
3101.627	789.88
3104.828	801.88
3108.026	820.88
3111.222	846.88
3114.416	852.88
3117.607	876.88
3120.795	882.88
3123.98	905.88
3127.163	922.88
3130.344	956.88
3133.521	970.88
3136.696	987.88
3139.869	1004.88
3143.039	1030.88
3146.206	1041.88
3149.371	1045.88
3152.533	1058.88
3155.693	1075.88
3158.85	1074.88
3162.005	1119.88
3165.157	1098.88
3168.306	1106.88
3171.453	1113.88
3174.597	1123.88
3177.739	1119.88
3180.878	1135.88
3184.014	1116.88
3187.149	1127.88
3190.28	1120.88
3193.409	1139.88
3196.536	1138.88
3199.659	1146.88
3202.781	1154.88
3205.9	1150.88
3209.016	1154.88
3212.13	1143.88
3215.241	1143.88
3218.35	1139.88
3221.456	1132.88
3224.56	1119.88
3227.661	1111.88
3230.76	1115.88
3233.856	1090.88
3236.95	1079.88
3240.041	1079.88
3243.13	1062.88
3246.216	1059.88
3249.3	1036.88
3252.382	1049.88
3255.46	1035.88
3258.537	1028.88
3261.611	1031.88
3264.682	1016.88
3267.751	1018.88
3270.818	1032.88
3273.882	1019.88
3276.943	1008.88
3280.002	1012.88
3283.059	986.88
3286.113	978.88
3289.165	965.88
3292.214	960.88
3295.261	955.88
3298.306	945.88
3301.348	914.88
3304.387	913.88
3307.425	899.88
3310.459	886.88
3313.492	872.88
3316.521	867.88
3319.549	855.88
3322.574	841.88
3325.597	842.88
3328.617	847.88
3331.635	828.88
3334.65	813.88
3337.663	816.88
3340.674	817.88
3343.682	808.88
3346.688	813.88
3349.691	821.88
3352.692	799.88
3355.691	790.88
3358.687	789.88
3361.681	788.88
3364.673	783.88
3367.662	777.88
3370.649	759.88
3373.633	754.88
3376.615	744.88
3379.595	732.88
3382.572	728.88
3385.547	723.88
3388.52	722.88
3391.49	699.88
3394.458	693.88
3397.424	686.88
3400.387	671.88
3403.348	666.88
3406.307	648.88
3409.263	647.88
3412.217	637.88
3415.168	635.88
3418.118	633.88
3421.065	630.88
3424.009	620.88
3426.951	612.88
3429.891	595.88
3432.829	591.88
3435.764	584.88
3438.697	575.88
3441.628	560.88
3444.557	545.88
3447.483	531.88
3450.407	511.88
3453.328	509.88
3456.247	492.88
3459.164	479.88
3462.079	466.88
3464.991	452.88
3467.902	435.88
3470.809	438.88
3473.715	417.88
3476.618	405.88
3479.519	396.88
3482.418	391.88
3485.315	383.88
3488.209	359.88
3491.101	352.88
3493.99	343.88
3496.878	337.88
3499.763	336.88
3502.646	322.88
3505.527	305.88
3508.405	288.88
3511.281	289.88
3514.155	288.88
3517.027	266.88
3519.897	254.88
3522.764	244.88
3525.629	231.88
3528.492	227.88
3531.352	205.88
3534.211	207.88
3537.067	193.88
3539.921	186.88
3542.773	176.88
3545.622	173.88
3548.469	167.88
3551.315	145.88
3554.157	144.88
3556.998	138.88
3559.837	137.88
3562.673	123.88
3565.507	118.88
3568.339	121.88
3571.169	105.88
3573.996	100.88
3576.822	105.88
3579.645	100.88
3582.466	85.88
3585.285	89.88
3588.101	83.88
3590.916	69.88
3593.728	65.88
3596.538	60.88
3599.346	59.88
3602.152	55.88
3604.956	49.88
3607.757	43.88
3610.556	41.88
3613.354	36.88
3616.149	29.88
3618.942	25.88
3621.732	28.88
3624.521	21.88
3627.307	17.88
3630.092	16.88
3632.874	11.88
3635.654	9.88
3638.432	6.88
3641.208	4.88
3643.982	7.88
3646.753	6.88
3649.523	1.88
3652.29	-1.12
3655.055	-2.12
3657.818	-8.12
3660.579	-8.12
3663.338	-9.12
3666.095	-16.12
3668.849	-16.12
3671.602	-18.12
3674.352	-18.12
3677.101	-22.12
3679.847	-27.12
3682.591	-25.12
3685.333	-26.12
3688.073	-32.12
3690.811	-31.12
3693.547	-34.12
3696.281	-34.12
3699.013	-33.12
3701.742	-38.12
3704.47	-36.12
3707.195	-39.12
3709.919	-42.12
3712.64	-41.12
3715.359	-42.12
3718.076	-41.12
3720.792	-39.12
3723.505	-44.12
3726.216	-42.12
3728.925	-45.12
3731.632	-48.12
3734.336	-49.12
3737.039	-45.12
3739.74	-43.12
3742.439	-49.12
3745.136	-43.12
3747.83	-47.12
3750.523	-52.12
3753.213	-48.12
3755.902	-48.12
3758.589	-51.12
3761.273	-52.12
3763.956	-49.12
3766.636	-55.12
3769.315	-55.12
3771.991	-59.12
3774.665	-55.12
3777.338	-55.12
3780.008	-57.12
3782.677	-59.12
3785.343	-57.12
3788.007	-54.12
3790.67	-55.12
3793.33	-58.12
3795.989	-60.12
3798.645	-63.12
3801.299	-60.12
3803.952	-63.12
3806.602	-62.12
3809.251	-63.12
3811.897	-59.12
3814.542	-60.12
3817.184	-61.12
3819.825	-59.12
3822.463	-57.12
3825.1	-61.12
3827.735	-58.12
3830.367	-61.12
3832.998	-63.12
3835.627	-59.12
3838.253	-60.12
3840.878	-68.12
3843.501	-62.12
3846.122	-63.12
3848.741	-67.12
3851.358	-69.12
3853.973	-63.12
3856.586	-62.12
3859.197	-67.12
3861.806	-66.12
3864.414	-66.12
3867.019	-68.12
3869.622	-69.12
3872.224	-68.12
3874.823	-64.12
3877.421	-71.12
3880.016	-62.12
3882.61	-62.12
3885.202	-64.12
3887.792	-61.12
3890.38	-63.12
3892.966	-64.12
3895.55	-66.12
3898.132	-65.12
3900.713	-66.12
3903.291	-68.12
3905.868	-66.12
3908.442	-64.12
3911.015	-66.12
3913.586	-64.12
3916.155	-65.12
3918.722	-69.12
3921.287	-66.12
3923.85	-68.12
3926.411	-64.12
3928.971	-69.12
3931.528	-67.12
3934.084	-69.12
3936.638	-69.12
3939.19	-66.12
3941.74	-67.12
3944.288	-66.12
3946.834	-67.12
3949.378	-70.12
3951.921	-66.12
3954.462	-68.12
3957	-65.12
3959.537	-65.12
3962.072	-68.12
3964.606	-65.12
3967.137	-65.12
3969.667	-67.12
3972.194	-66.12
3974.72	-64.12
3977.244	-65.12
3979.766	-61.12
3982.286	-64.12
3984.805	-66.12
3987.321	-65.12
3989.836	-66.12
3992.349	-68.12
3994.86	-66.12
3997.369	-67.12
3999.877	-66.12
4002.382	-63.12
4004.886	-65.12
4007.388	-67.12
4009.888	-69.12
4012.386	-63.12
4014.883	-68.12
4017.377	-68.12
4019.87	-67.12
4022.361	-66.12
4024.85	-68.12
4027.338	-68.12
4029.823	-67.12
4032.307	-69.12
4034.789	-66.12
4037.269	-69.12
4039.747	-68.12
4042.224	-68.12
4044.699	-69.12
4047.172	-65.12
4049.643	-67.12
4052.112	-66.12
4054.58	-68.12
4057.046	-65.12
4059.51	-68.12
4061.972	-66.12
4064.432	-67.12
4066.891	-67.12
4069.348	-66.12
4071.803	-69.12
4074.256	-70.12
4076.708	-67.12
4079.158	-69.12
4081.606	-71.12
4084.052	-69.12
4086.497	-70.12
4088.939	-70.12
4091.38	-68.12
4093.819	-69.12
4096.257	-72.12
4098.693	-73.12
4101.127	-74.12
4103.559	-71.12
4105.989	-20.12
4108.418	-19.12
4110.845	-18.12
4113.27	-16.12
4115.694	-14.12
4118.115	-5.12
4120.535	-70.12
4122.954	-72.12
4125.37	-73.12
4127.785	-68.12
4130.198	-67.12
4132.609	-68.12
4135.019	-72.12
4137.427	-71.12
4139.833	-70.12
4142.237	-70.12
