Data from 100CFU1_A_ramanshift_RamanShift_11-40-32-753.txt Node
Date: Sun Jan 01 11:40:32 IST 2017
User: aro
Spectrometer: QEPB0276
Trigger mode: 0
Integration Time (sec): 5.000000E0
Scans to average: 1
Electric dark correction enabled: true
Nonlinearity correction enabled: false
Boxcar width: 0
XAxis mode: Raman Shifts
Number of Pixels in Spectrum: 1044
>>>>>Begin Spectral Data<<<<<
160.701	3.62
166.742	16.62
172.777	62.62
178.805	200.62
184.826	622.62
190.841	1475.62
196.849	2700.62
202.85	3849.62
208.845	4376.62
214.833	4387.62
220.815	4226.62
226.789	4072.62
232.758	3941.62
238.719	3846.62
244.674	3738.62
250.623	3564.62
256.565	3425.62
262.5	3262.62
268.429	3125.62
274.351	3001.62
280.267	2856.62
286.176	2760.62
292.079	2685.62
297.975	2593.62
303.865	2519.62
309.748	2447.62
315.625	2405.62
321.495	2362.62
327.359	2307.62
333.217	2258.62
339.068	2246.62
344.912	2235.62
350.751	2245.62
356.583	2220.62
362.408	2220.62
368.227	2213.62
374.04	2199.62
379.847	2213.62
385.647	2238.62
391.44	2216.62
397.228	2250.62
403.009	2245.62
408.784	2253.62
414.553	2261.62
420.315	2265.62
426.071	2265.62
431.821	2267.62
437.565	2250.62
443.302	2279.62
449.033	2250.62
454.758	2265.62
460.477	2263.62
466.189	2230.62
471.896	2214.62
477.596	2197.62
483.29	2202.62
488.978	2176.62
494.66	2171.62
500.335	2151.62
506.005	2130.62
511.668	2097.62
517.325	2058.62
522.977	2041.62
528.622	2015.62
534.261	1978.62
539.894	1947.62
545.521	1950.62
551.141	1926.62
556.756	1907.62
562.365	1897.62
567.968	1906.62
573.565	1867.62
579.155	1867.62
584.74	1841.62
590.319	1834.62
595.892	1836.62
601.459	1803.62
607.02	1809.62
612.575	1798.62
618.124	1774.62
623.667	1787.62
629.204	1752.62
634.735	1716.62
640.261	1709.62
645.781	1693.62
651.294	1700.62
656.802	1679.62
662.304	1675.62
667.8	1669.62
673.29	1668.62
678.775	1672.62
684.254	1666.62
689.726	1642.62
695.193	1637.62
700.655	1625.62
706.11	1605.62
711.56	1619.62
717.004	1585.62
722.442	1594.62
727.874	1561.62
733.301	1569.62
738.722	1563.62
744.137	1537.62
749.547	1556.62
754.951	1547.62
760.349	1550.62
765.741	1545.62
771.128	1525.62
776.509	1519.62
781.885	1535.62
787.254	1525.62
792.618	1518.62
797.977	1528.62
803.33	1503.62
808.677	1499.62
814.019	1488.62
819.355	1461.62
824.686	1449.62
830.011	1438.62
835.33	1432.62
840.644	1435.62
845.952	1411.62
851.255	1404.62
856.552	1397.62
861.844	1389.62
867.13	1384.62
872.41	1372.62
877.686	1373.62
882.955	1364.62
888.219	1348.62
893.478	1330.62
898.731	1305.62
903.979	1290.62
909.221	1282.62
914.458	1258.62
919.69	1263.62
924.916	1246.62
930.136	1256.62
935.351	1249.62
940.561	1239.62
945.766	1245.62
950.965	1231.62
956.158	1238.62
961.347	1220.62
966.529	1205.62
971.707	1170.62
976.879	1166.62
982.046	1155.62
987.208	1156.62
992.364	1144.62
997.515	1148.62
1002.66	1159.62
1007.801	1163.62
1012.936	1175.62
1018.066	1178.62
1023.19	1190.62
1028.309	1193.62
1033.423	1195.62
1038.532	1181.62
1043.636	1195.62
1048.734	1185.62
1053.827	1156.62
1058.915	1149.62
1063.998	1153.62
1069.075	1134.62
1074.147	1143.62
1079.214	1156.62
1084.276	1152.62
1089.333	1161.62
1094.385	1175.62
1099.431	1174.62
1104.472	1184.62
1109.509	1180.62
1114.54	1168.62
1119.565	1150.62
1124.586	1128.62
1129.602	1115.62
1134.613	1114.62
1139.618	1100.62
1144.619	1105.62
1149.614	1120.62
1154.604	1109.62
1159.589	1126.62
1164.57	1122.62
1169.545	1131.62
1174.515	1134.62
1179.48	1122.62
1184.44	1125.62
1189.395	1111.62
1194.345	1111.62
1199.29	1110.62
1204.23	1102.62
1209.165	1105.62
1214.095	1119.62
1219.021	1131.62
1223.941	1129.62
1228.856	1140.62
1233.766	1143.62
1238.672	1155.62
1243.572	1143.62
1248.467	1147.62
1253.358	1148.62
1258.244	1124.62
1263.124	1107.62
1268	1102.62
1272.871	1072.62
1277.737	1073.62
1282.599	1075.62
1287.455	1051.62
1292.306	1080.62
1297.153	1070.62
1301.995	1070.62
1306.832	1081.62
1311.664	1094.62
1316.491	1103.62
1321.314	1096.62
1326.132	1086.62
1330.945	1072.62
1335.753	1066.62
1340.556	1039.62
1345.354	1042.62
1350.148	1034.62
1354.937	1029.62
1359.722	1024.62
1364.501	1025.62
1369.276	993.62
1374.046	1007.62
1378.811	1013.62
1383.572	1004.62
1388.327	996.62
1393.079	996.62
1397.825	996.62
1402.567	977.62
1407.304	965.62
1412.036	952.62
1416.764	964.62
1421.487	961.62
1426.205	961.62
1430.919	957.62
1435.628	990.62
1440.333	991.62
1445.032	997.62
1449.727	1013.62
1454.418	1017.62
1459.104	1012.62
1463.785	1011.62
1468.462	1007.62
1473.134	992.62
1477.802	962.62
1482.465	968.62
1487.123	979.62
1491.777	960.62
1496.426	959.62
1501.071	976.62
1505.711	1001.62
1510.347	1008.62
1514.978	1010.62
1519.604	1008.62
1524.226	1024.62
1528.844	1025.62
1533.457	1025.62
1538.065	1025.62
1542.669	1029.62
1547.269	1024.62
1551.864	1026.62
1556.454	1022.62
1561.041	1035.62
1565.622	1041.62
1570.199	1063.62
1574.772	1058.62
1579.34	1085.62
1583.904	1112.62
1588.464	1130.62
1593.019	1133.62
1597.569	1181.62
1602.115	1178.62
1606.657	1192.62
1611.195	1202.62
1615.728	1195.62
1620.256	1227.62
1624.78	1228.62
1629.3	1259.62
1633.816	1271.62
1638.327	1287.62
1642.834	1297.62
1647.336	1314.62
1651.834	1317.62
1656.328	1334.62
1660.817	1322.62
1665.302	1307.62
1669.783	1277.62
1674.259	1250.62
1678.732	1214.62
1683.199	1180.62
1687.663	1131.62
1692.122	1087.62
1696.577	1066.62
1701.028	1020.62
1705.474	981.62
1709.917	933.62
1714.355	922.62
1718.788	914.62
1723.218	894.62
1727.643	883.62
1732.064	863.62
1736.481	847.62
1740.893	836.62
1745.301	791.62
1749.705	785.62
1754.105	762.62
1758.501	749.62
1762.893	727.62
1767.28	718.62
1771.663	710.62
1776.042	706.62
1780.417	684.62
1784.787	702.62
1789.154	695.62
1793.516	713.62
1797.874	703.62
1802.228	706.62
1806.578	690.62
1810.924	688.62
1815.266	685.62
1819.603	657.62
1823.937	660.62
1828.266	654.62
1832.591	652.62
1836.913	651.62
1841.23	640.62
1845.543	641.62
1849.852	636.62
1854.156	631.62
1858.457	644.62
1862.754	643.62
1867.047	642.62
1871.335	651.62
1875.62	656.62
1879.9	655.62
1884.177	650.62
1888.449	646.62
1892.718	642.62
1896.982	654.62
1901.243	644.62
1905.499	644.62
1909.752	639.62
1914	641.62
1918.245	647.62
1922.485	633.62
1926.722	645.62
1930.954	638.62
1935.183	643.62
1939.408	645.62
1943.628	647.62
1947.845	656.62
1952.058	642.62
1956.267	641.62
1960.472	644.62
1964.673	626.62
1968.87	628.62
1973.063	626.62
1977.252	622.62
1981.438	624.62
1985.619	614.62
1989.797	612.62
1993.971	623.62
1998.14	614.62
2002.306	615.62
2006.469	631.62
2010.627	631.62
2014.781	635.62
2018.932	632.62
2023.078	634.62
2027.221	636.62
2031.36	626.62
2035.495	618.62
2039.627	613.62
2043.754	598.62
2047.878	608.62
2051.998	613.62
2056.114	605.62
2060.226	615.62
2064.334	615.62
2068.439	604.62
2072.54	604.62
2076.637	619.62
2080.73	621.62
2084.82	628.62
2088.906	623.62
2092.988	627.62
2097.066	621.62
2101.14	614.62
2105.211	612.62
2109.278	614.62
2113.342	600.62
2117.401	610.62
2121.457	596.62
2125.509	598.62
2129.558	593.62
2133.602	587.62
2137.643	594.62
2141.681	590.62
2145.714	589.62
2149.744	585.62
2153.77	585.62
2157.793	580.62
2161.812	580.62
2165.827	562.62
2169.838	555.62
2173.846	559.62
2177.851	548.62
2181.851	542.62
2185.848	519.62
2189.841	524.62
2193.831	520.62
2197.817	522.62
2201.799	519.62
2205.778	520.62
2209.753	513.62
2213.725	510.62
2217.693	514.62
2221.657	502.62
2225.618	501.62
2229.575	500.62
2233.529	499.62
2237.479	502.62
2241.425	497.62
2245.368	493.62
2249.307	481.62
2253.243	483.62
2257.175	467.62
2261.104	477.62
2265.029	465.62
2268.95	453.62
2272.868	448.62
2276.783	450.62
2280.694	441.62
2284.601	436.62
2288.505	436.62
2292.405	427.62
2296.302	428.62
2300.195	424.62
2304.085	424.62
2307.971	409.62
2311.854	406.62
2315.734	415.62
2319.609	395.62
2323.482	388.62
2327.351	375.62
2331.216	378.62
2335.078	380.62
2338.937	378.62
2342.792	371.62
2346.643	359.62
2350.492	365.62
2354.336	361.62
2358.178	368.62
2362.015	362.62
2365.85	365.62
2369.681	360.62
2373.508	366.62
2377.333	371.62
2381.153	362.62
2384.971	369.62
2388.785	369.62
2392.595	354.62
2396.402	364.62
2400.206	353.62
2404.007	363.62
2407.804	362.62
2411.597	355.62
2415.388	354.62
2419.174	356.62
2422.958	357.62
2426.738	352.62
2430.515	354.62
2434.289	345.62
2438.059	346.62
2441.825	348.62
2445.589	339.62
2449.349	344.62
2453.106	343.62
2456.859	344.62
2460.61	333.62
2464.356	332.62
2468.1	324.62
2471.84	324.62
2475.577	313.62
2479.311	321.62
2483.041	316.62
2486.768	326.62
2490.492	327.62
2494.213	322.62
2497.93	320.62
2501.644	327.62
2505.355	321.62
2509.062	329.62
2512.766	322.62
2516.467	315.62
2520.165	322.62
2523.859	321.62
2527.551	300.62
2531.239	308.62
2534.923	312.62
2538.605	304.62
2542.283	299.62
2545.958	306.62
2549.63	300.62
2553.299	302.62
2556.964	302.62
2560.626	290.62
2564.285	298.62
2567.941	296.62
2571.594	293.62
2575.243	293.62
2578.89	284.62
2582.533	288.62
2586.173	283.62
2589.809	286.62
2593.443	287.62
2597.073	278.62
2600.701	268.62
2604.325	280.62
2607.946	272.62
2611.564	274.62
2615.178	277.62
2618.79	271.62
2622.398	276.62
2626.004	264.62
2629.606	268.62
2633.205	273.62
2636.801	272.62
2640.394	271.62
2643.983	262.62
2647.57	261.62
2651.153	257.62
2654.734	253.62
2658.311	250.62
2661.885	248.62
2665.456	240.62
2669.025	248.62
2672.589	242.62
2676.151	237.62
2679.71	241.62
2683.266	242.62
2686.819	233.62
2690.368	233.62
2693.915	224.62
2697.458	229.62
2700.999	226.62
2704.536	227.62
2708.071	220.62
2711.602	223.62
2715.13	223.62
2718.656	220.62
2722.178	220.62
2725.697	212.62
2729.214	218.62
2732.727	221.62
2736.237	224.62
2739.744	229.62
2743.249	228.62
2746.75	222.62
2750.248	229.62
2753.743	226.62
2757.236	226.62
2760.725	221.62
2764.211	230.62
2767.695	222.62
2771.175	220.62
2774.652	217.62
2778.127	212.62
2781.598	207.62
2785.067	210.62
2788.532	206.62
2791.995	205.62
2795.455	217.62
2798.911	204.62
2802.365	213.62
2805.816	214.62
2809.264	215.62
2812.709	213.62
2816.151	217.62
2819.59	218.62
2823.026	223.62
2826.46	215.62
2829.89	226.62
2833.318	219.62
2836.742	213.62
2840.164	211.62
2843.583	224.62
2846.999	227.62
2850.412	220.62
2853.822	233.62
2857.229	230.62
2860.634	234.62
2864.035	233.62
2867.434	244.62
2870.83	241.62
2874.223	234.62
2877.613	241.62
2881	246.62
2884.385	239.62
2887.766	242.62
2891.145	247.62
2894.521	248.62
2897.894	248.62
2901.264	253.62
2904.631	248.62
2907.996	245.62
2911.358	246.62
2914.717	262.62
2918.073	267.62
2921.426	262.62
2924.777	265.62
2928.124	270.62
2931.469	277.62
2934.811	281.62
2938.15	285.62
2941.487	292.62
2944.821	285.62
2948.152	298.62
2951.48	299.62
2954.805	304.62
2958.128	314.62
2961.447	306.62
2964.765	310.62
2968.079	321.62
2971.39	327.62
2974.699	326.62
2978.005	337.62
2981.308	338.62
2984.609	348.62
2987.907	360.62
2991.202	371.62
2994.494	376.62
2997.784	388.62
3001.07	394.62
3004.355	411.62
3007.636	424.62
3010.915	421.62
3014.191	437.62
3017.464	449.62
3020.734	445.62
3024.002	457.62
3027.267	466.62
3030.53	472.62
3033.789	484.62
3037.046	485.62
3040.301	501.62
3043.552	505.62
3046.801	518.62
3050.048	538.62
3053.291	545.62
3056.532	556.62
3059.771	570.62
3063.006	605.62
3066.239	603.62
3069.469	633.62
3072.697	638.62
3075.922	665.62
3079.144	668.62
3082.364	692.62
3085.581	701.62
3088.795	727.62
3092.007	725.62
3095.216	759.62
3098.423	756.62
3101.627	775.62
3104.828	796.62
3108.026	808.62
3111.222	838.62
3114.416	848.62
3117.607	854.62
3120.795	888.62
3123.98	901.62
3127.163	912.62
3130.344	944.62
3133.521	966.62
3136.696	991.62
3139.869	1000.62
3143.039	1033.62
3146.206	1046.62
3149.371	1058.62
3152.533	1064.62
3155.693	1072.62
3158.85	1089.62
3162.005	1092.62
3165.157	1101.62
3168.306	1112.62
3171.453	1122.62
3174.597	1114.62
3177.739	1114.62
3180.878	1119.62
3184.014	1121.62
3187.149	1126.62
3190.28	1139.62
3193.409	1137.62
3196.536	1131.62
3199.659	1153.62
3202.781	1146.62
3205.9	1160.62
3209.016	1148.62
3212.13	1151.62
3215.241	1158.62
3218.35	1153.62
3221.456	1139.62
3224.56	1122.62
3227.661	1116.62
3230.76	1099.62
3233.856	1083.62
3236.95	1081.62
3240.041	1078.62
3243.13	1064.62
3246.216	1061.62
3249.3	1063.62
3252.382	1051.62
3255.46	1049.62
3258.537	1031.62
3261.611	1027.62
3264.682	1036.62
3267.751	1030.62
3270.818	1037.62
3273.882	1036.62
3276.943	1022.62
3280.002	1018.62
3283.059	1004.62
3286.113	992.62
3289.165	973.62
3292.214	964.62
3295.261	960.62
3298.306	943.62
3301.348	914.62
3304.387	919.62
3307.425	896.62
3310.459	893.62
3313.492	874.62
3316.521	880.62
3319.549	858.62
3322.574	846.62
3325.597	849.62
3328.617	836.62
3331.635	844.62
3334.65	822.62
3337.663	824.62
3340.674	830.62
3343.682	816.62
3346.688	826.62
3349.691	819.62
3352.692	795.62
3355.691	804.62
3358.687	813.62
3361.681	807.62
3364.673	790.62
3367.662	772.62
3370.649	761.62
3373.633	766.62
3376.615	758.62
3379.595	741.62
3382.572	726.62
3385.547	726.62
3388.52	713.62
3391.49	701.62
3394.458	686.62
3397.424	694.62
3400.387	675.62
3403.348	674.62
3406.307	673.62
3409.263	656.62
3412.217	656.62
3415.168	648.62
3418.118	630.62
3421.065	629.62
3424.009	629.62
3426.951	615.62
3429.891	610.62
3432.829	592.62
3435.764	587.62
3438.697	580.62
3441.628	556.62
3444.557	546.62
3447.483	533.62
3450.407	527.62
3453.328	516.62
3456.247	499.62
3459.164	494.62
3462.079	472.62
3464.991	474.62
3467.902	448.62
3470.809	434.62
3473.715	421.62
3476.618	414.62
3479.519	399.62
3482.418	392.62
3485.315	374.62
3488.209	367.62
3491.101	359.62
3493.99	357.62
3496.878	342.62
3499.763	325.62
3502.646	322.62
3505.527	315.62
3508.405	305.62
3511.281	289.62
3514.155	282.62
3517.027	270.62
3519.897	258.62
3522.764	245.62
3525.629	240.62
3528.492	226.62
3531.352	222.62
3534.211	200.62
3537.067	190.62
3539.921	181.62
3542.773	181.62
3545.622	168.62
3548.469	157.62
3551.315	151.62
3554.157	153.62
3556.998	151.62
3559.837	130.62
3562.673	131.62
3565.507	118.62
3568.339	120.62
3571.169	114.62
3573.996	103.62
3576.822	101.62
3579.645	98.62
3582.466	93.62
3585.285	88.62
3588.101	80.62
3590.916	68.62
3593.728	71.62
3596.538	61.62
3599.346	62.62
3602.152	55.62
3604.956	47.62
3607.757	46.62
3610.556	37.62
3613.354	37.62
3616.149	34.62
3618.942	27.62
3621.732	30.62
3624.521	23.62
3627.307	20.62
3630.092	18.62
3632.874	12.62
3635.654	9.62
3638.432	10.62
3641.208	4.62
3643.982	6.62
3646.753	6.62
3649.523	0.62
3652.29	-1.38
3655.055	-2.38
3657.818	-4.38
3660.579	-7.38
3663.338	-6.38
3666.095	-14.38
3668.849	-15.38
3671.602	-18.38
3674.352	-17.38
3677.101	-23.38
3679.847	-27.38
3682.591	-25.38
3685.333	-25.38
3688.073	-30.38
3690.811	-27.38
3693.547	-34.38
3696.281	-32.38
3699.013	-33.38
3701.742	-35.38
3704.47	-38.38
3707.195	-36.38
3709.919	-40.38
3712.64	-43.38
3715.359	-36.38
3718.076	-40.38
3720.792	-45.38
3723.505	-41.38
3726.216	-43.38
3728.925	-47.38
3731.632	-44.38
3734.336	-46.38
3737.039	-44.38
3739.74	-45.38
3742.439	-45.38
3745.136	-43.38
3747.83	-45.38
3750.523	-44.38
3753.213	-42.38
3755.902	-46.38
3758.589	-50.38
3761.273	-51.38
3763.956	-52.38
3766.636	-54.38
3769.315	-54.38
3771.991	-59.38
3774.665	-54.38
3777.338	-55.38
3780.008	-58.38
3782.677	-58.38
3785.343	-56.38
3788.007	-57.38
3790.67	-55.38
3793.33	-62.38
3795.989	-58.38
3798.645	-58.38
3801.299	-57.38
3803.952	-62.38
3806.602	-59.38
3809.251	-63.38
3811.897	-58.38
3814.542	-59.38
3817.184	-60.38
3819.825	-55.38
3822.463	-54.38
3825.1	-55.38
3827.735	-54.38
3830.367	-59.38
3832.998	-60.38
3835.627	-57.38
3838.253	-58.38
3840.878	-64.38
3843.501	-58.38
3846.122	-58.38
3848.741	-60.38
3851.358	-64.38
3853.973	-59.38
3856.586	-60.38
3859.197	-62.38
3861.806	-62.38
3864.414	-62.38
3867.019	-62.38
3869.622	-62.38
3872.224	-59.38
3874.823	-62.38
3877.421	-65.38
3880.016	-61.38
3882.61	-57.38
3885.202	-59.38
3887.792	-56.38
3890.38	-58.38
3892.966	-59.38
3895.55	-65.38
3898.132	-63.38
3900.713	-68.38
3903.291	-68.38
3905.868	-68.38
3908.442	-65.38
3911.015	-67.38
3913.586	-65.38
3916.155	-66.38
3918.722	-67.38
3921.287	-66.38
3923.85	-68.38
3926.411	-67.38
3928.971	-67.38
3931.528	-66.38
3934.084	-67.38
3936.638	-71.38
3939.19	-67.38
3941.74	-67.38
3944.288	-62.38
3946.834	-67.38
3949.378	-69.38
3951.921	-66.38
3954.462	-68.38
3957	-64.38
3959.537	-63.38
3962.072	-69.38
3964.606	-64.38
3967.137	-60.38
3969.667	-65.38
3972.194	-66.38
3974.72	-62.38
3977.244	-64.38
3979.766	-59.38
3982.286	-61.38
3984.805	-64.38
3987.321	-64.38
3989.836	-63.38
3992.349	-65.38
3994.86	-66.38
3997.369	-69.38
3999.877	-66.38
4002.382	-65.38
4004.886	-65.38
4007.388	-66.38
4009.888	-64.38
4012.386	-62.38
4014.883	-67.38
4017.377	-65.38
4019.87	-65.38
4022.361	-64.38
4024.85	-63.38
4027.338	-66.38
4029.823	-63.38
4032.307	-66.38
4034.789	-65.38
4037.269	-68.38
4039.747	-65.38
4042.224	-68.38
4044.699	-65.38
4047.172	-61.38
4049.643	-63.38
4052.112	-61.38
4054.58	-58.38
4057.046	-66.38
4059.51	-62.38
4061.972	-63.38
4064.432	-62.38
4066.891	-65.38
4069.348	-65.38
4071.803	-67.38
4074.256	-66.38
4076.708	-65.38
4079.158	-64.38
4081.606	-67.38
4084.052	-66.38
4086.497	-65.38
4088.939	-69.38
4091.38	-68.38
4093.819	-66.38
4096.257	-71.38
4098.693	-71.38
4101.127	-72.38
4103.559	-71.38
4105.989	-25.38
4108.418	-22.38
4110.845	-23.38
4113.27	-21.38
4115.694	-16.38
4118.115	-6.38
4120.535	-66.38
4122.954	-68.38
4125.37	-66.38
4127.785	-70.38
4130.198	-68.38
4132.609	-65.38
4135.019	-73.38
4137.427	-70.38
4139.833	-67.38
4142.237	-72.38
