Data from 10CFU2_A_ramanshift_RamanShift_11-38-17-771.txt Node
Date: Sun Jan 01 11:38:17 IST 2017
User: aro
Spectrometer: QEPB0276
Trigger mode: 0
Integration Time (sec): 5.000000E0
Scans to average: 1
Electric dark correction enabled: true
Nonlinearity correction enabled: false
Boxcar width: 0
XAxis mode: Raman Shifts
Number of Pixels in Spectrum: 1044
>>>>>Begin Spectral Data<<<<<
160.701	2.75
166.742	10.75
172.777	60.75
178.805	205.75
184.826	610.75
190.841	1457.75
196.849	2661.75
202.85	3804.75
208.845	4302.75
214.833	4300.75
220.815	4121.75
226.789	3997.75
232.758	3898.75
238.719	3799.75
244.674	3672.75
250.623	3525.75
256.565	3403.75
262.5	3237.75
268.429	3105.75
274.351	2964.75
280.267	2864.75
286.176	2740.75
292.079	2658.75
297.975	2571.75
303.865	2505.75
309.748	2440.75
315.625	2401.75
321.495	2348.75
327.359	2297.75
333.217	2276.75
339.068	2257.75
344.912	2238.75
350.751	2203.75
356.583	2200.75
362.408	2219.75
368.227	2201.75
374.04	2208.75
379.847	2215.75
385.647	2230.75
391.44	2217.75
397.228	2220.75
403.009	2249.75
408.784	2244.75
414.553	2234.75
420.315	2254.75
426.071	2258.75
431.821	2270.75
437.565	2266.75
443.302	2279.75
449.033	2261.75
454.758	2246.75
460.477	2235.75
466.189	2237.75
471.896	2214.75
477.596	2206.75
483.29	2192.75
488.978	2181.75
494.66	2167.75
500.335	2159.75
506.005	2128.75
511.668	2105.75
517.325	2051.75
522.977	2015.75
528.622	2007.75
534.261	1981.75
539.894	1969.75
545.521	1939.75
551.141	1937.75
556.756	1926.75
562.365	1923.75
567.968	1898.75
573.565	1889.75
579.155	1889.75
584.74	1875.75
590.319	1858.75
595.892	1841.75
601.459	1858.75
607.02	1845.75
612.575	1814.75
618.124	1779.75
623.667	1782.75
629.204	1751.75
634.735	1748.75
640.261	1732.75
645.781	1718.75
651.294	1716.75
656.802	1702.75
662.304	1700.75
667.8	1702.75
673.29	1689.75
678.775	1690.75
684.254	1661.75
689.726	1672.75
695.193	1658.75
700.655	1638.75
706.11	1637.75
711.56	1620.75
717.004	1625.75
722.442	1621.75
727.874	1604.75
733.301	1579.75
738.722	1592.75
744.137	1579.75
749.547	1577.75
754.951	1578.75
760.349	1579.75
765.741	1567.75
771.128	1555.75
776.509	1568.75
781.885	1585.75
787.254	1552.75
792.618	1557.75
797.977	1560.75
803.33	1542.75
808.677	1523.75
814.019	1514.75
819.355	1509.75
824.686	1483.75
830.011	1482.75
835.33	1466.75
840.644	1446.75
845.952	1451.75
851.255	1459.75
856.552	1439.75
861.844	1416.75
867.13	1430.75
872.41	1416.75
877.686	1412.75
882.955	1395.75
888.219	1392.75
893.478	1340.75
898.731	1331.75
903.979	1325.75
909.221	1304.75
914.458	1298.75
919.69	1301.75
924.916	1288.75
930.136	1289.75
935.351	1290.75
940.561	1278.75
945.766	1278.75
950.965	1264.75
956.158	1272.75
961.347	1275.75
966.529	1230.75
971.707	1248.75
976.879	1220.75
982.046	1215.75
987.208	1195.75
992.364	1189.75
997.515	1198.75
1002.66	1206.75
1007.801	1205.75
1012.936	1215.75
1018.066	1232.75
1023.19	1248.75
1028.309	1242.75
1033.423	1246.75
1038.532	1224.75
1043.636	1241.75
1048.734	1220.75
1053.827	1206.75
1058.915	1187.75
1063.998	1184.75
1069.075	1195.75
1074.147	1183.75
1079.214	1200.75
1084.276	1197.75
1089.333	1211.75
1094.385	1212.75
1099.431	1228.75
1104.472	1221.75
1109.509	1220.75
1114.54	1216.75
1119.565	1196.75
1124.586	1190.75
1129.602	1177.75
1134.613	1155.75
1139.618	1161.75
1144.619	1157.75
1149.614	1166.75
1154.604	1172.75
1159.589	1162.75
1164.57	1174.75
1169.545	1177.75
1174.515	1174.75
1179.48	1177.75
1184.44	1175.75
1189.395	1169.75
1194.345	1151.75
1199.29	1162.75
1204.23	1148.75
1209.165	1152.75
1214.095	1156.75
1219.021	1168.75
1223.941	1172.75
1228.856	1183.75
1233.766	1193.75
1238.672	1189.75
1243.572	1196.75
1248.467	1192.75
1253.358	1182.75
1258.244	1176.75
1263.124	1151.75
1268	1128.75
1272.871	1131.75
1277.737	1121.75
1282.599	1105.75
1287.455	1131.75
1292.306	1129.75
1297.153	1122.75
1301.995	1130.75
1306.832	1151.75
1311.664	1156.75
1316.491	1134.75
1321.314	1153.75
1326.132	1137.75
1330.945	1120.75
1335.753	1106.75
1340.556	1113.75
1345.354	1082.75
1350.148	1078.75
1354.937	1063.75
1359.722	1052.75
1364.501	1051.75
1369.276	1045.75
1374.046	1041.75
1378.811	1033.75
1383.572	1040.75
1388.327	1034.75
1393.079	1034.75
1397.825	1025.75
1402.567	1022.75
1407.304	1005.75
1412.036	993.75
1416.764	1018.75
1421.487	1002.75
1426.205	1026.75
1430.919	1008.75
1435.628	1017.75
1440.333	1023.75
1445.032	1043.75
1449.727	1047.75
1454.418	1061.75
1459.104	1071.75
1463.785	1062.75
1468.462	1036.75
1473.134	1026.75
1477.802	1018.75
1482.465	1016.75
1487.123	1008.75
1491.777	1000.75
1496.426	1012.75
1501.071	1030.75
1505.711	1025.75
1510.347	1034.75
1514.978	1039.75
1519.604	1050.75
1524.226	1061.75
1528.844	1053.75
1533.457	1050.75
1538.065	1073.75
1542.669	1057.75
1547.269	1065.75
1551.864	1062.75
1556.454	1048.75
1561.041	1079.75
1565.622	1089.75
1570.199	1096.75
1574.772	1110.75
1579.34	1132.75
1583.904	1159.75
1588.464	1165.75
1593.019	1168.75
1597.569	1217.75
1602.115	1198.75
1606.657	1213.75
1611.195	1229.75
1615.728	1240.75
1620.256	1251.75
1624.78	1273.75
1629.3	1286.75
1633.816	1293.75
1638.327	1325.75
1642.834	1337.75
1647.336	1345.75
1651.834	1350.75
1656.328	1351.75
1660.817	1341.75
1665.302	1329.75
1669.783	1305.75
1674.259	1276.75
1678.732	1252.75
1683.199	1214.75
1687.663	1171.75
1692.122	1150.75
1696.577	1105.75
1701.028	1056.75
1705.474	1020.75
1709.917	976.75
1714.355	952.75
1718.788	921.75
1723.218	930.75
1727.643	910.75
1732.064	895.75
1736.481	882.75
1740.893	867.75
1745.301	838.75
1749.705	816.75
1754.105	795.75
1758.501	786.75
1762.893	779.75
1767.28	759.75
1771.663	742.75
1776.042	754.75
1780.417	756.75
1784.787	752.75
1789.154	751.75
1793.516	745.75
1797.874	746.75
1802.228	722.75
1806.578	729.75
1810.924	735.75
1815.266	713.75
1819.603	706.75
1823.937	695.75
1828.266	686.75
1832.591	671.75
1836.913	688.75
1841.23	675.75
1845.543	674.75
1849.852	679.75
1854.156	687.75
1858.457	687.75
1862.754	696.75
1867.047	687.75
1871.335	692.75
1875.62	698.75
1879.9	700.75
1884.177	697.75
1888.449	699.75
1892.718	694.75
1896.982	695.75
1901.243	688.75
1905.499	678.75
1909.752	674.75
1914	676.75
1918.245	679.75
1922.485	679.75
1926.722	682.75
1930.954	685.75
1935.183	678.75
1939.408	685.75
1943.628	693.75
1947.845	690.75
1952.058	697.75
1956.267	684.75
1960.472	667.75
1964.673	678.75
1968.87	664.75
1973.063	657.75
1977.252	659.75
1981.438	654.75
1985.619	646.75
1989.797	652.75
1993.971	653.75
1998.14	648.75
2002.306	660.75
2006.469	664.75
2010.627	662.75
2014.781	677.75
2018.932	673.75
2023.078	669.75
2027.221	662.75
2031.36	666.75
2035.495	667.75
2039.627	657.75
2043.754	647.75
2047.878	641.75
2051.998	642.75
2056.114	637.75
2060.226	643.75
2064.334	648.75
2068.439	641.75
2072.54	654.75
2076.637	655.75
2080.73	648.75
2084.82	645.75
2088.906	656.75
2092.988	657.75
2097.066	660.75
2101.14	640.75
2105.211	652.75
2109.278	633.75
2113.342	644.75
2117.401	628.75
2121.457	642.75
2125.509	632.75
2129.558	625.75
2133.602	620.75
2137.643	627.75
2141.681	626.75
2145.714	631.75
2149.744	627.75
2153.77	628.75
2157.793	606.75
2161.812	610.75
2165.827	597.75
2169.838	599.75
2173.846	590.75
2177.851	595.75
2181.851	569.75
2185.848	574.75
2189.841	557.75
2193.831	560.75
2197.817	552.75
2201.799	556.75
2205.778	553.75
2209.753	551.75
2213.725	540.75
2217.693	546.75
2221.657	548.75
2225.618	543.75
2229.575	544.75
2233.529	539.75
2237.479	540.75
2241.425	534.75
2245.368	523.75
2249.307	519.75
2253.243	509.75
2257.175	493.75
2261.104	489.75
2265.029	502.75
2268.95	486.75
2272.868	485.75
2276.783	484.75
2280.694	469.75
2284.601	466.75
2288.505	471.75
2292.405	459.75
2296.302	446.75
2300.195	447.75
2304.085	444.75
2307.971	440.75
2311.854	430.75
2315.734	427.75
2319.609	410.75
2323.482	408.75
2327.351	409.75
2331.216	396.75
2335.078	393.75
2338.937	400.75
2342.792	394.75
2346.643	395.75
2350.492	389.75
2354.336	387.75
2358.178	402.75
2362.015	394.75
2365.85	394.75
2369.681	387.75
2373.508	403.75
2377.333	400.75
2381.153	397.75
2384.971	392.75
2388.785	392.75
2392.595	399.75
2396.402	390.75
2400.206	393.75
2404.007	389.75
2407.804	381.75
2411.597	378.75
2415.388	382.75
2419.174	381.75
2422.958	376.75
2426.738	382.75
2430.515	380.75
2434.289	379.75
2438.059	374.75
2441.825	377.75
2445.589	367.75
2449.349	369.75
2453.106	364.75
2456.859	367.75
2460.61	357.75
2464.356	348.75
2468.1	355.75
2471.84	355.75
2475.577	357.75
2479.311	353.75
2483.041	351.75
2486.768	341.75
2490.492	348.75
2494.213	350.75
2497.93	343.75
2501.644	348.75
2505.355	349.75
2509.062	343.75
2512.766	350.75
2516.467	341.75
2520.165	333.75
2523.859	344.75
2527.551	341.75
2531.239	325.75
2534.923	334.75
2538.605	330.75
2542.283	321.75
2545.958	322.75
2549.63	324.75
2553.299	322.75
2556.964	321.75
2560.626	311.75
2564.285	320.75
2567.941	314.75
2571.594	314.75
2575.243	317.75
2578.89	301.75
2582.533	301.75
2586.173	306.75
2589.809	301.75
2593.443	303.75
2597.073	295.75
2600.701	293.75
2604.325	300.75
2607.946	291.75
2611.564	296.75
2615.178	294.75
2618.79	292.75
2622.398	290.75
2626.004	290.75
2629.606	291.75
2633.205	293.75
2636.801	296.75
2640.394	290.75
2643.983	284.75
2647.57	284.75
2651.153	273.75
2654.734	270.75
2658.311	269.75
2661.885	270.75
2665.456	270.75
2669.025	268.75
2672.589	266.75
2676.151	260.75
2679.71	263.75
2683.266	256.75
2686.819	256.75
2690.368	257.75
2693.915	253.75
2697.458	250.75
2700.999	244.75
2704.536	242.75
2708.071	240.75
2711.602	232.75
2715.13	235.75
2718.656	239.75
2722.178	235.75
2725.697	234.75
2729.214	239.75
2732.727	237.75
2736.237	242.75
2739.744	236.75
2743.249	242.75
2746.75	235.75
2750.248	239.75
2753.743	241.75
2757.236	235.75
2760.725	241.75
2764.211	237.75
2767.695	230.75
2771.175	233.75
2774.652	227.75
2778.127	223.75
2781.598	228.75
2785.067	219.75
2788.532	221.75
2791.995	227.75
2795.455	219.75
2798.911	230.75
2802.365	221.75
2805.816	228.75
2809.264	228.75
2812.709	232.75
2816.151	225.75
2819.59	229.75
2823.026	237.75
2826.46	235.75
2829.89	236.75
2833.318	235.75
2836.742	232.75
2840.164	237.75
2843.583	238.75
2846.999	247.75
2850.412	245.75
2853.822	254.75
2857.229	238.75
2860.634	247.75
2864.035	252.75
2867.434	253.75
2870.83	254.75
2874.223	256.75
2877.613	263.75
2881	254.75
2884.385	258.75
2887.766	260.75
2891.145	263.75
2894.521	253.75
2897.894	257.75
2901.264	251.75
2904.631	256.75
2907.996	256.75
2911.358	263.75
2914.717	259.75
2918.073	273.75
2921.426	268.75
2924.777	279.75
2928.124	285.75
2931.469	277.75
2934.811	288.75
2938.15	293.75
2941.487	299.75
2944.821	301.75
2948.152	310.75
2951.48	312.75
2954.805	314.75
2958.128	320.75
2961.447	316.75
2964.765	312.75
2968.079	327.75
2971.39	332.75
2974.699	347.75
2978.005	332.75
2981.308	345.75
2984.609	358.75
2987.907	363.75
2991.202	368.75
2994.494	377.75
2997.784	388.75
3001.07	399.75
3004.355	415.75
3007.636	416.75
3010.915	427.75
3014.191	432.75
3017.464	440.75
3020.734	446.75
3024.002	455.75
3027.267	453.75
3030.53	458.75
3033.789	470.75
3037.046	482.75
3040.301	490.75
3043.552	504.75
3046.801	519.75
3050.048	520.75
3053.291	530.75
3056.532	548.75
3059.771	575.75
3063.006	579.75
3066.239	591.75
3069.469	620.75
3072.697	630.75
3075.922	649.75
3079.144	652.75
3082.364	675.75
3085.581	681.75
3088.795	706.75
3092.007	716.75
3095.216	729.75
3098.423	748.75
3101.627	774.75
3104.828	786.75
3108.026	795.75
3111.222	805.75
3114.416	827.75
3117.607	841.75
3120.795	866.75
3123.98	878.75
3127.163	899.75
3130.344	915.75
3133.521	945.75
3136.696	964.75
3139.869	975.75
3143.039	993.75
3146.206	1014.75
3149.371	1011.75
3152.533	1045.75
3155.693	1057.75
3158.85	1053.75
3162.005	1064.75
3165.157	1068.75
3168.306	1058.75
3171.453	1091.75
3174.597	1074.75
3177.739	1084.75
3180.878	1094.75
3184.014	1102.75
3187.149	1091.75
3190.28	1094.75
3193.409	1092.75
3196.536	1105.75
3199.659	1111.75
3202.781	1117.75
3205.9	1120.75
3209.016	1109.75
3212.13	1127.75
3215.241	1123.75
3218.35	1113.75
3221.456	1118.75
3224.56	1097.75
3227.661	1075.75
3230.76	1070.75
3233.856	1064.75
3236.95	1049.75
3240.041	1035.75
3243.13	1032.75
3246.216	1023.75
3249.3	1027.75
3252.382	1016.75
3255.46	1014.75
3258.537	1011.75
3261.611	1007.75
3264.682	996.75
3267.751	1005.75
3270.818	997.75
3273.882	1000.75
3276.943	987.75
3280.002	985.75
3283.059	973.75
3286.113	957.75
3289.165	967.75
3292.214	953.75
3295.261	927.75
3298.306	918.75
3301.348	902.75
3304.387	875.75
3307.425	865.75
3310.459	865.75
3313.492	854.75
3316.521	847.75
3319.549	833.75
3322.574	813.75
3325.597	829.75
3328.617	809.75
3331.635	814.75
3334.65	801.75
3337.663	810.75
3340.674	801.75
3343.682	796.75
3346.688	795.75
3349.691	791.75
3352.692	795.75
3355.691	785.75
3358.687	775.75
3361.681	766.75
3364.673	766.75
3367.662	751.75
3370.649	745.75
3373.633	734.75
3376.615	726.75
3379.595	727.75
3382.572	717.75
3385.547	703.75
3388.52	688.75
3391.49	687.75
3394.458	668.75
3397.424	674.75
3400.387	657.75
3403.348	658.75
3406.307	640.75
3409.263	635.75
3412.217	639.75
3415.168	621.75
3418.118	614.75
3421.065	618.75
3424.009	607.75
3426.951	607.75
3429.891	588.75
3432.829	570.75
3435.764	570.75
3438.697	568.75
3441.628	549.75
3444.557	531.75
3447.483	521.75
3450.407	502.75
3453.328	492.75
3456.247	481.75
3459.164	463.75
3462.079	448.75
3464.991	445.75
3467.902	433.75
3470.809	425.75
3473.715	406.75
3476.618	394.75
3479.519	393.75
3482.418	378.75
3485.315	364.75
3488.209	360.75
3491.101	347.75
3493.99	339.75
3496.878	331.75
3499.763	322.75
3502.646	313.75
3505.527	305.75
3508.405	299.75
3511.281	279.75
3514.155	273.75
3517.027	256.75
3519.897	253.75
3522.764	235.75
3525.629	224.75
3528.492	217.75
3531.352	206.75
3534.211	199.75
3537.067	182.75
3539.921	173.75
3542.773	169.75
3545.622	167.75
3548.469	166.75
3551.315	143.75
3554.157	146.75
3556.998	136.75
3559.837	130.75
3562.673	120.75
3565.507	115.75
3568.339	110.75
3571.169	105.75
3573.996	98.75
3576.822	105.75
3579.645	95.75
3582.466	86.75
3585.285	87.75
3588.101	73.75
3590.916	62.75
3593.728	62.75
3596.538	55.75
3599.346	51.75
3602.152	47.75
3604.956	45.75
3607.757	37.75
3610.556	36.75
3613.354	29.75
3616.149	34.75
3618.942	20.75
3621.732	28.75
3624.521	19.75
3627.307	22.75
3630.092	12.75
3632.874	16.75
3635.654	13.75
3638.432	7.75
3641.208	2.75
3643.982	4.75
3646.753	0.75
3649.523	-3.25
3652.29	1.75
3655.055	-3.25
3657.818	-3.25
3660.579	-7.25
3663.338	-11.25
3666.095	-9.25
3668.849	-14.25
3671.602	-14.25
3674.352	-17.25
3677.101	-20.25
3679.847	-22.25
3682.591	-26.25
3685.333	-29.25
3688.073	-30.25
3690.811	-28.25
3693.547	-31.25
3696.281	-37.25
3699.013	-35.25
3701.742	-38.25
3704.47	-36.25
3707.195	-35.25
3709.919	-41.25
3712.64	-41.25
3715.359	-43.25
3718.076	-45.25
3720.792	-43.25
3723.505	-48.25
3726.216	-47.25
3728.925	-48.25
3731.632	-46.25
3734.336	-51.25
3737.039	-48.25
3739.74	-50.25
3742.439	-50.25
3745.136	-51.25
3747.83	-51.25
3750.523	-53.25
3753.213	-53.25
3755.902	-52.25
3758.589	-56.25
3761.273	-55.25
3763.956	-55.25
3766.636	-59.25
3769.315	-58.25
3771.991	-61.25
3774.665	-59.25
3777.338	-56.25
3780.008	-59.25
3782.677	-61.25
3785.343	-58.25
3788.007	-58.25
3790.67	-57.25
3793.33	-59.25
3795.989	-61.25
3798.645	-62.25
3801.299	-59.25
3803.952	-60.25
3806.602	-63.25
3809.251	-61.25
3811.897	-57.25
3814.542	-63.25
3817.184	-60.25
3819.825	-55.25
3822.463	-58.25
3825.1	-57.25
3827.735	-58.25
3830.367	-59.25
3832.998	-61.25
3835.627	-63.25
3838.253	-56.25
3840.878	-67.25
3843.501	-57.25
3846.122	-63.25
3848.741	-64.25
3851.358	-65.25
3853.973	-61.25
3856.586	-61.25
3859.197	-65.25
3861.806	-66.25
3864.414	-63.25
3867.019	-64.25
3869.622	-66.25
3872.224	-63.25
3874.823	-65.25
3877.421	-67.25
3880.016	-63.25
3882.61	-57.25
3885.202	-66.25
3887.792	-58.25
3890.38	-61.25
3892.966	-62.25
3895.55	-66.25
3898.132	-67.25
3900.713	-67.25
3903.291	-68.25
3905.868	-67.25
3908.442	-66.25
3911.015	-69.25
3913.586	-67.25
3916.155	-66.25
3918.722	-70.25
3921.287	-69.25
3923.85	-73.25
3926.411	-68.25
3928.971	-69.25
3931.528	-67.25
3934.084	-73.25
3936.638	-70.25
3939.19	-69.25
3941.74	-68.25
3944.288	-67.25
3946.834	-68.25
3949.378	-71.25
3951.921	-69.25
3954.462	-69.25
3957	-65.25
3959.537	-65.25
3962.072	-69.25
3964.606	-65.25
3967.137	-66.25
3969.667	-66.25
3972.194	-67.25
3974.72	-65.25
3977.244	-67.25
3979.766	-63.25
3982.286	-63.25
3984.805	-64.25
3987.321	-63.25
3989.836	-64.25
3992.349	-65.25
3994.86	-66.25
3997.369	-67.25
3999.877	-65.25
4002.382	-64.25
4004.886	-63.25
4007.388	-66.25
4009.888	-69.25
4012.386	-65.25
4014.883	-70.25
4017.377	-69.25
4019.87	-70.25
4022.361	-70.25
4024.85	-69.25
4027.338	-71.25
4029.823	-68.25
4032.307	-71.25
4034.789	-68.25
4037.269	-69.25
4039.747	-68.25
4042.224	-69.25
4044.699	-71.25
4047.172	-68.25
4049.643	-64.25
4052.112	-68.25
4054.58	-67.25
4057.046	-66.25
4059.51	-66.25
4061.972	-64.25
4064.432	-67.25
4066.891	-64.25
4069.348	-68.25
4071.803	-66.25
4074.256	-65.25
4076.708	-65.25
4079.158	-67.25
4081.606	-70.25
4084.052	-68.25
4086.497	-66.25
4088.939	-71.25
4091.38	-66.25
4093.819	-67.25
4096.257	-72.25
4098.693	-73.25
4101.127	-72.25
4103.559	-73.25
4105.989	-30.25
4108.418	-25.25
4110.845	-27.25
4113.27	-22.25
4115.694	-17.25
4118.115	-12.25
4120.535	-69.25
4122.954	-69.25
4125.37	-67.25
4127.785	-66.25
4130.198	-66.25
4132.609	-65.25
4135.019	-70.25
4137.427	-73.25
4139.833	-68.25
4142.237	-68.25
