Data from 10CFU2_B_ramanshift_RamanShift_12-17-57-653.txt Node
Date: Sun Jan 01 12:17:57 IST 2017
User: aro
Spectrometer: QEPB0276
Trigger mode: 0
Integration Time (sec): 5.000000E0
Scans to average: 1
Electric dark correction enabled: true
Nonlinearity correction enabled: false
Boxcar width: 0
XAxis mode: Raman Shifts
Number of Pixels in Spectrum: 1044
>>>>>Begin Spectral Data<<<<<
160.701	11.38
166.742	20.38
172.777	54.38
178.805	186.38
184.826	562.38
190.841	1369.38
196.849	2575.38
202.85	3756.38
208.845	4319.38
214.833	4381.38
220.815	4223.38
226.789	4062.38
232.758	3959.38
238.719	3847.38
244.674	3733.38
250.623	3625.38
256.565	3428.38
262.5	3315.38
268.429	3135.38
274.351	3016.38
280.267	2898.38
286.176	2778.38
292.079	2728.38
297.975	2627.38
303.865	2527.38
309.748	2473.38
315.625	2404.38
321.495	2351.38
327.359	2326.38
333.217	2289.38
339.068	2255.38
344.912	2245.38
350.751	2226.38
356.583	2206.38
362.408	2204.38
368.227	2215.38
374.04	2205.38
379.847	2226.38
385.647	2231.38
391.44	2233.38
397.228	2239.38
403.009	2249.38
408.784	2247.38
414.553	2262.38
420.315	2269.38
426.071	2288.38
431.821	2264.38
437.565	2282.38
443.302	2273.38
449.033	2261.38
454.758	2263.38
460.477	2249.38
466.189	2239.38
471.896	2231.38
477.596	2219.38
483.29	2219.38
488.978	2226.38
494.66	2219.38
500.335	2187.38
506.005	2145.38
511.668	2113.38
517.325	2084.38
522.977	2048.38
528.622	2018.38
534.261	1998.38
539.894	1973.38
545.521	1984.38
551.141	1956.38
556.756	1946.38
562.365	1931.38
567.968	1929.38
573.565	1899.38
579.155	1884.38
584.74	1891.38
590.319	1869.38
595.892	1859.38
601.459	1858.38
607.02	1863.38
612.575	1829.38
618.124	1816.38
623.667	1805.38
629.204	1790.38
634.735	1759.38
640.261	1761.38
645.781	1762.38
651.294	1739.38
656.802	1739.38
662.304	1724.38
667.8	1708.38
673.29	1705.38
678.775	1709.38
684.254	1692.38
689.726	1676.38
695.193	1680.38
700.655	1669.38
706.11	1667.38
711.56	1646.38
717.004	1645.38
722.442	1624.38
727.874	1624.38
733.301	1616.38
738.722	1601.38
744.137	1580.38
749.547	1601.38
754.951	1574.38
760.349	1568.38
765.741	1569.38
771.128	1583.38
776.509	1578.38
781.885	1582.38
787.254	1596.38
792.618	1582.38
797.977	1568.38
803.33	1567.38
808.677	1557.38
814.019	1527.38
819.355	1526.38
824.686	1503.38
830.011	1493.38
835.33	1475.38
840.644	1475.38
845.952	1454.38
851.255	1468.38
856.552	1453.38
861.844	1439.38
867.13	1455.38
872.41	1428.38
877.686	1436.38
882.955	1416.38
888.219	1396.38
893.478	1396.38
898.731	1380.38
903.979	1340.38
909.221	1313.38
914.458	1321.38
919.69	1324.38
924.916	1319.38
930.136	1312.38
935.351	1294.38
940.561	1300.38
945.766	1313.38
950.965	1300.38
956.158	1280.38
961.347	1279.38
966.529	1268.38
971.707	1247.38
976.879	1221.38
982.046	1212.38
987.208	1220.38
992.364	1203.38
997.515	1197.38
1002.66	1207.38
1007.801	1231.38
1012.936	1236.38
1018.066	1242.38
1023.19	1255.38
1028.309	1248.38
1033.423	1268.38
1038.532	1252.38
1043.636	1235.38
1048.734	1235.38
1053.827	1234.38
1058.915	1207.38
1063.998	1200.38
1069.075	1203.38
1074.147	1202.38
1079.214	1179.38
1084.276	1209.38
1089.333	1232.38
1094.385	1222.38
1099.431	1246.38
1104.472	1254.38
1109.509	1247.38
1114.54	1241.38
1119.565	1210.38
1124.586	1213.38
1129.602	1191.38
1134.613	1187.38
1139.618	1179.38
1144.619	1179.38
1149.614	1189.38
1154.604	1182.38
1159.589	1179.38
1164.57	1180.38
1169.545	1185.38
1174.515	1204.38
1179.48	1198.38
1184.44	1193.38
1189.395	1175.38
1194.345	1177.38
1199.29	1168.38
1204.23	1163.38
1209.165	1153.38
1214.095	1199.38
1219.021	1173.38
1223.941	1205.38
1228.856	1205.38
1233.766	1216.38
1238.672	1229.38
1243.572	1208.38
1248.467	1203.38
1253.358	1205.38
1258.244	1189.38
1263.124	1167.38
1268	1159.38
1272.871	1149.38
1277.737	1132.38
1282.599	1126.38
1287.455	1129.38
1292.306	1142.38
1297.153	1146.38
1301.995	1142.38
1306.832	1158.38
1311.664	1171.38
1316.491	1172.38
1321.314	1162.38
1326.132	1160.38
1330.945	1150.38
1335.753	1144.38
1340.556	1124.38
1345.354	1111.38
1350.148	1117.38
1354.937	1102.38
1359.722	1091.38
1364.501	1084.38
1369.276	1074.38
1374.046	1068.38
1378.811	1065.38
1383.572	1049.38
1388.327	1046.38
1393.079	1045.38
1397.825	1050.38
1402.567	1054.38
1407.304	1028.38
1412.036	1012.38
1416.764	1028.38
1421.487	1021.38
1426.205	1028.38
1430.919	1046.38
1435.628	1047.38
1440.333	1049.38
1445.032	1055.38
1449.727	1072.38
1454.418	1083.38
1459.104	1090.38
1463.785	1082.38
1468.462	1068.38
1473.134	1055.38
1477.802	1045.38
1482.465	1053.38
1487.123	1037.38
1491.777	1043.38
1496.426	1043.38
1501.071	1047.38
1505.711	1050.38
1510.347	1074.38
1514.978	1069.38
1519.604	1085.38
1524.226	1088.38
1528.844	1074.38
1533.457	1091.38
1538.065	1082.38
1542.669	1092.38
1547.269	1083.38
1551.864	1080.38
1556.454	1086.38
1561.041	1091.38
1565.622	1106.38
1570.199	1124.38
1574.772	1130.38
1579.34	1148.38
1583.904	1169.38
1588.464	1194.38
1593.019	1211.38
1597.569	1205.38
1602.115	1224.38
1606.657	1240.38
1611.195	1247.38
1615.728	1253.38
1620.256	1272.38
1624.78	1284.38
1629.3	1303.38
1633.816	1341.38
1638.327	1334.38
1642.834	1346.38
1647.336	1370.38
1651.834	1366.38
1656.328	1369.38
1660.817	1372.38
1665.302	1355.38
1669.783	1330.38
1674.259	1314.38
1678.732	1259.38
1683.199	1245.38
1687.663	1204.38
1692.122	1174.38
1696.577	1133.38
1701.028	1095.38
1705.474	1040.38
1709.917	979.38
1714.355	984.38
1718.788	950.38
1723.218	953.38
1727.643	937.38
1732.064	911.38
1736.481	886.38
1740.893	891.38
1745.301	866.38
1749.705	839.38
1754.105	827.38
1758.501	797.38
1762.893	800.38
1767.28	787.38
1771.663	777.38
1776.042	763.38
1780.417	754.38
1784.787	769.38
1789.154	763.38
1793.516	758.38
1797.874	761.38
1802.228	757.38
1806.578	739.38
1810.924	731.38
1815.266	724.38
1819.603	710.38
1823.937	708.38
1828.266	698.38
1832.591	701.38
1836.913	690.38
1841.23	684.38
1845.543	691.38
1849.852	688.38
1854.156	687.38
1858.457	690.38
1862.754	697.38
1867.047	696.38
1871.335	703.38
1875.62	707.38
1879.9	703.38
1884.177	704.38
1888.449	715.38
1892.718	707.38
1896.982	704.38
1901.243	704.38
1905.499	695.38
1909.752	690.38
1914	702.38
1918.245	702.38
1922.485	690.38
1926.722	697.38
1930.954	691.38
1935.183	685.38
1939.408	694.38
1943.628	715.38
1947.845	710.38
1952.058	703.38
1956.267	697.38
1960.472	684.38
1964.673	686.38
1968.87	678.38
1973.063	656.38
1977.252	662.38
1981.438	661.38
1985.619	659.38
1989.797	651.38
1993.971	661.38
1998.14	662.38
2002.306	670.38
2006.469	682.38
2010.627	675.38
2014.781	684.38
2018.932	683.38
2023.078	688.38
2027.221	669.38
2031.36	676.38
2035.495	664.38
2039.627	664.38
2043.754	660.38
2047.878	653.38
2051.998	656.38
2056.114	654.38
2060.226	663.38
2064.334	667.38
2068.439	658.38
2072.54	657.38
2076.637	668.38
2080.73	669.38
2084.82	668.38
2088.906	667.38
2092.988	679.38
2097.066	662.38
2101.14	670.38
2105.211	657.38
2109.278	657.38
2113.342	652.38
2117.401	646.38
2121.457	642.38
2125.509	646.38
2129.558	637.38
2133.602	638.38
2137.643	642.38
2141.681	644.38
2145.714	635.38
2149.744	630.38
2153.77	621.38
2157.793	633.38
2161.812	619.38
2165.827	609.38
2169.838	607.38
2173.846	595.38
2177.851	588.38
2181.851	590.38
2185.848	580.38
2189.841	565.38
2193.831	571.38
2197.817	565.38
2201.799	558.38
2205.778	547.38
2209.753	544.38
2213.725	546.38
2217.693	556.38
2221.657	543.38
2225.618	545.38
2229.575	543.38
2233.529	548.38
2237.479	547.38
2241.425	533.38
2245.368	527.38
2249.307	520.38
2253.243	524.38
2257.175	515.38
2261.104	515.38
2265.029	492.38
2268.95	493.38
2272.868	484.38
2276.783	490.38
2280.694	482.38
2284.601	484.38
2288.505	482.38
2292.405	468.38
2296.302	463.38
2300.195	452.38
2304.085	449.38
2307.971	438.38
2311.854	445.38
2315.734	433.38
2319.609	421.38
2323.482	409.38
2327.351	410.38
2331.216	413.38
2335.078	403.38
2338.937	404.38
2342.792	390.38
2346.643	394.38
2350.492	396.38
2354.336	397.38
2358.178	406.38
2362.015	398.38
2365.85	391.38
2369.681	399.38
2373.508	397.38
2377.333	399.38
2381.153	398.38
2384.971	401.38
2388.785	400.38
2392.595	397.38
2396.402	399.38
2400.206	393.38
2404.007	397.38
2407.804	393.38
2411.597	393.38
2415.388	396.38
2419.174	391.38
2422.958	388.38
2426.738	381.38
2430.515	388.38
2434.289	385.38
2438.059	383.38
2441.825	383.38
2445.589	377.38
2449.349	373.38
2453.106	377.38
2456.859	369.38
2460.61	363.38
2464.356	367.38
2468.1	369.38
2471.84	370.38
2475.577	357.38
2479.311	358.38
2483.041	353.38
2486.768	355.38
2490.492	359.38
2494.213	356.38
2497.93	361.38
2501.644	357.38
2505.355	362.38
2509.062	349.38
2512.766	357.38
2516.467	367.38
2520.165	353.38
2523.859	353.38
2527.551	345.38
2531.239	342.38
2534.923	338.38
2538.605	333.38
2542.283	335.38
2545.958	336.38
2549.63	342.38
2553.299	337.38
2556.964	334.38
2560.626	328.38
2564.285	330.38
2567.941	331.38
2571.594	307.38
2575.243	319.38
2578.89	321.38
2582.533	319.38
2586.173	317.38
2589.809	307.38
2593.443	311.38
2597.073	306.38
2600.701	305.38
2604.325	301.38
2607.946	297.38
2611.564	296.38
2615.178	297.38
2618.79	300.38
2622.398	305.38
2626.004	306.38
2629.606	296.38
2633.205	286.38
2636.801	292.38
2640.394	289.38
2643.983	287.38
2647.57	284.38
2651.153	281.38
2654.734	278.38
2658.311	282.38
2661.885	278.38
2665.456	264.38
2669.025	272.38
2672.589	275.38
2676.151	272.38
2679.71	272.38
2683.266	265.38
2686.819	257.38
2690.368	254.38
2693.915	258.38
2697.458	249.38
2700.999	255.38
2704.536	246.38
2708.071	250.38
2711.602	243.38
2715.13	244.38
2718.656	247.38
2722.178	249.38
2725.697	248.38
2729.214	245.38
2732.727	248.38
2736.237	251.38
2739.744	252.38
2743.249	247.38
2746.75	249.38
2750.248	248.38
2753.743	253.38
2757.236	253.38
2760.725	249.38
2764.211	240.38
2767.695	237.38
2771.175	234.38
2774.652	235.38
2778.127	233.38
2781.598	233.38
2785.067	235.38
2788.532	234.38
2791.995	230.38
2795.455	230.38
2798.911	236.38
2802.365	234.38
2805.816	241.38
2809.264	236.38
2812.709	240.38
2816.151	241.38
2819.59	238.38
2823.026	240.38
2826.46	246.38
2829.89	247.38
2833.318	245.38
2836.742	247.38
2840.164	240.38
2843.583	241.38
2846.999	244.38
2850.412	246.38
2853.822	258.38
2857.229	244.38
2860.634	254.38
2864.035	252.38
2867.434	263.38
2870.83	264.38
2874.223	263.38
2877.613	272.38
2881	263.38
2884.385	261.38
2887.766	270.38
2891.145	266.38
2894.521	272.38
2897.894	270.38
2901.264	266.38
2904.631	262.38
2907.996	267.38
2911.358	271.38
2914.717	272.38
2918.073	280.38
2921.426	282.38
2924.777	280.38
2928.124	292.38
2931.469	296.38
2934.811	302.38
2938.15	300.38
2941.487	312.38
2944.821	316.38
2948.152	320.38
2951.48	318.38
2954.805	324.38
2958.128	329.38
2961.447	329.38
2964.765	326.38
2968.079	332.38
2971.39	339.38
2974.699	353.38
2978.005	356.38
2981.308	355.38
2984.609	368.38
2987.907	382.38
2991.202	380.38
2994.494	394.38
2997.784	403.38
3001.07	422.38
3004.355	420.38
3007.636	430.38
3010.915	440.38
3014.191	443.38
3017.464	452.38
3020.734	465.38
3024.002	470.38
3027.267	474.38
3030.53	483.38
3033.789	492.38
3037.046	504.38
3040.301	511.38
3043.552	515.38
3046.801	536.38
3050.048	537.38
3053.291	556.38
3056.532	576.38
3059.771	584.38
3063.006	609.38
3066.239	628.38
3069.469	645.38
3072.697	661.38
3075.922	678.38
3079.144	677.38
3082.364	698.38
3085.581	714.38
3088.795	728.38
3092.007	756.38
3095.216	761.38
3098.423	778.38
3101.627	792.38
3104.828	816.38
3108.026	832.38
3111.222	849.38
3114.416	866.38
3117.607	871.38
3120.795	895.38
3123.98	923.38
3127.163	941.38
3130.344	955.38
3133.521	984.38
3136.696	998.38
3139.869	1021.38
3143.039	1034.38
3146.206	1049.38
3149.371	1058.38
3152.533	1082.38
3155.693	1095.38
3158.85	1094.38
3162.005	1115.38
3165.157	1107.38
3168.306	1105.38
3171.453	1119.38
3174.597	1128.38
3177.739	1123.38
3180.878	1119.38
3184.014	1127.38
3187.149	1130.38
3190.28	1122.38
3193.409	1147.38
3196.536	1158.38
3199.659	1147.38
3202.781	1144.38
3205.9	1144.38
3209.016	1160.38
3212.13	1143.38
3215.241	1148.38
3218.35	1157.38
3221.456	1136.38
3224.56	1125.38
3227.661	1122.38
3230.76	1123.38
3233.856	1093.38
3236.95	1095.38
3240.041	1073.38
3243.13	1083.38
3246.216	1069.38
3249.3	1063.38
3252.382	1052.38
3255.46	1041.38
3258.537	1032.38
3261.611	1023.38
3264.682	1028.38
3267.751	1040.38
3270.818	1027.38
3273.882	1031.38
3276.943	1021.38
3280.002	1004.38
3283.059	997.38
3286.113	986.38
3289.165	978.38
3292.214	964.38
3295.261	959.38
3298.306	930.38
3301.348	918.38
3304.387	909.38
3307.425	890.38
3310.459	892.38
3313.492	876.38
3316.521	860.38
3319.549	857.38
3322.574	843.38
3325.597	853.38
3328.617	830.38
3331.635	837.38
3334.65	815.38
3337.663	819.38
3340.674	823.38
3343.682	818.38
3346.688	809.38
3349.691	816.38
3352.692	818.38
3355.691	812.38
3358.687	803.38
3361.681	792.38
3364.673	774.38
3367.662	776.38
3370.649	775.38
3373.633	741.38
3376.615	736.38
3379.595	735.38
3382.572	723.38
3385.547	728.38
3388.52	705.38
3391.49	698.38
3394.458	685.38
3397.424	688.38
3400.387	684.38
3403.348	675.38
3406.307	660.38
3409.263	658.38
3412.217	652.38
3415.168	642.38
3418.118	639.38
3421.065	630.38
3424.009	621.38
3426.951	617.38
3429.891	601.38
3432.829	596.38
3435.764	583.38
3438.697	578.38
3441.628	559.38
3444.557	542.38
3447.483	540.38
3450.407	524.38
3453.328	518.38
3456.247	488.38
3459.164	473.38
3462.079	473.38
3464.991	459.38
3467.902	442.38
3470.809	434.38
3473.715	422.38
3476.618	406.38
3479.519	402.38
3482.418	393.38
3485.315	384.38
3488.209	368.38
3491.101	366.38
3493.99	355.38
3496.878	338.38
3499.763	333.38
3502.646	324.38
3505.527	314.38
3508.405	300.38
3511.281	286.38
3514.155	285.38
3517.027	274.38
3519.897	262.38
3522.764	250.38
3525.629	241.38
3528.492	230.38
3531.352	216.38
3534.211	207.38
3537.067	198.38
3539.921	186.38
3542.773	179.38
3545.622	170.38
3548.469	162.38
3551.315	149.38
3554.157	148.38
3556.998	144.38
3559.837	128.38
3562.673	132.38
3565.507	120.38
3568.339	117.38
3571.169	105.38
3573.996	108.38
3576.822	99.38
3579.645	105.38
3582.466	99.38
3585.285	86.38
3588.101	73.38
3590.916	73.38
3593.728	67.38
3596.538	60.38
3599.346	60.38
3602.152	54.38
3604.956	51.38
3607.757	45.38
3610.556	38.38
3613.354	37.38
3616.149	39.38
3618.942	26.38
3621.732	34.38
3624.521	25.38
3627.307	22.38
3630.092	19.38
3632.874	12.38
3635.654	16.38
3638.432	12.38
3641.208	12.38
3643.982	9.38
3646.753	2.38
3649.523	2.38
3652.29	0.38
3655.055	-1.62
3657.818	-5.62
3660.579	-8.62
3663.338	-10.62
3666.095	-9.62
3668.849	-13.62
3671.602	-14.62
3674.352	-19.62
3677.101	-20.62
3679.847	-26.62
3682.591	-24.62
3685.333	-27.62
3688.073	-31.62
3690.811	-29.62
3693.547	-34.62
3696.281	-34.62
3699.013	-33.62
3701.742	-37.62
3704.47	-36.62
3707.195	-36.62
3709.919	-41.62
3712.64	-41.62
3715.359	-42.62
3718.076	-40.62
3720.792	-41.62
3723.505	-45.62
3726.216	-39.62
3728.925	-50.62
3731.632	-46.62
3734.336	-48.62
3737.039	-47.62
3739.74	-49.62
3742.439	-45.62
3745.136	-45.62
3747.83	-44.62
3750.523	-50.62
3753.213	-47.62
3755.902	-50.62
3758.589	-49.62
3761.273	-52.62
3763.956	-51.62
3766.636	-51.62
3769.315	-54.62
3771.991	-54.62
3774.665	-52.62
3777.338	-54.62
3780.008	-55.62
3782.677	-56.62
3785.343	-54.62
3788.007	-53.62
3790.67	-56.62
3793.33	-56.62
3795.989	-55.62
3798.645	-56.62
3801.299	-58.62
3803.952	-58.62
3806.602	-59.62
3809.251	-58.62
3811.897	-57.62
3814.542	-59.62
3817.184	-56.62
3819.825	-52.62
3822.463	-55.62
3825.1	-56.62
3827.735	-54.62
3830.367	-54.62
3832.998	-57.62
3835.627	-57.62
3838.253	-56.62
3840.878	-63.62
3843.501	-56.62
3846.122	-58.62
3848.741	-60.62
3851.358	-62.62
3853.973	-58.62
3856.586	-59.62
3859.197	-62.62
3861.806	-62.62
3864.414	-64.62
3867.019	-60.62
3869.622	-64.62
3872.224	-64.62
3874.823	-59.62
3877.421	-62.62
3880.016	-58.62
3882.61	-54.62
3885.202	-60.62
3887.792	-55.62
3890.38	-56.62
3892.966	-59.62
3895.55	-60.62
3898.132	-62.62
3900.713	-63.62
3903.291	-64.62
3905.868	-62.62
3908.442	-61.62
3911.015	-65.62
3913.586	-62.62
3916.155	-65.62
3918.722	-61.62
3921.287	-65.62
3923.85	-66.62
3926.411	-66.62
3928.971	-65.62
3931.528	-67.62
3934.084	-70.62
3936.638	-70.62
3939.19	-65.62
3941.74	-67.62
3944.288	-66.62
3946.834	-66.62
3949.378	-70.62
3951.921	-68.62
3954.462	-69.62
3957	-65.62
3959.537	-68.62
3962.072	-68.62
3964.606	-64.62
3967.137	-65.62
3969.667	-67.62
3972.194	-69.62
3974.72	-64.62
3977.244	-65.62
3979.766	-59.62
3982.286	-62.62
3984.805	-65.62
3987.321	-65.62
3989.836	-65.62
3992.349	-65.62
3994.86	-65.62
3997.369	-66.62
3999.877	-66.62
4002.382	-64.62
4004.886	-64.62
4007.388	-67.62
4009.888	-64.62
4012.386	-63.62
4014.883	-67.62
4017.377	-66.62
4019.87	-68.62
4022.361	-66.62
4024.85	-65.62
4027.338	-67.62
4029.823	-62.62
4032.307	-65.62
4034.789	-66.62
4037.269	-67.62
4039.747	-64.62
4042.224	-65.62
4044.699	-67.62
4047.172	-64.62
4049.643	-63.62
4052.112	-62.62
4054.58	-65.62
4057.046	-62.62
4059.51	-63.62
4061.972	-66.62
4064.432	-65.62
4066.891	-65.62
4069.348	-63.62
4071.803	-65.62
4074.256	-64.62
4076.708	-66.62
4079.158	-66.62
4081.606	-68.62
4084.052	-64.62
4086.497	-65.62
4088.939	-69.62
4091.38	-66.62
4093.819	-66.62
4096.257	-69.62
4098.693	-70.62
4101.127	-71.62
4103.559	-67.62
4105.989	-26.62
4108.418	-17.62
4110.845	-18.62
4113.27	-16.62
4115.694	-12.62
4118.115	-1.62
4120.535	-64.62
4122.954	-67.62
4125.37	-66.62
4127.785	-67.62
4130.198	-65.62
4132.609	-62.62
4135.019	-69.62
4137.427	-68.62
4139.833	-65.62
4142.237	-68.62
