Data from 1CFU1_B_ramanshift_RamanShift_12-13-12-671.txt Node
Date: Sun Jan 01 12:13:12 IST 2017
User: aro
Spectrometer: QEPB0276
Trigger mode: 0
Integration Time (sec): 5.000000E0
Scans to average: 1
Electric dark correction enabled: true
Nonlinearity correction enabled: false
Boxcar width: 0
XAxis mode: Raman Shifts
Number of Pixels in Spectrum: 1044
>>>>>Begin Spectral Data<<<<<
160.701	6.5
166.742	23.5
172.777	61.5
178.805	190.5
184.826	570.5
190.841	1388.5
196.849	2619.5
202.85	3785.5
208.845	4412.5
214.833	4439.5
220.815	4242.5
226.789	4110.5
232.758	4017.5
238.719	3906.5
244.674	3775.5
250.623	3610.5
256.565	3480.5
262.5	3317.5
268.429	3181.5
274.351	3055.5
280.267	2932.5
286.176	2816.5
292.079	2747.5
297.975	2672.5
303.865	2586.5
309.748	2510.5
315.625	2440.5
321.495	2398.5
327.359	2346.5
333.217	2319.5
339.068	2293.5
344.912	2279.5
350.751	2276.5
356.583	2245.5
362.408	2253.5
368.227	2240.5
374.04	2234.5
379.847	2260.5
385.647	2266.5
391.44	2258.5
397.228	2280.5
403.009	2302.5
408.784	2287.5
414.553	2307.5
420.315	2310.5
426.071	2316.5
431.821	2323.5
437.565	2313.5
443.302	2298.5
449.033	2287.5
454.758	2296.5
460.477	2282.5
466.189	2304.5
471.896	2269.5
477.596	2267.5
483.29	2257.5
488.978	2248.5
494.66	2247.5
500.335	2205.5
506.005	2186.5
511.668	2152.5
517.325	2109.5
522.977	2102.5
528.622	2062.5
534.261	2014.5
539.894	1994.5
545.521	2022.5
551.141	2010.5
556.756	1999.5
562.365	1965.5
567.968	1966.5
573.565	1955.5
579.155	1945.5
584.74	1932.5
590.319	1911.5
595.892	1906.5
601.459	1878.5
607.02	1884.5
612.575	1864.5
618.124	1852.5
623.667	1839.5
629.204	1805.5
634.735	1806.5
640.261	1800.5
645.781	1781.5
651.294	1765.5
656.802	1768.5
662.304	1764.5
667.8	1760.5
673.29	1739.5
678.775	1726.5
684.254	1715.5
689.726	1741.5
695.193	1704.5
700.655	1697.5
706.11	1700.5
711.56	1671.5
717.004	1672.5
722.442	1659.5
727.874	1661.5
733.301	1650.5
738.722	1627.5
744.137	1631.5
749.547	1632.5
754.951	1622.5
760.349	1623.5
765.741	1622.5
771.128	1621.5
776.509	1617.5
781.885	1618.5
787.254	1616.5
792.618	1609.5
797.977	1610.5
803.33	1590.5
808.677	1573.5
814.019	1576.5
819.355	1559.5
824.686	1525.5
830.011	1530.5
835.33	1516.5
840.644	1511.5
845.952	1514.5
851.255	1508.5
856.552	1487.5
861.844	1504.5
867.13	1485.5
872.41	1472.5
877.686	1472.5
882.955	1452.5
888.219	1441.5
893.478	1419.5
898.731	1395.5
903.979	1384.5
909.221	1365.5
914.458	1348.5
919.69	1352.5
924.916	1346.5
930.136	1343.5
935.351	1360.5
940.561	1335.5
945.766	1340.5
950.965	1337.5
956.158	1326.5
961.347	1328.5
966.529	1308.5
971.707	1271.5
976.879	1277.5
982.046	1243.5
987.208	1244.5
992.364	1250.5
997.515	1241.5
1002.66	1249.5
1007.801	1267.5
1012.936	1272.5
1018.066	1273.5
1023.19	1289.5
1028.309	1299.5
1033.423	1281.5
1038.532	1291.5
1043.636	1286.5
1048.734	1275.5
1053.827	1264.5
1058.915	1245.5
1063.998	1241.5
1069.075	1244.5
1074.147	1239.5
1079.214	1247.5
1084.276	1239.5
1089.333	1258.5
1094.385	1251.5
1099.431	1269.5
1104.472	1275.5
1109.509	1277.5
1114.54	1272.5
1119.565	1250.5
1124.586	1244.5
1129.602	1224.5
1134.613	1216.5
1139.618	1208.5
1144.619	1207.5
1149.614	1214.5
1154.604	1228.5
1159.589	1220.5
1164.57	1233.5
1169.545	1231.5
1174.515	1239.5
1179.48	1248.5
1184.44	1235.5
1189.395	1224.5
1194.345	1209.5
1199.29	1219.5
1204.23	1205.5
1209.165	1210.5
1214.095	1205.5
1219.021	1221.5
1223.941	1221.5
1228.856	1238.5
1233.766	1252.5
1238.672	1256.5
1243.572	1246.5
1248.467	1250.5
1253.358	1250.5
1258.244	1231.5
1263.124	1214.5
1268	1180.5
1272.871	1181.5
1277.737	1160.5
1282.599	1171.5
1287.455	1155.5
1292.306	1156.5
1297.153	1166.5
1301.995	1178.5
1306.832	1212.5
1311.664	1195.5
1316.491	1199.5
1321.314	1208.5
1326.132	1184.5
1330.945	1187.5
1335.753	1163.5
1340.556	1155.5
1345.354	1161.5
1350.148	1145.5
1354.937	1138.5
1359.722	1127.5
1364.501	1116.5
1369.276	1119.5
1374.046	1104.5
1378.811	1086.5
1383.572	1085.5
1388.327	1089.5
1393.079	1087.5
1397.825	1076.5
1402.567	1070.5
1407.304	1064.5
1412.036	1076.5
1416.764	1061.5
1421.487	1064.5
1426.205	1072.5
1430.919	1062.5
1435.628	1079.5
1440.333	1096.5
1445.032	1099.5
1449.727	1097.5
1454.418	1119.5
1459.104	1110.5
1463.785	1113.5
1468.462	1109.5
1473.134	1099.5
1477.802	1073.5
1482.465	1078.5
1487.123	1067.5
1491.777	1072.5
1496.426	1073.5
1501.071	1080.5
1505.711	1082.5
1510.347	1104.5
1514.978	1106.5
1519.604	1109.5
1524.226	1118.5
1528.844	1110.5
1533.457	1118.5
1538.065	1122.5
1542.669	1120.5
1547.269	1119.5
1551.864	1119.5
1556.454	1124.5
1561.041	1131.5
1565.622	1151.5
1570.199	1145.5
1574.772	1158.5
1579.34	1189.5
1583.904	1217.5
1588.464	1224.5
1593.019	1223.5
1597.569	1255.5
1602.115	1274.5
1606.657	1285.5
1611.195	1289.5
1615.728	1302.5
1620.256	1301.5
1624.78	1323.5
1629.3	1335.5
1633.816	1353.5
1638.327	1379.5
1642.834	1394.5
1647.336	1418.5
1651.834	1413.5
1656.328	1409.5
1660.817	1416.5
1665.302	1398.5
1669.783	1368.5
1674.259	1342.5
1678.732	1308.5
1683.199	1283.5
1687.663	1236.5
1692.122	1213.5
1696.577	1169.5
1701.028	1125.5
1705.474	1068.5
1709.917	1027.5
1714.355	993.5
1718.788	983.5
1723.218	972.5
1727.643	963.5
1732.064	955.5
1736.481	928.5
1740.893	912.5
1745.301	884.5
1749.705	858.5
1754.105	840.5
1758.501	833.5
1762.893	824.5
1767.28	801.5
1771.663	799.5
1776.042	787.5
1780.417	785.5
1784.787	786.5
1789.154	788.5
1793.516	794.5
1797.874	789.5
1802.228	786.5
1806.578	779.5
1810.924	767.5
1815.266	760.5
1819.603	744.5
1823.937	735.5
1828.266	719.5
1832.591	719.5
1836.913	708.5
1841.23	712.5
1845.543	711.5
1849.852	711.5
1854.156	715.5
1858.457	724.5
1862.754	731.5
1867.047	730.5
1871.335	731.5
1875.62	741.5
1879.9	736.5
1884.177	736.5
1888.449	732.5
1892.718	730.5
1896.982	723.5
1901.243	724.5
1905.499	731.5
1909.752	720.5
1914	716.5
1918.245	722.5
1922.485	721.5
1926.722	723.5
1930.954	721.5
1935.183	732.5
1939.408	727.5
1943.628	732.5
1947.845	731.5
1952.058	730.5
1956.267	720.5
1960.472	717.5
1964.673	715.5
1968.87	700.5
1973.063	696.5
1977.252	698.5
1981.438	690.5
1985.619	671.5
1989.797	684.5
1993.971	690.5
1998.14	691.5
2002.306	689.5
2006.469	704.5
2010.627	705.5
2014.781	702.5
2018.932	707.5
2023.078	712.5
2027.221	711.5
2031.36	707.5
2035.495	696.5
2039.627	697.5
2043.754	683.5
2047.878	679.5
2051.998	678.5
2056.114	680.5
2060.226	680.5
2064.334	686.5
2068.439	688.5
2072.54	688.5
2076.637	698.5
2080.73	697.5
2084.82	689.5
2088.906	698.5
2092.988	689.5
2097.066	691.5
2101.14	688.5
2105.211	699.5
2109.278	681.5
2113.342	674.5
2117.401	672.5
2121.457	666.5
2125.509	670.5
2129.558	681.5
2133.602	662.5
2137.643	667.5
2141.681	656.5
2145.714	656.5
2149.744	651.5
2153.77	649.5
2157.793	651.5
2161.812	640.5
2165.827	634.5
2169.838	637.5
2173.846	641.5
2177.851	615.5
2181.851	594.5
2185.848	602.5
2189.841	586.5
2193.831	598.5
2197.817	578.5
2201.799	576.5
2205.778	578.5
2209.753	571.5
2213.725	583.5
2217.693	580.5
2221.657	571.5
2225.618	575.5
2229.575	579.5
2233.529	581.5
2237.479	566.5
2241.425	566.5
2245.368	561.5
2249.307	551.5
2253.243	537.5
2257.175	533.5
2261.104	536.5
2265.029	531.5
2268.95	516.5
2272.868	509.5
2276.783	510.5
2280.694	507.5
2284.601	504.5
2288.505	498.5
2292.405	489.5
2296.302	486.5
2300.195	487.5
2304.085	476.5
2307.971	470.5
2311.854	453.5
2315.734	454.5
2319.609	439.5
2323.482	444.5
2327.351	438.5
2331.216	427.5
2335.078	436.5
2338.937	423.5
2342.792	423.5
2346.643	418.5
2350.492	421.5
2354.336	414.5
2358.178	417.5
2362.015	425.5
2365.85	411.5
2369.681	419.5
2373.508	418.5
2377.333	426.5
2381.153	420.5
2384.971	430.5
2388.785	427.5
2392.595	416.5
2396.402	407.5
2400.206	415.5
2404.007	416.5
2407.804	423.5
2411.597	418.5
2415.388	422.5
2419.174	403.5
2422.958	403.5
2426.738	411.5
2430.515	403.5
2434.289	397.5
2438.059	403.5
2441.825	400.5
2445.589	403.5
2449.349	398.5
2453.106	394.5
2456.859	393.5
2460.61	380.5
2464.356	378.5
2468.1	380.5
2471.84	376.5
2475.577	376.5
2479.311	377.5
2483.041	374.5
2486.768	364.5
2490.492	371.5
2494.213	365.5
2497.93	376.5
2501.644	369.5
2505.355	379.5
2509.062	381.5
2512.766	380.5
2516.467	372.5
2520.165	371.5
2523.859	371.5
2527.551	367.5
2531.239	360.5
2534.923	355.5
2538.605	356.5
2542.283	350.5
2545.958	344.5
2549.63	352.5
2553.299	359.5
2556.964	343.5
2560.626	341.5
2564.285	346.5
2567.941	333.5
2571.594	338.5
2575.243	337.5
2578.89	330.5
2582.533	329.5
2586.173	327.5
2589.809	332.5
2593.443	322.5
2597.073	318.5
2600.701	319.5
2604.325	321.5
2607.946	320.5
2611.564	326.5
2615.178	317.5
2618.79	320.5
2622.398	316.5
2626.004	308.5
2629.606	305.5
2633.205	311.5
2636.801	304.5
2640.394	311.5
2643.983	298.5
2647.57	300.5
2651.153	301.5
2654.734	287.5
2658.311	294.5
2661.885	286.5
2665.456	287.5
2669.025	283.5
2672.589	286.5
2676.151	280.5
2679.71	279.5
2683.266	282.5
2686.819	276.5
2690.368	274.5
2693.915	270.5
2697.458	273.5
2700.999	264.5
2704.536	260.5
2708.071	268.5
2711.602	256.5
2715.13	252.5
2718.656	262.5
2722.178	262.5
2725.697	255.5
2729.214	253.5
2732.727	257.5
2736.237	258.5
2739.744	268.5
2743.249	253.5
2746.75	262.5
2750.248	253.5
2753.743	261.5
2757.236	247.5
2760.725	253.5
2764.211	257.5
2767.695	248.5
2771.175	253.5
2774.652	250.5
2778.127	244.5
2781.598	244.5
2785.067	240.5
2788.532	243.5
2791.995	243.5
2795.455	250.5
2798.911	242.5
2802.365	245.5
2805.816	244.5
2809.264	250.5
2812.709	240.5
2816.151	251.5
2819.59	251.5
2823.026	249.5
2826.46	252.5
2829.89	258.5
2833.318	242.5
2836.742	256.5
2840.164	259.5
2843.583	261.5
2846.999	259.5
2850.412	261.5
2853.822	263.5
2857.229	265.5
2860.634	263.5
2864.035	262.5
2867.434	272.5
2870.83	276.5
2874.223	278.5
2877.613	274.5
2881	274.5
2884.385	276.5
2887.766	276.5
2891.145	276.5
2894.521	279.5
2897.894	278.5
2901.264	277.5
2904.631	276.5
2907.996	278.5
2911.358	285.5
2914.717	284.5
2918.073	289.5
2921.426	290.5
2924.777	299.5
2928.124	293.5
2931.469	303.5
2934.811	303.5
2938.15	306.5
2941.487	314.5
2944.821	307.5
2948.152	329.5
2951.48	334.5
2954.805	333.5
2958.128	337.5
2961.447	332.5
2964.765	330.5
2968.079	340.5
2971.39	343.5
2974.699	360.5
2978.005	363.5
2981.308	365.5
2984.609	376.5
2987.907	383.5
2991.202	400.5
2994.494	402.5
2997.784	423.5
3001.07	425.5
3004.355	440.5
3007.636	439.5
3010.915	452.5
3014.191	456.5
3017.464	463.5
3020.734	473.5
3024.002	475.5
3027.267	478.5
3030.53	487.5
3033.789	508.5
3037.046	501.5
3040.301	523.5
3043.552	519.5
3046.801	540.5
3050.048	545.5
3053.291	571.5
3056.532	576.5
3059.771	605.5
3063.006	623.5
3066.239	639.5
3069.469	644.5
3072.697	653.5
3075.922	669.5
3079.144	696.5
3082.364	707.5
3085.581	735.5
3088.795	741.5
3092.007	764.5
3095.216	771.5
3098.423	787.5
3101.627	812.5
3104.828	832.5
3108.026	837.5
3111.222	860.5
3114.416	872.5
3117.607	894.5
3120.795	907.5
3123.98	930.5
3127.163	955.5
3130.344	968.5
3133.521	981.5
3136.696	1024.5
3139.869	1036.5
3143.039	1045.5
3146.206	1059.5
3149.371	1082.5
3152.533	1078.5
3155.693	1098.5
3158.85	1121.5
3162.005	1126.5
3165.157	1125.5
3168.306	1151.5
3171.453	1143.5
3174.597	1142.5
3177.739	1141.5
3180.878	1144.5
3184.014	1147.5
3187.149	1155.5
3190.28	1145.5
3193.409	1163.5
3196.536	1151.5
3199.659	1160.5
3202.781	1170.5
3205.9	1168.5
3209.016	1172.5
3212.13	1172.5
3215.241	1165.5
3218.35	1170.5
3221.456	1149.5
3224.56	1141.5
3227.661	1133.5
3230.76	1129.5
3233.856	1114.5
3236.95	1128.5
3240.041	1090.5
3243.13	1088.5
3246.216	1081.5
3249.3	1063.5
3252.382	1080.5
3255.46	1064.5
3258.537	1053.5
3261.611	1051.5
3264.682	1037.5
3267.751	1049.5
3270.818	1055.5
3273.882	1054.5
3276.943	1034.5
3280.002	1026.5
3283.059	1016.5
3286.113	1004.5
3289.165	994.5
3292.214	977.5
3295.261	971.5
3298.306	952.5
3301.348	941.5
3304.387	933.5
3307.425	909.5
3310.459	891.5
3313.492	891.5
3316.521	880.5
3319.549	875.5
3322.574	862.5
3325.597	864.5
3328.617	851.5
3331.635	855.5
3334.65	824.5
3337.663	845.5
3340.674	825.5
3343.682	832.5
3346.688	837.5
3349.691	816.5
3352.692	825.5
3355.691	813.5
3358.687	811.5
3361.681	808.5
3364.673	797.5
3367.662	776.5
3370.649	788.5
3373.633	771.5
3376.615	762.5
3379.595	752.5
3382.572	738.5
3385.547	728.5
3388.52	726.5
3391.49	705.5
3394.458	704.5
3397.424	709.5
3400.387	686.5
3403.348	681.5
3406.307	671.5
3409.263	670.5
3412.217	652.5
3415.168	649.5
3418.118	645.5
3421.065	641.5
3424.009	632.5
3426.951	624.5
3429.891	610.5
3432.829	610.5
3435.764	594.5
3438.697	588.5
3441.628	566.5
3444.557	554.5
3447.483	541.5
3450.407	527.5
3453.328	520.5
3456.247	502.5
3459.164	490.5
3462.079	477.5
3464.991	461.5
3467.902	459.5
3470.809	437.5
3473.715	431.5
3476.618	425.5
3479.519	410.5
3482.418	395.5
3485.315	387.5
3488.209	377.5
3491.101	366.5
3493.99	361.5
3496.878	344.5
3499.763	340.5
3502.646	327.5
3505.527	328.5
3508.405	303.5
3511.281	294.5
3514.155	287.5
3517.027	279.5
3519.897	265.5
3522.764	250.5
3525.629	241.5
3528.492	227.5
3531.352	220.5
3534.211	211.5
3537.067	201.5
3539.921	192.5
3542.773	185.5
3545.622	175.5
3548.469	165.5
3551.315	156.5
3554.157	151.5
3556.998	137.5
3559.837	135.5
3562.673	127.5
3565.507	127.5
3568.339	122.5
3571.169	109.5
3573.996	104.5
3576.822	110.5
3579.645	102.5
3582.466	90.5
3585.285	82.5
3588.101	76.5
3590.916	69.5
3593.728	61.5
3596.538	60.5
3599.346	51.5
3602.152	52.5
3604.956	47.5
3607.757	39.5
3610.556	41.5
3613.354	39.5
3616.149	34.5
3618.942	30.5
3621.732	31.5
3624.521	22.5
3627.307	20.5
3630.092	17.5
3632.874	15.5
3635.654	10.5
3638.432	8.5
3641.208	5.5
3643.982	9.5
3646.753	8.5
3649.523	5.5
3652.29	-1.5
3655.055	-3.5
3657.818	-8.5
3660.579	-5.5
3663.338	-12.5
3666.095	-9.5
3668.849	-14.5
3671.602	-15.5
3674.352	-18.5
3677.101	-20.5
3679.847	-25.5
3682.591	-20.5
3685.333	-23.5
3688.073	-27.5
3690.811	-30.5
3693.547	-33.5
3696.281	-34.5
3699.013	-30.5
3701.742	-34.5
3704.47	-35.5
3707.195	-39.5
3709.919	-38.5
3712.64	-39.5
3715.359	-40.5
3718.076	-41.5
3720.792	-43.5
3723.505	-42.5
3726.216	-40.5
3728.925	-45.5
3731.632	-45.5
3734.336	-46.5
3737.039	-45.5
3739.74	-47.5
3742.439	-45.5
3745.136	-48.5
3747.83	-43.5
3750.523	-47.5
3753.213	-46.5
3755.902	-46.5
3758.589	-49.5
3761.273	-48.5
3763.956	-50.5
3766.636	-52.5
3769.315	-54.5
3771.991	-54.5
3774.665	-54.5
3777.338	-54.5
3780.008	-54.5
3782.677	-59.5
3785.343	-52.5
3788.007	-52.5
3790.67	-50.5
3793.33	-58.5
3795.989	-54.5
3798.645	-55.5
3801.299	-57.5
3803.952	-58.5
3806.602	-59.5
3809.251	-59.5
3811.897	-54.5
3814.542	-58.5
3817.184	-56.5
3819.825	-52.5
3822.463	-58.5
3825.1	-59.5
3827.735	-54.5
3830.367	-57.5
3832.998	-58.5
3835.627	-57.5
3838.253	-54.5
3840.878	-62.5
3843.501	-59.5
3846.122	-57.5
3848.741	-58.5
3851.358	-65.5
3853.973	-58.5
3856.586	-59.5
3859.197	-63.5
3861.806	-65.5
3864.414	-62.5
3867.019	-61.5
3869.622	-62.5
3872.224	-62.5
3874.823	-62.5
3877.421	-65.5
3880.016	-58.5
3882.61	-56.5
3885.202	-57.5
3887.792	-55.5
3890.38	-58.5
3892.966	-60.5
3895.55	-61.5
3898.132	-60.5
3900.713	-61.5
3903.291	-63.5
3905.868	-64.5
3908.442	-65.5
3911.015	-63.5
3913.586	-61.5
3916.155	-67.5
3918.722	-63.5
3921.287	-63.5
3923.85	-68.5
3926.411	-64.5
3928.971	-67.5
3931.528	-68.5
3934.084	-71.5
3936.638	-70.5
3939.19	-68.5
3941.74	-68.5
3944.288	-68.5
3946.834	-68.5
3949.378	-70.5
3951.921	-68.5
3954.462	-68.5
3957	-65.5
3959.537	-66.5
3962.072	-67.5
3964.606	-63.5
3967.137	-66.5
3969.667	-67.5
3972.194	-66.5
3974.72	-64.5
3977.244	-62.5
3979.766	-64.5
3982.286	-61.5
3984.805	-65.5
3987.321	-62.5
3989.836	-66.5
3992.349	-65.5
3994.86	-64.5
3997.369	-70.5
3999.877	-67.5
4002.382	-66.5
4004.886	-64.5
4007.388	-66.5
4009.888	-68.5
4012.386	-64.5
4014.883	-69.5
4017.377	-67.5
4019.87	-69.5
4022.361	-66.5
4024.85	-67.5
4027.338	-67.5
4029.823	-65.5
4032.307	-68.5
4034.789	-68.5
4037.269	-67.5
4039.747	-66.5
4042.224	-69.5
4044.699	-68.5
4047.172	-66.5
4049.643	-65.5
4052.112	-63.5
4054.58	-67.5
4057.046	-65.5
4059.51	-67.5
4061.972	-66.5
4064.432	-70.5
4066.891	-66.5
4069.348	-67.5
4071.803	-68.5
4074.256	-69.5
4076.708	-67.5
4079.158	-65.5
4081.606	-67.5
4084.052	-67.5
4086.497	-67.5
4088.939	-69.5
4091.38	-69.5
4093.819	-69.5
4096.257	-72.5
4098.693	-72.5
4101.127	-72.5
4103.559	-72.5
4105.989	-25.5
4108.418	-20.5
4110.845	-22.5
4113.27	-22.5
4115.694	-12.5
4118.115	-10.5
4120.535	-70.5
4122.954	-72.5
4125.37	-69.5
4127.785	-69.5
4130.198	-68.5
4132.609	-65.5
4135.019	-73.5
4137.427	-71.5
4139.833	-68.5
4142.237	-68.5
