Data from 1CFU3_B_ramanshift_RamanShift_12-15-07-667.txt Node
Date: Sun Jan 01 12:15:07 IST 2017
User: aro
Spectrometer: QEPB0276
Trigger mode: 0
Integration Time (sec): 5.000000E0
Scans to average: 1
Electric dark correction enabled: true
Nonlinearity correction enabled: false
Boxcar width: 0
XAxis mode: Raman Shifts
Number of Pixels in Spectrum: 1044
>>>>>Begin Spectral Data<<<<<
160.701	4.5
166.742	22.5
172.777	59.5
178.805	193.5
184.826	557.5
190.841	1391.5
196.849	2604.5
202.85	3767.5
208.845	4383.5
214.833	4422.5
220.815	4270.5
226.789	4099.5
232.758	4003.5
238.719	3909.5
244.674	3792.5
250.623	3648.5
256.565	3523.5
262.5	3342.5
268.429	3224.5
274.351	3075.5
280.267	2972.5
286.176	2890.5
292.079	2797.5
297.975	2694.5
303.865	2618.5
309.748	2570.5
315.625	2489.5
321.495	2441.5
327.359	2394.5
333.217	2369.5
339.068	2350.5
344.912	2329.5
350.751	2312.5
356.583	2325.5
362.408	2298.5
368.227	2296.5
374.04	2304.5
379.847	2311.5
385.647	2318.5
391.44	2331.5
397.228	2351.5
403.009	2357.5
408.784	2342.5
414.553	2360.5
420.315	2367.5
426.071	2384.5
431.821	2358.5
437.565	2372.5
443.302	2381.5
449.033	2351.5
454.758	2364.5
460.477	2341.5
466.189	2347.5
471.896	2336.5
477.596	2327.5
483.29	2332.5
488.978	2313.5
494.66	2287.5
500.335	2274.5
506.005	2259.5
511.668	2229.5
517.325	2197.5
522.977	2156.5
528.622	2140.5
534.261	2085.5
539.894	2093.5
545.521	2078.5
551.141	2053.5
556.756	2060.5
562.365	2056.5
567.968	2044.5
573.565	2012.5
579.155	2028.5
584.74	2006.5
590.319	1988.5
595.892	1999.5
601.459	1972.5
607.02	1969.5
612.575	1942.5
618.124	1928.5
623.667	1925.5
629.204	1915.5
634.735	1868.5
640.261	1885.5
645.781	1881.5
651.294	1848.5
656.802	1864.5
662.304	1843.5
667.8	1854.5
673.29	1831.5
678.775	1837.5
684.254	1816.5
689.726	1807.5
695.193	1809.5
700.655	1788.5
706.11	1776.5
711.56	1769.5
717.004	1769.5
722.442	1774.5
727.874	1727.5
733.301	1718.5
738.722	1719.5
744.137	1721.5
749.547	1726.5
754.951	1706.5
760.349	1716.5
765.741	1711.5
771.128	1727.5
776.509	1712.5
781.885	1711.5
787.254	1720.5
792.618	1720.5
797.977	1691.5
803.33	1688.5
808.677	1678.5
814.019	1687.5
819.355	1673.5
824.686	1636.5
830.011	1624.5
835.33	1634.5
840.644	1623.5
845.952	1601.5
851.255	1610.5
856.552	1607.5
861.844	1590.5
867.13	1593.5
872.41	1589.5
877.686	1586.5
882.955	1574.5
888.219	1556.5
893.478	1544.5
898.731	1503.5
903.979	1495.5
909.221	1492.5
914.458	1487.5
919.69	1464.5
924.916	1450.5
930.136	1470.5
935.351	1447.5
940.561	1454.5
945.766	1454.5
950.965	1454.5
956.158	1442.5
961.347	1428.5
966.529	1422.5
971.707	1396.5
976.879	1378.5
982.046	1361.5
987.208	1372.5
992.364	1367.5
997.515	1360.5
1002.66	1360.5
1007.801	1370.5
1012.936	1387.5
1018.066	1400.5
1023.19	1404.5
1028.309	1428.5
1033.423	1431.5
1038.532	1409.5
1043.636	1412.5
1048.734	1410.5
1053.827	1391.5
1058.915	1379.5
1063.998	1375.5
1069.075	1362.5
1074.147	1356.5
1079.214	1357.5
1084.276	1372.5
1089.333	1374.5
1094.385	1406.5
1099.431	1407.5
1104.472	1412.5
1109.509	1394.5
1114.54	1410.5
1119.565	1388.5
1124.586	1373.5
1129.602	1362.5
1134.613	1351.5
1139.618	1337.5
1144.619	1342.5
1149.614	1340.5
1154.604	1346.5
1159.589	1349.5
1164.57	1356.5
1169.545	1358.5
1174.515	1365.5
1179.48	1362.5
1184.44	1350.5
1189.395	1356.5
1194.345	1347.5
1199.29	1335.5
1204.23	1332.5
1209.165	1342.5
1214.095	1348.5
1219.021	1367.5
1223.941	1378.5
1228.856	1384.5
1233.766	1366.5
1238.672	1389.5
1243.572	1390.5
1248.467	1398.5
1253.358	1381.5
1258.244	1365.5
1263.124	1337.5
1268	1329.5
1272.871	1314.5
1277.737	1295.5
1282.599	1296.5
1287.455	1304.5
1292.306	1293.5
1297.153	1311.5
1301.995	1320.5
1306.832	1312.5
1311.664	1328.5
1316.491	1333.5
1321.314	1332.5
1326.132	1345.5
1330.945	1313.5
1335.753	1296.5
1340.556	1296.5
1345.354	1271.5
1350.148	1268.5
1354.937	1257.5
1359.722	1257.5
1364.501	1241.5
1369.276	1219.5
1374.046	1207.5
1378.811	1197.5
1383.572	1200.5
1388.327	1207.5
1393.079	1205.5
1397.825	1201.5
1402.567	1198.5
1407.304	1183.5
1412.036	1170.5
1416.764	1173.5
1421.487	1177.5
1426.205	1190.5
1430.919	1198.5
1435.628	1193.5
1440.333	1203.5
1445.032	1230.5
1449.727	1237.5
1454.418	1229.5
1459.104	1241.5
1463.785	1243.5
1468.462	1238.5
1473.134	1222.5
1477.802	1211.5
1482.465	1184.5
1487.123	1193.5
1491.777	1190.5
1496.426	1175.5
1501.071	1206.5
1505.711	1216.5
1510.347	1216.5
1514.978	1225.5
1519.604	1214.5
1524.226	1244.5
1528.844	1245.5
1533.457	1241.5
1538.065	1238.5
1542.669	1232.5
1547.269	1250.5
1551.864	1226.5
1556.454	1237.5
1561.041	1231.5
1565.622	1253.5
1570.199	1274.5
1574.772	1282.5
1579.34	1304.5
1583.904	1319.5
1588.464	1345.5
1593.019	1352.5
1597.569	1368.5
1602.115	1385.5
1606.657	1382.5
1611.195	1390.5
1615.728	1403.5
1620.256	1417.5
1624.78	1429.5
1629.3	1451.5
1633.816	1466.5
1638.327	1474.5
1642.834	1491.5
1647.336	1510.5
1651.834	1518.5
1656.328	1515.5
1660.817	1526.5
1665.302	1505.5
1669.783	1455.5
1674.259	1455.5
1678.732	1427.5
1683.199	1361.5
1687.663	1333.5
1692.122	1319.5
1696.577	1258.5
1701.028	1214.5
1705.474	1156.5
1709.917	1118.5
1714.355	1107.5
1718.788	1090.5
1723.218	1096.5
1727.643	1086.5
1732.064	1055.5
1736.481	1035.5
1740.893	1028.5
1745.301	1001.5
1749.705	978.5
1754.105	967.5
1758.501	944.5
1762.893	934.5
1767.28	914.5
1771.663	913.5
1776.042	899.5
1780.417	880.5
1784.787	897.5
1789.154	904.5
1793.516	891.5
1797.874	915.5
1802.228	896.5
1806.578	892.5
1810.924	877.5
1815.266	862.5
1819.603	847.5
1823.937	837.5
1828.266	829.5
1832.591	845.5
1836.913	837.5
1841.23	821.5
1845.543	815.5
1849.852	825.5
1854.156	825.5
1858.457	818.5
1862.754	829.5
1867.047	829.5
1871.335	835.5
1875.62	851.5
1879.9	848.5
1884.177	852.5
1888.449	838.5
1892.718	826.5
1896.982	829.5
1901.243	832.5
1905.499	826.5
1909.752	824.5
1914	821.5
1918.245	820.5
1922.485	827.5
1926.722	831.5
1930.954	827.5
1935.183	822.5
1939.408	841.5
1943.628	845.5
1947.845	833.5
1952.058	828.5
1956.267	829.5
1960.472	824.5
1964.673	813.5
1968.87	803.5
1973.063	797.5
1977.252	777.5
1981.438	812.5
1985.619	795.5
1989.797	772.5
1993.971	790.5
1998.14	801.5
2002.306	791.5
2006.469	794.5
2010.627	804.5
2014.781	800.5
2018.932	802.5
2023.078	792.5
2027.221	804.5
2031.36	801.5
2035.495	783.5
2039.627	786.5
2043.754	778.5
2047.878	769.5
2051.998	778.5
2056.114	763.5
2060.226	775.5
2064.334	781.5
2068.439	768.5
2072.54	777.5
2076.637	773.5
2080.73	779.5
2084.82	789.5
2088.906	793.5
2092.988	781.5
2097.066	787.5
2101.14	780.5
2105.211	781.5
2109.278	776.5
2113.342	759.5
2117.401	757.5
2121.457	753.5
2125.509	754.5
2129.558	751.5
2133.602	742.5
2137.643	741.5
2141.681	741.5
2145.714	745.5
2149.744	746.5
2153.77	737.5
2157.793	742.5
2161.812	728.5
2165.827	729.5
2169.838	713.5
2173.846	711.5
2177.851	708.5
2181.851	679.5
2185.848	677.5
2189.841	682.5
2193.831	657.5
2197.817	663.5
2201.799	658.5
2205.778	659.5
2209.753	656.5
2213.725	662.5
2217.693	654.5
2221.657	659.5
2225.618	662.5
2229.575	653.5
2233.529	659.5
2237.479	655.5
2241.425	638.5
2245.368	638.5
2249.307	629.5
2253.243	609.5
2257.175	617.5
2261.104	604.5
2265.029	596.5
2268.95	601.5
2272.868	582.5
2276.783	585.5
2280.694	577.5
2284.601	576.5
2288.505	561.5
2292.405	577.5
2296.302	575.5
2300.195	550.5
2304.085	554.5
2307.971	532.5
2311.854	534.5
2315.734	520.5
2319.609	515.5
2323.482	508.5
2327.351	504.5
2331.216	502.5
2335.078	496.5
2338.937	503.5
2342.792	486.5
2346.643	488.5
2350.492	487.5
2354.336	483.5
2358.178	489.5
2362.015	488.5
2365.85	488.5
2369.681	488.5
2373.508	490.5
2377.333	502.5
2381.153	486.5
2384.971	499.5
2388.785	489.5
2392.595	485.5
2396.402	489.5
2400.206	484.5
2404.007	476.5
2407.804	488.5
2411.597	481.5
2415.388	481.5
2419.174	477.5
2422.958	481.5
2426.738	478.5
2430.515	474.5
2434.289	467.5
2438.059	474.5
2441.825	478.5
2445.589	465.5
2449.349	465.5
2453.106	459.5
2456.859	455.5
2460.61	451.5
2464.356	447.5
2468.1	445.5
2471.84	455.5
2475.577	436.5
2479.311	435.5
2483.041	439.5
2486.768	442.5
2490.492	435.5
2494.213	440.5
2497.93	432.5
2501.644	443.5
2505.355	442.5
2509.062	441.5
2512.766	436.5
2516.467	434.5
2520.165	441.5
2523.859	432.5
2527.551	427.5
2531.239	424.5
2534.923	424.5
2538.605	413.5
2542.283	412.5
2545.958	415.5
2549.63	409.5
2553.299	408.5
2556.964	410.5
2560.626	397.5
2564.285	402.5
2567.941	401.5
2571.594	395.5
2575.243	407.5
2578.89	395.5
2582.533	385.5
2586.173	396.5
2589.809	384.5
2593.443	382.5
2597.073	382.5
2600.701	380.5
2604.325	381.5
2607.946	376.5
2611.564	386.5
2615.178	378.5
2618.79	375.5
2622.398	374.5
2626.004	369.5
2629.606	381.5
2633.205	371.5
2636.801	366.5
2640.394	361.5
2643.983	357.5
2647.57	355.5
2651.153	347.5
2654.734	348.5
2658.311	351.5
2661.885	344.5
2665.456	331.5
2669.025	340.5
2672.589	335.5
2676.151	338.5
2679.71	330.5
2683.266	334.5
2686.819	325.5
2690.368	317.5
2693.915	318.5
2697.458	310.5
2700.999	317.5
2704.536	310.5
2708.071	306.5
2711.602	312.5
2715.13	309.5
2718.656	308.5
2722.178	304.5
2725.697	308.5
2729.214	303.5
2732.727	314.5
2736.237	310.5
2739.744	313.5
2743.249	310.5
2746.75	313.5
2750.248	306.5
2753.743	307.5
2757.236	297.5
2760.725	294.5
2764.211	295.5
2767.695	293.5
2771.175	285.5
2774.652	281.5
2778.127	283.5
2781.598	279.5
2785.067	285.5
2788.532	277.5
2791.995	293.5
2795.455	293.5
2798.911	282.5
2802.365	292.5
2805.816	290.5
2809.264	281.5
2812.709	287.5
2816.151	288.5
2819.59	285.5
2823.026	292.5
2826.46	293.5
2829.89	293.5
2833.318	287.5
2836.742	287.5
2840.164	298.5
2843.583	294.5
2846.999	295.5
2850.412	302.5
2853.822	307.5
2857.229	299.5
2860.634	292.5
2864.035	303.5
2867.434	313.5
2870.83	309.5
2874.223	312.5
2877.613	316.5
2881	308.5
2884.385	301.5
2887.766	308.5
2891.145	314.5
2894.521	314.5
2897.894	308.5
2901.264	302.5
2904.631	302.5
2907.996	304.5
2911.358	323.5
2914.717	309.5
2918.073	325.5
2921.426	319.5
2924.777	331.5
2928.124	327.5
2931.469	331.5
2934.811	339.5
2938.15	346.5
2941.487	346.5
2944.821	342.5
2948.152	339.5
2951.48	352.5
2954.805	351.5
2958.128	360.5
2961.447	360.5
2964.765	363.5
2968.079	372.5
2971.39	369.5
2974.699	370.5
2978.005	382.5
2981.308	387.5
2984.609	389.5
2987.907	408.5
2991.202	422.5
2994.494	415.5
2997.784	428.5
3001.07	442.5
3004.355	441.5
3007.636	450.5
3010.915	457.5
3014.191	475.5
3017.464	475.5
3020.734	485.5
3024.002	495.5
3027.267	489.5
3030.53	502.5
3033.789	508.5
3037.046	509.5
3040.301	526.5
3043.552	535.5
3046.801	547.5
3050.048	557.5
3053.291	553.5
3056.532	577.5
3059.771	599.5
3063.006	616.5
3066.239	626.5
3069.469	650.5
3072.697	659.5
3075.922	677.5
3079.144	699.5
3082.364	701.5
3085.581	720.5
3088.795	740.5
3092.007	751.5
3095.216	772.5
3098.423	770.5
3101.627	797.5
3104.828	812.5
3108.026	828.5
3111.222	830.5
3114.416	848.5
3117.607	868.5
3120.795	883.5
3123.98	906.5
3127.163	941.5
3130.344	948.5
3133.521	955.5
3136.696	1004.5
3139.869	1006.5
3143.039	1023.5
3146.206	1040.5
3149.371	1057.5
3152.533	1067.5
3155.693	1073.5
3158.85	1063.5
3162.005	1093.5
3165.157	1090.5
3168.306	1109.5
3171.453	1103.5
3174.597	1115.5
3177.739	1121.5
3180.878	1117.5
3184.014	1128.5
3187.149	1110.5
3190.28	1121.5
3193.409	1130.5
3196.536	1124.5
3199.659	1124.5
3202.781	1132.5
3205.9	1150.5
3209.016	1134.5
3212.13	1129.5
3215.241	1133.5
3218.35	1119.5
3221.456	1112.5
3224.56	1096.5
3227.661	1094.5
3230.76	1082.5
3233.856	1079.5
3236.95	1076.5
3240.041	1055.5
3243.13	1049.5
3246.216	1041.5
3249.3	1037.5
3252.382	1005.5
3255.46	1022.5
3258.537	1022.5
3261.611	1002.5
3264.682	1008.5
3267.751	1011.5
3270.818	1004.5
3273.882	1018.5
3276.943	992.5
3280.002	997.5
3283.059	996.5
3286.113	987.5
3289.165	954.5
3292.214	945.5
3295.261	937.5
3298.306	926.5
3301.348	906.5
3304.387	883.5
3307.425	895.5
3310.459	868.5
3313.492	864.5
3316.521	864.5
3319.549	841.5
3322.574	833.5
3325.597	834.5
3328.617	822.5
3331.635	823.5
3334.65	807.5
3337.663	803.5
3340.674	811.5
3343.682	807.5
3346.688	802.5
3349.691	800.5
3352.692	784.5
3355.691	799.5
3358.687	790.5
3361.681	780.5
3364.673	779.5
3367.662	760.5
3370.649	748.5
3373.633	739.5
3376.615	732.5
3379.595	729.5
3382.572	720.5
3385.547	713.5
3388.52	700.5
3391.49	698.5
3394.458	684.5
3397.424	666.5
3400.387	663.5
3403.348	658.5
3406.307	636.5
3409.263	636.5
3412.217	628.5
3415.168	617.5
3418.118	637.5
3421.065	606.5
3424.009	608.5
3426.951	599.5
3429.891	590.5
3432.829	559.5
3435.764	580.5
3438.697	562.5
3441.628	556.5
3444.557	538.5
3447.483	523.5
3450.407	504.5
3453.328	498.5
3456.247	479.5
3459.164	484.5
3462.079	457.5
3464.991	449.5
3467.902	442.5
3470.809	417.5
3473.715	414.5
3476.618	395.5
3479.519	391.5
3482.418	382.5
3485.315	380.5
3488.209	363.5
3491.101	350.5
3493.99	346.5
3496.878	340.5
3499.763	327.5
3502.646	323.5
3505.527	314.5
3508.405	289.5
3511.281	277.5
3514.155	279.5
3517.027	264.5
3519.897	253.5
3522.764	244.5
3525.629	234.5
3528.492	226.5
3531.352	212.5
3534.211	196.5
3537.067	185.5
3539.921	174.5
3542.773	176.5
3545.622	170.5
3548.469	155.5
3551.315	153.5
3554.157	142.5
3556.998	132.5
3559.837	134.5
3562.673	126.5
3565.507	128.5
3568.339	116.5
3571.169	106.5
3573.996	110.5
3576.822	101.5
3579.645	96.5
3582.466	93.5
3585.285	82.5
3588.101	77.5
3590.916	71.5
3593.728	67.5
3596.538	64.5
3599.346	61.5
3602.152	56.5
3604.956	53.5
3607.757	42.5
3610.556	43.5
3613.354	37.5
3616.149	35.5
3618.942	26.5
3621.732	28.5
3624.521	18.5
3627.307	23.5
3630.092	21.5
3632.874	16.5
3635.654	13.5
3638.432	16.5
3641.208	8.5
3643.982	13.5
3646.753	7.5
3649.523	8.5
3652.29	5.5
3655.055	1.5
3657.818	-1.5
3660.579	-6.5
3663.338	-9.5
3666.095	-8.5
3668.849	-4.5
3671.602	-14.5
3674.352	-17.5
3677.101	-17.5
3679.847	-19.5
3682.591	-22.5
3685.333	-24.5
3688.073	-24.5
3690.811	-24.5
3693.547	-26.5
3696.281	-32.5
3699.013	-30.5
3701.742	-33.5
3704.47	-35.5
3707.195	-33.5
3709.919	-36.5
3712.64	-37.5
3715.359	-39.5
3718.076	-39.5
3720.792	-38.5
3723.505	-37.5
3726.216	-40.5
3728.925	-41.5
3731.632	-38.5
3734.336	-41.5
3737.039	-43.5
3739.74	-46.5
3742.439	-42.5
3745.136	-43.5
3747.83	-46.5
3750.523	-45.5
3753.213	-42.5
3755.902	-45.5
3758.589	-44.5
3761.273	-49.5
3763.956	-47.5
3766.636	-49.5
3769.315	-49.5
3771.991	-54.5
3774.665	-51.5
3777.338	-52.5
3780.008	-50.5
3782.677	-55.5
3785.343	-50.5
3788.007	-51.5
3790.67	-53.5
3793.33	-56.5
3795.989	-57.5
3798.645	-53.5
3801.299	-52.5
3803.952	-58.5
3806.602	-55.5
3809.251	-56.5
3811.897	-54.5
3814.542	-59.5
3817.184	-56.5
3819.825	-51.5
3822.463	-58.5
3825.1	-54.5
3827.735	-53.5
3830.367	-55.5
3832.998	-60.5
3835.627	-55.5
3838.253	-54.5
3840.878	-62.5
3843.501	-56.5
3846.122	-57.5
3848.741	-57.5
3851.358	-62.5
3853.973	-59.5
3856.586	-57.5
3859.197	-63.5
3861.806	-61.5
3864.414	-61.5
3867.019	-59.5
3869.622	-63.5
3872.224	-59.5
3874.823	-61.5
3877.421	-60.5
3880.016	-57.5
3882.61	-55.5
3885.202	-56.5
3887.792	-51.5
3890.38	-58.5
3892.966	-58.5
3895.55	-59.5
3898.132	-59.5
3900.713	-63.5
3903.291	-64.5
3905.868	-63.5
3908.442	-59.5
3911.015	-61.5
3913.586	-61.5
3916.155	-62.5
3918.722	-61.5
3921.287	-63.5
3923.85	-64.5
3926.411	-61.5
3928.971	-66.5
3931.528	-63.5
3934.084	-67.5
3936.638	-67.5
3939.19	-66.5
3941.74	-66.5
3944.288	-61.5
3946.834	-68.5
3949.378	-67.5
3951.921	-63.5
3954.462	-65.5
3957	-63.5
3959.537	-64.5
3962.072	-66.5
3964.606	-63.5
3967.137	-63.5
3969.667	-62.5
3972.194	-62.5
3974.72	-59.5
3977.244	-62.5
3979.766	-59.5
3982.286	-60.5
3984.805	-64.5
3987.321	-60.5
3989.836	-61.5
3992.349	-61.5
3994.86	-61.5
3997.369	-64.5
3999.877	-61.5
4002.382	-60.5
4004.886	-65.5
4007.388	-66.5
4009.888	-65.5
4012.386	-62.5
4014.883	-65.5
4017.377	-64.5
4019.87	-66.5
4022.361	-64.5
4024.85	-64.5
4027.338	-64.5
4029.823	-62.5
4032.307	-65.5
4034.789	-63.5
4037.269	-67.5
4039.747	-66.5
4042.224	-67.5
4044.699	-64.5
4047.172	-63.5
4049.643	-63.5
4052.112	-65.5
4054.58	-60.5
4057.046	-64.5
4059.51	-67.5
4061.972	-68.5
4064.432	-65.5
4066.891	-65.5
4069.348	-67.5
4071.803	-66.5
4074.256	-67.5
4076.708	-65.5
4079.158	-67.5
4081.606	-66.5
4084.052	-64.5
4086.497	-65.5
4088.939	-68.5
4091.38	-68.5
4093.819	-66.5
4096.257	-71.5
4098.693	-70.5
4101.127	-71.5
4103.559	-68.5
4105.989	-25.5
4108.418	-17.5
4110.845	-20.5
4113.27	-13.5
4115.694	-12.5
4118.115	-7.5
4120.535	-67.5
4122.954	-67.5
4125.37	-67.5
4127.785	-67.5
4130.198	-67.5
4132.609	-67.5
4135.019	-70.5
4137.427	-70.5
4139.833	-67.5
4142.237	-71.5
