Data from DDW3_ramanshift_RamanShift_11-30-07-819.txt Node
Date: Sun Jan 01 11:30:07 IST 2017
User: aro
Spectrometer: QEPB0276
Trigger mode: 0
Integration Time (sec): 5.000000E0
Scans to average: 1
Electric dark correction enabled: true
Nonlinearity correction enabled: false
Boxcar width: 0
XAxis mode: Raman Shifts
Number of Pixels in Spectrum: 1044
>>>>>Begin Spectral Data<<<<<
160.701	0.12
166.742	17.12
172.777	66.12
178.805	211.12
184.826	635.12
190.841	1499.12
196.849	2748.12
202.85	3882.12
208.845	4376.12
214.833	4368.12
220.815	4208.12
226.789	4069.12
232.758	3948.12
238.719	3858.12
244.674	3742.12
250.623	3583.12
256.565	3437.12
262.5	3301.12
268.429	3157.12
274.351	3023.12
280.267	2913.12
286.176	2796.12
292.079	2718.12
297.975	2635.12
303.865	2565.12
309.748	2494.12
315.625	2432.12
321.495	2375.12
327.359	2358.12
333.217	2328.12
339.068	2286.12
344.912	2266.12
350.751	2254.12
356.583	2278.12
362.408	2221.12
368.227	2240.12
374.04	2243.12
379.847	2243.12
385.647	2266.12
391.44	2271.12
397.228	2310.12
403.009	2286.12
408.784	2293.12
414.553	2293.12
420.315	2318.12
426.071	2300.12
431.821	2332.12
437.565	2299.12
443.302	2288.12
449.033	2312.12
454.758	2290.12
460.477	2280.12
466.189	2279.12
471.896	2268.12
477.596	2247.12
483.29	2243.12
488.978	2253.12
494.66	2233.12
500.335	2201.12
506.005	2164.12
511.668	2138.12
517.325	2114.12
522.977	2056.12
528.622	2057.12
534.261	2012.12
539.894	1987.12
545.521	1995.12
551.141	1965.12
556.756	1972.12
562.365	1954.12
567.968	1963.12
573.565	1942.12
579.155	1913.12
584.74	1916.12
590.319	1904.12
595.892	1889.12
601.459	1881.12
607.02	1863.12
612.575	1840.12
618.124	1832.12
623.667	1825.12
629.204	1808.12
634.735	1788.12
640.261	1786.12
645.781	1766.12
651.294	1773.12
656.802	1753.12
662.304	1748.12
667.8	1745.12
673.29	1719.12
678.775	1726.12
684.254	1712.12
689.726	1723.12
695.193	1707.12
700.655	1692.12
706.11	1690.12
711.56	1665.12
717.004	1667.12
722.442	1653.12
727.874	1649.12
733.301	1645.12
738.722	1628.12
744.137	1622.12
749.547	1611.12
754.951	1615.12
760.349	1603.12
765.741	1610.12
771.128	1605.12
776.509	1609.12
781.885	1601.12
787.254	1604.12
792.618	1604.12
797.977	1596.12
803.33	1586.12
808.677	1572.12
814.019	1548.12
819.355	1551.12
824.686	1525.12
830.011	1533.12
835.33	1507.12
840.644	1500.12
845.952	1504.12
851.255	1496.12
856.552	1476.12
861.844	1488.12
867.13	1479.12
872.41	1467.12
877.686	1467.12
882.955	1464.12
888.219	1439.12
893.478	1400.12
898.731	1395.12
903.979	1368.12
909.221	1362.12
914.458	1360.12
919.69	1327.12
924.916	1357.12
930.136	1353.12
935.351	1350.12
940.561	1339.12
945.766	1362.12
950.965	1325.12
956.158	1320.12
961.347	1318.12
966.529	1308.12
971.707	1273.12
976.879	1266.12
982.046	1262.12
987.208	1247.12
992.364	1245.12
997.515	1252.12
1002.66	1261.12
1007.801	1257.12
1012.936	1270.12
1018.066	1280.12
1023.19	1298.12
1028.309	1285.12
1033.423	1283.12
1038.532	1301.12
1043.636	1308.12
1048.734	1275.12
1053.827	1257.12
1058.915	1251.12
1063.998	1253.12
1069.075	1241.12
1074.147	1230.12
1079.214	1249.12
1084.276	1256.12
1089.333	1268.12
1094.385	1274.12
1099.431	1295.12
1104.472	1288.12
1109.509	1283.12
1114.54	1270.12
1119.565	1261.12
1124.586	1238.12
1129.602	1230.12
1134.613	1214.12
1139.618	1214.12
1144.619	1211.12
1149.614	1228.12
1154.604	1211.12
1159.589	1216.12
1164.57	1224.12
1169.545	1234.12
1174.515	1247.12
1179.48	1239.12
1184.44	1240.12
1189.395	1221.12
1194.345	1216.12
1199.29	1208.12
1204.23	1196.12
1209.165	1212.12
1214.095	1215.12
1219.021	1227.12
1223.941	1240.12
1228.856	1255.12
1233.766	1237.12
1238.672	1259.12
1243.572	1253.12
1248.467	1244.12
1253.358	1235.12
1258.244	1229.12
1263.124	1202.12
1268	1199.12
1272.871	1167.12
1277.737	1166.12
1282.599	1173.12
1287.455	1164.12
1292.306	1175.12
1297.153	1176.12
1301.995	1193.12
1306.832	1191.12
1311.664	1195.12
1316.491	1202.12
1321.314	1185.12
1326.132	1188.12
1330.945	1179.12
1335.753	1172.12
1340.556	1153.12
1345.354	1155.12
1350.148	1129.12
1354.937	1133.12
1359.722	1126.12
1364.501	1112.12
1369.276	1105.12
1374.046	1096.12
1378.811	1107.12
1383.572	1084.12
1388.327	1092.12
1393.079	1082.12
1397.825	1086.12
1402.567	1067.12
1407.304	1064.12
1412.036	1057.12
1416.764	1062.12
1421.487	1065.12
1426.205	1062.12
1430.919	1072.12
1435.628	1086.12
1440.333	1086.12
1445.032	1097.12
1449.727	1112.12
1454.418	1111.12
1459.104	1111.12
1463.785	1119.12
1468.462	1109.12
1473.134	1091.12
1477.802	1078.12
1482.465	1069.12
1487.123	1063.12
1491.777	1057.12
1496.426	1065.12
1501.071	1089.12
1505.711	1091.12
1510.347	1092.12
1514.978	1111.12
1519.604	1110.12
1524.226	1122.12
1528.844	1124.12
1533.457	1121.12
1538.065	1133.12
1542.669	1123.12
1547.269	1114.12
1551.864	1114.12
1556.454	1141.12
1561.041	1122.12
1565.622	1145.12
1570.199	1155.12
1574.772	1159.12
1579.34	1187.12
1583.904	1204.12
1588.464	1217.12
1593.019	1248.12
1597.569	1265.12
1602.115	1263.12
1606.657	1279.12
1611.195	1271.12
1615.728	1290.12
1620.256	1308.12
1624.78	1323.12
1629.3	1342.12
1633.816	1353.12
1638.327	1373.12
1642.834	1385.12
1647.336	1405.12
1651.834	1414.12
1656.328	1410.12
1660.817	1414.12
1665.302	1388.12
1669.783	1377.12
1674.259	1323.12
1678.732	1300.12
1683.199	1264.12
1687.663	1246.12
1692.122	1202.12
1696.577	1161.12
1701.028	1107.12
1705.474	1065.12
1709.917	1023.12
1714.355	992.12
1718.788	980.12
1723.218	996.12
1727.643	975.12
1732.064	958.12
1736.481	933.12
1740.893	926.12
1745.301	897.12
1749.705	876.12
1754.105	850.12
1758.501	834.12
1762.893	823.12
1767.28	822.12
1771.663	806.12
1776.042	803.12
1780.417	798.12
1784.787	795.12
1789.154	803.12
1793.516	796.12
1797.874	811.12
1802.228	788.12
1806.578	778.12
1810.924	788.12
1815.266	760.12
1819.603	759.12
1823.937	751.12
1828.266	734.12
1832.591	731.12
1836.913	738.12
1841.23	730.12
1845.543	731.12
1849.852	732.12
1854.156	722.12
1858.457	730.12
1862.754	749.12
1867.047	739.12
1871.335	749.12
1875.62	747.12
1879.9	743.12
1884.177	752.12
1888.449	752.12
1892.718	736.12
1896.982	750.12
1901.243	736.12
1905.499	734.12
1909.752	724.12
1914	739.12
1918.245	721.12
1922.485	735.12
1926.722	734.12
1930.954	743.12
1935.183	730.12
1939.408	742.12
1943.628	738.12
1947.845	742.12
1952.058	747.12
1956.267	742.12
1960.472	730.12
1964.673	723.12
1968.87	716.12
1973.063	704.12
1977.252	695.12
1981.438	695.12
1985.619	691.12
1989.797	697.12
1993.971	695.12
1998.14	703.12
2002.306	715.12
2006.469	704.12
2010.627	712.12
2014.781	710.12
2018.932	719.12
2023.078	731.12
2027.221	708.12
2031.36	705.12
2035.495	712.12
2039.627	689.12
2043.754	689.12
2047.878	695.12
2051.998	697.12
2056.114	692.12
2060.226	692.12
2064.334	684.12
2068.439	700.12
2072.54	694.12
2076.637	698.12
2080.73	708.12
2084.82	707.12
2088.906	705.12
2092.988	705.12
2097.066	707.12
2101.14	698.12
2105.211	700.12
2109.278	681.12
2113.342	681.12
2117.401	681.12
2121.457	681.12
2125.509	681.12
2129.558	670.12
2133.602	671.12
2137.643	667.12
2141.681	669.12
2145.714	668.12
2149.744	652.12
2153.77	667.12
2157.793	655.12
2161.812	656.12
2165.827	634.12
2169.838	634.12
2173.846	636.12
2177.851	617.12
2181.851	614.12
2185.848	611.12
2189.841	604.12
2193.831	600.12
2197.817	584.12
2201.799	597.12
2205.778	581.12
2209.753	588.12
2213.725	591.12
2217.693	575.12
2221.657	596.12
2225.618	586.12
2229.575	580.12
2233.529	585.12
2237.479	579.12
2241.425	578.12
2245.368	573.12
2249.307	554.12
2253.243	558.12
2257.175	544.12
2261.104	536.12
2265.029	532.12
2268.95	524.12
2272.868	514.12
2276.783	511.12
2280.694	513.12
2284.601	508.12
2288.505	503.12
2292.405	497.12
2296.302	488.12
2300.195	491.12
2304.085	481.12
2307.971	473.12
2311.854	467.12
2315.734	465.12
2319.609	451.12
2323.482	450.12
2327.351	444.12
2331.216	440.12
2335.078	443.12
2338.937	435.12
2342.792	434.12
2346.643	430.12
2350.492	422.12
2354.336	417.12
2358.178	434.12
2362.015	425.12
2365.85	422.12
2369.681	427.12
2373.508	429.12
2377.333	432.12
2381.153	427.12
2384.971	426.12
2388.785	426.12
2392.595	417.12
2396.402	413.12
2400.206	416.12
2404.007	419.12
2407.804	419.12
2411.597	417.12
2415.388	421.12
2419.174	411.12
2422.958	416.12
2426.738	416.12
2430.515	408.12
2434.289	412.12
2438.059	399.12
2441.825	414.12
2445.589	406.12
2449.349	402.12
2453.106	396.12
2456.859	403.12
2460.61	387.12
2464.356	393.12
2468.1	379.12
2471.84	378.12
2475.577	373.12
2479.311	383.12
2483.041	378.12
2486.768	378.12
2490.492	382.12
2494.213	383.12
2497.93	383.12
2501.644	380.12
2505.355	382.12
2509.062	379.12
2512.766	387.12
2516.467	379.12
2520.165	379.12
2523.859	378.12
2527.551	371.12
2531.239	372.12
2534.923	368.12
2538.605	358.12
2542.283	359.12
2545.958	357.12
2549.63	364.12
2553.299	356.12
2556.964	357.12
2560.626	356.12
2564.285	352.12
2567.941	340.12
2571.594	341.12
2575.243	347.12
2578.89	333.12
2582.533	330.12
2586.173	341.12
2589.809	337.12
2593.443	329.12
2597.073	320.12
2600.701	329.12
2604.325	333.12
2607.946	320.12
2611.564	324.12
2615.178	328.12
2618.79	321.12
2622.398	317.12
2626.004	316.12
2629.606	331.12
2633.205	311.12
2636.801	314.12
2640.394	313.12
2643.983	311.12
2647.57	304.12
2651.153	299.12
2654.734	299.12
2658.311	300.12
2661.885	294.12
2665.456	297.12
2669.025	290.12
2672.589	289.12
2676.151	291.12
2679.71	282.12
2683.266	285.12
2686.819	284.12
2690.368	283.12
2693.915	279.12
2697.458	276.12
2700.999	275.12
2704.536	272.12
2708.071	268.12
2711.602	270.12
2715.13	266.12
2718.656	268.12
2722.178	268.12
2725.697	265.12
2729.214	267.12
2732.727	272.12
2736.237	272.12
2739.744	269.12
2743.249	266.12
2746.75	268.12
2750.248	263.12
2753.743	274.12
2757.236	262.12
2760.725	265.12
2764.211	269.12
2767.695	258.12
2771.175	247.12
2774.652	248.12
2778.127	251.12
2781.598	252.12
2785.067	250.12
2788.532	251.12
2791.995	251.12
2795.455	247.12
2798.911	248.12
2802.365	249.12
2805.816	253.12
2809.264	258.12
2812.709	259.12
2816.151	260.12
2819.59	255.12
2823.026	257.12
2826.46	257.12
2829.89	263.12
2833.318	259.12
2836.742	264.12
2840.164	257.12
2843.583	251.12
2846.999	260.12
2850.412	272.12
2853.822	262.12
2857.229	261.12
2860.634	263.12
2864.035	274.12
2867.434	265.12
2870.83	270.12
2874.223	277.12
2877.613	280.12
2881	285.12
2884.385	284.12
2887.766	272.12
2891.145	287.12
2894.521	276.12
2897.894	286.12
2901.264	278.12
2904.631	279.12
2907.996	287.12
2911.358	283.12
2914.717	283.12
2918.073	288.12
2921.426	287.12
2924.777	291.12
2928.124	304.12
2931.469	302.12
2934.811	308.12
2938.15	313.12
2941.487	317.12
2944.821	329.12
2948.152	326.12
2951.48	324.12
2954.805	325.12
2958.128	333.12
2961.447	337.12
2964.765	337.12
2968.079	339.12
2971.39	350.12
2974.699	358.12
2978.005	364.12
2981.308	364.12
2984.609	374.12
2987.907	387.12
2991.202	389.12
2994.494	402.12
2997.784	405.12
3001.07	415.12
3004.355	427.12
3007.636	434.12
3010.915	441.12
3014.191	450.12
3017.464	463.12
3020.734	471.12
3024.002	468.12
3027.267	477.12
3030.53	492.12
3033.789	496.12
3037.046	493.12
3040.301	513.12
3043.552	518.12
3046.801	534.12
3050.048	547.12
3053.291	554.12
3056.532	569.12
3059.771	594.12
3063.006	610.12
3066.239	619.12
3069.469	637.12
3072.697	647.12
3075.922	657.12
3079.144	670.12
3082.364	695.12
3085.581	712.12
3088.795	717.12
3092.007	740.12
3095.216	751.12
3098.423	772.12
3101.627	789.12
3104.828	791.12
3108.026	811.12
3111.222	840.12
3114.416	845.12
3117.607	867.12
3120.795	886.12
3123.98	904.12
3127.163	928.12
3130.344	934.12
3133.521	977.12
3136.696	981.12
3139.869	1010.12
3143.039	1025.12
3146.206	1048.12
3149.371	1062.12
3152.533	1060.12
3155.693	1079.12
3158.85	1088.12
3162.005	1081.12
3165.157	1100.12
3168.306	1089.12
3171.453	1114.12
3174.597	1099.12
3177.739	1105.12
3180.878	1106.12
3184.014	1117.12
3187.149	1134.12
3190.28	1119.12
3193.409	1115.12
3196.536	1143.12
3199.659	1139.12
3202.781	1149.12
3205.9	1153.12
3209.016	1143.12
3212.13	1145.12
3215.241	1144.12
3218.35	1140.12
3221.456	1132.12
3224.56	1123.12
3227.661	1108.12
3230.76	1102.12
3233.856	1077.12
3236.95	1073.12
3240.041	1059.12
3243.13	1068.12
3246.216	1047.12
3249.3	1051.12
3252.382	1048.12
3255.46	1048.12
3258.537	1041.12
3261.611	1030.12
3264.682	1011.12
3267.751	1028.12
3270.818	1014.12
3273.882	1018.12
3276.943	1001.12
3280.002	1013.12
3283.059	1002.12
3286.113	988.12
3289.165	978.12
3292.214	960.12
3295.261	939.12
3298.306	938.12
3301.348	916.12
3304.387	903.12
3307.425	895.12
3310.459	881.12
3313.492	875.12
3316.521	857.12
3319.549	851.12
3322.574	841.12
3325.597	847.12
3328.617	831.12
3331.635	820.12
3334.65	824.12
3337.663	825.12
3340.674	814.12
3343.682	814.12
3346.688	809.12
3349.691	807.12
3352.692	807.12
3355.691	797.12
3358.687	790.12
3361.681	782.12
3364.673	786.12
3367.662	765.12
3370.649	760.12
3373.633	759.12
3376.615	741.12
3379.595	735.12
3382.572	723.12
3385.547	720.12
3388.52	710.12
3391.49	694.12
3394.458	695.12
3397.424	676.12
3400.387	674.12
3403.348	660.12
3406.307	653.12
3409.263	645.12
3412.217	643.12
3415.168	632.12
3418.118	619.12
3421.065	620.12
3424.009	604.12
3426.951	612.12
3429.891	602.12
3432.829	593.12
3435.764	574.12
3438.697	576.12
3441.628	552.12
3444.557	548.12
3447.483	537.12
3450.407	519.12
3453.328	506.12
3456.247	489.12
3459.164	489.12
3462.079	473.12
3464.991	451.12
3467.902	437.12
3470.809	429.12
3473.715	425.12
3476.618	406.12
3479.519	392.12
3482.418	391.12
3485.315	372.12
3488.209	364.12
3491.101	356.12
3493.99	344.12
3496.878	341.12
3499.763	324.12
3502.646	331.12
3505.527	305.12
3508.405	299.12
3511.281	282.12
3514.155	286.12
3517.027	266.12
3519.897	256.12
3522.764	244.12
3525.629	231.12
3528.492	218.12
3531.352	211.12
3534.211	199.12
3537.067	189.12
3539.921	179.12
3542.773	170.12
3545.622	161.12
3548.469	156.12
3551.315	150.12
3554.157	136.12
3556.998	137.12
3559.837	130.12
3562.673	127.12
3565.507	119.12
3568.339	110.12
3571.169	106.12
3573.996	105.12
3576.822	99.12
3579.645	94.12
3582.466	89.12
3585.285	79.12
3588.101	78.12
3590.916	72.12
3593.728	62.12
3596.538	55.12
3599.346	55.12
3602.152	49.12
3604.956	48.12
3607.757	39.12
3610.556	35.12
3613.354	37.12
3616.149	29.12
3618.942	25.12
3621.732	28.12
3624.521	16.12
3627.307	20.12
3630.092	8.12
3632.874	13.12
3635.654	7.12
3638.432	6.12
3641.208	4.12
3643.982	4.12
3646.753	3.12
3649.523	-3.88
3652.29	-4.88
3655.055	-5.88
3657.818	-9.88
3660.579	-7.88
3663.338	-11.88
3666.095	-15.88
3668.849	-14.88
3671.602	-17.88
3674.352	-21.88
3677.101	-26.88
3679.847	-31.88
3682.591	-27.88
3685.333	-29.88
3688.073	-36.88
3690.811	-30.88
3693.547	-36.88
3696.281	-36.88
3699.013	-40.88
3701.742	-41.88
3704.47	-38.88
3707.195	-38.88
3709.919	-43.88
3712.64	-46.88
3715.359	-42.88
3718.076	-46.88
3720.792	-46.88
3723.505	-46.88
3726.216	-46.88
3728.925	-51.88
3731.632	-47.88
3734.336	-51.88
3737.039	-50.88
3739.74	-52.88
3742.439	-48.88
3745.136	-50.88
3747.83	-51.88
3750.523	-53.88
3753.213	-47.88
3755.902	-54.88
3758.589	-51.88
3761.273	-56.88
3763.956	-54.88
3766.636	-56.88
3769.315	-57.88
3771.991	-57.88
3774.665	-58.88
3777.338	-56.88
3780.008	-57.88
3782.677	-59.88
3785.343	-58.88
3788.007	-56.88
3790.67	-58.88
3793.33	-60.88
3795.989	-62.88
3798.645	-60.88
3801.299	-61.88
3803.952	-64.88
3806.602	-60.88
3809.251	-63.88
3811.897	-60.88
3814.542	-64.88
3817.184	-60.88
3819.825	-59.88
3822.463	-58.88
3825.1	-59.88
3827.735	-59.88
3830.367	-60.88
3832.998	-63.88
3835.627	-58.88
3838.253	-60.88
3840.878	-67.88
3843.501	-62.88
3846.122	-61.88
3848.741	-66.88
3851.358	-68.88
3853.973	-64.88
3856.586	-64.88
3859.197	-63.88
3861.806	-65.88
3864.414	-65.88
3867.019	-64.88
3869.622	-69.88
3872.224	-66.88
3874.823	-64.88
3877.421	-67.88
3880.016	-63.88
3882.61	-59.88
3885.202	-59.88
3887.792	-57.88
3890.38	-60.88
3892.966	-61.88
3895.55	-62.88
3898.132	-62.88
3900.713	-67.88
3903.291	-70.88
3905.868	-65.88
3908.442	-66.88
3911.015	-66.88
3913.586	-66.88
3916.155	-66.88
3918.722	-64.88
3921.287	-65.88
3923.85	-69.88
3926.411	-65.88
3928.971	-70.88
3931.528	-66.88
3934.084	-67.88
3936.638	-69.88
3939.19	-69.88
3941.74	-67.88
3944.288	-66.88
3946.834	-65.88
3949.378	-74.88
3951.921	-69.88
3954.462	-69.88
3957	-66.88
3959.537	-70.88
3962.072	-70.88
3964.606	-64.88
3967.137	-65.88
3969.667	-67.88
3972.194	-68.88
3974.72	-65.88
3977.244	-64.88
3979.766	-65.88
3982.286	-65.88
3984.805	-67.88
3987.321	-63.88
3989.836	-66.88
3992.349	-65.88
3994.86	-68.88
3997.369	-69.88
3999.877	-67.88
4002.382	-66.88
4004.886	-65.88
4007.388	-67.88
4009.888	-65.88
4012.386	-63.88
4014.883	-68.88
4017.377	-67.88
4019.87	-67.88
4022.361	-68.88
4024.85	-68.88
4027.338	-68.88
4029.823	-67.88
4032.307	-69.88
4034.789	-66.88
4037.269	-69.88
4039.747	-70.88
4042.224	-69.88
4044.699	-70.88
4047.172	-67.88
4049.643	-67.88
4052.112	-66.88
4054.58	-68.88
4057.046	-67.88
4059.51	-68.88
4061.972	-71.88
4064.432	-70.88
4066.891	-65.88
4069.348	-70.88
4071.803	-71.88
4074.256	-70.88
4076.708	-70.88
4079.158	-72.88
4081.606	-70.88
4084.052	-68.88
4086.497	-69.88
4088.939	-73.88
4091.38	-73.88
4093.819	-69.88
4096.257	-73.88
4098.693	-76.88
4101.127	-75.88
4103.559	-74.88
4105.989	-30.88
4108.418	-27.88
4110.845	-26.88
4113.27	-26.88
4115.694	-19.88
4118.115	-10.88
4120.535	-72.88
4122.954	-71.88
4125.37	-69.88
4127.785	-70.88
4130.198	-69.88
4132.609	-71.88
4135.019	-73.88
4137.427	-75.88
4139.833	-70.88
4142.237	-73.88
