Data from Bsub_water_DIL1_A_2_RamanShift_1.txt Node
Date: Wed Feb 22 13:08:41 IST 2017
User: aro
Spectrometer: QEPB0276
Trigger mode: 0
Integration Time (sec): 5.000000E0
Scans to average: 1
Electric dark correction enabled: true
Nonlinearity correction enabled: false
Boxcar width: 0
XAxis mode: Raman Shifts
Number of Pixels in Spectrum: 1044
>>>>>Begin Spectral Data<<<<<
160.701	-29.75
166.742	3.25
172.777	88.25
178.805	332.25
184.826	940.25
190.841	1955.25
196.849	3110.25
202.85	3868.25
208.845	4055.25
214.833	3948.25
220.815	3796.25
226.789	3661.25
232.758	3569.25
238.719	3452.25
244.674	3315.25
250.623	3176.25
256.565	3011.25
262.5	2880.25
268.429	2750.25
274.351	2615.25
280.267	2530.25
286.176	2425.25
292.079	2327.25
297.975	2261.25
303.865	2166.25
309.748	2118.25
315.625	2111.25
321.495	2025.25
327.359	2002.25
333.217	1974.25
339.068	1954.25
344.912	1960.25
350.751	1946.25
356.583	1943.25
362.408	1949.25
368.227	1937.25
374.04	1927.25
379.847	1950.25
385.647	1966.25
391.44	1983.25
397.228	1991.25
403.009	2000.25
408.784	2008.25
414.553	2012.25
420.315	2020.25
426.071	2032.25
431.821	2024.25
437.565	2031.25
443.302	2021.25
449.033	1994.25
454.758	2011.25
460.477	2007.25
466.189	1974.25
471.896	2005.25
477.596	1974.25
483.29	1950.25
488.978	1951.25
494.66	1930.25
500.335	1905.25
506.005	1857.25
511.668	1845.25
517.325	1807.25
522.977	1760.25
528.622	1749.25
534.261	1724.25
539.894	1708.25
545.521	1696.25
551.141	1667.25
556.756	1663.25
562.365	1676.25
567.968	1671.25
573.565	1624.25
579.155	1610.25
584.74	1595.25
590.319	1592.25
595.892	1589.25
601.459	1575.25
607.02	1561.25
612.575	1560.25
618.124	1530.25
623.667	1529.25
629.204	1500.25
634.735	1487.25
640.261	1484.25
645.781	1472.25
651.294	1455.25
656.802	1436.25
662.304	1432.25
667.8	1438.25
673.29	1430.25
678.775	1416.25
684.254	1408.25
689.726	1420.25
695.193	1386.25
700.655	1403.25
706.11	1375.25
711.56	1386.25
717.004	1363.25
722.442	1376.25
727.874	1344.25
733.301	1335.25
738.722	1341.25
744.137	1333.25
749.547	1319.25
754.951	1312.25
760.349	1323.25
765.741	1322.25
771.128	1307.25
776.509	1312.25
781.885	1320.25
787.254	1303.25
792.618	1298.25
797.977	1298.25
803.33	1269.25
808.677	1271.25
814.019	1253.25
819.355	1250.25
824.686	1221.25
830.011	1217.25
835.33	1213.25
840.644	1208.25
845.952	1197.25
851.255	1197.25
856.552	1180.25
861.844	1176.25
867.13	1151.25
872.41	1145.25
877.686	1138.25
882.955	1123.25
888.219	1130.25
893.478	1092.25
898.731	1067.25
903.979	1055.25
909.221	1034.25
914.458	1042.25
919.69	1024.25
924.916	1024.25
930.136	1024.25
935.351	1004.25
940.561	1024.25
945.766	1011.25
950.965	1008.25
956.158	982.25
961.347	974.25
966.529	963.25
971.707	949.25
976.879	944.25
982.046	930.25
987.208	926.25
992.364	923.25
997.515	934.25
1002.66	943.25
1007.801	933.25
1012.936	939.25
1018.066	959.25
1023.19	958.25
1028.309	964.25
1033.423	954.25
1038.532	947.25
1043.636	937.25
1048.734	932.25
1053.827	928.25
1058.915	910.25
1063.998	907.25
1069.075	917.25
1074.147	910.25
1079.214	910.25
1084.276	904.25
1089.333	920.25
1094.385	929.25
1099.431	923.25
1104.472	918.25
1109.509	925.25
1114.54	906.25
1119.565	907.25
1124.586	883.25
1129.602	868.25
1134.613	865.25
1139.618	866.25
1144.619	866.25
1149.614	872.25
1154.604	882.25
1159.589	868.25
1164.57	877.25
1169.545	879.25
1174.515	887.25
1179.48	878.25
1184.44	882.25
1189.395	864.25
1194.345	871.25
1199.29	861.25
1204.23	875.25
1209.165	866.25
1214.095	872.25
1219.021	890.25
1223.941	871.25
1228.856	888.25
1233.766	893.25
1238.672	894.25
1243.572	879.25
1248.467	878.25
1253.358	895.25
1258.244	865.25
1263.124	852.25
1268	834.25
1272.871	827.25
1277.737	818.25
1282.599	816.25
1287.455	814.25
1292.306	815.25
1297.153	826.25
1301.995	836.25
1306.832	835.25
1311.664	845.25
1316.491	836.25
1321.314	840.25
1326.132	828.25
1330.945	814.25
1335.753	788.25
1340.556	774.25
1345.354	772.25
1350.148	742.25
1354.937	746.25
1359.722	744.25
1364.501	761.25
1369.276	773.25
1374.046	770.25
1378.811	783.25
1383.572	791.25
1388.327	782.25
1393.079	761.25
1397.825	762.25
1402.567	749.25
1407.304	742.25
1412.036	733.25
1416.764	736.25
1421.487	729.25
1426.205	730.25
1430.919	737.25
1435.628	737.25
1440.333	749.25
1445.032	745.25
1449.727	745.25
1454.418	744.25
1459.104	757.25
1463.785	733.25
1468.462	740.25
1473.134	727.25
1477.802	717.25
1482.465	707.25
1487.123	715.25
1491.777	725.25
1496.426	720.25
1501.071	734.25
1505.711	745.25
1510.347	766.25
1514.978	766.25
1519.604	779.25
1524.226	789.25
1528.844	807.25
1533.457	793.25
1538.065	788.25
1542.669	795.25
1547.269	797.25
1551.864	812.25
1556.454	798.25
1561.041	811.25
1565.622	816.25
1570.199	836.25
1574.772	838.25
1579.34	861.25
1583.904	865.25
1588.464	884.25
1593.019	893.25
1597.569	918.25
1602.115	928.25
1606.657	939.25
1611.195	945.25
1615.728	967.25
1620.256	984.25
1624.78	989.25
1629.3	1003.25
1633.816	1006.25
1638.327	1043.25
1642.834	1046.25
1647.336	1061.25
1651.834	1062.25
1656.328	1056.25
1660.817	1043.25
1665.302	1027.25
1669.783	1009.25
1674.259	969.25
1678.732	936.25
1683.199	911.25
1687.663	862.25
1692.122	829.25
1696.577	793.25
1701.028	762.25
1705.474	760.25
1709.917	737.25
1714.355	710.25
1718.788	685.25
1723.218	682.25
1727.643	652.25
1732.064	621.25
1736.481	616.25
1740.893	582.25
1745.301	563.25
1749.705	552.25
1754.105	530.25
1758.501	512.25
1762.893	501.25
1767.28	494.25
1771.663	474.25
1776.042	474.25
1780.417	472.25
1784.787	473.25
1789.154	474.25
1793.516	482.25
1797.874	487.25
1802.228	484.25
1806.578	490.25
1810.924	478.25
1815.266	471.25
1819.603	463.25
1823.937	453.25
1828.266	447.25
1832.591	436.25
1836.913	426.25
1841.23	426.25
1845.543	420.25
1849.852	416.25
1854.156	420.25
1858.457	424.25
1862.754	433.25
1867.047	421.25
1871.335	435.25
1875.62	437.25
1879.9	432.25
1884.177	426.25
1888.449	422.25
1892.718	422.25
1896.982	423.25
1901.243	416.25
1905.499	407.25
1909.752	417.25
1914	409.25
1918.245	416.25
1922.485	423.25
1926.722	426.25
1930.954	438.25
1935.183	436.25
1939.408	438.25
1943.628	438.25
1947.845	441.25
1952.058	453.25
1956.267	444.25
1960.472	437.25
1964.673	443.25
1968.87	435.25
1973.063	424.25
1977.252	418.25
1981.438	419.25
1985.619	419.25
1989.797	413.25
1993.971	415.25
1998.14	424.25
2002.306	427.25
2006.469	419.25
2010.627	413.25
2014.781	421.25
2018.932	431.25
2023.078	430.25
2027.221	416.25
2031.36	413.25
2035.495	419.25
2039.627	413.25
2043.754	403.25
2047.878	411.25
2051.998	400.25
2056.114	404.25
2060.226	419.25
2064.334	418.25
2068.439	421.25
2072.54	430.25
2076.637	435.25
2080.73	431.25
2084.82	424.25
2088.906	434.25
2092.988	431.25
2097.066	438.25
2101.14	424.25
2105.211	430.25
2109.278	422.25
2113.342	420.25
2117.401	428.25
2121.457	425.25
2125.509	417.25
2129.558	420.25
2133.602	408.25
2137.643	409.25
2141.681	414.25
2145.714	409.25
2149.744	405.25
2153.77	407.25
2157.793	400.25
2161.812	396.25
2165.827	385.25
2169.838	389.25
2173.846	382.25
2177.851	361.25
2181.851	365.25
2185.848	359.25
2189.841	343.25
2193.831	349.25
2197.817	352.25
2201.799	342.25
2205.778	345.25
2209.753	340.25
2213.725	343.25
2217.693	343.25
2221.657	326.25
2225.618	333.25
2229.575	331.25
2233.529	322.25
2237.479	318.25
2241.425	316.25
2245.368	319.25
2249.307	312.25
2253.243	301.25
2257.175	298.25
2261.104	295.25
2265.029	291.25
2268.95	290.25
2272.868	279.25
2276.783	281.25
2280.694	279.25
2284.601	265.25
2288.505	269.25
2292.405	257.25
2296.302	273.25
2300.195	261.25
2304.085	251.25
2307.971	246.25
2311.854	238.25
2315.734	236.25
2319.609	231.25
2323.482	226.25
2327.351	223.25
2331.216	225.25
2335.078	227.25
2338.937	215.25
2342.792	218.25
2346.643	215.25
2350.492	210.25
2354.336	213.25
2358.178	209.25
2362.015	204.25
2365.85	211.25
2369.681	211.25
2373.508	207.25
2377.333	214.25
2381.153	202.25
2384.971	207.25
2388.785	204.25
2392.595	208.25
2396.402	206.25
2400.206	195.25
2404.007	195.25
2407.804	195.25
2411.597	198.25
2415.388	188.25
2419.174	200.25
2422.958	188.25
2426.738	183.25
2430.515	195.25
2434.289	187.25
2438.059	184.25
2441.825	176.25
2445.589	175.25
2449.349	181.25
2453.106	173.25
2456.859	174.25
2460.61	172.25
2464.356	172.25
2468.1	175.25
2471.84	168.25
2475.577	163.25
2479.311	165.25
2483.041	164.25
2486.768	160.25
2490.492	159.25
2494.213	164.25
2497.93	162.25
2501.644	163.25
2505.355	159.25
2509.062	166.25
2512.766	163.25
2516.467	162.25
2520.165	162.25
2523.859	160.25
2527.551	155.25
2531.239	154.25
2534.923	158.25
2538.605	155.25
2542.283	153.25
2545.958	155.25
2549.63	146.25
2553.299	150.25
2556.964	148.25
2560.626	143.25
2564.285	142.25
2567.941	142.25
2571.594	138.25
2575.243	139.25
2578.89	139.25
2582.533	139.25
2586.173	140.25
2589.809	136.25
2593.443	142.25
2597.073	128.25
2600.701	134.25
2604.325	134.25
2607.946	125.25
2611.564	136.25
2615.178	137.25
2618.79	131.25
2622.398	128.25
2626.004	125.25
2629.606	131.25
2633.205	114.25
2636.801	116.25
2640.394	126.25
2643.983	133.25
2647.57	112.25
2651.153	115.25
2654.734	119.25
2658.311	116.25
2661.885	110.25
2665.456	107.25
2669.025	108.25
2672.589	111.25
2676.151	111.25
2679.71	107.25
2683.266	106.25
2686.819	106.25
2690.368	105.25
2693.915	91.25
2697.458	98.25
2700.999	99.25
2704.536	97.25
2708.071	101.25
2711.602	94.25
2715.13	90.25
2718.656	89.25
2722.178	89.25
2725.697	91.25
2729.214	94.25
2732.727	97.25
2736.237	101.25
2739.744	98.25
2743.249	96.25
2746.75	92.25
2750.248	96.25
2753.743	95.25
2757.236	100.25
2760.725	106.25
2764.211	97.25
2767.695	104.25
2771.175	109.25
2774.652	104.25
2778.127	107.25
2781.598	110.25
2785.067	101.25
2788.532	104.25
2791.995	102.25
2795.455	99.25
2798.911	109.25
2802.365	107.25
2805.816	106.25
2809.264	110.25
2812.709	115.25
2816.151	108.25
2819.59	107.25
2823.026	109.25
2826.46	115.25
2829.89	117.25
2833.318	119.25
2836.742	111.25
2840.164	120.25
2843.583	123.25
2846.999	130.25
2850.412	128.25
2853.822	123.25
2857.229	125.25
2860.634	130.25
2864.035	135.25
2867.434	135.25
2870.83	132.25
2874.223	141.25
2877.613	145.25
2881	153.25
2884.385	153.25
2887.766	158.25
2891.145	152.25
2894.521	154.25
2897.894	156.25
2901.264	155.25
2904.631	160.25
2907.996	162.25
2911.358	159.25
2914.717	171.25
2918.073	177.25
2921.426	181.25
2924.777	188.25
2928.124	185.25
2931.469	198.25
2934.811	197.25
2938.15	198.25
2941.487	205.25
2944.821	212.25
2948.152	217.25
2951.48	223.25
2954.805	228.25
2958.128	234.25
2961.447	234.25
2964.765	235.25
2968.079	254.25
2971.39	253.25
2974.699	270.25
2978.005	271.25
2981.308	279.25
2984.609	301.25
2987.907	309.25
2991.202	313.25
2994.494	332.25
2997.784	343.25
3001.07	350.25
3004.355	357.25
3007.636	367.25
3010.915	389.25
3014.191	385.25
3017.464	399.25
3020.734	402.25
3024.002	406.25
3027.267	414.25
3030.53	421.25
3033.789	434.25
3037.046	443.25
3040.301	456.25
3043.552	466.25
3046.801	474.25
3050.048	482.25
3053.291	515.25
3056.532	530.25
3059.771	543.25
3063.006	564.25
3066.239	571.25
3069.469	601.25
3072.697	617.25
3075.922	643.25
3079.144	657.25
3082.364	673.25
3085.581	691.25
3088.795	706.25
3092.007	734.25
3095.216	744.25
3098.423	756.25
3101.627	779.25
3104.828	784.25
3108.026	802.25
3111.222	840.25
3114.416	850.25
3117.607	883.25
3120.795	890.25
3123.98	915.25
3127.163	929.25
3130.344	973.25
3133.521	970.25
3136.696	1005.25
3139.869	1043.25
3143.039	1044.25
3146.206	1077.25
3149.371	1069.25
3152.533	1083.25
3155.693	1095.25
3158.85	1108.25
3162.005	1098.25
3165.157	1114.25
3168.306	1122.25
3171.453	1121.25
3174.597	1142.25
3177.739	1133.25
3180.878	1140.25
3184.014	1149.25
3187.149	1156.25
3190.28	1144.25
3193.409	1156.25
3196.536	1145.25
3199.659	1164.25
3202.781	1175.25
3205.9	1166.25
3209.016	1164.25
3212.13	1154.25
3215.241	1171.25
3218.35	1168.25
3221.456	1156.25
3224.56	1137.25
3227.661	1118.25
3230.76	1118.25
3233.856	1121.25
3236.95	1112.25
3240.041	1106.25
3243.13	1098.25
3246.216	1083.25
3249.3	1096.25
3252.382	1078.25
3255.46	1063.25
3258.537	1044.25
3261.611	1052.25
3264.682	1041.25
3267.751	1054.25
3270.818	1053.25
3273.882	1048.25
3276.943	1041.25
3280.002	1029.25
3283.059	1027.25
3286.113	999.25
3289.165	989.25
3292.214	966.25
3295.261	963.25
3298.306	956.25
3301.348	940.25
3304.387	922.25
3307.425	908.25
3310.459	905.25
3313.492	884.25
3316.521	868.25
3319.549	869.25
3322.574	837.25
3325.597	852.25
3328.617	842.25
3331.635	820.25
3334.65	827.25
3337.663	820.25
3340.674	818.25
3343.682	812.25
3346.688	811.25
3349.691	790.25
3352.692	802.25
3355.691	796.25
3358.687	806.25
3361.681	795.25
3364.673	768.25
3367.662	766.25
3370.649	748.25
3373.633	748.25
3376.615	728.25
3379.595	735.25
3382.572	715.25
3385.547	713.25
3388.52	706.25
3391.49	682.25
3394.458	675.25
3397.424	677.25
3400.387	674.25
3403.348	650.25
3406.307	653.25
3409.263	650.25
3412.217	638.25
3415.168	631.25
3418.118	619.25
3421.065	628.25
3424.009	613.25
3426.951	611.25
3429.891	598.25
3432.829	582.25
3435.764	574.25
3438.697	564.25
3441.628	536.25
3444.557	532.25
3447.483	515.25
3450.407	503.25
3453.328	497.25
3456.247	481.25
3459.164	468.25
3462.079	458.25
3464.991	443.25
3467.902	428.25
3470.809	418.25
3473.715	395.25
3476.618	399.25
3479.519	383.25
3482.418	376.25
3485.315	364.25
3488.209	355.25
3491.101	343.25
3493.99	337.25
3496.878	334.25
3499.763	314.25
3502.646	306.25
3505.527	303.25
3508.405	281.25
3511.281	278.25
3514.155	263.25
3517.027	254.25
3519.897	242.25
3522.764	235.25
3525.629	215.25
3528.492	207.25
3531.352	195.25
3534.211	181.25
3537.067	165.25
3539.921	165.25
3542.773	151.25
3545.622	147.25
3548.469	138.25
3551.315	135.25
3554.157	123.25
3556.998	126.25
3559.837	114.25
3562.673	103.25
3565.507	103.25
3568.339	97.25
3571.169	85.25
3573.996	80.25
3576.822	67.25
3579.645	67.25
3582.466	62.25
3585.285	60.25
3588.101	47.25
3590.916	50.25
3593.728	45.25
3596.538	35.25
3599.346	33.25
3602.152	20.25
3604.956	28.25
3607.757	15.25
3610.556	15.25
3613.354	15.25
3616.149	9.25
3618.942	8.25
3621.732	-1.75
3624.521	-2.75
3627.307	-6.75
3630.092	-13.75
3632.874	-11.75
3635.654	-12.75
3638.432	-20.75
3641.208	-18.75
3643.982	-19.75
3646.753	-19.75
3649.523	-25.75
3652.29	-24.75
3655.055	-33.75
3657.818	-34.75
3660.579	-37.75
3663.338	-44.75
3666.095	-43.75
3668.849	-47.75
3671.602	-44.75
3674.352	-53.75
3677.101	-57.75
3679.847	-54.75
3682.591	-53.75
3685.333	-59.75
3688.073	-61.75
3690.811	-62.75
3693.547	-62.75
3696.281	-61.75
3699.013	-63.75
3701.742	-62.75
3704.47	-64.75
3707.195	-71.75
3709.919	-69.75
3712.64	-67.75
3715.359	-71.75
3718.076	-78.75
3720.792	-76.75
3723.505	-77.75
3726.216	-74.75
3728.925	-75.75
3731.632	-78.75
3734.336	-79.75
3737.039	-74.75
3739.74	-73.75
3742.439	-84.75
3745.136	-82.75
3747.83	-80.75
3750.523	-80.75
3753.213	-83.75
3755.902	-85.75
3758.589	-82.75
3761.273	-87.75
3763.956	-84.75
3766.636	-86.75
3769.315	-83.75
3771.991	-87.75
3774.665	-87.75
3777.338	-88.75
3780.008	-87.75
3782.677	-83.75
3785.343	-88.75
3788.007	-87.75
3790.67	-90.75
3793.33	-91.75
3795.989	-89.75
3798.645	-89.75
3801.299	-96.75
3803.952	-94.75
3806.602	-93.75
3809.251	-95.75
3811.897	-93.75
3814.542	-93.75
3817.184	-91.75
3819.825	-86.75
3822.463	-89.75
3825.1	-86.75
3827.735	-91.75
3830.367	-90.75
3832.998	-94.75
3835.627	-93.75
3838.253	-95.75
3840.878	-94.75
3843.501	-94.75
3846.122	-96.75
3848.741	-94.75
3851.358	-91.75
3853.973	-97.75
3856.586	-97.75
3859.197	-97.75
3861.806	-97.75
3864.414	-97.75
3867.019	-93.75
3869.622	-93.75
3872.224	-95.75
3874.823	-93.75
3877.421	-86.75
3880.016	-87.75
3882.61	-83.75
3885.202	-85.75
3887.792	-86.75
3890.38	-93.75
3892.966	-96.75
3895.55	-97.75
3898.132	-92.75
3900.713	-97.75
3903.291	-96.75
3905.868	-94.75
3908.442	-93.75
3911.015	-96.75
3913.586	-93.75
3916.155	-97.75
3918.722	-97.75
3921.287	-95.75
3923.85	-94.75
3926.411	-98.75
3928.971	-97.75
3931.528	-94.75
3934.084	-96.75
3936.638	-98.75
3939.19	-96.75
3941.74	-100.75
3944.288	-100.75
3946.834	-95.75
3949.378	-98.75
3951.921	-95.75
3954.462	-99.75
3957	-97.75
3959.537	-89.75
3962.072	-97.75
3964.606	-96.75
3967.137	-95.75
3969.667	-96.75
3972.194	-97.75
3974.72	-95.75
3977.244	-97.75
3979.766	-99.75
3982.286	-97.75
3984.805	-98.75
3987.321	-96.75
3989.836	-95.75
3992.349	-96.75
3994.86	-97.75
3997.369	-94.75
3999.877	-97.75
4002.382	-94.75
4004.886	-95.75
4007.388	-94.75
4009.888	-97.75
4012.386	-94.75
4014.883	-94.75
4017.377	-95.75
4019.87	-100.75
4022.361	-98.75
4024.85	-99.75
4027.338	-97.75
4029.823	-100.75
4032.307	-95.75
4034.789	-98.75
4037.269	-90.75
4039.747	-88.75
4042.224	-93.75
4044.699	-98.75
4047.172	-90.75
4049.643	-101.75
4052.112	-102.75
4054.58	-98.75
4057.046	-97.75
4059.51	-101.75
4061.972	-94.75
4064.432	-99.75
4066.891	-95.75
4069.348	-95.75
4071.803	-98.75
4074.256	-96.75
4076.708	-94.75
4079.158	-95.75
4081.606	-96.75
4084.052	-98.75
4086.497	-96.75
4088.939	-92.75
4091.38	-94.75
4093.819	-97.75
4096.257	-97.75
4098.693	-101.75
4101.127	-103.75
4103.559	-99.75
4105.989	-64.75
4108.418	-58.75
4110.845	-63.75
4113.27	-53.75
4115.694	-42.75
4118.115	-37.75
4120.535	-101.75
4122.954	-95.75
4125.37	-98.75
4127.785	-100.75
4130.198	-101.75
4132.609	-96.75
4135.019	-98.75
4137.427	-100.75
4139.833	-99.75
4142.237	-94.75
