Data from Bsub_water_0CFU3_RamanShift_1.txt Node
Date: Wed Feb 22 12:39:36 IST 2017
User: aro
Spectrometer: QEPB0276
Trigger mode: 0
Integration Time (sec): 5.000000E0
Scans to average: 1
Electric dark correction enabled: true
Nonlinearity correction enabled: false
Boxcar width: 0
XAxis mode: Raman Shifts
Number of Pixels in Spectrum: 1044
>>>>>Begin Spectral Data<<<<<
160.701	-33.5
166.742	2.5
172.777	110.5
178.805	415.5
184.826	1178.5
190.841	2450.5
196.849	3844.5
202.85	4784.5
208.845	5005.5
214.833	4854.5
220.815	4710.5
226.789	4550.5
232.758	4460.5
238.719	4337.5
244.674	4208.5
250.623	4022.5
256.565	3872.5
262.5	3688.5
268.429	3517.5
274.351	3393.5
280.267	3304.5
286.176	3217.5
292.079	3114.5
297.975	3003.5
303.865	2930.5
309.748	2835.5
315.625	2796.5
321.495	2753.5
327.359	2707.5
333.217	2674.5
339.068	2656.5
344.912	2652.5
350.751	2633.5
356.583	2654.5
362.408	2642.5
368.227	2635.5
374.04	2638.5
379.847	2633.5
385.647	2675.5
391.44	2692.5
397.228	2701.5
403.009	2720.5
408.784	2727.5
414.553	2722.5
420.315	2727.5
426.071	2751.5
431.821	2733.5
437.565	2758.5
443.302	2747.5
449.033	2749.5
454.758	2725.5
460.477	2723.5
466.189	2712.5
471.896	2717.5
477.596	2691.5
483.29	2691.5
488.978	2677.5
494.66	2666.5
500.335	2649.5
506.005	2595.5
511.668	2574.5
517.325	2524.5
522.977	2495.5
528.622	2467.5
534.261	2437.5
539.894	2425.5
545.521	2408.5
551.141	2391.5
556.756	2394.5
562.365	2376.5
567.968	2374.5
573.565	2349.5
579.155	2352.5
584.74	2321.5
590.319	2325.5
595.892	2295.5
601.459	2296.5
607.02	2272.5
612.575	2269.5
618.124	2227.5
623.667	2214.5
629.204	2203.5
634.735	2197.5
640.261	2202.5
645.781	2155.5
651.294	2161.5
656.802	2147.5
662.304	2138.5
667.8	2139.5
673.29	2137.5
678.775	2129.5
684.254	2120.5
689.726	2104.5
695.193	2117.5
700.655	2108.5
706.11	2107.5
711.56	2066.5
717.004	2074.5
722.442	2041.5
727.874	2056.5
733.301	2033.5
738.722	2045.5
744.137	1992.5
749.547	2029.5
754.951	2018.5
760.349	2001.5
765.741	2028.5
771.128	2010.5
776.509	2020.5
781.885	2037.5
787.254	2023.5
792.618	2004.5
797.977	1999.5
803.33	1976.5
808.677	1976.5
814.019	1948.5
819.355	1943.5
824.686	1917.5
830.011	1913.5
835.33	1891.5
840.644	1900.5
845.952	1895.5
851.255	1896.5
856.552	1887.5
861.844	1878.5
867.13	1875.5
872.41	1886.5
877.686	1846.5
882.955	1854.5
888.219	1827.5
893.478	1785.5
898.731	1770.5
903.979	1726.5
909.221	1747.5
914.458	1723.5
919.69	1725.5
924.916	1745.5
930.136	1719.5
935.351	1734.5
940.561	1709.5
945.766	1717.5
950.965	1715.5
956.158	1709.5
961.347	1678.5
966.529	1664.5
971.707	1623.5
976.879	1619.5
982.046	1600.5
987.208	1602.5
992.364	1582.5
997.515	1605.5
1002.66	1627.5
1007.801	1629.5
1012.936	1648.5
1018.066	1668.5
1023.19	1664.5
1028.309	1697.5
1033.423	1658.5
1038.532	1666.5
1043.636	1658.5
1048.734	1627.5
1053.827	1613.5
1058.915	1596.5
1063.998	1588.5
1069.075	1610.5
1074.147	1613.5
1079.214	1609.5
1084.276	1621.5
1089.333	1630.5
1094.385	1633.5
1099.431	1671.5
1104.472	1660.5
1109.509	1656.5
1114.54	1625.5
1119.565	1621.5
1124.586	1592.5
1129.602	1595.5
1134.613	1575.5
1139.618	1568.5
1144.619	1575.5
1149.614	1587.5
1154.604	1581.5
1159.589	1578.5
1164.57	1584.5
1169.545	1626.5
1174.515	1596.5
1179.48	1591.5
1184.44	1589.5
1189.395	1583.5
1194.345	1564.5
1199.29	1578.5
1204.23	1565.5
1209.165	1569.5
1214.095	1608.5
1219.021	1610.5
1223.941	1593.5
1228.856	1617.5
1233.766	1628.5
1238.672	1617.5
1243.572	1616.5
1248.467	1613.5
1253.358	1602.5
1258.244	1581.5
1263.124	1561.5
1268	1526.5
1272.871	1527.5
1277.737	1510.5
1282.599	1498.5
1287.455	1499.5
1292.306	1500.5
1297.153	1524.5
1301.995	1537.5
1306.832	1545.5
1311.664	1549.5
1316.491	1566.5
1321.314	1557.5
1326.132	1537.5
1330.945	1515.5
1335.753	1472.5
1340.556	1464.5
1345.354	1417.5
1350.148	1389.5
1354.937	1398.5
1359.722	1400.5
1364.501	1427.5
1369.276	1444.5
1374.046	1477.5
1378.811	1501.5
1383.572	1504.5
1388.327	1493.5
1393.079	1478.5
1397.825	1454.5
1402.567	1429.5
1407.304	1389.5
1412.036	1402.5
1416.764	1374.5
1421.487	1355.5
1426.205	1361.5
1430.919	1384.5
1435.628	1384.5
1440.333	1411.5
1445.032	1397.5
1449.727	1426.5
1454.418	1398.5
1459.104	1411.5
1463.785	1413.5
1468.462	1385.5
1473.134	1383.5
1477.802	1366.5
1482.465	1349.5
1487.123	1340.5
1491.777	1359.5
1496.426	1362.5
1501.071	1390.5
1505.711	1420.5
1510.347	1447.5
1514.978	1453.5
1519.604	1450.5
1524.226	1486.5
1528.844	1491.5
1533.457	1504.5
1538.065	1491.5
1542.669	1482.5
1547.269	1482.5
1551.864	1479.5
1556.454	1484.5
1561.041	1482.5
1565.622	1510.5
1570.199	1518.5
1574.772	1513.5
1579.34	1535.5
1583.904	1562.5
1588.464	1599.5
1593.019	1592.5
1597.569	1594.5
1602.115	1602.5
1606.657	1609.5
1611.195	1620.5
1615.728	1629.5
1620.256	1644.5
1624.78	1643.5
1629.3	1669.5
1633.816	1695.5
1638.327	1707.5
1642.834	1727.5
1647.336	1737.5
1651.834	1757.5
1656.328	1724.5
1660.817	1736.5
1665.302	1709.5
1669.783	1688.5
1674.259	1651.5
1678.732	1597.5
1683.199	1553.5
1687.663	1485.5
1692.122	1420.5
1696.577	1403.5
1701.028	1379.5
1705.474	1385.5
1709.917	1389.5
1714.355	1353.5
1718.788	1315.5
1723.218	1288.5
1727.643	1266.5
1732.064	1240.5
1736.481	1212.5
1740.893	1168.5
1745.301	1156.5
1749.705	1134.5
1754.105	1072.5
1758.501	1070.5
1762.893	1040.5
1767.28	1023.5
1771.663	1023.5
1776.042	1007.5
1780.417	994.5
1784.787	1021.5
1789.154	1017.5
1793.516	1055.5
1797.874	1058.5
1802.228	1066.5
1806.578	1070.5
1810.924	1061.5
1815.266	1052.5
1819.603	1045.5
1823.937	1016.5
1828.266	997.5
1832.591	986.5
1836.913	980.5
1841.23	978.5
1845.543	960.5
1849.852	954.5
1854.156	964.5
1858.457	953.5
1862.754	972.5
1867.047	971.5
1871.335	977.5
1875.62	966.5
1879.9	971.5
1884.177	960.5
1888.449	961.5
1892.718	945.5
1896.982	960.5
1901.243	955.5
1905.499	948.5
1909.752	952.5
1914	932.5
1918.245	950.5
1922.485	956.5
1926.722	970.5
1930.954	972.5
1935.183	983.5
1939.408	975.5
1943.628	975.5
1947.845	993.5
1952.058	985.5
1956.267	989.5
1960.472	980.5
1964.673	967.5
1968.87	958.5
1973.063	948.5
1977.252	942.5
1981.438	927.5
1985.619	928.5
1989.797	935.5
1993.971	940.5
1998.14	925.5
2002.306	911.5
2006.469	924.5
2010.627	917.5
2014.781	925.5
2018.932	927.5
2023.078	923.5
2027.221	913.5
2031.36	902.5
2035.495	892.5
2039.627	879.5
2043.754	889.5
2047.878	871.5
2051.998	873.5
2056.114	883.5
2060.226	886.5
2064.334	876.5
2068.439	898.5
2072.54	895.5
2076.637	896.5
2080.73	902.5
2084.82	904.5
2088.906	909.5
2092.988	918.5
2097.066	921.5
2101.14	891.5
2105.211	911.5
2109.278	901.5
2113.342	898.5
2117.401	883.5
2121.457	880.5
2125.509	873.5
2129.558	895.5
2133.602	860.5
2137.643	873.5
2141.681	863.5
2145.714	861.5
2149.744	874.5
2153.77	857.5
2157.793	851.5
2161.812	843.5
2165.827	832.5
2169.838	821.5
2173.846	812.5
2177.851	785.5
2181.851	778.5
2185.848	768.5
2189.841	758.5
2193.831	766.5
2197.817	755.5
2201.799	741.5
2205.778	735.5
2209.753	738.5
2213.725	753.5
2217.693	752.5
2221.657	730.5
2225.618	733.5
2229.575	729.5
2233.529	717.5
2237.479	725.5
2241.425	728.5
2245.368	717.5
2249.307	693.5
2253.243	702.5
2257.175	676.5
2261.104	678.5
2265.029	660.5
2268.95	666.5
2272.868	653.5
2276.783	647.5
2280.694	635.5
2284.601	634.5
2288.505	617.5
2292.405	613.5
2296.302	622.5
2300.195	607.5
2304.085	602.5
2307.971	584.5
2311.854	588.5
2315.734	565.5
2319.609	562.5
2323.482	558.5
2327.351	547.5
2331.216	549.5
2335.078	546.5
2338.937	533.5
2342.792	550.5
2346.643	535.5
2350.492	531.5
2354.336	523.5
2358.178	524.5
2362.015	516.5
2365.85	537.5
2369.681	529.5
2373.508	523.5
2377.333	520.5
2381.153	519.5
2384.971	523.5
2388.785	521.5
2392.595	516.5
2396.402	520.5
2400.206	518.5
2404.007	499.5
2407.804	496.5
2411.597	503.5
2415.388	495.5
2419.174	496.5
2422.958	498.5
2426.738	493.5
2430.515	484.5
2434.289	495.5
2438.059	487.5
2441.825	474.5
2445.589	476.5
2449.349	461.5
2453.106	469.5
2456.859	465.5
2460.61	461.5
2464.356	453.5
2468.1	457.5
2471.84	450.5
2475.577	443.5
2479.311	434.5
2483.041	433.5
2486.768	444.5
2490.492	439.5
2494.213	447.5
2497.93	447.5
2501.644	442.5
2505.355	440.5
2509.062	441.5
2512.766	446.5
2516.467	451.5
2520.165	436.5
2523.859	435.5
2527.551	429.5
2531.239	428.5
2534.923	425.5
2538.605	433.5
2542.283	423.5
2545.958	419.5
2549.63	425.5
2553.299	422.5
2556.964	409.5
2560.626	405.5
2564.285	407.5
2567.941	421.5
2571.594	405.5
2575.243	399.5
2578.89	408.5
2582.533	400.5
2586.173	384.5
2589.809	384.5
2593.443	396.5
2597.073	385.5
2600.701	387.5
2604.325	382.5
2607.946	386.5
2611.564	382.5
2615.178	376.5
2618.79	376.5
2622.398	376.5
2626.004	381.5
2629.606	367.5
2633.205	368.5
2636.801	368.5
2640.394	360.5
2643.983	354.5
2647.57	358.5
2651.153	347.5
2654.734	344.5
2658.311	352.5
2661.885	342.5
2665.456	337.5
2669.025	332.5
2672.589	325.5
2676.151	326.5
2679.71	324.5
2683.266	315.5
2686.819	313.5
2690.368	314.5
2693.915	310.5
2697.458	307.5
2700.999	296.5
2704.536	290.5
2708.071	296.5
2711.602	284.5
2715.13	265.5
2718.656	287.5
2722.178	280.5
2725.697	284.5
2729.214	276.5
2732.727	287.5
2736.237	289.5
2739.744	294.5
2743.249	290.5
2746.75	293.5
2750.248	288.5
2753.743	283.5
2757.236	294.5
2760.725	300.5
2764.211	297.5
2767.695	299.5
2771.175	296.5
2774.652	299.5
2778.127	293.5
2781.598	296.5
2785.067	292.5
2788.532	289.5
2791.995	287.5
2795.455	287.5
2798.911	287.5
2802.365	280.5
2805.816	288.5
2809.264	286.5
2812.709	291.5
2816.151	286.5
2819.59	288.5
2823.026	283.5
2826.46	285.5
2829.89	283.5
2833.318	286.5
2836.742	285.5
2840.164	282.5
2843.583	287.5
2846.999	290.5
2850.412	291.5
2853.822	297.5
2857.229	292.5
2860.634	299.5
2864.035	303.5
2867.434	298.5
2870.83	305.5
2874.223	299.5
2877.613	305.5
2881	306.5
2884.385	309.5
2887.766	314.5
2891.145	307.5
2894.521	306.5
2897.894	304.5
2901.264	304.5
2904.631	310.5
2907.996	316.5
2911.358	313.5
2914.717	318.5
2918.073	331.5
2921.426	324.5
2924.777	326.5
2928.124	327.5
2931.469	325.5
2934.811	332.5
2938.15	339.5
2941.487	344.5
2944.821	338.5
2948.152	346.5
2951.48	360.5
2954.805	357.5
2958.128	366.5
2961.447	372.5
2964.765	374.5
2968.079	389.5
2971.39	377.5
2974.699	400.5
2978.005	415.5
2981.308	406.5
2984.609	429.5
2987.907	432.5
2991.202	449.5
2994.494	462.5
2997.784	478.5
3001.07	486.5
3004.355	501.5
3007.636	500.5
3010.915	514.5
3014.191	530.5
3017.464	537.5
3020.734	543.5
3024.002	544.5
3027.267	552.5
3030.53	571.5
3033.789	573.5
3037.046	575.5
3040.301	581.5
3043.552	607.5
3046.801	603.5
3050.048	631.5
3053.291	656.5
3056.532	648.5
3059.771	680.5
3063.006	689.5
3066.239	723.5
3069.469	734.5
3072.697	754.5
3075.922	774.5
3079.144	791.5
3082.364	821.5
3085.581	818.5
3088.795	854.5
3092.007	856.5
3095.216	870.5
3098.423	888.5
3101.627	920.5
3104.828	941.5
3108.026	974.5
3111.222	976.5
3114.416	1009.5
3117.607	1020.5
3120.795	1048.5
3123.98	1063.5
3127.163	1086.5
3130.344	1122.5
3133.521	1128.5
3136.696	1176.5
3139.869	1187.5
3143.039	1205.5
3146.206	1234.5
3149.371	1223.5
3152.533	1245.5
3155.693	1253.5
3158.85	1277.5
3162.005	1250.5
3165.157	1259.5
3168.306	1279.5
3171.453	1280.5
3174.597	1288.5
3177.739	1281.5
3180.878	1286.5
3184.014	1312.5
3187.149	1299.5
3190.28	1310.5
3193.409	1304.5
3196.536	1304.5
3199.659	1323.5
3202.781	1320.5
3205.9	1314.5
3209.016	1326.5
3212.13	1319.5
3215.241	1303.5
3218.35	1308.5
3221.456	1286.5
3224.56	1271.5
3227.661	1274.5
3230.76	1241.5
3233.856	1250.5
3236.95	1234.5
3240.041	1233.5
3243.13	1225.5
3246.216	1232.5
3249.3	1208.5
3252.382	1213.5
3255.46	1208.5
3258.537	1193.5
3261.611	1193.5
3264.682	1189.5
3267.751	1194.5
3270.818	1182.5
3273.882	1174.5
3276.943	1162.5
3280.002	1164.5
3283.059	1149.5
3286.113	1132.5
3289.165	1115.5
3292.214	1085.5
3295.261	1075.5
3298.306	1067.5
3301.348	1053.5
3304.387	1037.5
3307.425	1026.5
3310.459	996.5
3313.492	994.5
3316.521	975.5
3319.549	976.5
3322.574	956.5
3325.597	934.5
3328.617	930.5
3331.635	929.5
3334.65	918.5
3337.663	920.5
3340.674	912.5
3343.682	915.5
3346.688	910.5
3349.691	911.5
3352.692	914.5
3355.691	902.5
3358.687	890.5
3361.681	890.5
3364.673	869.5
3367.662	849.5
3370.649	837.5
3373.633	848.5
3376.615	829.5
3379.595	799.5
3382.572	800.5
3385.547	791.5
3388.52	779.5
3391.49	779.5
3394.458	765.5
3397.424	759.5
3400.387	746.5
3403.348	727.5
3406.307	729.5
3409.263	719.5
3412.217	701.5
3415.168	691.5
3418.118	701.5
3421.065	681.5
3424.009	683.5
3426.951	672.5
3429.891	659.5
3432.829	647.5
3435.764	628.5
3438.697	615.5
3441.628	598.5
3444.557	585.5
3447.483	568.5
3450.407	569.5
3453.328	537.5
3456.247	535.5
3459.164	518.5
3462.079	505.5
3464.991	490.5
3467.902	472.5
3470.809	453.5
3473.715	443.5
3476.618	438.5
3479.519	423.5
3482.418	410.5
3485.315	404.5
3488.209	394.5
3491.101	382.5
3493.99	363.5
3496.878	369.5
3499.763	356.5
3502.646	343.5
3505.527	334.5
3508.405	313.5
3511.281	297.5
3514.155	290.5
3517.027	282.5
3519.897	274.5
3522.764	254.5
3525.629	238.5
3528.492	226.5
3531.352	217.5
3534.211	205.5
3537.067	190.5
3539.921	182.5
3542.773	172.5
3545.622	157.5
3548.469	151.5
3551.315	137.5
3554.157	138.5
3556.998	128.5
3559.837	122.5
3562.673	111.5
3565.507	108.5
3568.339	93.5
3571.169	89.5
3573.996	80.5
3576.822	82.5
3579.645	69.5
3582.466	66.5
3585.285	58.5
3588.101	50.5
3590.916	47.5
3593.728	42.5
3596.538	34.5
3599.346	32.5
3602.152	26.5
3604.956	25.5
3607.757	10.5
3610.556	11.5
3613.354	6.5
3616.149	6.5
3618.942	1.5
3621.732	-2.5
3624.521	-11.5
3627.307	-12.5
3630.092	-18.5
3632.874	-18.5
3635.654	-22.5
3638.432	-27.5
3641.208	-27.5
3643.982	-37.5
3646.753	-32.5
3649.523	-38.5
3652.29	-36.5
3655.055	-43.5
3657.818	-44.5
3660.579	-47.5
3663.338	-51.5
3666.095	-53.5
3668.849	-60.5
3671.602	-61.5
3674.352	-69.5
3677.101	-68.5
3679.847	-67.5
3682.591	-69.5
3685.333	-71.5
3688.073	-75.5
3690.811	-72.5
3693.547	-76.5
3696.281	-80.5
3699.013	-80.5
3701.742	-79.5
3704.47	-84.5
3707.195	-87.5
3709.919	-83.5
3712.64	-86.5
3715.359	-88.5
3718.076	-92.5
3720.792	-91.5
3723.505	-90.5
3726.216	-90.5
3728.925	-89.5
3731.632	-93.5
3734.336	-96.5
3737.039	-92.5
3739.74	-97.5
3742.439	-100.5
3745.136	-101.5
3747.83	-102.5
3750.523	-99.5
3753.213	-97.5
3755.902	-105.5
3758.589	-100.5
3761.273	-104.5
3763.956	-103.5
3766.636	-105.5
3769.315	-101.5
3771.991	-107.5
3774.665	-105.5
3777.338	-106.5
3780.008	-108.5
3782.677	-107.5
3785.343	-110.5
3788.007	-107.5
3790.67	-106.5
3793.33	-111.5
3795.989	-106.5
3798.645	-108.5
3801.299	-115.5
3803.952	-116.5
3806.602	-110.5
3809.251	-110.5
3811.897	-109.5
3814.542	-110.5
3817.184	-108.5
3819.825	-105.5
3822.463	-109.5
3825.1	-108.5
3827.735	-108.5
3830.367	-112.5
3832.998	-112.5
3835.627	-117.5
3838.253	-112.5
3840.878	-116.5
3843.501	-113.5
3846.122	-113.5
3848.741	-114.5
3851.358	-112.5
3853.973	-110.5
3856.586	-116.5
3859.197	-115.5
3861.806	-120.5
3864.414	-120.5
3867.019	-118.5
3869.622	-118.5
3872.224	-115.5
3874.823	-112.5
3877.421	-107.5
3880.016	-109.5
3882.61	-105.5
3885.202	-107.5
3887.792	-106.5
3890.38	-114.5
3892.966	-119.5
3895.55	-117.5
3898.132	-117.5
3900.713	-118.5
3903.291	-116.5
3905.868	-114.5
3908.442	-114.5
3911.015	-116.5
3913.586	-118.5
3916.155	-121.5
3918.722	-119.5
3921.287	-118.5
3923.85	-122.5
3926.411	-123.5
3928.971	-119.5
3931.528	-117.5
3934.084	-120.5
3936.638	-117.5
3939.19	-117.5
3941.74	-114.5
3944.288	-124.5
3946.834	-116.5
3949.378	-122.5
3951.921	-117.5
3954.462	-122.5
3957	-122.5
3959.537	-116.5
3962.072	-119.5
3964.606	-118.5
3967.137	-118.5
3969.667	-115.5
3972.194	-117.5
3974.72	-122.5
3977.244	-118.5
3979.766	-116.5
3982.286	-115.5
3984.805	-115.5
3987.321	-119.5
3989.836	-121.5
3992.349	-116.5
3994.86	-122.5
3997.369	-116.5
3999.877	-122.5
4002.382	-115.5
4004.886	-117.5
4007.388	-117.5
4009.888	-116.5
4012.386	-116.5
4014.883	-116.5
4017.377	-118.5
4019.87	-123.5
4022.361	-118.5
4024.85	-122.5
4027.338	-119.5
4029.823	-121.5
4032.307	-119.5
4034.789	-119.5
4037.269	-116.5
4039.747	-114.5
4042.224	-117.5
4044.699	-121.5
4047.172	-120.5
4049.643	-123.5
4052.112	-124.5
4054.58	-121.5
4057.046	-119.5
4059.51	-121.5
4061.972	-115.5
4064.432	-120.5
4066.891	-117.5
4069.348	-119.5
4071.803	-120.5
4074.256	-119.5
4076.708	-119.5
4079.158	-120.5
4081.606	-119.5
4084.052	-122.5
4086.497	-119.5
4088.939	-118.5
4091.38	-119.5
4093.819	-122.5
4096.257	-119.5
4098.693	-121.5
4101.127	-122.5
4103.559	-122.5
4105.989	-79.5
4108.418	-75.5
4110.845	-75.5
4113.27	-68.5
4115.694	-57.5
4118.115	-48.5
4120.535	-119.5
4122.954	-118.5
4125.37	-117.5
4127.785	-118.5
4130.198	-120.5
4132.609	-116.5
4135.019	-121.5
4137.427	-123.5
4139.833	-124.5
4142.237	-125.5
