Data from Bsub_water_DIL103_B_1_RamanShift_1.txt Node
Date: Wed Feb 22 13:26:56 IST 2017
User: aro
Spectrometer: QEPB0276
Trigger mode: 0
Integration Time (sec): 5.000000E0
Scans to average: 1
Electric dark correction enabled: true
Nonlinearity correction enabled: false
Boxcar width: 0
XAxis mode: Raman Shifts
Number of Pixels in Spectrum: 1044
>>>>>Begin Spectral Data<<<<<
160.701	-36.5
166.742	4.5
172.777	93.5
178.805	400.5
184.826	1116.5
190.841	2327.5
196.849	3716.5
202.85	4650.5
208.845	4863.5
214.833	4697.5
220.815	4550.5
226.789	4396.5
232.758	4288.5
238.719	4132.5
244.674	3959.5
250.623	3802.5
256.565	3621.5
262.5	3457.5
268.429	3278.5
274.351	3128.5
280.267	3025.5
286.176	2933.5
292.079	2795.5
297.975	2703.5
303.865	2609.5
309.748	2537.5
315.625	2486.5
321.495	2415.5
327.359	2387.5
333.217	2370.5
339.068	2336.5
344.912	2306.5
350.751	2338.5
356.583	2311.5
362.408	2286.5
368.227	2308.5
374.04	2325.5
379.847	2336.5
385.647	2379.5
391.44	2353.5
397.228	2380.5
403.009	2373.5
408.784	2421.5
414.553	2429.5
420.315	2428.5
426.071	2401.5
431.821	2394.5
437.565	2427.5
443.302	2407.5
449.033	2415.5
454.758	2381.5
460.477	2370.5
466.189	2376.5
471.896	2372.5
477.596	2349.5
483.29	2325.5
488.978	2320.5
494.66	2297.5
500.335	2291.5
506.005	2244.5
511.668	2185.5
517.325	2154.5
522.977	2108.5
528.622	2102.5
534.261	2068.5
539.894	2052.5
545.521	2027.5
551.141	2032.5
556.756	2004.5
562.365	1992.5
567.968	1983.5
573.565	1964.5
579.155	1957.5
584.74	1950.5
590.319	1908.5
595.892	1917.5
601.459	1914.5
607.02	1870.5
612.575	1864.5
618.124	1840.5
623.667	1831.5
629.204	1820.5
634.735	1794.5
640.261	1797.5
645.781	1784.5
651.294	1772.5
656.802	1774.5
662.304	1752.5
667.8	1751.5
673.29	1751.5
678.775	1747.5
684.254	1716.5
689.726	1707.5
695.193	1706.5
700.655	1699.5
706.11	1680.5
711.56	1666.5
717.004	1643.5
722.442	1645.5
727.874	1621.5
733.301	1619.5
738.722	1606.5
744.137	1602.5
749.547	1605.5
754.951	1607.5
760.349	1592.5
765.741	1606.5
771.128	1605.5
776.509	1596.5
781.885	1576.5
787.254	1588.5
792.618	1585.5
797.977	1576.5
803.33	1547.5
808.677	1534.5
814.019	1526.5
819.355	1508.5
824.686	1487.5
830.011	1490.5
835.33	1480.5
840.644	1474.5
845.952	1471.5
851.255	1462.5
856.552	1453.5
861.844	1429.5
867.13	1441.5
872.41	1419.5
877.686	1395.5
882.955	1377.5
888.219	1359.5
893.478	1330.5
898.731	1322.5
903.979	1311.5
909.221	1290.5
914.458	1271.5
919.69	1262.5
924.916	1268.5
930.136	1262.5
935.351	1251.5
940.561	1254.5
945.766	1242.5
950.965	1234.5
956.158	1223.5
961.347	1212.5
966.529	1182.5
971.707	1184.5
976.879	1153.5
982.046	1144.5
987.208	1149.5
992.364	1154.5
997.515	1144.5
1002.66	1156.5
1007.801	1162.5
1012.936	1171.5
1018.066	1193.5
1023.19	1185.5
1028.309	1192.5
1033.423	1186.5
1038.532	1171.5
1043.636	1173.5
1048.734	1159.5
1053.827	1135.5
1058.915	1118.5
1063.998	1123.5
1069.075	1124.5
1074.147	1144.5
1079.214	1120.5
1084.276	1128.5
1089.333	1126.5
1094.385	1155.5
1099.431	1154.5
1104.472	1157.5
1109.509	1145.5
1114.54	1140.5
1119.565	1129.5
1124.586	1097.5
1129.602	1075.5
1134.613	1087.5
1139.618	1079.5
1144.619	1078.5
1149.614	1091.5
1154.604	1096.5
1159.589	1098.5
1164.57	1099.5
1169.545	1106.5
1174.515	1134.5
1179.48	1107.5
1184.44	1104.5
1189.395	1094.5
1194.345	1090.5
1199.29	1074.5
1204.23	1084.5
1209.165	1097.5
1214.095	1093.5
1219.021	1093.5
1223.941	1101.5
1228.856	1118.5
1233.766	1120.5
1238.672	1117.5
1243.572	1118.5
1248.467	1125.5
1253.358	1091.5
1258.244	1079.5
1263.124	1074.5
1268	1048.5
1272.871	1036.5
1277.737	1024.5
1282.599	1023.5
1287.455	1041.5
1292.306	1027.5
1297.153	1033.5
1301.995	1039.5
1306.832	1062.5
1311.664	1071.5
1316.491	1063.5
1321.314	1050.5
1326.132	1036.5
1330.945	1020.5
1335.753	1010.5
1340.556	996.5
1345.354	975.5
1350.148	938.5
1354.937	950.5
1359.722	941.5
1364.501	954.5
1369.276	973.5
1374.046	986.5
1378.811	984.5
1383.572	1012.5
1388.327	988.5
1393.079	973.5
1397.825	963.5
1402.567	945.5
1407.304	934.5
1412.036	939.5
1416.764	928.5
1421.487	916.5
1426.205	911.5
1430.919	920.5
1435.628	923.5
1440.333	938.5
1445.032	948.5
1449.727	954.5
1454.418	937.5
1459.104	949.5
1463.785	935.5
1468.462	927.5
1473.134	923.5
1477.802	910.5
1482.465	911.5
1487.123	920.5
1491.777	910.5
1496.426	923.5
1501.071	926.5
1505.711	948.5
1510.347	968.5
1514.978	971.5
1519.604	995.5
1524.226	998.5
1528.844	997.5
1533.457	1016.5
1538.065	1014.5
1542.669	1003.5
1547.269	1015.5
1551.864	1001.5
1556.454	1007.5
1561.041	1024.5
1565.622	1031.5
1570.199	1050.5
1574.772	1060.5
1579.34	1092.5
1583.904	1080.5
1588.464	1119.5
1593.019	1127.5
1597.569	1137.5
1602.115	1141.5
1606.657	1168.5
1611.195	1170.5
1615.728	1192.5
1620.256	1187.5
1624.78	1223.5
1629.3	1234.5
1633.816	1266.5
1638.327	1275.5
1642.834	1285.5
1647.336	1286.5
1651.834	1299.5
1656.328	1313.5
1660.817	1289.5
1665.302	1251.5
1669.783	1250.5
1674.259	1206.5
1678.732	1154.5
1683.199	1115.5
1687.663	1083.5
1692.122	1023.5
1696.577	982.5
1701.028	967.5
1705.474	951.5
1709.917	931.5
1714.355	909.5
1718.788	873.5
1723.218	853.5
1727.643	832.5
1732.064	811.5
1736.481	785.5
1740.893	757.5
1745.301	722.5
1749.705	714.5
1754.105	684.5
1758.501	662.5
1762.893	647.5
1767.28	626.5
1771.663	624.5
1776.042	618.5
1780.417	616.5
1784.787	618.5
1789.154	615.5
1793.516	630.5
1797.874	623.5
1802.228	640.5
1806.578	636.5
1810.924	636.5
1815.266	616.5
1819.603	606.5
1823.937	593.5
1828.266	588.5
1832.591	571.5
1836.913	574.5
1841.23	558.5
1845.543	554.5
1849.852	547.5
1854.156	548.5
1858.457	555.5
1862.754	555.5
1867.047	558.5
1871.335	562.5
1875.62	563.5
1879.9	561.5
1884.177	569.5
1888.449	551.5
1892.718	552.5
1896.982	560.5
1901.243	552.5
1905.499	541.5
1909.752	550.5
1914	545.5
1918.245	545.5
1922.485	555.5
1926.722	566.5
1930.954	570.5
1935.183	565.5
1939.408	581.5
1943.628	578.5
1947.845	576.5
1952.058	573.5
1956.267	584.5
1960.472	570.5
1964.673	576.5
1968.87	560.5
1973.063	554.5
1977.252	556.5
1981.438	547.5
1985.619	546.5
1989.797	546.5
1993.971	544.5
1998.14	544.5
2002.306	543.5
2006.469	549.5
2010.627	548.5
2014.781	552.5
2018.932	547.5
2023.078	561.5
2027.221	544.5
2031.36	543.5
2035.495	540.5
2039.627	521.5
2043.754	525.5
2047.878	535.5
2051.998	527.5
2056.114	526.5
2060.226	542.5
2064.334	540.5
2068.439	544.5
2072.54	546.5
2076.637	554.5
2080.73	548.5
2084.82	540.5
2088.906	564.5
2092.988	566.5
2097.066	553.5
2101.14	551.5
2105.211	550.5
2109.278	538.5
2113.342	555.5
2117.401	547.5
2121.457	540.5
2125.509	538.5
2129.558	533.5
2133.602	531.5
2137.643	523.5
2141.681	533.5
2145.714	520.5
2149.744	532.5
2153.77	523.5
2157.793	520.5
2161.812	500.5
2165.827	502.5
2169.838	504.5
2173.846	491.5
2177.851	479.5
2181.851	466.5
2185.848	466.5
2189.841	450.5
2193.831	456.5
2197.817	449.5
2201.799	441.5
2205.778	444.5
2209.753	429.5
2213.725	439.5
2217.693	447.5
2221.657	449.5
2225.618	433.5
2229.575	435.5
2233.529	438.5
2237.479	426.5
2241.425	426.5
2245.368	416.5
2249.307	398.5
2253.243	404.5
2257.175	394.5
2261.104	392.5
2265.029	377.5
2268.95	374.5
2272.868	367.5
2276.783	371.5
2280.694	365.5
2284.601	363.5
2288.505	352.5
2292.405	354.5
2296.302	351.5
2300.195	351.5
2304.085	348.5
2307.971	329.5
2311.854	334.5
2315.734	317.5
2319.609	314.5
2323.482	305.5
2327.351	304.5
2331.216	301.5
2335.078	298.5
2338.937	296.5
2342.792	299.5
2346.643	288.5
2350.492	289.5
2354.336	288.5
2358.178	285.5
2362.015	293.5
2365.85	289.5
2369.681	291.5
2373.508	278.5
2377.333	285.5
2381.153	284.5
2384.971	279.5
2388.785	288.5
2392.595	280.5
2396.402	271.5
2400.206	269.5
2404.007	262.5
2407.804	259.5
2411.597	258.5
2415.388	264.5
2419.174	257.5
2422.958	261.5
2426.738	257.5
2430.515	251.5
2434.289	257.5
2438.059	254.5
2441.825	244.5
2445.589	248.5
2449.349	249.5
2453.106	250.5
2456.859	242.5
2460.61	238.5
2464.356	244.5
2468.1	234.5
2471.84	233.5
2475.577	225.5
2479.311	222.5
2483.041	231.5
2486.768	228.5
2490.492	222.5
2494.213	224.5
2497.93	229.5
2501.644	227.5
2505.355	227.5
2509.062	229.5
2512.766	224.5
2516.467	226.5
2520.165	219.5
2523.859	218.5
2527.551	218.5
2531.239	212.5
2534.923	218.5
2538.605	215.5
2542.283	213.5
2545.958	210.5
2549.63	212.5
2553.299	212.5
2556.964	212.5
2560.626	204.5
2564.285	201.5
2567.941	208.5
2571.594	196.5
2575.243	198.5
2578.89	197.5
2582.533	198.5
2586.173	192.5
2589.809	188.5
2593.443	199.5
2597.073	189.5
2600.701	186.5
2604.325	189.5
2607.946	182.5
2611.564	184.5
2615.178	190.5
2618.79	179.5
2622.398	184.5
2626.004	185.5
2629.606	181.5
2633.205	176.5
2636.801	180.5
2640.394	179.5
2643.983	167.5
2647.57	172.5
2651.153	165.5
2654.734	165.5
2658.311	165.5
2661.885	161.5
2665.456	154.5
2669.025	155.5
2672.589	155.5
2676.151	156.5
2679.71	151.5
2683.266	148.5
2686.819	146.5
2690.368	155.5
2693.915	143.5
2697.458	138.5
2700.999	137.5
2704.536	137.5
2708.071	137.5
2711.602	136.5
2715.13	136.5
2718.656	132.5
2722.178	139.5
2725.697	131.5
2729.214	138.5
2732.727	130.5
2736.237	136.5
2739.744	139.5
2743.249	135.5
2746.75	142.5
2750.248	136.5
2753.743	145.5
2757.236	141.5
2760.725	142.5
2764.211	152.5
2767.695	144.5
2771.175	147.5
2774.652	146.5
2778.127	151.5
2781.598	144.5
2785.067	146.5
2788.532	141.5
2791.995	141.5
2795.455	151.5
2798.911	143.5
2802.365	147.5
2805.816	151.5
2809.264	151.5
2812.709	157.5
2816.151	155.5
2819.59	154.5
2823.026	152.5
2826.46	159.5
2829.89	153.5
2833.318	158.5
2836.742	153.5
2840.164	156.5
2843.583	155.5
2846.999	166.5
2850.412	169.5
2853.822	166.5
2857.229	164.5
2860.634	163.5
2864.035	171.5
2867.434	175.5
2870.83	179.5
2874.223	184.5
2877.613	189.5
2881	191.5
2884.385	196.5
2887.766	193.5
2891.145	200.5
2894.521	202.5
2897.894	196.5
2901.264	203.5
2904.631	202.5
2907.996	206.5
2911.358	207.5
2914.717	205.5
2918.073	218.5
2921.426	219.5
2924.777	227.5
2928.124	225.5
2931.469	240.5
2934.811	237.5
2938.15	249.5
2941.487	248.5
2944.821	262.5
2948.152	262.5
2951.48	264.5
2954.805	275.5
2958.128	277.5
2961.447	280.5
2964.765	289.5
2968.079	300.5
2971.39	309.5
2974.699	317.5
2978.005	328.5
2981.308	341.5
2984.609	349.5
2987.907	368.5
2991.202	377.5
2994.494	387.5
2997.784	404.5
3001.07	405.5
3004.355	434.5
3007.636	431.5
3010.915	453.5
3014.191	451.5
3017.464	470.5
3020.734	478.5
3024.002	482.5
3027.267	500.5
3030.53	507.5
3033.789	518.5
3037.046	526.5
3040.301	541.5
3043.552	548.5
3046.801	560.5
3050.048	577.5
3053.291	599.5
3056.532	616.5
3059.771	641.5
3063.006	662.5
3066.239	669.5
3069.469	711.5
3072.697	721.5
3075.922	746.5
3079.144	758.5
3082.364	779.5
3085.581	788.5
3088.795	824.5
3092.007	845.5
3095.216	872.5
3098.423	899.5
3101.627	905.5
3104.828	936.5
3108.026	942.5
3111.222	974.5
3114.416	997.5
3117.607	1030.5
3120.795	1028.5
3123.98	1081.5
3127.163	1099.5
3130.344	1116.5
3133.521	1143.5
3136.696	1174.5
3139.869	1205.5
3143.039	1217.5
3146.206	1239.5
3149.371	1266.5
3152.533	1257.5
3155.693	1265.5
3158.85	1276.5
3162.005	1285.5
3165.157	1299.5
3168.306	1296.5
3171.453	1294.5
3174.597	1294.5
3177.739	1317.5
3180.878	1315.5
3184.014	1315.5
3187.149	1311.5
3190.28	1323.5
3193.409	1317.5
3196.536	1343.5
3199.659	1334.5
3202.781	1343.5
3205.9	1337.5
3209.016	1346.5
3212.13	1336.5
3215.241	1324.5
3218.35	1304.5
3221.456	1303.5
3224.56	1283.5
3227.661	1282.5
3230.76	1254.5
3233.856	1265.5
3236.95	1249.5
3240.041	1242.5
3243.13	1245.5
3246.216	1236.5
3249.3	1217.5
3252.382	1217.5
3255.46	1211.5
3258.537	1199.5
3261.611	1218.5
3264.682	1204.5
3267.751	1218.5
3270.818	1186.5
3273.882	1195.5
3276.943	1182.5
3280.002	1164.5
3283.059	1161.5
3286.113	1133.5
3289.165	1130.5
3292.214	1118.5
3295.261	1089.5
3298.306	1065.5
3301.348	1052.5
3304.387	1048.5
3307.425	1027.5
3310.459	1018.5
3313.492	1008.5
3316.521	1000.5
3319.549	978.5
3322.574	957.5
3325.597	968.5
3328.617	948.5
3331.635	933.5
3334.65	934.5
3337.663	933.5
3340.674	918.5
3343.682	922.5
3346.688	931.5
3349.691	931.5
3352.692	916.5
3355.691	924.5
3358.687	903.5
3361.681	894.5
3364.673	883.5
3367.662	874.5
3370.649	857.5
3373.633	846.5
3376.615	831.5
3379.595	827.5
3382.572	808.5
3385.547	799.5
3388.52	790.5
3391.49	788.5
3394.458	765.5
3397.424	768.5
3400.387	744.5
3403.348	745.5
3406.307	733.5
3409.263	734.5
3412.217	714.5
3415.168	710.5
3418.118	702.5
3421.065	701.5
3424.009	679.5
3426.951	678.5
3429.891	673.5
3432.829	659.5
3435.764	639.5
3438.697	621.5
3441.628	611.5
3444.557	593.5
3447.483	580.5
3450.407	574.5
3453.328	552.5
3456.247	521.5
3459.164	522.5
3462.079	513.5
3464.991	497.5
3467.902	481.5
3470.809	465.5
3473.715	448.5
3476.618	444.5
3479.519	430.5
3482.418	414.5
3485.315	394.5
3488.209	392.5
3491.101	382.5
3493.99	371.5
3496.878	355.5
3499.763	357.5
3502.646	335.5
3505.527	312.5
3508.405	320.5
3511.281	306.5
3514.155	299.5
3517.027	274.5
3519.897	274.5
3522.764	259.5
3525.629	244.5
3528.492	230.5
3531.352	212.5
3534.211	207.5
3537.067	188.5
3539.921	177.5
3542.773	168.5
3545.622	153.5
3548.469	147.5
3551.315	140.5
3554.157	133.5
3556.998	130.5
3559.837	128.5
3562.673	110.5
3565.507	108.5
3568.339	99.5
3571.169	93.5
3573.996	88.5
3576.822	78.5
3579.645	75.5
3582.466	73.5
3585.285	62.5
3588.101	54.5
3590.916	49.5
3593.728	45.5
3596.538	31.5
3599.346	27.5
3602.152	25.5
3604.956	23.5
3607.757	19.5
3610.556	15.5
3613.354	7.5
3616.149	3.5
3618.942	3.5
3621.732	0.5
3624.521	-8.5
3627.307	-7.5
3630.092	-13.5
3632.874	-13.5
3635.654	-21.5
3638.432	-27.5
3641.208	-27.5
3643.982	-30.5
3646.753	-32.5
3649.523	-38.5
3652.29	-36.5
3655.055	-40.5
3657.818	-41.5
3660.579	-46.5
3663.338	-47.5
3666.095	-51.5
3668.849	-56.5
3671.602	-56.5
3674.352	-63.5
3677.101	-63.5
3679.847	-64.5
3682.591	-64.5
3685.333	-72.5
3688.073	-69.5
3690.811	-75.5
3693.547	-77.5
3696.281	-75.5
3699.013	-74.5
3701.742	-74.5
3704.47	-74.5
3707.195	-76.5
3709.919	-79.5
3712.64	-82.5
3715.359	-80.5
3718.076	-84.5
3720.792	-89.5
3723.505	-87.5
3726.216	-88.5
3728.925	-87.5
3731.632	-93.5
3734.336	-95.5
3737.039	-96.5
3739.74	-90.5
3742.439	-95.5
3745.136	-94.5
3747.83	-94.5
3750.523	-92.5
3753.213	-94.5
3755.902	-100.5
3758.589	-99.5
3761.273	-99.5
3763.956	-93.5
3766.636	-102.5
3769.315	-100.5
3771.991	-104.5
3774.665	-101.5
3777.338	-104.5
3780.008	-101.5
3782.677	-101.5
3785.343	-105.5
3788.007	-99.5
3790.67	-102.5
3793.33	-101.5
3795.989	-99.5
3798.645	-98.5
3801.299	-104.5
3803.952	-106.5
3806.602	-103.5
3809.251	-106.5
3811.897	-110.5
3814.542	-108.5
3817.184	-110.5
3819.825	-105.5
3822.463	-103.5
3825.1	-103.5
3827.735	-103.5
3830.367	-106.5
3832.998	-106.5
3835.627	-108.5
3838.253	-107.5
3840.878	-107.5
3843.501	-111.5
3846.122	-111.5
3848.741	-106.5
3851.358	-107.5
3853.973	-110.5
3856.586	-113.5
3859.197	-111.5
3861.806	-112.5
3864.414	-112.5
3867.019	-112.5
3869.622	-108.5
3872.224	-108.5
3874.823	-105.5
3877.421	-98.5
3880.016	-102.5
3882.61	-99.5
3885.202	-99.5
3887.792	-100.5
3890.38	-106.5
3892.966	-110.5
3895.55	-108.5
3898.132	-110.5
3900.713	-112.5
3903.291	-108.5
3905.868	-108.5
3908.442	-106.5
3911.015	-111.5
3913.586	-112.5
3916.155	-108.5
3918.722	-112.5
3921.287	-114.5
3923.85	-111.5
3926.411	-115.5
3928.971	-110.5
3931.528	-108.5
3934.084	-114.5
3936.638	-113.5
3939.19	-116.5
3941.74	-113.5
3944.288	-115.5
3946.834	-111.5
3949.378	-115.5
3951.921	-112.5
3954.462	-113.5
3957	-112.5
3959.537	-108.5
3962.072	-112.5
3964.606	-112.5
3967.137	-108.5
3969.667	-111.5
3972.194	-112.5
3974.72	-113.5
3977.244	-110.5
3979.766	-113.5
3982.286	-111.5
3984.805	-109.5
3987.321	-110.5
3989.836	-109.5
3992.349	-108.5
3994.86	-112.5
3997.369	-107.5
3999.877	-115.5
4002.382	-111.5
4004.886	-107.5
4007.388	-111.5
4009.888	-110.5
4012.386	-110.5
4014.883	-108.5
4017.377	-112.5
4019.87	-117.5
4022.361	-112.5
4024.85	-116.5
4027.338	-113.5
4029.823	-113.5
4032.307	-108.5
4034.789	-111.5
4037.269	-107.5
4039.747	-106.5
4042.224	-111.5
4044.699	-115.5
4047.172	-109.5
4049.643	-118.5
4052.112	-115.5
4054.58	-115.5
4057.046	-113.5
4059.51	-114.5
4061.972	-107.5
4064.432	-112.5
4066.891	-108.5
4069.348	-112.5
4071.803	-113.5
4074.256	-112.5
4076.708	-112.5
4079.158	-112.5
4081.606	-111.5
4084.052	-113.5
4086.497	-112.5
4088.939	-110.5
4091.38	-111.5
4093.819	-115.5
4096.257	-116.5
4098.693	-116.5
4101.127	-114.5
4103.559	-111.5
4105.989	-71.5
4108.418	-69.5
4110.845	-68.5
4113.27	-58.5
4115.694	-50.5
4118.115	-46.5
4120.535	-114.5
4122.954	-109.5
4125.37	-112.5
4127.785	-112.5
4130.198	-113.5
4132.609	-112.5
4135.019	-114.5
4137.427	-116.5
4139.833	-115.5
4142.237	-115.5
