Data from Bsub_water_DIL1_B_3_RamanShift_1.txt Node
Date: Wed Feb 22 13:36:26 IST 2017
User: aro
Spectrometer: QEPB0276
Trigger mode: 0
Integration Time (sec): 5.000000E0
Scans to average: 1
Electric dark correction enabled: true
Nonlinearity correction enabled: false
Boxcar width: 0
XAxis mode: Raman Shifts
Number of Pixels in Spectrum: 1044
>>>>>Begin Spectral Data<<<<<
160.701	-26.12
166.742	-1.12
172.777	88.88
178.805	345.88
184.826	970.88
190.841	2024.88
196.849	3203.88
202.85	3983.88
208.845	4191.88
214.833	4019.88
220.815	3873.88
226.789	3715.88
232.758	3619.88
238.719	3508.88
244.674	3348.88
250.623	3193.88
256.565	3043.88
262.5	2882.88
268.429	2718.88
274.351	2599.88
280.267	2484.88
286.176	2391.88
292.079	2287.88
297.975	2205.88
303.865	2120.88
309.748	2056.88
315.625	2026.88
321.495	1953.88
327.359	1926.88
333.217	1908.88
339.068	1888.88
344.912	1878.88
350.751	1861.88
356.583	1867.88
362.408	1849.88
368.227	1851.88
374.04	1868.88
379.847	1882.88
385.647	1882.88
391.44	1898.88
397.228	1915.88
403.009	1919.88
408.784	1934.88
414.553	1950.88
420.315	1941.88
426.071	1955.88
431.821	1945.88
437.565	1938.88
443.302	1936.88
449.033	1928.88
454.758	1924.88
460.477	1915.88
466.189	1888.88
471.896	1894.88
477.596	1880.88
483.29	1862.88
488.978	1842.88
494.66	1831.88
500.335	1824.88
506.005	1784.88
511.668	1760.88
517.325	1688.88
522.977	1674.88
528.622	1651.88
534.261	1622.88
539.894	1605.88
545.521	1584.88
551.141	1565.88
556.756	1558.88
562.365	1537.88
567.968	1538.88
573.565	1515.88
579.155	1520.88
584.74	1500.88
590.319	1481.88
595.892	1471.88
601.459	1465.88
607.02	1444.88
612.575	1426.88
618.124	1408.88
623.667	1402.88
629.204	1370.88
634.735	1373.88
640.261	1352.88
645.781	1342.88
651.294	1326.88
656.802	1335.88
662.304	1324.88
667.8	1324.88
673.29	1300.88
678.775	1307.88
684.254	1300.88
689.726	1298.88
695.193	1293.88
700.655	1266.88
706.11	1246.88
711.56	1255.88
717.004	1236.88
722.442	1224.88
727.874	1213.88
733.301	1188.88
738.722	1197.88
744.137	1196.88
749.547	1184.88
754.951	1190.88
760.349	1168.88
765.741	1178.88
771.128	1175.88
776.509	1179.88
781.885	1178.88
787.254	1170.88
792.618	1146.88
797.977	1143.88
803.33	1139.88
808.677	1119.88
814.019	1116.88
819.355	1094.88
824.686	1080.88
830.011	1087.88
835.33	1056.88
840.644	1045.88
845.952	1044.88
851.255	1037.88
856.552	1024.88
861.844	1021.88
867.13	1006.88
872.41	999.88
877.686	984.88
882.955	966.88
888.219	933.88
893.478	926.88
898.731	910.88
903.979	888.88
909.221	882.88
914.458	866.88
919.69	855.88
924.916	849.88
930.136	863.88
935.351	863.88
940.561	834.88
945.766	826.88
950.965	833.88
956.158	822.88
961.347	792.88
966.529	781.88
971.707	781.88
976.879	762.88
982.046	749.88
987.208	740.88
992.364	751.88
997.515	746.88
1002.66	742.88
1007.801	761.88
1012.936	745.88
1018.066	770.88
1023.19	760.88
1028.309	770.88
1033.423	778.88
1038.532	761.88
1043.636	751.88
1048.734	753.88
1053.827	740.88
1058.915	723.88
1063.998	715.88
1069.075	713.88
1074.147	725.88
1079.214	714.88
1084.276	721.88
1089.333	730.88
1094.385	726.88
1099.431	732.88
1104.472	728.88
1109.509	729.88
1114.54	720.88
1119.565	716.88
1124.586	701.88
1129.602	702.88
1134.613	680.88
1139.618	669.88
1144.619	686.88
1149.614	695.88
1154.604	681.88
1159.589	689.88
1164.57	687.88
1169.545	684.88
1174.515	693.88
1179.48	688.88
1184.44	682.88
1189.395	679.88
1194.345	666.88
1199.29	683.88
1204.23	672.88
1209.165	683.88
1214.095	691.88
1219.021	683.88
1223.941	690.88
1228.856	691.88
1233.766	689.88
1238.672	688.88
1243.572	690.88
1248.467	684.88
1253.358	686.88
1258.244	665.88
1263.124	648.88
1268	636.88
1272.871	636.88
1277.737	630.88
1282.599	635.88
1287.455	629.88
1292.306	631.88
1297.153	617.88
1301.995	647.88
1306.832	633.88
1311.664	647.88
1316.491	639.88
1321.314	629.88
1326.132	626.88
1330.945	605.88
1335.753	602.88
1340.556	598.88
1345.354	577.88
1350.148	571.88
1354.937	580.88
1359.722	571.88
1364.501	579.88
1369.276	584.88
1374.046	585.88
1378.811	590.88
1383.572	579.88
1388.327	580.88
1393.079	580.88
1397.825	573.88
1402.567	561.88
1407.304	550.88
1412.036	555.88
1416.764	541.88
1421.487	534.88
1426.205	535.88
1430.919	541.88
1435.628	544.88
1440.333	551.88
1445.032	561.88
1449.727	555.88
1454.418	549.88
1459.104	558.88
1463.785	557.88
1468.462	553.88
1473.134	538.88
1477.802	546.88
1482.465	534.88
1487.123	530.88
1491.777	537.88
1496.426	547.88
1501.071	548.88
1505.711	566.88
1510.347	574.88
1514.978	581.88
1519.604	597.88
1524.226	600.88
1528.844	605.88
1533.457	596.88
1538.065	604.88
1542.669	605.88
1547.269	616.88
1551.864	611.88
1556.454	617.88
1561.041	617.88
1565.622	635.88
1570.199	657.88
1574.772	676.88
1579.34	673.88
1583.904	693.88
1588.464	701.88
1593.019	728.88
1597.569	750.88
1602.115	757.88
1606.657	772.88
1611.195	774.88
1615.728	790.88
1620.256	815.88
1624.78	812.88
1629.3	837.88
1633.816	867.88
1638.327	868.88
1642.834	890.88
1647.336	902.88
1651.834	899.88
1656.328	890.88
1660.817	884.88
1665.302	863.88
1669.783	844.88
1674.259	808.88
1678.732	773.88
1683.199	734.88
1687.663	694.88
1692.122	656.88
1696.577	632.88
1701.028	608.88
1705.474	584.88
1709.917	559.88
1714.355	548.88
1718.788	515.88
1723.218	490.88
1727.643	482.88
1732.064	458.88
1736.481	435.88
1740.893	418.88
1745.301	392.88
1749.705	378.88
1754.105	359.88
1758.501	344.88
1762.893	331.88
1767.28	316.88
1771.663	306.88
1776.042	312.88
1780.417	302.88
1784.787	309.88
1789.154	314.88
1793.516	308.88
1797.874	312.88
1802.228	317.88
1806.578	306.88
1810.924	300.88
1815.266	295.88
1819.603	285.88
1823.937	280.88
1828.266	269.88
1832.591	266.88
1836.913	259.88
1841.23	258.88
1845.543	249.88
1849.852	248.88
1854.156	251.88
1858.457	247.88
1862.754	261.88
1867.047	255.88
1871.335	257.88
1875.62	249.88
1879.9	258.88
1884.177	254.88
1888.449	257.88
1892.718	245.88
1896.982	252.88
1901.243	256.88
1905.499	248.88
1909.752	255.88
1914	258.88
1918.245	250.88
1922.485	254.88
1926.722	258.88
1930.954	262.88
1935.183	264.88
1939.408	268.88
1943.628	265.88
1947.845	274.88
1952.058	273.88
1956.267	267.88
1960.472	265.88
1964.673	263.88
1968.87	257.88
1973.063	258.88
1977.252	253.88
1981.438	249.88
1985.619	259.88
1989.797	244.88
1993.971	252.88
1998.14	246.88
2002.306	260.88
2006.469	264.88
2010.627	263.88
2014.781	262.88
2018.932	264.88
2023.078	272.88
2027.221	263.88
2031.36	265.88
2035.495	263.88
2039.627	261.88
2043.754	260.88
2047.878	249.88
2051.998	253.88
2056.114	259.88
2060.226	257.88
2064.334	261.88
2068.439	272.88
2072.54	276.88
2076.637	280.88
2080.73	280.88
2084.82	283.88
2088.906	286.88
2092.988	290.88
2097.066	288.88
2101.14	280.88
2105.211	283.88
2109.278	279.88
2113.342	284.88
2117.401	274.88
2121.457	276.88
2125.509	276.88
2129.558	280.88
2133.602	265.88
2137.643	266.88
2141.681	270.88
2145.714	257.88
2149.744	271.88
2153.77	264.88
2157.793	261.88
2161.812	252.88
2165.827	248.88
2169.838	241.88
2173.846	231.88
2177.851	228.88
2181.851	219.88
2185.848	218.88
2189.841	212.88
2193.831	218.88
2197.817	209.88
2201.799	215.88
2205.778	213.88
2209.753	200.88
2213.725	205.88
2217.693	210.88
2221.657	198.88
2225.618	196.88
2229.575	197.88
2233.529	195.88
2237.479	189.88
2241.425	185.88
2245.368	186.88
2249.307	174.88
2253.243	170.88
2257.175	171.88
2261.104	162.88
2265.029	161.88
2268.95	161.88
2272.868	164.88
2276.783	151.88
2280.694	146.88
2284.601	150.88
2288.505	143.88
2292.405	144.88
2296.302	141.88
2300.195	135.88
2304.085	131.88
2307.971	120.88
2311.854	128.88
2315.734	120.88
2319.609	115.88
2323.482	110.88
2327.351	115.88
2331.216	122.88
2335.078	107.88
2338.937	111.88
2342.792	108.88
2346.643	107.88
2350.492	103.88
2354.336	103.88
2358.178	100.88
2362.015	95.88
2365.85	103.88
2369.681	96.88
2373.508	94.88
2377.333	91.88
2381.153	96.88
2384.971	97.88
2388.785	90.88
2392.595	94.88
2396.402	94.88
2400.206	81.88
2404.007	87.88
2407.804	85.88
2411.597	83.88
2415.388	86.88
2419.174	86.88
2422.958	82.88
2426.738	85.88
2430.515	82.88
2434.289	82.88
2438.059	77.88
2441.825	74.88
2445.589	71.88
2449.349	74.88
2453.106	68.88
2456.859	70.88
2460.61	66.88
2464.356	68.88
2468.1	66.88
2471.84	69.88
2475.577	61.88
2479.311	59.88
2483.041	63.88
2486.768	64.88
2490.492	69.88
2494.213	64.88
2497.93	64.88
2501.644	66.88
2505.355	60.88
2509.062	65.88
2512.766	61.88
2516.467	63.88
2520.165	58.88
2523.859	58.88
2527.551	52.88
2531.239	53.88
2534.923	54.88
2538.605	60.88
2542.283	61.88
2545.958	59.88
2549.63	52.88
2553.299	54.88
2556.964	54.88
2560.626	45.88
2564.285	49.88
2567.941	51.88
2571.594	44.88
2575.243	46.88
2578.89	45.88
2582.533	53.88
2586.173	44.88
2589.809	42.88
2593.443	41.88
2597.073	38.88
2600.701	39.88
2604.325	41.88
2607.946	38.88
2611.564	39.88
2615.178	41.88
2618.79	43.88
2622.398	39.88
2626.004	34.88
2629.606	40.88
2633.205	34.88
2636.801	37.88
2640.394	36.88
2643.983	31.88
2647.57	27.88
2651.153	27.88
2654.734	26.88
2658.311	36.88
2661.885	32.88
2665.456	21.88
2669.025	27.88
2672.589	26.88
2676.151	34.88
2679.71	26.88
2683.266	26.88
2686.819	22.88
2690.368	26.88
2693.915	20.88
2697.458	25.88
2700.999	20.88
2704.536	20.88
2708.071	18.88
2711.602	17.88
2715.13	15.88
2718.656	20.88
2722.178	19.88
2725.697	16.88
2729.214	20.88
2732.727	21.88
2736.237	29.88
2739.744	26.88
2743.249	30.88
2746.75	33.88
2750.248	31.88
2753.743	26.88
2757.236	19.88
2760.725	31.88
2764.211	31.88
2767.695	33.88
2771.175	33.88
2774.652	32.88
2778.127	36.88
2781.598	38.88
2785.067	32.88
2788.532	33.88
2791.995	37.88
2795.455	38.88
2798.911	45.88
2802.365	42.88
2805.816	55.88
2809.264	44.88
2812.709	48.88
2816.151	57.88
2819.59	46.88
2823.026	55.88
2826.46	50.88
2829.89	45.88
2833.318	58.88
2836.742	56.88
2840.164	56.88
2843.583	62.88
2846.999	72.88
2850.412	69.88
2853.822	72.88
2857.229	70.88
2860.634	82.88
2864.035	82.88
2867.434	75.88
2870.83	80.88
2874.223	85.88
2877.613	93.88
2881	91.88
2884.385	95.88
2887.766	99.88
2891.145	98.88
2894.521	100.88
2897.894	100.88
2901.264	106.88
2904.631	110.88
2907.996	115.88
2911.358	120.88
2914.717	123.88
2918.073	129.88
2921.426	132.88
2924.777	135.88
2928.124	142.88
2931.469	148.88
2934.811	152.88
2938.15	163.88
2941.487	158.88
2944.821	172.88
2948.152	180.88
2951.48	180.88
2954.805	183.88
2958.128	188.88
2961.447	199.88
2964.765	201.88
2968.079	215.88
2971.39	222.88
2974.699	235.88
2978.005	247.88
2981.308	250.88
2984.609	260.88
2987.907	272.88
2991.202	288.88
2994.494	290.88
2997.784	309.88
3001.07	314.88
3004.355	332.88
3007.636	333.88
3010.915	355.88
3014.191	366.88
3017.464	380.88
3020.734	381.88
3024.002	398.88
3027.267	405.88
3030.53	415.88
3033.789	422.88
3037.046	434.88
3040.301	445.88
3043.552	463.88
3046.801	479.88
3050.048	490.88
3053.291	509.88
3056.532	516.88
3059.771	541.88
3063.006	565.88
3066.239	581.88
3069.469	600.88
3072.697	621.88
3075.922	636.88
3079.144	651.88
3082.364	670.88
3085.581	695.88
3088.795	715.88
3092.007	736.88
3095.216	744.88
3098.423	768.88
3101.627	787.88
3104.828	817.88
3108.026	837.88
3111.222	862.88
3114.416	882.88
3117.607	894.88
3120.795	919.88
3123.98	933.88
3127.163	974.88
3130.344	986.88
3133.521	1028.88
3136.696	1054.88
3139.869	1072.88
3143.039	1080.88
3146.206	1097.88
3149.371	1123.88
3152.533	1130.88
3155.693	1137.88
3158.85	1152.88
3162.005	1151.88
3165.157	1159.88
3168.306	1166.88
3171.453	1190.88
3174.597	1176.88
3177.739	1180.88
3180.878	1186.88
3184.014	1186.88
3187.149	1194.88
3190.28	1203.88
3193.409	1191.88
3196.536	1204.88
3199.659	1198.88
3202.781	1198.88
3205.9	1209.88
3209.016	1214.88
3212.13	1206.88
3215.241	1200.88
3218.35	1210.88
3221.456	1185.88
3224.56	1180.88
3227.661	1171.88
3230.76	1155.88
3233.856	1158.88
3236.95	1158.88
3240.041	1137.88
3243.13	1143.88
3246.216	1112.88
3249.3	1115.88
3252.382	1106.88
3255.46	1096.88
3258.537	1104.88
3261.611	1096.88
3264.682	1086.88
3267.751	1093.88
3270.818	1087.88
3273.882	1077.88
3276.943	1060.88
3280.002	1069.88
3283.059	1040.88
3286.113	1036.88
3289.165	1025.88
3292.214	1008.88
3295.261	984.88
3298.306	969.88
3301.348	955.88
3304.387	945.88
3307.425	933.88
3310.459	908.88
3313.492	896.88
3316.521	886.88
3319.549	889.88
3322.574	867.88
3325.597	877.88
3328.617	878.88
3331.635	853.88
3334.65	847.88
3337.663	847.88
3340.674	840.88
3343.682	836.88
3346.688	830.88
3349.691	833.88
3352.692	840.88
3355.691	829.88
3358.687	819.88
3361.681	810.88
3364.673	803.88
3367.662	780.88
3370.649	773.88
3373.633	777.88
3376.615	755.88
3379.595	740.88
3382.572	734.88
3385.547	735.88
3388.52	718.88
3391.49	706.88
3394.458	707.88
3397.424	693.88
3400.387	685.88
3403.348	680.88
3406.307	665.88
3409.263	657.88
3412.217	647.88
3415.168	640.88
3418.118	644.88
3421.065	636.88
3424.009	638.88
3426.951	604.88
3429.891	611.88
3432.829	595.88
3435.764	580.88
3438.697	576.88
3441.628	560.88
3444.557	545.88
3447.483	533.88
3450.407	508.88
3453.328	501.88
3456.247	495.88
3459.164	486.88
3462.079	461.88
3464.991	444.88
3467.902	434.88
3470.809	419.88
3473.715	416.88
3476.618	406.88
3479.519	376.88
3482.418	379.88
3485.315	361.88
3488.209	363.88
3491.101	351.88
3493.99	351.88
3496.878	330.88
3499.763	326.88
3502.646	302.88
3505.527	302.88
3508.405	293.88
3511.281	283.88
3514.155	268.88
3517.027	254.88
3519.897	250.88
3522.764	236.88
3525.629	216.88
3528.492	207.88
3531.352	199.88
3534.211	186.88
3537.067	165.88
3539.921	166.88
3542.773	157.88
3545.622	147.88
3548.469	142.88
3551.315	123.88
3554.157	129.88
3556.998	117.88
3559.837	107.88
3562.673	103.88
3565.507	99.88
3568.339	87.88
3571.169	81.88
3573.996	76.88
3576.822	67.88
3579.645	64.88
3582.466	64.88
3585.285	57.88
3588.101	43.88
3590.916	40.88
3593.728	35.88
3596.538	31.88
3599.346	31.88
3602.152	26.88
3604.956	20.88
3607.757	20.88
3610.556	11.88
3613.354	9.88
3616.149	3.88
3618.942	1.88
3621.732	1.88
3624.521	-4.12
3627.307	-9.12
3630.092	-9.12
3632.874	-19.12
3635.654	-20.12
3638.432	-19.12
3641.208	-20.12
3643.982	-26.12
3646.753	-26.12
3649.523	-24.12
3652.29	-29.12
3655.055	-35.12
3657.818	-36.12
3660.579	-44.12
3663.338	-45.12
3666.095	-43.12
3668.849	-52.12
3671.602	-49.12
3674.352	-54.12
3677.101	-53.12
3679.847	-58.12
3682.591	-57.12
3685.333	-62.12
3688.073	-64.12
3690.811	-67.12
3693.547	-67.12
3696.281	-70.12
3699.013	-69.12
3701.742	-68.12
3704.47	-68.12
3707.195	-72.12
3709.919	-74.12
3712.64	-73.12
3715.359	-71.12
3718.076	-76.12
3720.792	-77.12
3723.505	-80.12
3726.216	-78.12
3728.925	-77.12
3731.632	-83.12
3734.336	-83.12
3737.039	-82.12
3739.74	-85.12
3742.439	-87.12
3745.136	-85.12
3747.83	-83.12
3750.523	-88.12
3753.213	-82.12
3755.902	-88.12
3758.589	-86.12
3761.273	-88.12
3763.956	-86.12
3766.636	-88.12
3769.315	-89.12
3771.991	-89.12
3774.665	-91.12
3777.338	-94.12
3780.008	-92.12
3782.677	-92.12
3785.343	-98.12
3788.007	-91.12
3790.67	-94.12
3793.33	-92.12
3795.989	-94.12
3798.645	-90.12
3801.299	-94.12
3803.952	-95.12
3806.602	-92.12
3809.251	-96.12
3811.897	-95.12
3814.542	-96.12
3817.184	-97.12
3819.825	-89.12
3822.463	-94.12
3825.1	-92.12
3827.735	-94.12
3830.367	-94.12
3832.998	-95.12
3835.627	-98.12
3838.253	-96.12
3840.878	-99.12
3843.501	-95.12
3846.122	-94.12
3848.741	-92.12
3851.358	-94.12
3853.973	-98.12
3856.586	-96.12
3859.197	-96.12
3861.806	-98.12
3864.414	-101.12
3867.019	-101.12
3869.622	-98.12
3872.224	-100.12
3874.823	-94.12
3877.421	-91.12
3880.016	-91.12
3882.61	-86.12
3885.202	-85.12
3887.792	-89.12
3890.38	-91.12
3892.966	-95.12
3895.55	-97.12
3898.132	-95.12
3900.713	-98.12
3903.291	-98.12
3905.868	-94.12
3908.442	-95.12
3911.015	-100.12
3913.586	-101.12
3916.155	-102.12
3918.722	-103.12
3921.287	-99.12
3923.85	-101.12
3926.411	-102.12
3928.971	-98.12
3931.528	-95.12
3934.084	-98.12
3936.638	-96.12
3939.19	-99.12
3941.74	-98.12
3944.288	-102.12
3946.834	-98.12
3949.378	-101.12
3951.921	-99.12
3954.462	-101.12
3957	-99.12
3959.537	-95.12
3962.072	-101.12
3964.606	-100.12
3967.137	-97.12
3969.667	-99.12
3972.194	-99.12
3974.72	-98.12
3977.244	-97.12
3979.766	-96.12
3982.286	-97.12
3984.805	-94.12
3987.321	-95.12
3989.836	-100.12
3992.349	-98.12
3994.86	-98.12
3997.369	-101.12
3999.877	-103.12
4002.382	-101.12
4004.886	-99.12
4007.388	-100.12
4009.888	-100.12
4012.386	-98.12
4014.883	-96.12
4017.377	-99.12
4019.87	-102.12
4022.361	-99.12
4024.85	-101.12
4027.338	-97.12
4029.823	-104.12
4032.307	-96.12
4034.789	-99.12
4037.269	-98.12
4039.747	-96.12
4042.224	-100.12
4044.699	-102.12
4047.172	-100.12
4049.643	-104.12
4052.112	-103.12
4054.58	-99.12
4057.046	-97.12
4059.51	-100.12
4061.972	-94.12
4064.432	-98.12
4066.891	-96.12
4069.348	-97.12
4071.803	-99.12
4074.256	-100.12
4076.708	-101.12
4079.158	-101.12
4081.606	-100.12
4084.052	-101.12
4086.497	-101.12
4088.939	-100.12
4091.38	-98.12
4093.819	-101.12
4096.257	-99.12
4098.693	-104.12
4101.127	-101.12
4103.559	-101.12
4105.989	-64.12
4108.418	-61.12
4110.845	-62.12
4113.27	-57.12
4115.694	-48.12
4118.115	-43.12
4120.535	-99.12
4122.954	-99.12
4125.37	-98.12
4127.785	-100.12
4130.198	-102.12
4132.609	-97.12
4135.019	-100.12
4137.427	-103.12
4139.833	-104.12
4142.237	-100.12
