Data from Bsub_water_DIL103_A_2_RamanShift_1.txt Node
Date: Wed Feb 22 13:00:36 IST 2017
User: aro
Spectrometer: QEPB0276
Trigger mode: 0
Integration Time (sec): 5.000000E0
Scans to average: 1
Electric dark correction enabled: true
Nonlinearity correction enabled: false
Boxcar width: 0
XAxis mode: Raman Shifts
Number of Pixels in Spectrum: 1044
>>>>>Begin Spectral Data<<<<<
160.701	-27.12
166.742	4.88
172.777	95.88
178.805	391.88
184.826	1092.88
190.841	2318.88
196.849	3674.88
202.85	4578.88
208.845	4810.88
214.833	4683.88
220.815	4466.88
226.789	4303.88
232.758	4204.88
238.719	4026.88
244.674	3866.88
250.623	3668.88
256.565	3507.88
262.5	3310.88
268.429	3124.88
274.351	2990.88
280.267	2884.88
286.176	2763.88
292.079	2655.88
297.975	2571.88
303.865	2464.88
309.748	2406.88
315.625	2334.88
321.495	2301.88
327.359	2251.88
333.217	2194.88
339.068	2188.88
344.912	2187.88
350.751	2166.88
356.583	2175.88
362.408	2154.88
368.227	2145.88
374.04	2157.88
379.847	2189.88
385.647	2204.88
391.44	2196.88
397.228	2217.88
403.009	2225.88
408.784	2230.88
414.553	2242.88
420.315	2242.88
426.071	2244.88
431.821	2252.88
437.565	2244.88
443.302	2249.88
449.033	2242.88
454.758	2232.88
460.477	2215.88
466.189	2196.88
471.896	2209.88
477.596	2181.88
483.29	2154.88
488.978	2146.88
494.66	2142.88
500.335	2110.88
506.005	2053.88
511.668	2037.88
517.325	1978.88
522.977	1938.88
528.622	1922.88
534.261	1897.88
539.894	1861.88
545.521	1869.88
551.141	1846.88
556.756	1814.88
562.365	1812.88
567.968	1812.88
573.565	1791.88
579.155	1744.88
584.74	1751.88
590.319	1729.88
595.892	1721.88
601.459	1719.88
607.02	1698.88
612.575	1667.88
618.124	1660.88
623.667	1650.88
629.204	1627.88
634.735	1597.88
640.261	1596.88
645.781	1593.88
651.294	1565.88
656.802	1583.88
662.304	1551.88
667.8	1543.88
673.29	1522.88
678.775	1529.88
684.254	1523.88
689.726	1514.88
695.193	1485.88
700.655	1497.88
706.11	1486.88
711.56	1478.88
717.004	1456.88
722.442	1432.88
727.874	1437.88
733.301	1421.88
738.722	1402.88
744.137	1394.88
749.547	1400.88
754.951	1398.88
760.349	1379.88
765.741	1384.88
771.128	1388.88
776.509	1366.88
781.885	1379.88
787.254	1382.88
792.618	1371.88
797.977	1344.88
803.33	1311.88
808.677	1325.88
814.019	1292.88
819.355	1296.88
824.686	1285.88
830.011	1265.88
835.33	1253.88
840.644	1232.88
845.952	1235.88
851.255	1231.88
856.552	1208.88
861.844	1190.88
867.13	1188.88
872.41	1182.88
877.686	1164.88
882.955	1153.88
888.219	1133.88
893.478	1091.88
898.731	1081.88
903.979	1070.88
909.221	1047.88
914.458	1043.88
919.69	1028.88
924.916	1026.88
930.136	1015.88
935.351	1010.88
940.561	1017.88
945.766	989.88
950.965	990.88
956.158	978.88
961.347	961.88
966.529	956.88
971.707	933.88
976.879	921.88
982.046	915.88
987.208	896.88
992.364	903.88
997.515	902.88
1002.66	914.88
1007.801	907.88
1012.936	918.88
1018.066	924.88
1023.19	928.88
1028.309	935.88
1033.423	938.88
1038.532	925.88
1043.636	914.88
1048.734	909.88
1053.827	901.88
1058.915	888.88
1063.998	877.88
1069.075	871.88
1074.147	866.88
1079.214	872.88
1084.276	877.88
1089.333	880.88
1094.385	892.88
1099.431	885.88
1104.472	900.88
1109.509	884.88
1114.54	883.88
1119.565	872.88
1124.586	861.88
1129.602	847.88
1134.613	856.88
1139.618	835.88
1144.619	841.88
1149.614	829.88
1154.604	840.88
1159.589	847.88
1164.57	847.88
1169.545	846.88
1174.515	851.88
1179.48	849.88
1184.44	834.88
1189.395	842.88
1194.345	832.88
1199.29	830.88
1204.23	833.88
1209.165	828.88
1214.095	835.88
1219.021	846.88
1223.941	844.88
1228.856	855.88
1233.766	847.88
1238.672	869.88
1243.572	850.88
1248.467	831.88
1253.358	845.88
1258.244	824.88
1263.124	812.88
1268	808.88
1272.871	797.88
1277.737	793.88
1282.599	778.88
1287.455	785.88
1292.306	790.88
1297.153	802.88
1301.995	790.88
1306.832	794.88
1311.664	799.88
1316.491	789.88
1321.314	788.88
1326.132	784.88
1330.945	784.88
1335.753	755.88
1340.556	732.88
1345.354	720.88
1350.148	717.88
1354.937	722.88
1359.722	696.88
1364.501	718.88
1369.276	717.88
1374.046	735.88
1378.811	756.88
1383.572	742.88
1388.327	738.88
1393.079	741.88
1397.825	727.88
1402.567	717.88
1407.304	703.88
1412.036	696.88
1416.764	678.88
1421.487	683.88
1426.205	685.88
1430.919	679.88
1435.628	683.88
1440.333	692.88
1445.032	711.88
1449.727	699.88
1454.418	698.88
1459.104	713.88
1463.785	687.88
1468.462	690.88
1473.134	683.88
1477.802	675.88
1482.465	670.88
1487.123	671.88
1491.777	686.88
1496.426	685.88
1501.071	703.88
1505.711	710.88
1510.347	729.88
1514.978	733.88
1519.604	742.88
1524.226	763.88
1528.844	769.88
1533.457	764.88
1538.065	768.88
1542.669	761.88
1547.269	763.88
1551.864	772.88
1556.454	780.88
1561.041	792.88
1565.622	801.88
1570.199	818.88
1574.772	821.88
1579.34	858.88
1583.904	859.88
1588.464	883.88
1593.019	907.88
1597.569	909.88
1602.115	934.88
1606.657	948.88
1611.195	960.88
1615.728	985.88
1620.256	1007.88
1624.78	1023.88
1629.3	1029.88
1633.816	1054.88
1638.327	1086.88
1642.834	1090.88
1647.336	1102.88
1651.834	1095.88
1656.328	1106.88
1660.817	1073.88
1665.302	1051.88
1669.783	1034.88
1674.259	992.88
1678.732	957.88
1683.199	912.88
1687.663	877.88
1692.122	819.88
1696.577	782.88
1701.028	757.88
1705.474	756.88
1709.917	736.88
1714.355	709.88
1718.788	663.88
1723.218	641.88
1727.643	616.88
1732.064	600.88
1736.481	571.88
1740.893	545.88
1745.301	516.88
1749.705	496.88
1754.105	479.88
1758.501	458.88
1762.893	440.88
1767.28	437.88
1771.663	412.88
1776.042	422.88
1780.417	416.88
1784.787	413.88
1789.154	425.88
1793.516	416.88
1797.874	421.88
1802.228	432.88
1806.578	416.88
1810.924	424.88
1815.266	419.88
1819.603	403.88
1823.937	395.88
1828.266	382.88
1832.591	381.88
1836.913	373.88
1841.23	361.88
1845.543	359.88
1849.852	368.88
1854.156	364.88
1858.457	369.88
1862.754	361.88
1867.047	355.88
1871.335	370.88
1875.62	366.88
1879.9	367.88
1884.177	355.88
1888.449	349.88
1892.718	359.88
1896.982	357.88
1901.243	358.88
1905.499	359.88
1909.752	355.88
1914	361.88
1918.245	357.88
1922.485	373.88
1926.722	376.88
1930.954	382.88
1935.183	380.88
1939.408	378.88
1943.628	384.88
1947.845	385.88
1952.058	371.88
1956.267	384.88
1960.472	376.88
1964.673	375.88
1968.87	373.88
1973.063	359.88
1977.252	369.88
1981.438	367.88
1985.619	365.88
1989.797	363.88
1993.971	372.88
1998.14	369.88
2002.306	356.88
2006.469	363.88
2010.627	364.88
2014.781	365.88
2018.932	367.88
2023.078	360.88
2027.221	366.88
2031.36	365.88
2035.495	365.88
2039.627	365.88
2043.754	366.88
2047.878	361.88
2051.998	366.88
2056.114	363.88
2060.226	366.88
2064.334	375.88
2068.439	376.88
2072.54	376.88
2076.637	385.88
2080.73	384.88
2084.82	381.88
2088.906	386.88
2092.988	391.88
2097.066	396.88
2101.14	392.88
2105.211	379.88
2109.278	377.88
2113.342	386.88
2117.401	378.88
2121.457	386.88
2125.509	382.88
2129.558	379.88
2133.602	376.88
2137.643	371.88
2141.681	374.88
2145.714	366.88
2149.744	364.88
2153.77	358.88
2157.793	356.88
2161.812	348.88
2165.827	340.88
2169.838	347.88
2173.846	335.88
2177.851	315.88
2181.851	313.88
2185.848	314.88
2189.841	303.88
2193.831	312.88
2197.817	296.88
2201.799	296.88
2205.778	299.88
2209.753	292.88
2213.725	288.88
2217.693	292.88
2221.657	289.88
2225.618	283.88
2229.575	278.88
2233.529	279.88
2237.479	270.88
2241.425	263.88
2245.368	270.88
2249.307	262.88
2253.243	259.88
2257.175	246.88
2261.104	247.88
2265.029	232.88
2268.95	237.88
2272.868	231.88
2276.783	224.88
2280.694	224.88
2284.601	220.88
2288.505	215.88
2292.405	208.88
2296.302	216.88
2300.195	205.88
2304.085	206.88
2307.971	205.88
2311.854	190.88
2315.734	184.88
2319.609	182.88
2323.482	178.88
2327.351	178.88
2331.216	184.88
2335.078	176.88
2338.937	170.88
2342.792	170.88
2346.643	167.88
2350.492	167.88
2354.336	159.88
2358.178	159.88
2362.015	164.88
2365.85	163.88
2369.681	164.88
2373.508	157.88
2377.333	163.88
2381.153	158.88
2384.971	161.88
2388.785	155.88
2392.595	152.88
2396.402	154.88
2400.206	148.88
2404.007	146.88
2407.804	138.88
2411.597	146.88
2415.388	141.88
2419.174	147.88
2422.958	142.88
2426.738	142.88
2430.515	130.88
2434.289	144.88
2438.059	135.88
2441.825	135.88
2445.589	127.88
2449.349	132.88
2453.106	128.88
2456.859	125.88
2460.61	125.88
2464.356	120.88
2468.1	120.88
2471.84	120.88
2475.577	114.88
2479.311	123.88
2483.041	111.88
2486.768	117.88
2490.492	115.88
2494.213	119.88
2497.93	122.88
2501.644	116.88
2505.355	112.88
2509.062	111.88
2512.766	112.88
2516.467	112.88
2520.165	108.88
2523.859	117.88
2527.551	107.88
2531.239	110.88
2534.923	111.88
2538.605	106.88
2542.283	111.88
2545.958	101.88
2549.63	106.88
2553.299	108.88
2556.964	99.88
2560.626	102.88
2564.285	96.88
2567.941	97.88
2571.594	94.88
2575.243	98.88
2578.89	93.88
2582.533	95.88
2586.173	89.88
2589.809	97.88
2593.443	90.88
2597.073	87.88
2600.701	86.88
2604.325	83.88
2607.946	88.88
2611.564	86.88
2615.178	90.88
2618.79	91.88
2622.398	84.88
2626.004	83.88
2629.606	74.88
2633.205	77.88
2636.801	81.88
2640.394	75.88
2643.983	78.88
2647.57	76.88
2651.153	73.88
2654.734	75.88
2658.311	76.88
2661.885	65.88
2665.456	70.88
2669.025	63.88
2672.589	66.88
2676.151	70.88
2679.71	63.88
2683.266	57.88
2686.819	65.88
2690.368	60.88
2693.915	59.88
2697.458	62.88
2700.999	64.88
2704.536	57.88
2708.071	56.88
2711.602	55.88
2715.13	50.88
2718.656	54.88
2722.178	51.88
2725.697	51.88
2729.214	54.88
2732.727	54.88
2736.237	62.88
2739.744	66.88
2743.249	63.88
2746.75	64.88
2750.248	66.88
2753.743	71.88
2757.236	65.88
2760.725	71.88
2764.211	66.88
2767.695	69.88
2771.175	68.88
2774.652	69.88
2778.127	75.88
2781.598	72.88
2785.067	69.88
2788.532	69.88
2791.995	71.88
2795.455	70.88
2798.911	76.88
2802.365	77.88
2805.816	76.88
2809.264	82.88
2812.709	87.88
2816.151	82.88
2819.59	83.88
2823.026	87.88
2826.46	80.88
2829.89	91.88
2833.318	86.88
2836.742	85.88
2840.164	93.88
2843.583	96.88
2846.999	104.88
2850.412	97.88
2853.822	104.88
2857.229	110.88
2860.634	111.88
2864.035	110.88
2867.434	115.88
2870.83	118.88
2874.223	121.88
2877.613	134.88
2881	128.88
2884.385	130.88
2887.766	133.88
2891.145	130.88
2894.521	137.88
2897.894	139.88
2901.264	145.88
2904.631	150.88
2907.996	154.88
2911.358	153.88
2914.717	165.88
2918.073	159.88
2921.426	178.88
2924.777	175.88
2928.124	166.88
2931.469	192.88
2934.811	186.88
2938.15	200.88
2941.487	199.88
2944.821	213.88
2948.152	215.88
2951.48	221.88
2954.805	230.88
2958.128	236.88
2961.447	236.88
2964.765	255.88
2968.079	255.88
2971.39	263.88
2974.699	271.88
2978.005	284.88
2981.308	290.88
2984.609	308.88
2987.907	327.88
2991.202	330.88
2994.494	348.88
2997.784	357.88
3001.07	362.88
3004.355	389.88
3007.636	396.88
3010.915	414.88
3014.191	421.88
3017.464	436.88
3020.734	429.88
3024.002	457.88
3027.267	458.88
3030.53	483.88
3033.789	490.88
3037.046	493.88
3040.301	512.88
3043.552	524.88
3046.801	534.88
3050.048	557.88
3053.291	584.88
3056.532	581.88
3059.771	617.88
3063.006	633.88
3066.239	654.88
3069.469	683.88
3072.697	702.88
3075.922	716.88
3079.144	742.88
3082.364	765.88
3085.581	767.88
3088.795	805.88
3092.007	816.88
3095.216	843.88
3098.423	864.88
3101.627	898.88
3104.828	909.88
3108.026	930.88
3111.222	956.88
3114.416	979.88
3117.607	1003.88
3120.795	1033.88
3123.98	1063.88
3127.163	1077.88
3130.344	1104.88
3133.521	1133.88
3136.696	1165.88
3139.869	1183.88
3143.039	1216.88
3146.206	1235.88
3149.371	1247.88
3152.533	1258.88
3155.693	1268.88
3158.85	1280.88
3162.005	1290.88
3165.157	1293.88
3168.306	1295.88
3171.453	1287.88
3174.597	1302.88
3177.739	1305.88
3180.878	1321.88
3184.014	1336.88
3187.149	1329.88
3190.28	1330.88
3193.409	1334.88
3196.536	1344.88
3199.659	1327.88
3202.781	1357.88
3205.9	1348.88
3209.016	1346.88
3212.13	1343.88
3215.241	1342.88
3218.35	1328.88
3221.456	1320.88
3224.56	1319.88
3227.661	1301.88
3230.76	1294.88
3233.856	1288.88
3236.95	1267.88
3240.041	1267.88
3243.13	1257.88
3246.216	1266.88
3249.3	1246.88
3252.382	1255.88
3255.46	1246.88
3258.537	1246.88
3261.611	1225.88
3264.682	1224.88
3267.751	1219.88
3270.818	1225.88
3273.882	1210.88
3276.943	1206.88
3280.002	1196.88
3283.059	1187.88
3286.113	1175.88
3289.165	1158.88
3292.214	1132.88
3295.261	1120.88
3298.306	1099.88
3301.348	1081.88
3304.387	1057.88
3307.425	1065.88
3310.459	1034.88
3313.492	1025.88
3316.521	1007.88
3319.549	999.88
3322.574	973.88
3325.597	986.88
3328.617	974.88
3331.635	963.88
3334.65	961.88
3337.663	947.88
3340.674	960.88
3343.682	949.88
3346.688	955.88
3349.691	951.88
3352.692	946.88
3355.691	926.88
3358.687	924.88
3361.681	909.88
3364.673	905.88
3367.662	886.88
3370.649	880.88
3373.633	868.88
3376.615	853.88
3379.595	837.88
3382.572	826.88
3385.547	829.88
3388.52	805.88
3391.49	802.88
3394.458	793.88
3397.424	788.88
3400.387	766.88
3403.348	778.88
3406.307	756.88
3409.263	760.88
3412.217	742.88
3415.168	733.88
3418.118	732.88
3421.065	720.88
3424.009	706.88
3426.951	702.88
3429.891	697.88
3432.829	667.88
3435.764	664.88
3438.697	651.88
3441.628	623.88
3444.557	616.88
3447.483	601.88
3450.407	592.88
3453.328	572.88
3456.247	558.88
3459.164	544.88
3462.079	526.88
3464.991	510.88
3467.902	489.88
3470.809	484.88
3473.715	460.88
3476.618	447.88
3479.519	440.88
3482.418	430.88
3485.315	412.88
3488.209	399.88
3491.101	398.88
3493.99	384.88
3496.878	379.88
3499.763	371.88
3502.646	353.88
3505.527	339.88
3508.405	322.88
3511.281	317.88
3514.155	298.88
3517.027	286.88
3519.897	278.88
3522.764	258.88
3525.629	257.88
3528.492	240.88
3531.352	222.88
3534.211	212.88
3537.067	202.88
3539.921	181.88
3542.773	186.88
3545.622	174.88
3548.469	158.88
3551.315	146.88
3554.157	145.88
3556.998	133.88
3559.837	123.88
3562.673	115.88
3565.507	107.88
3568.339	110.88
3571.169	100.88
3573.996	88.88
3576.822	76.88
3579.645	82.88
3582.466	76.88
3585.285	69.88
3588.101	62.88
3590.916	49.88
3593.728	54.88
3596.538	41.88
3599.346	38.88
3602.152	34.88
3604.956	31.88
3607.757	17.88
3610.556	17.88
3613.354	14.88
3616.149	10.88
3618.942	6.88
3621.732	-0.12
3624.521	-3.12
3627.307	-7.12
3630.092	-8.12
3632.874	-15.12
3635.654	-16.12
3638.432	-23.12
3641.208	-26.12
3643.982	-29.12
3646.753	-30.12
3649.523	-33.12
3652.29	-37.12
3655.055	-38.12
3657.818	-48.12
3660.579	-43.12
3663.338	-49.12
3666.095	-54.12
3668.849	-55.12
3671.602	-53.12
3674.352	-63.12
3677.101	-63.12
3679.847	-64.12
3682.591	-69.12
3685.333	-72.12
3688.073	-71.12
3690.811	-76.12
3693.547	-77.12
3696.281	-77.12
3699.013	-75.12
3701.742	-77.12
3704.47	-78.12
3707.195	-82.12
3709.919	-85.12
3712.64	-85.12
3715.359	-82.12
3718.076	-87.12
3720.792	-87.12
3723.505	-89.12
3726.216	-89.12
3728.925	-90.12
3731.632	-93.12
3734.336	-94.12
3737.039	-89.12
3739.74	-96.12
3742.439	-96.12
3745.136	-97.12
3747.83	-97.12
3750.523	-97.12
3753.213	-96.12
3755.902	-104.12
3758.589	-96.12
3761.273	-99.12
3763.956	-98.12
3766.636	-103.12
3769.315	-96.12
3771.991	-103.12
3774.665	-103.12
3777.338	-107.12
3780.008	-107.12
3782.677	-104.12
3785.343	-105.12
3788.007	-107.12
3790.67	-103.12
3793.33	-105.12
3795.989	-103.12
3798.645	-101.12
3801.299	-107.12
3803.952	-112.12
3806.602	-105.12
3809.251	-108.12
3811.897	-109.12
3814.542	-108.12
3817.184	-107.12
3819.825	-103.12
3822.463	-108.12
3825.1	-105.12
3827.735	-106.12
3830.367	-108.12
3832.998	-109.12
3835.627	-110.12
3838.253	-111.12
3840.878	-110.12
3843.501	-110.12
3846.122	-111.12
3848.741	-105.12
3851.358	-112.12
3853.973	-112.12
3856.586	-112.12
3859.197	-112.12
3861.806	-113.12
3864.414	-112.12
3867.019	-112.12
3869.622	-110.12
3872.224	-110.12
3874.823	-107.12
3877.421	-100.12
3880.016	-103.12
3882.61	-100.12
3885.202	-102.12
3887.792	-105.12
3890.38	-109.12
3892.966	-116.12
3895.55	-110.12
3898.132	-110.12
3900.713	-112.12
3903.291	-112.12
3905.868	-106.12
3908.442	-107.12
3911.015	-112.12
3913.586	-110.12
3916.155	-113.12
3918.722	-113.12
3921.287	-111.12
3923.85	-118.12
3926.411	-113.12
3928.971	-114.12
3931.528	-114.12
3934.084	-114.12
3936.638	-111.12
3939.19	-116.12
3941.74	-112.12
3944.288	-115.12
3946.834	-111.12
3949.378	-114.12
3951.921	-109.12
3954.462	-113.12
3957	-112.12
3959.537	-109.12
3962.072	-114.12
3964.606	-114.12
3967.137	-111.12
3969.667	-113.12
3972.194	-115.12
3974.72	-115.12
3977.244	-112.12
3979.766	-112.12
3982.286	-109.12
3984.805	-108.12
3987.321	-110.12
3989.836	-110.12
3992.349	-109.12
3994.86	-113.12
3997.369	-112.12
3999.877	-115.12
4002.382	-114.12
4004.886	-110.12
4007.388	-112.12
4009.888	-116.12
4012.386	-110.12
4014.883	-110.12
4017.377	-108.12
4019.87	-116.12
4022.361	-115.12
4024.85	-115.12
4027.338	-114.12
4029.823	-115.12
4032.307	-109.12
4034.789	-113.12
4037.269	-114.12
4039.747	-109.12
4042.224	-115.12
4044.699	-119.12
4047.172	-110.12
4049.643	-117.12
4052.112	-116.12
4054.58	-113.12
4057.046	-111.12
4059.51	-112.12
4061.972	-109.12
4064.432	-113.12
4066.891	-111.12
4069.348	-109.12
4071.803	-113.12
4074.256	-117.12
4076.708	-114.12
4079.158	-116.12
4081.606	-115.12
4084.052	-116.12
4086.497	-112.12
4088.939	-109.12
4091.38	-109.12
4093.819	-113.12
4096.257	-116.12
4098.693	-117.12
4101.127	-115.12
4103.559	-115.12
4105.989	-72.12
4108.418	-70.12
4110.845	-66.12
4113.27	-63.12
4115.694	-49.12
4118.115	-43.12
4120.535	-111.12
4122.954	-112.12
4125.37	-113.12
4127.785	-112.12
4130.198	-116.12
4132.609	-116.12
4135.019	-117.12
4137.427	-117.12
4139.833	-116.12
4142.237	-115.12
