Data from Bsub_water_DIL103_A_3_RamanShift_1.txt Node
Date: Wed Feb 22 13:01:31 IST 2017
User: aro
Spectrometer: QEPB0276
Trigger mode: 0
Integration Time (sec): 5.000000E0
Scans to average: 1
Electric dark correction enabled: true
Nonlinearity correction enabled: false
Boxcar width: 0
XAxis mode: Raman Shifts
Number of Pixels in Spectrum: 1044
>>>>>Begin Spectral Data<<<<<
160.701	-35.75
166.742	3.25
172.777	98.25
178.805	390.25
184.826	1067.25
190.841	2217.25
196.849	3531.25
202.85	4401.25
208.845	4642.25
214.833	4448.25
220.815	4319.25
226.789	4171.25
232.758	4092.25
238.719	3964.25
244.674	3820.25
250.623	3637.25
256.565	3492.25
262.5	3322.25
268.429	3184.25
274.351	3056.25
280.267	2957.25
286.176	2837.25
292.079	2735.25
297.975	2657.25
303.865	2576.25
309.748	2492.25
315.625	2453.25
321.495	2373.25
327.359	2374.25
333.217	2326.25
339.068	2319.25
344.912	2293.25
350.751	2306.25
356.583	2291.25
362.408	2306.25
368.227	2280.25
374.04	2284.25
379.847	2305.25
385.647	2314.25
391.44	2348.25
397.228	2335.25
403.009	2365.25
408.784	2370.25
414.553	2381.25
420.315	2394.25
426.071	2403.25
431.821	2380.25
437.565	2369.25
443.302	2377.25
449.033	2387.25
454.758	2367.25
460.477	2375.25
466.189	2347.25
471.896	2340.25
477.596	2333.25
483.29	2295.25
488.978	2301.25
494.66	2267.25
500.335	2269.25
506.005	2234.25
511.668	2182.25
517.325	2142.25
522.977	2122.25
528.622	2093.25
534.261	2098.25
539.894	2042.25
545.521	2023.25
551.141	2013.25
556.756	2019.25
562.365	2002.25
567.968	1978.25
573.565	1953.25
579.155	1970.25
584.74	1947.25
590.319	1939.25
595.892	1920.25
601.459	1938.25
607.02	1907.25
612.575	1892.25
618.124	1879.25
623.667	1848.25
629.204	1830.25
634.735	1787.25
640.261	1809.25
645.781	1796.25
651.294	1781.25
656.802	1761.25
662.304	1748.25
667.8	1773.25
673.29	1749.25
678.775	1743.25
684.254	1759.25
689.726	1737.25
695.193	1730.25
700.655	1717.25
706.11	1693.25
711.56	1684.25
717.004	1688.25
722.442	1676.25
727.874	1666.25
733.301	1656.25
738.722	1639.25
744.137	1628.25
749.547	1621.25
754.951	1630.25
760.349	1641.25
765.741	1645.25
771.128	1643.25
776.509	1625.25
781.885	1625.25
787.254	1617.25
792.618	1618.25
797.977	1591.25
803.33	1606.25
808.677	1581.25
814.019	1536.25
819.355	1558.25
824.686	1531.25
830.011	1528.25
835.33	1504.25
840.644	1518.25
845.952	1515.25
851.255	1486.25
856.552	1493.25
861.844	1483.25
867.13	1471.25
872.41	1457.25
877.686	1455.25
882.955	1438.25
888.219	1427.25
893.478	1404.25
898.731	1367.25
903.979	1341.25
909.221	1345.25
914.458	1314.25
919.69	1314.25
924.916	1326.25
930.136	1314.25
935.351	1312.25
940.561	1303.25
945.766	1295.25
950.965	1300.25
956.158	1275.25
961.347	1269.25
966.529	1236.25
971.707	1252.25
976.879	1215.25
982.046	1212.25
987.208	1213.25
992.364	1208.25
997.515	1214.25
1002.66	1239.25
1007.801	1218.25
1012.936	1225.25
1018.066	1240.25
1023.19	1254.25
1028.309	1235.25
1033.423	1245.25
1038.532	1242.25
1043.636	1230.25
1048.734	1229.25
1053.827	1224.25
1058.915	1186.25
1063.998	1191.25
1069.075	1188.25
1074.147	1181.25
1079.214	1187.25
1084.276	1205.25
1089.333	1197.25
1094.385	1221.25
1099.431	1221.25
1104.472	1219.25
1109.509	1209.25
1114.54	1196.25
1119.565	1186.25
1124.586	1172.25
1129.602	1152.25
1134.613	1157.25
1139.618	1151.25
1144.619	1151.25
1149.614	1158.25
1154.604	1151.25
1159.589	1164.25
1164.57	1168.25
1169.545	1181.25
1174.515	1169.25
1179.48	1175.25
1184.44	1150.25
1189.395	1156.25
1194.345	1153.25
1199.29	1136.25
1204.23	1143.25
1209.165	1167.25
1214.095	1154.25
1219.021	1164.25
1223.941	1173.25
1228.856	1180.25
1233.766	1186.25
1238.672	1187.25
1243.572	1178.25
1248.467	1173.25
1253.358	1166.25
1258.244	1133.25
1263.124	1143.25
1268	1109.25
1272.871	1100.25
1277.737	1094.25
1282.599	1096.25
1287.455	1091.25
1292.306	1094.25
1297.153	1105.25
1301.995	1123.25
1306.832	1130.25
1311.664	1122.25
1316.491	1128.25
1321.314	1104.25
1326.132	1117.25
1330.945	1072.25
1335.753	1045.25
1340.556	1026.25
1345.354	1014.25
1350.148	999.25
1354.937	989.25
1359.722	998.25
1364.501	1026.25
1369.276	1044.25
1374.046	1056.25
1378.811	1080.25
1383.572	1078.25
1388.327	1080.25
1393.079	1069.25
1397.825	1033.25
1402.567	1016.25
1407.304	995.25
1412.036	998.25
1416.764	980.25
1421.487	981.25
1426.205	977.25
1430.919	977.25
1435.628	977.25
1440.333	1004.25
1445.032	1002.25
1449.727	1007.25
1454.418	1010.25
1459.104	1011.25
1463.785	999.25
1468.462	988.25
1473.134	983.25
1477.802	975.25
1482.465	961.25
1487.123	963.25
1491.777	969.25
1496.426	972.25
1501.071	1007.25
1505.711	1021.25
1510.347	1027.25
1514.978	1042.25
1519.604	1070.25
1524.226	1061.25
1528.844	1077.25
1533.457	1070.25
1538.065	1065.25
1542.669	1086.25
1547.269	1076.25
1551.864	1072.25
1556.454	1074.25
1561.041	1091.25
1565.622	1104.25
1570.199	1107.25
1574.772	1119.25
1579.34	1132.25
1583.904	1154.25
1588.464	1162.25
1593.019	1177.25
1597.569	1184.25
1602.115	1204.25
1606.657	1221.25
1611.195	1226.25
1615.728	1224.25
1620.256	1242.25
1624.78	1264.25
1629.3	1270.25
1633.816	1299.25
1638.327	1327.25
1642.834	1335.25
1647.336	1321.25
1651.834	1348.25
1656.328	1336.25
1660.817	1338.25
1665.302	1304.25
1669.783	1292.25
1674.259	1253.25
1678.732	1212.25
1683.199	1169.25
1687.663	1110.25
1692.122	1074.25
1696.577	1044.25
1701.028	1030.25
1705.474	1014.25
1709.917	989.25
1714.355	975.25
1718.788	938.25
1723.218	920.25
1727.643	900.25
1732.064	876.25
1736.481	857.25
1740.893	818.25
1745.301	797.25
1749.705	780.25
1754.105	747.25
1758.501	724.25
1762.893	703.25
1767.28	690.25
1771.663	682.25
1776.042	678.25
1780.417	678.25
1784.787	683.25
1789.154	695.25
1793.516	703.25
1797.874	720.25
1802.228	709.25
1806.578	712.25
1810.924	704.25
1815.266	699.25
1819.603	687.25
1823.937	677.25
1828.266	664.25
1832.591	655.25
1836.913	639.25
1841.23	640.25
1845.543	622.25
1849.852	630.25
1854.156	618.25
1858.457	628.25
1862.754	638.25
1867.047	630.25
1871.335	635.25
1875.62	635.25
1879.9	633.25
1884.177	630.25
1888.449	627.25
1892.718	618.25
1896.982	625.25
1901.243	626.25
1905.499	620.25
1909.752	612.25
1914	622.25
1918.245	617.25
1922.485	625.25
1926.722	628.25
1930.954	636.25
1935.183	649.25
1939.408	656.25
1943.628	656.25
1947.845	653.25
1952.058	655.25
1956.267	649.25
1960.472	641.25
1964.673	638.25
1968.87	627.25
1973.063	624.25
1977.252	627.25
1981.438	627.25
1985.619	613.25
1989.797	609.25
1993.971	607.25
1998.14	619.25
2002.306	616.25
2006.469	611.25
2010.627	604.25
2014.781	612.25
2018.932	610.25
2023.078	604.25
2027.221	610.25
2031.36	600.25
2035.495	596.25
2039.627	595.25
2043.754	596.25
2047.878	584.25
2051.998	585.25
2056.114	594.25
2060.226	594.25
2064.334	597.25
2068.439	605.25
2072.54	604.25
2076.637	608.25
2080.73	618.25
2084.82	613.25
2088.906	614.25
2092.988	602.25
2097.066	609.25
2101.14	608.25
2105.211	612.25
2109.278	598.25
2113.342	606.25
2117.401	590.25
2121.457	604.25
2125.509	594.25
2129.558	587.25
2133.602	586.25
2137.643	590.25
2141.681	589.25
2145.714	576.25
2149.744	590.25
2153.77	580.25
2157.793	574.25
2161.812	567.25
2165.827	548.25
2169.838	541.25
2173.846	543.25
2177.851	527.25
2181.851	512.25
2185.848	513.25
2189.841	505.25
2193.831	490.25
2197.817	494.25
2201.799	501.25
2205.778	485.25
2209.753	484.25
2213.725	487.25
2217.693	488.25
2221.657	486.25
2225.618	476.25
2229.575	477.25
2233.529	479.25
2237.479	475.25
2241.425	468.25
2245.368	463.25
2249.307	448.25
2253.243	450.25
2257.175	442.25
2261.104	435.25
2265.029	431.25
2268.95	423.25
2272.868	413.25
2276.783	402.25
2280.694	407.25
2284.601	393.25
2288.505	399.25
2292.405	386.25
2296.302	387.25
2300.195	394.25
2304.085	384.25
2307.971	379.25
2311.854	361.25
2315.734	353.25
2319.609	350.25
2323.482	337.25
2327.351	340.25
2331.216	338.25
2335.078	342.25
2338.937	328.25
2342.792	326.25
2346.643	340.25
2350.492	325.25
2354.336	324.25
2358.178	320.25
2362.015	322.25
2365.85	319.25
2369.681	326.25
2373.508	326.25
2377.333	316.25
2381.153	312.25
2384.971	324.25
2388.785	323.25
2392.595	313.25
2396.402	309.25
2400.206	300.25
2404.007	308.25
2407.804	306.25
2411.597	295.25
2415.388	299.25
2419.174	303.25
2422.958	287.25
2426.738	289.25
2430.515	294.25
2434.289	287.25
2438.059	276.25
2441.825	279.25
2445.589	272.25
2449.349	280.25
2453.106	275.25
2456.859	270.25
2460.61	266.25
2464.356	272.25
2468.1	267.25
2471.84	271.25
2475.577	261.25
2479.311	254.25
2483.041	266.25
2486.768	260.25
2490.492	252.25
2494.213	265.25
2497.93	262.25
2501.644	266.25
2505.355	256.25
2509.062	268.25
2512.766	250.25
2516.467	260.25
2520.165	258.25
2523.859	253.25
2527.551	251.25
2531.239	239.25
2534.923	247.25
2538.605	247.25
2542.283	243.25
2545.958	243.25
2549.63	234.25
2553.299	235.25
2556.964	234.25
2560.626	239.25
2564.285	230.25
2567.941	238.25
2571.594	233.25
2575.243	224.25
2578.89	234.25
2582.533	231.25
2586.173	234.25
2589.809	227.25
2593.443	225.25
2597.073	224.25
2600.701	218.25
2604.325	221.25
2607.946	214.25
2611.564	216.25
2615.178	205.25
2618.79	219.25
2622.398	216.25
2626.004	212.25
2629.606	214.25
2633.205	208.25
2636.801	203.25
2640.394	201.25
2643.983	201.25
2647.57	197.25
2651.153	198.25
2654.734	181.25
2658.311	186.25
2661.885	185.25
2665.456	188.25
2669.025	178.25
2672.589	177.25
2676.151	179.25
2679.71	174.25
2683.266	177.25
2686.819	171.25
2690.368	172.25
2693.915	164.25
2697.458	163.25
2700.999	165.25
2704.536	164.25
2708.071	165.25
2711.602	158.25
2715.13	153.25
2718.656	152.25
2722.178	153.25
2725.697	150.25
2729.214	149.25
2732.727	149.25
2736.237	157.25
2739.744	157.25
2743.249	156.25
2746.75	163.25
2750.248	159.25
2753.743	162.25
2757.236	164.25
2760.725	167.25
2764.211	165.25
2767.695	164.25
2771.175	167.25
2774.652	170.25
2778.127	174.25
2781.598	168.25
2785.067	159.25
2788.532	160.25
2791.995	162.25
2795.455	162.25
2798.911	164.25
2802.365	166.25
2805.816	172.25
2809.264	169.25
2812.709	169.25
2816.151	167.25
2819.59	174.25
2823.026	166.25
2826.46	169.25
2829.89	168.25
2833.318	174.25
2836.742	164.25
2840.164	172.25
2843.583	173.25
2846.999	175.25
2850.412	175.25
2853.822	180.25
2857.229	179.25
2860.634	184.25
2864.035	190.25
2867.434	194.25
2870.83	191.25
2874.223	202.25
2877.613	206.25
2881	201.25
2884.385	200.25
2887.766	215.25
2891.145	200.25
2894.521	210.25
2897.894	199.25
2901.264	211.25
2904.631	211.25
2907.996	216.25
2911.358	213.25
2914.717	220.25
2918.073	221.25
2921.426	224.25
2924.777	230.25
2928.124	232.25
2931.469	239.25
2934.811	243.25
2938.15	249.25
2941.487	248.25
2944.821	261.25
2948.152	265.25
2951.48	268.25
2954.805	271.25
2958.128	283.25
2961.447	274.25
2964.765	284.25
2968.079	293.25
2971.39	300.25
2974.699	304.25
2978.005	313.25
2981.308	326.25
2984.609	334.25
2987.907	346.25
2991.202	358.25
2994.494	378.25
2997.784	390.25
3001.07	408.25
3004.355	413.25
3007.636	416.25
3010.915	420.25
3014.191	442.25
3017.464	452.25
3020.734	458.25
3024.002	460.25
3027.267	475.25
3030.53	486.25
3033.789	490.25
3037.046	498.25
3040.301	502.25
3043.552	522.25
3046.801	533.25
3050.048	547.25
3053.291	565.25
3056.532	577.25
3059.771	600.25
3063.006	629.25
3066.239	641.25
3069.469	664.25
3072.697	673.25
3075.922	695.25
3079.144	711.25
3082.364	741.25
3085.581	754.25
3088.795	780.25
3092.007	781.25
3095.216	798.25
3098.423	823.25
3101.627	856.25
3104.828	860.25
3108.026	893.25
3111.222	887.25
3114.416	933.25
3117.607	939.25
3120.795	954.25
3123.98	982.25
3127.163	1007.25
3130.344	1034.25
3133.521	1059.25
3136.696	1072.25
3139.869	1110.25
3143.039	1123.25
3146.206	1138.25
3149.371	1159.25
3152.533	1162.25
3155.693	1175.25
3158.85	1173.25
3162.005	1176.25
3165.157	1198.25
3168.306	1213.25
3171.453	1204.25
3174.597	1212.25
3177.739	1224.25
3180.878	1215.25
3184.014	1222.25
3187.149	1224.25
3190.28	1231.25
3193.409	1240.25
3196.536	1235.25
3199.659	1236.25
3202.781	1250.25
3205.9	1226.25
3209.016	1254.25
3212.13	1259.25
3215.241	1238.25
3218.35	1222.25
3221.456	1206.25
3224.56	1223.25
3227.661	1203.25
3230.76	1193.25
3233.856	1189.25
3236.95	1173.25
3240.041	1154.25
3243.13	1172.25
3246.216	1165.25
3249.3	1144.25
3252.382	1144.25
3255.46	1143.25
3258.537	1131.25
3261.611	1142.25
3264.682	1131.25
3267.751	1143.25
3270.818	1125.25
3273.882	1131.25
3276.943	1114.25
3280.002	1107.25
3283.059	1089.25
3286.113	1072.25
3289.165	1064.25
3292.214	1037.25
3295.261	1033.25
3298.306	1009.25
3301.348	992.25
3304.387	972.25
3307.425	974.25
3310.459	956.25
3313.492	939.25
3316.521	936.25
3319.549	923.25
3322.574	905.25
3325.597	899.25
3328.617	899.25
3331.635	898.25
3334.65	885.25
3337.663	874.25
3340.674	857.25
3343.682	865.25
3346.688	860.25
3349.691	863.25
3352.692	849.25
3355.691	851.25
3358.687	842.25
3361.681	839.25
3364.673	808.25
3367.662	810.25
3370.649	796.25
3373.633	792.25
3376.615	796.25
3379.595	766.25
3382.572	766.25
3385.547	745.25
3388.52	746.25
3391.49	741.25
3394.458	721.25
3397.424	714.25
3400.387	704.25
3403.348	696.25
3406.307	677.25
3409.263	690.25
3412.217	666.25
3415.168	671.25
3418.118	664.25
3421.065	658.25
3424.009	654.25
3426.951	638.25
3429.891	629.25
3432.829	606.25
3435.764	593.25
3438.697	594.25
3441.628	573.25
3444.557	559.25
3447.483	548.25
3450.407	539.25
3453.328	518.25
3456.247	505.25
3459.164	495.25
3462.079	485.25
3464.991	468.25
3467.902	450.25
3470.809	429.25
3473.715	425.25
3476.618	420.25
3479.519	404.25
3482.418	391.25
3485.315	378.25
3488.209	372.25
3491.101	357.25
3493.99	364.25
3496.878	350.25
3499.763	332.25
3502.646	315.25
3505.527	314.25
3508.405	295.25
3511.281	293.25
3514.155	268.25
3517.027	268.25
3519.897	247.25
3522.764	240.25
3525.629	224.25
3528.492	210.25
3531.352	199.25
3534.211	194.25
3537.067	174.25
3539.921	167.25
3542.773	165.25
3545.622	157.25
3548.469	142.25
3551.315	135.25
3554.157	132.25
3556.998	128.25
3559.837	112.25
3562.673	96.25
3565.507	99.25
3568.339	94.25
3571.169	83.25
3573.996	87.25
3576.822	69.25
3579.645	68.25
3582.466	65.25
3585.285	61.25
3588.101	50.25
3590.916	52.25
3593.728	39.25
3596.538	34.25
3599.346	25.25
3602.152	22.25
3604.956	21.25
3607.757	6.25
3610.556	12.25
3613.354	9.25
3616.149	2.25
3618.942	-1.75
3621.732	-0.75
3624.521	-8.75
3627.307	-11.75
3630.092	-7.75
3632.874	-21.75
3635.654	-18.75
3638.432	-25.75
3641.208	-26.75
3643.982	-31.75
3646.753	-30.75
3649.523	-36.75
3652.29	-35.75
3655.055	-41.75
3657.818	-47.75
3660.579	-51.75
3663.338	-47.75
3666.095	-54.75
3668.849	-55.75
3671.602	-55.75
3674.352	-66.75
3677.101	-65.75
3679.847	-63.75
3682.591	-63.75
3685.333	-68.75
3688.073	-71.75
3690.811	-76.75
3693.547	-78.75
3696.281	-75.75
3699.013	-74.75
3701.742	-74.75
3704.47	-74.75
3707.195	-76.75
3709.919	-81.75
3712.64	-79.75
3715.359	-81.75
3718.076	-86.75
3720.792	-87.75
3723.505	-89.75
3726.216	-89.75
3728.925	-88.75
3731.632	-92.75
3734.336	-92.75
3737.039	-87.75
3739.74	-90.75
3742.439	-95.75
3745.136	-94.75
3747.83	-93.75
3750.523	-93.75
3753.213	-98.75
3755.902	-98.75
3758.589	-97.75
3761.273	-95.75
3763.956	-96.75
3766.636	-97.75
3769.315	-97.75
3771.991	-103.75
3774.665	-102.75
3777.338	-97.75
3780.008	-100.75
3782.677	-99.75
3785.343	-101.75
3788.007	-97.75
3790.67	-103.75
3793.33	-100.75
3795.989	-103.75
3798.645	-99.75
3801.299	-106.75
3803.952	-105.75
3806.602	-105.75
3809.251	-106.75
3811.897	-107.75
3814.542	-104.75
3817.184	-104.75
3819.825	-102.75
3822.463	-102.75
3825.1	-100.75
3827.735	-102.75
3830.367	-104.75
3832.998	-105.75
3835.627	-109.75
3838.253	-108.75
3840.878	-108.75
3843.501	-110.75
3846.122	-109.75
3848.741	-111.75
3851.358	-106.75
3853.973	-111.75
3856.586	-108.75
3859.197	-109.75
3861.806	-108.75
3864.414	-110.75
3867.019	-107.75
3869.622	-105.75
3872.224	-108.75
3874.823	-103.75
3877.421	-97.75
3880.016	-101.75
3882.61	-99.75
3885.202	-99.75
3887.792	-101.75
3890.38	-105.75
3892.966	-110.75
3895.55	-109.75
3898.132	-108.75
3900.713	-114.75
3903.291	-108.75
3905.868	-107.75
3908.442	-106.75
3911.015	-111.75
3913.586	-108.75
3916.155	-110.75
3918.722	-109.75
3921.287	-109.75
3923.85	-109.75
3926.411	-113.75
3928.971	-112.75
3931.528	-108.75
3934.084	-113.75
3936.638	-111.75
3939.19	-112.75
3941.74	-112.75
3944.288	-112.75
3946.834	-110.75
3949.378	-112.75
3951.921	-110.75
3954.462	-109.75
3957	-109.75
3959.537	-105.75
3962.072	-112.75
3964.606	-112.75
3967.137	-107.75
3969.667	-106.75
3972.194	-111.75
3974.72	-111.75
3977.244	-109.75
3979.766	-111.75
3982.286	-112.75
3984.805	-110.75
3987.321	-109.75
3989.836	-111.75
3992.349	-108.75
3994.86	-110.75
3997.369	-110.75
3999.877	-112.75
4002.382	-108.75
4004.886	-103.75
4007.388	-108.75
4009.888	-109.75
4012.386	-108.75
4014.883	-104.75
4017.377	-109.75
4019.87	-114.75
4022.361	-113.75
4024.85	-114.75
4027.338	-111.75
4029.823	-111.75
4032.307	-108.75
4034.789	-110.75
4037.269	-108.75
4039.747	-105.75
4042.224	-110.75
4044.699	-113.75
4047.172	-111.75
4049.643	-112.75
4052.112	-115.75
4054.58	-112.75
4057.046	-113.75
4059.51	-112.75
4061.972	-111.75
4064.432	-112.75
4066.891	-108.75
4069.348	-105.75
4071.803	-109.75
4074.256	-111.75
4076.708	-107.75
4079.158	-112.75
4081.606	-109.75
4084.052	-111.75
4086.497	-112.75
4088.939	-106.75
4091.38	-110.75
4093.819	-115.75
4096.257	-112.75
4098.693	-112.75
4101.127	-113.75
4103.559	-113.75
4105.989	-68.75
4108.418	-69.75
4110.845	-68.75
4113.27	-62.75
4115.694	-54.75
4118.115	-46.75
4120.535	-113.75
4122.954	-110.75
4125.37	-111.75
4127.785	-110.75
4130.198	-115.75
4132.609	-109.75
4135.019	-114.75
4137.427	-114.75
4139.833	-113.75
4142.237	-112.75
