Data from Bsub_water_DIL10_B_1_RamanShift_1.txt Node
Date: Wed Feb 22 13:32:16 IST 2017
User: aro
Spectrometer: QEPB0276
Trigger mode: 0
Integration Time (sec): 5.000000E0
Scans to average: 1
Electric dark correction enabled: true
Nonlinearity correction enabled: false
Boxcar width: 0
XAxis mode: Raman Shifts
Number of Pixels in Spectrum: 1044
>>>>>Begin Spectral Data<<<<<
160.701	-30.62
166.742	3.38
172.777	97.38
178.805	382.38
184.826	1072.38
190.841	2265.38
196.849	3565.38
202.85	4495.38
208.845	4718.38
214.833	4561.38
220.815	4367.38
226.789	4205.38
232.758	4086.38
238.719	3941.38
244.674	3770.38
250.623	3573.38
256.565	3413.38
262.5	3241.38
268.429	3072.38
274.351	2956.38
280.267	2810.38
286.176	2681.38
292.079	2595.38
297.975	2474.38
303.865	2388.38
309.748	2331.38
315.625	2238.38
321.495	2191.38
327.359	2166.38
333.217	2110.38
339.068	2127.38
344.912	2105.38
350.751	2094.38
356.583	2118.38
362.408	2099.38
368.227	2091.38
374.04	2099.38
379.847	2113.38
385.647	2116.38
391.44	2115.38
397.228	2136.38
403.009	2146.38
408.784	2167.38
414.553	2157.38
420.315	2194.38
426.071	2173.38
431.821	2170.38
437.565	2160.38
443.302	2177.38
449.033	2186.38
454.758	2176.38
460.477	2139.38
466.189	2147.38
471.896	2116.38
477.596	2092.38
483.29	2100.38
488.978	2087.38
494.66	2055.38
500.335	2042.38
506.005	2005.38
511.668	1975.38
517.325	1905.38
522.977	1889.38
528.622	1847.38
534.261	1836.38
539.894	1805.38
545.521	1763.38
551.141	1774.38
556.756	1769.38
562.365	1765.38
567.968	1737.38
573.565	1716.38
579.155	1703.38
584.74	1698.38
590.319	1669.38
595.892	1669.38
601.459	1650.38
607.02	1637.38
612.575	1606.38
618.124	1586.38
623.667	1589.38
629.204	1567.38
634.735	1550.38
640.261	1542.38
645.781	1528.38
651.294	1540.38
656.802	1526.38
662.304	1497.38
667.8	1490.38
673.29	1477.38
678.775	1472.38
684.254	1483.38
689.726	1456.38
695.193	1446.38
700.655	1433.38
706.11	1438.38
711.56	1419.38
717.004	1400.38
722.442	1380.38
727.874	1387.38
733.301	1375.38
738.722	1358.38
744.137	1339.38
749.547	1354.38
754.951	1338.38
760.349	1339.38
765.741	1344.38
771.128	1346.38
776.509	1340.38
781.885	1335.38
787.254	1314.38
792.618	1317.38
797.977	1324.38
803.33	1282.38
808.677	1279.38
814.019	1250.38
819.355	1259.38
824.686	1226.38
830.011	1235.38
835.33	1212.38
840.644	1205.38
845.952	1189.38
851.255	1187.38
856.552	1177.38
861.844	1166.38
867.13	1153.38
872.41	1137.38
877.686	1120.38
882.955	1107.38
888.219	1085.38
893.478	1060.38
898.731	1033.38
903.979	1019.38
909.221	1005.38
914.458	996.38
919.69	979.38
924.916	985.38
930.136	974.38
935.351	981.38
940.561	969.38
945.766	956.38
950.965	945.38
956.158	939.38
961.347	940.38
966.529	906.38
971.707	899.38
976.879	884.38
982.046	871.38
987.208	873.38
992.364	864.38
997.515	861.38
1002.66	874.38
1007.801	869.38
1012.936	871.38
1018.066	888.38
1023.19	871.38
1028.309	891.38
1033.423	896.38
1038.532	882.38
1043.636	862.38
1048.734	874.38
1053.827	865.38
1058.915	845.38
1063.998	829.38
1069.075	847.38
1074.147	844.38
1079.214	848.38
1084.276	849.38
1089.333	846.38
1094.385	848.38
1099.431	856.38
1104.472	862.38
1109.509	859.38
1114.54	840.38
1119.565	841.38
1124.586	817.38
1129.602	803.38
1134.613	805.38
1139.618	810.38
1144.619	800.38
1149.614	807.38
1154.604	804.38
1159.589	811.38
1164.57	804.38
1169.545	805.38
1174.515	811.38
1179.48	803.38
1184.44	798.38
1189.395	795.38
1194.345	807.38
1199.29	782.38
1204.23	798.38
1209.165	802.38
1214.095	800.38
1219.021	803.38
1223.941	800.38
1228.856	814.38
1233.766	821.38
1238.672	826.38
1243.572	806.38
1248.467	810.38
1253.358	805.38
1258.244	779.38
1263.124	770.38
1268	758.38
1272.871	758.38
1277.737	748.38
1282.599	733.38
1287.455	741.38
1292.306	755.38
1297.153	749.38
1301.995	761.38
1306.832	757.38
1311.664	763.38
1316.491	761.38
1321.314	754.38
1326.132	735.38
1330.945	730.38
1335.753	718.38
1340.556	696.38
1345.354	681.38
1350.148	668.38
1354.937	678.38
1359.722	683.38
1364.501	687.38
1369.276	695.38
1374.046	702.38
1378.811	712.38
1383.572	704.38
1388.327	695.38
1393.079	699.38
1397.825	688.38
1402.567	662.38
1407.304	666.38
1412.036	649.38
1416.764	641.38
1421.487	649.38
1426.205	649.38
1430.919	650.38
1435.628	660.38
1440.333	659.38
1445.032	656.38
1449.727	674.38
1454.418	671.38
1459.104	670.38
1463.785	666.38
1468.462	655.38
1473.134	636.38
1477.802	640.38
1482.465	635.38
1487.123	642.38
1491.777	654.38
1496.426	642.38
1501.071	656.38
1505.711	681.38
1510.347	699.38
1514.978	708.38
1519.604	718.38
1524.226	721.38
1528.844	719.38
1533.457	723.38
1538.065	723.38
1542.669	743.38
1547.269	728.38
1551.864	725.38
1556.454	734.38
1561.041	750.38
1565.622	765.38
1570.199	772.38
1574.772	774.38
1579.34	799.38
1583.904	821.38
1588.464	843.38
1593.019	858.38
1597.569	871.38
1602.115	876.38
1606.657	896.38
1611.195	921.38
1615.728	957.38
1620.256	959.38
1624.78	963.38
1629.3	983.38
1633.816	1014.38
1638.327	1011.38
1642.834	1038.38
1647.336	1054.38
1651.834	1057.38
1656.328	1034.38
1660.817	1034.38
1665.302	1019.38
1669.783	991.38
1674.259	947.38
1678.732	914.38
1683.199	869.38
1687.663	819.38
1692.122	778.38
1696.577	743.38
1701.028	723.38
1705.474	709.38
1709.917	686.38
1714.355	654.38
1718.788	631.38
1723.218	606.38
1727.643	578.38
1732.064	558.38
1736.481	532.38
1740.893	501.38
1745.301	483.38
1749.705	468.38
1754.105	451.38
1758.501	437.38
1762.893	416.38
1767.28	402.38
1771.663	395.38
1776.042	391.38
1780.417	388.38
1784.787	388.38
1789.154	387.38
1793.516	390.38
1797.874	390.38
1802.228	398.38
1806.578	383.38
1810.924	392.38
1815.266	378.38
1819.603	357.38
1823.937	367.38
1828.266	356.38
1832.591	351.38
1836.913	333.38
1841.23	335.38
1845.543	340.38
1849.852	334.38
1854.156	330.38
1858.457	322.38
1862.754	338.38
1867.047	329.38
1871.335	332.38
1875.62	335.38
1879.9	334.38
1884.177	330.38
1888.449	334.38
1892.718	329.38
1896.982	318.38
1901.243	330.38
1905.499	325.38
1909.752	327.38
1914	325.38
1918.245	329.38
1922.485	337.38
1926.722	334.38
1930.954	343.38
1935.183	347.38
1939.408	347.38
1943.628	344.38
1947.845	355.38
1952.058	345.38
1956.267	355.38
1960.472	346.38
1964.673	343.38
1968.87	328.38
1973.063	336.38
1977.252	339.38
1981.438	336.38
1985.619	334.38
1989.797	327.38
1993.971	335.38
1998.14	328.38
2002.306	338.38
2006.469	339.38
2010.627	343.38
2014.781	332.38
2018.932	342.38
2023.078	330.38
2027.221	333.38
2031.36	335.38
2035.495	335.38
2039.627	337.38
2043.754	333.38
2047.878	341.38
2051.998	340.38
2056.114	332.38
2060.226	338.38
2064.334	346.38
2068.439	351.38
2072.54	354.38
2076.637	347.38
2080.73	362.38
2084.82	358.38
2088.906	368.38
2092.988	366.38
2097.066	369.38
2101.14	353.38
2105.211	361.38
2109.278	354.38
2113.342	355.38
2117.401	350.38
2121.457	353.38
2125.509	355.38
2129.558	346.38
2133.602	345.38
2137.643	352.38
2141.681	342.38
2145.714	344.38
2149.744	338.38
2153.77	336.38
2157.793	329.38
2161.812	330.38
2165.827	320.38
2169.838	320.38
2173.846	308.38
2177.851	296.38
2181.851	294.38
2185.848	283.38
2189.841	285.38
2193.831	290.38
2197.817	277.38
2201.799	277.38
2205.778	276.38
2209.753	261.38
2213.725	275.38
2217.693	266.38
2221.657	266.38
2225.618	260.38
2229.575	256.38
2233.529	257.38
2237.479	259.38
2241.425	246.38
2245.368	254.38
2249.307	237.38
2253.243	232.38
2257.175	232.38
2261.104	238.38
2265.029	229.38
2268.95	221.38
2272.868	213.38
2276.783	207.38
2280.694	205.38
2284.601	210.38
2288.505	201.38
2292.405	196.38
2296.302	200.38
2300.195	190.38
2304.085	190.38
2307.971	185.38
2311.854	183.38
2315.734	170.38
2319.609	167.38
2323.482	161.38
2327.351	166.38
2331.216	166.38
2335.078	170.38
2338.937	161.38
2342.792	156.38
2346.643	149.38
2350.492	148.38
2354.336	155.38
2358.178	145.38
2362.015	144.38
2365.85	143.38
2369.681	145.38
2373.508	141.38
2377.333	144.38
2381.153	143.38
2384.971	145.38
2388.785	141.38
2392.595	141.38
2396.402	141.38
2400.206	138.38
2404.007	128.38
2407.804	132.38
2411.597	126.38
2415.388	132.38
2419.174	132.38
2422.958	122.38
2426.738	122.38
2430.515	127.38
2434.289	121.38
2438.059	125.38
2441.825	119.38
2445.589	121.38
2449.349	111.38
2453.106	124.38
2456.859	123.38
2460.61	112.38
2464.356	110.38
2468.1	114.38
2471.84	110.38
2475.577	106.38
2479.311	103.38
2483.041	96.38
2486.768	98.38
2490.492	107.38
2494.213	103.38
2497.93	107.38
2501.644	108.38
2505.355	100.38
2509.062	103.38
2512.766	108.38
2516.467	108.38
2520.165	99.38
2523.859	104.38
2527.551	96.38
2531.239	94.38
2534.923	97.38
2538.605	94.38
2542.283	86.38
2545.958	95.38
2549.63	89.38
2553.299	91.38
2556.964	93.38
2560.626	82.38
2564.285	86.38
2567.941	89.38
2571.594	86.38
2575.243	90.38
2578.89	86.38
2582.533	85.38
2586.173	88.38
2589.809	83.38
2593.443	81.38
2597.073	85.38
2600.701	78.38
2604.325	78.38
2607.946	71.38
2611.564	75.38
2615.178	74.38
2618.79	74.38
2622.398	73.38
2626.004	77.38
2629.606	74.38
2633.205	74.38
2636.801	75.38
2640.394	73.38
2643.983	69.38
2647.57	62.38
2651.153	66.38
2654.734	57.38
2658.311	58.38
2661.885	62.38
2665.456	57.38
2669.025	56.38
2672.589	62.38
2676.151	60.38
2679.71	56.38
2683.266	60.38
2686.819	60.38
2690.368	59.38
2693.915	58.38
2697.458	57.38
2700.999	53.38
2704.536	52.38
2708.071	50.38
2711.602	47.38
2715.13	47.38
2718.656	48.38
2722.178	48.38
2725.697	47.38
2729.214	45.38
2732.727	51.38
2736.237	53.38
2739.744	56.38
2743.249	54.38
2746.75	63.38
2750.248	60.38
2753.743	58.38
2757.236	52.38
2760.725	68.38
2764.211	65.38
2767.695	61.38
2771.175	69.38
2774.652	55.38
2778.127	59.38
2781.598	61.38
2785.067	63.38
2788.532	62.38
2791.995	68.38
2795.455	61.38
2798.911	70.38
2802.365	77.38
2805.816	75.38
2809.264	76.38
2812.709	76.38
2816.151	82.38
2819.59	72.38
2823.026	75.38
2826.46	81.38
2829.89	79.38
2833.318	79.38
2836.742	79.38
2840.164	89.38
2843.583	94.38
2846.999	98.38
2850.412	98.38
2853.822	106.38
2857.229	107.38
2860.634	105.38
2864.035	108.38
2867.434	115.38
2870.83	116.38
2874.223	119.38
2877.613	124.38
2881	123.38
2884.385	124.38
2887.766	132.38
2891.145	134.38
2894.521	138.38
2897.894	139.38
2901.264	139.38
2904.631	143.38
2907.996	153.38
2911.358	149.38
2914.717	162.38
2918.073	160.38
2921.426	162.38
2924.777	171.38
2928.124	172.38
2931.469	183.38
2934.811	184.38
2938.15	195.38
2941.487	196.38
2944.821	207.38
2948.152	216.38
2951.48	220.38
2954.805	227.38
2958.128	236.38
2961.447	239.38
2964.765	252.38
2968.079	256.38
2971.39	260.38
2974.699	275.38
2978.005	280.38
2981.308	294.38
2984.609	299.38
2987.907	314.38
2991.202	328.38
2994.494	349.38
2997.784	362.38
3001.07	369.38
3004.355	371.38
3007.636	394.38
3010.915	413.38
3014.191	418.38
3017.464	431.38
3020.734	436.38
3024.002	452.38
3027.267	463.38
3030.53	467.38
3033.789	485.38
3037.046	497.38
3040.301	510.38
3043.552	523.38
3046.801	538.38
3050.048	556.38
3053.291	569.38
3056.532	588.38
3059.771	614.38
3063.006	641.38
3066.239	653.38
3069.469	695.38
3072.697	706.38
3075.922	730.38
3079.144	736.38
3082.364	767.38
3085.581	787.38
3088.795	795.38
3092.007	835.38
3095.216	842.38
3098.423	864.38
3101.627	901.38
3104.828	915.38
3108.026	928.38
3111.222	953.38
3114.416	979.38
3117.607	1012.38
3120.795	1027.38
3123.98	1055.38
3127.163	1084.38
3130.344	1106.38
3133.521	1140.38
3136.696	1165.38
3139.869	1186.38
3143.039	1208.38
3146.206	1228.38
3149.371	1251.38
3152.533	1268.38
3155.693	1264.38
3158.85	1284.38
3162.005	1293.38
3165.157	1300.38
3168.306	1296.38
3171.453	1302.38
3174.597	1309.38
3177.739	1317.38
3180.878	1300.38
3184.014	1318.38
3187.149	1322.38
3190.28	1305.38
3193.409	1330.38
3196.536	1330.38
3199.659	1337.38
3202.781	1329.38
3205.9	1344.38
3209.016	1348.38
3212.13	1337.38
3215.241	1342.38
3218.35	1335.38
3221.456	1321.38
3224.56	1294.38
3227.661	1292.38
3230.76	1275.38
3233.856	1287.38
3236.95	1266.38
3240.041	1267.38
3243.13	1261.38
3246.216	1235.38
3249.3	1242.38
3252.382	1233.38
3255.46	1221.38
3258.537	1213.38
3261.611	1208.38
3264.682	1214.38
3267.751	1206.38
3270.818	1205.38
3273.882	1193.38
3276.943	1186.38
3280.002	1175.38
3283.059	1165.38
3286.113	1168.38
3289.165	1145.38
3292.214	1127.38
3295.261	1098.38
3298.306	1086.38
3301.348	1067.38
3304.387	1049.38
3307.425	1029.38
3310.459	1039.38
3313.492	1010.38
3316.521	993.38
3319.549	985.38
3322.574	975.38
3325.597	969.38
3328.617	944.38
3331.635	953.38
3334.65	946.38
3337.663	953.38
3340.674	948.38
3343.682	933.38
3346.688	936.38
3349.691	920.38
3352.692	921.38
3355.691	922.38
3358.687	915.38
3361.681	909.38
3364.673	888.38
3367.662	869.38
3370.649	858.38
3373.633	851.38
3376.615	838.38
3379.595	828.38
3382.572	813.38
3385.547	806.38
3388.52	805.38
3391.49	778.38
3394.458	785.38
3397.424	774.38
3400.387	767.38
3403.348	748.38
3406.307	737.38
3409.263	742.38
3412.217	725.38
3415.168	707.38
3418.118	711.38
3421.065	705.38
3424.009	708.38
3426.951	693.38
3429.891	679.38
3432.829	657.38
3435.764	643.38
3438.697	635.38
3441.628	615.38
3444.557	609.38
3447.483	593.38
3450.407	580.38
3453.328	560.38
3456.247	555.38
3459.164	534.38
3462.079	529.38
3464.991	502.38
3467.902	483.38
3470.809	471.38
3473.715	466.38
3476.618	450.38
3479.519	426.38
3482.418	424.38
3485.315	415.38
3488.209	399.38
3491.101	400.38
3493.99	369.38
3496.878	366.38
3499.763	362.38
3502.646	345.38
3505.527	337.38
3508.405	318.38
3511.281	308.38
3514.155	288.38
3517.027	291.38
3519.897	278.38
3522.764	261.38
3525.629	249.38
3528.492	227.38
3531.352	218.38
3534.211	212.38
3537.067	190.38
3539.921	188.38
3542.773	171.38
3545.622	168.38
3548.469	157.38
3551.315	140.38
3554.157	139.38
3556.998	126.38
3559.837	129.38
3562.673	113.38
3565.507	114.38
3568.339	103.38
3571.169	100.38
3573.996	93.38
3576.822	82.38
3579.645	72.38
3582.466	67.38
3585.285	62.38
3588.101	59.38
3590.916	49.38
3593.728	48.38
3596.538	39.38
3599.346	34.38
3602.152	29.38
3604.956	29.38
3607.757	22.38
3610.556	21.38
3613.354	6.38
3616.149	11.38
3618.942	5.38
3621.732	3.38
3624.521	-6.62
3627.307	-5.62
3630.092	-13.62
3632.874	-11.62
3635.654	-17.62
3638.432	-20.62
3641.208	-24.62
3643.982	-20.62
3646.753	-28.62
3649.523	-27.62
3652.29	-36.62
3655.055	-39.62
3657.818	-41.62
3660.579	-40.62
3663.338	-47.62
3666.095	-47.62
3668.849	-59.62
3671.602	-52.62
3674.352	-58.62
3677.101	-61.62
3679.847	-64.62
3682.591	-65.62
3685.333	-67.62
3688.073	-65.62
3690.811	-69.62
3693.547	-72.62
3696.281	-75.62
3699.013	-72.62
3701.742	-75.62
3704.47	-71.62
3707.195	-80.62
3709.919	-80.62
3712.64	-80.62
3715.359	-83.62
3718.076	-86.62
3720.792	-89.62
3723.505	-88.62
3726.216	-86.62
3728.925	-86.62
3731.632	-87.62
3734.336	-91.62
3737.039	-84.62
3739.74	-91.62
3742.439	-90.62
3745.136	-89.62
3747.83	-93.62
3750.523	-91.62
3753.213	-94.62
3755.902	-98.62
3758.589	-96.62
3761.273	-99.62
3763.956	-97.62
3766.636	-100.62
3769.315	-95.62
3771.991	-99.62
3774.665	-100.62
3777.338	-98.62
3780.008	-98.62
3782.677	-97.62
3785.343	-102.62
3788.007	-96.62
3790.67	-99.62
3793.33	-100.62
3795.989	-99.62
3798.645	-99.62
3801.299	-105.62
3803.952	-107.62
3806.602	-103.62
3809.251	-101.62
3811.897	-105.62
3814.542	-103.62
3817.184	-106.62
3819.825	-96.62
3822.463	-99.62
3825.1	-99.62
3827.735	-103.62
3830.367	-103.62
3832.998	-102.62
3835.627	-108.62
3838.253	-105.62
3840.878	-106.62
3843.501	-108.62
3846.122	-108.62
3848.741	-107.62
3851.358	-108.62
3853.973	-106.62
3856.586	-106.62
3859.197	-106.62
3861.806	-109.62
3864.414	-108.62
3867.019	-104.62
3869.622	-103.62
3872.224	-108.62
3874.823	-104.62
3877.421	-97.62
3880.016	-100.62
3882.61	-97.62
3885.202	-102.62
3887.792	-101.62
3890.38	-105.62
3892.966	-111.62
3895.55	-106.62
3898.132	-106.62
3900.713	-107.62
3903.291	-103.62
3905.868	-102.62
3908.442	-105.62
3911.015	-106.62
3913.586	-106.62
3916.155	-110.62
3918.722	-111.62
3921.287	-110.62
3923.85	-109.62
3926.411	-112.62
3928.971	-111.62
3931.528	-109.62
3934.084	-108.62
3936.638	-105.62
3939.19	-107.62
3941.74	-104.62
3944.288	-112.62
3946.834	-105.62
3949.378	-108.62
3951.921	-106.62
3954.462	-107.62
3957	-109.62
3959.537	-104.62
3962.072	-113.62
3964.606	-109.62
3967.137	-107.62
3969.667	-106.62
3972.194	-108.62
3974.72	-109.62
3977.244	-105.62
3979.766	-106.62
3982.286	-104.62
3984.805	-104.62
3987.321	-104.62
3989.836	-108.62
3992.349	-107.62
3994.86	-111.62
3997.369	-108.62
3999.877	-112.62
4002.382	-107.62
4004.886	-109.62
4007.388	-108.62
4009.888	-112.62
4012.386	-107.62
4014.883	-104.62
4017.377	-105.62
4019.87	-112.62
4022.361	-107.62
4024.85	-109.62
4027.338	-109.62
4029.823	-106.62
4032.307	-106.62
4034.789	-110.62
4037.269	-107.62
4039.747	-102.62
4042.224	-109.62
4044.699	-115.62
4047.172	-107.62
4049.643	-114.62
4052.112	-114.62
4054.58	-110.62
4057.046	-108.62
4059.51	-109.62
4061.972	-105.62
4064.432	-109.62
4066.891	-105.62
4069.348	-104.62
4071.803	-110.62
4074.256	-107.62
4076.708	-108.62
4079.158	-109.62
4081.606	-114.62
4084.052	-112.62
4086.497	-110.62
4088.939	-108.62
4091.38	-107.62
4093.819	-110.62
4096.257	-107.62
4098.693	-113.62
4101.127	-110.62
4103.559	-113.62
4105.989	-71.62
4108.418	-65.62
4110.845	-67.62
4113.27	-60.62
4115.694	-47.62
4118.115	-41.62
4120.535	-108.62
4122.954	-104.62
4125.37	-105.62
4127.785	-108.62
4130.198	-109.62
4132.609	-109.62
4135.019	-111.62
4137.427	-112.62
4139.833	-114.62
4142.237	-113.62
