Data from Bsub_water_DIL1_B_1_RamanShift_1.txt Node
Date: Wed Feb 22 13:34:46 IST 2017
User: aro
Spectrometer: QEPB0276
Trigger mode: 0
Integration Time (sec): 5.000000E0
Scans to average: 1
Electric dark correction enabled: true
Nonlinearity correction enabled: false
Boxcar width: 0
XAxis mode: Raman Shifts
Number of Pixels in Spectrum: 1044
>>>>>Begin Spectral Data<<<<<
160.701	-26.12
166.742	-1.12
172.777	85.88
178.805	348.88
184.826	982.88
190.841	1987.88
196.849	3169.88
202.85	3951.88
208.845	4170.88
214.833	4006.88
220.815	3865.88
226.789	3726.88
232.758	3618.88
238.719	3523.88
244.674	3381.88
250.623	3205.88
256.565	3064.88
262.5	2911.88
268.429	2758.88
274.351	2635.88
280.267	2519.88
286.176	2435.88
292.079	2329.88
297.975	2251.88
303.865	2201.88
309.748	2097.88
315.625	2054.88
321.495	2008.88
327.359	1996.88
333.217	1960.88
339.068	1944.88
344.912	1946.88
350.751	1926.88
356.583	1919.88
362.408	1919.88
368.227	1909.88
374.04	1911.88
379.847	1930.88
385.647	1954.88
391.44	1970.88
397.228	1982.88
403.009	1970.88
408.784	1981.88
414.553	1993.88
420.315	2007.88
426.071	2001.88
431.821	2019.88
437.565	1986.88
443.302	1999.88
449.033	1998.88
454.758	1981.88
460.477	1972.88
466.189	1976.88
471.896	1957.88
477.596	1950.88
483.29	1951.88
488.978	1927.88
494.66	1915.88
500.335	1867.88
506.005	1829.88
511.668	1808.88
517.325	1783.88
522.977	1751.88
528.622	1711.88
534.261	1707.88
539.894	1670.88
545.521	1660.88
551.141	1644.88
556.756	1627.88
562.365	1610.88
567.968	1611.88
573.565	1585.88
579.155	1571.88
584.74	1564.88
590.319	1571.88
595.892	1560.88
601.459	1557.88
607.02	1533.88
612.575	1523.88
618.124	1492.88
623.667	1462.88
629.204	1465.88
634.735	1465.88
640.261	1435.88
645.781	1434.88
651.294	1433.88
656.802	1408.88
662.304	1426.88
667.8	1405.88
673.29	1410.88
678.775	1396.88
684.254	1381.88
689.726	1374.88
695.193	1365.88
700.655	1375.88
706.11	1347.88
711.56	1340.88
717.004	1318.88
722.442	1314.88
727.874	1306.88
733.301	1306.88
738.722	1302.88
744.137	1275.88
749.547	1292.88
754.951	1278.88
760.349	1264.88
765.741	1284.88
771.128	1265.88
776.509	1276.88
781.885	1283.88
787.254	1259.88
792.618	1262.88
797.977	1239.88
803.33	1230.88
808.677	1218.88
814.019	1201.88
819.355	1201.88
824.686	1180.88
830.011	1172.88
835.33	1173.88
840.644	1147.88
845.952	1138.88
851.255	1137.88
856.552	1134.88
861.844	1121.88
867.13	1120.88
872.41	1100.88
877.686	1096.88
882.955	1077.88
888.219	1051.88
893.478	1031.88
898.731	1030.88
903.979	985.88
909.221	988.88
914.458	977.88
919.69	957.88
924.916	966.88
930.136	958.88
935.351	960.88
940.561	951.88
945.766	945.88
950.965	942.88
956.158	934.88
961.347	918.88
966.529	900.88
971.707	888.88
976.879	880.88
982.046	857.88
987.208	859.88
992.364	853.88
997.515	857.88
1002.66	858.88
1007.801	873.88
1012.936	874.88
1018.066	872.88
1023.19	889.88
1028.309	884.88
1033.423	889.88
1038.532	877.88
1043.636	870.88
1048.734	874.88
1053.827	855.88
1058.915	835.88
1063.998	820.88
1069.075	830.88
1074.147	829.88
1079.214	831.88
1084.276	832.88
1089.333	847.88
1094.385	855.88
1099.431	866.88
1104.472	855.88
1109.509	854.88
1114.54	835.88
1119.565	832.88
1124.586	822.88
1129.602	815.88
1134.613	808.88
1139.618	815.88
1144.619	791.88
1149.614	814.88
1154.604	801.88
1159.589	825.88
1164.57	802.88
1169.545	818.88
1174.515	814.88
1179.48	802.88
1184.44	800.88
1189.395	793.88
1194.345	802.88
1199.29	796.88
1204.23	798.88
1209.165	795.88
1214.095	810.88
1219.021	814.88
1223.941	821.88
1228.856	814.88
1233.766	815.88
1238.672	821.88
1243.572	819.88
1248.467	820.88
1253.358	807.88
1258.244	794.88
1263.124	784.88
1268	771.88
1272.871	770.88
1277.737	758.88
1282.599	745.88
1287.455	756.88
1292.306	743.88
1297.153	762.88
1301.995	759.88
1306.832	770.88
1311.664	774.88
1316.491	767.88
1321.314	761.88
1326.132	764.88
1330.945	740.88
1335.753	723.88
1340.556	717.88
1345.354	703.88
1350.148	692.88
1354.937	691.88
1359.722	701.88
1364.501	699.88
1369.276	698.88
1374.046	721.88
1378.811	734.88
1383.572	731.88
1388.327	722.88
1393.079	695.88
1397.825	702.88
1402.567	684.88
1407.304	677.88
1412.036	677.88
1416.764	670.88
1421.487	666.88
1426.205	668.88
1430.919	662.88
1435.628	671.88
1440.333	677.88
1445.032	673.88
1449.727	681.88
1454.418	678.88
1459.104	681.88
1463.785	678.88
1468.462	663.88
1473.134	667.88
1477.802	654.88
1482.465	655.88
1487.123	656.88
1491.777	645.88
1496.426	644.88
1501.071	669.88
1505.711	685.88
1510.347	703.88
1514.978	704.88
1519.604	714.88
1524.226	724.88
1528.844	723.88
1533.457	739.88
1538.065	730.88
1542.669	744.88
1547.269	734.88
1551.864	740.88
1556.454	752.88
1561.041	756.88
1565.622	758.88
1570.199	763.88
1574.772	778.88
1579.34	799.88
1583.904	799.88
1588.464	825.88
1593.019	837.88
1597.569	857.88
1602.115	865.88
1606.657	883.88
1611.195	897.88
1615.728	904.88
1620.256	910.88
1624.78	942.88
1629.3	961.88
1633.816	967.88
1638.327	985.88
1642.834	1003.88
1647.336	1001.88
1651.834	990.88
1656.328	979.88
1660.817	991.88
1665.302	980.88
1669.783	942.88
1674.259	917.88
1678.732	897.88
1683.199	843.88
1687.663	801.88
1692.122	755.88
1696.577	736.88
1701.028	713.88
1705.474	688.88
1709.917	682.88
1714.355	665.88
1718.788	636.88
1723.218	613.88
1727.643	587.88
1732.064	566.88
1736.481	548.88
1740.893	525.88
1745.301	507.88
1749.705	486.88
1754.105	469.88
1758.501	444.88
1762.893	438.88
1767.28	431.88
1771.663	427.88
1776.042	406.88
1780.417	406.88
1784.787	411.88
1789.154	401.88
1793.516	414.88
1797.874	416.88
1802.228	425.88
1806.578	411.88
1810.924	407.88
1815.266	405.88
1819.603	396.88
1823.937	389.88
1828.266	385.88
1832.591	374.88
1836.913	363.88
1841.23	359.88
1845.543	355.88
1849.852	353.88
1854.156	347.88
1858.457	347.88
1862.754	349.88
1867.047	350.88
1871.335	355.88
1875.62	362.88
1879.9	361.88
1884.177	357.88
1888.449	343.88
1892.718	353.88
1896.982	346.88
1901.243	352.88
1905.499	346.88
1909.752	338.88
1914	346.88
1918.245	359.88
1922.485	350.88
1926.722	354.88
1930.954	368.88
1935.183	368.88
1939.408	373.88
1943.628	363.88
1947.845	382.88
1952.058	373.88
1956.267	367.88
1960.472	363.88
1964.673	360.88
1968.87	362.88
1973.063	361.88
1977.252	354.88
1981.438	354.88
1985.619	349.88
1989.797	343.88
1993.971	348.88
1998.14	344.88
2002.306	341.88
2006.469	350.88
2010.627	346.88
2014.781	356.88
2018.932	349.88
2023.078	345.88
2027.221	351.88
2031.36	344.88
2035.495	353.88
2039.627	346.88
2043.754	347.88
2047.878	335.88
2051.998	340.88
2056.114	341.88
2060.226	344.88
2064.334	343.88
2068.439	345.88
2072.54	355.88
2076.637	369.88
2080.73	366.88
2084.82	364.88
2088.906	375.88
2092.988	364.88
2097.066	370.88
2101.14	362.88
2105.211	365.88
2109.278	356.88
2113.342	359.88
2117.401	356.88
2121.457	359.88
2125.509	357.88
2129.558	354.88
2133.602	352.88
2137.643	346.88
2141.681	345.88
2145.714	338.88
2149.744	344.88
2153.77	347.88
2157.793	333.88
2161.812	330.88
2165.827	331.88
2169.838	317.88
2173.846	316.88
2177.851	314.88
2181.851	293.88
2185.848	283.88
2189.841	289.88
2193.831	286.88
2197.817	281.88
2201.799	279.88
2205.778	277.88
2209.753	271.88
2213.725	283.88
2217.693	281.88
2221.657	276.88
2225.618	272.88
2229.575	265.88
2233.529	270.88
2237.479	260.88
2241.425	261.88
2245.368	259.88
2249.307	240.88
2253.243	241.88
2257.175	245.88
2261.104	241.88
2265.029	232.88
2268.95	230.88
2272.868	219.88
2276.783	213.88
2280.694	220.88
2284.601	216.88
2288.505	214.88
2292.405	201.88
2296.302	213.88
2300.195	197.88
2304.085	196.88
2307.971	198.88
2311.854	188.88
2315.734	180.88
2319.609	176.88
2323.482	167.88
2327.351	172.88
2331.216	175.88
2335.078	169.88
2338.937	170.88
2342.792	172.88
2346.643	163.88
2350.492	149.88
2354.336	155.88
2358.178	159.88
2362.015	150.88
2365.85	156.88
2369.681	155.88
2373.508	152.88
2377.333	154.88
2381.153	151.88
2384.971	154.88
2388.785	153.88
2392.595	149.88
2396.402	147.88
2400.206	142.88
2404.007	141.88
2407.804	145.88
2411.597	141.88
2415.388	141.88
2419.174	145.88
2422.958	129.88
2426.738	134.88
2430.515	138.88
2434.289	134.88
2438.059	131.88
2441.825	128.88
2445.589	125.88
2449.349	123.88
2453.106	126.88
2456.859	127.88
2460.61	120.88
2464.356	119.88
2468.1	119.88
2471.84	122.88
2475.577	110.88
2479.311	113.88
2483.041	113.88
2486.768	116.88
2490.492	118.88
2494.213	114.88
2497.93	117.88
2501.644	114.88
2505.355	110.88
2509.062	110.88
2512.766	117.88
2516.467	109.88
2520.165	107.88
2523.859	108.88
2527.551	107.88
2531.239	111.88
2534.923	101.88
2538.605	107.88
2542.283	108.88
2545.958	106.88
2549.63	105.88
2553.299	102.88
2556.964	104.88
2560.626	98.88
2564.285	96.88
2567.941	97.88
2571.594	96.88
2575.243	93.88
2578.89	95.88
2582.533	97.88
2586.173	91.88
2589.809	84.88
2593.443	84.88
2597.073	82.88
2600.701	86.88
2604.325	91.88
2607.946	86.88
2611.564	89.88
2615.178	81.88
2618.79	89.88
2622.398	89.88
2626.004	83.88
2629.606	77.88
2633.205	81.88
2636.801	77.88
2640.394	80.88
2643.983	77.88
2647.57	67.88
2651.153	69.88
2654.734	67.88
2658.311	73.88
2661.885	76.88
2665.456	66.88
2669.025	66.88
2672.589	69.88
2676.151	69.88
2679.71	67.88
2683.266	68.88
2686.819	66.88
2690.368	62.88
2693.915	60.88
2697.458	61.88
2700.999	63.88
2704.536	65.88
2708.071	51.88
2711.602	55.88
2715.13	57.88
2718.656	61.88
2722.178	55.88
2725.697	59.88
2729.214	60.88
2732.727	61.88
2736.237	63.88
2739.744	66.88
2743.249	67.88
2746.75	70.88
2750.248	56.88
2753.743	57.88
2757.236	59.88
2760.725	65.88
2764.211	68.88
2767.695	68.88
2771.175	70.88
2774.652	73.88
2778.127	73.88
2781.598	70.88
2785.067	65.88
2788.532	65.88
2791.995	71.88
2795.455	65.88
2798.911	73.88
2802.365	78.88
2805.816	76.88
2809.264	72.88
2812.709	83.88
2816.151	76.88
2819.59	81.88
2823.026	83.88
2826.46	79.88
2829.89	87.88
2833.318	83.88
2836.742	78.88
2840.164	82.88
2843.583	94.88
2846.999	102.88
2850.412	101.88
2853.822	102.88
2857.229	95.88
2860.634	104.88
2864.035	112.88
2867.434	103.88
2870.83	106.88
2874.223	114.88
2877.613	112.88
2881	116.88
2884.385	123.88
2887.766	131.88
2891.145	131.88
2894.521	126.88
2897.894	130.88
2901.264	129.88
2904.631	145.88
2907.996	141.88
2911.358	145.88
2914.717	148.88
2918.073	153.88
2921.426	156.88
2924.777	169.88
2928.124	168.88
2931.469	175.88
2934.811	172.88
2938.15	183.88
2941.487	182.88
2944.821	192.88
2948.152	194.88
2951.48	203.88
2954.805	207.88
2958.128	211.88
2961.447	223.88
2964.765	225.88
2968.079	234.88
2971.39	245.88
2974.699	257.88
2978.005	258.88
2981.308	271.88
2984.609	281.88
2987.907	290.88
2991.202	304.88
2994.494	309.88
2997.784	323.88
3001.07	328.88
3004.355	349.88
3007.636	365.88
3010.915	366.88
3014.191	384.88
3017.464	386.88
3020.734	408.88
3024.002	407.88
3027.267	412.88
3030.53	418.88
3033.789	423.88
3037.046	448.88
3040.301	448.88
3043.552	470.88
3046.801	479.88
3050.048	492.88
3053.291	509.88
3056.532	520.88
3059.771	547.88
3063.006	563.88
3066.239	595.88
3069.469	597.88
3072.697	620.88
3075.922	660.88
3079.144	655.88
3082.364	680.88
3085.581	708.88
3088.795	713.88
3092.007	731.88
3095.216	760.88
3098.423	776.88
3101.627	797.88
3104.828	815.88
3108.026	829.88
3111.222	862.88
3114.416	872.88
3117.607	883.88
3120.795	892.88
3123.98	940.88
3127.163	953.88
3130.344	992.88
3133.521	1016.88
3136.696	1050.88
3139.869	1074.88
3143.039	1074.88
3146.206	1084.88
3149.371	1098.88
3152.533	1124.88
3155.693	1131.88
3158.85	1130.88
3162.005	1139.88
3165.157	1150.88
3168.306	1141.88
3171.453	1158.88
3174.597	1168.88
3177.739	1171.88
3180.878	1169.88
3184.014	1162.88
3187.149	1168.88
3190.28	1185.88
3193.409	1173.88
3196.536	1186.88
3199.659	1194.88
3202.781	1205.88
3205.9	1194.88
3209.016	1186.88
3212.13	1194.88
3215.241	1177.88
3218.35	1190.88
3221.456	1176.88
3224.56	1160.88
3227.661	1152.88
3230.76	1134.88
3233.856	1136.88
3236.95	1116.88
3240.041	1120.88
3243.13	1109.88
3246.216	1113.88
3249.3	1099.88
3252.382	1087.88
3255.46	1080.88
3258.537	1088.88
3261.611	1090.88
3264.682	1070.88
3267.751	1074.88
3270.818	1081.88
3273.882	1061.88
3276.943	1068.88
3280.002	1052.88
3283.059	1040.88
3286.113	1046.88
3289.165	1008.88
3292.214	991.88
3295.261	980.88
3298.306	966.88
3301.348	943.88
3304.387	950.88
3307.425	922.88
3310.459	905.88
3313.492	897.88
3316.521	899.88
3319.549	891.88
3322.574	865.88
3325.597	872.88
3328.617	868.88
3331.635	855.88
3334.65	850.88
3337.663	829.88
3340.674	838.88
3343.682	827.88
3346.688	820.88
3349.691	814.88
3352.692	825.88
3355.691	816.88
3358.687	805.88
3361.681	806.88
3364.673	790.88
3367.662	772.88
3370.649	753.88
3373.633	768.88
3376.615	749.88
3379.595	732.88
3382.572	727.88
3385.547	714.88
3388.52	707.88
3391.49	699.88
3394.458	689.88
3397.424	685.88
3400.387	682.88
3403.348	670.88
3406.307	655.88
3409.263	651.88
3412.217	638.88
3415.168	648.88
3418.118	642.88
3421.065	627.88
3424.009	625.88
3426.951	608.88
3429.891	598.88
3432.829	593.88
3435.764	582.88
3438.697	567.88
3441.628	560.88
3444.557	526.88
3447.483	516.88
3450.407	513.88
3453.328	490.88
3456.247	487.88
3459.164	467.88
3462.079	462.88
3464.991	446.88
3467.902	431.88
3470.809	422.88
3473.715	407.88
3476.618	387.88
3479.519	382.88
3482.418	374.88
3485.315	366.88
3488.209	353.88
3491.101	344.88
3493.99	334.88
3496.878	322.88
3499.763	318.88
3502.646	298.88
3505.527	298.88
3508.405	281.88
3511.281	274.88
3514.155	268.88
3517.027	255.88
3519.897	249.88
3522.764	240.88
3525.629	222.88
3528.492	206.88
3531.352	203.88
3534.211	188.88
3537.067	176.88
3539.921	161.88
3542.773	158.88
3545.622	144.88
3548.469	148.88
3551.315	125.88
3554.157	121.88
3556.998	121.88
3559.837	110.88
3562.673	100.88
3565.507	99.88
3568.339	93.88
3571.169	83.88
3573.996	79.88
3576.822	70.88
3579.645	71.88
3582.466	60.88
3585.285	52.88
3588.101	51.88
3590.916	46.88
3593.728	38.88
3596.538	35.88
3599.346	31.88
3602.152	27.88
3604.956	22.88
3607.757	18.88
3610.556	16.88
3613.354	15.88
3616.149	7.88
3618.942	9.88
3621.732	0.88
3624.521	-6.12
3627.307	-2.12
3630.092	-14.12
3632.874	-12.12
3635.654	-18.12
3638.432	-18.12
3641.208	-25.12
3643.982	-26.12
3646.753	-22.12
3649.523	-24.12
3652.29	-29.12
3655.055	-33.12
3657.818	-38.12
3660.579	-38.12
3663.338	-42.12
3666.095	-41.12
3668.849	-49.12
3671.602	-50.12
3674.352	-57.12
3677.101	-58.12
3679.847	-60.12
3682.591	-61.12
3685.333	-62.12
3688.073	-63.12
3690.811	-64.12
3693.547	-65.12
3696.281	-66.12
3699.013	-67.12
3701.742	-68.12
3704.47	-65.12
3707.195	-70.12
3709.919	-75.12
3712.64	-71.12
3715.359	-77.12
3718.076	-79.12
3720.792	-77.12
3723.505	-80.12
3726.216	-78.12
3728.925	-78.12
3731.632	-82.12
3734.336	-83.12
3737.039	-80.12
3739.74	-78.12
3742.439	-87.12
3745.136	-85.12
3747.83	-82.12
3750.523	-84.12
3753.213	-85.12
3755.902	-92.12
3758.589	-86.12
3761.273	-91.12
3763.956	-86.12
3766.636	-89.12
3769.315	-88.12
3771.991	-91.12
3774.665	-96.12
3777.338	-89.12
3780.008	-90.12
3782.677	-89.12
3785.343	-95.12
3788.007	-89.12
3790.67	-90.12
3793.33	-89.12
3795.989	-91.12
3798.645	-92.12
3801.299	-92.12
3803.952	-95.12
3806.602	-92.12
3809.251	-93.12
3811.897	-96.12
3814.542	-95.12
3817.184	-96.12
3819.825	-93.12
3822.463	-92.12
3825.1	-93.12
3827.735	-95.12
3830.367	-94.12
3832.998	-94.12
3835.627	-93.12
3838.253	-94.12
3840.878	-100.12
3843.501	-95.12
3846.122	-98.12
3848.741	-94.12
3851.358	-95.12
3853.973	-94.12
3856.586	-96.12
3859.197	-97.12
3861.806	-101.12
3864.414	-101.12
3867.019	-99.12
3869.622	-100.12
3872.224	-99.12
3874.823	-94.12
3877.421	-85.12
3880.016	-90.12
3882.61	-85.12
3885.202	-87.12
3887.792	-88.12
3890.38	-91.12
3892.966	-97.12
3895.55	-97.12
3898.132	-95.12
3900.713	-97.12
3903.291	-98.12
3905.868	-96.12
3908.442	-96.12
3911.015	-100.12
3913.586	-101.12
3916.155	-100.12
3918.722	-99.12
3921.287	-98.12
3923.85	-100.12
3926.411	-101.12
3928.971	-101.12
3931.528	-96.12
3934.084	-98.12
3936.638	-99.12
3939.19	-98.12
3941.74	-96.12
3944.288	-99.12
3946.834	-99.12
3949.378	-101.12
3951.921	-100.12
3954.462	-102.12
3957	-100.12
3959.537	-98.12
3962.072	-100.12
3964.606	-97.12
3967.137	-94.12
3969.667	-96.12
3972.194	-96.12
3974.72	-97.12
3977.244	-98.12
3979.766	-100.12
3982.286	-98.12
3984.805	-97.12
3987.321	-96.12
3989.836	-98.12
3992.349	-99.12
3994.86	-102.12
3997.369	-98.12
3999.877	-103.12
4002.382	-99.12
4004.886	-99.12
4007.388	-96.12
4009.888	-99.12
4012.386	-96.12
4014.883	-95.12
4017.377	-93.12
4019.87	-103.12
4022.361	-97.12
4024.85	-100.12
4027.338	-99.12
4029.823	-98.12
4032.307	-96.12
4034.789	-101.12
4037.269	-95.12
4039.747	-97.12
4042.224	-96.12
4044.699	-101.12
4047.172	-100.12
4049.643	-102.12
4052.112	-102.12
4054.58	-100.12
4057.046	-99.12
4059.51	-98.12
4061.972	-95.12
4064.432	-97.12
4066.891	-96.12
4069.348	-95.12
4071.803	-99.12
4074.256	-101.12
4076.708	-99.12
4079.158	-103.12
4081.606	-102.12
4084.052	-104.12
4086.497	-102.12
4088.939	-101.12
4091.38	-95.12
4093.819	-99.12
4096.257	-99.12
4098.693	-101.12
4101.127	-99.12
4103.559	-100.12
4105.989	-61.12
4108.418	-60.12
4110.845	-61.12
4113.27	-56.12
4115.694	-48.12
4118.115	-42.12
4120.535	-97.12
4122.954	-94.12
4125.37	-96.12
4127.785	-99.12
4130.198	-99.12
4132.609	-97.12
4135.019	-101.12
4137.427	-103.12
4139.833	-102.12
4142.237	-101.12
