Data from Bsub_water_DIL10_A_2_RamanShift_1.txt Node
Date: Wed Feb 22 13:06:06 IST 2017
User: aro
Spectrometer: QEPB0276
Trigger mode: 0
Integration Time (sec): 5.000000E0
Scans to average: 1
Electric dark correction enabled: true
Nonlinearity correction enabled: false
Boxcar width: 0
XAxis mode: Raman Shifts
Number of Pixels in Spectrum: 1044
>>>>>Begin Spectral Data<<<<<
160.701	-28.5
166.742	4.5
172.777	100.5
178.805	403.5
184.826	1138.5
190.841	2339.5
196.849	3725.5
202.85	4650.5
208.845	4848.5
214.833	4699.5
220.815	4474.5
226.789	4353.5
232.758	4216.5
238.719	4050.5
244.674	3890.5
250.623	3682.5
256.565	3516.5
262.5	3334.5
268.429	3140.5
274.351	3008.5
280.267	2851.5
286.176	2743.5
292.079	2628.5
297.975	2520.5
303.865	2447.5
309.748	2380.5
315.625	2308.5
321.495	2234.5
327.359	2193.5
333.217	2163.5
339.068	2151.5
344.912	2150.5
350.751	2151.5
356.583	2132.5
362.408	2141.5
368.227	2147.5
374.04	2131.5
379.847	2141.5
385.647	2169.5
391.44	2148.5
397.228	2185.5
403.009	2187.5
408.784	2213.5
414.553	2203.5
420.315	2214.5
426.071	2224.5
431.821	2213.5
437.565	2205.5
443.302	2205.5
449.033	2200.5
454.758	2191.5
460.477	2172.5
466.189	2163.5
471.896	2129.5
477.596	2134.5
483.29	2115.5
488.978	2107.5
494.66	2085.5
500.335	2074.5
506.005	2038.5
511.668	1992.5
517.325	1915.5
522.977	1898.5
528.622	1878.5
534.261	1847.5
539.894	1832.5
545.521	1802.5
551.141	1783.5
556.756	1763.5
562.365	1749.5
567.968	1749.5
573.565	1728.5
579.155	1712.5
584.74	1694.5
590.319	1682.5
595.892	1662.5
601.459	1644.5
607.02	1629.5
612.575	1607.5
618.124	1611.5
623.667	1570.5
629.204	1583.5
634.735	1544.5
640.261	1550.5
645.781	1539.5
651.294	1518.5
656.802	1503.5
662.304	1510.5
667.8	1500.5
673.29	1495.5
678.775	1475.5
684.254	1465.5
689.726	1461.5
695.193	1461.5
700.655	1435.5
706.11	1421.5
711.56	1406.5
717.004	1394.5
722.442	1383.5
727.874	1361.5
733.301	1364.5
738.722	1363.5
744.137	1328.5
749.547	1354.5
754.951	1318.5
760.349	1326.5
765.741	1324.5
771.128	1303.5
776.509	1319.5
781.885	1315.5
787.254	1311.5
792.618	1309.5
797.977	1298.5
803.33	1284.5
808.677	1262.5
814.019	1241.5
819.355	1239.5
824.686	1212.5
830.011	1209.5
835.33	1195.5
840.644	1165.5
845.952	1155.5
851.255	1155.5
856.552	1154.5
861.844	1131.5
867.13	1119.5
872.41	1110.5
877.686	1080.5
882.955	1072.5
888.219	1053.5
893.478	1038.5
898.731	1012.5
903.979	992.5
909.221	975.5
914.458	960.5
919.69	948.5
924.916	950.5
930.136	939.5
935.351	940.5
940.561	946.5
945.766	912.5
950.965	907.5
956.158	906.5
961.347	883.5
966.529	868.5
971.707	850.5
976.879	843.5
982.046	831.5
987.208	825.5
992.364	813.5
997.515	831.5
1002.66	823.5
1007.801	828.5
1012.936	845.5
1018.066	833.5
1023.19	836.5
1028.309	836.5
1033.423	837.5
1038.532	835.5
1043.636	832.5
1048.734	824.5
1053.827	818.5
1058.915	801.5
1063.998	798.5
1069.075	787.5
1074.147	788.5
1079.214	784.5
1084.276	806.5
1089.333	796.5
1094.385	806.5
1099.431	813.5
1104.472	806.5
1109.509	797.5
1114.54	797.5
1119.565	785.5
1124.586	766.5
1129.602	762.5
1134.613	767.5
1139.618	741.5
1144.619	751.5
1149.614	757.5
1154.604	758.5
1159.589	753.5
1164.57	757.5
1169.545	767.5
1174.515	768.5
1179.48	760.5
1184.44	757.5
1189.395	746.5
1194.345	745.5
1199.29	740.5
1204.23	745.5
1209.165	753.5
1214.095	745.5
1219.021	753.5
1223.941	759.5
1228.856	766.5
1233.766	773.5
1238.672	765.5
1243.572	764.5
1248.467	760.5
1253.358	746.5
1258.244	741.5
1263.124	716.5
1268	706.5
1272.871	702.5
1277.737	693.5
1282.599	695.5
1287.455	700.5
1292.306	693.5
1297.153	704.5
1301.995	699.5
1306.832	725.5
1311.664	709.5
1316.491	718.5
1321.314	695.5
1326.132	685.5
1330.945	680.5
1335.753	651.5
1340.556	644.5
1345.354	643.5
1350.148	622.5
1354.937	630.5
1359.722	614.5
1364.501	627.5
1369.276	644.5
1374.046	653.5
1378.811	647.5
1383.572	653.5
1388.327	661.5
1393.079	659.5
1397.825	633.5
1402.567	625.5
1407.304	616.5
1412.036	613.5
1416.764	608.5
1421.487	598.5
1426.205	598.5
1430.919	587.5
1435.628	607.5
1440.333	611.5
1445.032	610.5
1449.727	610.5
1454.418	613.5
1459.104	625.5
1463.785	613.5
1468.462	599.5
1473.134	597.5
1477.802	591.5
1482.465	584.5
1487.123	597.5
1491.777	590.5
1496.426	599.5
1501.071	624.5
1505.711	629.5
1510.347	645.5
1514.978	651.5
1519.604	670.5
1524.226	673.5
1528.844	683.5
1533.457	687.5
1538.065	676.5
1542.669	674.5
1547.269	677.5
1551.864	673.5
1556.454	704.5
1561.041	704.5
1565.622	718.5
1570.199	718.5
1574.772	744.5
1579.34	745.5
1583.904	778.5
1588.464	803.5
1593.019	816.5
1597.569	828.5
1602.115	851.5
1606.657	868.5
1611.195	885.5
1615.728	900.5
1620.256	919.5
1624.78	943.5
1629.3	961.5
1633.816	1002.5
1638.327	1009.5
1642.834	1015.5
1647.336	1008.5
1651.834	1023.5
1656.328	1012.5
1660.817	1010.5
1665.302	979.5
1669.783	963.5
1674.259	911.5
1678.732	885.5
1683.199	842.5
1687.663	793.5
1692.122	741.5
1696.577	724.5
1701.028	682.5
1705.474	670.5
1709.917	644.5
1714.355	623.5
1718.788	591.5
1723.218	562.5
1727.643	524.5
1732.064	515.5
1736.481	487.5
1740.893	459.5
1745.301	443.5
1749.705	420.5
1754.105	403.5
1758.501	376.5
1762.893	372.5
1767.28	359.5
1771.663	346.5
1776.042	342.5
1780.417	335.5
1784.787	336.5
1789.154	341.5
1793.516	338.5
1797.874	345.5
1802.228	342.5
1806.578	344.5
1810.924	338.5
1815.266	320.5
1819.603	323.5
1823.937	310.5
1828.266	302.5
1832.591	301.5
1836.913	298.5
1841.23	282.5
1845.543	287.5
1849.852	277.5
1854.156	282.5
1858.457	279.5
1862.754	285.5
1867.047	282.5
1871.335	280.5
1875.62	283.5
1879.9	277.5
1884.177	285.5
1888.449	279.5
1892.718	279.5
1896.982	281.5
1901.243	269.5
1905.499	274.5
1909.752	267.5
1914	280.5
1918.245	284.5
1922.485	291.5
1926.722	283.5
1930.954	298.5
1935.183	300.5
1939.408	304.5
1943.628	298.5
1947.845	300.5
1952.058	303.5
1956.267	306.5
1960.472	295.5
1964.673	292.5
1968.87	294.5
1973.063	293.5
1977.252	296.5
1981.438	290.5
1985.619	286.5
1989.797	283.5
1993.971	290.5
1998.14	286.5
2002.306	289.5
2006.469	298.5
2010.627	288.5
2014.781	293.5
2018.932	300.5
2023.078	292.5
2027.221	301.5
2031.36	292.5
2035.495	292.5
2039.627	297.5
2043.754	293.5
2047.878	299.5
2051.998	292.5
2056.114	291.5
2060.226	295.5
2064.334	296.5
2068.439	303.5
2072.54	312.5
2076.637	307.5
2080.73	317.5
2084.82	325.5
2088.906	327.5
2092.988	326.5
2097.066	323.5
2101.14	313.5
2105.211	317.5
2109.278	324.5
2113.342	314.5
2117.401	322.5
2121.457	311.5
2125.509	307.5
2129.558	313.5
2133.602	302.5
2137.643	300.5
2141.681	307.5
2145.714	296.5
2149.744	299.5
2153.77	296.5
2157.793	284.5
2161.812	288.5
2165.827	283.5
2169.838	276.5
2173.846	267.5
2177.851	262.5
2181.851	245.5
2185.848	248.5
2189.841	244.5
2193.831	242.5
2197.817	239.5
2201.799	233.5
2205.778	233.5
2209.753	224.5
2213.725	235.5
2217.693	231.5
2221.657	233.5
2225.618	221.5
2229.575	222.5
2233.529	209.5
2237.479	217.5
2241.425	205.5
2245.368	211.5
2249.307	195.5
2253.243	187.5
2257.175	188.5
2261.104	188.5
2265.029	190.5
2268.95	177.5
2272.868	175.5
2276.783	161.5
2280.694	173.5
2284.601	167.5
2288.505	161.5
2292.405	151.5
2296.302	158.5
2300.195	147.5
2304.085	149.5
2307.971	144.5
2311.854	132.5
2315.734	134.5
2319.609	125.5
2323.482	123.5
2327.351	124.5
2331.216	128.5
2335.078	128.5
2338.937	117.5
2342.792	123.5
2346.643	118.5
2350.492	109.5
2354.336	111.5
2358.178	112.5
2362.015	97.5
2365.85	106.5
2369.681	110.5
2373.508	103.5
2377.333	99.5
2381.153	103.5
2384.971	100.5
2388.785	103.5
2392.595	105.5
2396.402	104.5
2400.206	94.5
2404.007	96.5
2407.804	88.5
2411.597	88.5
2415.388	86.5
2419.174	93.5
2422.958	82.5
2426.738	88.5
2430.515	84.5
2434.289	86.5
2438.059	86.5
2441.825	86.5
2445.589	83.5
2449.349	84.5
2453.106	78.5
2456.859	82.5
2460.61	67.5
2464.356	73.5
2468.1	73.5
2471.84	77.5
2475.577	73.5
2479.311	69.5
2483.041	59.5
2486.768	62.5
2490.492	69.5
2494.213	70.5
2497.93	71.5
2501.644	76.5
2505.355	69.5
2509.062	68.5
2512.766	66.5
2516.467	67.5
2520.165	60.5
2523.859	67.5
2527.551	61.5
2531.239	60.5
2534.923	58.5
2538.605	62.5
2542.283	61.5
2545.958	62.5
2549.63	59.5
2553.299	57.5
2556.964	58.5
2560.626	50.5
2564.285	52.5
2567.941	53.5
2571.594	54.5
2575.243	51.5
2578.89	50.5
2582.533	47.5
2586.173	45.5
2589.809	45.5
2593.443	42.5
2597.073	44.5
2600.701	40.5
2604.325	47.5
2607.946	42.5
2611.564	51.5
2615.178	41.5
2618.79	42.5
2622.398	41.5
2626.004	45.5
2629.606	36.5
2633.205	36.5
2636.801	37.5
2640.394	40.5
2643.983	32.5
2647.57	36.5
2651.153	32.5
2654.734	32.5
2658.311	37.5
2661.885	32.5
2665.456	35.5
2669.025	34.5
2672.589	30.5
2676.151	34.5
2679.71	26.5
2683.266	31.5
2686.819	24.5
2690.368	25.5
2693.915	27.5
2697.458	21.5
2700.999	23.5
2704.536	18.5
2708.071	29.5
2711.602	26.5
2715.13	15.5
2718.656	21.5
2722.178	21.5
2725.697	22.5
2729.214	21.5
2732.727	27.5
2736.237	23.5
2739.744	33.5
2743.249	28.5
2746.75	30.5
2750.248	29.5
2753.743	30.5
2757.236	33.5
2760.725	38.5
2764.211	38.5
2767.695	36.5
2771.175	35.5
2774.652	42.5
2778.127	38.5
2781.598	41.5
2785.067	35.5
2788.532	44.5
2791.995	35.5
2795.455	38.5
2798.911	40.5
2802.365	43.5
2805.816	45.5
2809.264	48.5
2812.709	55.5
2816.151	50.5
2819.59	54.5
2823.026	60.5
2826.46	57.5
2829.89	56.5
2833.318	60.5
2836.742	60.5
2840.164	64.5
2843.583	67.5
2846.999	78.5
2850.412	75.5
2853.822	85.5
2857.229	76.5
2860.634	86.5
2864.035	84.5
2867.434	93.5
2870.83	93.5
2874.223	95.5
2877.613	106.5
2881	99.5
2884.385	110.5
2887.766	108.5
2891.145	108.5
2894.521	116.5
2897.894	116.5
2901.264	118.5
2904.631	126.5
2907.996	131.5
2911.358	126.5
2914.717	140.5
2918.073	146.5
2921.426	151.5
2924.777	153.5
2928.124	159.5
2931.469	169.5
2934.811	177.5
2938.15	184.5
2941.487	179.5
2944.821	183.5
2948.152	192.5
2951.48	207.5
2954.805	212.5
2958.128	214.5
2961.447	232.5
2964.765	229.5
2968.079	245.5
2971.39	247.5
2974.699	259.5
2978.005	271.5
2981.308	285.5
2984.609	295.5
2987.907	314.5
2991.202	330.5
2994.494	338.5
2997.784	351.5
3001.07	370.5
3004.355	379.5
3007.636	385.5
3010.915	403.5
3014.191	411.5
3017.464	430.5
3020.734	434.5
3024.002	450.5
3027.267	457.5
3030.53	473.5
3033.789	468.5
3037.046	494.5
3040.301	496.5
3043.552	520.5
3046.801	546.5
3050.048	557.5
3053.291	571.5
3056.532	587.5
3059.771	619.5
3063.006	642.5
3066.239	660.5
3069.469	680.5
3072.697	708.5
3075.922	729.5
3079.144	747.5
3082.364	760.5
3085.581	784.5
3088.795	807.5
3092.007	830.5
3095.216	854.5
3098.423	887.5
3101.627	903.5
3104.828	927.5
3108.026	955.5
3111.222	979.5
3114.416	1008.5
3117.607	1010.5
3120.795	1048.5
3123.98	1073.5
3127.163	1103.5
3130.344	1123.5
3133.521	1152.5
3136.696	1180.5
3139.869	1213.5
3143.039	1236.5
3146.206	1248.5
3149.371	1271.5
3152.533	1284.5
3155.693	1278.5
3158.85	1286.5
3162.005	1310.5
3165.157	1314.5
3168.306	1314.5
3171.453	1344.5
3174.597	1334.5
3177.739	1340.5
3180.878	1354.5
3184.014	1346.5
3187.149	1355.5
3190.28	1353.5
3193.409	1361.5
3196.536	1367.5
3199.659	1375.5
3202.781	1399.5
3205.9	1364.5
3209.016	1377.5
3212.13	1389.5
3215.241	1381.5
3218.35	1357.5
3221.456	1354.5
3224.56	1342.5
3227.661	1335.5
3230.76	1320.5
3233.856	1310.5
3236.95	1295.5
3240.041	1290.5
3243.13	1282.5
3246.216	1284.5
3249.3	1268.5
3252.382	1278.5
3255.46	1282.5
3258.537	1257.5
3261.611	1264.5
3264.682	1247.5
3267.751	1245.5
3270.818	1243.5
3273.882	1231.5
3276.943	1218.5
3280.002	1205.5
3283.059	1200.5
3286.113	1186.5
3289.165	1175.5
3292.214	1168.5
3295.261	1131.5
3298.306	1114.5
3301.348	1091.5
3304.387	1071.5
3307.425	1065.5
3310.459	1056.5
3313.492	1034.5
3316.521	1020.5
3319.549	1036.5
3322.574	1005.5
3325.597	1006.5
3328.617	988.5
3331.635	979.5
3334.65	973.5
3337.663	973.5
3340.674	969.5
3343.682	974.5
3346.688	964.5
3349.691	952.5
3352.692	966.5
3355.691	943.5
3358.687	940.5
3361.681	931.5
3364.673	923.5
3367.662	896.5
3370.649	894.5
3373.633	879.5
3376.615	859.5
3379.595	867.5
3382.572	845.5
3385.547	825.5
3388.52	811.5
3391.49	810.5
3394.458	806.5
3397.424	798.5
3400.387	794.5
3403.348	781.5
3406.307	766.5
3409.263	758.5
3412.217	754.5
3415.168	748.5
3418.118	729.5
3421.065	733.5
3424.009	720.5
3426.951	714.5
3429.891	689.5
3432.829	681.5
3435.764	679.5
3438.697	660.5
3441.628	646.5
3444.557	632.5
3447.483	609.5
3450.407	601.5
3453.328	597.5
3456.247	569.5
3459.164	555.5
3462.079	524.5
3464.991	518.5
3467.902	501.5
3470.809	486.5
3473.715	473.5
3476.618	464.5
3479.519	451.5
3482.418	431.5
3485.315	426.5
3488.209	409.5
3491.101	414.5
3493.99	389.5
3496.878	391.5
3499.763	369.5
3502.646	356.5
3505.527	340.5
3508.405	329.5
3511.281	325.5
3514.155	301.5
3517.027	287.5
3519.897	275.5
3522.764	264.5
3525.629	256.5
3528.492	242.5
3531.352	228.5
3534.211	215.5
3537.067	199.5
3539.921	189.5
3542.773	181.5
3545.622	166.5
3548.469	161.5
3551.315	155.5
3554.157	138.5
3556.998	141.5
3559.837	123.5
3562.673	115.5
3565.507	106.5
3568.339	104.5
3571.169	98.5
3573.996	89.5
3576.822	82.5
3579.645	83.5
3582.466	71.5
3585.285	63.5
3588.101	59.5
3590.916	55.5
3593.728	45.5
3596.538	39.5
3599.346	32.5
3602.152	26.5
3604.956	20.5
3607.757	21.5
3610.556	13.5
3613.354	13.5
3616.149	6.5
3618.942	3.5
3621.732	-1.5
3624.521	-9.5
3627.307	-7.5
3630.092	-13.5
3632.874	-12.5
3635.654	-22.5
3638.432	-23.5
3641.208	-26.5
3643.982	-35.5
3646.753	-29.5
3649.523	-33.5
3652.29	-39.5
3655.055	-43.5
3657.818	-48.5
3660.579	-47.5
3663.338	-49.5
3666.095	-52.5
3668.849	-61.5
3671.602	-57.5
3674.352	-64.5
3677.101	-66.5
3679.847	-67.5
3682.591	-68.5
3685.333	-73.5
3688.073	-74.5
3690.811	-77.5
3693.547	-79.5
3696.281	-81.5
3699.013	-80.5
3701.742	-76.5
3704.47	-77.5
3707.195	-84.5
3709.919	-87.5
3712.64	-83.5
3715.359	-85.5
3718.076	-93.5
3720.792	-92.5
3723.505	-92.5
3726.216	-92.5
3728.925	-92.5
3731.632	-95.5
3734.336	-95.5
3737.039	-94.5
3739.74	-96.5
3742.439	-99.5
3745.136	-98.5
3747.83	-101.5
3750.523	-100.5
3753.213	-100.5
3755.902	-106.5
3758.589	-103.5
3761.273	-105.5
3763.956	-102.5
3766.636	-107.5
3769.315	-101.5
3771.991	-106.5
3774.665	-105.5
3777.338	-103.5
3780.008	-106.5
3782.677	-104.5
3785.343	-109.5
3788.007	-105.5
3790.67	-105.5
3793.33	-108.5
3795.989	-107.5
3798.645	-106.5
3801.299	-110.5
3803.952	-113.5
3806.602	-109.5
3809.251	-108.5
3811.897	-112.5
3814.542	-111.5
3817.184	-108.5
3819.825	-106.5
3822.463	-108.5
3825.1	-109.5
3827.735	-110.5
3830.367	-110.5
3832.998	-106.5
3835.627	-114.5
3838.253	-114.5
3840.878	-116.5
3843.501	-114.5
3846.122	-117.5
3848.741	-112.5
3851.358	-110.5
3853.973	-111.5
3856.586	-114.5
3859.197	-112.5
3861.806	-111.5
3864.414	-116.5
3867.019	-111.5
3869.622	-110.5
3872.224	-112.5
3874.823	-108.5
3877.421	-107.5
3880.016	-104.5
3882.61	-106.5
3885.202	-107.5
3887.792	-107.5
3890.38	-107.5
3892.966	-111.5
3895.55	-113.5
3898.132	-110.5
3900.713	-115.5
3903.291	-112.5
3905.868	-109.5
3908.442	-109.5
3911.015	-117.5
3913.586	-115.5
3916.155	-118.5
3918.722	-113.5
3921.287	-118.5
3923.85	-117.5
3926.411	-120.5
3928.971	-115.5
3931.528	-115.5
3934.084	-114.5
3936.638	-113.5
3939.19	-115.5
3941.74	-113.5
3944.288	-117.5
3946.834	-115.5
3949.378	-117.5
3951.921	-112.5
3954.462	-118.5
3957	-114.5
3959.537	-115.5
3962.072	-118.5
3964.606	-119.5
3967.137	-113.5
3969.667	-112.5
3972.194	-115.5
3974.72	-110.5
3977.244	-113.5
3979.766	-113.5
3982.286	-113.5
3984.805	-111.5
3987.321	-113.5
3989.836	-113.5
3992.349	-118.5
3994.86	-118.5
3997.369	-115.5
3999.877	-117.5
4002.382	-114.5
4004.886	-113.5
4007.388	-112.5
4009.888	-117.5
4012.386	-107.5
4014.883	-110.5
4017.377	-111.5
4019.87	-116.5
4022.361	-114.5
4024.85	-116.5
4027.338	-117.5
4029.823	-119.5
4032.307	-116.5
4034.789	-117.5
4037.269	-114.5
4039.747	-110.5
4042.224	-118.5
4044.699	-117.5
4047.172	-113.5
4049.643	-117.5
4052.112	-119.5
4054.58	-116.5
4057.046	-112.5
4059.51	-116.5
4061.972	-110.5
4064.432	-114.5
4066.891	-112.5
4069.348	-112.5
4071.803	-117.5
4074.256	-119.5
4076.708	-117.5
4079.158	-119.5
4081.606	-118.5
4084.052	-117.5
4086.497	-114.5
4088.939	-114.5
4091.38	-110.5
4093.819	-115.5
4096.257	-117.5
4098.693	-122.5
4101.127	-120.5
4103.559	-117.5
4105.989	-75.5
4108.418	-72.5
4110.845	-74.5
4113.27	-64.5
4115.694	-55.5
4118.115	-44.5
4120.535	-114.5
4122.954	-110.5
4125.37	-117.5
4127.785	-116.5
4130.198	-118.5
4132.609	-117.5
4135.019	-116.5
4137.427	-122.5
4139.833	-119.5
4142.237	-121.5
