Data from Bsub_water_DIL104_B_1_RamanShift_1.txt Node
Date: Wed Feb 22 13:24:31 IST 2017
User: aro
Spectrometer: QEPB0276
Trigger mode: 0
Integration Time (sec): 5.000000E0
Scans to average: 1
Electric dark correction enabled: true
Nonlinearity correction enabled: false
Boxcar width: 0
XAxis mode: Raman Shifts
Number of Pixels in Spectrum: 1044
>>>>>Begin Spectral Data<<<<<
160.701	-31.88
166.742	5.12
172.777	97.12
178.805	407.12
184.826	1164.12
190.841	2426.12
196.849	3820.12
202.85	4761.12
208.845	4985.12
214.833	4824.12
220.815	4592.12
226.789	4481.12
232.758	4352.12
238.719	4167.12
244.674	4015.12
250.623	3788.12
256.565	3618.12
262.5	3444.12
268.429	3244.12
274.351	3092.12
280.267	2970.12
286.176	2849.12
292.079	2731.12
297.975	2618.12
303.865	2506.12
309.748	2465.12
315.625	2375.12
321.495	2339.12
327.359	2275.12
333.217	2254.12
339.068	2242.12
344.912	2233.12
350.751	2229.12
356.583	2206.12
362.408	2223.12
368.227	2212.12
374.04	2208.12
379.847	2248.12
385.647	2243.12
391.44	2259.12
397.228	2265.12
403.009	2283.12
408.784	2294.12
414.553	2294.12
420.315	2313.12
426.071	2317.12
431.821	2308.12
437.565	2289.12
443.302	2290.12
449.033	2280.12
454.758	2279.12
460.477	2277.12
466.189	2256.12
471.896	2223.12
477.596	2230.12
483.29	2219.12
488.978	2205.12
494.66	2201.12
500.335	2169.12
506.005	2121.12
511.668	2059.12
517.325	2036.12
522.977	2001.12
528.622	1951.12
534.261	1933.12
539.894	1927.12
545.521	1888.12
551.141	1879.12
556.756	1855.12
562.365	1847.12
567.968	1838.12
573.565	1812.12
579.155	1802.12
584.74	1794.12
590.319	1799.12
595.892	1766.12
601.459	1750.12
607.02	1737.12
612.575	1719.12
618.124	1696.12
623.667	1677.12
629.204	1649.12
634.735	1643.12
640.261	1629.12
645.781	1614.12
651.294	1618.12
656.802	1596.12
662.304	1585.12
667.8	1573.12
673.29	1579.12
678.775	1569.12
684.254	1552.12
689.726	1540.12
695.193	1526.12
700.655	1522.12
706.11	1508.12
711.56	1489.12
717.004	1489.12
722.442	1469.12
727.874	1458.12
733.301	1458.12
738.722	1436.12
744.137	1420.12
749.547	1421.12
754.951	1414.12
760.349	1409.12
765.741	1409.12
771.128	1414.12
776.509	1421.12
781.885	1410.12
787.254	1398.12
792.618	1383.12
797.977	1366.12
803.33	1354.12
808.677	1340.12
814.019	1325.12
819.355	1316.12
824.686	1308.12
830.011	1279.12
835.33	1284.12
840.644	1270.12
845.952	1268.12
851.255	1248.12
856.552	1234.12
861.844	1215.12
867.13	1212.12
872.41	1178.12
877.686	1178.12
882.955	1160.12
888.219	1140.12
893.478	1112.12
898.731	1083.12
903.979	1069.12
909.221	1062.12
914.458	1042.12
919.69	1028.12
924.916	1028.12
930.136	1033.12
935.351	1029.12
940.561	1029.12
945.766	1005.12
950.965	1006.12
956.158	982.12
961.347	975.12
966.529	950.12
971.707	935.12
976.879	923.12
982.046	918.12
987.208	905.12
992.364	898.12
997.515	909.12
1002.66	913.12
1007.801	914.12
1012.936	922.12
1018.066	928.12
1023.19	927.12
1028.309	933.12
1033.423	926.12
1038.532	926.12
1043.636	913.12
1048.734	899.12
1053.827	897.12
1058.915	878.12
1063.998	877.12
1069.075	856.12
1074.147	873.12
1079.214	877.12
1084.276	892.12
1089.333	907.12
1094.385	906.12
1099.431	895.12
1104.472	905.12
1109.509	879.12
1114.54	881.12
1119.565	869.12
1124.586	849.12
1129.602	850.12
1134.613	836.12
1139.618	838.12
1144.619	824.12
1149.614	831.12
1154.604	846.12
1159.589	838.12
1164.57	834.12
1169.545	841.12
1174.515	860.12
1179.48	839.12
1184.44	829.12
1189.395	834.12
1194.345	826.12
1199.29	823.12
1204.23	832.12
1209.165	826.12
1214.095	818.12
1219.021	831.12
1223.941	843.12
1228.856	836.12
1233.766	861.12
1238.672	847.12
1243.572	848.12
1248.467	828.12
1253.358	833.12
1258.244	811.12
1263.124	792.12
1268	788.12
1272.871	780.12
1277.737	774.12
1282.599	775.12
1287.455	774.12
1292.306	776.12
1297.153	772.12
1301.995	781.12
1306.832	787.12
1311.664	804.12
1316.491	787.12
1321.314	775.12
1326.132	774.12
1330.945	764.12
1335.753	739.12
1340.556	722.12
1345.354	721.12
1350.148	697.12
1354.937	694.12
1359.722	696.12
1364.501	702.12
1369.276	720.12
1374.046	715.12
1378.811	747.12
1383.572	736.12
1388.327	734.12
1393.079	716.12
1397.825	715.12
1402.567	698.12
1407.304	696.12
1412.036	687.12
1416.764	677.12
1421.487	668.12
1426.205	663.12
1430.919	681.12
1435.628	681.12
1440.333	682.12
1445.032	689.12
1449.727	684.12
1454.418	683.12
1459.104	698.12
1463.785	676.12
1468.462	670.12
1473.134	657.12
1477.802	660.12
1482.465	658.12
1487.123	661.12
1491.777	677.12
1496.426	669.12
1501.071	680.12
1505.711	700.12
1510.347	719.12
1514.978	724.12
1519.604	741.12
1524.226	736.12
1528.844	745.12
1533.457	752.12
1538.065	747.12
1542.669	765.12
1547.269	751.12
1551.864	757.12
1556.454	755.12
1561.041	775.12
1565.622	789.12
1570.199	795.12
1574.772	802.12
1579.34	830.12
1583.904	865.12
1588.464	875.12
1593.019	898.12
1597.569	903.12
1602.115	934.12
1606.657	949.12
1611.195	969.12
1615.728	978.12
1620.256	993.12
1624.78	1008.12
1629.3	1034.12
1633.816	1041.12
1638.327	1078.12
1642.834	1094.12
1647.336	1095.12
1651.834	1087.12
1656.328	1096.12
1660.817	1083.12
1665.302	1049.12
1669.783	1022.12
1674.259	999.12
1678.732	958.12
1683.199	896.12
1687.663	864.12
1692.122	813.12
1696.577	788.12
1701.028	759.12
1705.474	748.12
1709.917	713.12
1714.355	687.12
1718.788	658.12
1723.218	638.12
1727.643	599.12
1732.064	576.12
1736.481	548.12
1740.893	527.12
1745.301	501.12
1749.705	485.12
1754.105	457.12
1758.501	435.12
1762.893	418.12
1767.28	406.12
1771.663	392.12
1776.042	392.12
1780.417	399.12
1784.787	391.12
1789.154	402.12
1793.516	398.12
1797.874	405.12
1802.228	409.12
1806.578	399.12
1810.924	405.12
1815.266	397.12
1819.603	371.12
1823.937	371.12
1828.266	359.12
1832.591	351.12
1836.913	349.12
1841.23	338.12
1845.543	329.12
1849.852	333.12
1854.156	337.12
1858.457	331.12
1862.754	338.12
1867.047	331.12
1871.335	334.12
1875.62	343.12
1879.9	340.12
1884.177	335.12
1888.449	330.12
1892.718	341.12
1896.982	332.12
1901.243	330.12
1905.499	330.12
1909.752	332.12
1914	320.12
1918.245	329.12
1922.485	333.12
1926.722	340.12
1930.954	346.12
1935.183	354.12
1939.408	354.12
1943.628	362.12
1947.845	354.12
1952.058	359.12
1956.267	361.12
1960.472	352.12
1964.673	350.12
1968.87	345.12
1973.063	345.12
1977.252	338.12
1981.438	346.12
1985.619	335.12
1989.797	340.12
1993.971	336.12
1998.14	334.12
2002.306	339.12
2006.469	345.12
2010.627	342.12
2014.781	340.12
2018.932	349.12
2023.078	344.12
2027.221	358.12
2031.36	335.12
2035.495	346.12
2039.627	332.12
2043.754	341.12
2047.878	341.12
2051.998	338.12
2056.114	347.12
2060.226	344.12
2064.334	349.12
2068.439	352.12
2072.54	356.12
2076.637	366.12
2080.73	362.12
2084.82	373.12
2088.906	362.12
2092.988	370.12
2097.066	367.12
2101.14	371.12
2105.211	358.12
2109.278	364.12
2113.342	366.12
2117.401	361.12
2121.457	362.12
2125.509	364.12
2129.558	355.12
2133.602	348.12
2137.643	344.12
2141.681	350.12
2145.714	353.12
2149.744	349.12
2153.77	354.12
2157.793	335.12
2161.812	344.12
2165.827	333.12
2169.838	321.12
2173.846	311.12
2177.851	305.12
2181.851	312.12
2185.848	301.12
2189.841	286.12
2193.831	283.12
2197.817	277.12
2201.799	282.12
2205.778	273.12
2209.753	266.12
2213.725	277.12
2217.693	276.12
2221.657	271.12
2225.618	266.12
2229.575	261.12
2233.529	270.12
2237.479	256.12
2241.425	256.12
2245.368	257.12
2249.307	241.12
2253.243	235.12
2257.175	229.12
2261.104	225.12
2265.029	222.12
2268.95	225.12
2272.868	208.12
2276.783	214.12
2280.694	202.12
2284.601	203.12
2288.505	201.12
2292.405	204.12
2296.302	201.12
2300.195	183.12
2304.085	187.12
2307.971	176.12
2311.854	176.12
2315.734	160.12
2319.609	167.12
2323.482	165.12
2327.351	166.12
2331.216	162.12
2335.078	165.12
2338.937	146.12
2342.792	154.12
2346.643	150.12
2350.492	149.12
2354.336	147.12
2358.178	141.12
2362.015	146.12
2365.85	145.12
2369.681	147.12
2373.508	141.12
2377.333	141.12
2381.153	141.12
2384.971	137.12
2388.785	144.12
2392.595	136.12
2396.402	131.12
2400.206	130.12
2404.007	126.12
2407.804	125.12
2411.597	123.12
2415.388	126.12
2419.174	127.12
2422.958	122.12
2426.738	120.12
2430.515	114.12
2434.289	116.12
2438.059	112.12
2441.825	110.12
2445.589	109.12
2449.349	107.12
2453.106	109.12
2456.859	104.12
2460.61	97.12
2464.356	107.12
2468.1	109.12
2471.84	102.12
2475.577	95.12
2479.311	102.12
2483.041	98.12
2486.768	96.12
2490.492	99.12
2494.213	93.12
2497.93	97.12
2501.644	92.12
2505.355	92.12
2509.062	92.12
2512.766	91.12
2516.467	89.12
2520.165	88.12
2523.859	96.12
2527.551	91.12
2531.239	93.12
2534.923	89.12
2538.605	90.12
2542.283	89.12
2545.958	93.12
2549.63	90.12
2553.299	88.12
2556.964	86.12
2560.626	79.12
2564.285	77.12
2567.941	82.12
2571.594	80.12
2575.243	78.12
2578.89	69.12
2582.533	72.12
2586.173	78.12
2589.809	77.12
2593.443	77.12
2597.073	72.12
2600.701	67.12
2604.325	64.12
2607.946	68.12
2611.564	64.12
2615.178	66.12
2618.79	72.12
2622.398	62.12
2626.004	62.12
2629.606	60.12
2633.205	66.12
2636.801	58.12
2640.394	52.12
2643.983	62.12
2647.57	60.12
2651.153	56.12
2654.734	56.12
2658.311	54.12
2661.885	50.12
2665.456	49.12
2669.025	56.12
2672.589	52.12
2676.151	53.12
2679.71	52.12
2683.266	41.12
2686.819	53.12
2690.368	49.12
2693.915	43.12
2697.458	49.12
2700.999	50.12
2704.536	42.12
2708.071	42.12
2711.602	39.12
2715.13	39.12
2718.656	43.12
2722.178	41.12
2725.697	34.12
2729.214	44.12
2732.727	42.12
2736.237	39.12
2739.744	52.12
2743.249	46.12
2746.75	47.12
2750.248	54.12
2753.743	53.12
2757.236	49.12
2760.725	58.12
2764.211	59.12
2767.695	54.12
2771.175	63.12
2774.652	54.12
2778.127	59.12
2781.598	52.12
2785.067	58.12
2788.532	56.12
2791.995	62.12
2795.455	54.12
2798.911	62.12
2802.365	68.12
2805.816	66.12
2809.264	68.12
2812.709	75.12
2816.151	67.12
2819.59	76.12
2823.026	74.12
2826.46	74.12
2829.89	74.12
2833.318	79.12
2836.742	75.12
2840.164	89.12
2843.583	82.12
2846.999	95.12
2850.412	99.12
2853.822	100.12
2857.229	103.12
2860.634	100.12
2864.035	110.12
2867.434	109.12
2870.83	109.12
2874.223	117.12
2877.613	117.12
2881	122.12
2884.385	128.12
2887.766	128.12
2891.145	127.12
2894.521	137.12
2897.894	136.12
2901.264	137.12
2904.631	148.12
2907.996	144.12
2911.358	151.12
2914.717	166.12
2918.073	159.12
2921.426	170.12
2924.777	181.12
2928.124	177.12
2931.469	191.12
2934.811	187.12
2938.15	198.12
2941.487	199.12
2944.821	211.12
2948.152	221.12
2951.48	223.12
2954.805	233.12
2958.128	241.12
2961.447	252.12
2964.765	255.12
2968.079	264.12
2971.39	278.12
2974.699	289.12
2978.005	291.12
2981.308	308.12
2984.609	320.12
2987.907	332.12
2991.202	345.12
2994.494	365.12
2997.784	371.12
3001.07	382.12
3004.355	402.12
3007.636	417.12
3010.915	433.12
3014.191	447.12
3017.464	451.12
3020.734	458.12
3024.002	466.12
3027.267	484.12
3030.53	489.12
3033.789	508.12
3037.046	516.12
3040.301	524.12
3043.552	546.12
3046.801	569.12
3050.048	586.12
3053.291	601.12
3056.532	633.12
3059.771	648.12
3063.006	672.12
3066.239	693.12
3069.469	727.12
3072.697	733.12
3075.922	763.12
3079.144	785.12
3082.364	795.12
3085.581	832.12
3088.795	855.12
3092.007	863.12
3095.216	891.12
3098.423	927.12
3101.627	944.12
3104.828	969.12
3108.026	994.12
3111.222	1013.12
3114.416	1036.12
3117.607	1051.12
3120.795	1090.12
3123.98	1122.12
3127.163	1125.12
3130.344	1162.12
3133.521	1202.12
3136.696	1238.12
3139.869	1271.12
3143.039	1273.12
3146.206	1299.12
3149.371	1314.12
3152.533	1331.12
3155.693	1329.12
3158.85	1344.12
3162.005	1350.12
3165.157	1362.12
3168.306	1374.12
3171.453	1371.12
3174.597	1393.12
3177.739	1398.12
3180.878	1394.12
3184.014	1399.12
3187.149	1407.12
3190.28	1418.12
3193.409	1416.12
3196.536	1423.12
3199.659	1420.12
3202.781	1436.12
3205.9	1428.12
3209.016	1428.12
3212.13	1436.12
3215.241	1398.12
3218.35	1428.12
3221.456	1406.12
3224.56	1393.12
3227.661	1391.12
3230.76	1382.12
3233.856	1361.12
3236.95	1343.12
3240.041	1333.12
3243.13	1322.12
3246.216	1335.12
3249.3	1317.12
3252.382	1309.12
3255.46	1315.12
3258.537	1305.12
3261.611	1320.12
3264.682	1295.12
3267.751	1301.12
3270.818	1267.12
3273.882	1278.12
3276.943	1272.12
3280.002	1250.12
3283.059	1244.12
3286.113	1230.12
3289.165	1215.12
3292.214	1196.12
3295.261	1181.12
3298.306	1151.12
3301.348	1142.12
3304.387	1125.12
3307.425	1118.12
3310.459	1088.12
3313.492	1080.12
3316.521	1071.12
3319.549	1048.12
3322.574	1038.12
3325.597	1036.12
3328.617	1025.12
3331.635	1026.12
3334.65	1008.12
3337.663	1003.12
3340.674	997.12
3343.682	1002.12
3346.688	990.12
3349.691	978.12
3352.692	1001.12
3355.691	990.12
3358.687	984.12
3361.681	968.12
3364.673	952.12
3367.662	930.12
3370.649	924.12
3373.633	903.12
3376.615	899.12
3379.595	893.12
3382.572	865.12
3385.547	866.12
3388.52	860.12
3391.49	835.12
3394.458	829.12
3397.424	823.12
3400.387	805.12
3403.348	807.12
3406.307	782.12
3409.263	779.12
3412.217	784.12
3415.168	772.12
3418.118	770.12
3421.065	745.12
3424.009	738.12
3426.951	744.12
3429.891	710.12
3432.829	701.12
3435.764	703.12
3438.697	667.12
3441.628	662.12
3444.557	649.12
3447.483	637.12
3450.407	615.12
3453.328	601.12
3456.247	594.12
3459.164	579.12
3462.079	558.12
3464.991	529.12
3467.902	520.12
3470.809	508.12
3473.715	496.12
3476.618	474.12
3479.519	466.12
3482.418	450.12
3485.315	432.12
3488.209	422.12
3491.101	418.12
3493.99	417.12
3496.878	391.12
3499.763	385.12
3502.646	377.12
3505.527	362.12
3508.405	344.12
3511.281	333.12
3514.155	324.12
3517.027	305.12
3519.897	292.12
3522.764	286.12
3525.629	263.12
3528.492	250.12
3531.352	239.12
3534.211	223.12
3537.067	209.12
3539.921	200.12
3542.773	185.12
3545.622	177.12
3548.469	182.12
3551.315	161.12
3554.157	154.12
3556.998	147.12
3559.837	137.12
3562.673	126.12
3565.507	119.12
3568.339	108.12
3571.169	104.12
3573.996	97.12
3576.822	86.12
3579.645	80.12
3582.466	82.12
3585.285	71.12
3588.101	64.12
3590.916	58.12
3593.728	55.12
3596.538	48.12
3599.346	43.12
3602.152	40.12
3604.956	29.12
3607.757	23.12
3610.556	16.12
3613.354	21.12
3616.149	14.12
3618.942	11.12
3621.732	-0.88
3624.521	-6.88
3627.307	-3.88
3630.092	-16.88
3632.874	-10.88
3635.654	-15.88
3638.432	-19.88
3641.208	-22.88
3643.982	-29.88
3646.753	-25.88
3649.523	-29.88
3652.29	-30.88
3655.055	-40.88
3657.818	-42.88
3660.579	-44.88
3663.338	-54.88
3666.095	-50.88
3668.849	-55.88
3671.602	-53.88
3674.352	-57.88
3677.101	-64.88
3679.847	-65.88
3682.591	-65.88
3685.333	-69.88
3688.073	-68.88
3690.811	-71.88
3693.547	-75.88
3696.281	-80.88
3699.013	-78.88
3701.742	-77.88
3704.47	-77.88
3707.195	-84.88
3709.919	-86.88
3712.64	-87.88
3715.359	-88.88
3718.076	-88.88
3720.792	-88.88
3723.505	-90.88
3726.216	-88.88
3728.925	-87.88
3731.632	-91.88
3734.336	-94.88
3737.039	-88.88
3739.74	-93.88
3742.439	-94.88
3745.136	-98.88
3747.83	-98.88
3750.523	-99.88
3753.213	-100.88
3755.902	-102.88
3758.589	-104.88
3761.273	-101.88
3763.956	-102.88
3766.636	-100.88
3769.315	-102.88
3771.991	-104.88
3774.665	-103.88
3777.338	-104.88
3780.008	-103.88
3782.677	-101.88
3785.343	-106.88
3788.007	-102.88
3790.67	-107.88
3793.33	-108.88
3795.989	-107.88
3798.645	-107.88
3801.299	-110.88
3803.952	-111.88
3806.602	-107.88
3809.251	-104.88
3811.897	-110.88
3814.542	-110.88
3817.184	-108.88
3819.825	-105.88
3822.463	-105.88
3825.1	-106.88
3827.735	-109.88
3830.367	-110.88
3832.998	-108.88
3835.627	-111.88
3838.253	-112.88
3840.878	-116.88
3843.501	-114.88
3846.122	-113.88
3848.741	-110.88
3851.358	-113.88
3853.973	-107.88
3856.586	-107.88
3859.197	-109.88
3861.806	-112.88
3864.414	-116.88
3867.019	-110.88
3869.622	-113.88
3872.224	-112.88
3874.823	-111.88
3877.421	-105.88
3880.016	-106.88
3882.61	-100.88
3885.202	-101.88
3887.792	-106.88
3890.38	-110.88
3892.966	-113.88
3895.55	-111.88
3898.132	-110.88
3900.713	-113.88
3903.291	-110.88
3905.868	-109.88
3908.442	-112.88
3911.015	-115.88
3913.586	-116.88
3916.155	-116.88
3918.722	-117.88
3921.287	-116.88
3923.85	-116.88
3926.411	-117.88
3928.971	-114.88
3931.528	-112.88
3934.084	-113.88
3936.638	-113.88
3939.19	-114.88
3941.74	-114.88
3944.288	-116.88
3946.834	-111.88
3949.378	-119.88
3951.921	-115.88
3954.462	-115.88
3957	-117.88
3959.537	-112.88
3962.072	-115.88
3964.606	-113.88
3967.137	-112.88
3969.667	-111.88
3972.194	-115.88
3974.72	-111.88
3977.244	-112.88
3979.766	-112.88
3982.286	-112.88
3984.805	-111.88
3987.321	-111.88
3989.836	-116.88
3992.349	-115.88
3994.86	-120.88
3997.369	-115.88
3999.877	-119.88
4002.382	-115.88
4004.886	-112.88
4007.388	-113.88
4009.888	-114.88
4012.386	-112.88
4014.883	-110.88
4017.377	-108.88
4019.87	-119.88
4022.361	-115.88
4024.85	-117.88
4027.338	-116.88
4029.823	-114.88
4032.307	-114.88
4034.789	-116.88
4037.269	-113.88
4039.747	-112.88
4042.224	-111.88
4044.699	-116.88
4047.172	-111.88
4049.643	-115.88
4052.112	-117.88
4054.58	-112.88
4057.046	-114.88
4059.51	-115.88
4061.972	-109.88
4064.432	-110.88
4066.891	-111.88
4069.348	-114.88
4071.803	-118.88
4074.256	-114.88
4076.708	-116.88
4079.158	-117.88
4081.606	-116.88
4084.052	-115.88
4086.497	-112.88
4088.939	-111.88
4091.38	-108.88
4093.819	-116.88
4096.257	-118.88
4098.693	-120.88
4101.127	-120.88
4103.559	-115.88
4105.989	-73.88
4108.418	-73.88
4110.845	-67.88
4113.27	-60.88
4115.694	-54.88
4118.115	-44.88
4120.535	-114.88
4122.954	-114.88
4125.37	-114.88
4127.785	-115.88
4130.198	-117.88
4132.609	-114.88
4135.019	-118.88
4137.427	-121.88
4139.833	-118.88
4142.237	-117.88
