Data from Bsub_water_DIL103_A_1_RamanShift_1.txt Node
Date: Wed Feb 22 12:59:36 IST 2017
User: aro
Spectrometer: QEPB0276
Trigger mode: 0
Integration Time (sec): 5.000000E0
Scans to average: 1
Electric dark correction enabled: true
Nonlinearity correction enabled: false
Boxcar width: 0
XAxis mode: Raman Shifts
Number of Pixels in Spectrum: 1044
>>>>>Begin Spectral Data<<<<<
160.701	-32.5
166.742	-2.5
172.777	94.5
178.805	393.5
184.826	1098.5
190.841	2289.5
196.849	3615.5
202.85	4506.5
208.845	4667.5
214.833	4539.5
220.815	4359.5
226.789	4185.5
232.758	4070.5
238.719	3935.5
244.674	3770.5
250.623	3589.5
256.565	3410.5
262.5	3233.5
268.429	3085.5
274.351	2920.5
280.267	2812.5
286.176	2686.5
292.079	2588.5
297.975	2483.5
303.865	2408.5
309.748	2345.5
315.625	2269.5
321.495	2207.5
327.359	2187.5
333.217	2155.5
339.068	2135.5
344.912	2132.5
350.751	2105.5
356.583	2100.5
362.408	2090.5
368.227	2091.5
374.04	2104.5
379.847	2126.5
385.647	2117.5
391.44	2144.5
397.228	2142.5
403.009	2179.5
408.784	2163.5
414.553	2184.5
420.315	2207.5
426.071	2193.5
431.821	2167.5
437.565	2182.5
443.302	2183.5
449.033	2174.5
454.758	2158.5
460.477	2137.5
466.189	2126.5
471.896	2128.5
477.596	2122.5
483.29	2091.5
488.978	2084.5
494.66	2068.5
500.335	2043.5
506.005	2016.5
511.668	1970.5
517.325	1905.5
522.977	1886.5
528.622	1830.5
534.261	1834.5
539.894	1806.5
545.521	1792.5
551.141	1763.5
556.756	1750.5
562.365	1733.5
567.968	1721.5
573.565	1720.5
579.155	1698.5
584.74	1690.5
590.319	1674.5
595.892	1689.5
601.459	1652.5
607.02	1641.5
612.575	1634.5
618.124	1618.5
623.667	1583.5
629.204	1568.5
634.735	1541.5
640.261	1534.5
645.781	1516.5
651.294	1496.5
656.802	1502.5
662.304	1491.5
667.8	1490.5
673.29	1458.5
678.775	1475.5
684.254	1464.5
689.726	1454.5
695.193	1452.5
700.655	1429.5
706.11	1415.5
711.56	1418.5
717.004	1392.5
722.442	1381.5
727.874	1366.5
733.301	1362.5
738.722	1356.5
744.137	1341.5
749.547	1357.5
754.951	1340.5
760.349	1333.5
765.741	1340.5
771.128	1336.5
776.509	1331.5
781.885	1315.5
787.254	1323.5
792.618	1301.5
797.977	1296.5
803.33	1284.5
808.677	1284.5
814.019	1254.5
819.355	1244.5
824.686	1230.5
830.011	1226.5
835.33	1205.5
840.644	1178.5
845.952	1181.5
851.255	1160.5
856.552	1148.5
861.844	1153.5
867.13	1149.5
872.41	1113.5
877.686	1109.5
882.955	1108.5
888.219	1088.5
893.478	1048.5
898.731	1033.5
903.979	1007.5
909.221	998.5
914.458	969.5
919.69	982.5
924.916	978.5
930.136	967.5
935.351	973.5
940.561	955.5
945.766	944.5
950.965	946.5
956.158	935.5
961.347	926.5
966.529	905.5
971.707	887.5
976.879	864.5
982.046	873.5
987.208	866.5
992.364	860.5
997.515	862.5
1002.66	848.5
1007.801	865.5
1012.936	880.5
1018.066	876.5
1023.19	881.5
1028.309	887.5
1033.423	869.5
1038.532	872.5
1043.636	863.5
1048.734	854.5
1053.827	844.5
1058.915	836.5
1063.998	831.5
1069.075	830.5
1074.147	826.5
1079.214	836.5
1084.276	840.5
1089.333	845.5
1094.385	845.5
1099.431	848.5
1104.472	844.5
1109.509	837.5
1114.54	821.5
1119.565	814.5
1124.586	782.5
1129.602	791.5
1134.613	789.5
1139.618	796.5
1144.619	810.5
1149.614	801.5
1154.604	797.5
1159.589	799.5
1164.57	796.5
1169.545	804.5
1174.515	802.5
1179.48	803.5
1184.44	793.5
1189.395	779.5
1194.345	788.5
1199.29	779.5
1204.23	780.5
1209.165	784.5
1214.095	793.5
1219.021	797.5
1223.941	806.5
1228.856	806.5
1233.766	788.5
1238.672	801.5
1243.572	802.5
1248.467	809.5
1253.358	783.5
1258.244	774.5
1263.124	769.5
1268	747.5
1272.871	739.5
1277.737	731.5
1282.599	731.5
1287.455	738.5
1292.306	742.5
1297.153	743.5
1301.995	750.5
1306.832	752.5
1311.664	753.5
1316.491	743.5
1321.314	740.5
1326.132	726.5
1330.945	721.5
1335.753	710.5
1340.556	693.5
1345.354	676.5
1350.148	670.5
1354.937	671.5
1359.722	662.5
1364.501	673.5
1369.276	675.5
1374.046	693.5
1378.811	706.5
1383.572	698.5
1388.327	691.5
1393.079	686.5
1397.825	662.5
1402.567	660.5
1407.304	658.5
1412.036	655.5
1416.764	640.5
1421.487	644.5
1426.205	636.5
1430.919	643.5
1435.628	645.5
1440.333	638.5
1445.032	659.5
1449.727	654.5
1454.418	660.5
1459.104	659.5
1463.785	649.5
1468.462	657.5
1473.134	635.5
1477.802	638.5
1482.465	631.5
1487.123	636.5
1491.777	632.5
1496.426	641.5
1501.071	651.5
1505.711	673.5
1510.347	685.5
1514.978	699.5
1519.604	708.5
1524.226	709.5
1528.844	706.5
1533.457	712.5
1538.065	715.5
1542.669	732.5
1547.269	728.5
1551.864	731.5
1556.454	727.5
1561.041	738.5
1565.622	760.5
1570.199	759.5
1574.772	779.5
1579.34	797.5
1583.904	814.5
1588.464	837.5
1593.019	841.5
1597.569	875.5
1602.115	887.5
1606.657	905.5
1611.195	924.5
1615.728	937.5
1620.256	943.5
1624.78	976.5
1629.3	993.5
1633.816	1015.5
1638.327	1021.5
1642.834	1047.5
1647.336	1058.5
1651.834	1061.5
1656.328	1043.5
1660.817	1036.5
1665.302	1013.5
1669.783	996.5
1674.259	946.5
1678.732	911.5
1683.199	870.5
1687.663	818.5
1692.122	769.5
1696.577	736.5
1701.028	719.5
1705.474	699.5
1709.917	688.5
1714.355	648.5
1718.788	627.5
1723.218	614.5
1727.643	585.5
1732.064	549.5
1736.481	538.5
1740.893	503.5
1745.301	482.5
1749.705	468.5
1754.105	441.5
1758.501	431.5
1762.893	412.5
1767.28	405.5
1771.663	396.5
1776.042	385.5
1780.417	388.5
1784.787	385.5
1789.154	382.5
1793.516	387.5
1797.874	400.5
1802.228	398.5
1806.578	392.5
1810.924	393.5
1815.266	373.5
1819.603	378.5
1823.937	354.5
1828.266	354.5
1832.591	352.5
1836.913	342.5
1841.23	329.5
1845.543	342.5
1849.852	331.5
1854.156	337.5
1858.457	318.5
1862.754	333.5
1867.047	336.5
1871.335	325.5
1875.62	328.5
1879.9	325.5
1884.177	337.5
1888.449	329.5
1892.718	326.5
1896.982	327.5
1901.243	330.5
1905.499	329.5
1909.752	322.5
1914	322.5
1918.245	323.5
1922.485	334.5
1926.722	339.5
1930.954	339.5
1935.183	335.5
1939.408	349.5
1943.628	348.5
1947.845	351.5
1952.058	344.5
1956.267	352.5
1960.472	345.5
1964.673	344.5
1968.87	336.5
1973.063	340.5
1977.252	333.5
1981.438	342.5
1985.619	328.5
1989.797	334.5
1993.971	335.5
1998.14	337.5
2002.306	330.5
2006.469	333.5
2010.627	327.5
2014.781	331.5
2018.932	337.5
2023.078	347.5
2027.221	342.5
2031.36	335.5
2035.495	338.5
2039.627	327.5
2043.754	330.5
2047.878	330.5
2051.998	334.5
2056.114	334.5
2060.226	338.5
2064.334	340.5
2068.439	349.5
2072.54	350.5
2076.637	358.5
2080.73	349.5
2084.82	349.5
2088.906	358.5
2092.988	360.5
2097.066	357.5
2101.14	360.5
2105.211	361.5
2109.278	363.5
2113.342	354.5
2117.401	361.5
2121.457	354.5
2125.509	348.5
2129.558	354.5
2133.602	347.5
2137.643	340.5
2141.681	337.5
2145.714	350.5
2149.744	335.5
2153.77	335.5
2157.793	340.5
2161.812	327.5
2165.827	314.5
2169.838	321.5
2173.846	315.5
2177.851	300.5
2181.851	299.5
2185.848	288.5
2189.841	277.5
2193.831	277.5
2197.817	274.5
2201.799	274.5
2205.778	279.5
2209.753	268.5
2213.725	264.5
2217.693	264.5
2221.657	269.5
2225.618	256.5
2229.575	260.5
2233.529	255.5
2237.479	248.5
2241.425	251.5
2245.368	251.5
2249.307	237.5
2253.243	233.5
2257.175	221.5
2261.104	226.5
2265.029	214.5
2268.95	211.5
2272.868	201.5
2276.783	206.5
2280.694	196.5
2284.601	197.5
2288.505	194.5
2292.405	193.5
2296.302	192.5
2300.195	184.5
2304.085	190.5
2307.971	180.5
2311.854	177.5
2315.734	166.5
2319.609	161.5
2323.482	155.5
2327.351	160.5
2331.216	158.5
2335.078	159.5
2338.937	151.5
2342.792	158.5
2346.643	146.5
2350.492	152.5
2354.336	144.5
2358.178	153.5
2362.015	144.5
2365.85	146.5
2369.681	145.5
2373.508	148.5
2377.333	139.5
2381.153	148.5
2384.971	145.5
2388.785	135.5
2392.595	137.5
2396.402	132.5
2400.206	135.5
2404.007	133.5
2407.804	123.5
2411.597	125.5
2415.388	133.5
2419.174	126.5
2422.958	119.5
2426.738	126.5
2430.515	129.5
2434.289	127.5
2438.059	115.5
2441.825	115.5
2445.589	115.5
2449.349	120.5
2453.106	109.5
2456.859	113.5
2460.61	108.5
2464.356	107.5
2468.1	106.5
2471.84	106.5
2475.577	100.5
2479.311	101.5
2483.041	96.5
2486.768	103.5
2490.492	99.5
2494.213	107.5
2497.93	101.5
2501.644	106.5
2505.355	95.5
2509.062	101.5
2512.766	94.5
2516.467	104.5
2520.165	97.5
2523.859	89.5
2527.551	89.5
2531.239	94.5
2534.923	90.5
2538.605	96.5
2542.283	83.5
2545.958	89.5
2549.63	92.5
2553.299	88.5
2556.964	93.5
2560.626	81.5
2564.285	80.5
2567.941	76.5
2571.594	85.5
2575.243	74.5
2578.89	77.5
2582.533	80.5
2586.173	83.5
2589.809	76.5
2593.443	75.5
2597.073	73.5
2600.701	75.5
2604.325	75.5
2607.946	69.5
2611.564	74.5
2615.178	73.5
2618.79	76.5
2622.398	77.5
2626.004	69.5
2629.606	66.5
2633.205	71.5
2636.801	62.5
2640.394	65.5
2643.983	58.5
2647.57	67.5
2651.153	53.5
2654.734	64.5
2658.311	56.5
2661.885	62.5
2665.456	66.5
2669.025	56.5
2672.589	54.5
2676.151	59.5
2679.71	55.5
2683.266	59.5
2686.819	50.5
2690.368	52.5
2693.915	53.5
2697.458	49.5
2700.999	50.5
2704.536	47.5
2708.071	49.5
2711.602	41.5
2715.13	42.5
2718.656	45.5
2722.178	44.5
2725.697	51.5
2729.214	48.5
2732.727	50.5
2736.237	48.5
2739.744	50.5
2743.249	50.5
2746.75	54.5
2750.248	47.5
2753.743	50.5
2757.236	57.5
2760.725	67.5
2764.211	66.5
2767.695	59.5
2771.175	60.5
2774.652	65.5
2778.127	65.5
2781.598	61.5
2785.067	58.5
2788.532	60.5
2791.995	62.5
2795.455	60.5
2798.911	64.5
2802.365	69.5
2805.816	65.5
2809.264	69.5
2812.709	69.5
2816.151	76.5
2819.59	76.5
2823.026	80.5
2826.46	74.5
2829.89	82.5
2833.318	81.5
2836.742	81.5
2840.164	78.5
2843.583	91.5
2846.999	89.5
2850.412	94.5
2853.822	96.5
2857.229	97.5
2860.634	97.5
2864.035	107.5
2867.434	104.5
2870.83	114.5
2874.223	113.5
2877.613	122.5
2881	127.5
2884.385	122.5
2887.766	128.5
2891.145	129.5
2894.521	135.5
2897.894	127.5
2901.264	133.5
2904.631	134.5
2907.996	138.5
2911.358	145.5
2914.717	152.5
2918.073	159.5
2921.426	162.5
2924.777	172.5
2928.124	165.5
2931.469	175.5
2934.811	182.5
2938.15	189.5
2941.487	189.5
2944.821	192.5
2948.152	200.5
2951.48	210.5
2954.805	219.5
2958.128	222.5
2961.447	224.5
2964.765	233.5
2968.079	246.5
2971.39	251.5
2974.699	270.5
2978.005	273.5
2981.308	280.5
2984.609	296.5
2987.907	309.5
2991.202	320.5
2994.494	336.5
2997.784	343.5
3001.07	361.5
3004.355	375.5
3007.636	387.5
3010.915	396.5
3014.191	409.5
3017.464	425.5
3020.734	428.5
3024.002	443.5
3027.267	436.5
3030.53	452.5
3033.789	473.5
3037.046	485.5
3040.301	486.5
3043.552	508.5
3046.801	515.5
3050.048	524.5
3053.291	554.5
3056.532	566.5
3059.771	599.5
3063.006	608.5
3066.239	638.5
3069.469	657.5
3072.697	679.5
3075.922	699.5
3079.144	718.5
3082.364	738.5
3085.581	762.5
3088.795	793.5
3092.007	792.5
3095.216	807.5
3098.423	817.5
3101.627	862.5
3104.828	888.5
3108.026	901.5
3111.222	936.5
3114.416	956.5
3117.607	981.5
3120.795	1006.5
3123.98	1018.5
3127.163	1053.5
3130.344	1077.5
3133.521	1102.5
3136.696	1125.5
3139.869	1151.5
3143.039	1185.5
3146.206	1203.5
3149.371	1203.5
3152.533	1211.5
3155.693	1231.5
3158.85	1244.5
3162.005	1265.5
3165.157	1251.5
3168.306	1266.5
3171.453	1269.5
3174.597	1275.5
3177.739	1285.5
3180.878	1300.5
3184.014	1297.5
3187.149	1287.5
3190.28	1290.5
3193.409	1307.5
3196.536	1308.5
3199.659	1319.5
3202.781	1292.5
3205.9	1314.5
3209.016	1318.5
3212.13	1316.5
3215.241	1304.5
3218.35	1307.5
3221.456	1279.5
3224.56	1289.5
3227.661	1266.5
3230.76	1252.5
3233.856	1256.5
3236.95	1248.5
3240.041	1239.5
3243.13	1228.5
3246.216	1217.5
3249.3	1230.5
3252.382	1209.5
3255.46	1210.5
3258.537	1196.5
3261.611	1203.5
3264.682	1194.5
3267.751	1197.5
3270.818	1186.5
3273.882	1182.5
3276.943	1175.5
3280.002	1166.5
3283.059	1149.5
3286.113	1136.5
3289.165	1115.5
3292.214	1103.5
3295.261	1077.5
3298.306	1079.5
3301.348	1053.5
3304.387	1040.5
3307.425	1024.5
3310.459	1008.5
3313.492	1003.5
3316.521	984.5
3319.549	980.5
3322.574	955.5
3325.597	956.5
3328.617	946.5
3331.635	937.5
3334.65	940.5
3337.663	939.5
3340.674	926.5
3343.682	932.5
3346.688	921.5
3349.691	907.5
3352.692	912.5
3355.691	897.5
3358.687	898.5
3361.681	904.5
3364.673	880.5
3367.662	869.5
3370.649	863.5
3373.633	839.5
3376.615	826.5
3379.595	830.5
3382.572	828.5
3385.547	808.5
3388.52	791.5
3391.49	792.5
3394.458	781.5
3397.424	759.5
3400.387	748.5
3403.348	726.5
3406.307	726.5
3409.263	728.5
3412.217	720.5
3415.168	702.5
3418.118	704.5
3421.065	700.5
3424.009	677.5
3426.951	684.5
3429.891	671.5
3432.829	657.5
3435.764	649.5
3438.697	634.5
3441.628	614.5
3444.557	606.5
3447.483	580.5
3450.407	572.5
3453.328	548.5
3456.247	537.5
3459.164	516.5
3462.079	511.5
3464.991	504.5
3467.902	481.5
3470.809	470.5
3473.715	456.5
3476.618	453.5
3479.519	438.5
3482.418	415.5
3485.315	403.5
3488.209	400.5
3491.101	393.5
3493.99	374.5
3496.878	359.5
3499.763	363.5
3502.646	338.5
3505.527	325.5
3508.405	312.5
3511.281	304.5
3514.155	303.5
3517.027	277.5
3519.897	278.5
3522.764	256.5
3525.629	249.5
3528.492	224.5
3531.352	220.5
3534.211	205.5
3537.067	186.5
3539.921	183.5
3542.773	173.5
3545.622	163.5
3548.469	161.5
3551.315	147.5
3554.157	134.5
3556.998	132.5
3559.837	123.5
3562.673	115.5
3565.507	109.5
3568.339	98.5
3571.169	95.5
3573.996	86.5
3576.822	76.5
3579.645	82.5
3582.466	71.5
3585.285	62.5
3588.101	59.5
3590.916	52.5
3593.728	45.5
3596.538	36.5
3599.346	37.5
3602.152	28.5
3604.956	21.5
3607.757	15.5
3610.556	11.5
3613.354	6.5
3616.149	7.5
3618.942	4.5
3621.732	1.5
3624.521	-5.5
3627.307	-13.5
3630.092	-11.5
3632.874	-15.5
3635.654	-17.5
3638.432	-22.5
3641.208	-22.5
3643.982	-31.5
3646.753	-27.5
3649.523	-30.5
3652.29	-37.5
3655.055	-41.5
3657.818	-47.5
3660.579	-44.5
3663.338	-49.5
3666.095	-49.5
3668.849	-55.5
3671.602	-53.5
3674.352	-62.5
3677.101	-59.5
3679.847	-63.5
3682.591	-62.5
3685.333	-71.5
3688.073	-71.5
3690.811	-74.5
3693.547	-76.5
3696.281	-77.5
3699.013	-79.5
3701.742	-75.5
3704.47	-75.5
3707.195	-81.5
3709.919	-80.5
3712.64	-83.5
3715.359	-85.5
3718.076	-84.5
3720.792	-86.5
3723.505	-87.5
3726.216	-84.5
3728.925	-87.5
3731.632	-92.5
3734.336	-96.5
3737.039	-90.5
3739.74	-95.5
3742.439	-97.5
3745.136	-96.5
3747.83	-95.5
3750.523	-99.5
3753.213	-94.5
3755.902	-98.5
3758.589	-97.5
3761.273	-95.5
3763.956	-98.5
3766.636	-102.5
3769.315	-97.5
3771.991	-100.5
3774.665	-105.5
3777.338	-103.5
3780.008	-104.5
3782.677	-103.5
3785.343	-105.5
3788.007	-101.5
3790.67	-103.5
3793.33	-104.5
3795.989	-100.5
3798.645	-101.5
3801.299	-103.5
3803.952	-104.5
3806.602	-104.5
3809.251	-106.5
3811.897	-106.5
3814.542	-109.5
3817.184	-105.5
3819.825	-101.5
3822.463	-106.5
3825.1	-107.5
3827.735	-106.5
3830.367	-107.5
3832.998	-107.5
3835.627	-107.5
3838.253	-106.5
3840.878	-109.5
3843.501	-106.5
3846.122	-109.5
3848.741	-109.5
3851.358	-103.5
3853.973	-108.5
3856.586	-109.5
3859.197	-109.5
3861.806	-110.5
3864.414	-112.5
3867.019	-109.5
3869.622	-109.5
3872.224	-109.5
3874.823	-106.5
3877.421	-102.5
3880.016	-101.5
3882.61	-97.5
3885.202	-102.5
3887.792	-100.5
3890.38	-105.5
3892.966	-111.5
3895.55	-103.5
3898.132	-106.5
3900.713	-111.5
3903.291	-109.5
3905.868	-112.5
3908.442	-108.5
3911.015	-112.5
3913.586	-112.5
3916.155	-112.5
3918.722	-110.5
3921.287	-109.5
3923.85	-112.5
3926.411	-111.5
3928.971	-113.5
3931.528	-106.5
3934.084	-110.5
3936.638	-111.5
3939.19	-111.5
3941.74	-112.5
3944.288	-115.5
3946.834	-111.5
3949.378	-115.5
3951.921	-113.5
3954.462	-112.5
3957	-110.5
3959.537	-105.5
3962.072	-109.5
3964.606	-108.5
3967.137	-105.5
3969.667	-107.5
3972.194	-110.5
3974.72	-108.5
3977.244	-110.5
3979.766	-113.5
3982.286	-110.5
3984.805	-110.5
3987.321	-108.5
3989.836	-111.5
3992.349	-111.5
3994.86	-111.5
3997.369	-109.5
3999.877	-112.5
4002.382	-109.5
4004.886	-109.5
4007.388	-108.5
4009.888	-111.5
4012.386	-109.5
4014.883	-107.5
4017.377	-109.5
4019.87	-116.5
4022.361	-109.5
4024.85	-114.5
4027.338	-112.5
4029.823	-113.5
4032.307	-105.5
4034.789	-110.5
4037.269	-108.5
4039.747	-104.5
4042.224	-110.5
4044.699	-112.5
4047.172	-108.5
4049.643	-115.5
4052.112	-116.5
4054.58	-112.5
4057.046	-113.5
4059.51	-112.5
4061.972	-107.5
4064.432	-107.5
4066.891	-110.5
4069.348	-110.5
4071.803	-110.5
4074.256	-109.5
4076.708	-109.5
4079.158	-113.5
4081.606	-110.5
4084.052	-111.5
4086.497	-109.5
4088.939	-109.5
4091.38	-108.5
4093.819	-113.5
4096.257	-114.5
4098.693	-117.5
4101.127	-114.5
4103.559	-114.5
4105.989	-70.5
4108.418	-69.5
4110.845	-68.5
4113.27	-63.5
4115.694	-50.5
4118.115	-46.5
4120.535	-113.5
4122.954	-111.5
4125.37	-113.5
4127.785	-114.5
4130.198	-114.5
4132.609	-111.5
4135.019	-114.5
4137.427	-113.5
4139.833	-112.5
4142.237	-112.5
