Data from Bsub_water_DIL102_A_3_RamanShift_1.txt Node
Date: Wed Feb 22 13:04:11 IST 2017
User: aro
Spectrometer: QEPB0276
Trigger mode: 0
Integration Time (sec): 5.000000E0
Scans to average: 1
Electric dark correction enabled: true
Nonlinearity correction enabled: false
Boxcar width: 0
XAxis mode: Raman Shifts
Number of Pixels in Spectrum: 1044
>>>>>Begin Spectral Data<<<<<
160.701	-32.38
166.742	1.62
172.777	95.62
178.805	403.62
184.826	1116.62
190.841	2316.62
196.849	3677.62
202.85	4583.62
208.845	4798.62
214.833	4636.62
220.815	4452.62
226.789	4280.62
232.758	4142.62
238.719	4026.62
244.674	3833.62
250.623	3662.62
256.565	3467.62
262.5	3288.62
268.429	3125.62
274.351	2991.62
280.267	2865.62
286.176	2719.62
292.079	2612.62
297.975	2505.62
303.865	2437.62
309.748	2350.62
315.625	2287.62
321.495	2227.62
327.359	2175.62
333.217	2149.62
339.068	2152.62
344.912	2149.62
350.751	2132.62
356.583	2122.62
362.408	2107.62
368.227	2117.62
374.04	2152.62
379.847	2136.62
385.647	2157.62
391.44	2139.62
397.228	2181.62
403.009	2186.62
408.784	2190.62
414.553	2203.62
420.315	2214.62
426.071	2196.62
431.821	2205.62
437.565	2205.62
443.302	2203.62
449.033	2176.62
454.758	2173.62
460.477	2162.62
466.189	2156.62
471.896	2142.62
477.596	2131.62
483.29	2103.62
488.978	2086.62
494.66	2068.62
500.335	2050.62
506.005	2013.62
511.668	1968.62
517.325	1922.62
522.977	1883.62
528.622	1846.62
534.261	1847.62
539.894	1812.62
545.521	1791.62
551.141	1787.62
556.756	1762.62
562.365	1738.62
567.968	1747.62
573.565	1714.62
579.155	1700.62
584.74	1669.62
590.319	1679.62
595.892	1666.62
601.459	1641.62
607.02	1637.62
612.575	1624.62
618.124	1601.62
623.667	1577.62
629.204	1560.62
634.735	1551.62
640.261	1533.62
645.781	1523.62
651.294	1516.62
656.802	1501.62
662.304	1499.62
667.8	1471.62
673.29	1460.62
678.775	1470.62
684.254	1457.62
689.726	1433.62
695.193	1433.62
700.655	1410.62
706.11	1414.62
711.56	1409.62
717.004	1382.62
722.442	1372.62
727.874	1364.62
733.301	1359.62
738.722	1331.62
744.137	1347.62
749.547	1328.62
754.951	1331.62
760.349	1321.62
765.741	1321.62
771.128	1311.62
776.509	1324.62
781.885	1315.62
787.254	1302.62
792.618	1297.62
797.977	1278.62
803.33	1259.62
808.677	1251.62
814.019	1244.62
819.355	1219.62
824.686	1202.62
830.011	1188.62
835.33	1186.62
840.644	1168.62
845.952	1161.62
851.255	1142.62
856.552	1157.62
861.844	1126.62
867.13	1112.62
872.41	1106.62
877.686	1093.62
882.955	1064.62
888.219	1053.62
893.478	1024.62
898.731	1006.62
903.979	985.62
909.221	983.62
914.458	968.62
919.69	954.62
924.916	944.62
930.136	947.62
935.351	941.62
940.561	925.62
945.766	908.62
950.965	905.62
956.158	895.62
961.347	881.62
966.529	874.62
971.707	862.62
976.879	841.62
982.046	834.62
987.208	824.62
992.364	830.62
997.515	829.62
1002.66	818.62
1007.801	834.62
1012.936	835.62
1018.066	845.62
1023.19	846.62
1028.309	849.62
1033.423	845.62
1038.532	835.62
1043.636	826.62
1048.734	818.62
1053.827	812.62
1058.915	796.62
1063.998	794.62
1069.075	792.62
1074.147	799.62
1079.214	806.62
1084.276	808.62
1089.333	807.62
1094.385	816.62
1099.431	809.62
1104.472	807.62
1109.509	821.62
1114.54	784.62
1119.565	787.62
1124.586	750.62
1129.602	767.62
1134.613	755.62
1139.618	755.62
1144.619	753.62
1149.614	761.62
1154.604	762.62
1159.589	764.62
1164.57	756.62
1169.545	768.62
1174.515	765.62
1179.48	757.62
1184.44	754.62
1189.395	758.62
1194.345	749.62
1199.29	735.62
1204.23	745.62
1209.165	750.62
1214.095	757.62
1219.021	754.62
1223.941	761.62
1228.856	771.62
1233.766	770.62
1238.672	775.62
1243.572	760.62
1248.467	756.62
1253.358	742.62
1258.244	733.62
1263.124	724.62
1268	725.62
1272.871	710.62
1277.737	707.62
1282.599	693.62
1287.455	699.62
1292.306	696.62
1297.153	699.62
1301.995	705.62
1306.832	713.62
1311.664	710.62
1316.491	725.62
1321.314	688.62
1326.132	694.62
1330.945	692.62
1335.753	671.62
1340.556	650.62
1345.354	633.62
1350.148	634.62
1354.937	636.62
1359.722	620.62
1364.501	626.62
1369.276	651.62
1374.046	645.62
1378.811	662.62
1383.572	661.62
1388.327	656.62
1393.079	656.62
1397.825	638.62
1402.567	620.62
1407.304	612.62
1412.036	613.62
1416.764	599.62
1421.487	601.62
1426.205	598.62
1430.919	595.62
1435.628	599.62
1440.333	610.62
1445.032	605.62
1449.727	624.62
1454.418	633.62
1459.104	608.62
1463.785	618.62
1468.462	618.62
1473.134	608.62
1477.802	592.62
1482.465	584.62
1487.123	584.62
1491.777	602.62
1496.426	607.62
1501.071	611.62
1505.711	627.62
1510.347	637.62
1514.978	668.62
1519.604	655.62
1524.226	666.62
1528.844	670.62
1533.457	673.62
1538.065	673.62
1542.669	680.62
1547.269	670.62
1551.864	696.62
1556.454	697.62
1561.041	720.62
1565.622	724.62
1570.199	736.62
1574.772	747.62
1579.34	768.62
1583.904	789.62
1588.464	791.62
1593.019	805.62
1597.569	827.62
1602.115	858.62
1606.657	862.62
1611.195	880.62
1615.728	897.62
1620.256	927.62
1624.78	925.62
1629.3	970.62
1633.816	975.62
1638.327	988.62
1642.834	1007.62
1647.336	1012.62
1651.834	1009.62
1656.328	1008.62
1660.817	987.62
1665.302	975.62
1669.783	954.62
1674.259	919.62
1678.732	864.62
1683.199	822.62
1687.663	791.62
1692.122	738.62
1696.577	707.62
1701.028	684.62
1705.474	664.62
1709.917	647.62
1714.355	608.62
1718.788	596.62
1723.218	561.62
1727.643	543.62
1732.064	513.62
1736.481	500.62
1740.893	464.62
1745.301	445.62
1749.705	423.62
1754.105	405.62
1758.501	390.62
1762.893	379.62
1767.28	358.62
1771.663	354.62
1776.042	338.62
1780.417	349.62
1784.787	344.62
1789.154	344.62
1793.516	345.62
1797.874	338.62
1802.228	345.62
1806.578	338.62
1810.924	349.62
1815.266	317.62
1819.603	325.62
1823.937	321.62
1828.266	309.62
1832.591	301.62
1836.913	300.62
1841.23	291.62
1845.543	292.62
1849.852	292.62
1854.156	282.62
1858.457	289.62
1862.754	292.62
1867.047	281.62
1871.335	294.62
1875.62	289.62
1879.9	292.62
1884.177	285.62
1888.449	287.62
1892.718	290.62
1896.982	288.62
1901.243	283.62
1905.499	288.62
1909.752	280.62
1914	283.62
1918.245	284.62
1922.485	293.62
1926.722	298.62
1930.954	306.62
1935.183	313.62
1939.408	311.62
1943.628	306.62
1947.845	304.62
1952.058	307.62
1956.267	306.62
1960.472	303.62
1964.673	306.62
1968.87	297.62
1973.063	300.62
1977.252	297.62
1981.438	299.62
1985.619	297.62
1989.797	295.62
1993.971	296.62
1998.14	302.62
2002.306	287.62
2006.469	285.62
2010.627	296.62
2014.781	296.62
2018.932	300.62
2023.078	297.62
2027.221	308.62
2031.36	295.62
2035.495	301.62
2039.627	289.62
2043.754	298.62
2047.878	294.62
2051.998	299.62
2056.114	299.62
2060.226	305.62
2064.334	296.62
2068.439	305.62
2072.54	312.62
2076.637	315.62
2080.73	316.62
2084.82	316.62
2088.906	318.62
2092.988	339.62
2097.066	337.62
2101.14	321.62
2105.211	321.62
2109.278	316.62
2113.342	315.62
2117.401	319.62
2121.457	320.62
2125.509	314.62
2129.558	309.62
2133.602	307.62
2137.643	310.62
2141.681	305.62
2145.714	301.62
2149.744	296.62
2153.77	300.62
2157.793	296.62
2161.812	295.62
2165.827	288.62
2169.838	281.62
2173.846	269.62
2177.851	265.62
2181.851	262.62
2185.848	256.62
2189.841	251.62
2193.831	250.62
2197.817	244.62
2201.799	238.62
2205.778	234.62
2209.753	232.62
2213.725	228.62
2217.693	241.62
2221.657	230.62
2225.618	226.62
2229.575	230.62
2233.529	220.62
2237.479	220.62
2241.425	215.62
2245.368	209.62
2249.307	208.62
2253.243	203.62
2257.175	200.62
2261.104	197.62
2265.029	192.62
2268.95	183.62
2272.868	185.62
2276.783	179.62
2280.694	171.62
2284.601	173.62
2288.505	176.62
2292.405	163.62
2296.302	167.62
2300.195	153.62
2304.085	148.62
2307.971	153.62
2311.854	148.62
2315.734	134.62
2319.609	137.62
2323.482	123.62
2327.351	136.62
2331.216	129.62
2335.078	132.62
2338.937	131.62
2342.792	121.62
2346.643	120.62
2350.492	121.62
2354.336	115.62
2358.178	117.62
2362.015	115.62
2365.85	112.62
2369.681	120.62
2373.508	115.62
2377.333	112.62
2381.153	115.62
2384.971	114.62
2388.785	114.62
2392.595	111.62
2396.402	109.62
2400.206	100.62
2404.007	101.62
2407.804	102.62
2411.597	97.62
2415.388	102.62
2419.174	95.62
2422.958	88.62
2426.738	99.62
2430.515	95.62
2434.289	104.62
2438.059	92.62
2441.825	88.62
2445.589	92.62
2449.349	85.62
2453.106	81.62
2456.859	89.62
2460.61	80.62
2464.356	80.62
2468.1	79.62
2471.84	75.62
2475.577	71.62
2479.311	74.62
2483.041	78.62
2486.768	73.62
2490.492	75.62
2494.213	79.62
2497.93	70.62
2501.644	77.62
2505.355	75.62
2509.062	78.62
2512.766	76.62
2516.467	72.62
2520.165	65.62
2523.859	67.62
2527.551	60.62
2531.239	67.62
2534.923	61.62
2538.605	69.62
2542.283	63.62
2545.958	75.62
2549.63	67.62
2553.299	65.62
2556.964	62.62
2560.626	60.62
2564.285	59.62
2567.941	60.62
2571.594	58.62
2575.243	53.62
2578.89	55.62
2582.533	56.62
2586.173	60.62
2589.809	52.62
2593.443	54.62
2597.073	46.62
2600.701	52.62
2604.325	51.62
2607.946	49.62
2611.564	48.62
2615.178	51.62
2618.79	51.62
2622.398	47.62
2626.004	48.62
2629.606	45.62
2633.205	41.62
2636.801	45.62
2640.394	42.62
2643.983	44.62
2647.57	45.62
2651.153	40.62
2654.734	37.62
2658.311	44.62
2661.885	38.62
2665.456	35.62
2669.025	38.62
2672.589	32.62
2676.151	36.62
2679.71	32.62
2683.266	36.62
2686.819	32.62
2690.368	26.62
2693.915	34.62
2697.458	34.62
2700.999	31.62
2704.536	23.62
2708.071	32.62
2711.602	24.62
2715.13	25.62
2718.656	26.62
2722.178	25.62
2725.697	26.62
2729.214	27.62
2732.727	30.62
2736.237	26.62
2739.744	32.62
2743.249	34.62
2746.75	36.62
2750.248	31.62
2753.743	32.62
2757.236	34.62
2760.725	33.62
2764.211	42.62
2767.695	35.62
2771.175	40.62
2774.652	44.62
2778.127	45.62
2781.598	38.62
2785.067	39.62
2788.532	43.62
2791.995	44.62
2795.455	43.62
2798.911	48.62
2802.365	52.62
2805.816	55.62
2809.264	60.62
2812.709	57.62
2816.151	53.62
2819.59	57.62
2823.026	61.62
2826.46	59.62
2829.89	66.62
2833.318	62.62
2836.742	64.62
2840.164	64.62
2843.583	74.62
2846.999	79.62
2850.412	80.62
2853.822	81.62
2857.229	84.62
2860.634	88.62
2864.035	90.62
2867.434	98.62
2870.83	89.62
2874.223	99.62
2877.613	103.62
2881	108.62
2884.385	108.62
2887.766	113.62
2891.145	108.62
2894.521	118.62
2897.894	116.62
2901.264	121.62
2904.631	120.62
2907.996	130.62
2911.358	130.62
2914.717	137.62
2918.073	149.62
2921.426	149.62
2924.777	154.62
2928.124	162.62
2931.469	169.62
2934.811	169.62
2938.15	184.62
2941.487	188.62
2944.821	190.62
2948.152	201.62
2951.48	203.62
2954.805	207.62
2958.128	219.62
2961.447	220.62
2964.765	230.62
2968.079	234.62
2971.39	248.62
2974.699	262.62
2978.005	271.62
2981.308	284.62
2984.609	294.62
2987.907	305.62
2991.202	315.62
2994.494	335.62
2997.784	350.62
3001.07	351.62
3004.355	367.62
3007.636	381.62
3010.915	388.62
3014.191	416.62
3017.464	414.62
3020.734	418.62
3024.002	443.62
3027.267	445.62
3030.53	465.62
3033.789	478.62
3037.046	479.62
3040.301	491.62
3043.552	516.62
3046.801	524.62
3050.048	544.62
3053.291	565.62
3056.532	583.62
3059.771	606.62
3063.006	624.62
3066.239	642.62
3069.469	673.62
3072.697	704.62
3075.922	712.62
3079.144	738.62
3082.364	751.62
3085.581	765.62
3088.795	801.62
3092.007	824.62
3095.216	854.62
3098.423	859.62
3101.627	885.62
3104.828	908.62
3108.026	932.62
3111.222	949.62
3114.416	971.62
3117.607	996.62
3120.795	1018.62
3123.98	1049.62
3127.163	1085.62
3130.344	1100.62
3133.521	1124.62
3136.696	1148.62
3139.869	1196.62
3143.039	1206.62
3146.206	1228.62
3149.371	1241.62
3152.533	1252.62
3155.693	1272.62
3158.85	1282.62
3162.005	1283.62
3165.157	1293.62
3168.306	1293.62
3171.453	1305.62
3174.597	1313.62
3177.739	1312.62
3180.878	1318.62
3184.014	1318.62
3187.149	1318.62
3190.28	1332.62
3193.409	1337.62
3196.536	1337.62
3199.659	1339.62
3202.781	1358.62
3205.9	1368.62
3209.016	1354.62
3212.13	1343.62
3215.241	1344.62
3218.35	1340.62
3221.456	1315.62
3224.56	1312.62
3227.661	1309.62
3230.76	1296.62
3233.856	1296.62
3236.95	1265.62
3240.041	1257.62
3243.13	1282.62
3246.216	1254.62
3249.3	1241.62
3252.382	1249.62
3255.46	1253.62
3258.537	1222.62
3261.611	1229.62
3264.682	1215.62
3267.751	1215.62
3270.818	1199.62
3273.882	1210.62
3276.943	1208.62
3280.002	1206.62
3283.059	1193.62
3286.113	1165.62
3289.165	1165.62
3292.214	1121.62
3295.261	1112.62
3298.306	1093.62
3301.348	1065.62
3304.387	1067.62
3307.425	1055.62
3310.459	1033.62
3313.492	1024.62
3316.521	1012.62
3319.549	1003.62
3322.574	988.62
3325.597	976.62
3328.617	971.62
3331.635	973.62
3334.65	978.62
3337.663	956.62
3340.674	942.62
3343.682	967.62
3346.688	944.62
3349.691	949.62
3352.692	936.62
3355.691	926.62
3358.687	932.62
3361.681	909.62
3364.673	907.62
3367.662	887.62
3370.649	874.62
3373.633	854.62
3376.615	858.62
3379.595	857.62
3382.572	835.62
3385.547	827.62
3388.52	823.62
3391.49	803.62
3394.458	795.62
3397.424	784.62
3400.387	768.62
3403.348	766.62
3406.307	760.62
3409.263	745.62
3412.217	736.62
3415.168	730.62
3418.118	734.62
3421.065	711.62
3424.009	713.62
3426.951	693.62
3429.891	687.62
3432.829	679.62
3435.764	673.62
3438.697	650.62
3441.628	631.62
3444.557	615.62
3447.483	598.62
3450.407	591.62
3453.328	566.62
3456.247	544.62
3459.164	536.62
3462.079	523.62
3464.991	510.62
3467.902	496.62
3470.809	483.62
3473.715	459.62
3476.618	443.62
3479.519	434.62
3482.418	428.62
3485.315	417.62
3488.209	405.62
3491.101	403.62
3493.99	379.62
3496.878	368.62
3499.763	361.62
3502.646	345.62
3505.527	337.62
3508.405	320.62
3511.281	313.62
3514.155	291.62
3517.027	286.62
3519.897	273.62
3522.764	260.62
3525.629	250.62
3528.492	231.62
3531.352	216.62
3534.211	206.62
3537.067	197.62
3539.921	180.62
3542.773	173.62
3545.622	160.62
3548.469	159.62
3551.315	144.62
3554.157	142.62
3556.998	132.62
3559.837	123.62
3562.673	112.62
3565.507	110.62
3568.339	107.62
3571.169	90.62
3573.996	87.62
3576.822	78.62
3579.645	78.62
3582.466	66.62
3585.285	59.62
3588.101	54.62
3590.916	42.62
3593.728	43.62
3596.538	41.62
3599.346	34.62
3602.152	26.62
3604.956	26.62
3607.757	18.62
3610.556	14.62
3613.354	6.62
3616.149	5.62
3618.942	4.62
3621.732	1.62
3624.521	-7.38
3627.307	-8.38
3630.092	-18.38
3632.874	-17.38
3635.654	-20.38
3638.432	-24.38
3641.208	-28.38
3643.982	-31.38
3646.753	-31.38
3649.523	-34.38
3652.29	-34.38
3655.055	-44.38
3657.818	-47.38
3660.579	-50.38
3663.338	-50.38
3666.095	-58.38
3668.849	-59.38
3671.602	-57.38
3674.352	-64.38
3677.101	-63.38
3679.847	-65.38
3682.591	-65.38
3685.333	-73.38
3688.073	-73.38
3690.811	-75.38
3693.547	-79.38
3696.281	-82.38
3699.013	-80.38
3701.742	-84.38
3704.47	-83.38
3707.195	-86.38
3709.919	-88.38
3712.64	-88.38
3715.359	-86.38
3718.076	-88.38
3720.792	-91.38
3723.505	-89.38
3726.216	-90.38
3728.925	-88.38
3731.632	-95.38
3734.336	-95.38
3737.039	-91.38
3739.74	-93.38
3742.439	-100.38
3745.136	-98.38
3747.83	-101.38
3750.523	-101.38
3753.213	-101.38
3755.902	-103.38
3758.589	-101.38
3761.273	-102.38
3763.956	-100.38
3766.636	-100.38
3769.315	-101.38
3771.991	-106.38
3774.665	-105.38
3777.338	-106.38
3780.008	-107.38
3782.677	-107.38
3785.343	-110.38
3788.007	-111.38
3790.67	-108.38
3793.33	-112.38
3795.989	-105.38
3798.645	-104.38
3801.299	-109.38
3803.952	-110.38
3806.602	-107.38
3809.251	-107.38
3811.897	-109.38
3814.542	-111.38
3817.184	-107.38
3819.825	-106.38
3822.463	-109.38
3825.1	-109.38
3827.735	-112.38
3830.367	-110.38
3832.998	-112.38
3835.627	-113.38
3838.253	-110.38
3840.878	-111.38
3843.501	-114.38
3846.122	-112.38
3848.741	-112.38
3851.358	-110.38
3853.973	-110.38
3856.586	-113.38
3859.197	-113.38
3861.806	-114.38
3864.414	-117.38
3867.019	-112.38
3869.622	-113.38
3872.224	-114.38
3874.823	-110.38
3877.421	-102.38
3880.016	-104.38
3882.61	-100.38
3885.202	-103.38
3887.792	-105.38
3890.38	-108.38
3892.966	-114.38
3895.55	-114.38
3898.132	-113.38
3900.713	-117.38
3903.291	-111.38
3905.868	-112.38
3908.442	-112.38
3911.015	-116.38
3913.586	-114.38
3916.155	-114.38
3918.722	-115.38
3921.287	-115.38
3923.85	-115.38
3926.411	-117.38
3928.971	-114.38
3931.528	-113.38
3934.084	-117.38
3936.638	-115.38
3939.19	-114.38
3941.74	-116.38
3944.288	-121.38
3946.834	-115.38
3949.378	-119.38
3951.921	-111.38
3954.462	-119.38
3957	-115.38
3959.537	-111.38
3962.072	-116.38
3964.606	-114.38
3967.137	-112.38
3969.667	-114.38
3972.194	-118.38
3974.72	-117.38
3977.244	-115.38
3979.766	-117.38
3982.286	-114.38
3984.805	-113.38
3987.321	-111.38
3989.836	-114.38
3992.349	-113.38
3994.86	-114.38
3997.369	-113.38
3999.877	-115.38
4002.382	-115.38
4004.886	-110.38
4007.388	-114.38
4009.888	-116.38
4012.386	-112.38
4014.883	-113.38
4017.377	-112.38
4019.87	-122.38
4022.361	-114.38
4024.85	-119.38
4027.338	-115.38
4029.823	-117.38
4032.307	-109.38
4034.789	-114.38
4037.269	-113.38
4039.747	-109.38
4042.224	-110.38
4044.699	-115.38
4047.172	-113.38
4049.643	-118.38
4052.112	-120.38
4054.58	-117.38
4057.046	-115.38
4059.51	-117.38
4061.972	-111.38
4064.432	-115.38
4066.891	-113.38
4069.348	-115.38
4071.803	-115.38
4074.256	-113.38
4076.708	-116.38
4079.158	-113.38
4081.606	-116.38
4084.052	-117.38
4086.497	-114.38
4088.939	-112.38
4091.38	-112.38
4093.819	-118.38
4096.257	-118.38
4098.693	-116.38
4101.127	-116.38
4103.559	-117.38
4105.989	-77.38
4108.418	-73.38
4110.845	-74.38
4113.27	-69.38
4115.694	-53.38
4118.115	-51.38
4120.535	-119.38
4122.954	-111.38
4125.37	-116.38
4127.785	-119.38
4130.198	-120.38
4132.609	-114.38
4135.019	-117.38
4137.427	-118.38
4139.833	-117.38
4142.237	-115.38
