Data from Bsub_water_DIL10_B_2_RamanShift_1.txt Node
Date: Wed Feb 22 13:33:01 IST 2017
User: aro
Spectrometer: QEPB0276
Trigger mode: 0
Integration Time (sec): 5.000000E0
Scans to average: 1
Electric dark correction enabled: true
Nonlinearity correction enabled: false
Boxcar width: 0
XAxis mode: Raman Shifts
Number of Pixels in Spectrum: 1044
>>>>>Begin Spectral Data<<<<<
160.701	-31.12
166.742	4.88
172.777	96.88
178.805	376.88
184.826	1081.88
190.841	2245.88
196.849	3571.88
202.85	4456.88
208.845	4682.88
214.833	4517.88
220.815	4339.88
226.789	4188.88
232.758	4091.88
238.719	3949.88
244.674	3778.88
250.623	3588.88
256.565	3403.88
262.5	3249.88
268.429	3074.88
274.351	2913.88
280.267	2778.88
286.176	2685.88
292.079	2574.88
297.975	2486.88
303.865	2385.88
309.748	2306.88
315.625	2238.88
321.495	2192.88
327.359	2154.88
333.217	2128.88
339.068	2128.88
344.912	2090.88
350.751	2078.88
356.583	2085.88
362.408	2077.88
368.227	2089.88
374.04	2087.88
379.847	2121.88
385.647	2112.88
391.44	2114.88
397.228	2147.88
403.009	2132.88
408.784	2181.88
414.553	2179.88
420.315	2180.88
426.071	2181.88
431.821	2191.88
437.565	2166.88
443.302	2181.88
449.033	2196.88
454.758	2146.88
460.477	2143.88
466.189	2138.88
471.896	2117.88
477.596	2109.88
483.29	2093.88
488.978	2085.88
494.66	2067.88
500.335	2029.88
506.005	1998.88
511.668	1965.88
517.325	1919.88
522.977	1898.88
528.622	1853.88
534.261	1838.88
539.894	1807.88
545.521	1784.88
551.141	1775.88
556.756	1754.88
562.365	1760.88
567.968	1742.88
573.565	1734.88
579.155	1711.88
584.74	1690.88
590.319	1669.88
595.892	1672.88
601.459	1676.88
607.02	1641.88
612.575	1631.88
618.124	1604.88
623.667	1588.88
629.204	1583.88
634.735	1555.88
640.261	1561.88
645.781	1523.88
651.294	1528.88
656.802	1537.88
662.304	1498.88
667.8	1502.88
673.29	1479.88
678.775	1489.88
684.254	1481.88
689.726	1474.88
695.193	1452.88
700.655	1463.88
706.11	1424.88
711.56	1449.88
717.004	1421.88
722.442	1395.88
727.874	1403.88
733.301	1379.88
738.722	1379.88
744.137	1358.88
749.547	1356.88
754.951	1368.88
760.349	1348.88
765.741	1350.88
771.128	1349.88
776.509	1365.88
781.885	1347.88
787.254	1339.88
792.618	1338.88
797.977	1336.88
803.33	1305.88
808.677	1284.88
814.019	1281.88
819.355	1260.88
824.686	1246.88
830.011	1244.88
835.33	1228.88
840.644	1213.88
845.952	1205.88
851.255	1189.88
856.552	1196.88
861.844	1174.88
867.13	1168.88
872.41	1152.88
877.686	1139.88
882.955	1110.88
888.219	1097.88
893.478	1068.88
898.731	1066.88
903.979	1039.88
909.221	1034.88
914.458	1021.88
919.69	1005.88
924.916	1002.88
930.136	997.88
935.351	994.88
940.561	980.88
945.766	989.88
950.965	964.88
956.158	971.88
961.347	946.88
966.529	932.88
971.707	915.88
976.879	896.88
982.046	894.88
987.208	882.88
992.364	892.88
997.515	890.88
1002.66	895.88
1007.801	889.88
1012.936	889.88
1018.066	902.88
1023.19	897.88
1028.309	913.88
1033.423	891.88
1038.532	900.88
1043.636	893.88
1048.734	891.88
1053.827	868.88
1058.915	862.88
1063.998	855.88
1069.075	865.88
1074.147	866.88
1079.214	862.88
1084.276	857.88
1089.333	865.88
1094.385	863.88
1099.431	863.88
1104.472	877.88
1109.509	872.88
1114.54	860.88
1119.565	848.88
1124.586	831.88
1129.602	826.88
1134.613	826.88
1139.618	825.88
1144.619	826.88
1149.614	829.88
1154.604	830.88
1159.589	828.88
1164.57	829.88
1169.545	834.88
1174.515	829.88
1179.48	833.88
1184.44	823.88
1189.395	813.88
1194.345	805.88
1199.29	792.88
1204.23	807.88
1209.165	810.88
1214.095	823.88
1219.021	826.88
1223.941	830.88
1228.856	815.88
1233.766	836.88
1238.672	836.88
1243.572	848.88
1248.467	815.88
1253.358	821.88
1258.244	807.88
1263.124	804.88
1268	773.88
1272.871	767.88
1277.737	762.88
1282.599	775.88
1287.455	757.88
1292.306	770.88
1297.153	770.88
1301.995	777.88
1306.832	786.88
1311.664	782.88
1316.491	787.88
1321.314	773.88
1326.132	747.88
1330.945	764.88
1335.753	737.88
1340.556	724.88
1345.354	712.88
1350.148	706.88
1354.937	704.88
1359.722	694.88
1364.501	702.88
1369.276	711.88
1374.046	711.88
1378.811	720.88
1383.572	719.88
1388.327	723.88
1393.079	722.88
1397.825	695.88
1402.567	698.88
1407.304	679.88
1412.036	686.88
1416.764	665.88
1421.487	671.88
1426.205	656.88
1430.919	672.88
1435.628	670.88
1440.333	681.88
1445.032	675.88
1449.727	685.88
1454.418	684.88
1459.104	698.88
1463.785	679.88
1468.462	683.88
1473.134	663.88
1477.802	666.88
1482.465	663.88
1487.123	671.88
1491.777	669.88
1496.426	673.88
1501.071	684.88
1505.711	702.88
1510.347	713.88
1514.978	721.88
1519.604	718.88
1524.226	737.88
1528.844	738.88
1533.457	739.88
1538.065	732.88
1542.669	744.88
1547.269	748.88
1551.864	749.88
1556.454	760.88
1561.041	773.88
1565.622	783.88
1570.199	789.88
1574.772	815.88
1579.34	822.88
1583.904	852.88
1588.464	855.88
1593.019	867.88
1597.569	883.88
1602.115	901.88
1606.657	934.88
1611.195	936.88
1615.728	948.88
1620.256	960.88
1624.78	977.88
1629.3	1016.88
1633.816	1022.88
1638.327	1061.88
1642.834	1063.88
1647.336	1062.88
1651.834	1063.88
1656.328	1060.88
1660.817	1059.88
1665.302	1026.88
1669.783	1005.88
1674.259	976.88
1678.732	927.88
1683.199	898.88
1687.663	842.88
1692.122	796.88
1696.577	780.88
1701.028	751.88
1705.474	734.88
1709.917	704.88
1714.355	670.88
1718.788	650.88
1723.218	624.88
1727.643	610.88
1732.064	581.88
1736.481	551.88
1740.893	518.88
1745.301	504.88
1749.705	487.88
1754.105	467.88
1758.501	456.88
1762.893	435.88
1767.28	424.88
1771.663	420.88
1776.042	408.88
1780.417	407.88
1784.787	407.88
1789.154	403.88
1793.516	412.88
1797.874	422.88
1802.228	411.88
1806.578	416.88
1810.924	411.88
1815.266	404.88
1819.603	391.88
1823.937	373.88
1828.266	376.88
1832.591	366.88
1836.913	355.88
1841.23	350.88
1845.543	346.88
1849.852	347.88
1854.156	354.88
1858.457	338.88
1862.754	354.88
1867.047	359.88
1871.335	344.88
1875.62	357.88
1879.9	352.88
1884.177	352.88
1888.449	349.88
1892.718	342.88
1896.982	346.88
1901.243	346.88
1905.499	342.88
1909.752	337.88
1914	345.88
1918.245	343.88
1922.485	358.88
1926.722	351.88
1930.954	362.88
1935.183	369.88
1939.408	374.88
1943.628	363.88
1947.845	373.88
1952.058	370.88
1956.267	367.88
1960.472	357.88
1964.673	361.88
1968.87	356.88
1973.063	344.88
1977.252	355.88
1981.438	345.88
1985.619	346.88
1989.797	347.88
1993.971	344.88
1998.14	355.88
2002.306	346.88
2006.469	357.88
2010.627	344.88
2014.781	357.88
2018.932	365.88
2023.078	359.88
2027.221	362.88
2031.36	355.88
2035.495	349.88
2039.627	357.88
2043.754	348.88
2047.878	342.88
2051.998	355.88
2056.114	354.88
2060.226	357.88
2064.334	355.88
2068.439	362.88
2072.54	372.88
2076.637	380.88
2080.73	382.88
2084.82	372.88
2088.906	385.88
2092.988	381.88
2097.066	384.88
2101.14	374.88
2105.211	374.88
2109.278	365.88
2113.342	368.88
2117.401	378.88
2121.457	371.88
2125.509	366.88
2129.558	371.88
2133.602	365.88
2137.643	361.88
2141.681	355.88
2145.714	360.88
2149.744	354.88
2153.77	350.88
2157.793	342.88
2161.812	334.88
2165.827	329.88
2169.838	333.88
2173.846	316.88
2177.851	319.88
2181.851	300.88
2185.848	303.88
2189.841	301.88
2193.831	297.88
2197.817	301.88
2201.799	291.88
2205.778	297.88
2209.753	283.88
2213.725	283.88
2217.693	283.88
2221.657	286.88
2225.618	269.88
2229.575	272.88
2233.529	264.88
2237.479	271.88
2241.425	262.88
2245.368	260.88
2249.307	246.88
2253.243	250.88
2257.175	249.88
2261.104	243.88
2265.029	240.88
2268.95	236.88
2272.868	235.88
2276.783	226.88
2280.694	224.88
2284.601	212.88
2288.505	208.88
2292.405	202.88
2296.302	207.88
2300.195	197.88
2304.085	203.88
2307.971	192.88
2311.854	191.88
2315.734	183.88
2319.609	184.88
2323.482	175.88
2327.351	170.88
2331.216	178.88
2335.078	173.88
2338.937	176.88
2342.792	165.88
2346.643	166.88
2350.492	156.88
2354.336	152.88
2358.178	159.88
2362.015	158.88
2365.85	152.88
2369.681	165.88
2373.508	153.88
2377.333	154.88
2381.153	153.88
2384.971	164.88
2388.785	154.88
2392.595	155.88
2396.402	152.88
2400.206	138.88
2404.007	143.88
2407.804	136.88
2411.597	142.88
2415.388	145.88
2419.174	137.88
2422.958	131.88
2426.738	134.88
2430.515	138.88
2434.289	131.88
2438.059	128.88
2441.825	129.88
2445.589	128.88
2449.349	125.88
2453.106	119.88
2456.859	124.88
2460.61	120.88
2464.356	121.88
2468.1	121.88
2471.84	117.88
2475.577	111.88
2479.311	106.88
2483.041	112.88
2486.768	108.88
2490.492	113.88
2494.213	109.88
2497.93	117.88
2501.644	111.88
2505.355	110.88
2509.062	111.88
2512.766	114.88
2516.467	114.88
2520.165	113.88
2523.859	105.88
2527.551	108.88
2531.239	103.88
2534.923	105.88
2538.605	102.88
2542.283	102.88
2545.958	101.88
2549.63	97.88
2553.299	95.88
2556.964	94.88
2560.626	91.88
2564.285	101.88
2567.941	99.88
2571.594	102.88
2575.243	99.88
2578.89	96.88
2582.533	95.88
2586.173	91.88
2589.809	90.88
2593.443	90.88
2597.073	83.88
2600.701	83.88
2604.325	84.88
2607.946	77.88
2611.564	85.88
2615.178	83.88
2618.79	86.88
2622.398	84.88
2626.004	86.88
2629.606	84.88
2633.205	81.88
2636.801	74.88
2640.394	75.88
2643.983	75.88
2647.57	71.88
2651.153	74.88
2654.734	65.88
2658.311	69.88
2661.885	69.88
2665.456	65.88
2669.025	69.88
2672.589	63.88
2676.151	61.88
2679.71	68.88
2683.266	61.88
2686.819	63.88
2690.368	65.88
2693.915	61.88
2697.458	52.88
2700.999	61.88
2704.536	59.88
2708.071	55.88
2711.602	51.88
2715.13	55.88
2718.656	52.88
2722.178	48.88
2725.697	49.88
2729.214	55.88
2732.727	59.88
2736.237	58.88
2739.744	61.88
2743.249	63.88
2746.75	66.88
2750.248	63.88
2753.743	59.88
2757.236	61.88
2760.725	71.88
2764.211	72.88
2767.695	69.88
2771.175	69.88
2774.652	73.88
2778.127	70.88
2781.598	66.88
2785.067	64.88
2788.532	68.88
2791.995	69.88
2795.455	66.88
2798.911	73.88
2802.365	78.88
2805.816	78.88
2809.264	77.88
2812.709	85.88
2816.151	77.88
2819.59	79.88
2823.026	81.88
2826.46	80.88
2829.89	90.88
2833.318	94.88
2836.742	82.88
2840.164	90.88
2843.583	93.88
2846.999	96.88
2850.412	103.88
2853.822	102.88
2857.229	105.88
2860.634	110.88
2864.035	112.88
2867.434	115.88
2870.83	119.88
2874.223	127.88
2877.613	131.88
2881	132.88
2884.385	137.88
2887.766	141.88
2891.145	143.88
2894.521	135.88
2897.894	141.88
2901.264	137.88
2904.631	146.88
2907.996	150.88
2911.358	152.88
2914.717	155.88
2918.073	163.88
2921.426	169.88
2924.777	171.88
2928.124	178.88
2931.469	189.88
2934.811	181.88
2938.15	197.88
2941.487	202.88
2944.821	208.88
2948.152	217.88
2951.48	215.88
2954.805	228.88
2958.128	236.88
2961.447	241.88
2964.765	258.88
2968.079	253.88
2971.39	263.88
2974.699	282.88
2978.005	291.88
2981.308	297.88
2984.609	305.88
2987.907	326.88
2991.202	333.88
2994.494	350.88
2997.784	360.88
3001.07	375.88
3004.355	380.88
3007.636	397.88
3010.915	411.88
3014.191	414.88
3017.464	425.88
3020.734	435.88
3024.002	453.88
3027.267	458.88
3030.53	475.88
3033.789	478.88
3037.046	491.88
3040.301	507.88
3043.552	530.88
3046.801	542.88
3050.048	557.88
3053.291	577.88
3056.532	581.88
3059.771	606.88
3063.006	642.88
3066.239	645.88
3069.469	681.88
3072.697	688.88
3075.922	721.88
3079.144	738.88
3082.364	768.88
3085.581	777.88
3088.795	805.88
3092.007	809.88
3095.216	837.88
3098.423	871.88
3101.627	895.88
3104.828	923.88
3108.026	948.88
3111.222	960.88
3114.416	985.88
3117.607	995.88
3120.795	1029.88
3123.98	1046.88
3127.163	1083.88
3130.344	1107.88
3133.521	1128.88
3136.696	1163.88
3139.869	1194.88
3143.039	1211.88
3146.206	1221.88
3149.371	1240.88
3152.533	1253.88
3155.693	1253.88
3158.85	1288.88
3162.005	1291.88
3165.157	1289.88
3168.306	1293.88
3171.453	1297.88
3174.597	1297.88
3177.739	1310.88
3180.878	1307.88
3184.014	1312.88
3187.149	1318.88
3190.28	1311.88
3193.409	1323.88
3196.536	1332.88
3199.659	1331.88
3202.781	1341.88
3205.9	1339.88
3209.016	1337.88
3212.13	1341.88
3215.241	1338.88
3218.35	1325.88
3221.456	1321.88
3224.56	1304.88
3227.661	1294.88
3230.76	1289.88
3233.856	1271.88
3236.95	1245.88
3240.041	1246.88
3243.13	1254.88
3246.216	1239.88
3249.3	1249.88
3252.382	1251.88
3255.46	1239.88
3258.537	1218.88
3261.611	1230.88
3264.682	1212.88
3267.751	1221.88
3270.818	1212.88
3273.882	1192.88
3276.943	1185.88
3280.002	1193.88
3283.059	1156.88
3286.113	1151.88
3289.165	1141.88
3292.214	1117.88
3295.261	1105.88
3298.306	1079.88
3301.348	1061.88
3304.387	1056.88
3307.425	1041.88
3310.459	1015.88
3313.492	1002.88
3316.521	1004.88
3319.549	984.88
3322.574	977.88
3325.597	972.88
3328.617	960.88
3331.635	949.88
3334.65	943.88
3337.663	931.88
3340.674	936.88
3343.682	931.88
3346.688	921.88
3349.691	924.88
3352.692	916.88
3355.691	915.88
3358.687	908.88
3361.681	902.88
3364.673	880.88
3367.662	875.88
3370.649	858.88
3373.633	865.88
3376.615	831.88
3379.595	823.88
3382.572	819.88
3385.547	805.88
3388.52	787.88
3391.49	780.88
3394.458	774.88
3397.424	766.88
3400.387	747.88
3403.348	745.88
3406.307	742.88
3409.263	735.88
3412.217	732.88
3415.168	716.88
3418.118	711.88
3421.065	711.88
3424.009	700.88
3426.951	675.88
3429.891	680.88
3432.829	653.88
3435.764	643.88
3438.697	633.88
3441.628	610.88
3444.557	600.88
3447.483	582.88
3450.407	574.88
3453.328	559.88
3456.247	549.88
3459.164	537.88
3462.079	524.88
3464.991	507.88
3467.902	498.88
3470.809	479.88
3473.715	452.88
3476.618	453.88
3479.519	428.88
3482.418	419.88
3485.315	409.88
3488.209	389.88
3491.101	393.88
3493.99	381.88
3496.878	375.88
3499.763	355.88
3502.646	339.88
3505.527	334.88
3508.405	322.88
3511.281	305.88
3514.155	303.88
3517.027	277.88
3519.897	277.88
3522.764	258.88
3525.629	245.88
3528.492	230.88
3531.352	221.88
3534.211	211.88
3537.067	195.88
3539.921	179.88
3542.773	174.88
3545.622	169.88
3548.469	164.88
3551.315	141.88
3554.157	138.88
3556.998	141.88
3559.837	121.88
3562.673	117.88
3565.507	106.88
3568.339	96.88
3571.169	94.88
3573.996	85.88
3576.822	83.88
3579.645	73.88
3582.466	68.88
3585.285	60.88
3588.101	60.88
3590.916	52.88
3593.728	49.88
3596.538	34.88
3599.346	38.88
3602.152	27.88
3604.956	22.88
3607.757	17.88
3610.556	17.88
3613.354	17.88
3616.149	6.88
3618.942	9.88
3621.732	-1.12
3624.521	-5.12
3627.307	-15.12
3630.092	-7.12
3632.874	-18.12
3635.654	-17.12
3638.432	-24.12
3641.208	-24.12
3643.982	-25.12
3646.753	-27.12
3649.523	-26.12
3652.29	-30.12
3655.055	-35.12
3657.818	-44.12
3660.579	-44.12
3663.338	-47.12
3666.095	-51.12
3668.849	-53.12
3671.602	-56.12
3674.352	-59.12
3677.101	-61.12
3679.847	-62.12
3682.591	-62.12
3685.333	-69.12
3688.073	-70.12
3690.811	-68.12
3693.547	-70.12
3696.281	-74.12
3699.013	-77.12
3701.742	-73.12
3704.47	-75.12
3707.195	-80.12
3709.919	-82.12
3712.64	-80.12
3715.359	-85.12
3718.076	-87.12
3720.792	-84.12
3723.505	-88.12
3726.216	-85.12
3728.925	-82.12
3731.632	-91.12
3734.336	-93.12
3737.039	-89.12
3739.74	-89.12
3742.439	-94.12
3745.136	-96.12
3747.83	-92.12
3750.523	-96.12
3753.213	-97.12
3755.902	-101.12
3758.589	-100.12
3761.273	-100.12
3763.956	-98.12
3766.636	-99.12
3769.315	-95.12
3771.991	-98.12
3774.665	-101.12
3777.338	-100.12
3780.008	-99.12
3782.677	-97.12
3785.343	-105.12
3788.007	-98.12
3790.67	-104.12
3793.33	-99.12
3795.989	-101.12
3798.645	-102.12
3801.299	-108.12
3803.952	-106.12
3806.602	-104.12
3809.251	-102.12
3811.897	-104.12
3814.542	-103.12
3817.184	-104.12
3819.825	-99.12
3822.463	-101.12
3825.1	-101.12
3827.735	-106.12
3830.367	-104.12
3832.998	-104.12
3835.627	-108.12
3838.253	-106.12
3840.878	-108.12
3843.501	-108.12
3846.122	-107.12
3848.741	-103.12
3851.358	-104.12
3853.973	-105.12
3856.586	-104.12
3859.197	-106.12
3861.806	-107.12
3864.414	-107.12
3867.019	-108.12
3869.622	-109.12
3872.224	-109.12
3874.823	-105.12
3877.421	-100.12
3880.016	-102.12
3882.61	-100.12
3885.202	-101.12
3887.792	-98.12
3890.38	-103.12
3892.966	-108.12
3895.55	-108.12
3898.132	-104.12
3900.713	-108.12
3903.291	-105.12
3905.868	-106.12
3908.442	-107.12
3911.015	-109.12
3913.586	-111.12
3916.155	-113.12
3918.722	-113.12
3921.287	-111.12
3923.85	-110.12
3926.411	-113.12
3928.971	-109.12
3931.528	-107.12
3934.084	-109.12
3936.638	-109.12
3939.19	-107.12
3941.74	-109.12
3944.288	-108.12
3946.834	-109.12
3949.378	-113.12
3951.921	-108.12
3954.462	-113.12
3957	-109.12
3959.537	-108.12
3962.072	-110.12
3964.606	-111.12
3967.137	-109.12
3969.667	-108.12
3972.194	-111.12
3974.72	-109.12
3977.244	-108.12
3979.766	-109.12
3982.286	-107.12
3984.805	-107.12
3987.321	-107.12
3989.836	-110.12
3992.349	-105.12
3994.86	-111.12
3997.369	-111.12
3999.877	-110.12
4002.382	-108.12
4004.886	-108.12
4007.388	-110.12
4009.888	-111.12
4012.386	-109.12
4014.883	-107.12
4017.377	-108.12
4019.87	-112.12
4022.361	-108.12
4024.85	-110.12
4027.338	-110.12
4029.823	-111.12
4032.307	-106.12
4034.789	-108.12
4037.269	-107.12
4039.747	-103.12
4042.224	-107.12
4044.699	-113.12
4047.172	-109.12
4049.643	-114.12
4052.112	-112.12
4054.58	-112.12
4057.046	-109.12
4059.51	-111.12
4061.972	-105.12
4064.432	-108.12
4066.891	-106.12
4069.348	-108.12
4071.803	-109.12
4074.256	-106.12
4076.708	-108.12
4079.158	-108.12
4081.606	-110.12
4084.052	-110.12
4086.497	-111.12
4088.939	-107.12
4091.38	-109.12
4093.819	-115.12
4096.257	-111.12
4098.693	-114.12
4101.127	-110.12
4103.559	-110.12
4105.989	-70.12
4108.418	-71.12
4110.845	-67.12
4113.27	-60.12
4115.694	-53.12
4118.115	-42.12
4120.535	-109.12
4122.954	-111.12
4125.37	-111.12
4127.785	-110.12
4130.198	-114.12
4132.609	-109.12
4135.019	-113.12
4137.427	-113.12
4139.833	-112.12
4142.237	-109.12
