Data from Bsub_water_DIL104_B_2_RamanShift_1.txt Node
Date: Wed Feb 22 13:25:16 IST 2017
User: aro
Spectrometer: QEPB0276
Trigger mode: 0
Integration Time (sec): 5.000000E0
Scans to average: 1
Electric dark correction enabled: true
Nonlinearity correction enabled: false
Boxcar width: 0
XAxis mode: Raman Shifts
Number of Pixels in Spectrum: 1044
>>>>>Begin Spectral Data<<<<<
160.701	-37.25
166.742	2.75
172.777	101.75
178.805	399.75
184.826	1127.75
190.841	2368.75
196.849	3755.75
202.85	4703.75
208.845	4918.75
214.833	4749.75
220.815	4554.75
226.789	4412.75
232.758	4255.75
238.719	4102.75
244.674	3924.75
250.623	3758.75
256.565	3539.75
262.5	3360.75
268.429	3175.75
274.351	3042.75
280.267	2907.75
286.176	2779.75
292.079	2667.75
297.975	2568.75
303.865	2467.75
309.748	2404.75
315.625	2315.75
321.495	2268.75
327.359	2228.75
333.217	2199.75
339.068	2174.75
344.912	2156.75
350.751	2146.75
356.583	2150.75
362.408	2147.75
368.227	2161.75
374.04	2142.75
379.847	2179.75
385.647	2185.75
391.44	2196.75
397.228	2218.75
403.009	2206.75
408.784	2229.75
414.553	2239.75
420.315	2276.75
426.071	2251.75
431.821	2232.75
437.565	2222.75
443.302	2236.75
449.033	2217.75
454.758	2222.75
460.477	2209.75
466.189	2194.75
471.896	2168.75
477.596	2169.75
483.29	2159.75
488.978	2130.75
494.66	2117.75
500.335	2076.75
506.005	2046.75
511.668	2008.75
517.325	1971.75
522.977	1930.75
528.622	1900.75
534.261	1858.75
539.894	1836.75
545.521	1848.75
551.141	1800.75
556.756	1789.75
562.365	1774.75
567.968	1772.75
573.565	1744.75
579.155	1724.75
584.74	1721.75
590.319	1696.75
595.892	1698.75
601.459	1685.75
607.02	1687.75
612.575	1648.75
618.124	1628.75
623.667	1597.75
629.204	1587.75
634.735	1582.75
640.261	1557.75
645.781	1568.75
651.294	1542.75
656.802	1535.75
662.304	1530.75
667.8	1518.75
673.29	1482.75
678.775	1506.75
684.254	1476.75
689.726	1476.75
695.193	1470.75
700.655	1448.75
706.11	1446.75
711.56	1441.75
717.004	1415.75
722.442	1416.75
727.874	1397.75
733.301	1382.75
738.722	1374.75
744.137	1359.75
749.547	1353.75
754.951	1350.75
760.349	1344.75
765.741	1350.75
771.128	1330.75
776.509	1336.75
781.885	1344.75
787.254	1332.75
792.618	1322.75
797.977	1315.75
803.33	1286.75
808.677	1275.75
814.019	1267.75
819.355	1258.75
824.686	1225.75
830.011	1214.75
835.33	1204.75
840.644	1194.75
845.952	1189.75
851.255	1174.75
856.552	1173.75
861.844	1156.75
867.13	1140.75
872.41	1129.75
877.686	1113.75
882.955	1095.75
888.219	1065.75
893.478	1048.75
898.731	1017.75
903.979	1003.75
909.221	998.75
914.458	974.75
919.69	977.75
924.916	973.75
930.136	955.75
935.351	961.75
940.561	947.75
945.766	945.75
950.965	931.75
956.158	928.75
961.347	900.75
966.529	894.75
971.707	869.75
976.879	860.75
982.046	856.75
987.208	851.75
992.364	841.75
997.515	852.75
1002.66	837.75
1007.801	846.75
1012.936	845.75
1018.066	861.75
1023.19	851.75
1028.309	868.75
1033.423	857.75
1038.532	869.75
1043.636	849.75
1048.734	840.75
1053.827	837.75
1058.915	812.75
1063.998	813.75
1069.075	807.75
1074.147	819.75
1079.214	805.75
1084.276	816.75
1089.333	823.75
1094.385	837.75
1099.431	835.75
1104.472	823.75
1109.509	821.75
1114.54	808.75
1119.565	809.75
1124.586	784.75
1129.602	775.75
1134.613	779.75
1139.618	761.75
1144.619	769.75
1149.614	769.75
1154.604	783.75
1159.589	786.75
1164.57	780.75
1169.545	791.75
1174.515	781.75
1179.48	783.75
1184.44	780.75
1189.395	774.75
1194.345	757.75
1199.29	758.75
1204.23	766.75
1209.165	763.75
1214.095	769.75
1219.021	773.75
1223.941	782.75
1228.856	787.75
1233.766	784.75
1238.672	785.75
1243.572	774.75
1248.467	779.75
1253.358	763.75
1258.244	757.75
1263.124	750.75
1268	734.75
1272.871	713.75
1277.737	712.75
1282.599	696.75
1287.455	693.75
1292.306	708.75
1297.153	715.75
1301.995	713.75
1306.832	734.75
1311.664	726.75
1316.491	728.75
1321.314	714.75
1326.132	725.75
1330.945	693.75
1335.753	681.75
1340.556	660.75
1345.354	647.75
1350.148	646.75
1354.937	644.75
1359.722	647.75
1364.501	651.75
1369.276	659.75
1374.046	669.75
1378.811	673.75
1383.572	676.75
1388.327	668.75
1393.079	650.75
1397.825	655.75
1402.567	641.75
1407.304	642.75
1412.036	628.75
1416.764	616.75
1421.487	611.75
1426.205	617.75
1430.919	613.75
1435.628	623.75
1440.333	628.75
1445.032	627.75
1449.727	636.75
1454.418	640.75
1459.104	633.75
1463.785	643.75
1468.462	624.75
1473.134	618.75
1477.802	611.75
1482.465	613.75
1487.123	606.75
1491.777	613.75
1496.426	614.75
1501.071	628.75
1505.711	659.75
1510.347	654.75
1514.978	675.75
1519.604	681.75
1524.226	696.75
1528.844	696.75
1533.457	693.75
1538.065	701.75
1542.669	699.75
1547.269	700.75
1551.864	698.75
1556.454	704.75
1561.041	720.75
1565.622	728.75
1570.199	747.75
1574.772	761.75
1579.34	791.75
1583.904	799.75
1588.464	817.75
1593.019	816.75
1597.569	850.75
1602.115	876.75
1606.657	887.75
1611.195	899.75
1615.728	923.75
1620.256	937.75
1624.78	949.75
1629.3	993.75
1633.816	998.75
1638.327	1025.75
1642.834	1036.75
1647.336	1044.75
1651.834	1052.75
1656.328	1034.75
1660.817	1028.75
1665.302	1006.75
1669.783	965.75
1674.259	936.75
1678.732	890.75
1683.199	849.75
1687.663	803.75
1692.122	764.75
1696.577	723.75
1701.028	705.75
1705.474	682.75
1709.917	660.75
1714.355	631.75
1718.788	604.75
1723.218	576.75
1727.643	558.75
1732.064	533.75
1736.481	504.75
1740.893	478.75
1745.301	452.75
1749.705	436.75
1754.105	415.75
1758.501	395.75
1762.893	379.75
1767.28	369.75
1771.663	365.75
1776.042	357.75
1780.417	356.75
1784.787	352.75
1789.154	354.75
1793.516	357.75
1797.874	353.75
1802.228	350.75
1806.578	353.75
1810.924	351.75
1815.266	348.75
1819.603	332.75
1823.937	319.75
1828.266	318.75
1832.591	310.75
1836.913	300.75
1841.23	297.75
1845.543	297.75
1849.852	288.75
1854.156	291.75
1858.457	295.75
1862.754	290.75
1867.047	291.75
1871.335	298.75
1875.62	301.75
1879.9	302.75
1884.177	292.75
1888.449	294.75
1892.718	294.75
1896.982	292.75
1901.243	297.75
1905.499	289.75
1909.752	282.75
1914	293.75
1918.245	292.75
1922.485	293.75
1926.722	298.75
1930.954	306.75
1935.183	312.75
1939.408	311.75
1943.628	312.75
1947.845	328.75
1952.058	317.75
1956.267	314.75
1960.472	316.75
1964.673	311.75
1968.87	310.75
1973.063	293.75
1977.252	306.75
1981.438	300.75
1985.619	295.75
1989.797	298.75
1993.971	294.75
1998.14	300.75
2002.306	285.75
2006.469	302.75
2010.627	310.75
2014.781	310.75
2018.932	302.75
2023.078	317.75
2027.221	314.75
2031.36	309.75
2035.495	304.75
2039.627	302.75
2043.754	306.75
2047.878	296.75
2051.998	303.75
2056.114	307.75
2060.226	301.75
2064.334	309.75
2068.439	311.75
2072.54	323.75
2076.637	329.75
2080.73	330.75
2084.82	322.75
2088.906	340.75
2092.988	346.75
2097.066	337.75
2101.14	331.75
2105.211	341.75
2109.278	332.75
2113.342	330.75
2117.401	324.75
2121.457	325.75
2125.509	321.75
2129.558	324.75
2133.602	312.75
2137.643	313.75
2141.681	321.75
2145.714	305.75
2149.744	306.75
2153.77	310.75
2157.793	298.75
2161.812	296.75
2165.827	294.75
2169.838	290.75
2173.846	287.75
2177.851	277.75
2181.851	262.75
2185.848	266.75
2189.841	260.75
2193.831	257.75
2197.817	252.75
2201.799	252.75
2205.778	250.75
2209.753	245.75
2213.725	245.75
2217.693	246.75
2221.657	239.75
2225.618	233.75
2229.575	234.75
2233.529	227.75
2237.479	224.75
2241.425	224.75
2245.368	222.75
2249.307	217.75
2253.243	208.75
2257.175	201.75
2261.104	202.75
2265.029	196.75
2268.95	189.75
2272.868	182.75
2276.783	177.75
2280.694	177.75
2284.601	178.75
2288.505	173.75
2292.405	168.75
2296.302	171.75
2300.195	158.75
2304.085	159.75
2307.971	160.75
2311.854	154.75
2315.734	134.75
2319.609	142.75
2323.482	133.75
2327.351	136.75
2331.216	132.75
2335.078	132.75
2338.937	129.75
2342.792	121.75
2346.643	127.75
2350.492	120.75
2354.336	118.75
2358.178	123.75
2362.015	123.75
2365.85	122.75
2369.681	118.75
2373.508	120.75
2377.333	107.75
2381.153	113.75
2384.971	113.75
2388.785	117.75
2392.595	108.75
2396.402	114.75
2400.206	105.75
2404.007	96.75
2407.804	99.75
2411.597	99.75
2415.388	98.75
2419.174	100.75
2422.958	97.75
2426.738	99.75
2430.515	93.75
2434.289	100.75
2438.059	84.75
2441.825	93.75
2445.589	83.75
2449.349	87.75
2453.106	87.75
2456.859	88.75
2460.61	89.75
2464.356	80.75
2468.1	85.75
2471.84	86.75
2475.577	75.75
2479.311	82.75
2483.041	73.75
2486.768	78.75
2490.492	75.75
2494.213	77.75
2497.93	74.75
2501.644	74.75
2505.355	76.75
2509.062	76.75
2512.766	77.75
2516.467	78.75
2520.165	74.75
2523.859	74.75
2527.551	71.75
2531.239	72.75
2534.923	65.75
2538.605	73.75
2542.283	69.75
2545.958	65.75
2549.63	70.75
2553.299	60.75
2556.964	62.75
2560.626	56.75
2564.285	61.75
2567.941	55.75
2571.594	58.75
2575.243	58.75
2578.89	56.75
2582.533	61.75
2586.173	58.75
2589.809	54.75
2593.443	58.75
2597.073	55.75
2600.701	51.75
2604.325	57.75
2607.946	50.75
2611.564	46.75
2615.178	48.75
2618.79	51.75
2622.398	50.75
2626.004	54.75
2629.606	38.75
2633.205	39.75
2636.801	46.75
2640.394	43.75
2643.983	39.75
2647.57	47.75
2651.153	40.75
2654.734	37.75
2658.311	36.75
2661.885	42.75
2665.456	39.75
2669.025	36.75
2672.589	32.75
2676.151	33.75
2679.71	28.75
2683.266	34.75
2686.819	30.75
2690.368	31.75
2693.915	32.75
2697.458	31.75
2700.999	31.75
2704.536	27.75
2708.071	25.75
2711.602	23.75
2715.13	18.75
2718.656	30.75
2722.178	22.75
2725.697	25.75
2729.214	21.75
2732.727	28.75
2736.237	31.75
2739.744	36.75
2743.249	34.75
2746.75	41.75
2750.248	41.75
2753.743	34.75
2757.236	37.75
2760.725	38.75
2764.211	39.75
2767.695	39.75
2771.175	48.75
2774.652	44.75
2778.127	51.75
2781.598	53.75
2785.067	43.75
2788.532	40.75
2791.995	44.75
2795.455	44.75
2798.911	51.75
2802.365	58.75
2805.816	50.75
2809.264	57.75
2812.709	65.75
2816.151	58.75
2819.59	58.75
2823.026	64.75
2826.46	64.75
2829.89	69.75
2833.318	64.75
2836.742	73.75
2840.164	69.75
2843.583	76.75
2846.999	85.75
2850.412	76.75
2853.822	88.75
2857.229	90.75
2860.634	93.75
2864.035	97.75
2867.434	96.75
2870.83	98.75
2874.223	102.75
2877.613	119.75
2881	114.75
2884.385	122.75
2887.766	118.75
2891.145	118.75
2894.521	119.75
2897.894	124.75
2901.264	122.75
2904.631	131.75
2907.996	133.75
2911.358	141.75
2914.717	140.75
2918.073	147.75
2921.426	157.75
2924.777	168.75
2928.124	167.75
2931.469	174.75
2934.811	177.75
2938.15	186.75
2941.487	197.75
2944.821	197.75
2948.152	211.75
2951.48	213.75
2954.805	215.75
2958.128	227.75
2961.447	227.75
2964.765	235.75
2968.079	249.75
2971.39	261.75
2974.699	274.75
2978.005	278.75
2981.308	290.75
2984.609	305.75
2987.907	314.75
2991.202	332.75
2994.494	341.75
2997.784	360.75
3001.07	361.75
3004.355	388.75
3007.636	406.75
3010.915	416.75
3014.191	427.75
3017.464	439.75
3020.734	445.75
3024.002	458.75
3027.267	465.75
3030.53	486.75
3033.789	502.75
3037.046	509.75
3040.301	529.75
3043.552	543.75
3046.801	550.75
3050.048	573.75
3053.291	592.75
3056.532	608.75
3059.771	629.75
3063.006	649.75
3066.239	673.75
3069.469	702.75
3072.697	719.75
3075.922	746.75
3079.144	754.75
3082.364	793.75
3085.581	815.75
3088.795	839.75
3092.007	860.75
3095.216	880.75
3098.423	901.75
3101.627	930.75
3104.828	944.75
3108.026	955.75
3111.222	1000.75
3114.416	1024.75
3117.607	1037.75
3120.795	1064.75
3123.98	1105.75
3127.163	1133.75
3130.344	1144.75
3133.521	1184.75
3136.696	1229.75
3139.869	1234.75
3143.039	1258.75
3146.206	1296.75
3149.371	1298.75
3152.533	1316.75
3155.693	1328.75
3158.85	1336.75
3162.005	1344.75
3165.157	1353.75
3168.306	1369.75
3171.453	1358.75
3174.597	1362.75
3177.739	1372.75
3180.878	1378.75
3184.014	1387.75
3187.149	1387.75
3190.28	1407.75
3193.409	1387.75
3196.536	1388.75
3199.659	1400.75
3202.781	1415.75
3205.9	1410.75
3209.016	1401.75
3212.13	1394.75
3215.241	1406.75
3218.35	1390.75
3221.456	1375.75
3224.56	1373.75
3227.661	1359.75
3230.76	1343.75
3233.856	1340.75
3236.95	1328.75
3240.041	1334.75
3243.13	1312.75
3246.216	1321.75
3249.3	1290.75
3252.382	1301.75
3255.46	1288.75
3258.537	1299.75
3261.611	1277.75
3264.682	1275.75
3267.751	1268.75
3270.818	1254.75
3273.882	1256.75
3276.943	1242.75
3280.002	1242.75
3283.059	1230.75
3286.113	1219.75
3289.165	1198.75
3292.214	1174.75
3295.261	1154.75
3298.306	1145.75
3301.348	1115.75
3304.387	1111.75
3307.425	1100.75
3310.459	1078.75
3313.492	1070.75
3316.521	1051.75
3319.549	1048.75
3322.574	1033.75
3325.597	999.75
3328.617	1007.75
3331.635	1008.75
3334.65	994.75
3337.663	1002.75
3340.674	980.75
3343.682	971.75
3346.688	977.75
3349.691	973.75
3352.692	966.75
3355.691	968.75
3358.687	952.75
3361.681	947.75
3364.673	936.75
3367.662	908.75
3370.649	915.75
3373.633	896.75
3376.615	880.75
3379.595	879.75
3382.572	871.75
3385.547	865.75
3388.52	845.75
3391.49	832.75
3394.458	828.75
3397.424	803.75
3400.387	789.75
3403.348	785.75
3406.307	783.75
3409.263	764.75
3412.217	764.75
3415.168	762.75
3418.118	749.75
3421.065	748.75
3424.009	740.75
3426.951	721.75
3429.891	707.75
3432.829	704.75
3435.764	689.75
3438.697	670.75
3441.628	649.75
3444.557	644.75
3447.483	608.75
3450.407	610.75
3453.328	592.75
3456.247	583.75
3459.164	554.75
3462.079	539.75
3464.991	527.75
3467.902	511.75
3470.809	504.75
3473.715	491.75
3476.618	466.75
3479.519	457.75
3482.418	449.75
3485.315	432.75
3488.209	412.75
3491.101	409.75
3493.99	395.75
3496.878	385.75
3499.763	377.75
3502.646	372.75
3505.527	357.75
3508.405	333.75
3511.281	324.75
3514.155	310.75
3517.027	304.75
3519.897	293.75
3522.764	274.75
3525.629	261.75
3528.492	249.75
3531.352	231.75
3534.211	222.75
3537.067	204.75
3539.921	193.75
3542.773	184.75
3545.622	170.75
3548.469	172.75
3551.315	155.75
3554.157	147.75
3556.998	142.75
3559.837	132.75
3562.673	122.75
3565.507	115.75
3568.339	112.75
3571.169	104.75
3573.996	96.75
3576.822	87.75
3579.645	80.75
3582.466	72.75
3585.285	72.75
3588.101	54.75
3590.916	58.75
3593.728	49.75
3596.538	47.75
3599.346	31.75
3602.152	32.75
3604.956	29.75
3607.757	22.75
3610.556	17.75
3613.354	17.75
3616.149	15.75
3618.942	8.75
3621.732	6.75
3624.521	-6.25
3627.307	-12.25
3630.092	-8.25
3632.874	-14.25
3635.654	-20.25
3638.432	-28.25
3641.208	-22.25
3643.982	-27.25
3646.753	-33.25
3649.523	-28.25
3652.29	-37.25
3655.055	-40.25
3657.818	-48.25
3660.579	-43.25
3663.338	-47.25
3666.095	-49.25
3668.849	-57.25
3671.602	-59.25
3674.352	-64.25
3677.101	-65.25
3679.847	-65.25
3682.591	-67.25
3685.333	-72.25
3688.073	-73.25
3690.811	-79.25
3693.547	-74.25
3696.281	-76.25
3699.013	-78.25
3701.742	-76.25
3704.47	-79.25
3707.195	-84.25
3709.919	-81.25
3712.64	-83.25
3715.359	-85.25
3718.076	-93.25
3720.792	-92.25
3723.505	-91.25
3726.216	-86.25
3728.925	-88.25
3731.632	-92.25
3734.336	-94.25
3737.039	-91.25
3739.74	-93.25
3742.439	-98.25
3745.136	-95.25
3747.83	-98.25
3750.523	-97.25
3753.213	-99.25
3755.902	-103.25
3758.589	-103.25
3761.273	-100.25
3763.956	-103.25
3766.636	-105.25
3769.315	-100.25
3771.991	-104.25
3774.665	-105.25
3777.338	-105.25
3780.008	-105.25
3782.677	-101.25
3785.343	-106.25
3788.007	-105.25
3790.67	-106.25
3793.33	-107.25
3795.989	-107.25
3798.645	-106.25
3801.299	-109.25
3803.952	-112.25
3806.602	-111.25
3809.251	-110.25
3811.897	-110.25
3814.542	-111.25
3817.184	-108.25
3819.825	-106.25
3822.463	-105.25
3825.1	-107.25
3827.735	-110.25
3830.367	-107.25
3832.998	-111.25
3835.627	-113.25
3838.253	-109.25
3840.878	-114.25
3843.501	-112.25
3846.122	-115.25
3848.741	-110.25
3851.358	-112.25
3853.973	-111.25
3856.586	-112.25
3859.197	-111.25
3861.806	-114.25
3864.414	-114.25
3867.019	-109.25
3869.622	-109.25
3872.224	-112.25
3874.823	-108.25
3877.421	-106.25
3880.016	-104.25
3882.61	-103.25
3885.202	-104.25
3887.792	-104.25
3890.38	-110.25
3892.966	-113.25
3895.55	-112.25
3898.132	-110.25
3900.713	-111.25
3903.291	-106.25
3905.868	-106.25
3908.442	-109.25
3911.015	-112.25
3913.586	-113.25
3916.155	-115.25
3918.722	-114.25
3921.287	-115.25
3923.85	-116.25
3926.411	-116.25
3928.971	-117.25
3931.528	-113.25
3934.084	-114.25
3936.638	-112.25
3939.19	-114.25
3941.74	-112.25
3944.288	-116.25
3946.834	-113.25
3949.378	-115.25
3951.921	-114.25
3954.462	-117.25
3957	-113.25
3959.537	-112.25
3962.072	-118.25
3964.606	-115.25
3967.137	-116.25
3969.667	-112.25
3972.194	-115.25
3974.72	-112.25
3977.244	-114.25
3979.766	-114.25
3982.286	-112.25
3984.805	-112.25
3987.321	-110.25
3989.836	-114.25
3992.349	-114.25
3994.86	-115.25
3997.369	-114.25
3999.877	-115.25
4002.382	-109.25
4004.886	-110.25
4007.388	-112.25
4009.888	-116.25
4012.386	-111.25
4014.883	-112.25
4017.377	-113.25
4019.87	-115.25
4022.361	-112.25
4024.85	-117.25
4027.338	-113.25
4029.823	-117.25
4032.307	-111.25
4034.789	-115.25
4037.269	-111.25
4039.747	-111.25
4042.224	-115.25
4044.699	-116.25
4047.172	-113.25
4049.643	-117.25
4052.112	-115.25
4054.58	-116.25
4057.046	-114.25
4059.51	-114.25
4061.972	-108.25
4064.432	-111.25
4066.891	-111.25
4069.348	-112.25
4071.803	-117.25
4074.256	-115.25
4076.708	-114.25
4079.158	-118.25
4081.606	-116.25
4084.052	-118.25
4086.497	-115.25
4088.939	-112.25
4091.38	-116.25
4093.819	-115.25
4096.257	-114.25
4098.693	-117.25
4101.127	-115.25
4103.559	-112.25
4105.989	-72.25
4108.418	-68.25
4110.845	-67.25
4113.27	-64.25
4115.694	-56.25
4118.115	-50.25
4120.535	-114.25
4122.954	-110.25
4125.37	-113.25
4127.785	-115.25
4130.198	-117.25
4132.609	-115.25
4135.019	-113.25
4137.427	-121.25
4139.833	-117.25
4142.237	-115.25
