Data from Bsub_water_DIL105_A_3_RamanShift_1.txt Node
Date: Wed Feb 22 12:55:31 IST 2017
User: aro
Spectrometer: QEPB0276
Trigger mode: 0
Integration Time (sec): 5.000000E0
Scans to average: 1
Electric dark correction enabled: true
Nonlinearity correction enabled: false
Boxcar width: 0
XAxis mode: Raman Shifts
Number of Pixels in Spectrum: 1044
>>>>>Begin Spectral Data<<<<<
160.701	-28.38
166.742	0.62
172.777	92.62
178.805	366.62
184.826	1029.62
190.841	2144.62
196.849	3404.62
202.85	4231.62
208.845	4427.62
214.833	4302.62
220.815	4119.62
226.789	3984.62
232.758	3902.62
238.719	3750.62
244.674	3612.62
250.623	3457.62
256.565	3300.62
262.5	3141.62
268.429	2974.62
274.351	2882.62
280.267	2740.62
286.176	2661.62
292.079	2552.62
297.975	2463.62
303.865	2381.62
309.748	2322.62
315.625	2258.62
321.495	2202.62
327.359	2169.62
333.217	2163.62
339.068	2159.62
344.912	2124.62
350.751	2143.62
356.583	2129.62
362.408	2111.62
368.227	2119.62
374.04	2139.62
379.847	2122.62
385.647	2150.62
391.44	2139.62
397.228	2168.62
403.009	2180.62
408.784	2191.62
414.553	2192.62
420.315	2203.62
426.071	2207.62
431.821	2196.62
437.565	2201.62
443.302	2194.62
449.033	2187.62
454.758	2193.62
460.477	2170.62
466.189	2170.62
471.896	2153.62
477.596	2124.62
483.29	2118.62
488.978	2116.62
494.66	2105.62
500.335	2070.62
506.005	2036.62
511.668	2006.62
517.325	1971.62
522.977	1944.62
528.622	1912.62
534.261	1871.62
539.894	1865.62
545.521	1854.62
551.141	1847.62
556.756	1827.62
562.365	1820.62
567.968	1807.62
573.565	1786.62
579.155	1791.62
584.74	1756.62
590.319	1735.62
595.892	1766.62
601.459	1742.62
607.02	1728.62
612.575	1697.62
618.124	1681.62
623.667	1661.62
629.204	1628.62
634.735	1630.62
640.261	1618.62
645.781	1614.62
651.294	1591.62
656.802	1595.62
662.304	1589.62
667.8	1578.62
673.29	1580.62
678.775	1569.62
684.254	1557.62
689.726	1539.62
695.193	1534.62
700.655	1542.62
706.11	1529.62
711.56	1485.62
717.004	1492.62
722.442	1478.62
727.874	1460.62
733.301	1466.62
738.722	1453.62
744.137	1454.62
749.547	1445.62
754.951	1429.62
760.349	1439.62
765.741	1440.62
771.128	1441.62
776.509	1450.62
781.885	1436.62
787.254	1435.62
792.618	1422.62
797.977	1411.62
803.33	1403.62
808.677	1388.62
814.019	1368.62
819.355	1332.62
824.686	1342.62
830.011	1331.62
835.33	1331.62
840.644	1319.62
845.952	1322.62
851.255	1294.62
856.552	1323.62
861.844	1278.62
867.13	1287.62
872.41	1272.62
877.686	1255.62
882.955	1242.62
888.219	1228.62
893.478	1199.62
898.731	1170.62
903.979	1158.62
909.221	1142.62
914.458	1121.62
919.69	1129.62
924.916	1112.62
930.136	1139.62
935.351	1115.62
940.561	1108.62
945.766	1117.62
950.965	1093.62
956.158	1091.62
961.347	1082.62
966.529	1064.62
971.707	1039.62
976.879	1036.62
982.046	1012.62
987.208	1023.62
992.364	1010.62
997.515	1013.62
1002.66	1012.62
1007.801	1026.62
1012.936	1036.62
1018.066	1047.62
1023.19	1052.62
1028.309	1054.62
1033.423	1053.62
1038.532	1056.62
1043.636	1031.62
1048.734	1020.62
1053.827	1008.62
1058.915	1010.62
1063.998	1013.62
1069.075	1002.62
1074.147	993.62
1079.214	1012.62
1084.276	997.62
1089.333	1007.62
1094.385	1024.62
1099.431	1015.62
1104.472	1024.62
1109.509	1017.62
1114.54	995.62
1119.565	998.62
1124.586	969.62
1129.602	971.62
1134.613	975.62
1139.618	960.62
1144.619	958.62
1149.614	978.62
1154.604	963.62
1159.589	994.62
1164.57	968.62
1169.545	987.62
1174.515	969.62
1179.48	966.62
1184.44	971.62
1189.395	966.62
1194.345	952.62
1199.29	957.62
1204.23	963.62
1209.165	967.62
1214.095	975.62
1219.021	970.62
1223.941	967.62
1228.856	989.62
1233.766	984.62
1238.672	979.62
1243.572	986.62
1248.467	960.62
1253.358	973.62
1258.244	947.62
1263.124	950.62
1268	925.62
1272.871	913.62
1277.737	896.62
1282.599	906.62
1287.455	904.62
1292.306	930.62
1297.153	918.62
1301.995	935.62
1306.832	928.62
1311.664	932.62
1316.491	921.62
1321.314	915.62
1326.132	916.62
1330.945	901.62
1335.753	867.62
1340.556	862.62
1345.354	854.62
1350.148	846.62
1354.937	831.62
1359.722	829.62
1364.501	837.62
1369.276	850.62
1374.046	871.62
1378.811	875.62
1383.572	876.62
1388.327	875.62
1393.079	874.62
1397.825	854.62
1402.567	834.62
1407.304	823.62
1412.036	819.62
1416.764	798.62
1421.487	802.62
1426.205	799.62
1430.919	804.62
1435.628	813.62
1440.333	808.62
1445.032	825.62
1449.727	832.62
1454.418	829.62
1459.104	848.62
1463.785	826.62
1468.462	829.62
1473.134	808.62
1477.802	793.62
1482.465	807.62
1487.123	791.62
1491.777	809.62
1496.426	812.62
1501.071	822.62
1505.711	831.62
1510.347	851.62
1514.978	871.62
1519.604	868.62
1524.226	873.62
1528.844	878.62
1533.457	892.62
1538.065	887.62
1542.669	889.62
1547.269	892.62
1551.864	892.62
1556.454	898.62
1561.041	906.62
1565.622	909.62
1570.199	937.62
1574.772	932.62
1579.34	967.62
1583.904	978.62
1588.464	984.62
1593.019	994.62
1597.569	1021.62
1602.115	1037.62
1606.657	1030.62
1611.195	1059.62
1615.728	1061.62
1620.256	1086.62
1624.78	1095.62
1629.3	1127.62
1633.816	1132.62
1638.327	1142.62
1642.834	1168.62
1647.336	1165.62
1651.834	1172.62
1656.328	1181.62
1660.817	1164.62
1665.302	1126.62
1669.783	1117.62
1674.259	1091.62
1678.732	1056.62
1683.199	989.62
1687.663	951.62
1692.122	906.62
1696.577	870.62
1701.028	869.62
1705.474	844.62
1709.917	839.62
1714.355	803.62
1718.788	778.62
1723.218	744.62
1727.643	725.62
1732.064	717.62
1736.481	687.62
1740.893	658.62
1745.301	630.62
1749.705	621.62
1754.105	595.62
1758.501	580.62
1762.893	561.62
1767.28	560.62
1771.663	543.62
1776.042	543.62
1780.417	533.62
1784.787	534.62
1789.154	544.62
1793.516	543.62
1797.874	554.62
1802.228	545.62
1806.578	546.62
1810.924	546.62
1815.266	534.62
1819.603	531.62
1823.937	512.62
1828.266	510.62
1832.591	508.62
1836.913	499.62
1841.23	484.62
1845.543	477.62
1849.852	483.62
1854.156	478.62
1858.457	480.62
1862.754	478.62
1867.047	474.62
1871.335	485.62
1875.62	490.62
1879.9	491.62
1884.177	482.62
1888.449	480.62
1892.718	478.62
1896.982	480.62
1901.243	476.62
1905.499	465.62
1909.752	478.62
1914	466.62
1918.245	480.62
1922.485	488.62
1926.722	484.62
1930.954	495.62
1935.183	484.62
1939.408	498.62
1943.628	503.62
1947.845	497.62
1952.058	511.62
1956.267	507.62
1960.472	484.62
1964.673	491.62
1968.87	495.62
1973.063	485.62
1977.252	471.62
1981.438	478.62
1985.619	476.62
1989.797	475.62
1993.971	483.62
1998.14	464.62
2002.306	469.62
2006.469	466.62
2010.627	479.62
2014.781	480.62
2018.932	479.62
2023.078	484.62
2027.221	474.62
2031.36	476.62
2035.495	478.62
2039.627	463.62
2043.754	461.62
2047.878	463.62
2051.998	453.62
2056.114	465.62
2060.226	464.62
2064.334	466.62
2068.439	468.62
2072.54	470.62
2076.637	485.62
2080.73	482.62
2084.82	480.62
2088.906	494.62
2092.988	486.62
2097.066	482.62
2101.14	482.62
2105.211	475.62
2109.278	472.62
2113.342	481.62
2117.401	476.62
2121.457	479.62
2125.509	474.62
2129.558	468.62
2133.602	462.62
2137.643	463.62
2141.681	463.62
2145.714	462.62
2149.744	459.62
2153.77	451.62
2157.793	457.62
2161.812	441.62
2165.827	435.62
2169.838	429.62
2173.846	421.62
2177.851	406.62
2181.851	401.62
2185.848	396.62
2189.841	406.62
2193.831	391.62
2197.817	386.62
2201.799	391.62
2205.778	380.62
2209.753	392.62
2213.725	381.62
2217.693	376.62
2221.657	374.62
2225.618	370.62
2229.575	374.62
2233.529	365.62
2237.479	359.62
2241.425	357.62
2245.368	358.62
2249.307	346.62
2253.243	342.62
2257.175	337.62
2261.104	337.62
2265.029	326.62
2268.95	320.62
2272.868	321.62
2276.783	320.62
2280.694	312.62
2284.601	303.62
2288.505	297.62
2292.405	302.62
2296.302	297.62
2300.195	294.62
2304.085	275.62
2307.971	273.62
2311.854	271.62
2315.734	257.62
2319.609	261.62
2323.482	260.62
2327.351	258.62
2331.216	252.62
2335.078	260.62
2338.937	246.62
2342.792	243.62
2346.643	243.62
2350.492	244.62
2354.336	244.62
2358.178	241.62
2362.015	229.62
2365.85	232.62
2369.681	242.62
2373.508	234.62
2377.333	238.62
2381.153	231.62
2384.971	228.62
2388.785	230.62
2392.595	228.62
2396.402	227.62
2400.206	215.62
2404.007	221.62
2407.804	218.62
2411.597	212.62
2415.388	217.62
2419.174	218.62
2422.958	214.62
2426.738	206.62
2430.515	211.62
2434.289	208.62
2438.059	207.62
2441.825	198.62
2445.589	199.62
2449.349	202.62
2453.106	194.62
2456.859	202.62
2460.61	199.62
2464.356	200.62
2468.1	196.62
2471.84	183.62
2475.577	179.62
2479.311	182.62
2483.041	188.62
2486.768	179.62
2490.492	186.62
2494.213	181.62
2497.93	179.62
2501.644	177.62
2505.355	181.62
2509.062	184.62
2512.766	188.62
2516.467	180.62
2520.165	181.62
2523.859	180.62
2527.551	181.62
2531.239	174.62
2534.923	171.62
2538.605	174.62
2542.283	172.62
2545.958	169.62
2549.63	169.62
2553.299	172.62
2556.964	164.62
2560.626	159.62
2564.285	164.62
2567.941	167.62
2571.594	170.62
2575.243	160.62
2578.89	165.62
2582.533	164.62
2586.173	158.62
2589.809	157.62
2593.443	155.62
2597.073	151.62
2600.701	148.62
2604.325	152.62
2607.946	143.62
2611.564	149.62
2615.178	149.62
2618.79	149.62
2622.398	155.62
2626.004	148.62
2629.606	148.62
2633.205	145.62
2636.801	144.62
2640.394	138.62
2643.983	139.62
2647.57	124.62
2651.153	124.62
2654.734	125.62
2658.311	131.62
2661.885	128.62
2665.456	122.62
2669.025	124.62
2672.589	124.62
2676.151	130.62
2679.71	120.62
2683.266	122.62
2686.819	117.62
2690.368	118.62
2693.915	118.62
2697.458	110.62
2700.999	115.62
2704.536	107.62
2708.071	103.62
2711.602	102.62
2715.13	100.62
2718.656	104.62
2722.178	107.62
2725.697	105.62
2729.214	104.62
2732.727	106.62
2736.237	105.62
2739.744	115.62
2743.249	113.62
2746.75	116.62
2750.248	107.62
2753.743	115.62
2757.236	110.62
2760.725	116.62
2764.211	116.62
2767.695	116.62
2771.175	121.62
2774.652	120.62
2778.127	123.62
2781.598	121.62
2785.067	116.62
2788.532	116.62
2791.995	111.62
2795.455	121.62
2798.911	120.62
2802.365	124.62
2805.816	121.62
2809.264	120.62
2812.709	122.62
2816.151	118.62
2819.59	123.62
2823.026	126.62
2826.46	124.62
2829.89	128.62
2833.318	131.62
2836.742	126.62
2840.164	130.62
2843.583	130.62
2846.999	141.62
2850.412	134.62
2853.822	140.62
2857.229	138.62
2860.634	143.62
2864.035	145.62
2867.434	148.62
2870.83	150.62
2874.223	157.62
2877.613	162.62
2881	170.62
2884.385	164.62
2887.766	169.62
2891.145	166.62
2894.521	164.62
2897.894	167.62
2901.264	171.62
2904.631	173.62
2907.996	176.62
2911.358	177.62
2914.717	191.62
2918.073	188.62
2921.426	188.62
2924.777	197.62
2928.124	197.62
2931.469	205.62
2934.811	208.62
2938.15	219.62
2941.487	220.62
2944.821	227.62
2948.152	230.62
2951.48	238.62
2954.805	240.62
2958.128	249.62
2961.447	254.62
2964.765	261.62
2968.079	273.62
2971.39	278.62
2974.699	285.62
2978.005	298.62
2981.308	303.62
2984.609	308.62
2987.907	319.62
2991.202	338.62
2994.494	345.62
2997.784	358.62
3001.07	368.62
3004.355	387.62
3007.636	385.62
3010.915	401.62
3014.191	418.62
3017.464	425.62
3020.734	436.62
3024.002	447.62
3027.267	446.62
3030.53	453.62
3033.789	468.62
3037.046	474.62
3040.301	484.62
3043.552	514.62
3046.801	511.62
3050.048	526.62
3053.291	543.62
3056.532	567.62
3059.771	579.62
3063.006	593.62
3066.239	610.62
3069.469	634.62
3072.697	655.62
3075.922	674.62
3079.144	696.62
3082.364	722.62
3085.581	715.62
3088.795	754.62
3092.007	747.62
3095.216	775.62
3098.423	797.62
3101.627	814.62
3104.828	846.62
3108.026	866.62
3111.222	876.62
3114.416	894.62
3117.607	933.62
3120.795	950.62
3123.98	968.62
3127.163	1008.62
3130.344	1019.62
3133.521	1045.62
3136.696	1063.62
3139.869	1088.62
3143.039	1115.62
3146.206	1127.62
3149.371	1136.62
3152.533	1145.62
3155.693	1161.62
3158.85	1166.62
3162.005	1183.62
3165.157	1187.62
3168.306	1194.62
3171.453	1185.62
3174.597	1195.62
3177.739	1205.62
3180.878	1212.62
3184.014	1207.62
3187.149	1216.62
3190.28	1221.62
3193.409	1214.62
3196.536	1232.62
3199.659	1236.62
3202.781	1238.62
3205.9	1257.62
3209.016	1247.62
3212.13	1226.62
3215.241	1229.62
3218.35	1230.62
3221.456	1212.62
3224.56	1213.62
3227.661	1196.62
3230.76	1193.62
3233.856	1196.62
3236.95	1168.62
3240.041	1176.62
3243.13	1172.62
3246.216	1167.62
3249.3	1145.62
3252.382	1143.62
3255.46	1144.62
3258.537	1135.62
3261.611	1135.62
3264.682	1137.62
3267.751	1136.62
3270.818	1132.62
3273.882	1141.62
3276.943	1123.62
3280.002	1105.62
3283.059	1097.62
3286.113	1077.62
3289.165	1057.62
3292.214	1051.62
3295.261	1037.62
3298.306	1010.62
3301.348	1008.62
3304.387	982.62
3307.425	963.62
3310.459	953.62
3313.492	933.62
3316.521	931.62
3319.549	919.62
3322.574	906.62
3325.597	890.62
3328.617	897.62
3331.635	891.62
3334.65	891.62
3337.663	877.62
3340.674	874.62
3343.682	883.62
3346.688	869.62
3349.691	856.62
3352.692	850.62
3355.691	860.62
3358.687	840.62
3361.681	836.62
3364.673	822.62
3367.662	816.62
3370.649	798.62
3373.633	794.62
3376.615	788.62
3379.595	781.62
3382.572	756.62
3385.547	753.62
3388.52	754.62
3391.49	727.62
3394.458	712.62
3397.424	712.62
3400.387	699.62
3403.348	696.62
3406.307	684.62
3409.263	682.62
3412.217	672.62
3415.168	667.62
3418.118	671.62
3421.065	666.62
3424.009	658.62
3426.951	647.62
3429.891	636.62
3432.829	617.62
3435.764	622.62
3438.697	590.62
3441.628	579.62
3444.557	572.62
3447.483	543.62
3450.407	533.62
3453.328	522.62
3456.247	507.62
3459.164	496.62
3462.079	482.62
3464.991	471.62
3467.902	452.62
3470.809	437.62
3473.715	427.62
3476.618	417.62
3479.519	414.62
3482.418	393.62
3485.315	395.62
3488.209	381.62
3491.101	366.62
3493.99	361.62
3496.878	346.62
3499.763	327.62
3502.646	327.62
3505.527	315.62
3508.405	307.62
3511.281	290.62
3514.155	285.62
3517.027	280.62
3519.897	262.62
3522.764	249.62
3525.629	235.62
3528.492	224.62
3531.352	209.62
3534.211	203.62
3537.067	192.62
3539.921	176.62
3542.773	171.62
3545.622	154.62
3548.469	150.62
3551.315	140.62
3554.157	133.62
3556.998	132.62
3559.837	114.62
3562.673	108.62
3565.507	112.62
3568.339	100.62
3571.169	92.62
3573.996	88.62
3576.822	79.62
3579.645	76.62
3582.466	70.62
3585.285	66.62
3588.101	60.62
3590.916	51.62
3593.728	46.62
3596.538	38.62
3599.346	34.62
3602.152	34.62
3604.956	27.62
3607.757	14.62
3610.556	16.62
3613.354	14.62
3616.149	10.62
3618.942	7.62
3621.732	2.62
3624.521	-1.38
3627.307	-8.38
3630.092	-9.38
3632.874	-15.38
3635.654	-19.38
3638.432	-20.38
3641.208	-22.38
3643.982	-25.38
3646.753	-25.38
3649.523	-27.38
3652.29	-29.38
3655.055	-35.38
3657.818	-41.38
3660.579	-40.38
3663.338	-46.38
3666.095	-48.38
3668.849	-51.38
3671.602	-52.38
3674.352	-59.38
3677.101	-60.38
3679.847	-60.38
3682.591	-61.38
3685.333	-64.38
3688.073	-67.38
3690.811	-65.38
3693.547	-68.38
3696.281	-72.38
3699.013	-71.38
3701.742	-68.38
3704.47	-73.38
3707.195	-77.38
3709.919	-73.38
3712.64	-78.38
3715.359	-80.38
3718.076	-85.38
3720.792	-86.38
3723.505	-85.38
3726.216	-82.38
3728.925	-82.38
3731.632	-85.38
3734.336	-86.38
3737.039	-84.38
3739.74	-85.38
3742.439	-87.38
3745.136	-90.38
3747.83	-91.38
3750.523	-90.38
3753.213	-92.38
3755.902	-94.38
3758.589	-94.38
3761.273	-93.38
3763.956	-95.38
3766.636	-94.38
3769.315	-90.38
3771.991	-94.38
3774.665	-93.38
3777.338	-96.38
3780.008	-96.38
3782.677	-96.38
3785.343	-98.38
3788.007	-96.38
3790.67	-96.38
3793.33	-100.38
3795.989	-99.38
3798.645	-99.38
3801.299	-101.38
3803.952	-103.38
3806.602	-102.38
3809.251	-102.38
3811.897	-104.38
3814.542	-102.38
3817.184	-98.38
3819.825	-95.38
3822.463	-99.38
3825.1	-96.38
3827.735	-101.38
3830.367	-100.38
3832.998	-104.38
3835.627	-104.38
3838.253	-102.38
3840.878	-105.38
3843.501	-105.38
3846.122	-104.38
3848.741	-103.38
3851.358	-103.38
3853.973	-100.38
3856.586	-103.38
3859.197	-102.38
3861.806	-104.38
3864.414	-106.38
3867.019	-102.38
3869.622	-103.38
3872.224	-106.38
3874.823	-102.38
3877.421	-97.38
3880.016	-99.38
3882.61	-95.38
3885.202	-96.38
3887.792	-97.38
3890.38	-103.38
3892.966	-103.38
3895.55	-100.38
3898.132	-100.38
3900.713	-105.38
3903.291	-101.38
3905.868	-102.38
3908.442	-102.38
3911.015	-107.38
3913.586	-105.38
3916.155	-109.38
3918.722	-108.38
3921.287	-108.38
3923.85	-106.38
3926.411	-108.38
3928.971	-106.38
3931.528	-104.38
3934.084	-101.38
3936.638	-103.38
3939.19	-103.38
3941.74	-107.38
3944.288	-109.38
3946.834	-105.38
3949.378	-109.38
3951.921	-107.38
3954.462	-107.38
3957	-108.38
3959.537	-102.38
3962.072	-108.38
3964.606	-107.38
3967.137	-103.38
3969.667	-103.38
3972.194	-105.38
3974.72	-104.38
3977.244	-103.38
3979.766	-100.38
3982.286	-103.38
3984.805	-105.38
3987.321	-104.38
3989.836	-105.38
3992.349	-107.38
3994.86	-108.38
3997.369	-109.38
3999.877	-108.38
4002.382	-102.38
4004.886	-102.38
4007.388	-104.38
4009.888	-103.38
4012.386	-101.38
4014.883	-102.38
4017.377	-101.38
4019.87	-109.38
4022.361	-106.38
4024.85	-108.38
4027.338	-107.38
4029.823	-108.38
4032.307	-108.38
4034.789	-107.38
4037.269	-102.38
4039.747	-101.38
4042.224	-104.38
4044.699	-109.38
4047.172	-106.38
4049.643	-109.38
4052.112	-111.38
4054.58	-106.38
4057.046	-106.38
4059.51	-108.38
4061.972	-105.38
4064.432	-105.38
4066.891	-107.38
4069.348	-107.38
4071.803	-107.38
4074.256	-108.38
4076.708	-108.38
4079.158	-105.38
4081.606	-108.38
4084.052	-105.38
4086.497	-103.38
4088.939	-102.38
4091.38	-103.38
4093.819	-109.38
4096.257	-109.38
4098.693	-108.38
4101.127	-107.38
4103.559	-108.38
4105.989	-70.38
4108.418	-69.38
4110.845	-68.38
4113.27	-61.38
4115.694	-52.38
4118.115	-41.38
4120.535	-106.38
4122.954	-105.38
4125.37	-108.38
4127.785	-109.38
4130.198	-109.38
4132.609	-107.38
4135.019	-108.38
4137.427	-108.38
4139.833	-109.38
4142.237	-105.38
