Data from Bsub_water_DIL103_B_3_RamanShift_1.txt Node
Date: Wed Feb 22 13:28:31 IST 2017
User: aro
Spectrometer: QEPB0276
Trigger mode: 0
Integration Time (sec): 5.000000E0
Scans to average: 1
Electric dark correction enabled: true
Nonlinearity correction enabled: false
Boxcar width: 0
XAxis mode: Raman Shifts
Number of Pixels in Spectrum: 1044
>>>>>Begin Spectral Data<<<<<
160.701	-17.5
166.742	5.5
172.777	70.5
178.805	277.5
184.826	752.5
190.841	1522.5
196.849	2380.5
202.85	2951.5
208.845	3102.5
214.833	3015.5
220.815	2929.5
226.789	2815.5
232.758	2742.5
238.719	2668.5
244.674	2562.5
250.623	2473.5
256.565	2368.5
262.5	2265.5
268.429	2153.5
274.351	2098.5
280.267	2019.5
286.176	1953.5
292.079	1893.5
297.975	1833.5
303.865	1779.5
309.748	1754.5
315.625	1709.5
321.495	1673.5
327.359	1645.5
333.217	1628.5
339.068	1633.5
344.912	1614.5
350.751	1626.5
356.583	1612.5
362.408	1625.5
368.227	1629.5
374.04	1642.5
379.847	1629.5
385.647	1649.5
391.44	1660.5
397.228	1673.5
403.009	1667.5
408.784	1686.5
414.553	1692.5
420.315	1692.5
426.071	1692.5
431.821	1689.5
437.565	1691.5
443.302	1690.5
449.033	1668.5
454.758	1678.5
460.477	1690.5
466.189	1675.5
471.896	1668.5
477.596	1654.5
483.29	1632.5
488.978	1630.5
494.66	1613.5
500.335	1603.5
506.005	1564.5
511.668	1529.5
517.325	1481.5
522.977	1463.5
528.622	1435.5
534.261	1413.5
539.894	1391.5
545.521	1398.5
551.141	1381.5
556.756	1378.5
562.365	1375.5
567.968	1356.5
573.565	1331.5
579.155	1338.5
584.74	1323.5
590.319	1327.5
595.892	1310.5
601.459	1316.5
607.02	1287.5
612.575	1292.5
618.124	1272.5
623.667	1259.5
629.204	1254.5
634.735	1231.5
640.261	1236.5
645.781	1226.5
651.294	1219.5
656.802	1198.5
662.304	1196.5
667.8	1201.5
673.29	1193.5
678.775	1193.5
684.254	1173.5
689.726	1183.5
695.193	1164.5
700.655	1176.5
706.11	1163.5
711.56	1167.5
717.004	1123.5
722.442	1137.5
727.874	1135.5
733.301	1122.5
738.722	1114.5
744.137	1115.5
749.547	1111.5
754.951	1091.5
760.349	1104.5
765.741	1105.5
771.128	1111.5
776.509	1121.5
781.885	1098.5
787.254	1109.5
792.618	1107.5
797.977	1092.5
803.33	1078.5
808.677	1086.5
814.019	1069.5
819.355	1070.5
824.686	1048.5
830.011	1041.5
835.33	1033.5
840.644	1016.5
845.952	1023.5
851.255	1027.5
856.552	1012.5
861.844	1007.5
867.13	1000.5
872.41	982.5
877.686	984.5
882.955	963.5
888.219	957.5
893.478	946.5
898.731	925.5
903.979	917.5
909.221	912.5
914.458	891.5
919.69	885.5
924.916	896.5
930.136	888.5
935.351	888.5
940.561	885.5
945.766	880.5
950.965	874.5
956.158	859.5
961.347	851.5
966.529	846.5
971.707	826.5
976.879	827.5
982.046	811.5
987.208	806.5
992.364	805.5
997.515	813.5
1002.66	805.5
1007.801	825.5
1012.936	828.5
1018.066	824.5
1023.19	847.5
1028.309	852.5
1033.423	832.5
1038.532	838.5
1043.636	828.5
1048.734	825.5
1053.827	815.5
1058.915	809.5
1063.998	811.5
1069.075	806.5
1074.147	795.5
1079.214	803.5
1084.276	811.5
1089.333	797.5
1094.385	816.5
1099.431	824.5
1104.472	826.5
1109.509	816.5
1114.54	796.5
1119.565	791.5
1124.586	772.5
1129.602	773.5
1134.613	776.5
1139.618	780.5
1144.619	762.5
1149.614	780.5
1154.604	770.5
1159.589	783.5
1164.57	774.5
1169.545	784.5
1174.515	795.5
1179.48	785.5
1184.44	773.5
1189.395	759.5
1194.345	769.5
1199.29	754.5
1204.23	760.5
1209.165	760.5
1214.095	773.5
1219.021	777.5
1223.941	785.5
1228.856	799.5
1233.766	796.5
1238.672	804.5
1243.572	798.5
1248.467	776.5
1253.358	769.5
1258.244	763.5
1263.124	745.5
1268	736.5
1272.871	733.5
1277.737	725.5
1282.599	718.5
1287.455	721.5
1292.306	721.5
1297.153	728.5
1301.995	723.5
1306.832	738.5
1311.664	730.5
1316.491	726.5
1321.314	727.5
1326.132	722.5
1330.945	702.5
1335.753	685.5
1340.556	656.5
1345.354	647.5
1350.148	640.5
1354.937	640.5
1359.722	646.5
1364.501	655.5
1369.276	673.5
1374.046	676.5
1378.811	685.5
1383.572	704.5
1388.327	702.5
1393.079	690.5
1397.825	693.5
1402.567	679.5
1407.304	655.5
1412.036	652.5
1416.764	655.5
1421.487	648.5
1426.205	626.5
1430.919	632.5
1435.628	644.5
1440.333	637.5
1445.032	648.5
1449.727	643.5
1454.418	632.5
1459.104	631.5
1463.785	637.5
1468.462	623.5
1473.134	606.5
1477.802	605.5
1482.465	599.5
1487.123	607.5
1491.777	617.5
1496.426	616.5
1501.071	622.5
1505.711	655.5
1510.347	677.5
1514.978	672.5
1519.604	702.5
1524.226	702.5
1528.844	705.5
1533.457	711.5
1538.065	700.5
1542.669	714.5
1547.269	700.5
1551.864	696.5
1556.454	690.5
1561.041	702.5
1565.622	707.5
1570.199	708.5
1574.772	707.5
1579.34	729.5
1583.904	728.5
1588.464	751.5
1593.019	741.5
1597.569	751.5
1602.115	767.5
1606.657	756.5
1611.195	765.5
1615.728	768.5
1620.256	789.5
1624.78	784.5
1629.3	794.5
1633.816	809.5
1638.327	809.5
1642.834	831.5
1647.336	839.5
1651.834	830.5
1656.328	838.5
1660.817	825.5
1665.302	797.5
1669.783	794.5
1674.259	774.5
1678.732	740.5
1683.199	721.5
1687.663	685.5
1692.122	666.5
1696.577	645.5
1701.028	648.5
1705.474	650.5
1709.917	654.5
1714.355	635.5
1718.788	625.5
1723.218	614.5
1727.643	590.5
1732.064	561.5
1736.481	547.5
1740.893	522.5
1745.301	501.5
1749.705	484.5
1754.105	463.5
1758.501	449.5
1762.893	435.5
1767.28	426.5
1771.663	415.5
1776.042	399.5
1780.417	399.5
1784.787	404.5
1789.154	412.5
1793.516	424.5
1797.874	427.5
1802.228	435.5
1806.578	443.5
1810.924	452.5
1815.266	437.5
1819.603	427.5
1823.937	423.5
1828.266	411.5
1832.591	398.5
1836.913	405.5
1841.23	381.5
1845.543	385.5
1849.852	372.5
1854.156	378.5
1858.457	378.5
1862.754	374.5
1867.047	377.5
1871.335	383.5
1875.62	376.5
1879.9	384.5
1884.177	380.5
1888.449	375.5
1892.718	372.5
1896.982	369.5
1901.243	374.5
1905.499	370.5
1909.752	363.5
1914	370.5
1918.245	384.5
1922.485	386.5
1926.722	388.5
1930.954	409.5
1935.183	409.5
1939.408	405.5
1943.628	419.5
1947.845	423.5
1952.058	421.5
1956.267	426.5
1960.472	397.5
1964.673	404.5
1968.87	397.5
1973.063	396.5
1977.252	380.5
1981.438	381.5
1985.619	375.5
1989.797	375.5
1993.971	365.5
1998.14	363.5
2002.306	359.5
2006.469	355.5
2010.627	355.5
2014.781	368.5
2018.932	351.5
2023.078	348.5
2027.221	352.5
2031.36	347.5
2035.495	344.5
2039.627	339.5
2043.754	338.5
2047.878	332.5
2051.998	341.5
2056.114	339.5
2060.226	340.5
2064.334	338.5
2068.439	343.5
2072.54	351.5
2076.637	366.5
2080.73	363.5
2084.82	366.5
2088.906	377.5
2092.988	383.5
2097.066	373.5
2101.14	367.5
2105.211	375.5
2109.278	374.5
2113.342	366.5
2117.401	369.5
2121.457	366.5
2125.509	362.5
2129.558	357.5
2133.602	357.5
2137.643	347.5
2141.681	349.5
2145.714	346.5
2149.744	347.5
2153.77	342.5
2157.793	333.5
2161.812	319.5
2165.827	328.5
2169.838	319.5
2173.846	315.5
2177.851	298.5
2181.851	298.5
2185.848	296.5
2189.841	296.5
2193.831	292.5
2197.817	292.5
2201.799	287.5
2205.778	279.5
2209.753	278.5
2213.725	283.5
2217.693	276.5
2221.657	268.5
2225.618	272.5
2229.575	268.5
2233.529	268.5
2237.479	270.5
2241.425	261.5
2245.368	261.5
2249.307	253.5
2253.243	243.5
2257.175	252.5
2261.104	240.5
2265.029	233.5
2268.95	240.5
2272.868	233.5
2276.783	219.5
2280.694	222.5
2284.601	212.5
2288.505	217.5
2292.405	207.5
2296.302	221.5
2300.195	213.5
2304.085	208.5
2307.971	204.5
2311.854	201.5
2315.734	197.5
2319.609	191.5
2323.482	190.5
2327.351	187.5
2331.216	186.5
2335.078	181.5
2338.937	178.5
2342.792	185.5
2346.643	185.5
2350.492	171.5
2354.336	174.5
2358.178	173.5
2362.015	172.5
2365.85	178.5
2369.681	180.5
2373.508	180.5
2377.333	179.5
2381.153	178.5
2384.971	179.5
2388.785	172.5
2392.595	170.5
2396.402	165.5
2400.206	171.5
2404.007	158.5
2407.804	162.5
2411.597	162.5
2415.388	163.5
2419.174	164.5
2422.958	155.5
2426.738	156.5
2430.515	163.5
2434.289	158.5
2438.059	152.5
2441.825	151.5
2445.589	155.5
2449.349	152.5
2453.106	148.5
2456.859	151.5
2460.61	141.5
2464.356	139.5
2468.1	146.5
2471.84	138.5
2475.577	132.5
2479.311	127.5
2483.041	135.5
2486.768	126.5
2490.492	141.5
2494.213	134.5
2497.93	143.5
2501.644	132.5
2505.355	131.5
2509.062	137.5
2512.766	135.5
2516.467	134.5
2520.165	133.5
2523.859	131.5
2527.551	130.5
2531.239	136.5
2534.923	128.5
2538.605	133.5
2542.283	136.5
2545.958	132.5
2549.63	130.5
2553.299	123.5
2556.964	131.5
2560.626	119.5
2564.285	123.5
2567.941	130.5
2571.594	129.5
2575.243	134.5
2578.89	133.5
2582.533	129.5
2586.173	127.5
2589.809	126.5
2593.443	127.5
2597.073	112.5
2600.701	111.5
2604.325	120.5
2607.946	112.5
2611.564	112.5
2615.178	110.5
2618.79	113.5
2622.398	117.5
2626.004	116.5
2629.606	108.5
2633.205	107.5
2636.801	105.5
2640.394	105.5
2643.983	103.5
2647.57	100.5
2651.153	99.5
2654.734	91.5
2658.311	95.5
2661.885	92.5
2665.456	85.5
2669.025	90.5
2672.589	85.5
2676.151	84.5
2679.71	82.5
2683.266	90.5
2686.819	84.5
2690.368	80.5
2693.915	82.5
2697.458	78.5
2700.999	85.5
2704.536	75.5
2708.071	78.5
2711.602	70.5
2715.13	65.5
2718.656	69.5
2722.178	67.5
2725.697	62.5
2729.214	60.5
2732.727	65.5
2736.237	66.5
2739.744	62.5
2743.249	70.5
2746.75	73.5
2750.248	72.5
2753.743	74.5
2757.236	70.5
2760.725	88.5
2764.211	84.5
2767.695	83.5
2771.175	85.5
2774.652	81.5
2778.127	82.5
2781.598	84.5
2785.067	79.5
2788.532	76.5
2791.995	78.5
2795.455	76.5
2798.911	75.5
2802.365	81.5
2805.816	81.5
2809.264	79.5
2812.709	87.5
2816.151	84.5
2819.59	87.5
2823.026	83.5
2826.46	84.5
2829.89	82.5
2833.318	95.5
2836.742	89.5
2840.164	87.5
2843.583	95.5
2846.999	100.5
2850.412	101.5
2853.822	94.5
2857.229	97.5
2860.634	101.5
2864.035	104.5
2867.434	94.5
2870.83	97.5
2874.223	98.5
2877.613	106.5
2881	108.5
2884.385	108.5
2887.766	109.5
2891.145	109.5
2894.521	112.5
2897.894	111.5
2901.264	108.5
2904.631	116.5
2907.996	110.5
2911.358	112.5
2914.717	117.5
2918.073	121.5
2921.426	122.5
2924.777	120.5
2928.124	116.5
2931.469	126.5
2934.811	124.5
2938.15	130.5
2941.487	133.5
2944.821	140.5
2948.152	142.5
2951.48	145.5
2954.805	151.5
2958.128	154.5
2961.447	157.5
2964.765	157.5
2968.079	167.5
2971.39	158.5
2974.699	171.5
2978.005	180.5
2981.308	183.5
2984.609	192.5
2987.907	201.5
2991.202	210.5
2994.494	220.5
2997.784	225.5
3001.07	231.5
3004.355	243.5
3007.636	254.5
3010.915	256.5
3014.191	254.5
3017.464	265.5
3020.734	270.5
3024.002	276.5
3027.267	277.5
3030.53	286.5
3033.789	295.5
3037.046	294.5
3040.301	295.5
3043.552	312.5
3046.801	318.5
3050.048	319.5
3053.291	345.5
3056.532	343.5
3059.771	367.5
3063.006	379.5
3066.239	383.5
3069.469	394.5
3072.697	404.5
3075.922	421.5
3079.144	438.5
3082.364	439.5
3085.581	451.5
3088.795	470.5
3092.007	477.5
3095.216	484.5
3098.423	500.5
3101.627	529.5
3104.828	531.5
3108.026	569.5
3111.222	566.5
3114.416	578.5
3117.607	594.5
3120.795	601.5
3123.98	618.5
3127.163	633.5
3130.344	653.5
3133.521	664.5
3136.696	682.5
3139.869	690.5
3143.039	706.5
3146.206	704.5
3149.371	715.5
3152.533	733.5
3155.693	737.5
3158.85	729.5
3162.005	749.5
3165.157	750.5
3168.306	761.5
3171.453	756.5
3174.597	754.5
3177.739	763.5
3180.878	750.5
3184.014	757.5
3187.149	750.5
3190.28	763.5
3193.409	766.5
3196.536	752.5
3199.659	757.5
3202.781	761.5
3205.9	766.5
3209.016	773.5
3212.13	767.5
3215.241	772.5
3218.35	758.5
3221.456	752.5
3224.56	749.5
3227.661	733.5
3230.76	731.5
3233.856	721.5
3236.95	720.5
3240.041	716.5
3243.13	714.5
3246.216	712.5
3249.3	720.5
3252.382	718.5
3255.46	714.5
3258.537	706.5
3261.611	703.5
3264.682	704.5
3267.751	712.5
3270.818	702.5
3273.882	702.5
3276.943	699.5
3280.002	683.5
3283.059	681.5
3286.113	671.5
3289.165	659.5
3292.214	645.5
3295.261	631.5
3298.306	623.5
3301.348	607.5
3304.387	600.5
3307.425	604.5
3310.459	596.5
3313.492	575.5
3316.521	568.5
3319.549	564.5
3322.574	545.5
3325.597	543.5
3328.617	535.5
3331.635	528.5
3334.65	539.5
3337.663	535.5
3340.674	522.5
3343.682	525.5
3346.688	527.5
3349.691	520.5
3352.692	522.5
3355.691	515.5
3358.687	504.5
3361.681	511.5
3364.673	496.5
3367.662	486.5
3370.649	485.5
3373.633	482.5
3376.615	469.5
3379.595	476.5
3382.572	453.5
3385.547	455.5
3388.52	438.5
3391.49	435.5
3394.458	437.5
3397.424	431.5
3400.387	421.5
3403.348	413.5
3406.307	411.5
3409.263	410.5
3412.217	404.5
3415.168	395.5
3418.118	392.5
3421.065	394.5
3424.009	388.5
3426.951	382.5
3429.891	375.5
3432.829	366.5
3435.764	360.5
3438.697	349.5
3441.628	343.5
3444.557	335.5
3447.483	330.5
3450.407	315.5
3453.328	311.5
3456.247	317.5
3459.164	293.5
3462.079	291.5
3464.991	280.5
3467.902	271.5
3470.809	263.5
3473.715	254.5
3476.618	246.5
3479.519	234.5
3482.418	226.5
3485.315	223.5
3488.209	212.5
3491.101	221.5
3493.99	215.5
3496.878	201.5
3499.763	197.5
3502.646	188.5
3505.527	180.5
3508.405	175.5
3511.281	167.5
3514.155	164.5
3517.027	151.5
3519.897	153.5
3522.764	137.5
3525.629	131.5
3528.492	122.5
3531.352	121.5
3534.211	110.5
3537.067	99.5
3539.921	94.5
3542.773	94.5
3545.622	86.5
3548.469	74.5
3551.315	73.5
3554.157	70.5
3556.998	69.5
3559.837	63.5
3562.673	54.5
3565.507	47.5
3568.339	42.5
3571.169	43.5
3573.996	39.5
3576.822	34.5
3579.645	30.5
3582.466	32.5
3585.285	26.5
3588.101	16.5
3590.916	21.5
3593.728	12.5
3596.538	12.5
3599.346	7.5
3602.152	4.5
3604.956	4.5
3607.757	-3.5
3610.556	2.5
3613.354	-5.5
3616.149	-8.5
3618.942	-11.5
3621.732	-13.5
3624.521	-19.5
3627.307	-19.5
3630.092	-20.5
3632.874	-19.5
3635.654	-23.5
3638.432	-28.5
3641.208	-25.5
3643.982	-33.5
3646.753	-30.5
3649.523	-30.5
3652.29	-35.5
3655.055	-37.5
3657.818	-44.5
3660.579	-44.5
3663.338	-43.5
3666.095	-48.5
3668.849	-50.5
3671.602	-47.5
3674.352	-53.5
3677.101	-50.5
3679.847	-51.5
3682.591	-56.5
3685.333	-55.5
3688.073	-54.5
3690.811	-55.5
3693.547	-58.5
3696.281	-59.5
3699.013	-59.5
3701.742	-56.5
3704.47	-61.5
3707.195	-62.5
3709.919	-63.5
3712.64	-60.5
3715.359	-64.5
3718.076	-66.5
3720.792	-67.5
3723.505	-70.5
3726.216	-63.5
3728.925	-62.5
3731.632	-66.5
3734.336	-70.5
3737.039	-65.5
3739.74	-64.5
3742.439	-69.5
3745.136	-70.5
3747.83	-72.5
3750.523	-70.5
3753.213	-68.5
3755.902	-76.5
3758.589	-74.5
3761.273	-75.5
3763.956	-74.5
3766.636	-76.5
3769.315	-68.5
3771.991	-73.5
3774.665	-76.5
3777.338	-73.5
3780.008	-73.5
3782.677	-73.5
3785.343	-77.5
3788.007	-72.5
3790.67	-76.5
3793.33	-79.5
3795.989	-75.5
3798.645	-73.5
3801.299	-78.5
3803.952	-79.5
3806.602	-78.5
3809.251	-78.5
3811.897	-81.5
3814.542	-79.5
3817.184	-78.5
3819.825	-74.5
3822.463	-77.5
3825.1	-77.5
3827.735	-74.5
3830.367	-75.5
3832.998	-76.5
3835.627	-77.5
3838.253	-77.5
3840.878	-78.5
3843.501	-78.5
3846.122	-78.5
3848.741	-78.5
3851.358	-76.5
3853.973	-77.5
3856.586	-79.5
3859.197	-81.5
3861.806	-83.5
3864.414	-83.5
3867.019	-80.5
3869.622	-82.5
3872.224	-78.5
3874.823	-76.5
3877.421	-69.5
3880.016	-70.5
3882.61	-65.5
3885.202	-62.5
3887.792	-67.5
3890.38	-73.5
3892.966	-76.5
3895.55	-76.5
3898.132	-76.5
3900.713	-79.5
3903.291	-78.5
3905.868	-78.5
3908.442	-78.5
3911.015	-82.5
3913.586	-81.5
3916.155	-83.5
3918.722	-81.5
3921.287	-80.5
3923.85	-78.5
3926.411	-82.5
3928.971	-80.5
3931.528	-79.5
3934.084	-78.5
3936.638	-79.5
3939.19	-81.5
3941.74	-82.5
3944.288	-85.5
3946.834	-82.5
3949.378	-83.5
3951.921	-80.5
3954.462	-80.5
3957	-81.5
3959.537	-77.5
3962.072	-82.5
3964.606	-80.5
3967.137	-80.5
3969.667	-77.5
3972.194	-82.5
3974.72	-81.5
3977.244	-79.5
3979.766	-80.5
3982.286	-79.5
3984.805	-81.5
3987.321	-80.5
3989.836	-80.5
3992.349	-82.5
3994.86	-84.5
3997.369	-83.5
3999.877	-82.5
4002.382	-79.5
4004.886	-77.5
4007.388	-78.5
4009.888	-81.5
4012.386	-80.5
4014.883	-76.5
4017.377	-73.5
4019.87	-82.5
4022.361	-81.5
4024.85	-83.5
4027.338	-83.5
4029.823	-83.5
4032.307	-81.5
4034.789	-82.5
4037.269	-79.5
4039.747	-79.5
4042.224	-80.5
4044.699	-83.5
4047.172	-78.5
4049.643	-86.5
4052.112	-82.5
4054.58	-79.5
4057.046	-77.5
4059.51	-80.5
4061.972	-76.5
4064.432	-76.5
4066.891	-77.5
4069.348	-75.5
4071.803	-80.5
4074.256	-82.5
4076.708	-83.5
4079.158	-84.5
4081.606	-81.5
4084.052	-84.5
4086.497	-82.5
4088.939	-78.5
4091.38	-78.5
4093.819	-80.5
4096.257	-81.5
4098.693	-82.5
4101.127	-80.5
4103.559	-80.5
4105.989	-43.5
4108.418	-46.5
4110.845	-43.5
4113.27	-39.5
4115.694	-35.5
4118.115	-29.5
4120.535	-79.5
4122.954	-78.5
4125.37	-79.5
4127.785	-81.5
4130.198	-82.5
4132.609	-81.5
4135.019	-82.5
4137.427	-84.5
4139.833	-84.5
4142.237	-84.5
