Data from Bsub_water_DIL102_B_3_RamanShift_1.txt Node
Date: Wed Feb 22 13:31:26 IST 2017
User: aro
Spectrometer: QEPB0276
Trigger mode: 0
Integration Time (sec): 5.000000E0
Scans to average: 1
Electric dark correction enabled: true
Nonlinearity correction enabled: false
Boxcar width: 0
XAxis mode: Raman Shifts
Number of Pixels in Spectrum: 1044
>>>>>Begin Spectral Data<<<<<
160.701	-29.12
166.742	6.88
172.777	94.88
178.805	376.88
184.826	1079.88
190.841	2243.88
196.849	3564.88
202.85	4452.88
208.845	4676.88
214.833	4519.88
220.815	4347.88
226.789	4196.88
232.758	4090.88
238.719	3949.88
244.674	3744.88
250.623	3571.88
256.565	3360.88
262.5	3193.88
268.429	3031.88
274.351	2884.88
280.267	2776.88
286.176	2647.88
292.079	2534.88
297.975	2433.88
303.865	2351.88
309.748	2257.88
315.625	2190.88
321.495	2145.88
327.359	2141.88
333.217	2090.88
339.068	2078.88
344.912	2051.88
350.751	2052.88
356.583	2033.88
362.408	2048.88
368.227	2050.88
374.04	2055.88
379.847	2062.88
385.647	2087.88
391.44	2080.88
397.228	2096.88
403.009	2105.88
408.784	2129.88
414.553	2122.88
420.315	2155.88
426.071	2137.88
431.821	2111.88
437.565	2128.88
443.302	2110.88
449.033	2102.88
454.758	2117.88
460.477	2101.88
466.189	2068.88
471.896	2076.88
477.596	2077.88
483.29	2049.88
488.978	2024.88
494.66	2006.88
500.335	1992.88
506.005	1953.88
511.668	1910.88
517.325	1860.88
522.977	1843.88
528.622	1813.88
534.261	1765.88
539.894	1759.88
545.521	1742.88
551.141	1717.88
556.756	1719.88
562.365	1698.88
567.968	1676.88
573.565	1660.88
579.155	1656.88
584.74	1627.88
590.319	1618.88
595.892	1614.88
601.459	1591.88
607.02	1580.88
612.575	1569.88
618.124	1526.88
623.667	1515.88
629.204	1514.88
634.735	1493.88
640.261	1479.88
645.781	1480.88
651.294	1472.88
656.802	1449.88
662.304	1434.88
667.8	1437.88
673.29	1426.88
678.775	1423.88
684.254	1398.88
689.726	1408.88
695.193	1381.88
700.655	1388.88
706.11	1361.88
711.56	1361.88
717.004	1330.88
722.442	1324.88
727.874	1322.88
733.301	1325.88
738.722	1290.88
744.137	1290.88
749.547	1283.88
754.951	1285.88
760.349	1286.88
765.741	1270.88
771.128	1274.88
776.509	1271.88
781.885	1254.88
787.254	1250.88
792.618	1259.88
797.977	1246.88
803.33	1224.88
808.677	1222.88
814.019	1207.88
819.355	1184.88
824.686	1153.88
830.011	1131.88
835.33	1148.88
840.644	1124.88
845.952	1115.88
851.255	1116.88
856.552	1108.88
861.844	1068.88
867.13	1084.88
872.41	1060.88
877.686	1059.88
882.955	1042.88
888.219	1010.88
893.478	988.88
898.731	968.88
903.979	942.88
909.221	937.88
914.458	930.88
919.69	905.88
924.916	916.88
930.136	920.88
935.351	904.88
940.561	901.88
945.766	891.88
950.965	873.88
956.158	863.88
961.347	850.88
966.529	836.88
971.707	828.88
976.879	815.88
982.046	796.88
987.208	786.88
992.364	791.88
997.515	799.88
1002.66	788.88
1007.801	791.88
1012.936	811.88
1018.066	811.88
1023.19	822.88
1028.309	813.88
1033.423	798.88
1038.532	801.88
1043.636	801.88
1048.734	789.88
1053.827	783.88
1058.915	762.88
1063.998	763.88
1069.075	748.88
1074.147	755.88
1079.214	757.88
1084.276	773.88
1089.333	771.88
1094.385	768.88
1099.431	773.88
1104.472	782.88
1109.509	773.88
1114.54	757.88
1119.565	739.88
1124.586	733.88
1129.602	734.88
1134.613	720.88
1139.618	722.88
1144.619	732.88
1149.614	726.88
1154.604	712.88
1159.589	716.88
1164.57	716.88
1169.545	721.88
1174.515	736.88
1179.48	741.88
1184.44	723.88
1189.395	726.88
1194.345	712.88
1199.29	712.88
1204.23	704.88
1209.165	716.88
1214.095	708.88
1219.021	721.88
1223.941	739.88
1228.856	725.88
1233.766	726.88
1238.672	732.88
1243.572	738.88
1248.467	719.88
1253.358	717.88
1258.244	709.88
1263.124	690.88
1268	675.88
1272.871	670.88
1277.737	657.88
1282.599	666.88
1287.455	662.88
1292.306	652.88
1297.153	658.88
1301.995	665.88
1306.832	665.88
1311.664	673.88
1316.491	684.88
1321.314	660.88
1326.132	655.88
1330.945	649.88
1335.753	638.88
1340.556	628.88
1345.354	615.88
1350.148	609.88
1354.937	600.88
1359.722	592.88
1364.501	607.88
1369.276	608.88
1374.046	620.88
1378.811	614.88
1383.572	621.88
1388.327	614.88
1393.079	608.88
1397.825	596.88
1402.567	582.88
1407.304	584.88
1412.036	583.88
1416.764	573.88
1421.487	570.88
1426.205	557.88
1430.919	569.88
1435.628	573.88
1440.333	578.88
1445.032	577.88
1449.727	583.88
1454.418	584.88
1459.104	584.88
1463.785	581.88
1468.462	579.88
1473.134	563.88
1477.802	566.88
1482.465	548.88
1487.123	558.88
1491.777	559.88
1496.426	570.88
1501.071	585.88
1505.711	584.88
1510.347	612.88
1514.978	608.88
1519.604	623.88
1524.226	634.88
1528.844	639.88
1533.457	631.88
1538.065	627.88
1542.669	655.88
1547.269	644.88
1551.864	650.88
1556.454	647.88
1561.041	660.88
1565.622	681.88
1570.199	687.88
1574.772	695.88
1579.34	727.88
1583.904	735.88
1588.464	763.88
1593.019	770.88
1597.569	792.88
1602.115	799.88
1606.657	823.88
1611.195	844.88
1615.728	856.88
1620.256	882.88
1624.78	890.88
1629.3	914.88
1633.816	928.88
1638.327	944.88
1642.834	966.88
1647.336	978.88
1651.834	962.88
1656.328	971.88
1660.817	946.88
1665.302	926.88
1669.783	897.88
1674.259	862.88
1678.732	822.88
1683.199	792.88
1687.663	746.88
1692.122	703.88
1696.577	679.88
1701.028	644.88
1705.474	623.88
1709.917	599.88
1714.355	577.88
1718.788	543.88
1723.218	525.88
1727.643	505.88
1732.064	484.88
1736.481	450.88
1740.893	437.88
1745.301	408.88
1749.705	403.88
1754.105	370.88
1758.501	352.88
1762.893	343.88
1767.28	336.88
1771.663	322.88
1776.042	324.88
1780.417	323.88
1784.787	319.88
1789.154	317.88
1793.516	308.88
1797.874	314.88
1802.228	312.88
1806.578	314.88
1810.924	307.88
1815.266	298.88
1819.603	293.88
1823.937	276.88
1828.266	279.88
1832.591	276.88
1836.913	262.88
1841.23	254.88
1845.543	259.88
1849.852	254.88
1854.156	262.88
1858.457	262.88
1862.754	256.88
1867.047	261.88
1871.335	256.88
1875.62	251.88
1879.9	254.88
1884.177	255.88
1888.449	248.88
1892.718	250.88
1896.982	244.88
1901.243	248.88
1905.499	252.88
1909.752	245.88
1914	253.88
1918.245	262.88
1922.485	259.88
1926.722	261.88
1930.954	269.88
1935.183	275.88
1939.408	271.88
1943.628	268.88
1947.845	274.88
1952.058	270.88
1956.267	271.88
1960.472	272.88
1964.673	269.88
1968.87	265.88
1973.063	268.88
1977.252	264.88
1981.438	263.88
1985.619	254.88
1989.797	258.88
1993.971	257.88
1998.14	260.88
2002.306	253.88
2006.469	261.88
2010.627	267.88
2014.781	276.88
2018.932	270.88
2023.078	263.88
2027.221	274.88
2031.36	279.88
2035.495	281.88
2039.627	272.88
2043.754	263.88
2047.878	258.88
2051.998	268.88
2056.114	263.88
2060.226	270.88
2064.334	270.88
2068.439	280.88
2072.54	286.88
2076.637	281.88
2080.73	287.88
2084.82	297.88
2088.906	291.88
2092.988	292.88
2097.066	294.88
2101.14	287.88
2105.211	300.88
2109.278	296.88
2113.342	294.88
2117.401	286.88
2121.457	294.88
2125.509	289.88
2129.558	286.88
2133.602	281.88
2137.643	272.88
2141.681	284.88
2145.714	275.88
2149.744	274.88
2153.77	262.88
2157.793	266.88
2161.812	269.88
2165.827	260.88
2169.838	260.88
2173.846	250.88
2177.851	242.88
2181.851	229.88
2185.848	228.88
2189.841	225.88
2193.831	224.88
2197.817	221.88
2201.799	219.88
2205.778	217.88
2209.753	208.88
2213.725	206.88
2217.693	218.88
2221.657	207.88
2225.618	209.88
2229.575	196.88
2233.529	207.88
2237.479	197.88
2241.425	195.88
2245.368	183.88
2249.307	177.88
2253.243	177.88
2257.175	166.88
2261.104	172.88
2265.029	168.88
2268.95	163.88
2272.868	154.88
2276.783	151.88
2280.694	156.88
2284.601	141.88
2288.505	151.88
2292.405	143.88
2296.302	149.88
2300.195	138.88
2304.085	133.88
2307.971	131.88
2311.854	131.88
2315.734	123.88
2319.609	122.88
2323.482	110.88
2327.351	115.88
2331.216	119.88
2335.078	110.88
2338.937	104.88
2342.792	108.88
2346.643	105.88
2350.492	102.88
2354.336	96.88
2358.178	96.88
2362.015	97.88
2365.85	99.88
2369.681	103.88
2373.508	97.88
2377.333	93.88
2381.153	99.88
2384.971	101.88
2388.785	90.88
2392.595	92.88
2396.402	88.88
2400.206	82.88
2404.007	86.88
2407.804	83.88
2411.597	77.88
2415.388	86.88
2419.174	83.88
2422.958	76.88
2426.738	83.88
2430.515	80.88
2434.289	80.88
2438.059	77.88
2441.825	71.88
2445.589	72.88
2449.349	68.88
2453.106	73.88
2456.859	67.88
2460.61	67.88
2464.356	66.88
2468.1	67.88
2471.84	65.88
2475.577	57.88
2479.311	62.88
2483.041	59.88
2486.768	59.88
2490.492	60.88
2494.213	62.88
2497.93	62.88
2501.644	62.88
2505.355	63.88
2509.062	61.88
2512.766	63.88
2516.467	63.88
2520.165	56.88
2523.859	55.88
2527.551	54.88
2531.239	53.88
2534.923	51.88
2538.605	54.88
2542.283	49.88
2545.958	53.88
2549.63	50.88
2553.299	46.88
2556.964	49.88
2560.626	43.88
2564.285	48.88
2567.941	47.88
2571.594	43.88
2575.243	43.88
2578.89	44.88
2582.533	39.88
2586.173	41.88
2589.809	38.88
2593.443	37.88
2597.073	36.88
2600.701	35.88
2604.325	39.88
2607.946	33.88
2611.564	34.88
2615.178	38.88
2618.79	36.88
2622.398	31.88
2626.004	29.88
2629.606	32.88
2633.205	28.88
2636.801	35.88
2640.394	36.88
2643.983	34.88
2647.57	22.88
2651.153	27.88
2654.734	25.88
2658.311	23.88
2661.885	26.88
2665.456	23.88
2669.025	21.88
2672.589	20.88
2676.151	27.88
2679.71	18.88
2683.266	18.88
2686.819	27.88
2690.368	24.88
2693.915	19.88
2697.458	19.88
2700.999	20.88
2704.536	15.88
2708.071	18.88
2711.602	18.88
2715.13	16.88
2718.656	17.88
2722.178	13.88
2725.697	8.88
2729.214	14.88
2732.727	26.88
2736.237	20.88
2739.744	26.88
2743.249	25.88
2746.75	28.88
2750.248	26.88
2753.743	24.88
2757.236	30.88
2760.725	29.88
2764.211	32.88
2767.695	26.88
2771.175	36.88
2774.652	31.88
2778.127	32.88
2781.598	29.88
2785.067	31.88
2788.532	33.88
2791.995	37.88
2795.455	36.88
2798.911	40.88
2802.365	40.88
2805.816	46.88
2809.264	37.88
2812.709	50.88
2816.151	48.88
2819.59	44.88
2823.026	48.88
2826.46	46.88
2829.89	48.88
2833.318	51.88
2836.742	51.88
2840.164	57.88
2843.583	63.88
2846.999	71.88
2850.412	68.88
2853.822	72.88
2857.229	72.88
2860.634	77.88
2864.035	76.88
2867.434	80.88
2870.83	84.88
2874.223	91.88
2877.613	98.88
2881	99.88
2884.385	100.88
2887.766	107.88
2891.145	103.88
2894.521	111.88
2897.894	111.88
2901.264	115.88
2904.631	115.88
2907.996	125.88
2911.358	121.88
2914.717	137.88
2918.073	139.88
2921.426	140.88
2924.777	147.88
2928.124	153.88
2931.469	156.88
2934.811	158.88
2938.15	172.88
2941.487	172.88
2944.821	183.88
2948.152	184.88
2951.48	198.88
2954.805	203.88
2958.128	215.88
2961.447	215.88
2964.765	223.88
2968.079	237.88
2971.39	241.88
2974.699	262.88
2978.005	261.88
2981.308	274.88
2984.609	283.88
2987.907	304.88
2991.202	314.88
2994.494	321.88
2997.784	335.88
3001.07	343.88
3004.355	361.88
3007.636	371.88
3010.915	387.88
3014.191	408.88
3017.464	406.88
3020.734	419.88
3024.002	426.88
3027.267	441.88
3030.53	454.88
3033.789	466.88
3037.046	469.88
3040.301	479.88
3043.552	511.88
3046.801	515.88
3050.048	533.88
3053.291	554.88
3056.532	572.88
3059.771	599.88
3063.006	630.88
3066.239	629.88
3069.469	657.88
3072.697	688.88
3075.922	697.88
3079.144	736.88
3082.364	753.88
3085.581	776.88
3088.795	790.88
3092.007	809.88
3095.216	824.88
3098.423	839.88
3101.627	875.88
3104.828	896.88
3108.026	924.88
3111.222	928.88
3114.416	962.88
3117.607	988.88
3120.795	1014.88
3123.98	1042.88
3127.163	1062.88
3130.344	1094.88
3133.521	1117.88
3136.696	1144.88
3139.869	1169.88
3143.039	1191.88
3146.206	1188.88
3149.371	1224.88
3152.533	1223.88
3155.693	1254.88
3158.85	1249.88
3162.005	1261.88
3165.157	1271.88
3168.306	1285.88
3171.453	1279.88
3174.597	1294.88
3177.739	1292.88
3180.878	1296.88
3184.014	1312.88
3187.149	1310.88
3190.28	1307.88
3193.409	1319.88
3196.536	1314.88
3199.659	1320.88
3202.781	1323.88
3205.9	1316.88
3209.016	1315.88
3212.13	1316.88
3215.241	1329.88
3218.35	1317.88
3221.456	1302.88
3224.56	1304.88
3227.661	1292.88
3230.76	1275.88
3233.856	1267.88
3236.95	1253.88
3240.041	1250.88
3243.13	1224.88
3246.216	1230.88
3249.3	1203.88
3252.382	1213.88
3255.46	1213.88
3258.537	1204.88
3261.611	1203.88
3264.682	1191.88
3267.751	1211.88
3270.818	1199.88
3273.882	1193.88
3276.943	1173.88
3280.002	1164.88
3283.059	1163.88
3286.113	1167.88
3289.165	1122.88
3292.214	1096.88
3295.261	1097.88
3298.306	1065.88
3301.348	1050.88
3304.387	1040.88
3307.425	1041.88
3310.459	1005.88
3313.492	997.88
3316.521	990.88
3319.549	968.88
3322.574	946.88
3325.597	969.88
3328.617	949.88
3331.635	944.88
3334.65	933.88
3337.663	928.88
3340.674	919.88
3343.682	936.88
3346.688	926.88
3349.691	924.88
3352.692	919.88
3355.691	912.88
3358.687	910.88
3361.681	904.88
3364.673	876.88
3367.662	855.88
3370.649	844.88
3373.633	839.88
3376.615	829.88
3379.595	821.88
3382.572	804.88
3385.547	802.88
3388.52	794.88
3391.49	786.88
3394.458	768.88
3397.424	758.88
3400.387	748.88
3403.348	740.88
3406.307	729.88
3409.263	734.88
3412.217	705.88
3415.168	714.88
3418.118	707.88
3421.065	704.88
3424.009	693.88
3426.951	684.88
3429.891	666.88
3432.829	653.88
3435.764	655.88
3438.697	631.88
3441.628	608.88
3444.557	598.88
3447.483	583.88
3450.407	578.88
3453.328	554.88
3456.247	540.88
3459.164	533.88
3462.079	504.88
3464.991	488.88
3467.902	490.88
3470.809	469.88
3473.715	449.88
3476.618	440.88
3479.519	421.88
3482.418	419.88
3485.315	405.88
3488.209	397.88
3491.101	395.88
3493.99	375.88
3496.878	366.88
3499.763	342.88
3502.646	339.88
3505.527	324.88
3508.405	313.88
3511.281	300.88
3514.155	286.88
3517.027	277.88
3519.897	268.88
3522.764	250.88
3525.629	239.88
3528.492	223.88
3531.352	210.88
3534.211	210.88
3537.067	192.88
3539.921	180.88
3542.773	172.88
3545.622	165.88
3548.469	156.88
3551.315	141.88
3554.157	131.88
3556.998	130.88
3559.837	120.88
3562.673	111.88
3565.507	105.88
3568.339	96.88
3571.169	98.88
3573.996	84.88
3576.822	78.88
3579.645	72.88
3582.466	71.88
3585.285	65.88
3588.101	57.88
3590.916	57.88
3593.728	44.88
3596.538	43.88
3599.346	36.88
3602.152	27.88
3604.956	25.88
3607.757	21.88
3610.556	15.88
3613.354	8.88
3616.149	6.88
3618.942	0.88
3621.732	-1.12
3624.521	-9.12
3627.307	-8.12
3630.092	-13.12
3632.874	-15.12
3635.654	-18.12
3638.432	-18.12
3641.208	-20.12
3643.982	-24.12
3646.753	-27.12
3649.523	-30.12
3652.29	-33.12
3655.055	-41.12
3657.818	-43.12
3660.579	-45.12
3663.338	-45.12
3666.095	-50.12
3668.849	-60.12
3671.602	-53.12
3674.352	-61.12
3677.101	-58.12
3679.847	-61.12
3682.591	-61.12
3685.333	-70.12
3688.073	-69.12
3690.811	-69.12
3693.547	-70.12
3696.281	-73.12
3699.013	-77.12
3701.742	-74.12
3704.47	-74.12
3707.195	-76.12
3709.919	-84.12
3712.64	-81.12
3715.359	-81.12
3718.076	-87.12
3720.792	-88.12
3723.505	-88.12
3726.216	-83.12
3728.925	-85.12
3731.632	-90.12
3734.336	-92.12
3737.039	-87.12
3739.74	-91.12
3742.439	-93.12
3745.136	-90.12
3747.83	-91.12
3750.523	-93.12
3753.213	-96.12
3755.902	-102.12
3758.589	-98.12
3761.273	-97.12
3763.956	-98.12
3766.636	-99.12
3769.315	-97.12
3771.991	-104.12
3774.665	-101.12
3777.338	-100.12
3780.008	-101.12
3782.677	-101.12
3785.343	-101.12
3788.007	-101.12
3790.67	-98.12
3793.33	-100.12
3795.989	-98.12
3798.645	-101.12
3801.299	-102.12
3803.952	-104.12
3806.602	-101.12
3809.251	-106.12
3811.897	-106.12
3814.542	-104.12
3817.184	-105.12
3819.825	-100.12
3822.463	-105.12
3825.1	-92.12
3827.735	116.88
3830.367	92.88
3832.998	-84.12
3835.627	-104.12
3838.253	-102.12
3840.878	-110.12
3843.501	-106.12
3846.122	-107.12
3848.741	-104.12
3851.358	-104.12
3853.973	-106.12
3856.586	-106.12
3859.197	-109.12
3861.806	-109.12
3864.414	-112.12
3867.019	-107.12
3869.622	-108.12
3872.224	-107.12
3874.823	-103.12
3877.421	-96.12
3880.016	-99.12
3882.61	-95.12
3885.202	-98.12
3887.792	-97.12
3890.38	-101.12
3892.966	-106.12
3895.55	-107.12
3898.132	-104.12
3900.713	-108.12
3903.291	-109.12
3905.868	-106.12
3908.442	-106.12
3911.015	-109.12
3913.586	-110.12
3916.155	-108.12
3918.722	-108.12
3921.287	-107.12
3923.85	-107.12
3926.411	-110.12
3928.971	-109.12
3931.528	-103.12
3934.084	-108.12
3936.638	-106.12
3939.19	-110.12
3941.74	-109.12
3944.288	-112.12
3946.834	-107.12
3949.378	-110.12
3951.921	-108.12
3954.462	-110.12
3957	-108.12
3959.537	-107.12
3962.072	-111.12
3964.606	-109.12
3967.137	-105.12
3969.667	-107.12
3972.194	-108.12
3974.72	-109.12
3977.244	-107.12
3979.766	-110.12
3982.286	-105.12
3984.805	-108.12
3987.321	-107.12
3989.836	-106.12
3992.349	-108.12
3994.86	-110.12
3997.369	-110.12
3999.877	-113.12
4002.382	-107.12
4004.886	-107.12
4007.388	-104.12
4009.888	-110.12
4012.386	-105.12
4014.883	-102.12
4017.377	-106.12
4019.87	-111.12
4022.361	-109.12
4024.85	-112.12
4027.338	-110.12
4029.823	-112.12
4032.307	-106.12
4034.789	-111.12
4037.269	-108.12
4039.747	-104.12
4042.224	-111.12
4044.699	-109.12
4047.172	-106.12
4049.643	-110.12
4052.112	-112.12
4054.58	-109.12
4057.046	-106.12
4059.51	-109.12
4061.972	-106.12
4064.432	-107.12
4066.891	-109.12
4069.348	-108.12
4071.803	-110.12
4074.256	-111.12
4076.708	-109.12
4079.158	-108.12
4081.606	-110.12
4084.052	-111.12
4086.497	-103.12
4088.939	-107.12
4091.38	-104.12
4093.819	-111.12
4096.257	-111.12
4098.693	-111.12
4101.127	-113.12
4103.559	-110.12
4105.989	-67.12
4108.418	-69.12
4110.845	-65.12
4113.27	-59.12
4115.694	-47.12
4118.115	-45.12
4120.535	-109.12
4122.954	-108.12
4125.37	-111.12
4127.785	-111.12
4130.198	-113.12
4132.609	-110.12
4135.019	-112.12
4137.427	-113.12
4139.833	-113.12
4142.237	-111.12
