Data from I0.35_T40s_H-1_RamanShift_11-58-41-112.txt Node
Date: Sun Apr 23 11:58:41 IDT 2017
User: aro
Spectrometer: QEPB0276
Trigger mode: 0
Integration Time (sec): 4.000000E1
Scans to average: 1
Electric dark correction enabled: true
Nonlinearity correction enabled: false
Boxcar width: 0
XAxis mode: Raman Shifts
Number of Pixels in Spectrum: 1044
>>>>>Begin Spectral Data<<<<<
160.701	24.62
166.742	29.62
172.777	47.62
178.805	83.62
184.826	143.62
190.841	181.62
196.849	313.62
202.85	329.62
208.845	345.62
214.833	316.62
220.815	327.62
226.789	331.62
232.758	314.62
238.719	327.62
244.674	333.62
250.623	319.62
256.565	317.62
262.5	303.62
268.429	291.62
274.351	293.62
280.267	293.62
286.176	277.62
292.079	292.62
297.975	279.62
303.865	272.62
309.748	269.62
315.625	272.62
321.495	244.62
327.359	267.62
333.217	248.62
339.068	251.62
344.912	255.62
350.751	269.62
356.583	246.62
362.408	233.62
368.227	246.62
374.04	258.62
379.847	268.62
385.647	269.62
391.44	299.62
397.228	287.62
403.009	281.62
408.784	333.62
414.553	386.62
420.315	448.62
426.071	540.62
431.821	559.62
437.565	572.62
443.302	559.62
449.033	511.62
454.758	433.62
460.477	372.62
466.189	329.62
471.896	304.62
477.596	252.62
483.29	270.62
488.978	244.62
494.66	258.62
500.335	238.62
506.005	230.62
511.668	186.62
517.325	188.62
522.977	176.62
528.622	145.62
534.261	158.62
539.894	162.62
545.521	155.62
551.141	168.62
556.756	161.62
562.365	152.62
567.968	149.62
573.565	139.62
579.155	136.62
584.74	137.62
590.319	134.62
595.892	137.62
601.459	125.62
607.02	131.62
612.575	138.62
618.124	109.62
623.667	135.62
629.204	111.62
634.735	127.62
640.261	131.62
645.781	153.62
651.294	172.62
656.802	137.62
662.304	120.62
667.8	108.62
673.29	125.62
678.775	116.62
684.254	120.62
689.726	141.62
695.193	109.62
700.655	120.62
706.11	137.62
711.56	99.62
717.004	102.62
722.442	135.62
727.874	108.62
733.301	124.62
738.722	131.62
744.137	130.62
749.547	142.62
754.951	135.62
760.349	140.62
765.741	109.62
771.128	139.62
776.509	158.62
781.885	129.62
787.254	147.62
792.618	176.62
797.977	156.62
803.33	164.62
808.677	180.62
814.019	185.62
819.355	181.62
824.686	191.62
830.011	187.62
835.33	186.62
840.644	178.62
845.952	224.62
851.255	229.62
856.552	275.62
861.844	347.62
867.13	480.62
872.41	789.62
877.686	1348.62
882.955	2143.62
888.219	2605.62
893.478	2246.62
898.731	1387.62
903.979	724.62
909.221	448.62
914.458	332.62
919.69	271.62
924.916	219.62
930.136	188.62
935.351	192.62
940.561	169.62
945.766	159.62
950.965	141.62
956.158	158.62
961.347	147.62
966.529	143.62
971.707	126.62
976.879	131.62
982.046	136.62
987.208	158.62
992.364	164.62
997.515	165.62
1002.66	191.62
1007.801	234.62
1012.936	247.62
1018.066	301.62
1023.19	300.62
1028.309	368.62
1033.423	484.62
1038.532	575.62
1043.636	726.62
1048.734	863.62
1053.827	982.62
1058.915	985.62
1063.998	839.62
1069.075	697.62
1074.147	598.62
1079.214	634.62
1084.276	663.62
1089.333	771.62
1094.385	914.62
1099.431	1030.62
1104.472	958.62
1109.509	790.62
1114.54	606.62
1119.565	473.62
1124.586	433.62
1129.602	394.62
1134.613	337.62
1139.618	295.62
1144.619	245.62
1149.614	214.62
1154.604	223.62
1159.589	215.62
1164.57	162.62
1169.545	143.62
1174.515	131.62
1179.48	144.62
1184.44	131.62
1189.395	120.62
1194.345	134.62
1199.29	117.62
1204.23	142.62
1209.165	153.62
1214.095	126.62
1219.021	137.62
1223.941	171.62
1228.856	155.62
1233.766	152.62
1238.672	150.62
1243.572	152.62
1248.467	170.62
1253.358	181.62
1258.244	230.62
1263.124	236.62
1268	281.62
1272.871	397.62
1277.737	460.62
1282.599	486.62
1287.455	423.62
1292.306	344.62
1297.153	301.62
1301.995	249.62
1306.832	236.62
1311.664	203.62
1316.491	205.62
1321.314	185.62
1326.132	186.62
1330.945	181.62
1335.753	168.62
1340.556	178.62
1345.354	181.62
1350.148	180.62
1354.937	180.62
1359.722	204.62
1364.501	202.62
1369.276	197.62
1374.046	183.62
1378.811	236.62
1383.572	247.62
1388.327	249.62
1393.079	278.62
1397.825	281.62
1402.567	273.62
1407.304	299.62
1412.036	325.62
1416.764	342.62
1421.487	375.62
1426.205	403.62
1430.919	460.62
1435.628	532.62
1440.333	610.62
1445.032	739.62
1449.727	918.62
1454.418	1088.62
1459.104	1167.62
1463.785	1118.62
1468.462	896.62
1473.134	726.62
1477.802	608.62
1482.465	630.62
1487.123	539.62
1491.777	535.62
1496.426	482.62
1501.071	360.62
1505.711	315.62
1510.347	279.62
1514.978	242.62
1519.604	218.62
1524.226	196.62
1528.844	195.62
1533.457	151.62
1538.065	155.62
1542.669	152.62
1547.269	136.62
1551.864	136.62
1556.454	156.62
1561.041	139.62
1565.622	140.62
1570.199	129.62
1574.772	128.62
1579.34	103.62
1583.904	100.62
1588.464	113.62
1593.019	90.62
1597.569	84.62
1602.115	106.62
1606.657	103.62
1611.195	83.62
1615.728	73.62
1620.256	88.62
1624.78	109.62
1629.3	79.62
1633.816	77.62
1638.327	75.62
1642.834	77.62
1647.336	83.62
1651.834	68.62
1656.328	83.62
1660.817	79.62
1665.302	82.62
1669.783	81.62
1674.259	101.62
1678.732	83.62
1683.199	85.62
1687.663	80.62
1692.122	69.62
1696.577	59.62
1701.028	48.62
1705.474	68.62
1709.917	70.62
1714.355	64.62
1718.788	65.62
1723.218	74.62
1727.643	92.62
1732.064	67.62
1736.481	87.62
1740.893	54.62
1745.301	58.62
1749.705	94.62
1754.105	59.62
1758.501	60.62
1762.893	46.62
1767.28	71.62
1771.663	57.62
1776.042	58.62
1780.417	50.62
1784.787	34.62
1789.154	34.62
1793.516	43.62
1797.874	50.62
1802.228	73.62
1806.578	64.62
1810.924	43.62
1815.266	209.62
1819.603	34.62
1823.937	56.62
1828.266	55.62
1832.591	49.62
1836.913	49.62
1841.23	54.62
1845.543	58.62
1849.852	44.62
1854.156	61.62
1858.457	55.62
1862.754	63.62
1867.047	53.62
1871.335	27.62
1875.62	55.62
1879.9	53.62
1884.177	61.62
1888.449	34.62
1892.718	40.62
1896.982	46.62
1901.243	55.62
1905.499	52.62
1909.752	58.62
1914	84.62
1918.245	46.62
1922.485	49.62
1926.722	50.62
1930.954	45.62
1935.183	52.62
1939.408	30.62
1943.628	45.62
1947.845	46.62
1952.058	61.62
1956.267	69.62
1960.472	51.62
1964.673	41.62
1968.87	64.62
1973.063	55.62
1977.252	50.62
1981.438	44.62
1985.619	48.62
1989.797	71.62
1993.971	43.62
1998.14	38.62
2002.306	57.62
2006.469	41.62
2010.627	40.62
2014.781	44.62
2018.932	54.62
2023.078	27.62
2027.221	44.62
2031.36	44.62
2035.495	44.62
2039.627	49.62
2043.754	30.62
2047.878	36.62
2051.998	40.62
2056.114	49.62
2060.226	43.62
2064.334	39.62
2068.439	36.62
2072.54	36.62
2076.637	55.62
2080.73	47.62
2084.82	53.62
2088.906	56.62
2092.988	51.62
2097.066	44.62
2101.14	26.62
2105.211	32.62
2109.278	26.62
2113.342	30.62
2117.401	58.62
2121.457	49.62
2125.509	56.62
2129.558	28.62
2133.602	31.62
2137.643	47.62
2141.681	58.62
2145.714	53.62
2149.744	36.62
2153.77	42.62
2157.793	53.62
2161.812	62.62
2165.827	93.62
2169.838	41.62
2173.846	46.62
2177.851	50.62
2181.851	40.62
2185.848	53.62
2189.841	37.62
2193.831	48.62
2197.817	46.62
2201.799	32.62
2205.778	58.62
2209.753	56.62
2213.725	56.62
2217.693	30.62
2221.657	59.62
2225.618	28.62
2229.575	38.62
2233.529	29.62
2237.479	48.62
2241.425	40.62
2245.368	47.62
2249.307	49.62
2253.243	34.62
2257.175	45.62
2261.104	59.62
2265.029	39.62
2268.95	34.62
2272.868	50.62
2276.783	52.62
2280.694	37.62
2284.601	46.62
2288.505	39.62
2292.405	24.62
2296.302	44.62
2300.195	41.62
2304.085	58.62
2307.971	26.62
2311.854	56.62
2315.734	32.62
2319.609	36.62
2323.482	57.62
2327.351	41.62
2331.216	50.62
2335.078	40.62
2338.937	50.62
2342.792	49.62
2346.643	43.62
2350.492	33.62
2354.336	39.62
2358.178	36.62
2362.015	49.62
2365.85	34.62
2369.681	42.62
2373.508	38.62
2377.333	28.62
2381.153	51.62
2384.971	54.62
2388.785	34.62
2392.595	47.62
2396.402	39.62
2400.206	66.62
2404.007	46.62
2407.804	41.62
2411.597	42.62
2415.388	40.62
2419.174	33.62
2422.958	58.62
2426.738	54.62
2430.515	37.62
2434.289	43.62
2438.059	53.62
2441.825	47.62
2445.589	18.62
2449.349	64.62
2453.106	38.62
2456.859	42.62
2460.61	49.62
2464.356	52.62
2468.1	61.62
2471.84	47.62
2475.577	52.62
2479.311	40.62
2483.041	35.62
2486.768	21.62
2490.492	40.62
2494.213	47.62
2497.93	60.62
2501.644	72.62
2505.355	53.62
2509.062	53.62
2512.766	47.62
2516.467	69.62
2520.165	68.62
2523.859	72.62
2527.551	28.62
2531.239	77.62
2534.923	60.62
2538.605	59.62
2542.283	54.62
2545.958	54.62
2549.63	56.62
2553.299	72.62
2556.964	60.62
2560.626	57.62
2564.285	54.62
2567.941	77.62
2571.594	67.62
2575.243	43.62
2578.89	71.62
2582.533	68.62
2586.173	72.62
2589.809	41.62
2593.443	103.62
2597.073	68.62
2600.701	57.62
2604.325	57.62
2607.946	81.62
2611.564	58.62
2615.178	50.62
2618.79	63.62
2622.398	82.62
2626.004	65.62
2629.606	51.62
2633.205	70.62
2636.801	46.62
2640.394	49.62
2643.983	58.62
2647.57	79.62
2651.153	64.62
2654.734	46.62
2658.311	81.62
2661.885	67.62
2665.456	66.62
2669.025	72.62
2672.589	83.62
2676.151	58.62
2679.71	61.62
2683.266	89.62
2686.819	79.62
2690.368	77.62
2693.915	85.62
2697.458	95.62
2700.999	95.62
2704.536	99.62
2708.071	105.62
2711.602	113.62
2715.13	139.62
2718.656	150.62
2722.178	151.62
2725.697	158.62
2729.214	141.62
2732.727	133.62
2736.237	153.62
2739.744	134.62
2743.249	146.62
2746.75	124.62
2750.248	144.62
2753.743	134.62
2757.236	127.62
2760.725	115.62
2764.211	169.62
2767.695	115.62
2771.175	109.62
2774.652	104.62
2778.127	124.62
2781.598	124.62
2785.067	122.62
2788.532	151.62
2791.995	132.62
2795.455	135.62
2798.911	137.62
2802.365	166.62
2805.816	165.62
2809.264	145.62
2812.709	190.62
2816.151	204.62
2819.59	240.62
2823.026	244.62
2826.46	255.62
2829.89	256.62
2833.318	331.62
2836.742	310.62
2840.164	318.62
2843.583	346.62
2846.999	361.62
2850.412	378.62
2853.822	413.62
2857.229	406.62
2860.634	459.62
2864.035	524.62
2867.434	541.62
2870.83	636.62
2874.223	712.62
2877.613	755.62
2881	819.62
2884.385	925.62
2887.766	1115.62
2891.145	825.62
2894.521	761.62
2897.894	746.62
2901.264	697.62
2904.631	680.62
2907.996	662.62
2911.358	652.62
2914.717	673.62
2918.073	735.62
2921.426	788.62
2924.777	867.62
2928.124	934.62
2931.469	979.62
2934.811	1022.62
2938.15	922.62
2941.487	858.62
2944.821	711.62
2948.152	666.62
2951.48	586.62
2954.805	535.62
2958.128	474.62
2961.447	471.62
2964.765	450.62
2968.079	468.62
2971.39	453.62
2974.699	480.62
2978.005	465.62
2981.308	433.62
2984.609	420.62
2987.907	357.62
2991.202	312.62
2994.494	295.62
2997.784	242.62
3001.07	218.62
3004.355	188.62
3007.636	194.62
3010.915	160.62
3014.191	151.62
3017.464	161.62
3020.734	125.62
3024.002	114.62
3027.267	122.62
3030.53	115.62
3033.789	112.62
3037.046	135.62
3040.301	100.62
3043.552	97.62
3046.801	78.62
3050.048	72.62
3053.291	63.62
3056.532	71.62
3059.771	98.62
3063.006	78.62
3066.239	69.62
3069.469	79.62
3072.697	89.62
3075.922	86.62
3079.144	75.62
3082.364	47.62
3085.581	71.62
3088.795	36.62
3092.007	57.62
3095.216	56.62
3098.423	62.62
3101.627	86.62
3104.828	64.62
3108.026	72.62
3111.222	73.62
3114.416	54.62
3117.607	46.62
3120.795	55.62
3123.98	70.62
3127.163	91.62
3130.344	61.62
3133.521	78.62
3136.696	58.62
3139.869	65.62
3143.039	66.62
3146.206	33.62
3149.371	41.62
3152.533	53.62
3155.693	86.62
3158.85	62.62
3162.005	58.62
3165.157	59.62
3168.306	55.62
3171.453	43.62
3174.597	74.62
3177.739	91.62
3180.878	50.62
3184.014	56.62
3187.149	46.62
3190.28	50.62
3193.409	47.62
3196.536	47.62
3199.659	47.62
3202.781	48.62
3205.9	69.62
3209.016	67.62
3212.13	47.62
3215.241	64.62
3218.35	47.62
3221.456	59.62
3224.56	74.62
3227.661	64.62
3230.76	60.62
3233.856	76.62
3236.95	56.62
3240.041	80.62
3243.13	37.62
3246.216	63.62
3249.3	44.62
3252.382	44.62
3255.46	76.62
3258.537	100.62
3261.611	71.62
3264.682	44.62
3267.751	62.62
3270.818	69.62
3273.882	52.62
3276.943	51.62
3280.002	32.62
3283.059	68.62
3286.113	42.62
3289.165	51.62
3292.214	51.62
3295.261	49.62
3298.306	80.62
3301.348	57.62
3304.387	46.62
3307.425	47.62
3310.459	57.62
3313.492	37.62
3316.521	50.62
3319.549	46.62
3322.574	28.62
3325.597	44.62
3328.617	36.62
3331.635	54.62
3334.65	54.62
3337.663	36.62
3340.674	52.62
3343.682	49.62
3346.688	40.62
3349.691	47.62
3352.692	59.62
3355.691	38.62
3358.687	39.62
3361.681	37.62
3364.673	49.62
3367.662	41.62
3370.649	34.62
3373.633	56.62
3376.615	41.62
3379.595	87.62
3382.572	37.62
3385.547	53.62
3388.52	67.62
3391.49	50.62
3394.458	39.62
3397.424	33.62
3400.387	52.62
3403.348	37.62
3406.307	38.62
3409.263	54.62
3412.217	20.62
3415.168	44.62
3418.118	43.62
3421.065	48.62
3424.009	20.62
3426.951	50.62
3429.891	43.62
3432.829	57.62
3435.764	33.62
3438.697	52.62
3441.628	28.62
3444.557	48.62
3447.483	49.62
3450.407	32.62
3453.328	52.62
3456.247	46.62
3459.164	70.62
3462.079	33.62
3464.991	41.62
3467.902	46.62
3470.809	30.62
3473.715	21.62
3476.618	51.62
3479.519	28.62
3482.418	58.62
3485.315	52.62
3488.209	35.62
3491.101	25.62
3493.99	31.62
3496.878	28.62
3499.763	14.62
3502.646	26.62
3505.527	55.62
3508.405	47.62
3511.281	54.62
3514.155	31.62
3517.027	31.62
3519.897	55.62
3522.764	23.62
3525.629	39.62
3528.492	43.62
3531.352	24.62
3534.211	26.62
3537.067	36.62
3539.921	52.62
3542.773	34.62
3545.622	38.62
3548.469	58.62
3551.315	46.62
3554.157	44.62
3556.998	38.62
3559.837	30.62
3562.673	17.62
3565.507	44.62
3568.339	41.62
3571.169	42.62
3573.996	34.62
3576.822	43.62
3579.645	54.62
3582.466	40.62
3585.285	19.62
3588.101	36.62
3590.916	28.62
3593.728	30.62
3596.538	30.62
3599.346	18.62
3602.152	34.62
3604.956	28.62
3607.757	27.62
3610.556	39.62
3613.354	32.62
3616.149	24.62
3618.942	16.62
3621.732	8.62
3624.521	52.62
3627.307	35.62
3630.092	20.62
3632.874	20.62
3635.654	29.62
3638.432	44.62
3641.208	25.62
3643.982	28.62
3646.753	18.62
3649.523	64.62
3652.29	35.62
3655.055	21.62
3657.818	31.62
3660.579	19.62
3663.338	41.62
3666.095	38.62
3668.849	67.62
3671.602	14.62
3674.352	64.62
3677.101	24.62
3679.847	8.62
3682.591	37.62
3685.333	50.62
3688.073	24.62
3690.811	38.62
3693.547	38.62
3696.281	35.62
3699.013	31.62
3701.742	24.62
3704.47	39.62
3707.195	19.62
3709.919	27.62
3712.64	38.62
3715.359	35.62
3718.076	11.62
3720.792	22.62
3723.505	32.62
3726.216	21.62
3728.925	37.62
3731.632	36.62
3734.336	39.62
3737.039	31.62
3739.74	37.62
3742.439	90.62
3745.136	26.62
3747.83	23.62
3750.523	20.62
3753.213	158.62
3755.902	28.62
3758.589	49.62
3761.273	36.62
3763.956	9.62
3766.636	47.62
3769.315	13.62
3771.991	35.62
3774.665	36.62
3777.338	28.62
3780.008	36.62
3782.677	37.62
3785.343	44.62
3788.007	47.62
3790.67	25.62
3793.33	31.62
3795.989	36.62
3798.645	18.62
3801.299	47.62
3803.952	36.62
3806.602	25.62
3809.251	18.62
3811.897	24.62
3814.542	34.62
3817.184	32.62
3819.825	20.62
3822.463	24.62
3825.1	20.62
3827.735	26.62
3830.367	30.62
3832.998	11.62
3835.627	15.62
3838.253	8.62
3840.878	38.62
3843.501	14.62
3846.122	28.62
3848.741	16.62
3851.358	24.62
3853.973	53.62
3856.586	28.62
3859.197	18.62
3861.806	19.62
3864.414	35.62
3867.019	46.62
3869.622	36.62
3872.224	38.62
3874.823	35.62
3877.421	38.62
3880.016	32.62
3882.61	35.62
3885.202	43.62
3887.792	48.62
3890.38	27.62
3892.966	45.62
3895.55	59.62
3898.132	24.62
3900.713	27.62
3903.291	41.62
3905.868	47.62
3908.442	22.62
3911.015	21.62
3913.586	35.62
3916.155	24.62
3918.722	32.62
3921.287	20.62
3923.85	54.62
3926.411	29.62
3928.971	26.62
3931.528	26.62
3934.084	32.62
3936.638	26.62
3939.19	36.62
3941.74	19.62
3944.288	14.62
3946.834	40.62
3949.378	13.62
3951.921	54.62
3954.462	44.62
3957	30.62
3959.537	29.62
3962.072	54.62
3964.606	58.62
3967.137	25.62
3969.667	30.62
3972.194	25.62
3974.72	41.62
3977.244	74.62
3979.766	58.62
3982.286	49.62
3984.805	24.62
3987.321	19.62
3989.836	35.62
3992.349	39.62
3994.86	32.62
3997.369	28.62
3999.877	37.62
4002.382	39.62
4004.886	28.62
4007.388	37.62
4009.888	16.62
4012.386	22.62
4014.883	17.62
4017.377	33.62
4019.87	33.62
4022.361	39.62
4024.85	29.62
4027.338	24.62
4029.823	28.62
4032.307	26.62
4034.789	24.62
4037.269	27.62
4039.747	46.62
4042.224	22.62
4044.699	57.62
4047.172	28.62
4049.643	1.62
4052.112	53.62
4054.58	26.62
4057.046	33.62
4059.51	31.62
4061.972	37.62
4064.432	60.62
4066.891	11.62
4069.348	21.62
4071.803	9.62
4074.256	22.62
4076.708	20.62
4079.158	29.62
4081.606	-1.38
4084.052	29.62
4086.497	17.62
4088.939	31.62
4091.38	34.62
4093.819	12.62
4096.257	-40.38
4098.693	-45.38
4101.127	-55.38
4103.559	-34.38
4105.989	37.62
4108.418	27.62
4110.845	42.62
4113.27	24.62
4115.694	26.62
4118.115	44.62
4120.535	8.62
4122.954	14.62
4125.37	9.62
4127.785	11.62
4130.198	18.62
4132.609	22.62
4135.019	-52.38
4137.427	-41.38
4139.833	-47.38
4142.237	-44.38
