Data from I0.35_T40s_H-5_RamanShift_11-49-48-668.txt Node
Date: Sun Apr 23 11:49:48 IDT 2017
User: aro
Spectrometer: QEPB0276
Trigger mode: 0
Integration Time (sec): 5.000000E1
Scans to average: 1
Electric dark correction enabled: true
Nonlinearity correction enabled: false
Boxcar width: 0
XAxis mode: Raman Shifts
Number of Pixels in Spectrum: 1044
>>>>>Begin Spectral Data<<<<<
160.701	23.75
166.742	39.75
172.777	73.75
178.805	165.75
184.826	334.75
190.841	591.75
196.849	958.75
202.85	1116.75
208.845	1169.75
214.833	1103.75
220.815	1091.75
226.789	1057.75
232.758	1012.75
238.719	1009.75
244.674	1009.75
250.623	968.75
256.565	962.75
262.5	941.75
268.429	915.75
274.351	900.75
280.267	881.75
286.176	832.75
292.079	820.75
297.975	755.75
303.865	719.75
309.748	669.75
315.625	669.75
321.495	615.75
327.359	613.75
333.217	592.75
339.068	596.75
344.912	580.75
350.751	598.75
356.583	582.75
362.408	563.75
368.227	582.75
374.04	596.75
379.847	625.75
385.647	647.75
391.44	720.75
397.228	745.75
403.009	818.75
408.784	971.75
414.553	1184.75
420.315	1532.75
426.071	2014.75
431.821	2451.75
437.565	2725.75
443.302	2643.75
449.033	2300.75
454.758	1846.75
460.477	1457.75
466.189	1161.75
471.896	968.75
477.596	798.75
483.29	729.75
488.978	651.75
494.66	631.75
500.335	583.75
506.005	537.75
511.668	493.75
517.325	466.75
522.977	462.75
528.622	404.75
534.261	409.75
539.894	416.75
545.521	399.75
551.141	417.75
556.756	403.75
562.365	392.75
567.968	390.75
573.565	375.75
579.155	364.75
584.74	377.75
590.319	369.75
595.892	370.75
601.459	352.75
607.02	364.75
612.575	371.75
618.124	338.75
623.667	371.75
629.204	344.75
634.735	361.75
640.261	373.75
645.781	389.75
651.294	410.75
656.802	371.75
662.304	355.75
667.8	334.75
673.29	361.75
678.775	351.75
684.254	359.75
689.726	379.75
695.193	342.75
700.655	349.75
706.11	362.75
711.56	342.75
717.004	323.75
722.442	365.75
727.874	349.75
733.301	354.75
738.722	372.75
744.137	357.75
749.547	383.75
754.951	388.75
760.349	398.75
765.741	376.75
771.128	419.75
776.509	457.75
781.885	461.75
787.254	493.75
792.618	546.75
797.977	556.75
803.33	605.75
808.677	669.75
814.019	710.75
819.355	725.75
824.686	742.75
830.011	774.75
835.33	804.75
840.644	860.75
845.952	1055.75
851.255	1181.75
856.552	1485.75
861.844	2016.75
867.13	3012.75
872.41	5193.75
877.686	9376.75
882.955	15009.75
888.219	18062.75
893.478	15287.75
898.731	9183.75
903.979	4702.75
909.221	2695.75
914.458	1821.75
919.69	1375.75
924.916	1121.75
930.136	928.75
935.351	836.75
940.561	741.75
945.766	702.75
950.965	630.75
956.158	632.75
961.347	601.75
966.529	586.75
971.707	555.75
976.879	582.75
982.046	602.75
987.208	665.75
992.364	705.75
997.515	778.75
1002.66	870.75
1007.801	1011.75
1012.936	1209.75
1018.066	1469.75
1023.19	1746.75
1028.309	2234.75
1033.423	2892.75
1038.532	3656.75
1043.636	4590.75
1048.734	5620.75
1053.827	6480.75
1058.915	6467.75
1063.998	5561.75
1069.075	4480.75
1074.147	3873.75
1079.214	3930.75
1084.276	4359.75
1089.333	5197.75
1094.385	6176.75
1099.431	6793.75
1104.472	6308.75
1109.509	5136.75
1114.54	3922.75
1119.565	3121.75
1124.586	2714.75
1129.602	2345.75
1134.613	1982.75
1139.618	1640.75
1144.619	1349.75
1149.614	1132.75
1154.604	1040.75
1159.589	948.75
1164.57	829.75
1169.545	735.75
1174.515	658.75
1179.48	630.75
1184.44	567.75
1189.395	541.75
1194.345	539.75
1199.29	521.75
1204.23	540.75
1209.165	557.75
1214.095	539.75
1219.021	566.75
1223.941	607.75
1228.856	657.75
1233.766	711.75
1238.672	763.75
1243.572	820.75
1248.467	919.75
1253.358	1015.75
1258.244	1197.75
1263.124	1415.75
1268	1787.75
1272.871	2378.75
1277.737	2890.75
1282.599	3063.75
1287.455	2684.75
1292.306	2123.75
1297.153	1712.75
1301.995	1396.75
1306.832	1221.75
1311.664	1122.75
1316.491	1071.75
1321.314	997.75
1326.132	970.75
1330.945	949.75
1335.753	918.75
1340.556	923.75
1345.354	934.75
1350.148	956.75
1354.937	972.75
1359.722	1020.75
1364.501	1060.75
1369.276	1097.75
1374.046	1158.75
1378.811	1329.75
1383.572	1445.75
1388.327	1536.75
1393.079	1634.75
1397.825	1680.75
1402.567	1737.75
1407.304	1859.75
1412.036	2006.75
1416.764	2203.75
1421.487	2401.75
1426.205	2651.75
1430.919	2983.75
1435.628	3414.75
1440.333	4068.75
1445.032	5002.75
1449.727	6245.75
1454.418	7517.75
1459.104	8157.75
1463.785	7569.75
1468.462	6207.75
1473.134	4939.75
1477.802	4201.75
1482.465	3965.75
1487.123	3703.75
1491.777	3424.75
1496.426	2979.75
1501.071	2399.75
1505.711	2031.75
1510.347	1742.75
1514.978	1522.75
1519.604	1362.75
1524.226	1216.75
1528.844	1128.75
1533.457	986.75
1538.065	905.75
1542.669	829.75
1547.269	759.75
1551.864	711.75
1556.454	673.75
1561.041	613.75
1565.622	593.75
1570.199	545.75
1574.772	515.75
1579.34	459.75
1583.904	433.75
1588.464	434.75
1593.019	381.75
1597.569	372.75
1602.115	381.75
1606.657	370.75
1611.195	340.75
1615.728	345.75
1620.256	349.75
1624.78	377.75
1629.3	320.75
1633.816	298.75
1638.327	281.75
1642.834	272.75
1647.336	260.75
1651.834	243.75
1656.328	251.75
1660.817	240.75
1665.302	236.75
1669.783	229.75
1674.259	261.75
1678.732	236.75
1683.199	240.75
1687.663	231.75
1692.122	220.75
1696.577	203.75
1701.028	180.75
1705.474	208.75
1709.917	206.75
1714.355	191.75
1718.788	194.75
1723.218	209.75
1727.643	210.75
1732.064	174.75
1736.481	186.75
1740.893	157.75
1745.301	148.75
1749.705	172.75
1754.105	130.75
1758.501	129.75
1762.893	118.75
1767.28	137.75
1771.663	117.75
1776.042	112.75
1780.417	103.75
1784.787	82.75
1789.154	85.75
1793.516	85.75
1797.874	90.75
1802.228	118.75
1806.578	114.75
1810.924	77.75
1815.266	281.75
1819.603	65.75
1823.937	87.75
1828.266	83.75
1832.591	82.75
1836.913	75.75
1841.23	78.75
1845.543	80.75
1849.852	67.75
1854.156	86.75
1858.457	81.75
1862.754	94.75
1867.047	79.75
1871.335	45.75
1875.62	86.75
1879.9	80.75
1884.177	89.75
1888.449	61.75
1892.718	62.75
1896.982	78.75
1901.243	92.75
1905.499	69.75
1909.752	101.75
1914	110.75
1918.245	65.75
1922.485	72.75
1926.722	78.75
1930.954	75.75
1935.183	75.75
1939.408	57.75
1943.628	79.75
1947.845	67.75
1952.058	75.75
1956.267	92.75
1960.472	74.75
1964.673	71.75
1968.87	89.75
1973.063	79.75
1977.252	76.75
1981.438	71.75
1985.619	72.75
1989.797	108.75
1993.971	70.75
1998.14	56.75
2002.306	79.75
2006.469	58.75
2010.627	69.75
2014.781	66.75
2018.932	78.75
2023.078	46.75
2027.221	55.75
2031.36	59.75
2035.495	65.75
2039.627	72.75
2043.754	47.75
2047.878	49.75
2051.998	53.75
2056.114	69.75
2060.226	57.75
2064.334	66.75
2068.439	56.75
2072.54	63.75
2076.637	92.75
2080.73	86.75
2084.82	103.75
2088.906	110.75
2092.988	99.75
2097.066	90.75
2101.14	65.75
2105.211	70.75
2109.278	60.75
2113.342	65.75
2117.401	94.75
2121.457	88.75
2125.509	98.75
2129.558	50.75
2133.602	64.75
2137.643	83.75
2141.681	98.75
2145.714	79.75
2149.744	73.75
2153.77	80.75
2157.793	87.75
2161.812	100.75
2165.827	133.75
2169.838	69.75
2173.846	84.75
2177.851	83.75
2181.851	77.75
2185.848	101.75
2189.841	69.75
2193.831	82.75
2197.817	88.75
2201.799	66.75
2205.778	96.75
2209.753	98.75
2213.725	98.75
2217.693	65.75
2221.657	104.75
2225.618	56.75
2229.575	78.75
2233.529	76.75
2237.479	103.75
2241.425	98.75
2245.368	103.75
2249.307	117.75
2253.243	104.75
2257.175	119.75
2261.104	119.75
2265.029	102.75
2268.95	95.75
2272.868	116.75
2276.783	125.75
2280.694	108.75
2284.601	122.75
2288.505	110.75
2292.405	86.75
2296.302	111.75
2300.195	97.75
2304.085	121.75
2307.971	87.75
2311.854	106.75
2315.734	85.75
2319.609	80.75
2323.482	112.75
2327.351	85.75
2331.216	87.75
2335.078	77.75
2338.937	98.75
2342.792	97.75
2346.643	92.75
2350.492	61.75
2354.336	77.75
2358.178	74.75
2362.015	88.75
2365.85	75.75
2369.681	85.75
2373.508	72.75
2377.333	68.75
2381.153	95.75
2384.971	102.75
2388.785	73.75
2392.595	79.75
2396.402	81.75
2400.206	111.75
2404.007	104.75
2407.804	74.75
2411.597	88.75
2415.388	91.75
2419.174	82.75
2422.958	120.75
2426.738	103.75
2430.515	98.75
2434.289	105.75
2438.059	112.75
2441.825	111.75
2445.589	77.75
2449.349	137.75
2453.106	102.75
2456.859	119.75
2460.61	119.75
2464.356	131.75
2468.1	141.75
2471.84	131.75
2475.577	133.75
2479.311	115.75
2483.041	116.75
2486.768	91.75
2490.492	123.75
2494.213	136.75
2497.93	140.75
2501.644	162.75
2505.355	139.75
2509.062	135.75
2512.766	146.75
2516.467	159.75
2520.165	171.75
2523.859	195.75
2527.551	136.75
2531.239	202.75
2534.923	198.75
2538.605	210.75
2542.283	204.75
2545.958	222.75
2549.63	223.75
2553.299	248.75
2556.964	239.75
2560.626	228.75
2564.285	205.75
2567.941	241.75
2571.594	219.75
2575.243	188.75
2578.89	228.75
2582.533	224.75
2586.173	227.75
2589.809	194.75
2593.443	281.75
2597.073	231.75
2600.701	221.75
2604.325	220.75
2607.946	242.75
2611.564	215.75
2615.178	207.75
2618.79	241.75
2622.398	245.75
2626.004	228.75
2629.606	220.75
2633.205	239.75
2636.801	225.75
2640.394	228.75
2643.983	238.75
2647.57	266.75
2651.153	255.75
2654.734	239.75
2658.311	297.75
2661.885	276.75
2665.456	285.75
2669.025	311.75
2672.589	330.75
2676.151	308.75
2679.71	336.75
2683.266	391.75
2686.819	404.75
2690.368	416.75
2693.915	480.75
2697.458	534.75
2700.999	585.75
2704.536	641.75
2708.071	727.75
2711.602	798.75
2715.13	875.75
2718.656	924.75
2722.178	934.75
2725.697	943.75
2729.214	915.75
2732.727	877.75
2736.237	888.75
2739.744	847.75
2743.249	850.75
2746.75	843.75
2750.248	872.75
2753.743	867.75
2757.236	860.75
2760.725	806.75
2764.211	855.75
2767.695	761.75
2771.175	734.75
2774.652	714.75
2778.127	743.75
2781.598	738.75
2785.067	777.75
2788.532	812.75
2791.995	825.75
2795.455	872.75
2798.911	902.75
2802.365	1004.75
2805.816	1041.75
2809.264	1090.75
2812.709	1225.75
2816.151	1304.75
2819.59	1472.75
2823.026	1601.75
2826.46	1753.75
2829.89	1884.75
2833.318	2138.75
2836.742	2240.75
2840.164	2356.75
2843.583	2503.75
2846.999	2601.75
2850.412	2752.75
2853.822	2935.75
2857.229	3109.75
2860.634	3408.75
2864.035	3791.75
2867.434	4172.75
2870.83	4752.75
2874.223	5344.75
2877.613	5861.75
2881	6208.75
2884.385	6323.75
2887.766	6267.75
2891.145	6067.75
2894.521	5831.75
2897.894	5609.75
2901.264	5343.75
2904.631	5214.75
2907.996	5084.75
2911.358	5047.75
2914.717	5184.75
2918.073	5445.75
2921.426	5931.75
2924.777	6554.75
2928.124	7236.75
2931.469	7733.75
2934.811	7737.75
2938.15	7233.75
2941.487	6484.75
2944.821	5681.75
2948.152	5035.75
2951.48	4466.75
2954.805	4005.75
2958.128	3686.75
2961.447	3491.75
2964.765	3435.75
2968.079	3515.75
2971.39	3559.75
2974.699	3629.75
2978.005	3558.75
2981.308	3373.75
2984.609	3119.75
2987.907	2733.75
2991.202	2388.75
2994.494	2093.75
2997.784	1815.75
3001.07	1594.75
3004.355	1421.75
3007.636	1291.75
3010.915	1153.75
3014.191	1059.75
3017.464	985.75
3020.734	856.75
3024.002	801.75
3027.267	738.75
3030.53	687.75
3033.789	648.75
3037.046	643.75
3040.301	570.75
3043.552	536.75
3046.801	500.75
3050.048	452.75
3053.291	422.75
3056.532	420.75
3059.771	438.75
3063.006	396.75
3066.239	372.75
3069.469	366.75
3072.697	369.75
3075.922	355.75
3079.144	332.75
3082.364	288.75
3085.581	308.75
3088.795	248.75
3092.007	259.75
3095.216	262.75
3098.423	262.75
3101.627	289.75
3104.828	250.75
3108.026	261.75
3111.222	245.75
3114.416	224.75
3117.607	211.75
3120.795	219.75
3123.98	234.75
3127.163	257.75
3130.344	229.75
3133.521	236.75
3136.696	198.75
3139.869	215.75
3143.039	219.75
3146.206	176.75
3149.371	191.75
3152.533	205.75
3155.693	235.75
3158.85	202.75
3162.005	197.75
3165.157	213.75
3168.306	191.75
3171.453	180.75
3174.597	224.75
3177.739	245.75
3180.878	197.75
3184.014	200.75
3187.149	183.75
3190.28	195.75
3193.409	192.75
3196.536	194.75
3199.659	196.75
3202.781	200.75
3205.9	224.75
3209.016	225.75
3212.13	195.75
3215.241	220.75
3218.35	196.75
3221.456	207.75
3224.56	236.75
3227.661	212.75
3230.76	212.75
3233.856	228.75
3236.95	225.75
3240.041	233.75
3243.13	188.75
3246.216	215.75
3249.3	193.75
3252.382	191.75
3255.46	222.75
3258.537	264.75
3261.611	220.75
3264.682	187.75
3267.751	206.75
3270.818	219.75
3273.882	197.75
3276.943	194.75
3280.002	163.75
3283.059	210.75
3286.113	181.75
3289.165	192.75
3292.214	185.75
3295.261	173.75
3298.306	208.75
3301.348	188.75
3304.387	175.75
3307.425	172.75
3310.459	180.75
3313.492	157.75
3316.521	174.75
3319.549	158.75
3322.574	144.75
3325.597	166.75
3328.617	155.75
3331.635	170.75
3334.65	172.75
3337.663	148.75
3340.674	166.75
3343.682	160.75
3346.688	148.75
3349.691	155.75
3352.692	161.75
3355.691	150.75
3358.687	139.75
3361.681	142.75
3364.673	151.75
3367.662	139.75
3370.649	123.75
3373.633	160.75
3376.615	143.75
3379.595	196.75
3382.572	134.75
3385.547	155.75
3388.52	166.75
3391.49	132.75
3394.458	132.75
3397.424	123.75
3400.387	145.75
3403.348	121.75
3406.307	128.75
3409.263	138.75
3412.217	105.75
3415.168	127.75
3418.118	117.75
3421.065	123.75
3424.009	84.75
3426.951	129.75
3429.891	113.75
3432.829	138.75
3435.764	99.75
3438.697	127.75
3441.628	86.75
3444.557	112.75
3447.483	110.75
3450.407	92.75
3453.328	102.75
3456.247	90.75
3459.164	135.75
3462.079	84.75
3464.991	87.75
3467.902	92.75
3470.809	70.75
3473.715	65.75
3476.618	90.75
3479.519	71.75
3482.418	97.75
3485.315	82.75
3488.209	71.75
3491.101	55.75
3493.99	59.75
3496.878	59.75
3499.763	38.75
3502.646	48.75
3505.527	81.75
3508.405	81.75
3511.281	85.75
3514.155	65.75
3517.027	54.75
3519.897	84.75
3522.764	41.75
3525.629	59.75
3528.492	60.75
3531.352	43.75
3534.211	34.75
3537.067	51.75
3539.921	73.75
3542.773	46.75
3545.622	52.75
3548.469	79.75
3551.315	54.75
3554.157	55.75
3556.998	50.75
3559.837	38.75
3562.673	21.75
3565.507	45.75
3568.339	44.75
3571.169	50.75
3573.996	34.75
3576.822	54.75
3579.645	63.75
3582.466	44.75
3585.285	18.75
3588.101	34.75
3590.916	30.75
3593.728	32.75
3596.538	33.75
3599.346	22.75
3602.152	42.75
3604.956	29.75
3607.757	17.75
3610.556	40.75
3613.354	33.75
3616.149	21.75
3618.942	8.75
3621.732	3.75
3624.521	50.75
3627.307	33.75
3630.092	13.75
3632.874	5.75
3635.654	24.75
3638.432	44.75
3641.208	22.75
3643.982	19.75
3646.753	9.75
3649.523	67.75
3652.29	27.75
3655.055	7.75
3657.818	20.75
3660.579	8.75
3663.338	41.75
3666.095	36.75
3668.849	67.75
3671.602	1.75
3674.352	66.75
3677.101	18.75
3679.847	-5.25
3682.591	26.75
3685.333	51.75
3688.073	15.75
3690.811	33.75
3693.547	38.75
3696.281	29.75
3699.013	24.75
3701.742	12.75
3704.47	29.75
3707.195	9.75
3709.919	15.75
3712.64	33.75
3715.359	27.75
3718.076	-0.25
3720.792	21.75
3723.505	29.75
3726.216	15.75
3728.925	33.75
3731.632	19.75
3734.336	42.75
3737.039	24.75
3739.74	24.75
3742.439	99.75
3745.136	19.75
3747.83	15.75
3750.523	6.75
3753.213	183.75
3755.902	11.75
3758.589	47.75
3761.273	28.75
3763.956	5.75
3766.636	43.75
3769.315	4.75
3771.991	27.75
3774.665	32.75
3777.338	13.75
3780.008	29.75
3782.677	32.75
3785.343	32.75
3788.007	44.75
3790.67	18.75
3793.33	30.75
3795.989	27.75
3798.645	0.75
3801.299	41.75
3803.952	26.75
3806.602	10.75
3809.251	13.75
3811.897	16.75
3814.542	23.75
3817.184	28.75
3819.825	17.75
3822.463	16.75
3825.1	9.75
3827.735	19.75
3830.367	23.75
3832.998	-3.25
3835.627	9.75
3838.253	1.75
3840.878	28.75
3843.501	-3.25
3846.122	14.75
3848.741	8.75
3851.358	16.75
3853.973	52.75
3856.586	18.75
3859.197	6.75
3861.806	5.75
3864.414	26.75
3867.019	51.75
3869.622	26.75
3872.224	34.75
3874.823	25.75
3877.421	24.75
3880.016	24.75
3882.61	27.75
3885.202	37.75
3887.792	32.75
3890.38	17.75
3892.966	39.75
3895.55	54.75
3898.132	10.75
3900.713	22.75
3903.291	32.75
3905.868	38.75
3908.442	14.75
3911.015	10.75
3913.586	28.75
3916.155	7.75
3918.722	27.75
3921.287	12.75
3923.85	49.75
3926.411	19.75
3928.971	11.75
3931.528	15.75
3934.084	18.75
3936.638	12.75
3939.19	23.75
3941.74	2.75
3944.288	2.75
3946.834	32.75
3949.378	-2.25
3951.921	44.75
3954.462	34.75
3957	18.75
3959.537	19.75
3962.072	46.75
3964.606	57.75
3967.137	13.75
3969.667	17.75
3972.194	14.75
3974.72	30.75
3977.244	75.75
3979.766	52.75
3982.286	46.75
3984.805	15.75
3987.321	11.75
3989.836	25.75
3992.349	34.75
3994.86	20.75
3997.369	20.75
3999.877	25.75
4002.382	32.75
4004.886	23.75
4007.388	32.75
4009.888	2.75
4012.386	8.75
4014.883	13.75
4017.377	25.75
4019.87	23.75
4022.361	30.75
4024.85	18.75
4027.338	16.75
4029.823	19.75
4032.307	15.75
4034.789	13.75
4037.269	19.75
4039.747	47.75
4042.224	16.75
4044.699	55.75
4047.172	28.75
4049.643	-4.25
4052.112	58.75
4054.58	15.75
4057.046	29.75
4059.51	28.75
4061.972	28.75
4064.432	72.75
4066.891	-2.25
4069.348	17.75
4071.803	-2.25
4074.256	15.75
4076.708	10.75
4079.158	17.75
4081.606	-17.25
4084.052	25.75
4086.497	-1.25
4088.939	23.75
4091.38	31.75
4093.819	4.75
4096.257	-69.25
4098.693	-72.25
4101.127	-85.25
4103.559	-64.25
4105.989	32.75
4108.418	17.75
4110.845	41.75
4113.27	21.75
4115.694	30.75
4118.115	51.75
4120.535	-6.25
4122.954	2.75
4125.37	-9.25
4127.785	-5.25
4130.198	9.75
4132.609	5.75
4135.019	-80.25
4137.427	-72.25
4139.833	-75.25
4142.237	-75.25
