Data from Tap water 1ml (I=.5_T=5x3)_RamanShift_1.txt Node
Date: Mon May 29 14:30:59 IDT 2017
User: aro
Spectrometer: QEPB0276
Trigger mode: 0
Integration Time (sec): 5.000000E0
Scans to average: 3
Electric dark correction enabled: true
Nonlinearity correction enabled: false
Boxcar width: 0
XAxis mode: Raman Shifts
Number of Pixels in Spectrum: 1044
>>>>>Begin Spectral Data<<<<<
160.701	1.71
166.742	3.71
172.777	5.71
178.805	24.04
184.826	68.04
190.841	134.71
196.849	213.71
202.85	265.37
208.845	277.71
214.833	272.71
220.815	258.71
226.789	257.38
232.758	251.04
238.719	246.71
244.674	240.38
250.623	233.04
256.565	224.71
262.5	212.71
268.429	210.04
274.351	209.04
280.267	201.04
286.176	198.71
292.079	192.71
297.975	187.71
303.865	189.04
309.748	190.04
315.625	184.38
321.495	189.04
327.359	186.04
333.217	186.71
339.068	183.37
344.912	185.04
350.751	185.71
356.583	187.71
362.408	187.71
368.227	191.04
374.04	197.37
379.847	206.04
385.647	204.04
391.44	207.04
397.228	202.38
403.009	199.71
408.784	214.04
414.553	238.37
420.315	268.04
426.071	265.71
431.821	237.04
437.565	208.04
443.302	201.04
449.033	197.71
454.758	191.04
460.477	187.04
466.189	193.71
471.896	183.71
477.596	182.71
483.29	185.04
488.978	178.04
494.66	176.37
500.335	172.71
506.005	166.37
511.668	152.37
517.325	140.71
522.977	133.37
528.622	129.04
534.261	124.04
539.894	119.71
545.521	119.38
551.141	114.71
556.756	112.04
562.365	113.71
567.968	112.37
573.565	111.37
579.155	111.38
584.74	104.71
590.319	108.37
595.892	105.04
601.459	104.04
607.02	105.37
612.575	104.04
618.124	101.04
623.667	102.37
629.204	100.37
634.735	100.37
640.261	105.37
645.781	113.71
651.294	116.37
656.802	110.04
662.304	100.38
667.8	94.04
673.29	90.37
678.775	89.71
684.254	88.37
689.726	87.37
695.193	85.04
700.655	84.37
706.11	83.38
711.56	81.71
717.004	82.71
722.442	83.04
727.874	80.71
733.301	82.04
738.722	84.37
744.137	85.04
749.547	83.71
754.951	83.71
760.349	85.37
765.741	82.04
771.128	81.04
776.509	80.38
781.885	79.04
787.254	82.71
792.618	82.37
797.977	83.04
803.33	78.37
808.677	79.38
814.019	77.04
819.355	77.37
824.686	77.71
830.011	73.71
835.33	74.04
840.644	70.37
845.952	71.37
851.255	69.37
856.552	69.04
861.844	65.38
867.13	65.37
872.41	65.71
877.686	63.71
882.955	62.71
888.219	59.04
893.478	59.04
898.731	55.04
903.979	58.37
909.221	54.71
914.458	55.71
919.69	56.71
924.916	55.71
930.136	53.04
935.351	52.37
940.561	55.71
945.766	52.71
950.965	53.37
956.158	53.04
961.347	51.38
966.529	51.37
971.707	50.71
976.879	50.38
982.046	50.38
987.208	47.37
992.364	48.04
997.515	49.71
1002.66	49.38
1007.801	48.71
1012.936	49.38
1018.066	48.37
1023.19	50.04
1028.309	53.71
1033.423	51.71
1038.532	51.71
1043.636	51.37
1048.734	52.04
1053.827	50.71
1058.915	50.38
1063.998	51.71
1069.075	47.04
1074.147	48.37
1079.214	50.71
1084.276	50.37
1089.333	49.37
1094.385	49.38
1099.431	50.04
1104.472	46.71
1109.509	47.04
1114.54	47.04
1119.565	47.71
1124.586	43.71
1129.602	44.38
1134.613	41.37
1139.618	43.38
1144.619	42.71
1149.614	43.37
1154.604	43.71
1159.589	46.37
1164.57	44.71
1169.545	44.71
1174.515	45.04
1179.48	40.37
1184.44	41.71
1189.395	45.37
1194.345	44.38
1199.29	43.71
1204.23	44.37
1209.165	42.71
1214.095	43.04
1219.021	43.04
1223.941	45.37
1228.856	44.37
1233.766	44.37
1238.672	42.04
1243.572	43.37
1248.467	41.71
1253.358	41.04
1258.244	38.37
1263.124	40.71
1268	40.71
1272.871	38.04
1277.737	36.37
1282.599	35.71
1287.455	37.04
1292.306	36.71
1297.153	37.04
1301.995	38.04
1306.832	39.71
1311.664	39.71
1316.491	39.37
1321.314	36.04
1326.132	36.71
1330.945	38.37
1335.753	37.04
1340.556	35.38
1345.354	33.38
1350.148	36.04
1354.937	33.38
1359.722	32.37
1364.501	32.38
1369.276	32.71
1374.046	35.71
1378.811	34.38
1383.572	35.71
1388.327	32.04
1393.079	34.04
1397.825	33.04
1402.567	30.71
1407.304	31.38
1412.036	31.71
1416.764	33.38
1421.487	30.71
1426.205	30.71
1430.919	30.04
1435.628	33.04
1440.333	31.71
1445.032	32.71
1449.727	33.37
1454.418	34.71
1459.104	33.04
1463.785	31.71
1468.462	32.71
1473.134	33.37
1477.802	31.71
1482.465	30.71
1487.123	34.71
1491.777	31.71
1496.426	33.37
1501.071	33.37
1505.711	34.71
1510.347	33.37
1514.978	31.71
1519.604	35.04
1524.226	34.04
1528.844	35.04
1533.457	33.71
1538.065	35.04
1542.669	33.71
1547.269	32.38
1551.864	34.04
1556.454	39.04
1561.041	40.71
1565.622	37.04
1570.199	35.71
1574.772	35.37
1579.34	35.04
1583.904	35.38
1588.464	37.04
1593.019	38.04
1597.569	38.38
1602.115	39.37
1606.657	39.71
1611.195	41.04
1615.728	39.37
1620.256	41.37
1624.78	42.71
1629.3	45.71
1633.816	46.04
1638.327	45.04
1642.834	48.71
1647.336	48.04
1651.834	47.71
1656.328	48.04
1660.817	46.38
1665.302	46.71
1669.783	43.71
1674.259	43.04
1678.732	39.71
1683.199	39.38
1687.663	39.71
1692.122	35.04
1696.577	34.04
1701.028	31.37
1705.474	31.37
1709.917	31.71
1714.355	28.71
1718.788	27.38
1723.218	27.38
1727.643	26.04
1732.064	25.71
1736.481	22.04
1740.893	22.04
1745.301	21.71
1749.705	18.04
1754.105	17.71
1758.501	20.04
1762.893	16.04
1767.28	17.04
1771.663	16.71
1776.042	17.71
1780.417	15.37
1784.787	17.04
1789.154	17.04
1793.516	16.04
1797.874	15.04
1802.228	16.71
1806.578	13.71
1810.924	17.71
1815.266	15.37
1819.603	12.04
1823.937	14.04
1828.266	13.71
1832.591	13.38
1836.913	10.71
1841.23	12.38
1845.543	12.37
1849.852	12.71
1854.156	12.71
1858.457	13.38
1862.754	13.04
1867.047	12.71
1871.335	13.71
1875.62	13.04
1879.9	10.71
1884.177	13.04
1888.449	12.04
1892.718	15.04
1896.982	14.04
1901.243	13.04
1905.499	14.71
1909.752	13.04
1914	13.37
1918.245	12.38
1922.485	12.04
1926.722	14.38
1930.954	13.04
1935.183	13.38
1939.408	14.71
1943.628	14.04
1947.845	17.04
1952.058	15.71
1956.267	13.37
1960.472	12.37
1964.673	13.04
1968.87	13.37
1973.063	12.71
1977.252	13.37
1981.438	12.37
1985.619	11.71
1989.797	10.71
1993.971	11.71
1998.14	10.38
2002.306	13.04
2006.469	12.71
2010.627	10.37
2014.781	15.04
2018.932	10.71
2023.078	10.38
2027.221	9.71
2031.36	8.71
2035.495	11.04
2039.627	10.71
2043.754	10.04
2047.878	13.71
2051.998	10.37
2056.114	11.04
2060.226	9.71
2064.334	12.04
2068.439	10.37
2072.54	11.04
2076.637	11.71
2080.73	11.71
2084.82	11.04
2088.906	10.04
2092.988	12.38
2097.066	8.71
2101.14	10.04
2105.211	11.04
2109.278	11.04
2113.342	10.71
2117.401	9.37
2121.457	9.38
2125.509	9.04
2129.558	11.04
2133.602	10.38
2137.643	8.04
2141.681	8.71
2145.714	8.71
2149.744	7.37
2153.77	8.71
2157.793	8.71
2161.812	7.37
2165.827	8.04
2169.838	8.04
2173.846	6.71
2177.851	7.71
2181.851	8.38
2185.848	6.71
2189.841	6.71
2193.831	5.71
2197.817	5.37
2201.799	6.04
2205.778	5.37
2209.753	5.04
2213.725	5.04
2217.693	6.71
2221.657	4.71
2225.618	5.37
2229.575	4.71
2233.529	6.71
2237.479	6.04
2241.425	6.04
2245.368	5.04
2249.307	4.04
2253.243	4.71
2257.175	5.71
2261.104	2.38
2265.029	2.71
2268.95	4.38
2272.868	4.04
2276.783	5.71
2280.694	2.71
2284.601	3.38
2288.505	4.04
2292.405	3.04
2296.302	4.37
2300.195	3.37
2304.085	3.71
2307.971	1.04
2311.854	3.38
2315.734	2.71
2319.609	2.37
2323.482	2.71
2327.351	0.71
2331.216	9.37
2335.078	7.71
2338.937	4.37
2342.792	1.04
2346.643	2.38
2350.492	1.37
2354.336	-0.29
2358.178	1.37
2362.015	1.38
2365.85	3.04
2369.681	1.37
2373.508	2.38
2377.333	2.04
2381.153	1.04
2384.971	1.71
2388.785	0.71
2392.595	1.04
2396.402	1.38
2400.206	2.04
2404.007	-0.29
2407.804	2.38
2411.597	-0.96
2415.388	1.37
2419.174	0.37
2422.958	3.37
2426.738	-1.62
2430.515	-1.29
2434.289	-0.96
2438.059	-1.62
2441.825	1.04
2445.589	0.04
2449.349	0.37
2453.106	0.37
2456.859	-0.96
2460.61	-2.63
2464.356	0.71
2468.1	-1.63
2471.84	-0.63
2475.577	-1.29
2479.311	-0.96
2483.041	-0.29
2486.768	-0.29
2490.492	-0.96
2494.213	-2.63
2497.93	0.38
2501.644	0.04
2505.355	-1.29
2509.062	-0.63
2512.766	-0.62
2516.467	-0.96
2520.165	-3.96
2523.859	-2.63
2527.551	-0.63
2531.239	-2.96
2534.923	-2.96
2538.605	-2.62
2542.283	-4.62
2545.958	-1.63
2549.63	-0.63
2553.299	-2.29
2556.964	-0.29
2560.626	-2.62
2564.285	0.04
2567.941	-1.29
2571.594	-1.96
2575.243	-2.62
2578.89	-2.63
2582.533	-2.62
2586.173	-1.62
2589.809	-1.63
2593.443	-2.96
2597.073	-3.29
2600.701	-4.63
2604.325	-3.29
2607.946	-3.29
2611.564	-2.62
2615.178	-4.63
2618.79	-2.29
2622.398	-2.63
2626.004	-2.62
2629.606	-1.63
2633.205	-1.63
2636.801	-1.29
2640.394	-2.29
2643.983	-2.29
2647.57	-2.63
2651.153	-4.29
2654.734	-1.63
2658.311	-2.63
2661.885	-1.62
2665.456	-6.29
2669.025	-2.96
2672.589	-3.29
2676.151	-1.96
2679.71	-1.96
2683.266	-4.63
2686.819	-2.96
2690.368	-3.29
2693.915	-1.96
2697.458	-3.63
2700.999	-2.63
2704.536	-0.96
2708.071	-3.29
2711.602	-1.96
2715.13	-2.96
2718.656	-2.63
2722.178	-2.96
2725.697	-2.63
2729.214	-1.63
2732.727	-3.29
2736.237	-1.96
2739.744	-3.62
2743.249	-2.62
2746.75	-3.96
2750.248	0.71
2753.743	-4.29
2757.236	-1.63
2760.725	-2.96
2764.211	-3.29
2767.695	-1.63
2771.175	-2.62
2774.652	-4.62
2778.127	-3.29
2781.598	-2.29
2785.067	-2.62
2788.532	-2.29
2791.995	-3.63
2795.455	-2.63
2798.911	-2.96
2802.365	-1.29
2805.816	-2.63
2809.264	-1.62
2812.709	-1.96
2816.151	-3.96
2819.59	-0.96
2823.026	-2.63
2826.46	-1.96
2829.89	-1.63
2833.318	-3.96
2836.742	-2.96
2840.164	-0.96
2843.583	-1.29
2846.999	-1.29
2850.412	-0.96
2853.822	-0.62
2857.229	-1.96
2860.634	-0.63
2864.035	0.38
2867.434	0.04
2870.83	0.04
2874.223	3.04
2877.613	-0.63
2881	2.04
2884.385	-2.29
2887.766	2.37
2891.145	-0.29
2894.521	0.37
2897.894	-0.96
2901.264	-0.96
2904.631	-1.29
2907.996	0.04
2911.358	0.71
2914.717	0.71
2918.073	-0.29
2921.426	1.71
2924.777	-0.29
2928.124	1.38
2931.469	2.37
2934.811	2.71
2938.15	3.71
2941.487	3.71
2944.821	3.37
2948.152	2.38
2951.48	5.71
2954.805	4.71
2958.128	4.37
2961.447	5.04
2964.765	4.71
2968.079	6.04
2971.39	5.04
2974.699	5.71
2978.005	5.37
2981.308	6.04
2984.609	6.38
2987.907	8.37
2991.202	8.04
2994.494	7.71
2997.784	9.71
3001.07	7.37
3004.355	7.71
3007.636	10.71
3010.915	12.04
3014.191	12.37
3017.464	13.04
3020.734	12.37
3024.002	11.71
3027.267	15.04
3030.53	15.04
3033.789	13.04
3037.046	13.04
3040.301	13.04
3043.552	13.04
3046.801	17.04
3050.048	16.71
3053.291	14.71
3056.532	15.38
3059.771	15.37
3063.006	18.71
3066.239	19.71
3069.469	19.04
3072.697	21.71
3075.922	24.04
3079.144	23.37
3082.364	23.04
3085.581	23.71
3088.795	25.37
3092.007	27.04
3095.216	25.71
3098.423	27.71
3101.627	29.04
3104.828	31.37
3108.026	29.37
3111.222	29.04
3114.416	30.04
3117.607	32.71
3120.795	32.37
3123.98	35.71
3127.163	36.71
3130.344	32.71
3133.521	36.37
3136.696	40.04
3139.869	37.04
3143.039	39.71
3146.206	40.37
3149.371	41.04
3152.533	40.37
3155.693	42.37
3158.85	42.71
3162.005	43.71
3165.157	43.04
3168.306	42.71
3171.453	45.71
3174.597	44.04
3177.739	44.37
3180.878	41.71
3184.014	43.37
3187.149	41.38
3190.28	42.37
3193.409	40.04
3196.536	47.37
3199.659	45.71
3202.781	46.04
3205.9	40.71
3209.016	45.37
3212.13	44.04
3215.241	45.04
3218.35	41.04
3221.456	40.71
3224.56	45.37
3227.661	40.71
3230.76	43.37
3233.856	42.04
3236.95	40.37
3240.041	41.38
3243.13	38.38
3246.216	39.37
3249.3	39.71
3252.382	40.37
3255.46	38.37
3258.537	39.38
3261.611	39.37
3264.682	39.04
3267.751	39.38
3270.818	43.38
3273.882	40.04
3276.943	40.04
3280.002	36.37
3283.059	37.04
3286.113	40.04
3289.165	37.38
3292.214	35.71
3295.261	34.04
3298.306	34.04
3301.348	35.38
3304.387	34.37
3307.425	34.71
3310.459	31.37
3313.492	33.04
3316.521	31.04
3319.549	33.71
3322.574	31.37
3325.597	30.71
3328.617	30.04
3331.635	32.38
3334.65	31.04
3337.663	30.37
3340.674	28.71
3343.682	30.37
3346.688	29.38
3349.691	33.38
3352.692	32.37
3355.691	29.71
3358.687	31.04
3361.681	29.37
3364.673	30.37
3367.662	29.37
3370.649	27.37
3373.633	28.37
3376.615	28.04
3379.595	29.04
3382.572	28.04
3385.547	27.04
3388.52	27.04
3391.49	27.04
3394.458	24.04
3397.424	28.37
3400.387	23.71
3403.348	24.71
3406.307	23.71
3409.263	24.37
3412.217	25.71
3415.168	23.38
3418.118	23.37
3421.065	22.37
3424.009	21.37
3426.951	22.71
3429.891	18.71
3432.829	21.04
3435.764	21.37
3438.697	19.38
3441.628	19.71
3444.557	20.37
3447.483	18.71
3450.407	19.04
3453.328	17.04
3456.247	15.04
3459.164	17.04
3462.079	16.04
3464.991	15.71
3467.902	13.71
3470.809	13.04
3473.715	12.71
3476.618	13.04
3479.519	12.71
3482.418	13.37
3485.315	12.37
3488.209	10.04
3491.101	11.04
3493.99	6.37
3496.878	9.04
3499.763	9.37
3502.646	7.37
3505.527	8.37
3508.405	8.04
3511.281	6.37
3514.155	6.71
3517.027	4.04
3519.897	4.71
3522.764	4.04
3525.629	3.04
3528.492	4.71
3531.352	1.37
3534.211	2.71
3537.067	1.37
3539.921	1.37
3542.773	-0.62
3545.622	1.71
3548.469	1.04
3551.315	0.37
3554.157	0.71
3556.998	0.71
3559.837	-1.96
3562.673	1.71
3565.507	-2.29
3568.339	-3.62
3571.169	-1.29
3573.996	-2.29
3576.822	-1.29
3579.645	-2.63
3582.466	-3.29
3585.285	-1.62
3588.101	-2.63
3590.916	-3.62
3593.728	-4.63
3596.538	-4.62
3599.346	-4.96
3602.152	-4.63
3604.956	-3.62
3607.757	-2.63
3610.556	-2.62
3613.354	-5.29
3616.149	-5.29
3618.942	-2.96
3621.732	-4.96
3624.521	-6.96
3627.307	-5.96
3630.092	-5.96
3632.874	-6.29
3635.654	-6.96
3638.432	-5.62
3641.208	-5.62
3643.982	-6.29
3646.753	-3.96
3649.523	-6.96
3652.29	-6.96
3655.055	-6.63
3657.818	-6.29
3660.579	-7.63
3663.338	-5.96
3666.095	-7.63
3668.849	-6.63
3671.602	-6.29
3674.352	-9.29
3677.101	-7.62
3679.847	-5.63
3682.591	-7.63
3685.333	-8.63
3688.073	-8.96
3690.811	-9.63
3693.547	-8.63
3696.281	-8.29
3699.013	-8.29
3701.742	-8.96
3704.47	-9.62
3707.195	-9.29
3709.919	-7.96
3712.64	-9.29
3715.359	-9.96
3718.076	-9.29
3720.792	-9.63
3723.505	-9.62
3726.216	-9.63
3728.925	-10.96
3731.632	-9.29
3734.336	-9.29
3737.039	-9.29
3739.74	-10.96
3742.439	-10.96
3745.136	-9.96
3747.83	-12.63
3750.523	-10.29
3753.213	-7.63
3755.902	-9.63
3758.589	-9.29
3761.273	-8.63
3763.956	-8.62
3766.636	-8.96
3769.315	-8.96
3771.991	-10.29
3774.665	-9.96
3777.338	-10.62
3780.008	-8.96
3782.677	-9.29
3785.343	-11.29
3788.007	-9.96
3790.67	-7.96
3793.33	-9.63
3795.989	-12.63
3798.645	-9.63
3801.299	-11.96
3803.952	-10.63
3806.602	-10.96
3809.251	-9.29
3811.897	-9.96
3814.542	-10.62
3817.184	-10.29
3819.825	-8.29
3822.463	-8.29
3825.1	-10.96
3827.735	-10.29
3830.367	-8.29
3832.998	-11.29
3835.627	-10.29
3838.253	-9.63
3840.878	-8.63
3843.501	-11.63
3846.122	-9.63
3848.741	-9.96
3851.358	-8.96
3853.973	-10.62
3856.586	-10.62
3859.197	-10.63
3861.806	-8.29
3864.414	-9.29
3867.019	-8.63
3869.622	-5.63
3872.224	-8.63
3874.823	-7.96
3877.421	-3.96
3880.016	-4.63
3882.61	1.71
3885.202	1.37
3887.792	-0.63
3890.38	-4.29
3892.966	-5.63
3895.55	-9.96
3898.132	-8.29
3900.713	-10.96
3903.291	-8.63
3905.868	-9.29
3908.442	-8.96
3911.015	-7.96
3913.586	-9.96
3916.155	-10.62
3918.722	-9.96
3921.287	-8.63
3923.85	-9.63
3926.411	-10.96
3928.971	-7.96
3931.528	-6.96
3934.084	-10.63
3936.638	-10.29
3939.19	-9.63
3941.74	-8.96
3944.288	-7.96
3946.834	-9.63
3949.378	-9.63
3951.921	-11.29
3954.462	-10.29
3957	-11.63
3959.537	-9.62
3962.072	-9.63
3964.606	-9.29
3967.137	-11.62
3969.667	-9.96
3972.194	-12.29
3974.72	-9.62
3977.244	-9.29
3979.766	-9.96
3982.286	-11.62
3984.805	-10.29
3987.321	-9.63
3989.836	-12.29
3992.349	-9.96
3994.86	-10.29
3997.369	-10.29
3999.877	-10.29
4002.382	-9.29
4004.886	-10.96
4007.388	-12.29
4009.888	-9.96
4012.386	-10.29
4014.883	-8.29
4017.377	-10.63
4019.87	-9.96
4022.361	-10.62
4024.85	-10.62
4027.338	-10.29
4029.823	-9.29
4032.307	-10.63
4034.789	-10.29
4037.269	-10.62
4039.747	-7.96
4042.224	-10.29
4044.699	-12.29
4047.172	-9.96
4049.643	-9.62
4052.112	-9.96
4054.58	-8.29
4057.046	-8.96
4059.51	-11.63
4061.972	-10.96
4064.432	-9.63
4066.891	-7.96
4069.348	-8.29
4071.803	-8.29
4074.256	-7.96
4076.708	-9.29
4079.158	-9.63
4081.606	-12.96
4084.052	-10.29
4086.497	-8.96
4088.939	-8.96
4091.38	-10.96
4093.819	-9.96
4096.257	-8.63
4098.693	-7.29
4101.127	-10.96
4103.559	-8.96
4105.989	-0.96
4108.418	0.71
4110.845	-1.29
4113.27	0.04
4115.694	0.37
4118.115	0.37
4120.535	-8.62
4122.954	-7.96
4125.37	-9.62
4127.785	-9.63
4130.198	-7.96
4132.609	-8.62
4135.019	-8.29
4137.427	-9.63
4139.833	-9.63
4142.237	-7.63
