Data from Tap water 3.5ml (I=1_T=5x3)_RamanShift_1.txt Node
Date: Mon May 29 14:00:59 IDT 2017
User: aro
Spectrometer: QEPB0276
Trigger mode: 0
Integration Time (sec): 5.000000E0
Scans to average: 3
Electric dark correction enabled: true
Nonlinearity correction enabled: false
Boxcar width: 0
XAxis mode: Raman Shifts
Number of Pixels in Spectrum: 1044
>>>>>Begin Spectral Data<<<<<
160.701	-44.37
166.742	0.96
172.777	128.63
178.805	529.63
184.826	1508.29
190.841	3175.63
196.849	5084.29
202.85	6339.62
208.845	6635.29
214.833	6399.29
220.815	6115.29
226.789	5884.96
232.758	5719.29
238.719	5498.96
244.674	5249.63
250.623	4970.96
256.565	4735.29
262.5	4466.96
268.429	4227.63
274.351	4041.96
280.267	3853.96
286.176	3681.29
292.079	3536.96
297.975	3391.96
303.865	3299.63
309.748	3198.63
315.625	3116.29
321.495	3041.29
327.359	3020.29
333.217	2960.96
339.068	2941.63
344.912	2924.29
350.751	2889.63
356.583	2894.96
362.408	2894.63
368.227	2901.96
374.04	2913.63
379.847	2952.96
385.647	2954.96
391.44	2968.96
397.228	2967.29
403.009	2960.96
408.784	3007.96
414.553	3073.63
420.315	3150.63
426.071	3147.29
431.821	3047.63
437.565	2979.29
443.302	2941.63
449.033	2908.29
454.758	2871.29
460.477	2868.63
466.189	2844.63
471.896	2818.96
477.596	2807.29
483.29	2780.96
488.978	2754.63
494.66	2730.96
500.335	2695.96
506.005	2677.96
511.668	2634.29
517.325	2580.29
522.977	2512.63
528.622	2455.96
534.261	2414.96
539.894	2381.63
545.521	2355.96
551.141	2339.63
556.756	2325.96
562.365	2299.29
567.968	2269.29
573.565	2256.29
579.155	2223.63
584.74	2200.29
590.319	2179.63
595.892	2161.96
601.459	2127.96
607.02	2102.96
612.575	2079.63
618.124	2058.29
623.667	2027.96
629.204	2000.29
634.735	1990.63
640.261	2001.29
645.781	1996.29
651.294	1979.96
656.802	1963.63
662.304	1907.29
667.8	1881.96
673.29	1862.96
678.775	1842.29
684.254	1834.29
689.726	1815.63
695.193	1794.63
700.655	1771.63
706.11	1749.63
711.56	1731.29
717.004	1704.29
722.442	1699.63
727.874	1669.96
733.301	1662.96
738.722	1653.96
744.137	1638.63
749.547	1632.96
754.951	1622.63
760.349	1608.96
765.741	1587.63
771.128	1580.29
776.509	1569.63
781.885	1552.29
787.254	1542.63
792.618	1521.96
797.977	1504.63
803.33	1477.96
808.677	1450.96
814.019	1437.29
819.355	1403.96
824.686	1382.63
830.011	1365.96
835.33	1346.29
840.644	1332.29
845.952	1312.29
851.255	1311.63
856.552	1297.29
861.844	1264.63
867.13	1237.29
872.41	1231.96
877.686	1210.96
882.955	1178.63
888.219	1161.29
893.478	1122.96
898.731	1096.63
903.979	1068.29
909.221	1051.29
914.458	1034.63
919.69	1025.63
924.916	1015.63
930.136	1009.29
935.351	995.63
940.561	985.63
945.766	976.29
950.965	966.29
956.158	951.96
961.347	930.63
966.529	906.29
971.707	894.29
976.879	872.29
982.046	855.63
987.208	852.63
992.364	851.29
997.515	850.96
1002.66	851.63
1007.801	849.63
1012.936	856.63
1018.066	860.63
1023.19	860.96
1028.309	865.29
1033.423	850.29
1038.532	839.29
1043.636	831.63
1048.734	824.29
1053.827	808.96
1058.915	790.96
1063.998	788.29
1069.075	785.63
1074.147	785.63
1079.214	789.96
1084.276	786.96
1089.333	797.63
1094.385	791.29
1099.431	792.63
1104.472	794.29
1109.509	778.63
1114.54	772.96
1119.565	758.96
1124.586	745.63
1129.602	743.96
1134.613	728.29
1139.618	725.29
1144.619	720.96
1149.614	727.29
1154.604	719.63
1159.589	735.96
1164.57	728.96
1169.545	728.96
1174.515	729.96
1179.48	720.63
1184.44	718.96
1189.395	714.63
1194.345	710.96
1199.29	703.96
1204.23	697.63
1209.165	700.96
1214.095	709.29
1219.021	709.29
1223.941	712.96
1228.856	712.63
1233.766	716.29
1238.672	701.96
1243.572	712.96
1248.467	698.63
1253.358	691.63
1258.244	675.29
1263.124	661.29
1268	654.29
1272.871	647.29
1277.737	644.29
1282.599	636.63
1287.455	636.63
1292.306	634.29
1297.153	639.29
1301.995	635.29
1306.832	642.29
1311.664	642.96
1316.491	638.96
1321.314	631.29
1326.132	623.29
1330.945	608.63
1335.753	594.63
1340.556	582.63
1345.354	572.96
1350.148	562.96
1354.937	564.96
1359.722	557.63
1364.501	556.96
1369.276	551.63
1374.046	550.29
1378.811	550.63
1383.572	543.29
1388.327	536.63
1393.079	530.96
1397.825	524.63
1402.567	512.96
1407.304	511.29
1412.036	498.29
1416.764	502.29
1421.487	501.29
1426.205	500.96
1430.919	507.63
1435.628	515.29
1440.333	515.29
1445.032	518.63
1449.727	523.29
1454.418	526.63
1459.104	530.63
1463.785	516.63
1468.462	513.63
1473.134	503.29
1477.802	499.63
1482.465	502.29
1487.123	498.96
1491.777	510.29
1496.426	514.29
1501.071	523.63
1505.711	533.63
1510.347	546.96
1514.978	554.29
1519.604	560.96
1524.226	568.63
1528.844	573.63
1533.457	570.63
1538.065	574.29
1542.669	581.96
1547.269	582.63
1551.864	590.96
1556.454	607.96
1561.041	622.96
1565.622	633.96
1570.199	648.96
1574.772	674.29
1579.34	705.96
1583.904	731.96
1588.464	757.96
1593.019	787.63
1597.569	821.29
1602.115	846.29
1606.657	871.63
1611.195	896.63
1615.728	922.63
1620.256	956.29
1624.78	991.63
1629.3	1022.63
1633.816	1041.63
1638.327	1066.63
1642.834	1085.29
1647.336	1094.96
1651.834	1080.29
1656.328	1074.29
1660.817	1050.63
1665.302	1023.63
1669.783	988.96
1674.259	933.29
1678.732	882.63
1683.199	835.63
1687.663	779.96
1692.122	718.63
1696.577	667.96
1701.028	629.29
1705.474	580.29
1709.917	549.63
1714.355	506.29
1718.788	480.29
1723.218	443.29
1727.643	412.29
1732.064	386.63
1736.481	358.96
1740.893	334.96
1745.301	311.96
1749.705	280.96
1754.105	261.63
1758.501	242.29
1762.893	228.63
1767.28	215.96
1771.663	204.96
1776.042	198.96
1780.417	187.96
1784.787	184.63
1789.154	178.29
1793.516	175.29
1797.874	181.29
1802.228	165.29
1806.578	162.63
1810.924	157.29
1815.266	149.63
1819.603	140.29
1823.937	134.29
1828.266	131.29
1832.591	122.63
1836.913	121.96
1841.23	123.96
1845.543	119.29
1849.852	117.29
1854.156	118.29
1858.457	115.96
1862.754	118.96
1867.047	118.29
1871.335	120.63
1875.62	120.63
1879.9	118.63
1884.177	120.96
1888.449	118.29
1892.718	119.63
1896.982	117.63
1901.243	116.29
1905.499	118.29
1909.752	119.29
1914	117.96
1918.245	124.96
1922.485	125.63
1926.722	125.63
1930.954	127.63
1935.183	132.96
1939.408	135.63
1943.628	139.29
1947.845	134.63
1952.058	137.29
1956.267	136.29
1960.472	128.96
1964.673	132.96
1968.87	129.29
1973.063	126.63
1977.252	121.96
1981.438	123.63
1985.619	123.29
1989.797	130.96
1993.971	127.96
1998.14	126.63
2002.306	128.63
2006.469	134.96
2010.627	137.96
2014.781	142.29
2018.932	141.29
2023.078	145.29
2027.221	143.96
2031.36	139.96
2035.495	139.63
2039.627	143.96
2043.754	139.29
2047.878	142.96
2051.998	145.63
2056.114	145.96
2060.226	148.29
2064.334	154.29
2068.439	153.96
2072.54	159.63
2076.637	161.29
2080.73	163.96
2084.82	169.29
2088.906	165.96
2092.988	168.96
2097.066	164.63
2101.14	162.96
2105.211	162.96
2109.278	159.63
2113.342	153.29
2117.401	150.96
2121.457	146.96
2125.509	147.29
2129.558	143.63
2133.602	138.29
2137.643	143.96
2141.681	137.29
2145.714	132.29
2149.744	131.63
2153.77	128.29
2157.793	124.29
2161.812	117.63
2165.827	111.63
2169.838	109.96
2173.846	101.96
2177.851	98.96
2181.851	90.96
2185.848	85.96
2189.841	85.63
2193.831	76.63
2197.817	73.63
2201.799	73.29
2205.778	66.96
2209.753	63.29
2213.725	62.63
2217.693	60.96
2221.657	55.29
2225.618	53.29
2229.575	49.96
2233.529	47.63
2237.479	46.29
2241.425	37.63
2245.368	31.96
2249.307	26.29
2253.243	22.29
2257.175	22.29
2261.104	16.96
2265.029	14.63
2268.95	8.96
2272.868	1.96
2276.783	-0.37
2280.694	-2.04
2284.601	-5.04
2288.505	-4.71
2292.405	-11.04
2296.302	-12.37
2300.195	-16.37
2304.085	-19.04
2307.971	-22.04
2311.854	-22.37
2315.734	-29.37
2319.609	-28.71
2323.482	-30.71
2327.351	-35.37
2331.216	-33.37
2335.078	-34.71
2338.937	-38.37
2342.792	-41.04
2346.643	-41.71
2350.492	-42.04
2354.336	-46.71
2358.178	-42.71
2362.015	-42.71
2365.85	-44.37
2369.681	-45.37
2373.508	-44.71
2377.333	-50.71
2381.153	-45.04
2384.971	-50.71
2388.785	-52.37
2392.595	-54.37
2396.402	-52.37
2400.206	-54.04
2404.007	-57.04
2407.804	-57.37
2411.597	-58.37
2415.388	-56.04
2419.174	-57.37
2422.958	-58.37
2426.738	-59.37
2430.515	-63.71
2434.289	-65.37
2438.059	-67.37
2441.825	-62.71
2445.589	-67.37
2449.349	-67.04
2453.106	-69.71
2456.859	-68.37
2460.61	-70.04
2464.356	-69.71
2468.1	-71.04
2471.84	-70.04
2475.577	-71.37
2479.311	-72.04
2483.041	-71.71
2486.768	-72.37
2490.492	-75.04
2494.213	-75.71
2497.93	-74.04
2501.644	-76.04
2505.355	-76.37
2509.062	-74.37
2512.766	-77.04
2516.467	-76.37
2520.165	-79.37
2523.859	-76.04
2527.551	-80.37
2531.239	-78.04
2534.923	-80.37
2538.605	-81.04
2542.283	-81.04
2545.958	-78.37
2549.63	-78.71
2553.299	-79.71
2556.964	-79.71
2560.626	-79.37
2564.285	-83.37
2567.941	-83.04
2571.594	-82.37
2575.243	-85.37
2578.89	-83.04
2582.533	-85.04
2586.173	-82.04
2589.809	-86.37
2593.443	-85.37
2597.073	-87.71
2600.701	-87.04
2604.325	-87.04
2607.946	-88.37
2611.564	-89.04
2615.178	-87.71
2618.79	-87.04
2622.398	-85.04
2626.004	-85.71
2629.606	-86.37
2633.205	-87.71
2636.801	-84.71
2640.394	-85.71
2643.983	-87.37
2647.57	-86.37
2651.153	-89.04
2654.734	-88.71
2658.311	-86.04
2661.885	-90.37
2665.456	-89.37
2669.025	-88.71
2672.589	-87.37
2676.151	-86.71
2679.71	-87.04
2683.266	-86.37
2686.819	-89.04
2690.368	-85.37
2693.915	-83.71
2697.458	-86.71
2700.999	-89.04
2704.536	-86.37
2708.071	-84.04
2711.602	-85.37
2715.13	-87.37
2718.656	-83.37
2722.178	-82.37
2725.697	-81.71
2729.214	-80.71
2732.727	-79.71
2736.237	-77.04
2739.744	-79.04
2743.249	-80.71
2746.75	-76.04
2750.248	-72.71
2753.743	-72.04
2757.236	-73.37
2760.725	-71.71
2764.211	-71.04
2767.695	-69.71
2771.175	-66.71
2774.652	-65.04
2778.127	-66.04
2781.598	-65.04
2785.067	-62.04
2788.532	-61.04
2791.995	-60.37
2795.455	-57.04
2798.911	-55.04
2802.365	-49.71
2805.816	-49.37
2809.264	-46.71
2812.709	-46.04
2816.151	-44.37
2819.59	-39.71
2823.026	-40.71
2826.46	-35.37
2829.89	-30.37
2833.318	-30.04
2836.742	-29.37
2840.164	-26.04
2843.583	-20.71
2846.999	-17.04
2850.412	-16.37
2853.822	-9.04
2857.229	-5.37
2860.634	1.63
2864.035	0.96
2867.434	6.63
2870.83	12.63
2874.223	15.63
2877.613	16.29
2881	24.96
2884.385	28.29
2887.766	32.29
2891.145	32.96
2894.521	39.29
2897.894	39.63
2901.264	46.96
2904.631	47.96
2907.996	54.96
2911.358	62.96
2914.717	65.63
2918.073	71.63
2921.426	75.29
2924.777	91.29
2928.124	90.63
2931.469	104.29
2934.811	102.63
2938.15	113.63
2941.487	115.96
2944.821	127.96
2948.152	134.96
2951.48	142.29
2954.805	150.96
2958.128	157.29
2961.447	167.29
2964.765	174.29
2968.079	181.29
2971.39	191.96
2974.699	204.29
2978.005	215.96
2981.308	227.96
2984.609	246.96
2987.907	262.29
2991.202	274.63
2994.494	286.29
2997.784	299.96
3001.07	309.96
3004.355	328.29
3007.636	335.63
3010.915	351.63
3014.191	365.96
3017.464	372.96
3020.734	385.29
3024.002	402.63
3027.267	410.63
3030.53	428.63
3033.789	440.63
3037.046	448.96
3040.301	469.63
3043.552	487.63
3046.801	511.29
3050.048	527.63
3053.291	541.96
3056.532	570.96
3059.771	591.96
3063.006	624.29
3066.239	649.96
3069.469	671.63
3072.697	702.29
3075.922	720.96
3079.144	745.96
3082.364	768.29
3085.581	792.96
3088.795	819.29
3092.007	844.96
3095.216	871.96
3098.423	897.29
3101.627	918.63
3104.828	953.63
3108.026	973.63
3111.222	1006.63
3114.416	1027.63
3117.607	1063.96
3120.795	1084.96
3123.98	1119.96
3127.163	1154.29
3130.344	1176.96
3133.521	1212.29
3136.696	1245.63
3139.869	1270.29
3143.039	1299.29
3146.206	1323.96
3149.371	1340.29
3152.533	1358.96
3155.693	1374.29
3158.85	1385.63
3162.005	1392.96
3165.157	1402.29
3168.306	1404.63
3171.453	1419.29
3174.597	1423.63
3177.739	1431.96
3180.878	1446.29
3184.014	1452.29
3187.149	1458.29
3190.28	1474.63
3193.409	1478.29
3196.536	1481.96
3199.659	1491.63
3202.781	1501.63
3205.9	1500.63
3209.016	1500.96
3212.13	1516.29
3215.241	1500.96
3218.35	1486.96
3221.456	1486.63
3224.56	1477.29
3227.661	1475.29
3230.76	1453.96
3233.856	1441.29
3236.95	1431.63
3240.041	1426.63
3243.13	1410.29
3246.216	1417.29
3249.3	1416.96
3252.382	1408.63
3255.46	1403.63
3258.537	1398.29
3261.611	1400.29
3264.682	1390.63
3267.751	1391.29
3270.818	1384.29
3273.882	1366.29
3276.943	1366.96
3280.002	1348.96
3283.059	1335.29
3286.113	1321.29
3289.165	1313.29
3292.214	1288.63
3295.261	1266.96
3298.306	1250.29
3301.348	1232.96
3304.387	1209.63
3307.425	1190.63
3310.459	1179.29
3313.492	1168.96
3316.521	1159.63
3319.549	1155.63
3322.574	1131.96
3325.597	1128.96
3328.617	1130.29
3331.635	1123.63
3334.65	1116.63
3337.663	1112.29
3340.674	1110.96
3343.682	1103.29
3346.688	1111.29
3349.691	1097.29
3352.692	1095.96
3355.691	1087.63
3358.687	1084.29
3361.681	1074.96
3364.673	1063.29
3367.662	1044.29
3370.649	1033.63
3373.633	1020.96
3376.615	1010.96
3379.595	997.29
3382.572	981.96
3385.547	968.96
3388.52	964.63
3391.49	948.29
3394.458	939.29
3397.424	935.63
3400.387	925.96
3403.348	915.63
3406.307	899.63
3409.263	899.63
3412.217	886.96
3415.168	877.96
3418.118	869.63
3421.065	859.63
3424.009	847.29
3426.951	850.29
3429.891	817.29
3432.829	810.29
3435.764	792.29
3438.697	776.29
3441.628	759.29
3444.557	743.63
3447.483	717.29
3450.407	704.63
3453.328	678.63
3456.247	665.29
3459.164	642.29
3462.079	626.63
3464.991	609.29
3467.902	587.63
3470.809	571.96
3473.715	550.29
3476.618	540.29
3479.519	526.29
3482.418	515.63
3485.315	497.63
3488.209	478.63
3491.101	468.96
3493.99	449.29
3496.878	440.96
3499.763	425.63
3502.646	416.63
3505.527	399.96
3508.405	387.29
3511.281	373.63
3514.155	354.96
3517.027	344.29
3519.897	320.63
3522.764	308.29
3525.629	289.63
3528.492	277.63
3531.352	257.96
3534.211	241.29
3537.067	227.63
3539.921	215.96
3542.773	204.63
3545.622	194.29
3548.469	184.96
3551.315	169.29
3554.157	157.96
3556.998	147.96
3559.837	135.96
3562.673	134.29
3565.507	123.63
3568.339	117.29
3571.169	109.96
3573.996	95.96
3576.822	89.63
3579.645	81.96
3582.466	75.63
3585.285	66.96
3588.101	57.29
3590.916	50.96
3593.728	43.96
3596.538	35.63
3599.346	26.96
3602.152	22.63
3604.956	16.63
3607.757	10.29
3610.556	5.29
3613.354	-1.71
3616.149	-5.71
3618.942	-11.04
3621.732	-17.37
3624.521	-19.71
3627.307	-25.37
3630.092	-28.37
3632.874	-31.71
3635.654	-36.71
3638.432	-42.37
3641.208	-45.71
3643.982	-49.37
3646.753	-48.37
3649.523	-57.37
3652.29	-60.04
3655.055	-66.04
3657.818	-63.71
3660.579	-70.37
3663.338	-72.37
3666.095	-77.71
3668.849	-81.37
3671.602	-82.71
3674.352	-87.37
3677.101	-91.04
3679.847	-93.37
3682.591	-95.04
3685.333	-97.37
3688.073	-100.37
3690.811	-104.04
3693.547	-104.37
3696.281	-105.37
3699.013	-111.04
3701.742	-109.71
3704.47	-112.04
3707.195	-115.37
3709.919	-114.37
3712.64	-118.04
3715.359	-118.04
3718.076	-119.71
3720.792	-122.37
3723.505	-123.04
3726.216	-125.37
3728.925	-128.04
3731.632	-128.37
3734.336	-126.04
3737.039	-128.04
3739.74	-131.04
3742.439	-130.37
3745.136	-131.37
3747.83	-132.71
3750.523	-133.37
3753.213	-132.37
3755.902	-135.04
3758.589	-135.04
3761.273	-135.37
3763.956	-136.37
3766.636	-134.71
3769.315	-137.37
3771.991	-139.04
3774.665	-137.71
3777.338	-138.37
3780.008	-140.04
3782.677	-139.71
3785.343	-141.37
3788.007	-139.71
3790.67	-139.71
3793.33	-140.71
3795.989	-144.37
3798.645	-142.71
3801.299	-144.04
3803.952	-142.04
3806.602	-144.04
3809.251	-143.71
3811.897	-143.04
3814.542	-145.04
3817.184	-145.37
3819.825	-142.37
3822.463	-143.04
3825.1	-145.71
3827.735	-145.37
3830.367	-142.37
3832.998	-146.37
3835.627	-144.04
3838.253	-145.37
3840.878	-146.04
3843.501	-147.04
3846.122	-144.04
3848.741	-146.37
3851.358	-146.71
3853.973	-147.71
3856.586	-147.04
3859.197	-149.37
3861.806	-145.37
3864.414	-147.71
3867.019	-144.71
3869.622	-143.04
3872.224	-144.71
3874.823	-142.37
3877.421	-137.71
3880.016	-135.37
3882.61	-127.37
3885.202	-126.71
3887.792	-132.04
3890.38	-137.37
3892.966	-141.37
3895.55	-149.37
3898.132	-147.37
3900.713	-151.71
3903.291	-147.04
3905.868	-147.71
3908.442	-149.71
3911.015	-149.37
3913.586	-152.04
3916.155	-151.71
3918.722	-152.71
3921.287	-151.04
3923.85	-151.04
3926.411	-150.37
3928.971	-150.04
3931.528	-149.37
3934.084	-151.37
3936.638	-151.71
3939.19	-150.71
3941.74	-148.71
3944.288	-150.04
3946.834	-152.71
3949.378	-151.71
3951.921	-151.04
3954.462	-152.04
3957	-152.37
3959.537	-149.04
3962.072	-149.71
3964.606	-149.37
3967.137	-150.37
3969.667	-149.37
3972.194	-151.71
3974.72	-149.71
3977.244	-149.71
3979.766	-148.71
3982.286	-147.04
3984.805	-149.37
3987.321	-146.71
3989.836	-147.71
3992.349	-148.04
3994.86	-147.04
3997.369	-148.04
3999.877	-147.71
4002.382	-150.04
4004.886	-147.71
4007.388	-151.04
4009.888	-150.04
4012.386	-151.04
4014.883	-148.37
4017.377	-149.04
4019.87	-150.04
4022.361	-150.71
4024.85	-149.37
4027.338	-149.71
4029.823	-150.04
4032.307	-150.71
4034.789	-150.04
4037.269	-148.71
4039.747	-149.71
4042.224	-151.71
4044.699	-153.37
4047.172	-149.71
4049.643	-149.04
4052.112	-149.71
4054.58	-149.37
4057.046	-149.37
4059.51	-152.04
4061.972	-150.37
4064.432	-148.71
4066.891	-150.37
4069.348	-148.37
4071.803	-149.04
4074.256	-149.04
4076.708	-148.37
4079.158	-152.04
4081.606	-150.71
4084.052	-149.71
4086.497	-149.37
4088.939	-150.37
4091.38	-149.37
4093.819	-149.04
4096.257	-152.37
4098.693	-152.71
4101.127	-153.71
4103.559	-154.37
4105.989	-98.71
4108.418	-95.71
4110.845	-91.04
4113.27	-83.37
4115.694	-76.04
4118.115	-62.71
4120.535	-148.37
4122.954	-146.04
4125.37	-147.04
4127.785	-150.37
4130.198	-149.71
4132.609	-148.37
4135.019	-154.04
4137.427	-153.71
4139.833	-154.37
4142.237	-152.71
