Data from Tap water 3.5ml (I=.5_T=5x3)_RamanShift_2.txt Node
Date: Mon May 29 14:37:13 IDT 2017
User: aro
Spectrometer: QEPB0276
Trigger mode: 0
Integration Time (sec): 5.000000E0
Scans to average: 3
Electric dark correction enabled: true
Nonlinearity correction enabled: false
Boxcar width: 0
XAxis mode: Raman Shifts
Number of Pixels in Spectrum: 1044
>>>>>Begin Spectral Data<<<<<
160.701	-11.87
166.742	-0.54
172.777	41.13
178.805	171.46
184.826	488.79
190.841	1028.79
196.849	1629.13
202.85	2049.79
208.845	2139.79
214.833	2064.46
220.815	1974.13
226.789	1909.13
232.758	1843.13
238.719	1781.79
244.674	1688.13
250.623	1618.13
256.565	1531.79
262.5	1444.13
268.429	1376.46
274.351	1301.13
280.267	1243.13
286.176	1188.46
292.079	1132.46
297.975	1091.79
303.865	1066.79
309.748	1036.46
315.625	1008.46
321.495	981.13
327.359	970.46
333.217	951.46
339.068	945.46
344.912	943.79
350.751	940.13
356.583	935.46
362.408	928.79
368.227	936.13
374.04	950.46
379.847	953.13
385.647	957.13
391.44	951.79
397.228	954.13
403.009	958.13
408.784	970.79
414.553	994.13
420.315	1027.46
426.071	1022.79
431.821	996.46
437.565	956.13
443.302	952.13
449.033	941.13
454.758	929.46
460.477	929.13
466.189	930.13
471.896	914.46
477.596	915.46
483.29	899.79
488.978	896.79
494.66	884.13
500.335	871.46
506.005	856.46
511.668	842.13
517.325	818.79
522.977	804.13
528.622	789.79
534.261	783.79
539.894	764.13
545.521	754.46
551.141	752.46
556.756	744.46
562.365	739.13
567.968	728.79
573.565	723.46
579.155	718.46
584.74	708.46
590.319	700.13
595.892	691.13
601.459	686.13
607.02	679.46
612.575	674.13
618.124	658.79
623.667	654.79
629.204	645.46
634.735	637.79
640.261	635.46
645.781	648.13
651.294	639.13
656.802	637.13
662.304	618.13
667.8	604.79
673.29	606.13
678.775	593.46
684.254	592.46
689.726	582.13
695.193	574.79
700.655	565.46
706.11	561.79
711.56	559.79
717.004	549.13
722.442	546.46
727.874	542.13
733.301	538.13
738.722	527.46
744.137	524.13
749.547	530.13
754.951	524.79
760.349	520.13
765.741	512.46
771.128	506.79
776.509	501.79
781.885	504.46
787.254	497.79
792.618	490.79
797.977	487.13
803.33	471.13
808.677	471.46
814.019	462.46
819.355	448.13
824.686	446.79
830.011	440.46
835.33	435.79
840.644	431.46
845.952	425.46
851.255	422.79
856.552	412.46
861.844	412.46
867.13	399.46
872.41	394.13
877.686	388.46
882.955	378.46
888.219	363.46
893.478	359.79
898.731	356.46
903.979	344.46
909.221	340.46
914.458	334.79
919.69	334.13
924.916	327.13
930.136	320.79
935.351	321.46
940.561	317.79
945.766	319.46
950.965	310.13
956.158	309.79
961.347	301.79
966.529	295.46
971.707	286.46
976.879	281.79
982.046	274.79
987.208	275.13
992.364	274.13
997.515	271.46
1002.66	275.46
1007.801	275.13
1012.936	275.79
1018.066	277.46
1023.19	275.13
1028.309	279.46
1033.423	272.46
1038.532	272.13
1043.636	266.13
1048.734	265.79
1053.827	266.46
1058.915	259.13
1063.998	254.46
1069.075	250.79
1074.147	250.46
1079.214	253.79
1084.276	252.46
1089.333	254.13
1094.385	260.13
1099.431	259.13
1104.472	252.46
1109.509	251.13
1114.54	251.79
1119.565	242.79
1124.586	246.46
1129.602	236.46
1134.613	233.46
1139.618	239.46
1144.619	230.13
1149.614	232.79
1154.604	233.13
1159.589	233.79
1164.57	240.46
1169.545	236.46
1174.515	236.13
1179.48	235.46
1184.44	232.13
1189.395	226.46
1194.345	231.13
1199.29	227.46
1204.23	225.79
1209.165	228.13
1214.095	229.13
1219.021	226.79
1223.941	230.46
1228.856	233.46
1233.766	231.79
1238.672	230.13
1243.572	231.79
1248.467	228.13
1253.358	223.46
1258.244	217.46
1263.124	215.13
1268	213.79
1272.871	211.46
1277.737	206.79
1282.599	206.13
1287.455	205.13
1292.306	207.46
1297.153	207.13
1301.995	206.79
1306.832	208.46
1311.664	204.79
1316.491	208.79
1321.314	202.79
1326.132	198.79
1330.945	194.79
1335.753	192.46
1340.556	191.13
1345.354	185.79
1350.148	186.79
1354.937	185.13
1359.722	180.13
1364.501	180.13
1369.276	182.46
1374.046	178.46
1378.811	179.46
1383.572	179.13
1388.327	177.13
1393.079	174.13
1397.825	169.13
1402.567	167.46
1407.304	164.46
1412.036	162.46
1416.764	163.13
1421.487	164.13
1426.205	162.13
1430.919	160.46
1435.628	166.46
1440.333	163.79
1445.032	171.13
1449.727	167.79
1454.418	170.46
1459.104	168.13
1463.785	165.46
1468.462	166.13
1473.134	159.79
1477.802	159.46
1482.465	164.79
1487.123	164.13
1491.777	165.46
1496.426	163.46
1501.071	170.79
1505.711	172.79
1510.347	174.13
1514.978	178.79
1519.604	180.46
1524.226	182.79
1528.844	183.46
1533.457	184.46
1538.065	184.46
1542.669	187.46
1547.269	186.13
1551.864	192.13
1556.454	192.46
1561.041	202.46
1565.622	201.46
1570.199	204.79
1574.772	219.13
1579.34	223.79
1583.904	235.13
1588.464	242.13
1593.019	255.46
1597.569	264.13
1602.115	271.13
1606.657	278.46
1611.195	290.13
1615.728	294.79
1620.256	301.46
1624.78	314.46
1629.3	326.46
1633.816	334.46
1638.327	339.46
1642.834	349.13
1647.336	349.46
1651.834	347.79
1656.328	338.13
1660.817	335.13
1665.302	320.79
1669.783	315.79
1674.259	299.13
1678.732	283.13
1683.199	264.13
1687.663	246.79
1692.122	230.13
1696.577	217.13
1701.028	199.79
1705.474	184.79
1709.917	172.46
1714.355	164.46
1718.788	152.79
1723.218	141.46
1727.643	137.46
1732.064	126.46
1736.481	116.79
1740.893	105.46
1745.301	99.79
1749.705	89.46
1754.105	81.79
1758.501	79.79
1762.893	71.46
1767.28	69.79
1771.663	66.13
1776.042	62.46
1780.417	60.79
1784.787	58.79
1789.154	59.46
1793.516	54.79
1797.874	59.13
1802.228	54.13
1806.578	51.46
1810.924	49.79
1815.266	47.46
1819.603	44.46
1823.937	43.79
1828.266	43.46
1832.591	43.46
1836.913	39.79
1841.23	39.46
1845.543	40.79
1849.852	34.13
1854.156	37.13
1858.457	36.13
1862.754	38.79
1867.047	40.13
1871.335	38.79
1875.62	38.46
1879.9	37.46
1884.177	41.13
1888.449	38.13
1892.718	41.13
1896.982	36.46
1901.243	38.79
1905.499	38.13
1909.752	39.46
1914	38.46
1918.245	37.46
1922.485	39.79
1926.722	40.79
1930.954	42.46
1935.183	45.13
1939.408	43.46
1943.628	43.46
1947.845	43.13
1952.058	47.79
1956.267	45.46
1960.472	42.13
1964.673	42.46
1968.87	43.79
1973.063	40.46
1977.252	39.79
1981.438	40.79
1985.619	41.46
1989.797	39.46
1993.971	41.13
1998.14	38.13
2002.306	44.46
2006.469	43.46
2010.627	45.79
2014.781	48.13
2018.932	43.13
2023.078	44.79
2027.221	46.13
2031.36	45.79
2035.495	46.79
2039.627	43.46
2043.754	45.46
2047.878	48.13
2051.998	46.13
2056.114	47.46
2060.226	46.46
2064.334	51.79
2068.439	49.46
2072.54	51.46
2076.637	52.13
2080.73	56.46
2084.82	51.79
2088.906	53.79
2092.988	53.46
2097.066	51.46
2101.14	49.46
2105.211	52.79
2109.278	51.46
2113.342	48.13
2117.401	47.46
2121.457	47.46
2125.509	43.79
2129.558	49.13
2133.602	45.46
2137.643	44.13
2141.681	45.13
2145.714	42.13
2149.744	39.46
2153.77	38.79
2157.793	38.46
2161.812	37.46
2165.827	34.79
2169.838	35.46
2173.846	32.46
2177.851	30.13
2181.851	31.13
2185.848	29.13
2189.841	25.13
2193.831	23.79
2197.817	25.13
2201.799	23.79
2205.778	21.79
2209.753	20.46
2213.725	20.79
2217.693	18.13
2221.657	18.13
2225.618	15.46
2229.575	14.79
2233.529	16.13
2237.479	14.79
2241.425	11.46
2245.368	9.13
2249.307	7.79
2253.243	7.46
2257.175	3.79
2261.104	0.79
2265.029	3.46
2268.95	3.79
2272.868	0.13
2276.783	0.13
2280.694	-0.54
2284.601	-4.21
2288.505	-1.87
2292.405	-5.54
2296.302	-4.54
2300.195	-6.87
2304.085	-6.87
2307.971	-6.87
2311.854	-8.21
2315.734	-9.21
2319.609	-9.21
2323.482	-10.87
2327.351	-11.21
2331.216	-11.87
2335.078	-10.87
2338.937	-13.21
2342.792	-11.54
2346.643	-14.21
2350.492	-12.87
2354.336	-16.54
2358.178	-13.21
2362.015	-15.21
2365.85	-14.21
2369.681	-15.21
2373.508	-16.54
2377.333	-17.21
2381.153	-14.87
2384.971	-18.87
2388.785	-15.87
2392.595	-16.87
2396.402	-16.21
2400.206	-18.21
2404.007	-19.54
2407.804	-21.87
2411.597	-20.21
2415.388	-20.87
2419.174	-19.21
2422.958	-18.87
2426.738	-22.21
2430.515	-22.54
2434.289	-22.21
2438.059	-23.54
2441.825	-20.21
2445.589	-23.21
2449.349	-20.54
2453.106	-22.87
2456.859	-23.54
2460.61	-27.21
2464.356	-22.87
2468.1	-24.21
2471.84	-25.21
2475.577	-23.54
2479.311	-25.54
2483.041	-24.21
2486.768	-24.21
2490.492	-25.21
2494.213	-26.87
2497.93	-24.21
2501.644	-26.54
2505.355	-25.54
2509.062	-26.87
2512.766	-24.54
2516.467	-26.21
2520.165	-28.54
2523.859	-26.54
2527.551	-27.21
2531.239	-24.87
2534.923	-28.21
2538.605	-28.21
2542.283	-27.21
2545.958	-27.87
2549.63	-28.87
2553.299	-28.21
2556.964	-27.21
2560.626	-28.87
2564.285	-27.54
2567.941	-28.21
2571.594	-28.21
2575.243	-28.21
2578.89	-30.21
2582.533	-27.87
2586.173	-27.21
2589.809	-29.54
2593.443	-31.21
2597.073	-31.87
2600.701	-31.87
2604.325	-31.21
2607.946	-31.54
2611.564	-31.54
2615.178	-28.87
2618.79	-30.54
2622.398	-28.21
2626.004	-30.21
2629.606	-28.87
2633.205	-28.54
2636.801	-30.54
2640.394	-29.21
2643.983	-29.87
2647.57	-26.87
2651.153	-30.54
2654.734	-30.54
2658.311	-31.54
2661.885	-29.54
2665.456	-30.54
2669.025	-30.54
2672.589	-29.54
2676.151	-30.21
2679.71	-28.87
2683.266	-31.87
2686.819	-28.87
2690.368	-29.21
2693.915	-28.54
2697.458	-29.21
2700.999	-31.54
2704.536	-28.21
2708.071	-28.87
2711.602	-28.21
2715.13	-30.21
2718.656	-27.87
2722.178	-28.21
2725.697	-26.87
2729.214	-30.21
2732.727	-27.21
2736.237	-26.87
2739.744	-26.54
2743.249	-28.21
2746.75	-26.54
2750.248	-22.21
2753.743	-25.54
2757.236	-24.21
2760.725	-23.54
2764.211	-26.54
2767.695	-23.21
2771.175	-22.21
2774.652	-24.21
2778.127	-21.87
2781.598	-22.87
2785.067	-22.54
2788.532	-20.54
2791.995	-20.87
2795.455	-18.87
2798.911	-20.21
2802.365	-17.54
2805.816	-20.54
2809.264	-17.54
2812.709	-15.87
2816.151	-16.54
2819.59	-15.54
2823.026	-16.21
2826.46	-12.87
2829.89	-15.21
2833.318	-12.54
2836.742	-10.54
2840.164	-8.54
2843.583	-8.87
2846.999	-7.54
2850.412	-7.21
2853.822	-6.87
2857.229	-2.87
2860.634	-1.87
2864.035	-0.21
2867.434	-2.21
2870.83	2.79
2874.223	-1.21
2877.613	3.79
2881	6.13
2884.385	6.13
2887.766	6.13
2891.145	9.46
2894.521	7.46
2897.894	10.46
2901.264	11.46
2904.631	11.13
2907.996	14.13
2911.358	17.13
2914.717	20.46
2918.073	18.79
2921.426	20.79
2924.777	24.46
2928.124	29.13
2931.469	30.46
2934.811	31.13
2938.15	33.46
2941.487	36.13
2944.821	36.79
2948.152	37.79
2951.48	44.46
2954.805	48.13
2958.128	47.13
2961.447	50.13
2964.765	56.13
2968.079	56.79
2971.39	60.46
2974.699	66.13
2978.005	66.79
2981.308	75.46
2984.609	78.13
2987.907	79.79
2991.202	83.79
2994.494	89.79
2997.784	96.13
3001.07	97.46
3004.355	105.79
3007.636	111.46
3010.915	115.13
3014.191	116.79
3017.464	123.46
3020.734	126.46
3024.002	130.13
3027.267	131.13
3030.53	137.13
3033.789	144.46
3037.046	147.46
3040.301	152.79
3043.552	159.79
3046.801	165.46
3050.048	169.13
3053.291	173.79
3056.532	181.46
3059.771	191.46
3063.006	199.79
3066.239	210.79
3069.469	215.46
3072.697	227.46
3075.922	239.13
3079.144	239.46
3082.364	251.79
3085.581	258.13
3088.795	268.79
3092.007	276.79
3095.216	286.46
3098.423	289.13
3101.627	298.46
3104.828	309.79
3108.026	314.13
3111.222	322.13
3114.416	332.46
3117.607	345.13
3120.795	355.13
3123.98	365.79
3127.163	374.46
3130.344	386.46
3133.521	392.46
3136.696	407.46
3139.869	413.46
3143.039	420.79
3146.206	430.13
3149.371	436.13
3152.533	439.79
3155.693	447.79
3158.85	446.46
3162.005	452.46
3165.157	458.13
3168.306	462.79
3171.453	464.79
3174.597	467.46
3177.739	472.79
3180.878	469.46
3184.014	471.46
3187.149	470.79
3190.28	476.13
3193.409	476.79
3196.536	484.46
3199.659	489.46
3202.781	489.13
3205.9	488.79
3209.016	485.13
3212.13	484.46
3215.241	485.13
3218.35	479.46
3221.456	474.79
3224.56	483.79
3227.661	467.13
3230.76	466.46
3233.856	467.46
3236.95	462.79
3240.041	454.79
3243.13	449.46
3246.216	453.79
3249.3	452.46
3252.382	447.79
3255.46	446.13
3258.537	445.79
3261.611	441.13
3264.682	446.79
3267.751	442.13
3270.818	440.79
3273.882	440.46
3276.943	435.13
3280.002	429.13
3283.059	427.79
3286.113	421.46
3289.165	420.46
3292.214	410.13
3295.261	406.13
3298.306	403.79
3301.348	397.46
3304.387	390.46
3307.425	385.46
3310.459	375.79
3313.492	374.79
3316.521	369.46
3319.549	368.46
3322.574	367.13
3325.597	365.79
3328.617	361.13
3331.635	357.13
3334.65	361.13
3337.663	349.79
3340.674	355.13
3343.682	352.79
3346.688	355.13
3349.691	355.79
3352.692	344.13
3355.691	349.13
3358.687	345.13
3361.681	344.46
3364.673	337.46
3367.662	336.13
3370.649	330.46
3373.633	322.79
3376.615	320.79
3379.595	319.13
3382.572	313.13
3385.547	310.79
3388.52	304.79
3391.49	302.46
3394.458	302.46
3397.424	296.13
3400.387	291.79
3403.348	287.46
3406.307	287.79
3409.263	285.13
3412.217	280.79
3415.168	279.79
3418.118	278.79
3421.065	269.13
3424.009	267.79
3426.951	267.13
3429.891	258.13
3432.829	258.79
3435.764	248.46
3438.697	246.79
3441.628	237.79
3444.557	234.79
3447.483	226.13
3450.407	221.79
3453.328	217.13
3456.247	205.79
3459.164	200.46
3462.079	197.46
3464.991	189.46
3467.902	183.46
3470.809	179.46
3473.715	174.13
3476.618	164.13
3479.519	162.46
3482.418	159.79
3485.315	154.79
3488.209	152.13
3491.101	143.46
3493.99	133.46
3496.878	138.13
3499.763	133.46
3502.646	128.46
3505.527	124.79
3508.405	119.46
3511.281	113.79
3514.155	106.46
3517.027	100.13
3519.897	99.46
3522.764	92.46
3525.629	86.13
3528.492	86.13
3531.352	77.79
3534.211	76.13
3537.067	67.46
3539.921	63.46
3542.773	58.79
3545.622	59.13
3548.469	53.46
3551.315	48.46
3554.157	44.13
3556.998	39.13
3559.837	36.79
3562.673	36.46
3565.507	35.46
3568.339	30.46
3571.169	30.79
3573.996	27.79
3576.822	22.79
3579.645	20.79
3582.466	20.13
3585.285	17.79
3588.101	14.46
3590.916	11.79
3593.728	8.46
3596.538	7.79
3599.346	8.13
3602.152	2.46
3604.956	1.46
3607.757	0.46
3610.556	-2.21
3613.354	-4.54
3616.149	-3.87
3618.942	-8.21
3621.732	-9.21
3624.521	-12.87
3627.307	-14.21
3630.092	-13.21
3632.874	-14.21
3635.654	-16.54
3638.432	-16.54
3641.208	-17.54
3643.982	-17.21
3646.753	-19.21
3649.523	-21.87
3652.29	-22.21
3655.055	-23.54
3657.818	-23.87
3660.579	-25.87
3663.338	-26.87
3666.095	-28.87
3668.849	-30.54
3671.602	-28.87
3674.352	-33.21
3677.101	-31.21
3679.847	-32.54
3682.591	-34.21
3685.333	-35.21
3688.073	-34.21
3690.811	-37.54
3693.547	-34.54
3696.281	-36.54
3699.013	-37.87
3701.742	-38.54
3704.47	-38.21
3707.195	-39.87
3709.919	-39.54
3712.64	-39.87
3715.359	-39.87
3718.076	-42.54
3720.792	-43.87
3723.505	-42.87
3726.216	-42.21
3728.925	-45.87
3731.632	-43.21
3734.336	-41.87
3737.039	-42.87
3739.74	-45.54
3742.439	-45.87
3745.136	-45.87
3747.83	-46.21
3750.523	-45.87
3753.213	-43.21
3755.902	-46.54
3758.589	-45.54
3761.273	-47.54
3763.956	-47.87
3766.636	-46.21
3769.315	-46.87
3771.991	-48.87
3774.665	-45.87
3777.338	-48.54
3780.008	-47.54
3782.677	-48.21
3785.343	-50.21
3788.007	-47.87
3790.67	-47.87
3793.33	-47.87
3795.989	-49.87
3798.645	-47.87
3801.299	-50.21
3803.952	-49.54
3806.602	-49.87
3809.251	-47.87
3811.897	-47.87
3814.542	-49.54
3817.184	-49.54
3819.825	-48.87
3822.463	-49.21
3825.1	-51.21
3827.735	-48.87
3830.367	-49.87
3832.998	-50.21
3835.627	-49.54
3838.253	-47.87
3840.878	-48.21
3843.501	-50.87
3846.122	-50.21
3848.741	-48.54
3851.358	-49.21
3853.973	-48.87
3856.586	-50.87
3859.197	-51.21
3861.806	-48.54
3864.414	-47.87
3867.019	-48.54
3869.622	-46.21
3872.224	-47.87
3874.823	-47.54
3877.421	-46.21
3880.016	-43.87
3882.61	-40.54
3885.202	-40.21
3887.792	-41.87
3890.38	-43.54
3892.966	-46.21
3895.55	-50.21
3898.132	-50.21
3900.713	-50.21
3903.291	-49.54
3905.868	-48.54
3908.442	-49.54
3911.015	-48.87
3913.586	-50.87
3916.155	-52.87
3918.722	-52.21
3921.287	-51.87
3923.85	-52.21
3926.411	-52.87
3928.971	-49.87
3931.528	-49.87
3934.084	-51.21
3936.638	-51.21
3939.19	-49.87
3941.74	-49.87
3944.288	-50.54
3946.834	-51.87
3949.378	-50.21
3951.921	-50.87
3954.462	-50.87
3957	-53.54
3959.537	-51.54
3962.072	-51.21
3964.606	-50.87
3967.137	-51.21
3969.667	-50.54
3972.194	-50.87
3974.72	-51.54
3977.244	-51.21
3979.766	-50.87
3982.286	-52.21
3984.805	-50.54
3987.321	-49.54
3989.836	-52.54
3992.349	-53.21
3994.86	-50.87
3997.369	-51.21
3999.877	-51.87
4002.382	-50.54
4004.886	-51.21
4007.388	-51.54
4009.888	-50.21
4012.386	-49.87
4014.883	-50.21
4017.377	-51.21
4019.87	-51.21
4022.361	-51.54
4024.85	-49.54
4027.338	-50.21
4029.823	-51.21
4032.307	-51.21
4034.789	-49.54
4037.269	-49.54
4039.747	-50.87
4042.224	-50.21
4044.699	-54.21
4047.172	-51.21
4049.643	-50.21
4052.112	-51.54
4054.58	-48.87
4057.046	-47.87
4059.51	-51.54
4061.972	-50.54
4064.432	-49.87
4066.891	-48.54
4069.348	-49.87
4071.803	-50.54
4074.256	-49.54
4076.708	-49.54
4079.158	-50.21
4081.606	-52.54
4084.052	-50.21
4086.497	-49.21
4088.939	-49.54
4091.38	-49.87
4093.819	-49.54
4096.257	-51.21
4098.693	-49.87
4101.127	-51.54
4103.559	-51.87
4105.989	-32.54
4108.418	-31.54
4110.845	-30.21
4113.27	-26.54
4115.694	-23.87
4118.115	-21.54
4120.535	-47.54
4122.954	-48.87
4125.37	-48.87
4127.785	-49.87
4130.198	-49.87
4132.609	-49.21
4135.019	-49.87
4137.427	-50.21
4139.833	-49.87
4142.237	-50.21
