Data from Tap water 2.5ml (I=1_T=5x3)_RamanShift_1.txt Node
Date: Mon May 29 13:59:15 IDT 2017
User: aro
Spectrometer: QEPB0276
Trigger mode: 0
Integration Time (sec): 5.000000E0
Scans to average: 3
Electric dark correction enabled: true
Nonlinearity correction enabled: false
Boxcar width: 0
XAxis mode: Raman Shifts
Number of Pixels in Spectrum: 1044
>>>>>Begin Spectral Data<<<<<
160.701	-37.21
166.742	4.13
172.777	113.79
178.805	469.13
184.826	1320.46
190.841	2765.79
196.849	4399.46
202.85	5466.12
208.845	5701.79
214.833	5503.79
220.815	5266.46
226.789	5059.13
232.758	4899.79
238.719	4717.13
244.674	4505.46
250.623	4294.46
256.565	4061.79
262.5	3861.79
268.429	3662.79
274.351	3507.79
280.267	3339.46
286.176	3197.46
292.079	3065.13
297.975	2960.79
303.865	2868.12
309.748	2795.79
315.625	2712.79
321.495	2668.79
327.359	2613.12
333.217	2590.46
339.068	2574.13
344.912	2560.46
350.751	2546.13
356.583	2530.79
362.408	2535.12
368.227	2537.79
374.04	2568.13
379.847	2594.46
385.647	2594.46
391.44	2594.46
397.228	2591.46
403.009	2599.79
408.784	2633.12
414.553	2706.79
420.315	2801.13
426.071	2813.13
431.821	2694.13
437.565	2607.79
443.302	2572.46
449.033	2555.13
454.758	2526.79
460.477	2522.46
466.189	2494.46
471.896	2465.79
477.596	2455.46
483.29	2431.13
488.978	2421.79
494.66	2402.46
500.335	2349.79
506.005	2302.46
511.668	2252.79
517.325	2198.13
522.977	2157.12
528.622	2125.13
534.261	2091.79
539.894	2072.79
545.521	2042.46
551.141	2017.79
556.756	2000.79
562.365	1978.13
567.968	1969.12
573.565	1933.46
579.155	1926.79
584.74	1908.46
590.319	1878.46
595.892	1857.79
601.459	1843.79
607.02	1833.46
612.575	1792.46
618.124	1769.79
623.667	1744.79
629.204	1727.79
634.735	1723.13
640.261	1720.79
645.781	1747.13
651.294	1732.46
656.802	1707.79
662.304	1648.13
667.8	1625.79
673.29	1606.79
678.775	1590.79
684.254	1578.13
689.726	1566.46
695.193	1557.46
700.655	1522.13
706.11	1506.46
711.56	1496.46
717.004	1480.46
722.442	1454.79
727.874	1440.79
733.301	1430.79
738.722	1422.46
744.137	1411.13
749.547	1410.13
754.951	1400.79
760.349	1391.13
765.741	1380.13
771.128	1359.46
776.509	1352.46
781.885	1349.46
787.254	1332.79
792.618	1313.79
797.977	1302.46
803.33	1271.13
808.677	1256.13
814.019	1243.46
819.355	1225.13
824.686	1205.46
830.011	1186.79
835.33	1172.46
840.644	1151.46
845.952	1143.79
851.255	1123.46
856.552	1104.46
861.844	1090.79
867.13	1077.46
872.41	1064.46
877.686	1043.13
882.955	1024.79
888.219	1006.13
893.478	964.46
898.731	943.79
903.979	919.46
909.221	899.79
914.458	887.79
919.69	885.79
924.916	877.79
930.136	868.46
935.351	866.13
940.561	843.79
945.766	842.13
950.965	836.46
956.158	818.46
961.347	806.46
966.529	783.79
971.707	765.46
976.879	753.46
982.046	740.13
987.208	739.79
992.364	734.46
997.515	730.46
1002.66	727.13
1007.801	741.46
1012.936	742.46
1018.066	746.46
1023.19	736.79
1028.309	740.46
1033.423	737.79
1038.532	723.13
1043.636	719.46
1048.734	709.13
1053.827	699.46
1058.915	684.13
1063.998	689.79
1069.075	672.79
1074.147	675.79
1079.214	671.46
1084.276	681.79
1089.333	685.46
1094.385	679.79
1099.431	693.46
1104.472	677.79
1109.509	672.13
1114.54	665.46
1119.565	660.13
1124.586	648.79
1129.602	634.13
1134.613	635.13
1139.618	622.46
1144.619	629.13
1149.614	623.46
1154.604	627.13
1159.589	624.46
1164.57	629.46
1169.545	630.79
1174.515	626.13
1179.48	621.46
1184.44	624.13
1189.395	616.13
1194.345	608.46
1199.29	602.79
1204.23	605.13
1209.165	610.13
1214.095	609.79
1219.021	609.13
1223.941	611.79
1228.856	616.13
1233.766	611.79
1238.672	620.46
1243.572	613.79
1248.467	603.13
1253.358	593.13
1258.244	588.13
1263.124	572.46
1268	561.79
1272.871	553.13
1277.737	548.13
1282.599	547.46
1287.455	547.46
1292.306	543.46
1297.153	549.46
1301.995	549.13
1306.832	549.79
1311.664	547.46
1316.491	543.79
1321.314	542.79
1326.132	537.46
1330.945	517.46
1335.753	513.13
1340.556	499.13
1345.354	484.46
1350.148	484.46
1354.937	475.13
1359.722	472.46
1364.501	471.79
1369.276	468.46
1374.046	472.46
1378.811	473.79
1383.572	470.13
1388.327	466.46
1393.079	465.13
1397.825	453.79
1402.567	446.13
1407.304	442.46
1412.036	437.46
1416.764	429.46
1421.487	426.13
1426.205	428.79
1430.919	434.13
1435.628	437.79
1440.333	439.13
1445.032	443.46
1449.727	447.46
1454.418	445.46
1459.104	445.46
1463.785	433.46
1468.462	432.46
1473.134	427.79
1477.802	419.79
1482.465	424.46
1487.123	427.79
1491.777	431.46
1496.426	429.46
1501.071	442.79
1505.711	452.13
1510.347	457.46
1514.978	470.79
1519.604	481.46
1524.226	490.79
1528.844	491.46
1533.457	493.46
1538.065	499.13
1542.669	500.46
1547.269	501.13
1551.864	512.13
1556.454	528.46
1561.041	539.79
1565.622	545.13
1570.199	564.13
1574.772	581.46
1579.34	601.46
1583.904	628.13
1588.464	651.79
1593.019	671.46
1597.569	703.13
1602.115	721.13
1606.657	739.46
1611.195	763.46
1615.728	794.79
1620.256	817.46
1624.78	838.13
1629.3	872.13
1633.816	889.79
1638.327	904.13
1642.834	923.13
1647.336	924.79
1651.834	917.13
1656.328	913.79
1660.817	893.13
1665.302	866.79
1669.783	829.46
1674.259	781.13
1678.732	742.13
1683.199	698.13
1687.663	648.79
1692.122	605.79
1696.577	563.13
1701.028	526.46
1705.474	496.46
1709.917	466.13
1714.355	432.46
1718.788	414.13
1723.218	381.79
1727.643	353.79
1732.064	332.79
1736.481	307.79
1740.893	285.79
1745.301	260.46
1749.705	240.79
1754.105	227.46
1758.501	211.79
1762.893	196.46
1767.28	183.46
1771.663	172.13
1776.042	165.79
1780.417	158.13
1784.787	154.46
1789.154	154.13
1793.516	149.46
1797.874	151.46
1802.228	141.79
1806.578	141.13
1810.924	138.79
1815.266	130.79
1819.603	119.79
1823.937	114.46
1828.266	115.13
1832.591	109.79
1836.913	105.13
1841.23	104.13
1845.543	99.46
1849.852	101.13
1854.156	100.79
1858.457	98.46
1862.754	100.46
1867.047	103.46
1871.335	102.46
1875.62	100.46
1879.9	100.46
1884.177	102.46
1888.449	98.79
1892.718	102.46
1896.982	100.79
1901.243	101.79
1905.499	98.13
1909.752	99.13
1914	103.13
1918.245	102.46
1922.485	105.13
1926.722	107.46
1930.954	109.46
1935.183	115.46
1939.408	117.46
1943.628	121.13
1947.845	119.46
1952.058	119.13
1956.267	118.13
1960.472	117.46
1964.673	111.79
1968.87	111.46
1973.063	108.79
1977.252	108.13
1981.438	109.46
1985.619	110.79
1989.797	109.46
1993.971	107.13
1998.14	111.13
2002.306	115.79
2006.469	113.13
2010.627	124.46
2014.781	124.13
2018.932	119.79
2023.078	123.46
2027.221	126.13
2031.36	124.46
2035.495	122.46
2039.627	119.13
2043.754	119.46
2047.878	126.13
2051.998	126.46
2056.114	128.46
2060.226	127.13
2064.334	128.79
2068.439	131.13
2072.54	133.79
2076.637	137.13
2080.73	143.46
2084.82	145.46
2088.906	141.13
2092.988	144.79
2097.066	140.46
2101.14	143.46
2105.211	138.46
2109.278	138.13
2113.342	132.46
2117.401	138.13
2121.457	127.46
2125.509	127.46
2129.558	129.79
2133.602	117.46
2137.643	120.13
2141.681	112.79
2145.714	114.46
2149.744	108.79
2153.77	112.79
2157.793	105.46
2161.812	101.13
2165.827	97.79
2169.838	95.79
2173.846	88.46
2177.851	82.79
2181.851	79.46
2185.848	71.46
2189.841	70.46
2193.831	64.79
2197.817	64.13
2201.799	61.79
2205.778	60.79
2209.753	55.46
2213.725	52.46
2217.693	53.79
2221.657	47.79
2225.618	48.46
2229.575	42.46
2233.529	41.46
2237.479	36.46
2241.425	31.13
2245.368	29.46
2249.307	23.46
2253.243	20.79
2257.175	15.79
2261.104	9.79
2265.029	7.46
2268.95	8.46
2272.868	7.46
2276.783	-0.54
2280.694	-2.21
2284.601	-7.54
2288.505	-3.87
2292.405	-8.21
2296.302	-12.87
2300.195	-13.21
2304.085	-17.21
2307.971	-19.21
2311.854	-19.21
2315.734	-26.21
2319.609	-28.21
2323.482	-28.21
2327.351	-31.21
2331.216	-27.54
2335.078	-27.54
2338.937	-32.21
2342.792	-34.54
2346.643	-39.21
2350.492	-38.54
2354.336	-39.87
2358.178	-39.54
2362.015	-39.87
2365.85	-38.54
2369.681	-39.21
2373.508	-44.21
2377.333	-42.21
2381.153	-41.54
2384.971	-42.87
2388.785	-45.21
2392.595	-47.21
2396.402	-45.21
2400.206	-50.87
2404.007	-51.21
2407.804	-51.87
2411.597	-52.54
2415.388	-53.54
2419.174	-53.21
2422.958	-51.87
2426.738	-56.87
2430.515	-58.87
2434.289	-53.87
2438.059	-59.87
2441.825	-56.87
2445.589	-60.21
2449.349	-60.87
2453.106	-63.87
2456.859	-63.54
2460.61	-64.87
2464.356	-65.21
2468.1	-64.21
2471.84	-65.87
2475.577	-66.21
2479.311	-67.87
2483.041	-66.54
2486.768	-66.21
2490.492	-67.87
2494.213	-71.21
2497.93	-66.87
2501.644	-69.21
2505.355	-69.21
2509.062	-69.54
2512.766	-67.54
2516.467	-68.21
2520.165	-71.87
2523.859	-70.21
2527.551	-68.87
2531.239	-72.21
2534.923	-72.21
2538.605	-71.87
2542.283	-72.21
2545.958	-70.21
2549.63	-72.87
2553.299	-74.21
2556.964	-71.87
2560.626	-76.21
2564.285	-73.54
2567.941	-72.87
2571.594	-75.54
2575.243	-76.87
2578.89	-74.87
2582.533	-78.54
2586.173	-73.87
2589.809	-80.87
2593.443	-77.54
2597.073	-77.87
2600.701	-77.54
2604.325	-81.21
2607.946	-80.87
2611.564	-79.87
2615.178	-79.21
2618.79	-76.21
2622.398	-75.54
2626.004	-78.21
2629.606	-77.54
2633.205	-76.54
2636.801	-79.87
2640.394	-78.54
2643.983	-80.21
2647.57	-78.21
2651.153	-81.87
2654.734	-79.21
2658.311	-79.54
2661.885	-79.21
2665.456	-81.21
2669.025	-80.21
2672.589	-78.54
2676.151	-79.87
2679.71	-80.21
2683.266	-78.87
2686.819	-79.54
2690.368	-78.87
2693.915	-80.21
2697.458	-77.87
2700.999	-80.54
2704.536	-77.21
2708.071	-75.87
2711.602	-76.54
2715.13	-78.54
2718.656	-77.54
2722.178	-76.54
2725.697	-76.54
2729.214	-75.21
2732.727	-71.21
2736.237	-72.87
2739.744	-71.54
2743.249	-74.54
2746.75	-71.21
2750.248	-69.21
2753.743	-67.87
2757.236	-65.54
2760.725	-63.87
2764.211	-63.54
2767.695	-62.54
2771.175	-61.21
2774.652	-63.21
2778.127	-61.54
2781.598	-59.54
2785.067	-59.54
2788.532	-57.21
2791.995	-53.87
2795.455	-51.21
2798.911	-53.21
2802.365	-45.87
2805.816	-48.54
2809.264	-45.21
2812.709	-41.54
2816.151	-43.54
2819.59	-38.87
2823.026	-37.21
2826.46	-35.54
2829.89	-32.54
2833.318	-30.54
2836.742	-29.54
2840.164	-24.54
2843.583	-22.87
2846.999	-20.21
2850.412	-14.54
2853.822	-11.54
2857.229	-9.54
2860.634	-3.87
2864.035	-2.87
2867.434	-0.54
2870.83	6.46
2874.223	5.79
2877.613	9.13
2881	16.46
2884.385	17.46
2887.766	22.79
2891.145	22.13
2894.521	29.13
2897.894	27.13
2901.264	31.13
2904.631	35.13
2907.996	41.46
2911.358	51.79
2914.717	50.13
2918.073	53.46
2921.426	63.46
2924.777	70.79
2928.124	74.46
2931.469	78.79
2934.811	84.46
2938.15	89.79
2941.487	96.13
2944.821	103.46
2948.152	106.79
2951.48	114.46
2954.805	122.46
2958.128	131.13
2961.447	138.79
2964.765	142.46
2968.079	150.79
2971.39	160.79
2974.699	173.46
2978.005	177.46
2981.308	189.13
2984.609	200.13
2987.907	210.79
2991.202	223.13
2994.494	239.13
2997.784	244.79
3001.07	266.13
3004.355	274.79
3007.636	288.13
3010.915	299.13
3014.191	305.46
3017.464	316.79
3020.734	332.46
3024.002	342.13
3027.267	351.79
3030.53	357.46
3033.789	366.79
3037.046	380.79
3040.301	395.46
3043.552	410.79
3046.801	421.46
3050.048	436.13
3053.291	461.13
3056.532	474.13
3059.771	500.46
3063.006	519.79
3066.239	539.79
3069.469	563.13
3072.697	585.79
3075.922	605.46
3079.144	630.46
3082.364	643.79
3085.581	664.13
3088.795	682.79
3092.007	698.79
3095.216	730.46
3098.423	743.13
3101.627	772.79
3104.828	796.79
3108.026	814.46
3111.222	828.13
3114.416	856.79
3117.607	884.13
3120.795	902.46
3123.98	942.79
3127.163	957.46
3130.344	984.79
3133.521	1010.46
3136.696	1043.13
3139.869	1066.79
3143.039	1088.13
3146.206	1104.46
3149.371	1128.13
3152.533	1138.46
3155.693	1151.13
3158.85	1156.13
3162.005	1173.13
3165.157	1179.13
3168.306	1187.79
3171.453	1192.13
3174.597	1199.46
3177.739	1211.13
3180.878	1205.13
3184.014	1220.13
3187.149	1222.79
3190.28	1236.13
3193.409	1233.13
3196.536	1243.46
3199.659	1259.46
3202.781	1256.46
3205.9	1258.13
3209.016	1267.13
3212.13	1274.13
3215.241	1270.46
3218.35	1256.46
3221.456	1246.13
3224.56	1243.46
3227.661	1231.13
3230.76	1218.46
3233.856	1220.46
3236.95	1209.46
3240.041	1197.13
3243.13	1201.79
3246.216	1182.79
3249.3	1188.13
3252.382	1188.13
3255.46	1181.79
3258.537	1182.13
3261.611	1186.46
3264.682	1172.79
3267.751	1166.46
3270.818	1166.46
3273.882	1168.46
3276.943	1147.13
3280.002	1148.79
3283.059	1132.79
3286.113	1128.79
3289.165	1106.79
3292.214	1095.13
3295.261	1084.13
3298.306	1063.13
3301.348	1037.46
3304.387	1032.13
3307.425	1017.13
3310.459	1003.79
3313.492	993.13
3316.521	979.79
3319.549	974.13
3322.574	956.46
3325.597	957.79
3328.617	951.79
3331.635	937.79
3334.65	944.79
3337.663	940.79
3340.674	937.46
3343.682	930.13
3346.688	927.13
3349.691	928.13
3352.692	924.46
3355.691	916.46
3358.687	908.79
3361.681	895.79
3364.673	891.46
3367.662	881.79
3370.649	873.13
3373.633	860.46
3376.615	851.46
3379.595	837.46
3382.572	825.13
3385.547	818.13
3388.52	805.46
3391.49	797.79
3394.458	782.46
3397.424	784.13
3400.387	767.79
3403.348	761.79
3406.307	760.13
3409.263	747.79
3412.217	744.46
3415.168	737.46
3418.118	726.46
3421.065	720.46
3424.009	705.46
3426.951	702.79
3429.891	687.79
3432.829	677.46
3435.764	662.79
3438.697	647.13
3441.628	627.13
3444.557	618.13
3447.483	593.46
3450.407	586.46
3453.328	572.46
3456.247	547.13
3459.164	542.46
3462.079	524.46
3464.991	506.13
3467.902	491.13
3470.809	477.13
3473.715	463.79
3476.618	447.13
3479.519	437.13
3482.418	424.13
3485.315	408.13
3488.209	399.79
3491.101	389.46
3493.99	377.46
3496.878	361.46
3499.763	362.46
3502.646	345.13
3505.527	338.13
3508.405	317.79
3511.281	309.46
3514.155	292.13
3517.027	284.46
3519.897	266.79
3522.764	254.46
3525.629	237.79
3528.492	226.46
3531.352	216.13
3534.211	204.79
3537.067	191.13
3539.921	176.13
3542.773	168.79
3545.622	156.79
3548.469	143.79
3551.315	138.13
3554.157	124.79
3556.998	119.46
3559.837	112.46
3562.673	106.13
3565.507	99.46
3568.339	86.13
3571.169	85.79
3573.996	77.79
3576.822	72.13
3579.645	66.13
3582.466	57.46
3585.285	51.13
3588.101	43.79
3590.916	37.46
3593.728	32.13
3596.538	24.13
3599.346	16.79
3602.152	10.46
3604.956	4.79
3607.757	4.79
3610.556	-5.87
3613.354	-7.21
3616.149	-10.87
3618.942	-15.21
3621.732	-19.87
3624.521	-26.54
3627.307	-27.21
3630.092	-31.54
3632.874	-33.87
3635.654	-37.54
3638.432	-42.21
3641.208	-45.87
3643.982	-46.87
3646.753	-48.87
3649.523	-55.54
3652.29	-55.21
3655.055	-63.54
3657.818	-59.87
3660.579	-66.87
3663.338	-71.21
3666.095	-74.21
3668.849	-75.87
3671.602	-78.54
3674.352	-80.21
3677.101	-84.21
3679.847	-85.21
3682.591	-87.87
3685.333	-88.54
3688.073	-92.87
3690.811	-94.87
3693.547	-95.87
3696.281	-99.21
3699.013	-98.87
3701.742	-100.54
3704.47	-102.54
3707.195	-105.87
3709.919	-103.87
3712.64	-106.21
3715.359	-107.54
3718.076	-109.54
3720.792	-110.87
3723.505	-111.54
3726.216	-115.21
3728.925	-113.21
3731.632	-112.87
3734.336	-115.21
3737.039	-115.87
3739.74	-117.87
3742.439	-118.54
3745.136	-119.54
3747.83	-120.87
3750.523	-120.87
3753.213	-119.87
3755.902	-120.87
3758.589	-121.54
3761.273	-121.54
3763.956	-123.87
3766.636	-122.54
3769.315	-123.54
3771.991	-124.54
3774.665	-124.21
3777.338	-125.87
3780.008	-125.21
3782.677	-128.87
3785.343	-128.54
3788.007	-126.21
3790.67	-126.54
3793.33	-127.21
3795.989	-128.21
3798.645	-126.87
3801.299	-128.87
3803.952	-129.21
3806.602	-129.54
3809.251	-128.54
3811.897	-131.54
3814.542	-128.87
3817.184	-128.87
3819.825	-129.21
3822.463	-129.54
3825.1	-132.21
3827.735	-128.87
3830.367	-127.87
3832.998	-131.54
3835.627	-131.21
3838.253	-129.21
3840.878	-131.54
3843.501	-131.54
3846.122	-130.21
3848.741	-128.87
3851.358	-132.54
3853.973	-132.54
3856.586	-133.21
3859.197	-132.21
3861.806	-130.54
3864.414	-130.21
3867.019	-128.87
3869.622	-128.21
3872.224	-128.54
3874.823	-125.21
3877.421	-120.21
3880.016	-114.87
3882.61	-106.21
3885.202	-105.54
3887.792	-111.87
3890.38	-119.87
3892.966	-125.87
3895.55	-131.54
3898.132	-131.21
3900.713	-134.54
3903.291	-132.54
3905.868	-132.21
3908.442	-131.87
3911.015	-132.87
3913.586	-134.21
3916.155	-135.21
3918.722	-135.21
3921.287	-135.21
3923.85	-135.21
3926.411	-135.21
3928.971	-133.87
3931.528	-132.87
3934.084	-134.87
3936.638	-136.54
3939.19	-133.87
3941.74	-134.54
3944.288	-134.21
3946.834	-135.87
3949.378	-134.87
3951.921	-134.21
3954.462	-135.54
3957	-135.87
3959.537	-133.87
3962.072	-133.21
3964.606	-134.87
3967.137	-135.21
3969.667	-133.21
3972.194	-135.54
3974.72	-132.87
3977.244	-134.21
3979.766	-132.87
3982.286	-134.54
3984.805	-132.87
3987.321	-132.54
3989.836	-133.87
3992.349	-133.87
3994.86	-132.21
3997.369	-132.54
3999.877	-132.87
4002.382	-133.54
4004.886	-132.87
4007.388	-135.87
4009.888	-132.21
4012.386	-134.54
4014.883	-133.87
4017.377	-132.87
4019.87	-133.54
4022.361	-135.21
4024.85	-133.54
4027.338	-133.21
4029.823	-133.21
4032.307	-136.54
4034.789	-133.54
4037.269	-133.21
4039.747	-134.54
4042.224	-133.54
4044.699	-136.54
4047.172	-132.87
4049.643	-133.87
4052.112	-133.54
4054.58	-132.54
4057.046	-131.54
4059.51	-136.21
4061.972	-134.87
4064.432	-133.21
4066.891	-133.21
4069.348	-132.54
4071.803	-133.54
4074.256	-131.87
4076.708	-132.54
4079.158	-133.21
4081.606	-136.21
4084.052	-134.21
4086.497	-132.87
4088.939	-132.54
4091.38	-134.54
4093.819	-132.87
4096.257	-136.87
4098.693	-136.54
4101.127	-138.87
4103.559	-138.21
4105.989	-83.54
4108.418	-80.21
4110.845	-75.54
4113.27	-71.21
4115.694	-65.54
4118.115	-54.21
4120.535	-131.87
4122.954	-132.54
4125.37	-131.87
4127.785	-134.54
4130.198	-134.87
4132.609	-134.21
4135.019	-136.87
4137.427	-138.54
4139.833	-137.54
4142.237	-136.87
