Data from Water 1_I=1_T=5x3_2ml_RamanShift_1.txt Node
Date: Mon May 29 13:09:56 IDT 2017
User: aro
Spectrometer: QEPB0276
Trigger mode: 0
Integration Time (sec): 5.000000E0
Scans to average: 3
Electric dark correction enabled: true
Nonlinearity correction enabled: false
Boxcar width: 0
XAxis mode: Raman Shifts
Number of Pixels in Spectrum: 1044
>>>>>Begin Spectral Data<<<<<
160.701	-31.46
166.742	1.21
172.777	105.21
178.805	426.21
184.826	1189.21
190.841	2476.21
196.849	3900.21
202.85	4838.54
208.845	5047.88
214.833	4864.54
220.815	4645.21
226.789	4482.88
232.758	4335.88
238.719	4179.54
244.674	4001.88
250.623	3808.88
256.565	3612.88
262.5	3421.54
268.429	3259.54
274.351	3104.21
280.267	2964.21
286.176	2841.88
292.079	2734.21
297.975	2632.54
303.865	2555.21
309.748	2467.54
315.625	2432.54
321.495	2378.88
327.359	2336.54
333.217	2302.21
339.068	2289.88
344.912	2287.88
350.751	2273.88
356.583	2268.21
362.408	2272.54
368.227	2271.54
374.04	2295.88
379.847	2319.88
385.647	2347.54
391.44	2337.88
397.228	2322.21
403.009	2333.88
408.784	2375.21
414.553	2444.88
420.315	2536.21
426.071	2536.88
431.821	2441.88
437.565	2358.54
443.302	2329.54
449.033	2292.54
454.758	2276.88
460.477	2266.54
466.189	2246.54
471.896	2228.54
477.596	2208.54
483.29	2187.88
488.978	2180.21
494.66	2154.54
500.335	2118.88
506.005	2072.54
511.668	2020.88
517.325	1980.21
522.977	1933.21
528.622	1904.88
534.261	1872.88
539.894	1845.54
545.521	1821.88
551.141	1798.54
556.756	1787.88
562.365	1762.54
567.968	1760.88
573.565	1741.21
579.155	1723.54
584.74	1698.21
590.319	1686.88
595.892	1672.88
601.459	1660.54
607.02	1631.54
612.575	1617.54
618.124	1591.88
623.667	1577.21
629.204	1539.54
634.735	1548.21
640.261	1545.88
645.781	1565.54
651.294	1572.88
656.802	1535.54
662.304	1492.54
667.8	1466.21
673.29	1448.88
678.775	1427.54
684.254	1419.88
689.726	1406.54
695.193	1393.88
700.655	1376.88
706.11	1358.21
711.56	1348.54
717.004	1337.54
722.442	1317.54
727.874	1301.21
733.301	1291.21
738.722	1283.54
744.137	1280.88
749.547	1281.88
754.951	1284.21
760.349	1256.54
765.741	1244.88
771.128	1236.54
776.509	1221.88
781.885	1217.54
787.254	1209.88
792.618	1192.54
797.977	1181.88
803.33	1159.54
808.677	1153.88
814.019	1133.21
819.355	1119.21
824.686	1096.21
830.011	1083.88
835.33	1074.54
840.644	1062.54
845.952	1038.88
851.255	1028.21
856.552	1023.88
861.844	1012.21
867.13	987.88
872.41	1004.54
877.686	989.21
882.955	977.21
888.219	958.21
893.478	917.88
898.731	876.54
903.979	861.54
909.221	834.88
914.458	818.54
919.69	807.54
924.916	807.54
930.136	803.54
935.351	792.88
940.561	787.21
945.766	773.21
950.965	763.21
956.158	750.54
961.347	733.88
966.529	718.21
971.707	700.88
976.879	694.21
982.046	684.54
987.208	673.54
992.364	674.54
997.515	673.54
1002.66	677.54
1007.801	677.21
1012.936	687.88
1018.066	687.54
1023.19	689.21
1028.309	687.88
1033.423	682.88
1038.532	681.21
1043.636	678.54
1048.734	668.54
1053.827	663.88
1058.915	650.21
1063.998	632.54
1069.075	633.21
1074.147	636.21
1079.214	640.88
1084.276	646.88
1089.333	649.54
1094.385	647.54
1099.431	642.21
1104.472	637.54
1109.509	631.54
1114.54	620.54
1119.565	606.88
1124.586	594.54
1129.602	588.88
1134.613	582.21
1139.618	577.21
1144.619	568.88
1149.614	579.88
1154.604	579.54
1159.589	580.54
1164.57	584.21
1169.545	583.88
1174.515	577.54
1179.48	571.88
1184.44	574.88
1189.395	566.21
1194.345	561.88
1199.29	555.21
1204.23	555.54
1209.165	556.88
1214.095	565.88
1219.021	558.54
1223.941	568.88
1228.856	572.88
1233.766	569.88
1238.672	564.88
1243.572	567.21
1248.467	558.21
1253.358	548.54
1258.244	537.54
1263.124	526.88
1268	526.54
1272.871	511.54
1277.737	510.88
1282.599	504.54
1287.455	503.21
1292.306	507.88
1297.153	508.21
1301.995	509.88
1306.832	512.54
1311.664	509.88
1316.491	502.54
1321.314	496.21
1326.132	484.88
1330.945	479.21
1335.753	458.21
1340.556	449.88
1345.354	439.54
1350.148	437.21
1354.937	426.54
1359.722	424.21
1364.501	432.88
1369.276	438.54
1374.046	440.54
1378.811	446.54
1383.572	442.88
1388.327	451.21
1393.079	437.88
1397.825	434.88
1402.567	415.54
1407.304	412.88
1412.036	407.54
1416.764	406.21
1421.487	400.88
1426.205	404.88
1430.919	409.54
1435.628	408.88
1440.333	415.88
1445.032	421.88
1449.727	423.54
1454.418	422.88
1459.104	428.21
1463.785	425.54
1468.462	409.88
1473.134	399.88
1477.802	396.54
1482.465	395.21
1487.123	393.88
1491.777	394.88
1496.426	396.88
1501.071	412.54
1505.711	415.88
1510.347	427.54
1514.978	435.88
1519.604	442.54
1524.226	457.54
1528.844	450.54
1533.457	457.54
1538.065	460.88
1542.669	458.88
1547.269	463.21
1551.864	476.88
1556.454	481.88
1561.041	491.88
1565.622	505.21
1570.199	512.54
1574.772	533.88
1579.34	546.88
1583.904	565.88
1588.464	589.88
1593.019	610.21
1597.569	620.21
1602.115	642.21
1606.657	667.21
1611.195	685.21
1615.728	699.88
1620.256	718.88
1624.78	743.21
1629.3	767.54
1633.816	782.21
1638.327	797.54
1642.834	804.21
1647.336	813.21
1651.834	808.54
1656.328	803.54
1660.817	784.54
1665.302	760.54
1669.783	734.21
1674.259	695.88
1678.732	654.88
1683.199	609.54
1687.663	563.88
1692.122	533.21
1696.577	494.54
1701.028	472.88
1705.474	451.88
1709.917	425.54
1714.355	397.88
1718.788	380.21
1723.218	350.54
1727.643	324.54
1732.064	300.88
1736.481	280.54
1740.893	260.54
1745.301	243.21
1749.705	225.54
1754.105	207.21
1758.501	194.21
1762.893	179.21
1767.28	170.54
1771.663	153.21
1776.042	149.88
1780.417	145.88
1784.787	146.88
1789.154	141.21
1793.516	143.54
1797.874	138.88
1802.228	138.21
1806.578	134.21
1810.924	132.54
1815.266	127.88
1819.603	121.54
1823.937	114.88
1828.266	107.54
1832.591	107.54
1836.913	100.88
1841.23	100.21
1845.543	93.21
1849.852	97.88
1854.156	94.21
1858.457	94.54
1862.754	95.88
1867.047	93.54
1871.335	93.88
1875.62	94.21
1879.9	95.21
1884.177	94.21
1888.449	92.88
1892.718	96.21
1896.982	90.54
1901.243	91.88
1905.499	93.88
1909.752	91.88
1914	92.21
1918.245	97.21
1922.485	97.54
1926.722	102.54
1930.954	97.21
1935.183	106.21
1939.408	111.21
1943.628	111.21
1947.845	115.54
1952.058	109.88
1956.267	109.21
1960.472	108.54
1964.673	103.21
1968.87	103.54
1973.063	99.88
1977.252	100.54
1981.438	101.54
1985.619	102.88
1989.797	100.88
1993.971	103.21
1998.14	101.54
2002.306	104.21
2006.469	106.21
2010.627	110.21
2014.781	114.54
2018.932	107.88
2023.078	108.88
2027.221	105.54
2031.36	107.54
2035.495	105.21
2039.627	103.21
2043.754	110.21
2047.878	108.88
2051.998	108.21
2056.114	110.88
2060.226	111.21
2064.334	114.54
2068.439	115.88
2072.54	122.88
2076.637	121.54
2080.73	125.54
2084.82	128.21
2088.906	124.54
2092.988	130.54
2097.066	124.88
2101.14	122.54
2105.211	125.21
2109.278	124.54
2113.342	118.54
2117.401	119.88
2121.457	113.88
2125.509	113.54
2129.558	111.54
2133.602	111.54
2137.643	109.21
2141.681	104.88
2145.714	103.88
2149.744	100.54
2153.77	100.88
2157.793	94.54
2161.812	90.54
2165.827	83.88
2169.838	84.54
2173.846	79.88
2177.851	75.54
2181.851	72.88
2185.848	66.88
2189.841	64.21
2193.831	58.21
2197.817	57.88
2201.799	56.88
2205.778	54.88
2209.753	48.54
2213.725	49.21
2217.693	46.21
2221.657	44.54
2225.618	42.54
2229.575	39.88
2233.529	37.88
2237.479	36.54
2241.425	32.54
2245.368	29.88
2249.307	24.88
2253.243	22.88
2257.175	16.88
2261.104	9.54
2265.029	14.21
2268.95	8.21
2272.868	7.88
2276.783	4.88
2280.694	2.54
2284.601	-2.46
2288.505	-2.12
2292.405	-6.79
2296.302	-4.79
2300.195	-9.12
2304.085	-11.79
2307.971	-14.79
2311.854	-16.79
2315.734	-20.12
2319.609	-19.46
2323.482	-20.46
2327.351	-23.46
2331.216	-19.46
2335.078	-20.46
2338.937	-26.46
2342.792	-28.46
2346.643	-30.12
2350.492	-31.12
2354.336	-36.79
2358.178	-35.46
2362.015	-34.79
2365.85	-33.46
2369.681	-34.46
2373.508	-36.12
2377.333	-37.79
2381.153	-36.12
2384.971	-37.12
2388.785	-37.79
2392.595	-39.46
2396.402	-40.79
2400.206	-43.46
2404.007	-46.46
2407.804	-44.12
2411.597	-45.12
2415.388	-46.46
2419.174	-46.79
2422.958	-47.79
2426.738	-48.79
2430.515	-52.79
2434.289	-50.46
2438.059	-54.79
2441.825	-52.79
2445.589	-53.79
2449.349	-52.79
2453.106	-53.79
2456.859	-57.12
2460.61	-57.12
2464.356	-56.46
2468.1	-58.12
2471.84	-57.79
2475.577	-56.79
2479.311	-61.79
2483.041	-60.12
2486.768	-59.46
2490.492	-60.46
2494.213	-59.46
2497.93	-59.79
2501.644	-60.79
2505.355	-62.46
2509.062	-61.12
2512.766	-62.79
2516.467	-62.12
2520.165	-62.79
2523.859	-65.46
2527.551	-64.12
2531.239	-64.12
2534.923	-66.46
2538.605	-67.79
2542.283	-64.46
2545.958	-65.12
2549.63	-65.46
2553.299	-67.79
2556.964	-65.12
2560.626	-67.79
2564.285	-69.12
2567.941	-65.46
2571.594	-69.12
2575.243	-67.79
2578.89	-64.46
2582.533	-68.46
2586.173	-70.12
2589.809	-70.46
2593.443	-70.79
2597.073	-72.46
2600.701	-69.79
2604.325	-71.46
2607.946	-72.12
2611.564	-69.12
2615.178	-70.46
2618.79	-71.12
2622.398	-71.46
2626.004	-70.12
2629.606	-70.12
2633.205	-71.46
2636.801	-71.46
2640.394	-73.12
2643.983	-73.12
2647.57	-71.12
2651.153	-71.79
2654.734	-71.46
2658.311	-71.79
2661.885	-73.79
2665.456	-75.12
2669.025	-70.46
2672.589	-72.46
2676.151	-73.46
2679.71	-69.46
2683.266	-71.12
2686.819	-72.79
2690.368	-71.12
2693.915	-69.12
2697.458	-70.79
2700.999	-72.79
2704.536	-69.12
2708.071	-71.46
2711.602	-71.12
2715.13	-68.79
2718.656	-68.12
2722.178	-68.12
2725.697	-67.12
2729.214	-69.46
2732.727	-68.12
2736.237	-66.46
2739.744	-64.46
2743.249	-68.46
2746.75	-60.79
2750.248	-60.12
2753.743	-61.79
2757.236	-58.79
2760.725	-58.12
2764.211	-58.12
2767.695	-55.46
2771.175	-54.79
2774.652	-58.12
2778.127	-56.79
2781.598	-50.79
2785.067	-52.46
2788.532	-48.12
2791.995	-49.46
2795.455	-47.79
2798.911	-46.79
2802.365	-44.79
2805.816	-42.79
2809.264	-41.12
2812.709	-38.12
2816.151	-36.79
2819.59	-34.79
2823.026	-37.12
2826.46	-30.79
2829.89	-32.12
2833.318	-26.79
2836.742	-26.46
2840.164	-25.12
2843.583	-17.12
2846.999	-17.46
2850.412	-11.79
2853.822	-10.46
2857.229	-7.12
2860.634	-2.79
2864.035	-1.79
2867.434	0.54
2870.83	6.54
2874.223	9.54
2877.613	12.21
2881	17.54
2884.385	21.21
2887.766	27.54
2891.145	26.54
2894.521	32.88
2897.894	32.88
2901.264	37.54
2904.631	37.21
2907.996	43.21
2911.358	46.21
2914.717	52.88
2918.073	56.21
2921.426	59.21
2924.777	65.54
2928.124	72.54
2931.469	78.54
2934.811	83.88
2938.15	90.88
2941.487	94.54
2944.821	98.88
2948.152	107.21
2951.48	112.21
2954.805	115.88
2958.128	117.54
2961.447	121.21
2964.765	129.88
2968.079	133.54
2971.39	138.88
2974.699	152.54
2978.005	159.88
2981.308	173.54
2984.609	183.54
2987.907	194.88
2991.202	203.21
2994.494	207.88
2997.784	224.21
3001.07	229.21
3004.355	244.54
3007.636	258.88
3010.915	262.88
3014.191	274.88
3017.464	276.88
3020.734	286.21
3024.002	298.54
3027.267	304.88
3030.53	315.54
3033.789	328.88
3037.046	335.21
3040.301	350.54
3043.552	355.21
3046.801	376.88
3050.048	385.54
3053.291	405.88
3056.532	418.21
3059.771	438.21
3063.006	457.88
3066.239	478.54
3069.469	492.54
3072.697	511.88
3075.922	531.21
3079.144	546.88
3082.364	565.88
3085.581	582.88
3088.795	599.21
3092.007	619.88
3095.216	639.54
3098.423	654.21
3101.627	673.54
3104.828	700.21
3108.026	711.88
3111.222	735.54
3114.416	756.54
3117.607	781.21
3120.795	802.54
3123.98	823.54
3127.163	847.21
3130.344	871.21
3133.521	898.88
3136.696	914.88
3139.869	931.88
3143.039	962.88
3146.206	974.54
3149.371	988.21
3152.533	997.21
3155.693	1010.54
3158.85	1025.21
3162.005	1030.88
3165.157	1033.54
3168.306	1041.21
3171.453	1048.88
3174.597	1056.21
3177.739	1064.21
3180.878	1067.54
3184.014	1075.21
3187.149	1076.88
3190.28	1077.21
3193.409	1081.88
3196.536	1097.54
3199.659	1100.88
3202.781	1098.88
3205.9	1098.54
3209.016	1100.54
3212.13	1101.54
3215.241	1101.21
3218.35	1093.21
3221.456	1082.21
3224.56	1077.88
3227.661	1068.54
3230.76	1050.54
3233.856	1053.88
3236.95	1049.88
3240.041	1039.21
3243.13	1033.21
3246.216	1025.21
3249.3	1032.88
3252.382	1024.88
3255.46	1020.54
3258.537	1024.21
3261.611	1015.88
3264.682	1017.88
3267.751	1016.21
3270.818	1020.21
3273.882	1012.88
3276.943	1008.88
3280.002	997.88
3283.059	988.54
3286.113	971.54
3289.165	963.54
3292.214	956.88
3295.261	940.88
3298.306	927.21
3301.348	912.21
3304.387	896.54
3307.425	881.54
3310.459	875.54
3313.492	854.54
3316.521	850.54
3319.549	837.21
3322.574	822.88
3325.597	821.88
3328.617	826.21
3331.635	814.54
3334.65	804.88
3337.663	811.88
3340.674	807.54
3343.682	802.21
3346.688	803.88
3349.691	796.54
3352.692	796.54
3355.691	780.21
3358.687	788.54
3361.681	773.88
3364.673	762.88
3367.662	758.88
3370.649	742.21
3373.633	734.54
3376.615	723.21
3379.595	715.54
3382.572	713.54
3385.547	695.54
3388.52	682.21
3391.49	684.21
3394.458	670.54
3397.424	661.54
3400.387	655.88
3403.348	644.88
3406.307	646.21
3409.263	636.21
3412.217	632.54
3415.168	623.21
3418.118	625.88
3421.065	611.21
3424.009	607.21
3426.951	601.21
3429.891	585.88
3432.829	576.54
3435.764	568.54
3438.697	550.88
3441.628	538.54
3444.557	525.54
3447.483	506.21
3450.407	492.54
3453.328	480.54
3456.247	468.54
3459.164	456.21
3462.079	440.21
3464.991	432.21
3467.902	409.21
3470.809	399.88
3473.715	386.54
3476.618	377.21
3479.519	367.88
3482.418	355.54
3485.315	349.88
3488.209	335.54
3491.101	328.54
3493.99	316.21
3496.878	303.88
3499.763	300.21
3502.646	286.21
3505.527	276.54
3508.405	271.88
3511.281	258.88
3514.155	244.21
3517.027	233.21
3519.897	219.88
3522.764	209.88
3525.629	200.88
3528.492	187.88
3531.352	179.88
3534.211	169.21
3537.067	154.88
3539.921	141.21
3542.773	137.21
3545.622	129.21
3548.469	119.54
3551.315	106.21
3554.157	102.21
3556.998	93.54
3559.837	88.54
3562.673	82.88
3565.507	74.88
3568.339	66.54
3571.169	62.54
3573.996	55.88
3576.822	52.21
3579.645	42.54
3582.466	42.21
3585.285	34.54
3588.101	29.21
3590.916	23.88
3593.728	15.54
3596.538	12.21
3599.346	5.21
3602.152	1.54
3604.956	0.54
3607.757	-5.46
3610.556	-7.46
3613.354	-15.79
3616.149	-18.79
3618.942	-22.79
3621.732	-27.12
3624.521	-27.79
3627.307	-32.46
3630.092	-34.79
3632.874	-39.12
3635.654	-39.79
3638.432	-43.79
3641.208	-46.79
3643.982	-46.79
3646.753	-49.12
3649.523	-56.79
3652.29	-56.79
3655.055	-61.46
3657.818	-61.12
3660.579	-65.79
3663.338	-67.79
3666.095	-70.12
3668.849	-74.46
3671.602	-76.12
3674.352	-76.79
3677.101	-80.46
3679.847	-82.79
3682.591	-83.12
3685.333	-87.12
3688.073	-88.12
3690.811	-90.46
3693.547	-90.79
3696.281	-93.46
3699.013	-94.79
3701.742	-94.12
3704.47	-97.46
3707.195	-98.79
3709.919	-100.46
3712.64	-100.12
3715.359	-100.12
3718.076	-102.12
3720.792	-104.12
3723.505	-105.46
3726.216	-104.12
3728.925	-108.46
3731.632	-107.79
3734.336	-104.79
3737.039	-105.79
3739.74	-108.46
3742.439	-108.46
3745.136	-110.12
3747.83	-111.79
3750.523	-112.12
3753.213	-110.79
3755.902	-113.12
3758.589	-111.12
3761.273	-113.46
3763.956	-113.79
3766.636	-113.12
3769.315	-112.46
3771.991	-115.79
3774.665	-115.12
3777.338	-116.46
3780.008	-115.46
3782.677	-116.12
3785.343	-117.79
3788.007	-114.46
3790.67	-115.79
3793.33	-115.12
3795.989	-118.79
3798.645	-115.79
3801.299	-117.79
3803.952	-118.46
3806.602	-117.79
3809.251	-116.12
3811.897	-117.46
3814.542	-118.46
3817.184	-119.46
3819.825	-117.79
3822.463	-118.46
3825.1	-120.12
3827.735	-118.46
3830.367	-117.79
3832.998	-120.46
3835.627	-118.79
3838.253	-118.79
3840.878	-119.12
3843.501	-120.46
3846.122	-118.79
3848.741	-119.79
3851.358	-119.12
3853.973	-119.46
3856.586	-120.46
3859.197	-122.12
3861.806	-119.46
3864.414	-120.12
3867.019	-119.12
3869.622	-117.46
3872.224	-118.12
3874.823	-114.46
3877.421	-110.79
3880.016	-104.12
3882.61	-97.12
3885.202	-96.12
3887.792	-101.79
3890.38	-109.79
3892.966	-114.46
3895.55	-120.79
3898.132	-121.46
3900.713	-125.12
3903.291	-123.12
3905.868	-122.46
3908.442	-120.79
3911.015	-122.46
3913.586	-123.46
3916.155	-125.12
3918.722	-125.12
3921.287	-123.79
3923.85	-124.79
3926.411	-125.79
3928.971	-124.12
3931.528	-123.12
3934.084	-123.79
3936.638	-124.79
3939.19	-123.46
3941.74	-123.46
3944.288	-123.46
3946.834	-124.46
3949.378	-124.79
3951.921	-124.46
3954.462	-123.79
3957	-125.46
3959.537	-123.12
3962.072	-122.12
3964.606	-123.12
3967.137	-125.46
3969.667	-123.12
3972.194	-123.79
3974.72	-122.46
3977.244	-123.12
3979.766	-121.46
3982.286	-122.79
3984.805	-121.12
3987.321	-121.79
3989.836	-124.46
3992.349	-124.46
3994.86	-121.79
3997.369	-122.46
3999.877	-121.46
4002.382	-119.79
4004.886	-123.79
4007.388	-125.12
4009.888	-121.12
4012.386	-123.46
4014.883	-122.12
4017.377	-122.79
4019.87	-122.46
4022.361	-124.46
4024.85	-121.12
4027.338	-122.46
4029.823	-124.79
4032.307	-122.12
4034.789	-121.46
4037.269	-122.46
4039.747	-122.46
4042.224	-123.79
4044.699	-125.79
4047.172	-122.12
4049.643	-122.79
4052.112	-122.79
4054.58	-120.46
4057.046	-121.12
4059.51	-124.79
4061.972	-121.46
4064.432	-122.46
4066.891	-121.12
4069.348	-121.79
4071.803	-122.46
4074.256	-120.46
4076.708	-121.46
4079.158	-124.46
4081.606	-124.46
4084.052	-123.46
4086.497	-122.46
4088.939	-121.79
4091.38	-123.46
4093.819	-122.46
4096.257	-125.79
4098.693	-124.46
4101.127	-127.79
4103.559	-126.12
4105.989	-73.46
4108.418	-71.12
4110.845	-68.79
4113.27	-62.79
4115.694	-58.12
4118.115	-49.12
4120.535	-120.46
4122.954	-121.12
4125.37	-122.79
4127.785	-122.12
4130.198	-122.46
4132.609	-123.12
4135.019	-126.12
4137.427	-125.12
4139.833	-124.79
4142.237	-125.12
