Data from 1000000CFU3_A_RamanShift_1.txt Node
Date: Mon Feb 13 13:45:59 IST 2017
User: aro
Spectrometer: QEPB0276
Trigger mode: 0
Integration Time (sec): 5.000000E0
Scans to average: 1
Electric dark correction enabled: true
Nonlinearity correction enabled: false
Boxcar width: 0
XAxis mode: Raman Shifts
Number of Pixels in Spectrum: 1044
>>>>>Begin Spectral Data<<<<<
160.701	-3.25
166.742	3.75
172.777	21.75
178.805	71.75
184.826	183.75
190.841	375.75
196.849	580.75
202.85	712.75
208.845	758.75
214.833	751.75
220.815	745.75
226.789	726.75
232.758	708.75
238.719	708.75
244.674	701.75
250.623	688.75
256.565	667.75
262.5	655.75
268.429	643.75
274.351	622.75
280.267	625.75
286.176	609.75
292.079	604.75
297.975	613.75
303.865	600.75
309.748	598.75
315.625	589.75
321.495	595.75
327.359	591.75
333.217	585.75
339.068	591.75
344.912	596.75
350.751	604.75
356.583	610.75
362.408	609.75
368.227	607.75
374.04	602.75
379.847	585.75
385.647	594.75
391.44	597.75
397.228	602.75
403.009	613.75
408.784	608.75
414.553	608.75
420.315	617.75
426.071	613.75
431.821	619.75
437.565	613.75
443.302	620.75
449.033	614.75
454.758	612.75
460.477	603.75
466.189	596.75
471.896	588.75
477.596	583.75
483.29	576.75
488.978	566.75
494.66	565.75
500.335	546.75
506.005	542.75
511.668	513.75
517.325	491.75
522.977	462.75
528.622	464.75
534.261	439.75
539.894	437.75
545.521	430.75
551.141	428.75
556.756	430.75
562.365	415.75
567.968	417.75
573.565	409.75
579.155	399.75
584.74	410.75
590.319	404.75
595.892	396.75
601.459	404.75
607.02	400.75
612.575	394.75
618.124	387.75
623.667	384.75
629.204	381.75
634.735	374.75
640.261	370.75
645.781	359.75
651.294	363.75
656.802	366.75
662.304	363.75
667.8	359.75
673.29	357.75
678.775	359.75
684.254	354.75
689.726	337.75
695.193	343.75
700.655	339.75
706.11	341.75
711.56	344.75
717.004	354.75
722.442	347.75
727.874	334.75
733.301	330.75
738.722	324.75
744.137	334.75
749.547	326.75
754.951	331.75
760.349	336.75
765.741	334.75
771.128	332.75
776.509	343.75
781.885	337.75
787.254	340.75
792.618	338.75
797.977	344.75
803.33	337.75
808.677	333.75
814.019	334.75
819.355	330.75
824.686	327.75
830.011	339.75
835.33	329.75
840.644	337.75
845.952	346.75
851.255	352.75
856.552	354.75
861.844	347.75
867.13	350.75
872.41	342.75
877.686	342.75
882.955	342.75
888.219	354.75
893.478	338.75
898.731	334.75
903.979	323.75
909.221	316.75
914.458	315.75
919.69	304.75
924.916	309.75
930.136	304.75
935.351	308.75
940.561	308.75
945.766	307.75
950.965	299.75
956.158	296.75
961.347	293.75
966.529	289.75
971.707	283.75
976.879	275.75
982.046	280.75
987.208	270.75
992.364	278.75
997.515	284.75
1002.66	288.75
1007.801	296.75
1012.936	307.75
1018.066	300.75
1023.19	299.75
1028.309	303.75
1033.423	310.75
1038.532	302.75
1043.636	307.75
1048.734	301.75
1053.827	317.75
1058.915	321.75
1063.998	318.75
1069.075	332.75
1074.147	327.75
1079.214	331.75
1084.276	339.75
1089.333	339.75
1094.385	339.75
1099.431	329.75
1104.472	319.75
1109.509	305.75
1114.54	295.75
1119.565	305.75
1124.586	310.75
1129.602	299.75
1134.613	284.75
1139.618	282.75
1144.619	269.75
1149.614	255.75
1154.604	264.75
1159.589	253.75
1164.57	257.75
1169.545	247.75
1174.515	242.75
1179.48	246.75
1184.44	243.75
1189.395	243.75
1194.345	233.75
1199.29	231.75
1204.23	226.75
1209.165	240.75
1214.095	230.75
1219.021	239.75
1223.941	235.75
1228.856	247.75
1233.766	247.75
1238.672	249.75
1243.572	250.75
1248.467	257.75
1253.358	258.75
1258.244	265.75
1263.124	262.75
1268	258.75
1272.871	262.75
1277.737	256.75
1282.599	253.75
1287.455	248.75
1292.306	251.75
1297.153	270.75
1301.995	277.75
1306.832	283.75
1311.664	287.75
1316.491	273.75
1321.314	257.75
1326.132	253.75
1330.945	242.75
1335.753	228.75
1340.556	233.75
1345.354	226.75
1350.148	224.75
1354.937	224.75
1359.722	217.75
1364.501	212.75
1369.276	213.75
1374.046	208.75
1378.811	213.75
1383.572	208.75
1388.327	209.75
1393.079	197.75
1397.825	200.75
1402.567	195.75
1407.304	193.75
1412.036	192.75
1416.764	192.75
1421.487	204.75
1426.205	207.75
1430.919	217.75
1435.628	239.75
1440.333	258.75
1445.032	273.75
1449.727	279.75
1454.418	284.75
1459.104	271.75
1463.785	264.75
1468.462	243.75
1473.134	227.75
1477.802	207.75
1482.465	193.75
1487.123	172.75
1491.777	164.75
1496.426	168.75
1501.071	161.75
1505.711	153.75
1510.347	154.75
1514.978	158.75
1519.604	166.75
1524.226	160.75
1528.844	157.75
1533.457	156.75
1538.065	156.75
1542.669	153.75
1547.269	158.75
1551.864	151.75
1556.454	155.75
1561.041	157.75
1565.622	150.75
1570.199	149.75
1574.772	151.75
1579.34	157.75
1583.904	152.75
1588.464	159.75
1593.019	157.75
1597.569	149.75
1602.115	158.75
1606.657	157.75
1611.195	162.75
1615.728	160.75
1620.256	163.75
1624.78	159.75
1629.3	165.75
1633.816	159.75
1638.327	171.75
1642.834	172.75
1647.336	174.75
1651.834	182.75
1656.328	192.75
1660.817	187.75
1665.302	187.75
1669.783	180.75
1674.259	169.75
1678.732	168.75
1683.199	156.75
1687.663	156.75
1692.122	145.75
1696.577	142.75
1701.028	132.75
1705.474	131.75
1709.917	128.75
1714.355	115.75
1718.788	118.75
1723.218	118.75
1727.643	115.75
1732.064	114.75
1736.481	111.75
1740.893	111.75
1745.301	102.75
1749.705	105.75
1754.105	94.75
1758.501	91.75
1762.893	95.75
1767.28	93.75
1771.663	83.75
1776.042	84.75
1780.417	82.75
1784.787	82.75
1789.154	84.75
1793.516	85.75
1797.874	85.75
1802.228	87.75
1806.578	88.75
1810.924	80.75
1815.266	71.75
1819.603	80.75
1823.937	81.75
1828.266	78.75
1832.591	76.75
1836.913	76.75
1841.23	76.75
1845.543	72.75
1849.852	67.75
1854.156	69.75
1858.457	72.75
1862.754	72.75
1867.047	74.75
1871.335	75.75
1875.62	71.75
1879.9	69.75
1884.177	68.75
1888.449	67.75
1892.718	67.75
1896.982	70.75
1901.243	75.75
1905.499	69.75
1909.752	68.75
1914	65.75
1918.245	63.75
1922.485	67.75
1926.722	65.75
1930.954	65.75
1935.183	72.75
1939.408	70.75
1943.628	71.75
1947.845	67.75
1952.058	68.75
1956.267	58.75
1960.472	63.75
1964.673	65.75
1968.87	63.75
1973.063	65.75
1977.252	62.75
1981.438	65.75
1985.619	64.75
1989.797	63.75
1993.971	59.75
1998.14	58.75
2002.306	56.75
2006.469	59.75
2010.627	57.75
2014.781	59.75
2018.932	61.75
2023.078	58.75
2027.221	58.75
2031.36	57.75
2035.495	57.75
2039.627	56.75
2043.754	55.75
2047.878	56.75
2051.998	51.75
2056.114	54.75
2060.226	53.75
2064.334	53.75
2068.439	56.75
2072.54	57.75
2076.637	53.75
2080.73	54.75
2084.82	58.75
2088.906	56.75
2092.988	64.75
2097.066	53.75
2101.14	55.75
2105.211	55.75
2109.278	53.75
2113.342	52.75
2117.401	57.75
2121.457	54.75
2125.509	53.75
2129.558	53.75
2133.602	53.75
2137.643	51.75
2141.681	45.75
2145.714	51.75
2149.744	50.75
2153.77	46.75
2157.793	44.75
2161.812	48.75
2165.827	49.75
2169.838	50.75
2173.846	45.75
2177.851	42.75
2181.851	46.75
2185.848	43.75
2189.841	43.75
2193.831	39.75
2197.817	46.75
2201.799	42.75
2205.778	33.75
2209.753	36.75
2213.725	35.75
2217.693	35.75
2221.657	40.75
2225.618	42.75
2229.575	43.75
2233.529	33.75
2237.479	35.75
2241.425	34.75
2245.368	35.75
2249.307	33.75
2253.243	33.75
2257.175	35.75
2261.104	36.75
2265.029	35.75
2268.95	29.75
2272.868	26.75
2276.783	26.75
2280.694	28.75
2284.601	29.75
2288.505	30.75
2292.405	32.75
2296.302	27.75
2300.195	20.75
2304.085	24.75
2307.971	21.75
2311.854	25.75
2315.734	21.75
2319.609	20.75
2323.482	21.75
2327.351	21.75
2331.216	24.75
2335.078	25.75
2338.937	24.75
2342.792	22.75
2346.643	21.75
2350.492	19.75
2354.336	17.75
2358.178	15.75
2362.015	21.75
2365.85	16.75
2369.681	19.75
2373.508	16.75
2377.333	20.75
2381.153	17.75
2384.971	18.75
2388.785	12.75
2392.595	11.75
2396.402	13.75
2400.206	24.75
2404.007	17.75
2407.804	19.75
2411.597	17.75
2415.388	12.75
2419.174	11.75
2422.958	13.75
2426.738	10.75
2430.515	11.75
2434.289	15.75
2438.059	12.75
2441.825	13.75
2445.589	15.75
2449.349	10.75
2453.106	10.75
2456.859	11.75
2460.61	8.75
2464.356	13.75
2468.1	8.75
2471.84	16.75
2475.577	13.75
2479.311	10.75
2483.041	8.75
2486.768	11.75
2490.492	13.75
2494.213	10.75
2497.93	8.75
2501.644	11.75
2505.355	7.75
2509.062	6.75
2512.766	12.75
2516.467	8.75
2520.165	7.75
2523.859	10.75
2527.551	9.75
2531.239	8.75
2534.923	9.75
2538.605	9.75
2542.283	9.75
2545.958	9.75
2549.63	11.75
2553.299	8.75
2556.964	9.75
2560.626	11.75
2564.285	5.75
2567.941	11.75
2571.594	10.75
2575.243	6.75
2578.89	6.75
2582.533	10.75
2586.173	11.75
2589.809	8.75
2593.443	5.75
2597.073	7.75
2600.701	9.75
2604.325	5.75
2607.946	6.75
2611.564	8.75
2615.178	11.75
2618.79	9.75
2622.398	6.75
2626.004	5.75
2629.606	4.75
2633.205	5.75
2636.801	6.75
2640.394	7.75
2643.983	9.75
2647.57	3.75
2651.153	6.75
2654.734	1.75
2658.311	6.75
2661.885	5.75
2665.456	7.75
2669.025	5.75
2672.589	9.75
2676.151	7.75
2679.71	9.75
2683.266	0.75
2686.819	5.75
2690.368	1.75
2693.915	8.75
2697.458	10.75
2700.999	4.75
2704.536	11.75
2708.071	7.75
2711.602	5.75
2715.13	8.75
2718.656	9.75
2722.178	10.75
2725.697	9.75
2729.214	9.75
2732.727	14.75
2736.237	9.75
2739.744	8.75
2743.249	6.75
2746.75	12.75
2750.248	7.75
2753.743	8.75
2757.236	4.75
2760.725	11.75
2764.211	9.75
2767.695	11.75
2771.175	7.75
2774.652	2.75
2778.127	1.75
2781.598	5.75
2785.067	8.75
2788.532	4.75
2791.995	11.75
2795.455	7.75
2798.911	9.75
2802.365	11.75
2805.816	12.75
2809.264	10.75
2812.709	9.75
2816.151	11.75
2819.59	14.75
2823.026	17.75
2826.46	19.75
2829.89	21.75
2833.318	24.75
2836.742	31.75
2840.164	36.75
2843.583	40.75
2846.999	55.75
2850.412	64.75
2853.822	75.75
2857.229	77.75
2860.634	84.75
2864.035	83.75
2867.434	85.75
2870.83	90.75
2874.223	88.75
2877.613	88.75
2881	97.75
2884.385	99.75
2887.766	102.75
2891.145	105.75
2894.521	106.75
2897.894	106.75
2901.264	103.75
2904.631	99.75
2907.996	98.75
2911.358	98.75
2914.717	94.75
2918.073	97.75
2921.426	93.75
2924.777	92.75
2928.124	93.75
2931.469	93.75
2934.811	90.75
2938.15	84.75
2941.487	77.75
2944.821	81.75
2948.152	78.75
2951.48	70.75
2954.805	73.75
2958.128	63.75
2961.447	62.75
2964.765	59.75
2968.079	54.75
2971.39	51.75
2974.699	50.75
2978.005	50.75
2981.308	46.75
2984.609	45.75
2987.907	46.75
2991.202	41.75
2994.494	35.75
2997.784	33.75
3001.07	37.75
3004.355	37.75
3007.636	37.75
3010.915	40.75
3014.191	41.75
3017.464	40.75
3020.734	34.75
3024.002	29.75
3027.267	33.75
3030.53	27.75
3033.789	29.75
3037.046	33.75
3040.301	41.75
3043.552	35.75
3046.801	33.75
3050.048	32.75
3053.291	31.75
3056.532	28.75
3059.771	38.75
3063.006	35.75
3066.239	35.75
3069.469	47.75
3072.697	40.75
3075.922	42.75
3079.144	42.75
3082.364	42.75
3085.581	47.75
3088.795	51.75
3092.007	51.75
3095.216	54.75
3098.423	46.75
3101.627	48.75
3104.828	48.75
3108.026	55.75
3111.222	59.75
3114.416	62.75
3117.607	60.75
3120.795	61.75
3123.98	68.75
3127.163	66.75
3130.344	64.75
3133.521	65.75
3136.696	69.75
3139.869	72.75
3143.039	72.75
3146.206	76.75
3149.371	79.75
3152.533	73.75
3155.693	74.75
3158.85	77.75
3162.005	78.75
3165.157	79.75
3168.306	79.75
3171.453	83.75
3174.597	86.75
3177.739	82.75
3180.878	76.75
3184.014	82.75
3187.149	82.75
3190.28	80.75
3193.409	80.75
3196.536	79.75
3199.659	83.75
3202.781	80.75
3205.9	83.75
3209.016	81.75
3212.13	75.75
3215.241	79.75
3218.35	81.75
3221.456	78.75
3224.56	80.75
3227.661	79.75
3230.76	74.75
3233.856	76.75
3236.95	72.75
3240.041	75.75
3243.13	74.75
3246.216	71.75
3249.3	71.75
3252.382	70.75
3255.46	68.75
3258.537	72.75
3261.611	73.75
3264.682	72.75
3267.751	70.75
3270.818	70.75
3273.882	72.75
3276.943	66.75
3280.002	63.75
3283.059	69.75
3286.113	69.75
3289.165	68.75
3292.214	67.75
3295.261	59.75
3298.306	62.75
3301.348	61.75
3304.387	63.75
3307.425	59.75
3310.459	57.75
3313.492	51.75
3316.521	55.75
3319.549	58.75
3322.574	52.75
3325.597	48.75
3328.617	51.75
3331.635	57.75
3334.65	53.75
3337.663	55.75
3340.674	56.75
3343.682	57.75
3346.688	45.75
3349.691	53.75
3352.692	49.75
3355.691	48.75
3358.687	52.75
3361.681	48.75
3364.673	48.75
3367.662	49.75
3370.649	46.75
3373.633	44.75
3376.615	43.75
3379.595	41.75
3382.572	45.75
3385.547	43.75
3388.52	45.75
3391.49	42.75
3394.458	43.75
3397.424	37.75
3400.387	40.75
3403.348	39.75
3406.307	38.75
3409.263	39.75
3412.217	40.75
3415.168	42.75
3418.118	40.75
3421.065	33.75
3424.009	31.75
3426.951	34.75
3429.891	32.75
3432.829	30.75
3435.764	36.75
3438.697	35.75
3441.628	29.75
3444.557	31.75
3447.483	27.75
3450.407	24.75
3453.328	25.75
3456.247	24.75
3459.164	28.75
3462.079	23.75
3464.991	24.75
3467.902	20.75
3470.809	18.75
3473.715	14.75
3476.618	12.75
3479.519	13.75
3482.418	19.75
3485.315	18.75
3488.209	13.75
3491.101	12.75
3493.99	10.75
3496.878	9.75
3499.763	11.75
3502.646	9.75
3505.527	11.75
3508.405	12.75
3511.281	6.75
3514.155	6.75
3517.027	7.75
3519.897	2.75
3522.764	3.75
3525.629	0.75
3528.492	4.75
3531.352	2.75
3534.211	2.75
3537.067	0.75
3539.921	-1.25
3542.773	-3.25
3545.622	-3.25
3548.469	-3.25
3551.315	-3.25
3554.157	-1.25
3556.998	-6.25
3559.837	-6.25
3562.673	-9.25
3565.507	-8.25
3568.339	-11.25
3571.169	-7.25
3573.996	-6.25
3576.822	-10.25
3579.645	-11.25
3582.466	-11.25
3585.285	-12.25
3588.101	-8.25
3590.916	-12.25
3593.728	-12.25
3596.538	-11.25
3599.346	-10.25
3602.152	-14.25
3604.956	-16.25
3607.757	-12.25
3610.556	-11.25
3613.354	-10.25
3616.149	-12.25
3618.942	-11.25
3621.732	-16.25
3624.521	-16.25
3627.307	-21.25
3630.092	-16.25
3632.874	-14.25
3635.654	-15.25
3638.432	-15.25
3641.208	-14.25
3643.982	-16.25
3646.753	-18.25
3649.523	-20.25
3652.29	-19.25
3655.055	-15.25
3657.818	-13.25
3660.579	-15.25
3663.338	-16.25
3666.095	-17.25
3668.849	-19.25
3671.602	-19.25
3674.352	-19.25
3677.101	-20.25
3679.847	-19.25
3682.591	-17.25
3685.333	-17.25
3688.073	-17.25
3690.811	-18.25
3693.547	-19.25
3696.281	-17.25
3699.013	-20.25
3701.742	-18.25
3704.47	-14.25
3707.195	-20.25
3709.919	-21.25
3712.64	-19.25
3715.359	-18.25
3718.076	-18.25
3720.792	-20.25
3723.505	-15.25
3726.216	-21.25
3728.925	-20.25
3731.632	-22.25
3734.336	-21.25
3737.039	-19.25
3739.74	-17.25
3742.439	-19.25
3745.136	-19.25
3747.83	-18.25
3750.523	-20.25
3753.213	-23.25
3755.902	-22.25
3758.589	-23.25
3761.273	-19.25
3763.956	-20.25
3766.636	-18.25
3769.315	-22.25
3771.991	-22.25
3774.665	-23.25
3777.338	-23.25
3780.008	-22.25
3782.677	-25.25
3785.343	-21.25
3788.007	-21.25
3790.67	-17.25
3793.33	-21.25
3795.989	-17.25
3798.645	-22.25
3801.299	-20.25
3803.952	-20.25
3806.602	-20.25
3809.251	-21.25
3811.897	-19.25
3814.542	-24.25
3817.184	-22.25
3819.825	-23.25
3822.463	-21.25
3825.1	-21.25
3827.735	-22.25
3830.367	-19.25
3832.998	-19.25
3835.627	-20.25
3838.253	-20.25
3840.878	-22.25
3843.501	-22.25
3846.122	-23.25
3848.741	-22.25
3851.358	-23.25
3853.973	-19.25
3856.586	-18.25
3859.197	-17.25
3861.806	-22.25
3864.414	-22.25
3867.019	-26.25
3869.622	-21.25
3872.224	-20.25
3874.823	-18.25
3877.421	-21.25
3880.016	-14.25
3882.61	-17.25
3885.202	-15.25
3887.792	-17.25
3890.38	-18.25
3892.966	-17.25
3895.55	-25.25
3898.132	-22.25
3900.713	-23.25
3903.291	-23.25
3905.868	-24.25
3908.442	-22.25
3911.015	-22.25
3913.586	-21.25
3916.155	-24.25
3918.722	-23.25
3921.287	-26.25
3923.85	-22.25
3926.411	-19.25
3928.971	-21.25
3931.528	-21.25
3934.084	-16.25
3936.638	-22.25
3939.19	-21.25
3941.74	-26.25
3944.288	-23.25
3946.834	-25.25
3949.378	-22.25
3951.921	-21.25
3954.462	-19.25
3957	-20.25
3959.537	-17.25
3962.072	-23.25
3964.606	-25.25
3967.137	-25.25
3969.667	-19.25
3972.194	-23.25
3974.72	-18.25
3977.244	-20.25
3979.766	-19.25
3982.286	-19.25
3984.805	-21.25
3987.321	-25.25
3989.836	-22.25
3992.349	-23.25
3994.86	-20.25
3997.369	-20.25
3999.877	-18.25
4002.382	-18.25
4004.886	-20.25
4007.388	-21.25
4009.888	-27.25
4012.386	-23.25
4014.883	-22.25
4017.377	-22.25
4019.87	-17.25
4022.361	-21.25
4024.85	-20.25
4027.338	-23.25
4029.823	-25.25
4032.307	-25.25
4034.789	-24.25
4037.269	-18.25
4039.747	-18.25
4042.224	-20.25
4044.699	-20.25
4047.172	-23.25
4049.643	-21.25
4052.112	-25.25
4054.58	-24.25
4057.046	-24.25
4059.51	-17.25
4061.972	-23.25
4064.432	-22.25
4066.891	-23.25
4069.348	-23.25
4071.803	-24.25
4074.256	-22.25
4076.708	-22.25
4079.158	-19.25
4081.606	-20.25
4084.052	-24.25
4086.497	-25.25
4088.939	-22.25
4091.38	-16.25
4093.819	-21.25
4096.257	-23.25
4098.693	-21.25
4101.127	-19.25
4103.559	-20.25
4105.989	-8.25
4108.418	-11.25
4110.845	-11.25
4113.27	-8.25
4115.694	-7.25
4118.115	-6.25
4120.535	-21.25
4122.954	-20.25
4125.37	-23.25
4127.785	-18.25
4130.198	-18.25
4132.609	-22.25
4135.019	-23.25
4137.427	-24.25
4139.833	-24.25
4142.237	-22.25
