Data from 1000000CFU2_A_RamanShift_1.txt Node
Date: Mon Feb 13 13:44:49 IST 2017
User: aro
Spectrometer: QEPB0276
Trigger mode: 0
Integration Time (sec): 5.000000E0
Scans to average: 1
Electric dark correction enabled: true
Nonlinearity correction enabled: false
Boxcar width: 0
XAxis mode: Raman Shifts
Number of Pixels in Spectrum: 1044
>>>>>Begin Spectral Data<<<<<
160.701	-7.88
166.742	1.12
172.777	22.12
178.805	77.12
184.826	192.12
190.841	392.12
196.849	615.12
202.85	765.12
208.845	795.12
214.833	783.12
220.815	782.12
226.789	770.12
232.758	763.12
238.719	752.12
244.674	722.12
250.623	716.12
256.565	703.12
262.5	694.12
268.429	674.12
274.351	664.12
280.267	656.12
286.176	647.12
292.079	642.12
297.975	642.12
303.865	637.12
309.748	623.12
315.625	621.12
321.495	625.12
327.359	617.12
333.217	634.12
339.068	629.12
344.912	632.12
350.751	637.12
356.583	652.12
362.408	643.12
368.227	642.12
374.04	626.12
379.847	633.12
385.647	622.12
391.44	629.12
397.228	633.12
403.009	644.12
408.784	640.12
414.553	653.12
420.315	644.12
426.071	653.12
431.821	661.12
437.565	660.12
443.302	652.12
449.033	658.12
454.758	652.12
460.477	629.12
466.189	628.12
471.896	620.12
477.596	620.12
483.29	612.12
488.978	604.12
494.66	578.12
500.335	577.12
506.005	563.12
511.668	544.12
517.325	515.12
522.977	499.12
528.622	494.12
534.261	474.12
539.894	474.12
545.521	468.12
551.141	459.12
556.756	458.12
562.365	456.12
567.968	434.12
573.565	445.12
579.155	431.12
584.74	434.12
590.319	435.12
595.892	436.12
601.459	435.12
607.02	424.12
612.575	422.12
618.124	420.12
623.667	410.12
629.204	404.12
634.735	402.12
640.261	400.12
645.781	394.12
651.294	395.12
656.802	393.12
662.304	383.12
667.8	382.12
673.29	382.12
678.775	381.12
684.254	377.12
689.726	380.12
695.193	377.12
700.655	375.12
706.11	370.12
711.56	373.12
717.004	360.12
722.442	369.12
727.874	360.12
733.301	364.12
738.722	364.12
744.137	365.12
749.547	351.12
754.951	357.12
760.349	360.12
765.741	362.12
771.128	365.12
776.509	359.12
781.885	369.12
787.254	374.12
792.618	369.12
797.977	354.12
803.33	363.12
808.677	360.12
814.019	360.12
819.355	359.12
824.686	353.12
830.011	355.12
835.33	370.12
840.644	369.12
845.952	367.12
851.255	376.12
856.552	375.12
861.844	384.12
867.13	371.12
872.41	378.12
877.686	377.12
882.955	374.12
888.219	379.12
893.478	363.12
898.731	345.12
903.979	346.12
909.221	335.12
914.458	336.12
919.69	326.12
924.916	340.12
930.136	333.12
935.351	331.12
940.561	328.12
945.766	332.12
950.965	327.12
956.158	325.12
961.347	324.12
966.529	314.12
971.707	312.12
976.879	297.12
982.046	303.12
987.208	298.12
992.364	305.12
997.515	315.12
1002.66	310.12
1007.801	310.12
1012.936	325.12
1018.066	326.12
1023.19	328.12
1028.309	322.12
1033.423	330.12
1038.532	327.12
1043.636	328.12
1048.734	331.12
1053.827	323.12
1058.915	347.12
1063.998	340.12
1069.075	353.12
1074.147	348.12
1079.214	356.12
1084.276	368.12
1089.333	367.12
1094.385	351.12
1099.431	356.12
1104.472	343.12
1109.509	338.12
1114.54	319.12
1119.565	337.12
1124.586	329.12
1129.602	327.12
1134.613	314.12
1139.618	303.12
1144.619	286.12
1149.614	283.12
1154.604	283.12
1159.589	281.12
1164.57	283.12
1169.545	272.12
1174.515	269.12
1179.48	259.12
1184.44	260.12
1189.395	255.12
1194.345	244.12
1199.29	252.12
1204.23	249.12
1209.165	253.12
1214.095	264.12
1219.021	253.12
1223.941	262.12
1228.856	264.12
1233.766	267.12
1238.672	268.12
1243.572	280.12
1248.467	279.12
1253.358	281.12
1258.244	279.12
1263.124	281.12
1268	288.12
1272.871	273.12
1277.737	270.12
1282.599	270.12
1287.455	267.12
1292.306	278.12
1297.153	287.12
1301.995	298.12
1306.832	308.12
1311.664	308.12
1316.491	293.12
1321.314	288.12
1326.132	273.12
1330.945	260.12
1335.753	246.12
1340.556	243.12
1345.354	245.12
1350.148	231.12
1354.937	238.12
1359.722	231.12
1364.501	231.12
1369.276	230.12
1374.046	228.12
1378.811	234.12
1383.572	230.12
1388.327	228.12
1393.079	216.12
1397.825	210.12
1402.567	213.12
1407.304	216.12
1412.036	208.12
1416.764	211.12
1421.487	218.12
1426.205	225.12
1430.919	236.12
1435.628	254.12
1440.333	280.12
1445.032	303.12
1449.727	301.12
1454.418	300.12
1459.104	298.12
1463.785	280.12
1468.462	264.12
1473.134	244.12
1477.802	217.12
1482.465	200.12
1487.123	184.12
1491.777	177.12
1496.426	175.12
1501.071	165.12
1505.711	169.12
1510.347	170.12
1514.978	170.12
1519.604	170.12
1524.226	172.12
1528.844	176.12
1533.457	169.12
1538.065	171.12
1542.669	166.12
1547.269	166.12
1551.864	158.12
1556.454	163.12
1561.041	159.12
1565.622	162.12
1570.199	164.12
1574.772	168.12
1579.34	166.12
1583.904	168.12
1588.464	168.12
1593.019	170.12
1597.569	167.12
1602.115	168.12
1606.657	169.12
1611.195	175.12
1615.728	173.12
1620.256	177.12
1624.78	171.12
1629.3	178.12
1633.816	172.12
1638.327	178.12
1642.834	182.12
1647.336	196.12
1651.834	199.12
1656.328	205.12
1660.817	201.12
1665.302	189.12
1669.783	193.12
1674.259	186.12
1678.732	182.12
1683.199	168.12
1687.663	162.12
1692.122	152.12
1696.577	155.12
1701.028	142.12
1705.474	136.12
1709.917	140.12
1714.355	129.12
1718.788	130.12
1723.218	133.12
1727.643	129.12
1732.064	121.12
1736.481	119.12
1740.893	116.12
1745.301	111.12
1749.705	108.12
1754.105	113.12
1758.501	106.12
1762.893	100.12
1767.28	100.12
1771.663	94.12
1776.042	91.12
1780.417	89.12
1784.787	87.12
1789.154	92.12
1793.516	99.12
1797.874	93.12
1802.228	92.12
1806.578	96.12
1810.924	90.12
1815.266	78.12
1819.603	88.12
1823.937	85.12
1828.266	87.12
1832.591	82.12
1836.913	80.12
1841.23	80.12
1845.543	81.12
1849.852	75.12
1854.156	74.12
1858.457	73.12
1862.754	77.12
1867.047	78.12
1871.335	77.12
1875.62	80.12
1879.9	77.12
1884.177	76.12
1888.449	75.12
1892.718	73.12
1896.982	72.12
1901.243	74.12
1905.499	73.12
1909.752	77.12
1914	72.12
1918.245	68.12
1922.485	73.12
1926.722	73.12
1930.954	77.12
1935.183	78.12
1939.408	77.12
1943.628	74.12
1947.845	76.12
1952.058	77.12
1956.267	73.12
1960.472	71.12
1964.673	70.12
1968.87	68.12
1973.063	70.12
1977.252	68.12
1981.438	63.12
1985.619	68.12
1989.797	71.12
1993.971	61.12
1998.14	62.12
2002.306	61.12
2006.469	67.12
2010.627	63.12
2014.781	61.12
2018.932	63.12
2023.078	62.12
2027.221	65.12
2031.36	62.12
2035.495	58.12
2039.627	58.12
2043.754	55.12
2047.878	54.12
2051.998	57.12
2056.114	59.12
2060.226	57.12
2064.334	60.12
2068.439	66.12
2072.54	60.12
2076.637	58.12
2080.73	59.12
2084.82	58.12
2088.906	59.12
2092.988	64.12
2097.066	65.12
2101.14	64.12
2105.211	62.12
2109.278	60.12
2113.342	59.12
2117.401	56.12
2121.457	55.12
2125.509	55.12
2129.558	52.12
2133.602	59.12
2137.643	57.12
2141.681	52.12
2145.714	57.12
2149.744	50.12
2153.77	49.12
2157.793	47.12
2161.812	50.12
2165.827	53.12
2169.838	50.12
2173.846	45.12
2177.851	45.12
2181.851	52.12
2185.848	48.12
2189.841	43.12
2193.831	47.12
2197.817	44.12
2201.799	44.12
2205.778	42.12
2209.753	40.12
2213.725	42.12
2217.693	41.12
2221.657	46.12
2225.618	44.12
2229.575	44.12
2233.529	37.12
2237.479	38.12
2241.425	37.12
2245.368	39.12
2249.307	36.12
2253.243	38.12
2257.175	42.12
2261.104	38.12
2265.029	32.12
2268.95	32.12
2272.868	29.12
2276.783	36.12
2280.694	32.12
2284.601	35.12
2288.505	35.12
2292.405	30.12
2296.302	24.12
2300.195	22.12
2304.085	23.12
2307.971	24.12
2311.854	29.12
2315.734	27.12
2319.609	26.12
2323.482	27.12
2327.351	25.12
2331.216	27.12
2335.078	28.12
2338.937	24.12
2342.792	24.12
2346.643	24.12
2350.492	23.12
2354.336	19.12
2358.178	22.12
2362.015	21.12
2365.85	16.12
2369.681	20.12
2373.508	18.12
2377.333	22.12
2381.153	19.12
2384.971	26.12
2388.785	23.12
2392.595	21.12
2396.402	15.12
2400.206	18.12
2404.007	15.12
2407.804	20.12
2411.597	15.12
2415.388	14.12
2419.174	12.12
2422.958	20.12
2426.738	16.12
2430.515	15.12
2434.289	16.12
2438.059	15.12
2441.825	15.12
2445.589	14.12
2449.349	8.12
2453.106	14.12
2456.859	8.12
2460.61	13.12
2464.356	13.12
2468.1	10.12
2471.84	14.12
2475.577	12.12
2479.311	12.12
2483.041	7.12
2486.768	14.12
2490.492	14.12
2494.213	12.12
2497.93	16.12
2501.644	15.12
2505.355	8.12
2509.062	10.12
2512.766	9.12
2516.467	10.12
2520.165	9.12
2523.859	16.12
2527.551	13.12
2531.239	13.12
2534.923	12.12
2538.605	8.12
2542.283	9.12
2545.958	11.12
2549.63	12.12
2553.299	10.12
2556.964	17.12
2560.626	13.12
2564.285	7.12
2567.941	10.12
2571.594	12.12
2575.243	9.12
2578.89	13.12
2582.533	14.12
2586.173	10.12
2589.809	12.12
2593.443	9.12
2597.073	9.12
2600.701	7.12
2604.325	9.12
2607.946	10.12
2611.564	7.12
2615.178	14.12
2618.79	8.12
2622.398	6.12
2626.004	8.12
2629.606	10.12
2633.205	7.12
2636.801	10.12
2640.394	11.12
2643.983	8.12
2647.57	3.12
2651.153	5.12
2654.734	5.12
2658.311	11.12
2661.885	10.12
2665.456	8.12
2669.025	9.12
2672.589	10.12
2676.151	6.12
2679.71	8.12
2683.266	6.12
2686.819	8.12
2690.368	8.12
2693.915	7.12
2697.458	9.12
2700.999	7.12
2704.536	9.12
2708.071	7.12
2711.602	6.12
2715.13	8.12
2718.656	12.12
2722.178	11.12
2725.697	14.12
2729.214	9.12
2732.727	13.12
2736.237	10.12
2739.744	9.12
2743.249	5.12
2746.75	8.12
2750.248	11.12
2753.743	9.12
2757.236	12.12
2760.725	14.12
2764.211	8.12
2767.695	9.12
2771.175	5.12
2774.652	4.12
2778.127	3.12
2781.598	14.12
2785.067	12.12
2788.532	11.12
2791.995	10.12
2795.455	9.12
2798.911	8.12
2802.365	7.12
2805.816	10.12
2809.264	9.12
2812.709	14.12
2816.151	14.12
2819.59	19.12
2823.026	21.12
2826.46	21.12
2829.89	24.12
2833.318	21.12
2836.742	29.12
2840.164	33.12
2843.583	49.12
2846.999	55.12
2850.412	68.12
2853.822	79.12
2857.229	88.12
2860.634	81.12
2864.035	84.12
2867.434	85.12
2870.83	89.12
2874.223	99.12
2877.613	102.12
2881	103.12
2884.385	105.12
2887.766	108.12
2891.145	108.12
2894.521	109.12
2897.894	113.12
2901.264	113.12
2904.631	104.12
2907.996	106.12
2911.358	103.12
2914.717	102.12
2918.073	100.12
2921.426	97.12
2924.777	95.12
2928.124	101.12
2931.469	99.12
2934.811	97.12
2938.15	92.12
2941.487	93.12
2944.821	86.12
2948.152	86.12
2951.48	76.12
2954.805	74.12
2958.128	74.12
2961.447	66.12
2964.765	65.12
2968.079	62.12
2971.39	54.12
2974.699	54.12
2978.005	52.12
2981.308	48.12
2984.609	53.12
2987.907	51.12
2991.202	49.12
2994.494	38.12
2997.784	41.12
3001.07	40.12
3004.355	39.12
3007.636	39.12
3010.915	39.12
3014.191	40.12
3017.464	43.12
3020.734	35.12
3024.002	31.12
3027.267	35.12
3030.53	31.12
3033.789	31.12
3037.046	31.12
3040.301	35.12
3043.552	37.12
3046.801	35.12
3050.048	36.12
3053.291	35.12
3056.532	33.12
3059.771	39.12
3063.006	37.12
3066.239	37.12
3069.469	46.12
3072.697	45.12
3075.922	47.12
3079.144	50.12
3082.364	48.12
3085.581	48.12
3088.795	53.12
3092.007	54.12
3095.216	56.12
3098.423	51.12
3101.627	55.12
3104.828	55.12
3108.026	65.12
3111.222	61.12
3114.416	61.12
3117.607	63.12
3120.795	67.12
3123.98	69.12
3127.163	68.12
3130.344	70.12
3133.521	73.12
3136.696	76.12
3139.869	78.12
3143.039	77.12
3146.206	87.12
3149.371	77.12
3152.533	79.12
3155.693	84.12
3158.85	81.12
3162.005	84.12
3165.157	84.12
3168.306	81.12
3171.453	85.12
3174.597	89.12
3177.739	85.12
3180.878	80.12
3184.014	83.12
3187.149	83.12
3190.28	90.12
3193.409	88.12
3196.536	84.12
3199.659	84.12
3202.781	86.12
3205.9	88.12
3209.016	83.12
3212.13	84.12
3215.241	86.12
3218.35	87.12
3221.456	85.12
3224.56	86.12
3227.661	79.12
3230.76	79.12
3233.856	81.12
3236.95	81.12
3240.041	82.12
3243.13	74.12
3246.216	78.12
3249.3	76.12
3252.382	76.12
3255.46	70.12
3258.537	75.12
3261.611	79.12
3264.682	74.12
3267.751	81.12
3270.818	74.12
3273.882	75.12
3276.943	72.12
3280.002	67.12
3283.059	71.12
3286.113	69.12
3289.165	70.12
3292.214	75.12
3295.261	72.12
3298.306	69.12
3301.348	66.12
3304.387	63.12
3307.425	62.12
3310.459	60.12
3313.492	57.12
3316.521	60.12
3319.549	55.12
3322.574	59.12
3325.597	55.12
3328.617	57.12
3331.635	58.12
3334.65	50.12
3337.663	52.12
3340.674	58.12
3343.682	60.12
3346.688	54.12
3349.691	62.12
3352.692	50.12
3355.691	49.12
3358.687	54.12
3361.681	50.12
3364.673	52.12
3367.662	53.12
3370.649	51.12
3373.633	47.12
3376.615	49.12
3379.595	48.12
3382.572	41.12
3385.547	46.12
3388.52	46.12
3391.49	49.12
3394.458	47.12
3397.424	38.12
3400.387	42.12
3403.348	43.12
3406.307	40.12
3409.263	39.12
3412.217	40.12
3415.168	41.12
3418.118	37.12
3421.065	37.12
3424.009	40.12
3426.951	36.12
3429.891	38.12
3432.829	37.12
3435.764	35.12
3438.697	35.12
3441.628	28.12
3444.557	30.12
3447.483	26.12
3450.407	27.12
3453.328	30.12
3456.247	30.12
3459.164	25.12
3462.079	24.12
3464.991	22.12
3467.902	21.12
3470.809	18.12
3473.715	15.12
3476.618	16.12
3479.519	19.12
3482.418	19.12
3485.315	19.12
3488.209	14.12
3491.101	13.12
3493.99	13.12
3496.878	6.12
3499.763	9.12
3502.646	11.12
3505.527	14.12
3508.405	13.12
3511.281	4.12
3514.155	7.12
3517.027	6.12
3519.897	4.12
3522.764	2.12
3525.629	2.12
3528.492	2.12
3531.352	0.12
3534.211	1.12
3537.067	-3.88
3539.921	-0.88
3542.773	-6.88
3545.622	-2.88
3548.469	-3.88
3551.315	-6.88
3554.157	-1.88
3556.998	-3.88
3559.837	-6.88
3562.673	-4.88
3565.507	-10.88
3568.339	-9.88
3571.169	-7.88
3573.996	-3.88
3576.822	-10.88
3579.645	-9.88
3582.466	-10.88
3585.285	-14.88
3588.101	-10.88
3590.916	-8.88
3593.728	-10.88
3596.538	-12.88
3599.346	-13.88
3602.152	-17.88
3604.956	-13.88
3607.757	-13.88
3610.556	-13.88
3613.354	-14.88
3616.149	-12.88
3618.942	-13.88
3621.732	-17.88
3624.521	-17.88
3627.307	-17.88
3630.092	-12.88
3632.874	-12.88
3635.654	-15.88
3638.432	-17.88
3641.208	-16.88
3643.982	-17.88
3646.753	-22.88
3649.523	-17.88
3652.29	-18.88
3655.055	-17.88
3657.818	-15.88
3660.579	-15.88
3663.338	-13.88
3666.095	-19.88
3668.849	-18.88
3671.602	-21.88
3674.352	-22.88
3677.101	-19.88
3679.847	-22.88
3682.591	-18.88
3685.333	-16.88
3688.073	-20.88
3690.811	-20.88
3693.547	-18.88
3696.281	-19.88
3699.013	-20.88
3701.742	-18.88
3704.47	-16.88
3707.195	-20.88
3709.919	-20.88
3712.64	-21.88
3715.359	-20.88
3718.076	-22.88
3720.792	-21.88
3723.505	-17.88
3726.216	-21.88
3728.925	-20.88
3731.632	-22.88
3734.336	-20.88
3737.039	-17.88
3739.74	-20.88
3742.439	-21.88
3745.136	-23.88
3747.83	-22.88
3750.523	-24.88
3753.213	-25.88
3755.902	-20.88
3758.589	-21.88
3761.273	-20.88
3763.956	-20.88
3766.636	-20.88
3769.315	-23.88
3771.991	-25.88
3774.665	-26.88
3777.338	-23.88
3780.008	-22.88
3782.677	-19.88
3785.343	-18.88
3788.007	-22.88
3790.67	-21.88
3793.33	-26.88
3795.989	-23.88
3798.645	-25.88
3801.299	-18.88
3803.952	-21.88
3806.602	-22.88
3809.251	-20.88
3811.897	-22.88
3814.542	-25.88
3817.184	-23.88
3819.825	-22.88
3822.463	-24.88
3825.1	-22.88
3827.735	-24.88
3830.367	-18.88
3832.998	-22.88
3835.627	-24.88
3838.253	-21.88
3840.878	-24.88
3843.501	-25.88
3846.122	-24.88
3848.741	-21.88
3851.358	-21.88
3853.973	-22.88
3856.586	-22.88
3859.197	-19.88
3861.806	-21.88
3864.414	-23.88
3867.019	-30.88
3869.622	-21.88
3872.224	-21.88
3874.823	-24.88
3877.421	-22.88
3880.016	-18.88
3882.61	-13.88
3885.202	-17.88
3887.792	-17.88
3890.38	-22.88
3892.966	-18.88
3895.55	-27.88
3898.132	-24.88
3900.713	-23.88
3903.291	-23.88
3905.868	-26.88
3908.442	-23.88
3911.015	-24.88
3913.586	-24.88
3916.155	-26.88
3918.722	-18.88
3921.287	-22.88
3923.85	-21.88
3926.411	-22.88
3928.971	-20.88
3931.528	-23.88
3934.084	-19.88
3936.638	-21.88
3939.19	-22.88
3941.74	-24.88
3944.288	-21.88
3946.834	-25.88
3949.378	-23.88
3951.921	-21.88
3954.462	-20.88
3957	-22.88
3959.537	-24.88
3962.072	-24.88
3964.606	-24.88
3967.137	-22.88
3969.667	-21.88
3972.194	-24.88
3974.72	-20.88
3977.244	-23.88
3979.766	-23.88
3982.286	-24.88
3984.805	-22.88
3987.321	-26.88
3989.836	-20.88
3992.349	-21.88
3994.86	-20.88
3997.369	-22.88
3999.877	-21.88
4002.382	-23.88
4004.886	-23.88
4007.388	-24.88
4009.888	-25.88
4012.386	-24.88
4014.883	-22.88
4017.377	-21.88
4019.87	-23.88
4022.361	-21.88
4024.85	-25.88
4027.338	-26.88
4029.823	-24.88
4032.307	-24.88
4034.789	-23.88
4037.269	-20.88
4039.747	-20.88
4042.224	-21.88
4044.699	-24.88
4047.172	-24.88
4049.643	-21.88
4052.112	-24.88
4054.58	-23.88
4057.046	-19.88
4059.51	-17.88
4061.972	-20.88
4064.432	-23.88
4066.891	-25.88
4069.348	-26.88
4071.803	-24.88
4074.256	-19.88
4076.708	-19.88
4079.158	-19.88
4081.606	-22.88
4084.052	-27.88
4086.497	-28.88
4088.939	-27.88
4091.38	-20.88
4093.819	-22.88
4096.257	-24.88
4098.693	-24.88
4101.127	-21.88
4103.559	-22.88
4105.989	-8.88
4108.418	-7.88
4110.845	-11.88
4113.27	-9.88
4115.694	-10.88
4118.115	-9.88
4120.535	-22.88
4122.954	-20.88
4125.37	-23.88
4127.785	-22.88
4130.198	-24.88
4132.609	-22.88
4135.019	-25.88
4137.427	-21.88
4139.833	-23.88
4142.237	-20.88
