Data from 10000CFU1_A_RamanShift_1.txt Node
Date: Mon Feb 13 13:35:34 IST 2017
User: aro
Spectrometer: QEPB0276
Trigger mode: 0
Integration Time (sec): 5.000000E0
Scans to average: 1
Electric dark correction enabled: true
Nonlinearity correction enabled: false
Boxcar width: 0
XAxis mode: Raman Shifts
Number of Pixels in Spectrum: 1044
>>>>>Begin Spectral Data<<<<<
160.701	-2.88
166.742	2.12
172.777	23.12
178.805	73.12
184.826	187.12
190.841	394.12
196.849	609.12
202.85	752.12
208.845	800.12
214.833	783.12
220.815	769.12
226.789	766.12
232.758	756.12
238.719	752.12
244.674	722.12
250.623	721.12
256.565	697.12
262.5	681.12
268.429	668.12
274.351	661.12
280.267	647.12
286.176	632.12
292.079	623.12
297.975	616.12
303.865	630.12
309.748	614.12
315.625	608.12
321.495	610.12
327.359	600.12
333.217	609.12
339.068	618.12
344.912	627.12
350.751	627.12
356.583	632.12
362.408	631.12
368.227	631.12
374.04	608.12
379.847	604.12
385.647	613.12
391.44	618.12
397.228	632.12
403.009	631.12
408.784	629.12
414.553	635.12
420.315	630.12
426.071	628.12
431.821	640.12
437.565	645.12
443.302	648.12
449.033	636.12
454.758	638.12
460.477	629.12
466.189	620.12
471.896	603.12
477.596	617.12
483.29	600.12
488.978	589.12
494.66	581.12
500.335	569.12
506.005	560.12
511.668	541.12
517.325	507.12
522.977	488.12
528.622	488.12
534.261	467.12
539.894	458.12
545.521	457.12
551.141	455.12
556.756	444.12
562.365	443.12
567.968	432.12
573.565	428.12
579.155	426.12
584.74	424.12
590.319	419.12
595.892	421.12
601.459	418.12
607.02	415.12
612.575	416.12
618.124	410.12
623.667	402.12
629.204	402.12
634.735	395.12
640.261	393.12
645.781	387.12
651.294	390.12
656.802	389.12
662.304	387.12
667.8	370.12
673.29	372.12
678.775	374.12
684.254	377.12
689.726	374.12
695.193	364.12
700.655	365.12
706.11	361.12
711.56	371.12
717.004	362.12
722.442	365.12
727.874	364.12
733.301	347.12
738.722	362.12
744.137	351.12
749.547	352.12
754.951	355.12
760.349	356.12
765.741	350.12
771.128	353.12
776.509	350.12
781.885	365.12
787.254	366.12
792.618	354.12
797.977	353.12
803.33	346.12
808.677	357.12
814.019	352.12
819.355	351.12
824.686	346.12
830.011	352.12
835.33	364.12
840.644	363.12
845.952	363.12
851.255	363.12
856.552	373.12
861.844	375.12
867.13	371.12
872.41	370.12
877.686	369.12
882.955	372.12
888.219	371.12
893.478	364.12
898.731	345.12
903.979	343.12
909.221	333.12
914.458	325.12
919.69	323.12
924.916	329.12
930.136	331.12
935.351	322.12
940.561	316.12
945.766	320.12
950.965	319.12
956.158	315.12
961.347	317.12
966.529	304.12
971.707	306.12
976.879	298.12
982.046	296.12
987.208	290.12
992.364	287.12
997.515	299.12
1002.66	310.12
1007.801	301.12
1012.936	315.12
1018.066	321.12
1023.19	319.12
1028.309	325.12
1033.423	330.12
1038.532	322.12
1043.636	320.12
1048.734	329.12
1053.827	332.12
1058.915	331.12
1063.998	337.12
1069.075	341.12
1074.147	347.12
1079.214	357.12
1084.276	349.12
1089.333	358.12
1094.385	352.12
1099.431	358.12
1104.472	337.12
1109.509	331.12
1114.54	321.12
1119.565	319.12
1124.586	325.12
1129.602	325.12
1134.613	319.12
1139.618	305.12
1144.619	285.12
1149.614	282.12
1154.604	279.12
1159.589	279.12
1164.57	272.12
1169.545	260.12
1174.515	264.12
1179.48	262.12
1184.44	262.12
1189.395	256.12
1194.345	254.12
1199.29	252.12
1204.23	244.12
1209.165	245.12
1214.095	255.12
1219.021	246.12
1223.941	256.12
1228.856	255.12
1233.766	265.12
1238.672	271.12
1243.572	274.12
1248.467	279.12
1253.358	280.12
1258.244	283.12
1263.124	279.12
1268	279.12
1272.871	279.12
1277.737	275.12
1282.599	267.12
1287.455	262.12
1292.306	262.12
1297.153	280.12
1301.995	302.12
1306.832	312.12
1311.664	301.12
1316.491	295.12
1321.314	285.12
1326.132	271.12
1330.945	250.12
1335.753	249.12
1340.556	252.12
1345.354	238.12
1350.148	237.12
1354.937	235.12
1359.722	228.12
1364.501	231.12
1369.276	225.12
1374.046	218.12
1378.811	226.12
1383.572	227.12
1388.327	227.12
1393.079	220.12
1397.825	215.12
1402.567	209.12
1407.304	205.12
1412.036	206.12
1416.764	207.12
1421.487	216.12
1426.205	224.12
1430.919	230.12
1435.628	251.12
1440.333	275.12
1445.032	284.12
1449.727	300.12
1454.418	303.12
1459.104	284.12
1463.785	282.12
1468.462	263.12
1473.134	251.12
1477.802	219.12
1482.465	196.12
1487.123	186.12
1491.777	175.12
1496.426	170.12
1501.071	168.12
1505.711	161.12
1510.347	169.12
1514.978	166.12
1519.604	168.12
1524.226	164.12
1528.844	166.12
1533.457	162.12
1538.065	170.12
1542.669	164.12
1547.269	167.12
1551.864	166.12
1556.454	166.12
1561.041	166.12
1565.622	164.12
1570.199	158.12
1574.772	167.12
1579.34	164.12
1583.904	162.12
1588.464	175.12
1593.019	168.12
1597.569	166.12
1602.115	168.12
1606.657	165.12
1611.195	174.12
1615.728	168.12
1620.256	177.12
1624.78	176.12
1629.3	180.12
1633.816	179.12
1638.327	181.12
1642.834	183.12
1647.336	186.12
1651.834	197.12
1656.328	201.12
1660.817	209.12
1665.302	201.12
1669.783	197.12
1674.259	185.12
1678.732	173.12
1683.199	166.12
1687.663	160.12
1692.122	152.12
1696.577	151.12
1701.028	143.12
1705.474	136.12
1709.917	137.12
1714.355	133.12
1718.788	124.12
1723.218	125.12
1727.643	126.12
1732.064	118.12
1736.481	118.12
1740.893	122.12
1745.301	112.12
1749.705	116.12
1754.105	103.12
1758.501	100.12
1762.893	99.12
1767.28	98.12
1771.663	91.12
1776.042	92.12
1780.417	90.12
1784.787	91.12
1789.154	81.12
1793.516	90.12
1797.874	86.12
1802.228	94.12
1806.578	92.12
1810.924	85.12
1815.266	80.12
1819.603	81.12
1823.937	83.12
1828.266	85.12
1832.591	82.12
1836.913	83.12
1841.23	80.12
1845.543	77.12
1849.852	74.12
1854.156	77.12
1858.457	73.12
1862.754	74.12
1867.047	78.12
1871.335	76.12
1875.62	71.12
1879.9	72.12
1884.177	73.12
1888.449	76.12
1892.718	73.12
1896.982	69.12
1901.243	73.12
1905.499	77.12
1909.752	70.12
1914	73.12
1918.245	70.12
1922.485	74.12
1926.722	74.12
1930.954	75.12
1935.183	82.12
1939.408	76.12
1943.628	80.12
1947.845	72.12
1952.058	80.12
1956.267	70.12
1960.472	70.12
1964.673	69.12
1968.87	68.12
1973.063	74.12
1977.252	68.12
1981.438	69.12
1985.619	68.12
1989.797	67.12
1993.971	61.12
1998.14	64.12
2002.306	59.12
2006.469	67.12
2010.627	61.12
2014.781	63.12
2018.932	66.12
2023.078	64.12
2027.221	63.12
2031.36	57.12
2035.495	58.12
2039.627	58.12
2043.754	57.12
2047.878	58.12
2051.998	55.12
2056.114	59.12
2060.226	63.12
2064.334	59.12
2068.439	58.12
2072.54	62.12
2076.637	57.12
2080.73	59.12
2084.82	61.12
2088.906	63.12
2092.988	66.12
2097.066	62.12
2101.14	55.12
2105.211	58.12
2109.278	55.12
2113.342	64.12
2117.401	57.12
2121.457	56.12
2125.509	58.12
2129.558	57.12
2133.602	55.12
2137.643	56.12
2141.681	52.12
2145.714	56.12
2149.744	49.12
2153.77	50.12
2157.793	52.12
2161.812	49.12
2165.827	51.12
2169.838	50.12
2173.846	47.12
2177.851	46.12
2181.851	48.12
2185.848	49.12
2189.841	47.12
2193.831	52.12
2197.817	49.12
2201.799	45.12
2205.778	41.12
2209.753	35.12
2213.725	40.12
2217.693	47.12
2221.657	45.12
2225.618	43.12
2229.575	43.12
2233.529	43.12
2237.479	41.12
2241.425	35.12
2245.368	41.12
2249.307	39.12
2253.243	35.12
2257.175	45.12
2261.104	38.12
2265.029	38.12
2268.95	32.12
2272.868	30.12
2276.783	32.12
2280.694	27.12
2284.601	34.12
2288.505	33.12
2292.405	31.12
2296.302	29.12
2300.195	22.12
2304.085	26.12
2307.971	22.12
2311.854	29.12
2315.734	25.12
2319.609	27.12
2323.482	25.12
2327.351	27.12
2331.216	27.12
2335.078	34.12
2338.937	21.12
2342.792	24.12
2346.643	25.12
2350.492	22.12
2354.336	23.12
2358.178	25.12
2362.015	23.12
2365.85	21.12
2369.681	22.12
2373.508	17.12
2377.333	21.12
2381.153	22.12
2384.971	23.12
2388.785	20.12
2392.595	15.12
2396.402	16.12
2400.206	21.12
2404.007	17.12
2407.804	19.12
2411.597	17.12
2415.388	13.12
2419.174	15.12
2422.958	17.12
2426.738	17.12
2430.515	17.12
2434.289	16.12
2438.059	15.12
2441.825	14.12
2445.589	15.12
2449.349	10.12
2453.106	11.12
2456.859	12.12
2460.61	14.12
2464.356	13.12
2468.1	19.12
2471.84	18.12
2475.577	6.12
2479.311	10.12
2483.041	8.12
2486.768	14.12
2490.492	18.12
2494.213	15.12
2497.93	14.12
2501.644	13.12
2505.355	12.12
2509.062	11.12
2512.766	14.12
2516.467	14.12
2520.165	11.12
2523.859	16.12
2527.551	11.12
2531.239	13.12
2534.923	7.12
2538.605	11.12
2542.283	7.12
2545.958	13.12
2549.63	14.12
2553.299	13.12
2556.964	15.12
2560.626	12.12
2564.285	9.12
2567.941	7.12
2571.594	8.12
2575.243	10.12
2578.89	11.12
2582.533	18.12
2586.173	11.12
2589.809	15.12
2593.443	9.12
2597.073	10.12
2600.701	9.12
2604.325	11.12
2607.946	11.12
2611.564	11.12
2615.178	19.12
2618.79	8.12
2622.398	12.12
2626.004	9.12
2629.606	7.12
2633.205	6.12
2636.801	11.12
2640.394	10.12
2643.983	12.12
2647.57	10.12
2651.153	5.12
2654.734	9.12
2658.311	10.12
2661.885	8.12
2665.456	11.12
2669.025	9.12
2672.589	10.12
2676.151	10.12
2679.71	12.12
2683.266	9.12
2686.819	7.12
2690.368	6.12
2693.915	5.12
2697.458	10.12
2700.999	12.12
2704.536	11.12
2708.071	7.12
2711.602	11.12
2715.13	13.12
2718.656	13.12
2722.178	12.12
2725.697	10.12
2729.214	8.12
2732.727	11.12
2736.237	11.12
2739.744	12.12
2743.249	11.12
2746.75	10.12
2750.248	11.12
2753.743	8.12
2757.236	10.12
2760.725	13.12
2764.211	9.12
2767.695	8.12
2771.175	11.12
2774.652	7.12
2778.127	9.12
2781.598	4.12
2785.067	10.12
2788.532	11.12
2791.995	7.12
2795.455	17.12
2798.911	9.12
2802.365	12.12
2805.816	14.12
2809.264	11.12
2812.709	14.12
2816.151	15.12
2819.59	17.12
2823.026	22.12
2826.46	23.12
2829.89	29.12
2833.318	30.12
2836.742	34.12
2840.164	41.12
2843.583	51.12
2846.999	55.12
2850.412	69.12
2853.822	78.12
2857.229	94.12
2860.634	90.12
2864.035	90.12
2867.434	91.12
2870.83	92.12
2874.223	100.12
2877.613	102.12
2881	103.12
2884.385	115.12
2887.766	116.12
2891.145	115.12
2894.521	113.12
2897.894	114.12
2901.264	110.12
2904.631	111.12
2907.996	112.12
2911.358	109.12
2914.717	110.12
2918.073	103.12
2921.426	108.12
2924.777	104.12
2928.124	98.12
2931.469	103.12
2934.811	96.12
2938.15	92.12
2941.487	93.12
2944.821	97.12
2948.152	88.12
2951.48	81.12
2954.805	79.12
2958.128	68.12
2961.447	67.12
2964.765	68.12
2968.079	61.12
2971.39	57.12
2974.699	57.12
2978.005	56.12
2981.308	53.12
2984.609	52.12
2987.907	50.12
2991.202	47.12
2994.494	40.12
2997.784	48.12
3001.07	42.12
3004.355	43.12
3007.636	45.12
3010.915	44.12
3014.191	39.12
3017.464	40.12
3020.734	35.12
3024.002	36.12
3027.267	32.12
3030.53	36.12
3033.789	35.12
3037.046	33.12
3040.301	42.12
3043.552	36.12
3046.801	35.12
3050.048	42.12
3053.291	37.12
3056.532	39.12
3059.771	49.12
3063.006	40.12
3066.239	48.12
3069.469	48.12
3072.697	46.12
3075.922	47.12
3079.144	53.12
3082.364	50.12
3085.581	57.12
3088.795	59.12
3092.007	59.12
3095.216	58.12
3098.423	53.12
3101.627	57.12
3104.828	55.12
3108.026	63.12
3111.222	65.12
3114.416	70.12
3117.607	64.12
3120.795	71.12
3123.98	73.12
3127.163	71.12
3130.344	73.12
3133.521	76.12
3136.696	85.12
3139.869	83.12
3143.039	84.12
3146.206	85.12
3149.371	82.12
3152.533	85.12
3155.693	84.12
3158.85	83.12
3162.005	90.12
3165.157	89.12
3168.306	87.12
3171.453	93.12
3174.597	87.12
3177.739	87.12
3180.878	85.12
3184.014	90.12
3187.149	87.12
3190.28	97.12
3193.409	90.12
3196.536	90.12
3199.659	96.12
3202.781	88.12
3205.9	81.12
3209.016	87.12
3212.13	86.12
3215.241	90.12
3218.35	91.12
3221.456	89.12
3224.56	88.12
3227.661	91.12
3230.76	83.12
3233.856	86.12
3236.95	82.12
3240.041	83.12
3243.13	78.12
3246.216	84.12
3249.3	82.12
3252.382	76.12
3255.46	78.12
3258.537	76.12
3261.611	77.12
3264.682	83.12
3267.751	85.12
3270.818	77.12
3273.882	78.12
3276.943	77.12
3280.002	73.12
3283.059	76.12
3286.113	76.12
3289.165	75.12
3292.214	79.12
3295.261	75.12
3298.306	77.12
3301.348	68.12
3304.387	69.12
3307.425	63.12
3310.459	64.12
3313.492	62.12
3316.521	65.12
3319.549	66.12
3322.574	60.12
3325.597	59.12
3328.617	58.12
3331.635	56.12
3334.65	58.12
3337.663	59.12
3340.674	60.12
3343.682	60.12
3346.688	60.12
3349.691	58.12
3352.692	52.12
3355.691	51.12
3358.687	60.12
3361.681	59.12
3364.673	57.12
3367.662	55.12
3370.649	56.12
3373.633	49.12
3376.615	55.12
3379.595	48.12
3382.572	49.12
3385.547	48.12
3388.52	51.12
3391.49	49.12
3394.458	46.12
3397.424	48.12
3400.387	43.12
3403.348	46.12
3406.307	40.12
3409.263	41.12
3412.217	43.12
3415.168	51.12
3418.118	38.12
3421.065	39.12
3424.009	38.12
3426.951	38.12
3429.891	33.12
3432.829	42.12
3435.764	42.12
3438.697	34.12
3441.628	31.12
3444.557	37.12
3447.483	31.12
3450.407	29.12
3453.328	31.12
3456.247	28.12
3459.164	30.12
3462.079	26.12
3464.991	25.12
3467.902	24.12
3470.809	24.12
3473.715	19.12
3476.618	18.12
3479.519	19.12
3482.418	22.12
3485.315	21.12
3488.209	17.12
3491.101	16.12
3493.99	12.12
3496.878	11.12
3499.763	11.12
3502.646	12.12
3505.527	10.12
3508.405	15.12
3511.281	6.12
3514.155	11.12
3517.027	7.12
3519.897	5.12
3522.764	7.12
3525.629	6.12
3528.492	6.12
3531.352	4.12
3534.211	2.12
3537.067	-1.88
3539.921	1.12
3542.773	-2.88
3545.622	-0.88
3548.469	-2.88
3551.315	-4.88
3554.157	0.12
3556.998	-2.88
3559.837	-2.88
3562.673	-6.88
3565.507	-4.88
3568.339	-9.88
3571.169	-7.88
3573.996	-5.88
3576.822	-7.88
3579.645	-9.88
3582.466	-3.88
3585.285	-9.88
3588.101	-9.88
3590.916	-8.88
3593.728	-10.88
3596.538	-9.88
3599.346	-8.88
3602.152	-13.88
3604.956	-11.88
3607.757	-10.88
3610.556	-9.88
3613.354	-12.88
3616.149	-12.88
3618.942	-11.88
3621.732	-15.88
3624.521	-15.88
3627.307	-17.88
3630.092	-15.88
3632.874	-11.88
3635.654	-15.88
3638.432	-13.88
3641.208	-14.88
3643.982	-19.88
3646.753	-20.88
3649.523	-17.88
3652.29	-18.88
3655.055	-19.88
3657.818	-14.88
3660.579	-12.88
3663.338	-16.88
3666.095	-18.88
3668.849	-20.88
3671.602	-22.88
3674.352	-17.88
3677.101	-20.88
3679.847	-19.88
3682.591	-18.88
3685.333	-15.88
3688.073	-18.88
3690.811	-19.88
3693.547	-17.88
3696.281	-17.88
3699.013	-17.88
3701.742	-19.88
3704.47	-15.88
3707.195	-20.88
3709.919	-22.88
3712.64	-17.88
3715.359	-21.88
3718.076	-21.88
3720.792	-19.88
3723.505	-18.88
3726.216	-17.88
3728.925	-18.88
3731.632	-18.88
3734.336	-22.88
3737.039	-18.88
3739.74	-20.88
3742.439	-21.88
3745.136	-20.88
3747.83	-22.88
3750.523	-20.88
3753.213	-20.88
3755.902	-19.88
3758.589	-20.88
3761.273	-21.88
3763.956	-19.88
3766.636	-22.88
3769.315	-17.88
3771.991	-22.88
3774.665	-20.88
3777.338	-18.88
3780.008	-22.88
3782.677	-21.88
3785.343	-18.88
3788.007	-22.88
3790.67	-19.88
3793.33	-22.88
3795.989	-17.88
3798.645	-21.88
3801.299	-17.88
3803.952	-20.88
3806.602	-22.88
3809.251	-22.88
3811.897	-23.88
3814.542	-23.88
3817.184	-22.88
3819.825	-21.88
3822.463	-20.88
3825.1	-21.88
3827.735	-21.88
3830.367	-16.88
3832.998	-23.88
3835.627	-27.88
3838.253	-20.88
3840.878	-24.88
3843.501	-22.88
3846.122	-19.88
3848.741	-20.88
3851.358	-23.88
3853.973	-23.88
3856.586	-23.88
3859.197	-21.88
3861.806	-21.88
3864.414	-20.88
3867.019	-24.88
3869.622	-18.88
3872.224	-17.88
3874.823	-20.88
3877.421	-19.88
3880.016	-16.88
3882.61	-21.88
3885.202	-12.88
3887.792	-14.88
3890.38	-14.88
3892.966	-14.88
3895.55	-20.88
3898.132	-23.88
3900.713	-25.88
3903.291	-22.88
3905.868	-23.88
3908.442	-21.88
3911.015	-19.88
3913.586	-20.88
3916.155	-24.88
3918.722	-21.88
3921.287	-23.88
3923.85	-25.88
3926.411	-21.88
3928.971	-23.88
3931.528	-20.88
3934.084	-15.88
3936.638	-20.88
3939.19	-17.88
3941.74	-23.88
3944.288	-24.88
3946.834	-25.88
3949.378	-23.88
3951.921	-20.88
3954.462	-18.88
3957	-17.88
3959.537	-16.88
3962.072	-23.88
3964.606	-26.88
3967.137	-24.88
3969.667	-22.88
3972.194	-26.88
3974.72	-18.88
3977.244	-21.88
3979.766	-18.88
3982.286	-18.88
3984.805	-22.88
3987.321	-25.88
3989.836	-24.88
3992.349	-20.88
3994.86	-20.88
3997.369	-19.88
3999.877	-17.88
4002.382	-18.88
4004.886	-19.88
4007.388	-20.88
4009.888	-25.88
4012.386	-25.88
4014.883	-24.88
4017.377	-18.88
4019.87	-16.88
4022.361	-17.88
4024.85	-22.88
4027.338	-22.88
4029.823	-23.88
4032.307	-24.88
4034.789	-23.88
4037.269	-20.88
4039.747	-20.88
4042.224	-21.88
4044.699	-19.88
4047.172	-22.88
4049.643	-20.88
4052.112	-25.88
4054.58	-24.88
4057.046	-22.88
4059.51	-18.88
4061.972	-21.88
4064.432	-19.88
4066.891	-22.88
4069.348	-24.88
4071.803	-23.88
4074.256	-26.88
4076.708	-20.88
4079.158	-17.88
4081.606	-16.88
4084.052	-24.88
4086.497	-23.88
4088.939	-22.88
4091.38	-18.88
4093.819	-23.88
4096.257	-21.88
4098.693	-21.88
4101.127	-17.88
4103.559	-19.88
4105.989	-8.88
4108.418	-9.88
4110.845	-10.88
4113.27	-12.88
4115.694	-11.88
4118.115	-5.88
4120.535	-21.88
4122.954	-22.88
4125.37	-21.88
4127.785	-19.88
4130.198	-20.88
4132.609	-20.88
4135.019	-23.88
4137.427	-24.88
4139.833	-23.88
4142.237	-22.88
