Data from 100000CFU3_A_RamanShift_1.txt Node
Date: Mon Feb 13 13:41:59 IST 2017
User: aro
Spectrometer: QEPB0276
Trigger mode: 0
Integration Time (sec): 5.000000E0
Scans to average: 1
Electric dark correction enabled: true
Nonlinearity correction enabled: false
Boxcar width: 0
XAxis mode: Raman Shifts
Number of Pixels in Spectrum: 1044
>>>>>Begin Spectral Data<<<<<
160.701	-5.5
166.742	-1.5
172.777	18.5
178.805	72.5
184.826	180.5
190.841	356.5
196.849	546.5
202.85	686.5
208.845	726.5
214.833	711.5
220.815	692.5
226.789	688.5
232.758	684.5
238.719	671.5
244.674	658.5
250.623	650.5
256.565	635.5
262.5	621.5
268.429	610.5
274.351	603.5
280.267	596.5
286.176	581.5
292.079	573.5
297.975	572.5
303.865	567.5
309.748	568.5
315.625	559.5
321.495	559.5
327.359	564.5
333.217	570.5
339.068	562.5
344.912	569.5
350.751	574.5
356.583	575.5
362.408	574.5
368.227	573.5
374.04	570.5
379.847	570.5
385.647	567.5
391.44	560.5
397.228	571.5
403.009	577.5
408.784	575.5
414.553	580.5
420.315	586.5
426.071	586.5
431.821	584.5
437.565	602.5
443.302	588.5
449.033	586.5
454.758	578.5
460.477	578.5
466.189	561.5
471.896	554.5
477.596	554.5
483.29	561.5
488.978	553.5
494.66	530.5
500.335	526.5
506.005	502.5
511.668	484.5
517.325	459.5
522.977	455.5
528.622	440.5
534.261	430.5
539.894	415.5
545.521	412.5
551.141	411.5
556.756	402.5
562.365	393.5
567.968	395.5
573.565	389.5
579.155	383.5
584.74	385.5
590.319	383.5
595.892	373.5
601.459	379.5
607.02	374.5
612.575	368.5
618.124	365.5
623.667	360.5
629.204	362.5
634.735	356.5
640.261	347.5
645.781	341.5
651.294	345.5
656.802	337.5
662.304	344.5
667.8	340.5
673.29	338.5
678.775	334.5
684.254	336.5
689.726	330.5
695.193	325.5
700.655	325.5
706.11	317.5
711.56	327.5
717.004	320.5
722.442	332.5
727.874	316.5
733.301	309.5
738.722	310.5
744.137	315.5
749.547	307.5
754.951	312.5
760.349	311.5
765.741	313.5
771.128	312.5
776.509	320.5
781.885	329.5
787.254	321.5
792.618	323.5
797.977	319.5
803.33	316.5
808.677	316.5
814.019	320.5
819.355	319.5
824.686	306.5
830.011	311.5
835.33	324.5
840.644	321.5
845.952	326.5
851.255	323.5
856.552	332.5
861.844	326.5
867.13	338.5
872.41	327.5
877.686	329.5
882.955	325.5
888.219	338.5
893.478	318.5
898.731	298.5
903.979	300.5
909.221	294.5
914.458	287.5
919.69	283.5
924.916	289.5
930.136	294.5
935.351	289.5
940.561	284.5
945.766	279.5
950.965	282.5
956.158	278.5
961.347	277.5
966.529	268.5
971.707	272.5
976.879	265.5
982.046	262.5
987.208	257.5
992.364	255.5
997.515	253.5
1002.66	270.5
1007.801	275.5
1012.936	269.5
1018.066	278.5
1023.19	281.5
1028.309	275.5
1033.423	288.5
1038.532	283.5
1043.636	282.5
1048.734	290.5
1053.827	292.5
1058.915	294.5
1063.998	297.5
1069.075	305.5
1074.147	307.5
1079.214	306.5
1084.276	320.5
1089.333	326.5
1094.385	319.5
1099.431	305.5
1104.472	300.5
1109.509	283.5
1114.54	282.5
1119.565	280.5
1124.586	284.5
1129.602	283.5
1134.613	284.5
1139.618	258.5
1144.619	259.5
1149.614	252.5
1154.604	246.5
1159.589	246.5
1164.57	231.5
1169.545	235.5
1174.515	232.5
1179.48	234.5
1184.44	233.5
1189.395	227.5
1194.345	218.5
1199.29	220.5
1204.23	220.5
1209.165	221.5
1214.095	218.5
1219.021	215.5
1223.941	222.5
1228.856	230.5
1233.766	234.5
1238.672	232.5
1243.572	238.5
1248.467	244.5
1253.358	240.5
1258.244	247.5
1263.124	253.5
1268	253.5
1272.871	244.5
1277.737	242.5
1282.599	233.5
1287.455	233.5
1292.306	234.5
1297.153	261.5
1301.995	265.5
1306.832	266.5
1311.664	266.5
1316.491	254.5
1321.314	244.5
1326.132	234.5
1330.945	227.5
1335.753	218.5
1340.556	220.5
1345.354	210.5
1350.148	211.5
1354.937	205.5
1359.722	204.5
1364.501	196.5
1369.276	199.5
1374.046	192.5
1378.811	203.5
1383.572	201.5
1388.327	197.5
1393.079	191.5
1397.825	185.5
1402.567	185.5
1407.304	185.5
1412.036	182.5
1416.764	188.5
1421.487	192.5
1426.205	192.5
1430.919	209.5
1435.628	224.5
1440.333	248.5
1445.032	250.5
1449.727	260.5
1454.418	263.5
1459.104	249.5
1463.785	252.5
1468.462	242.5
1473.134	219.5
1477.802	201.5
1482.465	169.5
1487.123	160.5
1491.777	157.5
1496.426	152.5
1501.071	150.5
1505.711	149.5
1510.347	152.5
1514.978	144.5
1519.604	148.5
1524.226	151.5
1528.844	152.5
1533.457	143.5
1538.065	147.5
1542.669	142.5
1547.269	149.5
1551.864	140.5
1556.454	147.5
1561.041	138.5
1565.622	143.5
1570.199	140.5
1574.772	138.5
1579.34	150.5
1583.904	147.5
1588.464	149.5
1593.019	147.5
1597.569	145.5
1602.115	145.5
1606.657	146.5
1611.195	152.5
1615.728	150.5
1620.256	151.5
1624.78	159.5
1629.3	157.5
1633.816	152.5
1638.327	158.5
1642.834	165.5
1647.336	165.5
1651.834	172.5
1656.328	176.5
1660.817	177.5
1665.302	176.5
1669.783	173.5
1674.259	163.5
1678.732	157.5
1683.199	151.5
1687.663	147.5
1692.122	138.5
1696.577	135.5
1701.028	126.5
1705.474	120.5
1709.917	118.5
1714.355	116.5
1718.788	112.5
1723.218	112.5
1727.643	108.5
1732.064	107.5
1736.481	102.5
1740.893	106.5
1745.301	95.5
1749.705	100.5
1754.105	96.5
1758.501	91.5
1762.893	88.5
1767.28	88.5
1771.663	75.5
1776.042	76.5
1780.417	79.5
1784.787	79.5
1789.154	80.5
1793.516	86.5
1797.874	84.5
1802.228	84.5
1806.578	79.5
1810.924	74.5
1815.266	68.5
1819.603	73.5
1823.937	77.5
1828.266	72.5
1832.591	74.5
1836.913	71.5
1841.23	68.5
1845.543	68.5
1849.852	65.5
1854.156	64.5
1858.457	62.5
1862.754	64.5
1867.047	67.5
1871.335	69.5
1875.62	68.5
1879.9	68.5
1884.177	66.5
1888.449	67.5
1892.718	67.5
1896.982	61.5
1901.243	61.5
1905.499	67.5
1909.752	62.5
1914	65.5
1918.245	61.5
1922.485	68.5
1926.722	68.5
1930.954	71.5
1935.183	73.5
1939.408	68.5
1943.628	64.5
1947.845	64.5
1952.058	59.5
1956.267	63.5
1960.472	63.5
1964.673	65.5
1968.87	62.5
1973.063	64.5
1977.252	56.5
1981.438	54.5
1985.619	56.5
1989.797	56.5
1993.971	53.5
1998.14	54.5
2002.306	56.5
2006.469	59.5
2010.627	50.5
2014.781	52.5
2018.932	51.5
2023.078	51.5
2027.221	53.5
2031.36	52.5
2035.495	52.5
2039.627	50.5
2043.754	50.5
2047.878	50.5
2051.998	45.5
2056.114	49.5
2060.226	52.5
2064.334	55.5
2068.439	56.5
2072.54	55.5
2076.637	53.5
2080.73	48.5
2084.82	49.5
2088.906	55.5
2092.988	55.5
2097.066	50.5
2101.14	52.5
2105.211	53.5
2109.278	58.5
2113.342	52.5
2117.401	48.5
2121.457	51.5
2125.509	42.5
2129.558	48.5
2133.602	53.5
2137.643	53.5
2141.681	48.5
2145.714	47.5
2149.744	43.5
2153.77	47.5
2157.793	44.5
2161.812	43.5
2165.827	46.5
2169.838	44.5
2173.846	41.5
2177.851	37.5
2181.851	46.5
2185.848	36.5
2189.841	38.5
2193.831	40.5
2197.817	37.5
2201.799	36.5
2205.778	34.5
2209.753	32.5
2213.725	38.5
2217.693	39.5
2221.657	35.5
2225.618	37.5
2229.575	39.5
2233.529	28.5
2237.479	35.5
2241.425	33.5
2245.368	33.5
2249.307	34.5
2253.243	32.5
2257.175	38.5
2261.104	31.5
2265.029	29.5
2268.95	26.5
2272.868	24.5
2276.783	29.5
2280.694	30.5
2284.601	29.5
2288.505	27.5
2292.405	27.5
2296.302	26.5
2300.195	16.5
2304.085	23.5
2307.971	21.5
2311.854	25.5
2315.734	18.5
2319.609	17.5
2323.482	23.5
2327.351	19.5
2331.216	21.5
2335.078	24.5
2338.937	19.5
2342.792	19.5
2346.643	15.5
2350.492	20.5
2354.336	20.5
2358.178	20.5
2362.015	20.5
2365.85	10.5
2369.681	16.5
2373.508	11.5
2377.333	15.5
2381.153	14.5
2384.971	21.5
2388.785	13.5
2392.595	18.5
2396.402	15.5
2400.206	21.5
2404.007	14.5
2407.804	12.5
2411.597	14.5
2415.388	11.5
2419.174	10.5
2422.958	16.5
2426.738	13.5
2430.515	15.5
2434.289	11.5
2438.059	13.5
2441.825	9.5
2445.589	16.5
2449.349	7.5
2453.106	10.5
2456.859	12.5
2460.61	10.5
2464.356	9.5
2468.1	7.5
2471.84	12.5
2475.577	5.5
2479.311	9.5
2483.041	7.5
2486.768	9.5
2490.492	12.5
2494.213	10.5
2497.93	9.5
2501.644	10.5
2505.355	8.5
2509.062	3.5
2512.766	7.5
2516.467	7.5
2520.165	7.5
2523.859	13.5
2527.551	11.5
2531.239	9.5
2534.923	8.5
2538.605	6.5
2542.283	8.5
2545.958	9.5
2549.63	13.5
2553.299	10.5
2556.964	12.5
2560.626	9.5
2564.285	4.5
2567.941	5.5
2571.594	7.5
2575.243	5.5
2578.89	7.5
2582.533	8.5
2586.173	12.5
2589.809	9.5
2593.443	5.5
2597.073	5.5
2600.701	9.5
2604.325	4.5
2607.946	3.5
2611.564	6.5
2615.178	7.5
2618.79	7.5
2622.398	7.5
2626.004	3.5
2629.606	2.5
2633.205	2.5
2636.801	5.5
2640.394	4.5
2643.983	9.5
2647.57	3.5
2651.153	6.5
2654.734	5.5
2658.311	6.5
2661.885	5.5
2665.456	6.5
2669.025	5.5
2672.589	6.5
2676.151	6.5
2679.71	4.5
2683.266	7.5
2686.819	3.5
2690.368	1.5
2693.915	2.5
2697.458	7.5
2700.999	4.5
2704.536	5.5
2708.071	5.5
2711.602	6.5
2715.13	8.5
2718.656	9.5
2722.178	8.5
2725.697	8.5
2729.214	6.5
2732.727	11.5
2736.237	7.5
2739.744	7.5
2743.249	8.5
2746.75	7.5
2750.248	8.5
2753.743	6.5
2757.236	6.5
2760.725	6.5
2764.211	5.5
2767.695	10.5
2771.175	1.5
2774.652	6.5
2778.127	1.5
2781.598	8.5
2785.067	6.5
2788.532	4.5
2791.995	10.5
2795.455	9.5
2798.911	6.5
2802.365	9.5
2805.816	7.5
2809.264	7.5
2812.709	10.5
2816.151	10.5
2819.59	12.5
2823.026	17.5
2826.46	19.5
2829.89	19.5
2833.318	23.5
2836.742	26.5
2840.164	29.5
2843.583	41.5
2846.999	50.5
2850.412	56.5
2853.822	65.5
2857.229	72.5
2860.634	72.5
2864.035	75.5
2867.434	78.5
2870.83	75.5
2874.223	83.5
2877.613	84.5
2881	87.5
2884.385	93.5
2887.766	96.5
2891.145	95.5
2894.521	99.5
2897.894	100.5
2901.264	96.5
2904.631	91.5
2907.996	93.5
2911.358	89.5
2914.717	86.5
2918.073	87.5
2921.426	87.5
2924.777	88.5
2928.124	87.5
2931.469	86.5
2934.811	81.5
2938.15	81.5
2941.487	81.5
2944.821	74.5
2948.152	70.5
2951.48	68.5
2954.805	70.5
2958.128	59.5
2961.447	57.5
2964.765	57.5
2968.079	46.5
2971.39	44.5
2974.699	53.5
2978.005	45.5
2981.308	42.5
2984.609	44.5
2987.907	42.5
2991.202	40.5
2994.494	32.5
2997.784	31.5
3001.07	37.5
3004.355	31.5
3007.636	37.5
3010.915	36.5
3014.191	34.5
3017.464	32.5
3020.734	32.5
3024.002	23.5
3027.267	26.5
3030.53	25.5
3033.789	32.5
3037.046	32.5
3040.301	35.5
3043.552	36.5
3046.801	34.5
3050.048	30.5
3053.291	26.5
3056.532	31.5
3059.771	34.5
3063.006	36.5
3066.239	40.5
3069.469	41.5
3072.697	37.5
3075.922	36.5
3079.144	37.5
3082.364	35.5
3085.581	45.5
3088.795	49.5
3092.007	53.5
3095.216	47.5
3098.423	49.5
3101.627	47.5
3104.828	51.5
3108.026	51.5
3111.222	50.5
3114.416	54.5
3117.607	56.5
3120.795	58.5
3123.98	61.5
3127.163	61.5
3130.344	62.5
3133.521	64.5
3136.696	63.5
3139.869	64.5
3143.039	70.5
3146.206	67.5
3149.371	73.5
3152.533	70.5
3155.693	70.5
3158.85	71.5
3162.005	74.5
3165.157	70.5
3168.306	74.5
3171.453	77.5
3174.597	74.5
3177.739	72.5
3180.878	73.5
3184.014	74.5
3187.149	72.5
3190.28	75.5
3193.409	74.5
3196.536	76.5
3199.659	78.5
3202.781	79.5
3205.9	81.5
3209.016	75.5
3212.13	72.5
3215.241	79.5
3218.35	79.5
3221.456	73.5
3224.56	71.5
3227.661	73.5
3230.76	72.5
3233.856	68.5
3236.95	68.5
3240.041	71.5
3243.13	70.5
3246.216	65.5
3249.3	68.5
3252.382	65.5
3255.46	61.5
3258.537	66.5
3261.611	71.5
3264.682	70.5
3267.751	69.5
3270.818	66.5
3273.882	73.5
3276.943	60.5
3280.002	58.5
3283.059	62.5
3286.113	67.5
3289.165	64.5
3292.214	64.5
3295.261	59.5
3298.306	66.5
3301.348	57.5
3304.387	54.5
3307.425	56.5
3310.459	46.5
3313.492	50.5
3316.521	53.5
3319.549	55.5
3322.574	51.5
3325.597	48.5
3328.617	51.5
3331.635	44.5
3334.65	45.5
3337.663	49.5
3340.674	46.5
3343.682	46.5
3346.688	46.5
3349.691	49.5
3352.692	49.5
3355.691	47.5
3358.687	47.5
3361.681	49.5
3364.673	46.5
3367.662	50.5
3370.649	50.5
3373.633	45.5
3376.615	45.5
3379.595	41.5
3382.572	38.5
3385.547	41.5
3388.52	36.5
3391.49	34.5
3394.458	41.5
3397.424	35.5
3400.387	39.5
3403.348	34.5
3406.307	38.5
3409.263	38.5
3412.217	32.5
3415.168	35.5
3418.118	29.5
3421.065	32.5
3424.009	31.5
3426.951	36.5
3429.891	31.5
3432.829	34.5
3435.764	32.5
3438.697	29.5
3441.628	26.5
3444.557	27.5
3447.483	26.5
3450.407	24.5
3453.328	24.5
3456.247	27.5
3459.164	25.5
3462.079	20.5
3464.991	17.5
3467.902	18.5
3470.809	14.5
3473.715	12.5
3476.618	16.5
3479.519	18.5
3482.418	20.5
3485.315	17.5
3488.209	15.5
3491.101	12.5
3493.99	9.5
3496.878	6.5
3499.763	11.5
3502.646	5.5
3505.527	11.5
3508.405	15.5
3511.281	4.5
3514.155	7.5
3517.027	4.5
3519.897	0.5
3522.764	1.5
3525.629	-0.5
3528.492	1.5
3531.352	1.5
3534.211	0.5
3537.067	-1.5
3539.921	-0.5
3542.773	-6.5
3545.622	-3.5
3548.469	-7.5
3551.315	-3.5
3554.157	-4.5
3556.998	-7.5
3559.837	-7.5
3562.673	-7.5
3565.507	-7.5
3568.339	-7.5
3571.169	-4.5
3573.996	-2.5
3576.822	-8.5
3579.645	-11.5
3582.466	-10.5
3585.285	-12.5
3588.101	-6.5
3590.916	-10.5
3593.728	-10.5
3596.538	-7.5
3599.346	-11.5
3602.152	-14.5
3604.956	-15.5
3607.757	-12.5
3610.556	-10.5
3613.354	-7.5
3616.149	-10.5
3618.942	-8.5
3621.732	-13.5
3624.521	-17.5
3627.307	-18.5
3630.092	-20.5
3632.874	-12.5
3635.654	-14.5
3638.432	-12.5
3641.208	-14.5
3643.982	-14.5
3646.753	-16.5
3649.523	-19.5
3652.29	-18.5
3655.055	-19.5
3657.818	-13.5
3660.579	-14.5
3663.338	-15.5
3666.095	-17.5
3668.849	-17.5
3671.602	-17.5
3674.352	-17.5
3677.101	-18.5
3679.847	-18.5
3682.591	-17.5
3685.333	-17.5
3688.073	-16.5
3690.811	-18.5
3693.547	-17.5
3696.281	-20.5
3699.013	-20.5
3701.742	-17.5
3704.47	-15.5
3707.195	-19.5
3709.919	-19.5
3712.64	-19.5
3715.359	-18.5
3718.076	-21.5
3720.792	-18.5
3723.505	-17.5
3726.216	-21.5
3728.925	-18.5
3731.632	-21.5
3734.336	-22.5
3737.039	-19.5
3739.74	-18.5
3742.439	-18.5
3745.136	-21.5
3747.83	-19.5
3750.523	-23.5
3753.213	-23.5
3755.902	-18.5
3758.589	-19.5
3761.273	-19.5
3763.956	-19.5
3766.636	-18.5
3769.315	-19.5
3771.991	-22.5
3774.665	-21.5
3777.338	-21.5
3780.008	-20.5
3782.677	-19.5
3785.343	-18.5
3788.007	-19.5
3790.67	-17.5
3793.33	-23.5
3795.989	-20.5
3798.645	-22.5
3801.299	-16.5
3803.952	-18.5
3806.602	-17.5
3809.251	-17.5
3811.897	-19.5
3814.542	-24.5
3817.184	-24.5
3819.825	-22.5
3822.463	-23.5
3825.1	-18.5
3827.735	-23.5
3830.367	-15.5
3832.998	-19.5
3835.627	-23.5
3838.253	-23.5
3840.878	-22.5
3843.501	-23.5
3846.122	-23.5
3848.741	-18.5
3851.358	-17.5
3853.973	-14.5
3856.586	-20.5
3859.197	-18.5
3861.806	-19.5
3864.414	-24.5
3867.019	-24.5
3869.622	-19.5
3872.224	-19.5
3874.823	-20.5
3877.421	-20.5
3880.016	-15.5
3882.61	-14.5
3885.202	-14.5
3887.792	-16.5
3890.38	-19.5
3892.966	-15.5
3895.55	-22.5
3898.132	-20.5
3900.713	-21.5
3903.291	-22.5
3905.868	-22.5
3908.442	-23.5
3911.015	-25.5
3913.586	-23.5
3916.155	-25.5
3918.722	-16.5
3921.287	-21.5
3923.85	-23.5
3926.411	-19.5
3928.971	-22.5
3931.528	-21.5
3934.084	-23.5
3936.638	-20.5
3939.19	-18.5
3941.74	-22.5
3944.288	-18.5
3946.834	-23.5
3949.378	-21.5
3951.921	-21.5
3954.462	-22.5
3957	-21.5
3959.537	-19.5
3962.072	-19.5
3964.606	-20.5
3967.137	-22.5
3969.667	-21.5
3972.194	-24.5
3974.72	-19.5
3977.244	-23.5
3979.766	-20.5
3982.286	-19.5
3984.805	-20.5
3987.321	-22.5
3989.836	-20.5
3992.349	-19.5
3994.86	-19.5
3997.369	-22.5
3999.877	-17.5
4002.382	-18.5
4004.886	-18.5
4007.388	-18.5
4009.888	-21.5
4012.386	-23.5
4014.883	-21.5
4017.377	-21.5
4019.87	-20.5
4022.361	-20.5
4024.85	-21.5
4027.338	-19.5
4029.823	-21.5
4032.307	-21.5
4034.789	-21.5
4037.269	-17.5
4039.747	-20.5
4042.224	-19.5
4044.699	-21.5
4047.172	-21.5
4049.643	-21.5
4052.112	-19.5
4054.58	-20.5
4057.046	-22.5
4059.51	-15.5
4061.972	-18.5
4064.432	-20.5
4066.891	-24.5
4069.348	-20.5
4071.803	-21.5
4074.256	-21.5
4076.708	-18.5
4079.158	-17.5
4081.606	-22.5
4084.052	-25.5
4086.497	-28.5
4088.939	-24.5
4091.38	-19.5
4093.819	-18.5
4096.257	-23.5
4098.693	-22.5
4101.127	-18.5
4103.559	-19.5
4105.989	-6.5
4108.418	-7.5
4110.845	-9.5
4113.27	-9.5
4115.694	-9.5
4118.115	-7.5
4120.535	-20.5
4122.954	-21.5
4125.37	-20.5
4127.785	-21.5
4130.198	-23.5
4132.609	-20.5
4135.019	-22.5
4137.427	-19.5
4139.833	-20.5
4142.237	-21.5
