Data from 100000CFU1_A_RamanShift_1.txt Node
Date: Mon Feb 13 13:39:34 IST 2017
User: aro
Spectrometer: QEPB0276
Trigger mode: 0
Integration Time (sec): 5.000000E0
Scans to average: 1
Electric dark correction enabled: true
Nonlinearity correction enabled: false
Boxcar width: 0
XAxis mode: Raman Shifts
Number of Pixels in Spectrum: 1044
>>>>>Begin Spectral Data<<<<<
160.701	-3.5
166.742	-0.5
172.777	21.5
178.805	71.5
184.826	182.5
190.841	359.5
196.849	566.5
202.85	697.5
208.845	744.5
214.833	743.5
220.815	740.5
226.789	723.5
232.758	709.5
238.719	699.5
244.674	678.5
250.623	667.5
256.565	654.5
262.5	634.5
268.429	624.5
274.351	618.5
280.267	606.5
286.176	592.5
292.079	588.5
297.975	590.5
303.865	583.5
309.748	579.5
315.625	574.5
321.495	570.5
327.359	565.5
333.217	580.5
339.068	580.5
344.912	583.5
350.751	577.5
356.583	589.5
362.408	589.5
368.227	588.5
374.04	573.5
379.847	577.5
385.647	567.5
391.44	565.5
397.228	579.5
403.009	594.5
408.784	596.5
414.553	605.5
420.315	604.5
426.071	601.5
431.821	598.5
437.565	603.5
443.302	595.5
449.033	596.5
454.758	594.5
460.477	593.5
466.189	582.5
471.896	564.5
477.596	576.5
483.29	568.5
488.978	556.5
494.66	543.5
500.335	525.5
506.005	508.5
511.668	491.5
517.325	475.5
522.977	465.5
528.622	450.5
534.261	431.5
539.894	429.5
545.521	416.5
551.141	419.5
556.756	409.5
562.365	405.5
567.968	392.5
573.565	402.5
579.155	400.5
584.74	397.5
590.319	398.5
595.892	390.5
601.459	392.5
607.02	391.5
612.575	379.5
618.124	371.5
623.667	369.5
629.204	364.5
634.735	364.5
640.261	361.5
645.781	358.5
651.294	358.5
656.802	358.5
662.304	346.5
667.8	349.5
673.29	344.5
678.775	350.5
684.254	345.5
689.726	345.5
695.193	331.5
700.655	335.5
706.11	333.5
711.56	334.5
717.004	327.5
722.442	331.5
727.874	337.5
733.301	327.5
738.722	325.5
744.137	325.5
749.547	318.5
754.951	324.5
760.349	324.5
765.741	322.5
771.128	333.5
776.509	327.5
781.885	330.5
787.254	330.5
792.618	329.5
797.977	321.5
803.33	326.5
808.677	333.5
814.019	325.5
819.355	329.5
824.686	325.5
830.011	330.5
835.33	334.5
840.644	329.5
845.952	332.5
851.255	344.5
856.552	344.5
861.844	330.5
867.13	333.5
872.41	336.5
877.686	334.5
882.955	343.5
888.219	340.5
893.478	334.5
898.731	323.5
903.979	301.5
909.221	303.5
914.458	302.5
919.69	299.5
924.916	298.5
930.136	296.5
935.351	291.5
940.561	298.5
945.766	301.5
950.965	290.5
956.158	288.5
961.347	284.5
966.529	275.5
971.707	286.5
976.879	272.5
982.046	265.5
987.208	270.5
992.364	265.5
997.515	271.5
1002.66	272.5
1007.801	284.5
1012.936	288.5
1018.066	299.5
1023.19	292.5
1028.309	291.5
1033.423	296.5
1038.532	290.5
1043.636	291.5
1048.734	298.5
1053.827	301.5
1058.915	306.5
1063.998	304.5
1069.075	315.5
1074.147	315.5
1079.214	319.5
1084.276	323.5
1089.333	330.5
1094.385	327.5
1099.431	319.5
1104.472	304.5
1109.509	296.5
1114.54	303.5
1119.565	297.5
1124.586	296.5
1129.602	297.5
1134.613	287.5
1139.618	275.5
1144.619	265.5
1149.614	262.5
1154.604	259.5
1159.589	253.5
1164.57	248.5
1169.545	246.5
1174.515	241.5
1179.48	231.5
1184.44	230.5
1189.395	236.5
1194.345	232.5
1199.29	224.5
1204.23	230.5
1209.165	231.5
1214.095	234.5
1219.021	224.5
1223.941	231.5
1228.856	231.5
1233.766	240.5
1238.672	244.5
1243.572	250.5
1248.467	259.5
1253.358	255.5
1258.244	259.5
1263.124	252.5
1268	249.5
1272.871	253.5
1277.737	252.5
1282.599	247.5
1287.455	249.5
1292.306	245.5
1297.153	257.5
1301.995	272.5
1306.832	279.5
1311.664	274.5
1316.491	262.5
1321.314	257.5
1326.132	241.5
1330.945	232.5
1335.753	227.5
1340.556	226.5
1345.354	219.5
1350.148	216.5
1354.937	214.5
1359.722	211.5
1364.501	210.5
1369.276	203.5
1374.046	208.5
1378.811	200.5
1383.572	212.5
1388.327	207.5
1393.079	196.5
1397.825	193.5
1402.567	194.5
1407.304	192.5
1412.036	190.5
1416.764	197.5
1421.487	196.5
1426.205	202.5
1430.919	211.5
1435.628	227.5
1440.333	252.5
1445.032	273.5
1449.727	270.5
1454.418	278.5
1459.104	260.5
1463.785	259.5
1468.462	247.5
1473.134	226.5
1477.802	198.5
1482.465	189.5
1487.123	171.5
1491.777	162.5
1496.426	159.5
1501.071	160.5
1505.711	152.5
1510.347	153.5
1514.978	149.5
1519.604	152.5
1524.226	155.5
1528.844	155.5
1533.457	152.5
1538.065	158.5
1542.669	156.5
1547.269	155.5
1551.864	153.5
1556.454	151.5
1561.041	148.5
1565.622	142.5
1570.199	147.5
1574.772	154.5
1579.34	157.5
1583.904	153.5
1588.464	154.5
1593.019	152.5
1597.569	149.5
1602.115	154.5
1606.657	157.5
1611.195	155.5
1615.728	161.5
1620.256	161.5
1624.78	159.5
1629.3	163.5
1633.816	160.5
1638.327	164.5
1642.834	169.5
1647.336	171.5
1651.834	181.5
1656.328	185.5
1660.817	192.5
1665.302	185.5
1669.783	178.5
1674.259	168.5
1678.732	165.5
1683.199	158.5
1687.663	154.5
1692.122	145.5
1696.577	142.5
1701.028	125.5
1705.474	128.5
1709.917	120.5
1714.355	122.5
1718.788	116.5
1723.218	116.5
1727.643	110.5
1732.064	116.5
1736.481	107.5
1740.893	101.5
1745.301	100.5
1749.705	103.5
1754.105	97.5
1758.501	95.5
1762.893	94.5
1767.28	88.5
1771.663	86.5
1776.042	78.5
1780.417	78.5
1784.787	77.5
1789.154	78.5
1793.516	86.5
1797.874	83.5
1802.228	86.5
1806.578	87.5
1810.924	76.5
1815.266	69.5
1819.603	78.5
1823.937	78.5
1828.266	76.5
1832.591	72.5
1836.913	72.5
1841.23	74.5
1845.543	67.5
1849.852	71.5
1854.156	67.5
1858.457	66.5
1862.754	70.5
1867.047	71.5
1871.335	72.5
1875.62	70.5
1879.9	74.5
1884.177	66.5
1888.449	70.5
1892.718	66.5
1896.982	65.5
1901.243	67.5
1905.499	66.5
1909.752	68.5
1914	60.5
1918.245	63.5
1922.485	70.5
1926.722	65.5
1930.954	73.5
1935.183	76.5
1939.408	70.5
1943.628	70.5
1947.845	70.5
1952.058	67.5
1956.267	67.5
1960.472	67.5
1964.673	63.5
1968.87	63.5
1973.063	61.5
1977.252	64.5
1981.438	59.5
1985.619	61.5
1989.797	61.5
1993.971	57.5
1998.14	58.5
2002.306	56.5
2006.469	57.5
2010.627	55.5
2014.781	56.5
2018.932	60.5
2023.078	56.5
2027.221	61.5
2031.36	56.5
2035.495	53.5
2039.627	54.5
2043.754	49.5
2047.878	53.5
2051.998	50.5
2056.114	50.5
2060.226	54.5
2064.334	55.5
2068.439	60.5
2072.54	60.5
2076.637	53.5
2080.73	49.5
2084.82	53.5
2088.906	56.5
2092.988	55.5
2097.066	56.5
2101.14	57.5
2105.211	58.5
2109.278	54.5
2113.342	50.5
2117.401	53.5
2121.457	50.5
2125.509	52.5
2129.558	47.5
2133.602	53.5
2137.643	48.5
2141.681	46.5
2145.714	50.5
2149.744	52.5
2153.77	49.5
2157.793	47.5
2161.812	49.5
2165.827	47.5
2169.838	45.5
2173.846	41.5
2177.851	41.5
2181.851	43.5
2185.848	44.5
2189.841	40.5
2193.831	41.5
2197.817	42.5
2201.799	42.5
2205.778	36.5
2209.753	32.5
2213.725	35.5
2217.693	39.5
2221.657	38.5
2225.618	39.5
2229.575	38.5
2233.529	38.5
2237.479	32.5
2241.425	29.5
2245.368	34.5
2249.307	29.5
2253.243	36.5
2257.175	38.5
2261.104	38.5
2265.029	33.5
2268.95	29.5
2272.868	24.5
2276.783	29.5
2280.694	28.5
2284.601	29.5
2288.505	29.5
2292.405	28.5
2296.302	27.5
2300.195	21.5
2304.085	22.5
2307.971	22.5
2311.854	26.5
2315.734	18.5
2319.609	26.5
2323.482	20.5
2327.351	22.5
2331.216	21.5
2335.078	23.5
2338.937	23.5
2342.792	23.5
2346.643	18.5
2350.492	19.5
2354.336	16.5
2358.178	20.5
2362.015	22.5
2365.85	17.5
2369.681	17.5
2373.508	16.5
2377.333	13.5
2381.153	20.5
2384.971	19.5
2388.785	17.5
2392.595	16.5
2396.402	15.5
2400.206	20.5
2404.007	15.5
2407.804	16.5
2411.597	16.5
2415.388	13.5
2419.174	10.5
2422.958	15.5
2426.738	13.5
2430.515	15.5
2434.289	17.5
2438.059	12.5
2441.825	13.5
2445.589	17.5
2449.349	9.5
2453.106	8.5
2456.859	7.5
2460.61	12.5
2464.356	14.5
2468.1	12.5
2471.84	16.5
2475.577	10.5
2479.311	11.5
2483.041	9.5
2486.768	14.5
2490.492	9.5
2494.213	14.5
2497.93	15.5
2501.644	13.5
2505.355	7.5
2509.062	9.5
2512.766	11.5
2516.467	9.5
2520.165	9.5
2523.859	9.5
2527.551	11.5
2531.239	12.5
2534.923	8.5
2538.605	10.5
2542.283	14.5
2545.958	9.5
2549.63	12.5
2553.299	10.5
2556.964	10.5
2560.626	13.5
2564.285	8.5
2567.941	12.5
2571.594	9.5
2575.243	10.5
2578.89	11.5
2582.533	14.5
2586.173	12.5
2589.809	9.5
2593.443	7.5
2597.073	9.5
2600.701	4.5
2604.325	9.5
2607.946	13.5
2611.564	6.5
2615.178	9.5
2618.79	6.5
2622.398	7.5
2626.004	8.5
2629.606	5.5
2633.205	7.5
2636.801	10.5
2640.394	9.5
2643.983	8.5
2647.57	2.5
2651.153	4.5
2654.734	-0.5
2658.311	6.5
2661.885	9.5
2665.456	10.5
2669.025	5.5
2672.589	10.5
2676.151	7.5
2679.71	4.5
2683.266	3.5
2686.819	2.5
2690.368	3.5
2693.915	4.5
2697.458	12.5
2700.999	5.5
2704.536	9.5
2708.071	5.5
2711.602	6.5
2715.13	7.5
2718.656	8.5
2722.178	8.5
2725.697	12.5
2729.214	10.5
2732.727	12.5
2736.237	10.5
2739.744	10.5
2743.249	4.5
2746.75	7.5
2750.248	5.5
2753.743	5.5
2757.236	7.5
2760.725	13.5
2764.211	5.5
2767.695	7.5
2771.175	3.5
2774.652	3.5
2778.127	1.5
2781.598	4.5
2785.067	6.5
2788.532	10.5
2791.995	10.5
2795.455	8.5
2798.911	7.5
2802.365	5.5
2805.816	6.5
2809.264	9.5
2812.709	10.5
2816.151	11.5
2819.59	17.5
2823.026	24.5
2826.46	19.5
2829.89	20.5
2833.318	29.5
2836.742	27.5
2840.164	34.5
2843.583	47.5
2846.999	52.5
2850.412	66.5
2853.822	68.5
2857.229	75.5
2860.634	81.5
2864.035	78.5
2867.434	84.5
2870.83	81.5
2874.223	87.5
2877.613	97.5
2881	95.5
2884.385	102.5
2887.766	102.5
2891.145	104.5
2894.521	99.5
2897.894	98.5
2901.264	107.5
2904.631	102.5
2907.996	101.5
2911.358	98.5
2914.717	95.5
2918.073	95.5
2921.426	95.5
2924.777	87.5
2928.124	86.5
2931.469	90.5
2934.811	89.5
2938.15	93.5
2941.487	84.5
2944.821	84.5
2948.152	77.5
2951.48	72.5
2954.805	71.5
2958.128	63.5
2961.447	59.5
2964.765	59.5
2968.079	55.5
2971.39	49.5
2974.699	54.5
2978.005	50.5
2981.308	48.5
2984.609	48.5
2987.907	46.5
2991.202	45.5
2994.494	40.5
2997.784	39.5
3001.07	40.5
3004.355	37.5
3007.636	37.5
3010.915	37.5
3014.191	34.5
3017.464	37.5
3020.734	37.5
3024.002	29.5
3027.267	30.5
3030.53	32.5
3033.789	32.5
3037.046	28.5
3040.301	36.5
3043.552	32.5
3046.801	28.5
3050.048	33.5
3053.291	33.5
3056.532	35.5
3059.771	40.5
3063.006	39.5
3066.239	41.5
3069.469	39.5
3072.697	40.5
3075.922	44.5
3079.144	39.5
3082.364	42.5
3085.581	47.5
3088.795	51.5
3092.007	50.5
3095.216	47.5
3098.423	48.5
3101.627	56.5
3104.828	48.5
3108.026	51.5
3111.222	59.5
3114.416	62.5
3117.607	61.5
3120.795	66.5
3123.98	67.5
3127.163	65.5
3130.344	64.5
3133.521	68.5
3136.696	76.5
3139.869	77.5
3143.039	74.5
3146.206	77.5
3149.371	74.5
3152.533	78.5
3155.693	73.5
3158.85	75.5
3162.005	80.5
3165.157	77.5
3168.306	76.5
3171.453	83.5
3174.597	81.5
3177.739	81.5
3180.878	80.5
3184.014	87.5
3187.149	80.5
3190.28	83.5
3193.409	80.5
3196.536	83.5
3199.659	81.5
3202.781	85.5
3205.9	78.5
3209.016	83.5
3212.13	78.5
3215.241	84.5
3218.35	83.5
3221.456	82.5
3224.56	78.5
3227.661	81.5
3230.76	78.5
3233.856	74.5
3236.95	71.5
3240.041	70.5
3243.13	74.5
3246.216	75.5
3249.3	76.5
3252.382	74.5
3255.46	69.5
3258.537	67.5
3261.611	70.5
3264.682	69.5
3267.751	73.5
3270.818	74.5
3273.882	75.5
3276.943	72.5
3280.002	70.5
3283.059	71.5
3286.113	67.5
3289.165	66.5
3292.214	73.5
3295.261	63.5
3298.306	66.5
3301.348	61.5
3304.387	57.5
3307.425	58.5
3310.459	59.5
3313.492	55.5
3316.521	58.5
3319.549	59.5
3322.574	59.5
3325.597	50.5
3328.617	54.5
3331.635	57.5
3334.65	51.5
3337.663	56.5
3340.674	50.5
3343.682	54.5
3346.688	46.5
3349.691	53.5
3352.692	43.5
3355.691	50.5
3358.687	55.5
3361.681	52.5
3364.673	49.5
3367.662	48.5
3370.649	45.5
3373.633	44.5
3376.615	48.5
3379.595	41.5
3382.572	43.5
3385.547	42.5
3388.52	43.5
3391.49	47.5
3394.458	44.5
3397.424	36.5
3400.387	36.5
3403.348	41.5
3406.307	38.5
3409.263	40.5
3412.217	39.5
3415.168	42.5
3418.118	37.5
3421.065	36.5
3424.009	32.5
3426.951	35.5
3429.891	35.5
3432.829	34.5
3435.764	37.5
3438.697	35.5
3441.628	31.5
3444.557	34.5
3447.483	27.5
3450.407	23.5
3453.328	28.5
3456.247	26.5
3459.164	24.5
3462.079	27.5
3464.991	23.5
3467.902	22.5
3470.809	20.5
3473.715	18.5
3476.618	15.5
3479.519	19.5
3482.418	17.5
3485.315	21.5
3488.209	13.5
3491.101	15.5
3493.99	13.5
3496.878	14.5
3499.763	14.5
3502.646	9.5
3505.527	11.5
3508.405	11.5
3511.281	1.5
3514.155	5.5
3517.027	6.5
3519.897	1.5
3522.764	6.5
3525.629	3.5
3528.492	0.5
3531.352	1.5
3534.211	-1.5
3537.067	2.5
3539.921	-2.5
3542.773	-0.5
3545.622	-1.5
3548.469	-2.5
3551.315	-3.5
3554.157	-3.5
3556.998	-6.5
3559.837	-10.5
3562.673	-7.5
3565.507	-12.5
3568.339	-5.5
3571.169	-6.5
3573.996	-2.5
3576.822	-6.5
3579.645	-12.5
3582.466	-10.5
3585.285	-15.5
3588.101	-12.5
3590.916	-8.5
3593.728	-9.5
3596.538	-10.5
3599.346	-7.5
3602.152	-12.5
3604.956	-14.5
3607.757	-15.5
3610.556	-14.5
3613.354	-14.5
3616.149	-10.5
3618.942	-7.5
3621.732	-14.5
3624.521	-13.5
3627.307	-14.5
3630.092	-14.5
3632.874	-16.5
3635.654	-15.5
3638.432	-17.5
3641.208	-13.5
3643.982	-16.5
3646.753	-17.5
3649.523	-14.5
3652.29	-20.5
3655.055	-17.5
3657.818	-16.5
3660.579	-20.5
3663.338	-16.5
3666.095	-20.5
3668.849	-17.5
3671.602	-19.5
3674.352	-15.5
3677.101	-16.5
3679.847	-23.5
3682.591	-18.5
3685.333	-16.5
3688.073	-19.5
3690.811	-24.5
3693.547	-16.5
3696.281	-18.5
3699.013	-16.5
3701.742	-16.5
3704.47	-12.5
3707.195	-19.5
3709.919	-23.5
3712.64	-21.5
3715.359	-22.5
3718.076	-18.5
3720.792	-20.5
3723.505	-15.5
3726.216	-19.5
3728.925	-17.5
3731.632	-22.5
3734.336	-20.5
3737.039	-19.5
3739.74	-21.5
3742.439	-21.5
3745.136	-18.5
3747.83	-21.5
3750.523	-23.5
3753.213	-20.5
3755.902	-18.5
3758.589	-24.5
3761.273	-19.5
3763.956	-21.5
3766.636	-24.5
3769.315	-19.5
3771.991	-18.5
3774.665	-20.5
3777.338	-17.5
3780.008	-22.5
3782.677	-20.5
3785.343	-20.5
3788.007	-23.5
3790.67	-22.5
3793.33	-21.5
3795.989	-18.5
3798.645	-22.5
3801.299	-16.5
3803.952	-19.5
3806.602	-22.5
3809.251	-21.5
3811.897	-23.5
3814.542	-23.5
3817.184	-23.5
3819.825	-20.5
3822.463	-21.5
3825.1	-19.5
3827.735	-21.5
3830.367	-18.5
3832.998	-22.5
3835.627	-28.5
3838.253	-22.5
3840.878	-23.5
3843.501	-18.5
3846.122	-19.5
3848.741	-17.5
3851.358	-21.5
3853.973	-22.5
3856.586	-21.5
3859.197	-22.5
3861.806	-21.5
3864.414	-20.5
3867.019	-26.5
3869.622	-18.5
3872.224	-18.5
3874.823	-20.5
3877.421	-22.5
3880.016	-17.5
3882.61	-17.5
3885.202	-14.5
3887.792	-17.5
3890.38	-17.5
3892.966	-14.5
3895.55	-23.5
3898.132	-25.5
3900.713	-25.5
3903.291	-25.5
3905.868	-23.5
3908.442	-21.5
3911.015	-22.5
3913.586	-20.5
3916.155	-21.5
3918.722	-20.5
3921.287	-23.5
3923.85	-25.5
3926.411	-21.5
3928.971	-25.5
3931.528	-22.5
3934.084	-18.5
3936.638	-17.5
3939.19	-18.5
3941.74	-24.5
3944.288	-24.5
3946.834	-25.5
3949.378	-25.5
3951.921	-20.5
3954.462	-23.5
3957	-22.5
3959.537	-17.5
3962.072	-22.5
3964.606	-20.5
3967.137	-19.5
3969.667	-22.5
3972.194	-25.5
3974.72	-21.5
3977.244	-21.5
3979.766	-20.5
3982.286	-19.5
3984.805	-19.5
3987.321	-25.5
3989.836	-22.5
3992.349	-20.5
3994.86	-22.5
3997.369	-20.5
3999.877	-16.5
4002.382	-16.5
4004.886	-17.5
4007.388	-18.5
4009.888	-23.5
4012.386	-22.5
4014.883	-26.5
4017.377	-22.5
4019.87	-18.5
4022.361	-17.5
4024.85	-20.5
4027.338	-22.5
4029.823	-21.5
4032.307	-21.5
4034.789	-23.5
4037.269	-19.5
4039.747	-22.5
4042.224	-20.5
4044.699	-22.5
4047.172	-21.5
4049.643	-19.5
4052.112	-22.5
4054.58	-22.5
4057.046	-22.5
4059.51	-18.5
4061.972	-20.5
4064.432	-20.5
4066.891	-23.5
4069.348	-21.5
4071.803	-21.5
4074.256	-19.5
4076.708	-20.5
4079.158	-21.5
4081.606	-20.5
4084.052	-27.5
4086.497	-24.5
4088.939	-23.5
4091.38	-18.5
4093.819	-20.5
4096.257	-26.5
4098.693	-20.5
4101.127	-17.5
4103.559	-18.5
4105.989	-6.5
4108.418	-9.5
4110.845	-13.5
4113.27	-11.5
4115.694	-12.5
4118.115	-8.5
4120.535	-21.5
4122.954	-22.5
4125.37	-23.5
4127.785	-20.5
4130.198	-22.5
4132.609	-23.5
4135.019	-22.5
4137.427	-22.5
4139.833	-24.5
4142.237	-19.5
