Data from 100CFU2_A_RamanShift_1.txt Node
Date: Mon Feb 13 13:28:24 IST 2017
User: aro
Spectrometer: QEPB0276
Trigger mode: 0
Integration Time (sec): 5.000000E0
Scans to average: 1
Electric dark correction enabled: true
Nonlinearity correction enabled: false
Boxcar width: 0
XAxis mode: Raman Shifts
Number of Pixels in Spectrum: 1044
>>>>>Begin Spectral Data<<<<<
160.701	-2.5
166.742	1.5
172.777	23.5
178.805	77.5
184.826	187.5
190.841	390.5
196.849	607.5
202.85	759.5
208.845	798.5
214.833	798.5
220.815	771.5
226.789	764.5
232.758	748.5
238.719	750.5
244.674	735.5
250.623	711.5
256.565	703.5
262.5	677.5
268.429	672.5
274.351	660.5
280.267	647.5
286.176	637.5
292.079	627.5
297.975	629.5
303.865	637.5
309.748	622.5
315.625	610.5
321.495	620.5
327.359	608.5
333.217	613.5
339.068	612.5
344.912	624.5
350.751	631.5
356.583	635.5
362.408	633.5
368.227	627.5
374.04	611.5
379.847	615.5
385.647	612.5
391.44	624.5
397.228	624.5
403.009	626.5
408.784	645.5
414.553	652.5
420.315	636.5
426.071	631.5
431.821	641.5
437.565	649.5
443.302	644.5
449.033	634.5
454.758	633.5
460.477	621.5
466.189	618.5
471.896	612.5
477.596	601.5
483.29	599.5
488.978	597.5
494.66	586.5
500.335	576.5
506.005	551.5
511.668	534.5
517.325	510.5
522.977	487.5
528.622	481.5
534.261	474.5
539.894	463.5
545.521	454.5
551.141	454.5
556.756	445.5
562.365	435.5
567.968	437.5
573.565	428.5
579.155	430.5
584.74	430.5
590.319	418.5
595.892	419.5
601.459	423.5
607.02	415.5
612.575	410.5
618.124	410.5
623.667	410.5
629.204	401.5
634.735	394.5
640.261	395.5
645.781	379.5
651.294	388.5
656.802	392.5
662.304	379.5
667.8	373.5
673.29	373.5
678.775	370.5
684.254	369.5
689.726	370.5
695.193	359.5
700.655	360.5
706.11	366.5
711.56	360.5
717.004	366.5
722.442	369.5
727.874	354.5
733.301	348.5
738.722	347.5
744.137	350.5
749.547	346.5
754.951	356.5
760.349	349.5
765.741	351.5
771.128	358.5
776.509	349.5
781.885	355.5
787.254	354.5
792.618	364.5
797.977	353.5
803.33	356.5
808.677	356.5
814.019	349.5
819.355	354.5
824.686	346.5
830.011	352.5
835.33	353.5
840.644	359.5
845.952	369.5
851.255	360.5
856.552	377.5
861.844	364.5
867.13	370.5
872.41	366.5
877.686	369.5
882.955	375.5
888.219	372.5
893.478	356.5
898.731	347.5
903.979	337.5
909.221	327.5
914.458	324.5
919.69	321.5
924.916	328.5
930.136	324.5
935.351	319.5
940.561	312.5
945.766	309.5
950.965	311.5
956.158	311.5
961.347	311.5
966.529	312.5
971.707	300.5
976.879	300.5
982.046	291.5
987.208	283.5
992.364	285.5
997.515	304.5
1002.66	306.5
1007.801	310.5
1012.936	308.5
1018.066	315.5
1023.19	311.5
1028.309	318.5
1033.423	329.5
1038.532	323.5
1043.636	325.5
1048.734	318.5
1053.827	331.5
1058.915	323.5
1063.998	331.5
1069.075	344.5
1074.147	342.5
1079.214	347.5
1084.276	351.5
1089.333	362.5
1094.385	352.5
1099.431	345.5
1104.472	337.5
1109.509	319.5
1114.54	316.5
1119.565	320.5
1124.586	324.5
1129.602	315.5
1134.613	314.5
1139.618	299.5
1144.619	286.5
1149.614	276.5
1154.604	272.5
1159.589	271.5
1164.57	265.5
1169.545	268.5
1174.515	262.5
1179.48	259.5
1184.44	256.5
1189.395	243.5
1194.345	241.5
1199.29	240.5
1204.23	250.5
1209.165	249.5
1214.095	253.5
1219.021	248.5
1223.941	247.5
1228.856	253.5
1233.766	265.5
1238.672	258.5
1243.572	269.5
1248.467	275.5
1253.358	273.5
1258.244	283.5
1263.124	276.5
1268	278.5
1272.871	268.5
1277.737	271.5
1282.599	265.5
1287.455	259.5
1292.306	266.5
1297.153	293.5
1301.995	288.5
1306.832	298.5
1311.664	298.5
1316.491	287.5
1321.314	274.5
1326.132	263.5
1330.945	259.5
1335.753	254.5
1340.556	246.5
1345.354	243.5
1350.148	227.5
1354.937	229.5
1359.722	225.5
1364.501	226.5
1369.276	229.5
1374.046	221.5
1378.811	232.5
1383.572	227.5
1388.327	223.5
1393.079	209.5
1397.825	207.5
1402.567	206.5
1407.304	202.5
1412.036	203.5
1416.764	209.5
1421.487	214.5
1426.205	219.5
1430.919	227.5
1435.628	253.5
1440.333	279.5
1445.032	296.5
1449.727	299.5
1454.418	301.5
1459.104	294.5
1463.785	287.5
1468.462	271.5
1473.134	241.5
1477.802	222.5
1482.465	200.5
1487.123	191.5
1491.777	180.5
1496.426	170.5
1501.071	173.5
1505.711	170.5
1510.347	162.5
1514.978	163.5
1519.604	159.5
1524.226	167.5
1528.844	166.5
1533.457	168.5
1538.065	171.5
1542.669	167.5
1547.269	164.5
1551.864	163.5
1556.454	165.5
1561.041	159.5
1565.622	156.5
1570.199	159.5
1574.772	159.5
1579.34	168.5
1583.904	163.5
1588.464	167.5
1593.019	165.5
1597.569	157.5
1602.115	169.5
1606.657	165.5
1611.195	168.5
1615.728	174.5
1620.256	172.5
1624.78	175.5
1629.3	169.5
1633.816	172.5
1638.327	177.5
1642.834	180.5
1647.336	187.5
1651.834	192.5
1656.328	201.5
1660.817	199.5
1665.302	196.5
1669.783	188.5
1674.259	176.5
1678.732	176.5
1683.199	171.5
1687.663	160.5
1692.122	150.5
1696.577	146.5
1701.028	143.5
1705.474	133.5
1709.917	133.5
1714.355	125.5
1718.788	121.5
1723.218	121.5
1727.643	124.5
1732.064	119.5
1736.481	117.5
1740.893	108.5
1745.301	107.5
1749.705	111.5
1754.105	102.5
1758.501	100.5
1762.893	99.5
1767.28	91.5
1771.663	88.5
1776.042	88.5
1780.417	85.5
1784.787	87.5
1789.154	82.5
1793.516	91.5
1797.874	88.5
1802.228	94.5
1806.578	92.5
1810.924	87.5
1815.266	75.5
1819.603	83.5
1823.937	81.5
1828.266	83.5
1832.591	80.5
1836.913	78.5
1841.23	80.5
1845.543	75.5
1849.852	68.5
1854.156	71.5
1858.457	70.5
1862.754	71.5
1867.047	74.5
1871.335	71.5
1875.62	74.5
1879.9	70.5
1884.177	70.5
1888.449	75.5
1892.718	70.5
1896.982	67.5
1901.243	72.5
1905.499	76.5
1909.752	72.5
1914	71.5
1918.245	69.5
1922.485	72.5
1926.722	65.5
1930.954	75.5
1935.183	77.5
1939.408	70.5
1943.628	75.5
1947.845	75.5
1952.058	71.5
1956.267	71.5
1960.472	67.5
1964.673	67.5
1968.87	69.5
1973.063	65.5
1977.252	65.5
1981.438	63.5
1985.619	63.5
1989.797	61.5
1993.971	62.5
1998.14	65.5
2002.306	61.5
2006.469	66.5
2010.627	61.5
2014.781	56.5
2018.932	62.5
2023.078	59.5
2027.221	63.5
2031.36	63.5
2035.495	55.5
2039.627	58.5
2043.754	56.5
2047.878	55.5
2051.998	59.5
2056.114	57.5
2060.226	63.5
2064.334	60.5
2068.439	58.5
2072.54	58.5
2076.637	56.5
2080.73	59.5
2084.82	60.5
2088.906	63.5
2092.988	68.5
2097.066	61.5
2101.14	54.5
2105.211	57.5
2109.278	59.5
2113.342	57.5
2117.401	57.5
2121.457	58.5
2125.509	60.5
2129.558	54.5
2133.602	54.5
2137.643	52.5
2141.681	49.5
2145.714	55.5
2149.744	48.5
2153.77	53.5
2157.793	47.5
2161.812	51.5
2165.827	54.5
2169.838	47.5
2173.846	48.5
2177.851	44.5
2181.851	46.5
2185.848	44.5
2189.841	46.5
2193.831	45.5
2197.817	46.5
2201.799	42.5
2205.778	39.5
2209.753	34.5
2213.725	37.5
2217.693	41.5
2221.657	43.5
2225.618	44.5
2229.575	44.5
2233.529	34.5
2237.479	36.5
2241.425	33.5
2245.368	39.5
2249.307	36.5
2253.243	34.5
2257.175	43.5
2261.104	38.5
2265.029	31.5
2268.95	25.5
2272.868	25.5
2276.783	33.5
2280.694	32.5
2284.601	32.5
2288.505	34.5
2292.405	31.5
2296.302	25.5
2300.195	19.5
2304.085	22.5
2307.971	20.5
2311.854	29.5
2315.734	22.5
2319.609	24.5
2323.482	22.5
2327.351	25.5
2331.216	26.5
2335.078	28.5
2338.937	22.5
2342.792	25.5
2346.643	20.5
2350.492	21.5
2354.336	19.5
2358.178	19.5
2362.015	20.5
2365.85	13.5
2369.681	16.5
2373.508	18.5
2377.333	22.5
2381.153	22.5
2384.971	21.5
2388.785	19.5
2392.595	14.5
2396.402	15.5
2400.206	18.5
2404.007	16.5
2407.804	20.5
2411.597	21.5
2415.388	16.5
2419.174	14.5
2422.958	16.5
2426.738	11.5
2430.515	13.5
2434.289	15.5
2438.059	14.5
2441.825	13.5
2445.589	21.5
2449.349	12.5
2453.106	10.5
2456.859	9.5
2460.61	9.5
2464.356	13.5
2468.1	11.5
2471.84	16.5
2475.577	9.5
2479.311	12.5
2483.041	10.5
2486.768	12.5
2490.492	7.5
2494.213	15.5
2497.93	12.5
2501.644	10.5
2505.355	10.5
2509.062	11.5
2512.766	12.5
2516.467	9.5
2520.165	6.5
2523.859	15.5
2527.551	13.5
2531.239	11.5
2534.923	9.5
2538.605	9.5
2542.283	9.5
2545.958	5.5
2549.63	10.5
2553.299	7.5
2556.964	12.5
2560.626	12.5
2564.285	7.5
2567.941	9.5
2571.594	11.5
2575.243	6.5
2578.89	9.5
2582.533	14.5
2586.173	10.5
2589.809	15.5
2593.443	10.5
2597.073	11.5
2600.701	5.5
2604.325	10.5
2607.946	5.5
2611.564	7.5
2615.178	10.5
2618.79	6.5
2622.398	8.5
2626.004	8.5
2629.606	8.5
2633.205	7.5
2636.801	8.5
2640.394	10.5
2643.983	10.5
2647.57	7.5
2651.153	10.5
2654.734	8.5
2658.311	11.5
2661.885	6.5
2665.456	5.5
2669.025	8.5
2672.589	10.5
2676.151	10.5
2679.71	6.5
2683.266	9.5
2686.819	4.5
2690.368	2.5
2693.915	4.5
2697.458	7.5
2700.999	8.5
2704.536	7.5
2708.071	5.5
2711.602	11.5
2715.13	7.5
2718.656	9.5
2722.178	8.5
2725.697	11.5
2729.214	9.5
2732.727	13.5
2736.237	12.5
2739.744	11.5
2743.249	4.5
2746.75	8.5
2750.248	6.5
2753.743	4.5
2757.236	9.5
2760.725	15.5
2764.211	6.5
2767.695	11.5
2771.175	6.5
2774.652	7.5
2778.127	1.5
2781.598	7.5
2785.067	7.5
2788.532	9.5
2791.995	11.5
2795.455	10.5
2798.911	5.5
2802.365	8.5
2805.816	6.5
2809.264	10.5
2812.709	13.5
2816.151	13.5
2819.59	19.5
2823.026	21.5
2826.46	20.5
2829.89	23.5
2833.318	26.5
2836.742	31.5
2840.164	34.5
2843.583	51.5
2846.999	60.5
2850.412	75.5
2853.822	78.5
2857.229	84.5
2860.634	88.5
2864.035	83.5
2867.434	91.5
2870.83	89.5
2874.223	97.5
2877.613	100.5
2881	102.5
2884.385	105.5
2887.766	109.5
2891.145	107.5
2894.521	114.5
2897.894	114.5
2901.264	109.5
2904.631	108.5
2907.996	108.5
2911.358	103.5
2914.717	100.5
2918.073	96.5
2921.426	101.5
2924.777	103.5
2928.124	105.5
2931.469	100.5
2934.811	98.5
2938.15	96.5
2941.487	89.5
2944.821	90.5
2948.152	86.5
2951.48	79.5
2954.805	77.5
2958.128	75.5
2961.447	66.5
2964.765	66.5
2968.079	57.5
2971.39	47.5
2974.699	54.5
2978.005	59.5
2981.308	51.5
2984.609	48.5
2987.907	50.5
2991.202	48.5
2994.494	43.5
2997.784	35.5
3001.07	43.5
3004.355	40.5
3007.636	38.5
3010.915	41.5
3014.191	38.5
3017.464	38.5
3020.734	35.5
3024.002	31.5
3027.267	31.5
3030.53	30.5
3033.789	34.5
3037.046	31.5
3040.301	33.5
3043.552	36.5
3046.801	36.5
3050.048	36.5
3053.291	31.5
3056.532	33.5
3059.771	47.5
3063.006	40.5
3066.239	45.5
3069.469	50.5
3072.697	51.5
3075.922	43.5
3079.144	48.5
3082.364	47.5
3085.581	51.5
3088.795	54.5
3092.007	53.5
3095.216	59.5
3098.423	57.5
3101.627	57.5
3104.828	51.5
3108.026	62.5
3111.222	62.5
3114.416	62.5
3117.607	61.5
3120.795	67.5
3123.98	74.5
3127.163	74.5
3130.344	69.5
3133.521	76.5
3136.696	76.5
3139.869	74.5
3143.039	78.5
3146.206	80.5
3149.371	88.5
3152.533	80.5
3155.693	81.5
3158.85	80.5
3162.005	81.5
3165.157	81.5
3168.306	82.5
3171.453	79.5
3174.597	88.5
3177.739	90.5
3180.878	87.5
3184.014	88.5
3187.149	84.5
3190.28	82.5
3193.409	85.5
3196.536	84.5
3199.659	87.5
3202.781	92.5
3205.9	87.5
3209.016	89.5
3212.13	85.5
3215.241	85.5
3218.35	86.5
3221.456	88.5
3224.56	86.5
3227.661	85.5
3230.76	84.5
3233.856	82.5
3236.95	78.5
3240.041	81.5
3243.13	76.5
3246.216	74.5
3249.3	79.5
3252.382	84.5
3255.46	77.5
3258.537	77.5
3261.611	75.5
3264.682	74.5
3267.751	73.5
3270.818	76.5
3273.882	78.5
3276.943	76.5
3280.002	73.5
3283.059	79.5
3286.113	71.5
3289.165	74.5
3292.214	69.5
3295.261	62.5
3298.306	70.5
3301.348	63.5
3304.387	65.5
3307.425	69.5
3310.459	62.5
3313.492	60.5
3316.521	58.5
3319.549	59.5
3322.574	59.5
3325.597	59.5
3328.617	54.5
3331.635	53.5
3334.65	58.5
3337.663	57.5
3340.674	57.5
3343.682	57.5
3346.688	48.5
3349.691	57.5
3352.692	54.5
3355.691	56.5
3358.687	58.5
3361.681	56.5
3364.673	57.5
3367.662	50.5
3370.649	49.5
3373.633	48.5
3376.615	51.5
3379.595	45.5
3382.572	47.5
3385.547	49.5
3388.52	50.5
3391.49	45.5
3394.458	50.5
3397.424	39.5
3400.387	36.5
3403.348	43.5
3406.307	43.5
3409.263	43.5
3412.217	40.5
3415.168	43.5
3418.118	35.5
3421.065	37.5
3424.009	34.5
3426.951	39.5
3429.891	37.5
3432.829	41.5
3435.764	40.5
3438.697	39.5
3441.628	35.5
3444.557	30.5
3447.483	27.5
3450.407	28.5
3453.328	25.5
3456.247	28.5
3459.164	32.5
3462.079	24.5
3464.991	24.5
3467.902	22.5
3470.809	17.5
3473.715	20.5
3476.618	19.5
3479.519	20.5
3482.418	18.5
3485.315	23.5
3488.209	13.5
3491.101	17.5
3493.99	13.5
3496.878	8.5
3499.763	11.5
3502.646	11.5
3505.527	13.5
3508.405	11.5
3511.281	3.5
3514.155	6.5
3517.027	5.5
3519.897	0.5
3522.764	5.5
3525.629	3.5
3528.492	6.5
3531.352	1.5
3534.211	-0.5
3537.067	-4.5
3539.921	-1.5
3542.773	-5.5
3545.622	-1.5
3548.469	0.5
3551.315	-5.5
3554.157	-2.5
3556.998	-5.5
3559.837	-5.5
3562.673	-6.5
3565.507	-9.5
3568.339	-10.5
3571.169	-8.5
3573.996	-4.5
3576.822	-8.5
3579.645	-8.5
3582.466	-8.5
3585.285	-11.5
3588.101	-11.5
3590.916	-10.5
3593.728	-17.5
3596.538	-13.5
3599.346	-11.5
3602.152	-12.5
3604.956	-12.5
3607.757	-17.5
3610.556	-12.5
3613.354	-15.5
3616.149	-13.5
3618.942	-13.5
3621.732	-14.5
3624.521	-15.5
3627.307	-18.5
3630.092	-15.5
3632.874	-14.5
3635.654	-22.5
3638.432	-18.5
3641.208	-16.5
3643.982	-13.5
3646.753	-16.5
3649.523	-20.5
3652.29	-17.5
3655.055	-17.5
3657.818	-17.5
3660.579	-20.5
3663.338	-19.5
3666.095	-19.5
3668.849	-15.5
3671.602	-19.5
3674.352	-17.5
3677.101	-21.5
3679.847	-25.5
3682.591	-19.5
3685.333	-18.5
3688.073	-23.5
3690.811	-19.5
3693.547	-20.5
3696.281	-19.5
3699.013	-20.5
3701.742	-20.5
3704.47	-17.5
3707.195	-22.5
3709.919	-20.5
3712.64	-19.5
3715.359	-21.5
3718.076	-19.5
3720.792	-20.5
3723.505	-18.5
3726.216	-23.5
3728.925	-20.5
3731.632	-24.5
3734.336	-20.5
3737.039	-20.5
3739.74	-22.5
3742.439	-23.5
3745.136	-22.5
3747.83	-21.5
3750.523	-25.5
3753.213	-24.5
3755.902	-21.5
3758.589	-20.5
3761.273	-20.5
3763.956	-23.5
3766.636	-23.5
3769.315	-23.5
3771.991	-23.5
3774.665	-23.5
3777.338	-20.5
3780.008	-23.5
3782.677	-24.5
3785.343	-19.5
3788.007	-25.5
3790.67	-23.5
3793.33	-25.5
3795.989	-19.5
3798.645	-23.5
3801.299	-18.5
3803.952	-20.5
3806.602	-22.5
3809.251	-22.5
3811.897	-25.5
3814.542	-27.5
3817.184	-23.5
3819.825	-20.5
3822.463	-22.5
3825.1	-23.5
3827.735	-23.5
3830.367	-20.5
3832.998	-24.5
3835.627	-25.5
3838.253	-23.5
3840.878	-22.5
3843.501	-22.5
3846.122	-21.5
3848.741	-21.5
3851.358	-23.5
3853.973	-24.5
3856.586	-24.5
3859.197	-23.5
3861.806	-19.5
3864.414	-24.5
3867.019	-24.5
3869.622	-20.5
3872.224	-23.5
3874.823	-25.5
3877.421	-24.5
3880.016	-18.5
3882.61	-17.5
3885.202	-17.5
3887.792	-18.5
3890.38	-17.5
3892.966	-20.5
3895.55	-25.5
3898.132	-26.5
3900.713	-24.5
3903.291	-24.5
3905.868	-23.5
3908.442	-23.5
3911.015	-22.5
3913.586	-26.5
3916.155	-26.5
3918.722	-24.5
3921.287	-26.5
3923.85	-24.5
3926.411	-22.5
3928.971	-22.5
3931.528	-20.5
3934.084	-25.5
3936.638	-23.5
3939.19	-23.5
3941.74	-26.5
3944.288	-23.5
3946.834	-22.5
3949.378	-25.5
3951.921	-23.5
3954.462	-23.5
3957	-23.5
3959.537	-20.5
3962.072	-24.5
3964.606	-24.5
3967.137	-22.5
3969.667	-24.5
3972.194	-27.5
3974.72	-22.5
3977.244	-26.5
3979.766	-22.5
3982.286	-20.5
3984.805	-22.5
3987.321	-25.5
3989.836	-21.5
3992.349	-22.5
3994.86	-24.5
3997.369	-24.5
3999.877	-22.5
4002.382	-18.5
4004.886	-20.5
4007.388	-24.5
4009.888	-28.5
4012.386	-26.5
4014.883	-23.5
4017.377	-23.5
4019.87	-21.5
4022.361	-22.5
4024.85	-23.5
4027.338	-21.5
4029.823	-23.5
4032.307	-26.5
4034.789	-25.5
4037.269	-21.5
4039.747	-23.5
4042.224	-23.5
4044.699	-20.5
4047.172	-22.5
4049.643	-22.5
4052.112	-22.5
4054.58	-26.5
4057.046	-25.5
4059.51	-21.5
4061.972	-22.5
4064.432	-23.5
4066.891	-22.5
4069.348	-25.5
4071.803	-25.5
4074.256	-23.5
4076.708	-21.5
4079.158	-20.5
4081.606	-21.5
4084.052	-25.5
4086.497	-26.5
4088.939	-23.5
4091.38	-19.5
4093.819	-23.5
4096.257	-25.5
4098.693	-25.5
4101.127	-18.5
4103.559	-21.5
4105.989	-5.5
4108.418	-7.5
4110.845	-9.5
4113.27	-10.5
4115.694	-15.5
4118.115	-9.5
4120.535	-23.5
4122.954	-26.5
4125.37	-23.5
4127.785	-22.5
4130.198	-24.5
4132.609	-22.5
4135.019	-24.5
4137.427	-25.5
4139.833	-25.5
4142.237	-24.5
