Data from 100CFU3_B_RamanShift_1.txt Node
Date: Mon Feb 13 14:07:24 IST 2017
User: aro
Spectrometer: QEPB0276
Trigger mode: 0
Integration Time (sec): 5.000000E0
Scans to average: 1
Electric dark correction enabled: true
Nonlinearity correction enabled: false
Boxcar width: 0
XAxis mode: Raman Shifts
Number of Pixels in Spectrum: 1044
>>>>>Begin Spectral Data<<<<<
160.701	-5.5
166.742	1.5
172.777	19.5
178.805	74.5
184.826	195.5
190.841	381.5
196.849	590.5
202.85	716.5
208.845	772.5
214.833	757.5
220.815	736.5
226.789	733.5
232.758	726.5
238.719	717.5
244.674	715.5
250.623	679.5
256.565	667.5
262.5	653.5
268.429	642.5
274.351	630.5
280.267	612.5
286.176	616.5
292.079	606.5
297.975	591.5
303.865	594.5
309.748	594.5
315.625	600.5
321.495	594.5
327.359	581.5
333.217	588.5
339.068	594.5
344.912	600.5
350.751	601.5
356.583	623.5
362.408	607.5
368.227	599.5
374.04	589.5
379.847	585.5
385.647	602.5
391.44	592.5
397.228	606.5
403.009	613.5
408.784	608.5
414.553	607.5
420.315	614.5
426.071	616.5
431.821	628.5
437.565	619.5
443.302	621.5
449.033	615.5
454.758	604.5
460.477	612.5
466.189	589.5
471.896	583.5
477.596	578.5
483.29	565.5
488.978	566.5
494.66	575.5
500.335	539.5
506.005	529.5
511.668	507.5
517.325	491.5
522.977	477.5
528.622	460.5
534.261	454.5
539.894	448.5
545.521	431.5
551.141	417.5
556.756	416.5
562.365	420.5
567.968	408.5
573.565	402.5
579.155	413.5
584.74	396.5
590.319	403.5
595.892	398.5
601.459	401.5
607.02	402.5
612.575	395.5
618.124	376.5
623.667	388.5
629.204	377.5
634.735	373.5
640.261	369.5
645.781	366.5
651.294	366.5
656.802	371.5
662.304	352.5
667.8	353.5
673.29	354.5
678.775	360.5
684.254	354.5
689.726	347.5
695.193	338.5
700.655	347.5
706.11	346.5
711.56	338.5
717.004	342.5
722.442	342.5
727.874	337.5
733.301	346.5
738.722	325.5
744.137	335.5
749.547	323.5
754.951	328.5
760.349	326.5
765.741	333.5
771.128	336.5
776.509	342.5
781.885	339.5
787.254	336.5
792.618	332.5
797.977	340.5
803.33	331.5
808.677	337.5
814.019	332.5
819.355	328.5
824.686	335.5
830.011	343.5
835.33	339.5
840.644	346.5
845.952	336.5
851.255	342.5
856.552	338.5
861.844	349.5
867.13	350.5
872.41	360.5
877.686	349.5
882.955	351.5
888.219	343.5
893.478	334.5
898.731	330.5
903.979	318.5
909.221	305.5
914.458	308.5
919.69	302.5
924.916	311.5
930.136	307.5
935.351	307.5
940.561	298.5
945.766	292.5
950.965	305.5
956.158	307.5
961.347	299.5
966.529	291.5
971.707	285.5
976.879	276.5
982.046	273.5
987.208	268.5
992.364	280.5
997.515	279.5
1002.66	290.5
1007.801	293.5
1012.936	296.5
1018.066	300.5
1023.19	299.5
1028.309	306.5
1033.423	301.5
1038.532	307.5
1043.636	301.5
1048.734	306.5
1053.827	312.5
1058.915	315.5
1063.998	319.5
1069.075	332.5
1074.147	328.5
1079.214	327.5
1084.276	334.5
1089.333	344.5
1094.385	330.5
1099.431	337.5
1104.472	320.5
1109.509	323.5
1114.54	307.5
1119.565	297.5
1124.586	302.5
1129.602	306.5
1134.613	297.5
1139.618	277.5
1144.619	265.5
1149.614	260.5
1154.604	266.5
1159.589	260.5
1164.57	256.5
1169.545	253.5
1174.515	248.5
1179.48	247.5
1184.44	242.5
1189.395	237.5
1194.345	234.5
1199.29	230.5
1204.23	235.5
1209.165	234.5
1214.095	237.5
1219.021	236.5
1223.941	233.5
1228.856	238.5
1233.766	241.5
1238.672	254.5
1243.572	252.5
1248.467	267.5
1253.358	270.5
1258.244	254.5
1263.124	264.5
1268	265.5
1272.871	257.5
1277.737	248.5
1282.599	251.5
1287.455	254.5
1292.306	254.5
1297.153	265.5
1301.995	287.5
1306.832	289.5
1311.664	275.5
1316.491	279.5
1321.314	260.5
1326.132	243.5
1330.945	242.5
1335.753	235.5
1340.556	232.5
1345.354	228.5
1350.148	225.5
1354.937	215.5
1359.722	212.5
1364.501	206.5
1369.276	220.5
1374.046	215.5
1378.811	215.5
1383.572	216.5
1388.327	208.5
1393.079	207.5
1397.825	198.5
1402.567	195.5
1407.304	185.5
1412.036	193.5
1416.764	196.5
1421.487	205.5
1426.205	211.5
1430.919	227.5
1435.628	231.5
1440.333	266.5
1445.032	282.5
1449.727	288.5
1454.418	278.5
1459.104	272.5
1463.785	266.5
1468.462	250.5
1473.134	232.5
1477.802	208.5
1482.465	185.5
1487.123	173.5
1491.777	164.5
1496.426	165.5
1501.071	156.5
1505.711	157.5
1510.347	156.5
1514.978	162.5
1519.604	157.5
1524.226	162.5
1528.844	153.5
1533.457	158.5
1538.065	151.5
1542.669	148.5
1547.269	150.5
1551.864	148.5
1556.454	156.5
1561.041	157.5
1565.622	155.5
1570.199	148.5
1574.772	146.5
1579.34	154.5
1583.904	156.5
1588.464	155.5
1593.019	152.5
1597.569	162.5
1602.115	166.5
1606.657	158.5
1611.195	164.5
1615.728	160.5
1620.256	157.5
1624.78	161.5
1629.3	168.5
1633.816	164.5
1638.327	171.5
1642.834	180.5
1647.336	182.5
1651.834	188.5
1656.328	189.5
1660.817	193.5
1665.302	185.5
1669.783	188.5
1674.259	178.5
1678.732	170.5
1683.199	157.5
1687.663	150.5
1692.122	147.5
1696.577	138.5
1701.028	128.5
1705.474	128.5
1709.917	129.5
1714.355	125.5
1718.788	124.5
1723.218	119.5
1727.643	115.5
1732.064	112.5
1736.481	110.5
1740.893	109.5
1745.301	108.5
1749.705	104.5
1754.105	100.5
1758.501	98.5
1762.893	96.5
1767.28	93.5
1771.663	84.5
1776.042	90.5
1780.417	84.5
1784.787	88.5
1789.154	83.5
1793.516	81.5
1797.874	81.5
1802.228	84.5
1806.578	87.5
1810.924	86.5
1815.266	82.5
1819.603	78.5
1823.937	72.5
1828.266	79.5
1832.591	73.5
1836.913	74.5
1841.23	72.5
1845.543	76.5
1849.852	72.5
1854.156	78.5
1858.457	72.5
1862.754	71.5
1867.047	66.5
1871.335	62.5
1875.62	75.5
1879.9	72.5
1884.177	69.5
1888.449	78.5
1892.718	72.5
1896.982	66.5
1901.243	64.5
1905.499	64.5
1909.752	67.5
1914	70.5
1918.245	70.5
1922.485	70.5
1926.722	72.5
1930.954	69.5
1935.183	68.5
1939.408	71.5
1943.628	66.5
1947.845	69.5
1952.058	71.5
1956.267	69.5
1960.472	68.5
1964.673	72.5
1968.87	60.5
1973.063	65.5
1977.252	60.5
1981.438	60.5
1985.619	59.5
1989.797	59.5
1993.971	56.5
1998.14	59.5
2002.306	57.5
2006.469	63.5
2010.627	60.5
2014.781	62.5
2018.932	57.5
2023.078	55.5
2027.221	54.5
2031.36	57.5
2035.495	57.5
2039.627	55.5
2043.754	60.5
2047.878	54.5
2051.998	57.5
2056.114	51.5
2060.226	52.5
2064.334	56.5
2068.439	59.5
2072.54	59.5
2076.637	62.5
2080.73	59.5
2084.82	58.5
2088.906	61.5
2092.988	53.5
2097.066	58.5
2101.14	55.5
2105.211	61.5
2109.278	57.5
2113.342	60.5
2117.401	59.5
2121.457	58.5
2125.509	49.5
2129.558	52.5
2133.602	50.5
2137.643	52.5
2141.681	59.5
2145.714	50.5
2149.744	59.5
2153.77	51.5
2157.793	50.5
2161.812	46.5
2165.827	46.5
2169.838	48.5
2173.846	46.5
2177.851	47.5
2181.851	49.5
2185.848	46.5
2189.841	44.5
2193.831	39.5
2197.817	41.5
2201.799	43.5
2205.778	37.5
2209.753	46.5
2213.725	42.5
2217.693	44.5
2221.657	43.5
2225.618	45.5
2229.575	43.5
2233.529	39.5
2237.479	41.5
2241.425	33.5
2245.368	35.5
2249.307	37.5
2253.243	35.5
2257.175	32.5
2261.104	37.5
2265.029	34.5
2268.95	29.5
2272.868	27.5
2276.783	26.5
2280.694	31.5
2284.601	33.5
2288.505	29.5
2292.405	33.5
2296.302	27.5
2300.195	28.5
2304.085	25.5
2307.971	28.5
2311.854	24.5
2315.734	26.5
2319.609	30.5
2323.482	25.5
2327.351	20.5
2331.216	29.5
2335.078	24.5
2338.937	22.5
2342.792	23.5
2346.643	20.5
2350.492	23.5
2354.336	21.5
2358.178	23.5
2362.015	21.5
2365.85	19.5
2369.681	17.5
2373.508	16.5
2377.333	16.5
2381.153	20.5
2384.971	20.5
2388.785	18.5
2392.595	19.5
2396.402	19.5
2400.206	22.5
2404.007	20.5
2407.804	12.5
2411.597	15.5
2415.388	16.5
2419.174	19.5
2422.958	19.5
2426.738	20.5
2430.515	17.5
2434.289	19.5
2438.059	12.5
2441.825	13.5
2445.589	14.5
2449.349	15.5
2453.106	15.5
2456.859	17.5
2460.61	16.5
2464.356	12.5
2468.1	13.5
2471.84	7.5
2475.577	8.5
2479.311	10.5
2483.041	11.5
2486.768	11.5
2490.492	9.5
2494.213	15.5
2497.93	15.5
2501.644	9.5
2505.355	12.5
2509.062	13.5
2512.766	11.5
2516.467	15.5
2520.165	13.5
2523.859	11.5
2527.551	13.5
2531.239	10.5
2534.923	7.5
2538.605	9.5
2542.283	12.5
2545.958	8.5
2549.63	12.5
2553.299	14.5
2556.964	12.5
2560.626	13.5
2564.285	10.5
2567.941	8.5
2571.594	3.5
2575.243	10.5
2578.89	11.5
2582.533	12.5
2586.173	12.5
2589.809	15.5
2593.443	13.5
2597.073	13.5
2600.701	7.5
2604.325	7.5
2607.946	6.5
2611.564	4.5
2615.178	11.5
2618.79	9.5
2622.398	13.5
2626.004	12.5
2629.606	11.5
2633.205	4.5
2636.801	8.5
2640.394	6.5
2643.983	15.5
2647.57	10.5
2651.153	8.5
2654.734	13.5
2658.311	6.5
2661.885	12.5
2665.456	6.5
2669.025	4.5
2672.589	7.5
2676.151	10.5
2679.71	9.5
2683.266	14.5
2686.819	13.5
2690.368	10.5
2693.915	6.5
2697.458	6.5
2700.999	7.5
2704.536	7.5
2708.071	7.5
2711.602	9.5
2715.13	13.5
2718.656	17.5
2722.178	12.5
2725.697	15.5
2729.214	13.5
2732.727	12.5
2736.237	13.5
2739.744	17.5
2743.249	9.5
2746.75	10.5
2750.248	16.5
2753.743	13.5
2757.236	8.5
2760.725	12.5
2764.211	4.5
2767.695	7.5
2771.175	4.5
2774.652	12.5
2778.127	13.5
2781.598	12.5
2785.067	9.5
2788.532	13.5
2791.995	9.5
2795.455	7.5
2798.911	9.5
2802.365	9.5
2805.816	13.5
2809.264	15.5
2812.709	21.5
2816.151	14.5
2819.59	16.5
2823.026	21.5
2826.46	20.5
2829.89	23.5
2833.318	35.5
2836.742	32.5
2840.164	40.5
2843.583	49.5
2846.999	60.5
2850.412	71.5
2853.822	79.5
2857.229	89.5
2860.634	83.5
2864.035	79.5
2867.434	86.5
2870.83	88.5
2874.223	91.5
2877.613	103.5
2881	107.5
2884.385	111.5
2887.766	114.5
2891.145	106.5
2894.521	109.5
2897.894	108.5
2901.264	110.5
2904.631	111.5
2907.996	113.5
2911.358	107.5
2914.717	104.5
2918.073	99.5
2921.426	98.5
2924.777	100.5
2928.124	94.5
2931.469	98.5
2934.811	98.5
2938.15	96.5
2941.487	91.5
2944.821	88.5
2948.152	82.5
2951.48	74.5
2954.805	66.5
2958.128	69.5
2961.447	73.5
2964.765	63.5
2968.079	59.5
2971.39	62.5
2974.699	58.5
2978.005	52.5
2981.308	48.5
2984.609	45.5
2987.907	44.5
2991.202	44.5
2994.494	37.5
2997.784	43.5
3001.07	44.5
3004.355	44.5
3007.636	37.5
3010.915	40.5
3014.191	37.5
3017.464	36.5
3020.734	33.5
3024.002	29.5
3027.267	38.5
3030.53	39.5
3033.789	38.5
3037.046	33.5
3040.301	34.5
3043.552	36.5
3046.801	33.5
3050.048	34.5
3053.291	38.5
3056.532	41.5
3059.771	41.5
3063.006	40.5
3066.239	47.5
3069.469	47.5
3072.697	49.5
3075.922	50.5
3079.144	50.5
3082.364	47.5
3085.581	52.5
3088.795	52.5
3092.007	58.5
3095.216	58.5
3098.423	62.5
3101.627	55.5
3104.828	56.5
3108.026	65.5
3111.222	59.5
3114.416	60.5
3117.607	68.5
3120.795	73.5
3123.98	72.5
3127.163	70.5
3130.344	68.5
3133.521	73.5
3136.696	79.5
3139.869	77.5
3143.039	74.5
3146.206	82.5
3149.371	83.5
3152.533	90.5
3155.693	82.5
3158.85	89.5
3162.005	81.5
3165.157	87.5
3168.306	81.5
3171.453	82.5
3174.597	86.5
3177.739	84.5
3180.878	86.5
3184.014	88.5
3187.149	90.5
3190.28	83.5
3193.409	90.5
3196.536	90.5
3199.659	85.5
3202.781	87.5
3205.9	89.5
3209.016	92.5
3212.13	85.5
3215.241	94.5
3218.35	86.5
3221.456	86.5
3224.56	86.5
3227.661	80.5
3230.76	80.5
3233.856	83.5
3236.95	86.5
3240.041	84.5
3243.13	81.5
3246.216	79.5
3249.3	78.5
3252.382	73.5
3255.46	76.5
3258.537	79.5
3261.611	78.5
3264.682	77.5
3267.751	79.5
3270.818	75.5
3273.882	78.5
3276.943	75.5
3280.002	77.5
3283.059	71.5
3286.113	68.5
3289.165	77.5
3292.214	77.5
3295.261	74.5
3298.306	76.5
3301.348	68.5
3304.387	65.5
3307.425	64.5
3310.459	61.5
3313.492	62.5
3316.521	61.5
3319.549	61.5
3322.574	62.5
3325.597	61.5
3328.617	58.5
3331.635	59.5
3334.65	53.5
3337.663	60.5
3340.674	60.5
3343.682	55.5
3346.688	58.5
3349.691	59.5
3352.692	58.5
3355.691	62.5
3358.687	57.5
3361.681	52.5
3364.673	46.5
3367.662	51.5
3370.649	57.5
3373.633	55.5
3376.615	53.5
3379.595	50.5
3382.572	51.5
3385.547	44.5
3388.52	43.5
3391.49	43.5
3394.458	42.5
3397.424	46.5
3400.387	42.5
3403.348	41.5
3406.307	47.5
3409.263	48.5
3412.217	44.5
3415.168	39.5
3418.118	38.5
3421.065	41.5
3424.009	41.5
3426.951	44.5
3429.891	40.5
3432.829	39.5
3435.764	37.5
3438.697	38.5
3441.628	33.5
3444.557	33.5
3447.483	29.5
3450.407	31.5
3453.328	29.5
3456.247	33.5
3459.164	29.5
3462.079	27.5
3464.991	26.5
3467.902	23.5
3470.809	22.5
3473.715	22.5
3476.618	22.5
3479.519	24.5
3482.418	18.5
3485.315	24.5
3488.209	20.5
3491.101	15.5
3493.99	15.5
3496.878	14.5
3499.763	12.5
3502.646	16.5
3505.527	13.5
3508.405	13.5
3511.281	10.5
3514.155	14.5
3517.027	7.5
3519.897	4.5
3522.764	3.5
3525.629	4.5
3528.492	8.5
3531.352	9.5
3534.211	6.5
3537.067	3.5
3539.921	3.5
3542.773	2.5
3545.622	-2.5
3548.469	-1.5
3551.315	-5.5
3554.157	-1.5
3556.998	-3.5
3559.837	0.5
3562.673	-2.5
3565.507	-5.5
3568.339	-4.5
3571.169	-3.5
3573.996	-8.5
3576.822	-7.5
3579.645	-4.5
3582.466	-6.5
3585.285	-4.5
3588.101	-7.5
3590.916	-5.5
3593.728	-10.5
3596.538	-7.5
3599.346	-8.5
3602.152	-9.5
3604.956	-7.5
3607.757	-9.5
3610.556	-3.5
3613.354	-6.5
3616.149	-10.5
3618.942	-15.5
3621.732	-13.5
3624.521	-13.5
3627.307	-9.5
3630.092	-12.5
3632.874	-10.5
3635.654	-13.5
3638.432	-13.5
3641.208	-13.5
3643.982	-13.5
3646.753	-16.5
3649.523	-16.5
3652.29	-13.5
3655.055	-11.5
3657.818	-13.5
3660.579	-12.5
3663.338	-13.5
3666.095	-16.5
3668.849	-21.5
3671.602	-18.5
3674.352	-16.5
3677.101	-15.5
3679.847	-13.5
3682.591	-15.5
3685.333	-16.5
3688.073	-17.5
3690.811	-15.5
3693.547	-14.5
3696.281	-17.5
3699.013	-14.5
3701.742	-11.5
3704.47	-17.5
3707.195	-16.5
3709.919	-15.5
3712.64	-17.5
3715.359	-15.5
3718.076	-21.5
3720.792	-16.5
3723.505	-19.5
3726.216	-18.5
3728.925	-17.5
3731.632	-16.5
3734.336	-19.5
3737.039	-17.5
3739.74	-19.5
3742.439	-18.5
3745.136	-20.5
3747.83	-19.5
3750.523	-16.5
3753.213	-14.5
3755.902	-15.5
3758.589	-18.5
3761.273	-16.5
3763.956	-23.5
3766.636	-21.5
3769.315	-17.5
3771.991	-18.5
3774.665	-17.5
3777.338	-17.5
3780.008	-17.5
3782.677	-16.5
3785.343	-14.5
3788.007	-20.5
3790.67	-20.5
3793.33	-19.5
3795.989	-21.5
3798.645	-19.5
3801.299	-21.5
3803.952	-22.5
3806.602	-17.5
3809.251	-19.5
3811.897	-21.5
3814.542	-23.5
3817.184	-17.5
3819.825	-17.5
3822.463	-15.5
3825.1	-19.5
3827.735	-19.5
3830.367	-23.5
3832.998	-16.5
3835.627	-22.5
3838.253	-19.5
3840.878	-22.5
3843.501	-18.5
3846.122	-18.5
3848.741	-19.5
3851.358	-16.5
3853.973	-18.5
3856.586	-19.5
3859.197	-22.5
3861.806	-22.5
3864.414	-18.5
3867.019	-19.5
3869.622	-16.5
3872.224	-17.5
3874.823	-19.5
3877.421	-15.5
3880.016	-18.5
3882.61	-12.5
3885.202	-10.5
3887.792	-15.5
3890.38	-13.5
3892.966	-15.5
3895.55	-16.5
3898.132	-20.5
3900.713	-17.5
3903.291	-23.5
3905.868	-22.5
3908.442	-23.5
3911.015	-19.5
3913.586	-18.5
3916.155	-17.5
3918.722	-17.5
3921.287	-19.5
3923.85	-17.5
3926.411	-18.5
3928.971	-22.5
3931.528	-20.5
3934.084	-20.5
3936.638	-16.5
3939.19	-19.5
3941.74	-13.5
3944.288	-16.5
3946.834	-20.5
3949.378	-20.5
3951.921	-23.5
3954.462	-20.5
3957	-21.5
3959.537	-17.5
3962.072	-16.5
3964.606	-16.5
3967.137	-17.5
3969.667	-22.5
3972.194	-21.5
3974.72	-25.5
3977.244	-23.5
3979.766	-23.5
3982.286	-20.5
3984.805	-16.5
3987.321	-15.5
3989.836	-16.5
3992.349	-18.5
3994.86	-19.5
3997.369	-20.5
3999.877	-18.5
4002.382	-17.5
4004.886	-20.5
4007.388	-18.5
4009.888	-17.5
4012.386	-13.5
4014.883	-15.5
4017.377	-15.5
4019.87	-20.5
4022.361	-19.5
4024.85	-17.5
4027.338	-18.5
4029.823	-18.5
4032.307	-15.5
4034.789	-17.5
4037.269	-12.5
4039.747	-15.5
4042.224	-22.5
4044.699	-18.5
4047.172	-17.5
4049.643	-23.5
4052.112	-18.5
4054.58	-18.5
4057.046	-18.5
4059.51	-18.5
4061.972	-18.5
4064.432	-19.5
4066.891	-17.5
4069.348	-20.5
4071.803	-19.5
4074.256	-18.5
4076.708	-16.5
4079.158	-20.5
4081.606	-14.5
4084.052	-16.5
4086.497	-18.5
4088.939	-19.5
4091.38	-18.5
4093.819	-24.5
4096.257	-17.5
4098.693	-21.5
4101.127	-20.5
4103.559	-24.5
4105.989	-8.5
4108.418	-7.5
4110.845	-3.5
4113.27	-3.5
4115.694	-1.5
4118.115	-4.5
4120.535	-15.5
4122.954	-18.5
4125.37	-16.5
4127.785	-20.5
4130.198	-14.5
4132.609	-16.5
4135.019	-23.5
4137.427	-23.5
4139.833	-22.5
4142.237	-20.5
