Data from 10CFU3_B_RamanShift_1.txt Node
Date: Mon Feb 13 14:03:29 IST 2017
User: aro
Spectrometer: QEPB0276
Trigger mode: 0
Integration Time (sec): 5.000000E0
Scans to average: 1
Electric dark correction enabled: true
Nonlinearity correction enabled: false
Boxcar width: 0
XAxis mode: Raman Shifts
Number of Pixels in Spectrum: 1044
>>>>>Begin Spectral Data<<<<<
160.701	-0.25
166.742	1.75
172.777	17.75
178.805	68.75
184.826	180.75
190.841	351.75
196.849	552.75
202.85	701.75
208.845	731.75
214.833	715.75
220.815	697.75
226.789	687.75
232.758	687.75
238.719	673.75
244.674	662.75
250.623	663.75
256.565	637.75
262.5	636.75
268.429	615.75
274.351	612.75
280.267	603.75
286.176	592.75
292.079	590.75
297.975	576.75
303.865	562.75
309.748	575.75
315.625	575.75
321.495	557.75
327.359	565.75
333.217	557.75
339.068	571.75
344.912	569.75
350.751	579.75
356.583	587.75
362.408	580.75
368.227	579.75
374.04	565.75
379.847	555.75
385.647	581.75
391.44	585.75
397.228	581.75
403.009	583.75
408.784	581.75
414.553	587.75
420.315	590.75
426.071	591.75
431.821	606.75
437.565	594.75
443.302	595.75
449.033	597.75
454.758	586.75
460.477	576.75
466.189	571.75
471.896	568.75
477.596	556.75
483.29	556.75
488.978	551.75
494.66	547.75
500.335	532.75
506.005	514.75
511.668	492.75
517.325	466.75
522.977	458.75
528.622	444.75
534.261	431.75
539.894	422.75
545.521	417.75
551.141	409.75
556.756	398.75
562.365	382.75
567.968	387.75
573.565	389.75
579.155	388.75
584.74	385.75
590.319	383.75
595.892	390.75
601.459	384.75
607.02	375.75
612.575	366.75
618.124	372.75
623.667	360.75
629.204	358.75
634.735	352.75
640.261	354.75
645.781	351.75
651.294	343.75
656.802	345.75
662.304	339.75
667.8	339.75
673.29	337.75
678.775	339.75
684.254	333.75
689.726	333.75
695.193	327.75
700.655	323.75
706.11	326.75
711.56	323.75
717.004	324.75
722.442	322.75
727.874	319.75
733.301	320.75
738.722	318.75
744.137	317.75
749.547	316.75
754.951	303.75
760.349	313.75
765.741	316.75
771.128	316.75
776.509	322.75
781.885	329.75
787.254	320.75
792.618	322.75
797.977	319.75
803.33	316.75
808.677	317.75
814.019	316.75
819.355	315.75
824.686	323.75
830.011	325.75
835.33	323.75
840.644	320.75
845.952	313.75
851.255	320.75
856.552	320.75
861.844	335.75
867.13	330.75
872.41	339.75
877.686	327.75
882.955	334.75
888.219	327.75
893.478	313.75
898.731	309.75
903.979	298.75
909.221	297.75
914.458	296.75
919.69	292.75
924.916	292.75
930.136	289.75
935.351	274.75
940.561	282.75
945.766	287.75
950.965	288.75
956.158	282.75
961.347	280.75
966.529	270.75
971.707	263.75
976.879	263.75
982.046	258.75
987.208	252.75
992.364	257.75
997.515	259.75
1002.66	270.75
1007.801	278.75
1012.936	279.75
1018.066	282.75
1023.19	286.75
1028.309	287.75
1033.423	289.75
1038.532	285.75
1043.636	289.75
1048.734	294.75
1053.827	288.75
1058.915	289.75
1063.998	300.75
1069.075	314.75
1074.147	303.75
1079.214	310.75
1084.276	317.75
1089.333	324.75
1094.385	310.75
1099.431	314.75
1104.472	307.75
1109.509	299.75
1114.54	280.75
1119.565	283.75
1124.586	281.75
1129.602	288.75
1134.613	291.75
1139.618	258.75
1144.619	255.75
1149.614	250.75
1154.604	249.75
1159.589	241.75
1164.57	245.75
1169.545	235.75
1174.515	239.75
1179.48	237.75
1184.44	227.75
1189.395	219.75
1194.345	216.75
1199.29	221.75
1204.23	219.75
1209.165	214.75
1214.095	221.75
1219.021	223.75
1223.941	221.75
1228.856	234.75
1233.766	236.75
1238.672	235.75
1243.572	240.75
1248.467	239.75
1253.358	242.75
1258.244	248.75
1263.124	254.75
1268	250.75
1272.871	248.75
1277.737	249.75
1282.599	233.75
1287.455	234.75
1292.306	237.75
1297.153	253.75
1301.995	266.75
1306.832	268.75
1311.664	267.75
1316.491	257.75
1321.314	245.75
1326.132	238.75
1330.945	232.75
1335.753	221.75
1340.556	213.75
1345.354	210.75
1350.148	211.75
1354.937	206.75
1359.722	202.75
1364.501	200.75
1369.276	200.75
1374.046	203.75
1378.811	202.75
1383.572	200.75
1388.327	198.75
1393.079	197.75
1397.825	192.75
1402.567	188.75
1407.304	183.75
1412.036	186.75
1416.764	178.75
1421.487	193.75
1426.205	189.75
1430.919	203.75
1435.628	220.75
1440.333	235.75
1445.032	259.75
1449.727	271.75
1454.418	258.75
1459.104	250.75
1463.785	244.75
1468.462	231.75
1473.134	222.75
1477.802	205.75
1482.465	183.75
1487.123	161.75
1491.777	154.75
1496.426	150.75
1501.071	147.75
1505.711	151.75
1510.347	144.75
1514.978	152.75
1519.604	152.75
1524.226	153.75
1528.844	144.75
1533.457	146.75
1538.065	140.75
1542.669	145.75
1547.269	132.75
1551.864	141.75
1556.454	150.75
1561.041	150.75
1565.622	151.75
1570.199	139.75
1574.772	139.75
1579.34	144.75
1583.904	146.75
1588.464	148.75
1593.019	149.75
1597.569	148.75
1602.115	148.75
1606.657	151.75
1611.195	152.75
1615.728	147.75
1620.256	154.75
1624.78	149.75
1629.3	157.75
1633.816	160.75
1638.327	159.75
1642.834	169.75
1647.336	171.75
1651.834	177.75
1656.328	175.75
1660.817	180.75
1665.302	173.75
1669.783	176.75
1674.259	173.75
1678.732	159.75
1683.199	152.75
1687.663	139.75
1692.122	137.75
1696.577	132.75
1701.028	126.75
1705.474	111.75
1709.917	118.75
1714.355	113.75
1718.788	115.75
1723.218	109.75
1727.643	103.75
1732.064	104.75
1736.481	105.75
1740.893	100.75
1745.301	100.75
1749.705	96.75
1754.105	93.75
1758.501	89.75
1762.893	91.75
1767.28	87.75
1771.663	79.75
1776.042	78.75
1780.417	82.75
1784.787	79.75
1789.154	78.75
1793.516	78.75
1797.874	82.75
1802.228	80.75
1806.578	77.75
1810.924	82.75
1815.266	74.75
1819.603	73.75
1823.937	66.75
1828.266	66.75
1832.591	71.75
1836.913	74.75
1841.23	67.75
1845.543	67.75
1849.852	68.75
1854.156	74.75
1858.457	64.75
1862.754	67.75
1867.047	68.75
1871.335	68.75
1875.62	67.75
1879.9	65.75
1884.177	67.75
1888.449	70.75
1892.718	67.75
1896.982	58.75
1901.243	62.75
1905.499	63.75
1909.752	63.75
1914	64.75
1918.245	62.75
1922.485	63.75
1926.722	71.75
1930.954	66.75
1935.183	70.75
1939.408	66.75
1943.628	53.75
1947.845	61.75
1952.058	66.75
1956.267	63.75
1960.472	65.75
1964.673	63.75
1968.87	58.75
1973.063	60.75
1977.252	53.75
1981.438	58.75
1985.619	55.75
1989.797	52.75
1993.971	55.75
1998.14	57.75
2002.306	56.75
2006.469	61.75
2010.627	57.75
2014.781	57.75
2018.932	52.75
2023.078	51.75
2027.221	49.75
2031.36	57.75
2035.495	52.75
2039.627	53.75
2043.754	51.75
2047.878	52.75
2051.998	50.75
2056.114	46.75
2060.226	48.75
2064.334	47.75
2068.439	54.75
2072.54	51.75
2076.637	53.75
2080.73	58.75
2084.82	54.75
2088.906	58.75
2092.988	51.75
2097.066	48.75
2101.14	52.75
2105.211	52.75
2109.278	54.75
2113.342	53.75
2117.401	58.75
2121.457	53.75
2125.509	48.75
2129.558	46.75
2133.602	42.75
2137.643	43.75
2141.681	46.75
2145.714	47.75
2149.744	49.75
2153.77	51.75
2157.793	48.75
2161.812	46.75
2165.827	42.75
2169.838	40.75
2173.846	41.75
2177.851	38.75
2181.851	38.75
2185.848	41.75
2189.841	42.75
2193.831	37.75
2197.817	43.75
2201.799	40.75
2205.778	37.75
2209.753	32.75
2213.725	33.75
2217.693	33.75
2221.657	37.75
2225.618	41.75
2229.575	39.75
2233.529	33.75
2237.479	36.75
2241.425	34.75
2245.368	32.75
2249.307	31.75
2253.243	29.75
2257.175	32.75
2261.104	33.75
2265.029	37.75
2268.95	30.75
2272.868	27.75
2276.783	25.75
2280.694	26.75
2284.601	29.75
2288.505	24.75
2292.405	30.75
2296.302	25.75
2300.195	25.75
2304.085	27.75
2307.971	26.75
2311.854	19.75
2315.734	16.75
2319.609	23.75
2323.482	19.75
2327.351	20.75
2331.216	24.75
2335.078	25.75
2338.937	25.75
2342.792	19.75
2346.643	17.75
2350.492	18.75
2354.336	17.75
2358.178	14.75
2362.015	19.75
2365.85	18.75
2369.681	17.75
2373.508	14.75
2377.333	14.75
2381.153	18.75
2384.971	13.75
2388.785	14.75
2392.595	12.75
2396.402	14.75
2400.206	16.75
2404.007	18.75
2407.804	16.75
2411.597	13.75
2415.388	11.75
2419.174	16.75
2422.958	12.75
2426.738	11.75
2430.515	11.75
2434.289	12.75
2438.059	15.75
2441.825	12.75
2445.589	14.75
2449.349	10.75
2453.106	13.75
2456.859	14.75
2460.61	7.75
2464.356	5.75
2468.1	7.75
2471.84	11.75
2475.577	10.75
2479.311	8.75
2483.041	8.75
2486.768	5.75
2490.492	6.75
2494.213	8.75
2497.93	12.75
2501.644	10.75
2505.355	14.75
2509.062	10.75
2512.766	6.75
2516.467	11.75
2520.165	10.75
2523.859	9.75
2527.551	9.75
2531.239	8.75
2534.923	8.75
2538.605	8.75
2542.283	12.75
2545.958	10.75
2549.63	8.75
2553.299	13.75
2556.964	5.75
2560.626	11.75
2564.285	10.75
2567.941	9.75
2571.594	6.75
2575.243	8.75
2578.89	10.75
2582.533	6.75
2586.173	10.75
2589.809	8.75
2593.443	10.75
2597.073	7.75
2600.701	9.75
2604.325	12.75
2607.946	8.75
2611.564	7.75
2615.178	9.75
2618.79	8.75
2622.398	10.75
2626.004	8.75
2629.606	5.75
2633.205	7.75
2636.801	9.75
2640.394	10.75
2643.983	9.75
2647.57	6.75
2651.153	4.75
2654.734	7.75
2658.311	6.75
2661.885	8.75
2665.456	5.75
2669.025	5.75
2672.589	5.75
2676.151	5.75
2679.71	7.75
2683.266	8.75
2686.819	9.75
2690.368	7.75
2693.915	5.75
2697.458	3.75
2700.999	7.75
2704.536	9.75
2708.071	3.75
2711.602	2.75
2715.13	5.75
2718.656	7.75
2722.178	5.75
2725.697	11.75
2729.214	12.75
2732.727	11.75
2736.237	8.75
2739.744	10.75
2743.249	5.75
2746.75	7.75
2750.248	7.75
2753.743	9.75
2757.236	7.75
2760.725	10.75
2764.211	6.75
2767.695	5.75
2771.175	6.75
2774.652	6.75
2778.127	8.75
2781.598	7.75
2785.067	5.75
2788.532	6.75
2791.995	9.75
2795.455	8.75
2798.911	10.75
2802.365	8.75
2805.816	9.75
2809.264	9.75
2812.709	11.75
2816.151	11.75
2819.59	14.75
2823.026	20.75
2826.46	18.75
2829.89	21.75
2833.318	30.75
2836.742	29.75
2840.164	32.75
2843.583	41.75
2846.999	57.75
2850.412	62.75
2853.822	73.75
2857.229	75.75
2860.634	75.75
2864.035	75.75
2867.434	80.75
2870.83	77.75
2874.223	80.75
2877.613	94.75
2881	93.75
2884.385	94.75
2887.766	97.75
2891.145	88.75
2894.521	97.75
2897.894	94.75
2901.264	97.75
2904.631	93.75
2907.996	93.75
2911.358	96.75
2914.717	93.75
2918.073	90.75
2921.426	90.75
2924.777	90.75
2928.124	90.75
2931.469	87.75
2934.811	84.75
2938.15	81.75
2941.487	79.75
2944.821	77.75
2948.152	78.75
2951.48	68.75
2954.805	64.75
2958.128	59.75
2961.447	55.75
2964.765	56.75
2968.079	55.75
2971.39	54.75
2974.699	52.75
2978.005	50.75
2981.308	40.75
2984.609	38.75
2987.907	41.75
2991.202	42.75
2994.494	31.75
2997.784	38.75
3001.07	37.75
3004.355	36.75
3007.636	38.75
3010.915	35.75
3014.191	31.75
3017.464	30.75
3020.734	29.75
3024.002	29.75
3027.267	33.75
3030.53	33.75
3033.789	33.75
3037.046	28.75
3040.301	27.75
3043.552	26.75
3046.801	29.75
3050.048	32.75
3053.291	30.75
3056.532	38.75
3059.771	37.75
3063.006	39.75
3066.239	39.75
3069.469	41.75
3072.697	35.75
3075.922	34.75
3079.144	45.75
3082.364	47.75
3085.581	46.75
3088.795	49.75
3092.007	51.75
3095.216	53.75
3098.423	52.75
3101.627	45.75
3104.828	48.75
3108.026	49.75
3111.222	55.75
3114.416	56.75
3117.607	59.75
3120.795	58.75
3123.98	58.75
3127.163	64.75
3130.344	59.75
3133.521	64.75
3136.696	63.75
3139.869	72.75
3143.039	70.75
3146.206	71.75
3149.371	74.75
3152.533	71.75
3155.693	68.75
3158.85	77.75
3162.005	64.75
3165.157	73.75
3168.306	77.75
3171.453	77.75
3174.597	76.75
3177.739	81.75
3180.878	74.75
3184.014	71.75
3187.149	78.75
3190.28	73.75
3193.409	76.75
3196.536	80.75
3199.659	76.75
3202.781	78.75
3205.9	81.75
3209.016	75.75
3212.13	76.75
3215.241	81.75
3218.35	73.75
3221.456	78.75
3224.56	73.75
3227.661	71.75
3230.76	74.75
3233.856	75.75
3236.95	75.75
3240.041	73.75
3243.13	69.75
3246.216	70.75
3249.3	70.75
3252.382	70.75
3255.46	65.75
3258.537	70.75
3261.611	64.75
3264.682	67.75
3267.751	72.75
3270.818	68.75
3273.882	65.75
3276.943	63.75
3280.002	65.75
3283.059	67.75
3286.113	65.75
3289.165	64.75
3292.214	63.75
3295.261	61.75
3298.306	65.75
3301.348	62.75
3304.387	57.75
3307.425	57.75
3310.459	55.75
3313.492	52.75
3316.521	57.75
3319.549	52.75
3322.574	54.75
3325.597	53.75
3328.617	46.75
3331.635	50.75
3334.65	48.75
3337.663	49.75
3340.674	51.75
3343.682	49.75
3346.688	52.75
3349.691	50.75
3352.692	51.75
3355.691	53.75
3358.687	48.75
3361.681	46.75
3364.673	42.75
3367.662	47.75
3370.649	48.75
3373.633	44.75
3376.615	45.75
3379.595	43.75
3382.572	47.75
3385.547	38.75
3388.52	33.75
3391.49	36.75
3394.458	38.75
3397.424	39.75
3400.387	36.75
3403.348	36.75
3406.307	42.75
3409.263	36.75
3412.217	31.75
3415.168	40.75
3418.118	38.75
3421.065	35.75
3424.009	35.75
3426.951	37.75
3429.891	29.75
3432.829	28.75
3435.764	38.75
3438.697	31.75
3441.628	25.75
3444.557	26.75
3447.483	25.75
3450.407	29.75
3453.328	28.75
3456.247	26.75
3459.164	26.75
3462.079	23.75
3464.991	17.75
3467.902	20.75
3470.809	19.75
3473.715	16.75
3476.618	17.75
3479.519	18.75
3482.418	16.75
3485.315	20.75
3488.209	16.75
3491.101	13.75
3493.99	9.75
3496.878	7.75
3499.763	11.75
3502.646	15.75
3505.527	11.75
3508.405	9.75
3511.281	7.75
3514.155	12.75
3517.027	1.75
3519.897	2.75
3522.764	2.75
3525.629	-1.25
3528.492	6.75
3531.352	3.75
3534.211	6.75
3537.067	2.75
3539.921	1.75
3542.773	-0.25
3545.622	1.75
3548.469	-6.25
3551.315	-4.25
3554.157	-8.25
3556.998	-5.25
3559.837	-1.25
3562.673	-0.25
3565.507	-7.25
3568.339	-5.25
3571.169	-5.25
3573.996	-9.25
3576.822	-11.25
3579.645	-9.25
3582.466	-11.25
3585.285	-9.25
3588.101	-8.25
3590.916	-5.25
3593.728	-8.25
3596.538	-8.25
3599.346	-8.25
3602.152	-15.25
3604.956	-12.25
3607.757	-12.25
3610.556	-8.25
3613.354	-8.25
3616.149	-10.25
3618.942	-11.25
3621.732	-10.25
3624.521	-14.25
3627.307	-12.25
3630.092	-16.25
3632.874	-12.25
3635.654	-13.25
3638.432	-9.25
3641.208	-13.25
3643.982	-13.25
3646.753	-13.25
3649.523	-17.25
3652.29	-15.25
3655.055	-16.25
3657.818	-13.25
3660.579	-9.25
3663.338	-13.25
3666.095	-14.25
3668.849	-16.25
3671.602	-17.25
3674.352	-18.25
3677.101	-21.25
3679.847	-18.25
3682.591	-16.25
3685.333	-19.25
3688.073	-14.25
3690.811	-11.25
3693.547	-14.25
3696.281	-16.25
3699.013	-17.25
3701.742	-16.25
3704.47	-18.25
3707.195	-16.25
3709.919	-13.25
3712.64	-15.25
3715.359	-16.25
3718.076	-22.25
3720.792	-15.25
3723.505	-20.25
3726.216	-23.25
3728.925	-23.25
3731.632	-20.25
3734.336	-19.25
3737.039	-15.25
3739.74	-16.25
3742.439	-19.25
3745.136	-20.25
3747.83	-21.25
3750.523	-23.25
3753.213	-17.25
3755.902	-21.25
3758.589	-19.25
3761.273	-19.25
3763.956	-21.25
3766.636	-21.25
3769.315	-20.25
3771.991	-24.25
3774.665	-18.25
3777.338	-23.25
3780.008	-20.25
3782.677	-13.25
3785.343	-14.25
3788.007	-18.25
3790.67	-18.25
3793.33	-20.25
3795.989	-23.25
3798.645	-23.25
3801.299	-20.25
3803.952	-19.25
3806.602	-18.25
3809.251	-17.25
3811.897	-18.25
3814.542	-20.25
3817.184	-20.25
3819.825	-23.25
3822.463	-20.25
3825.1	-25.25
3827.735	-19.25
3830.367	-19.25
3832.998	-17.25
3835.627	-19.25
3838.253	-21.25
3840.878	-23.25
3843.501	-21.25
3846.122	-22.25
3848.741	-20.25
3851.358	-17.25
3853.973	-18.25
3856.586	-17.25
3859.197	-19.25
3861.806	-20.25
3864.414	-21.25
3867.019	-21.25
3869.622	-20.25
3872.224	-21.25
3874.823	-19.25
3877.421	-16.25
3880.016	-15.25
3882.61	-15.25
3885.202	-10.25
3887.792	-17.25
3890.38	-16.25
3892.966	-18.25
3895.55	-21.25
3898.132	-19.25
3900.713	-18.25
3903.291	-19.25
3905.868	-20.25
3908.442	-24.25
3911.015	-23.25
3913.586	-20.25
3916.155	-19.25
3918.722	-16.25
3921.287	-18.25
3923.85	-19.25
3926.411	-16.25
3928.971	-23.25
3931.528	-23.25
3934.084	-21.25
3936.638	-19.25
3939.19	-19.25
3941.74	-18.25
3944.288	-15.25
3946.834	-18.25
3949.378	-20.25
3951.921	-21.25
3954.462	-19.25
3957	-22.25
3959.537	-23.25
3962.072	-17.25
3964.606	-17.25
3967.137	-21.25
3969.667	-16.25
3972.194	-20.25
3974.72	-22.25
3977.244	-24.25
3979.766	-23.25
3982.286	-23.25
3984.805	-18.25
3987.321	-18.25
3989.836	-15.25
3992.349	-19.25
3994.86	-18.25
3997.369	-21.25
3999.877	-19.25
4002.382	-20.25
4004.886	-23.25
4007.388	-21.25
4009.888	-19.25
4012.386	-14.25
4014.883	-19.25
4017.377	-18.25
4019.87	-24.25
4022.361	-20.25
4024.85	-20.25
4027.338	-15.25
4029.823	-17.25
4032.307	-18.25
4034.789	-17.25
4037.269	-15.25
4039.747	-16.25
4042.224	-23.25
4044.699	-21.25
4047.172	-21.25
4049.643	-21.25
4052.112	-15.25
4054.58	-19.25
4057.046	-20.25
4059.51	-18.25
4061.972	-17.25
4064.432	-19.25
4066.891	-24.25
4069.348	-19.25
4071.803	-21.25
4074.256	-15.25
4076.708	-16.25
4079.158	-16.25
4081.606	-18.25
4084.052	-16.25
4086.497	-22.25
4088.939	-21.25
4091.38	-20.25
4093.819	-21.25
4096.257	-19.25
4098.693	-18.25
4101.127	-17.25
4103.559	-21.25
4105.989	-8.25
4108.418	-11.25
4110.845	-7.25
4113.27	-5.25
4115.694	-3.25
4118.115	-3.25
4120.535	-17.25
4122.954	-14.25
4125.37	-19.25
4127.785	-20.25
4130.198	-20.25
4132.609	-20.25
4135.019	-24.25
4137.427	-24.25
4139.833	-20.25
4142.237	-19.25
