Data from 10CFU1_A_RamanShift_1.txt Node
Date: Mon Feb 13 13:23:09 IST 2017
User: aro
Spectrometer: QEPB0276
Trigger mode: 0
Integration Time (sec): 5.000000E0
Scans to average: 1
Electric dark correction enabled: true
Nonlinearity correction enabled: false
Boxcar width: 0
XAxis mode: Raman Shifts
Number of Pixels in Spectrum: 1044
>>>>>Begin Spectral Data<<<<<
160.701	-9.38
166.742	2.62
172.777	21.62
178.805	70.62
184.826	170.62
190.841	341.62
196.849	544.62
202.85	674.62
208.845	717.62
214.833	714.62
220.815	689.62
226.789	689.62
232.758	680.62
238.719	663.62
244.674	658.62
250.623	645.62
256.565	628.62
262.5	621.62
268.429	605.62
274.351	599.62
280.267	600.62
286.176	584.62
292.079	571.62
297.975	572.62
303.865	570.62
309.748	565.62
315.625	559.62
321.495	570.62
327.359	547.62
333.217	567.62
339.068	563.62
344.912	555.62
350.751	580.62
356.583	585.62
362.408	577.62
368.227	582.62
374.04	574.62
379.847	566.62
385.647	558.62
391.44	560.62
397.228	584.62
403.009	579.62
408.784	583.62
414.553	577.62
420.315	583.62
426.071	577.62
431.821	587.62
437.565	601.62
443.302	600.62
449.033	594.62
454.758	587.62
460.477	569.62
466.189	568.62
471.896	557.62
477.596	562.62
483.29	546.62
488.978	546.62
494.66	539.62
500.335	520.62
506.005	508.62
511.668	486.62
517.325	469.62
522.977	451.62
528.622	440.62
534.261	423.62
539.894	416.62
545.521	415.62
551.141	412.62
556.756	398.62
562.365	387.62
567.968	387.62
573.565	383.62
579.155	384.62
584.74	386.62
590.319	382.62
595.892	378.62
601.459	379.62
607.02	376.62
612.575	369.62
618.124	365.62
623.667	371.62
629.204	360.62
634.735	355.62
640.261	355.62
645.781	338.62
651.294	339.62
656.802	349.62
662.304	344.62
667.8	339.62
673.29	335.62
678.775	332.62
684.254	329.62
689.726	321.62
695.193	317.62
700.655	323.62
706.11	325.62
711.56	332.62
717.004	329.62
722.442	322.62
727.874	320.62
733.301	311.62
738.722	311.62
744.137	309.62
749.547	317.62
754.951	309.62
760.349	314.62
765.741	311.62
771.128	315.62
776.509	309.62
781.885	325.62
787.254	316.62
792.618	329.62
797.977	322.62
803.33	320.62
808.677	317.62
814.019	310.62
819.355	315.62
824.686	304.62
830.011	312.62
835.33	319.62
840.644	324.62
845.952	328.62
851.255	325.62
856.552	320.62
861.844	326.62
867.13	325.62
872.41	324.62
877.686	328.62
882.955	324.62
888.219	329.62
893.478	313.62
898.731	310.62
903.979	298.62
909.221	281.62
914.458	291.62
919.69	287.62
924.916	293.62
930.136	297.62
935.351	282.62
940.561	290.62
945.766	275.62
950.965	281.62
956.158	282.62
961.347	281.62
966.529	267.62
971.707	265.62
976.879	258.62
982.046	263.62
987.208	256.62
992.364	258.62
997.515	265.62
1002.66	267.62
1007.801	275.62
1012.936	283.62
1018.066	276.62
1023.19	282.62
1028.309	280.62
1033.423	285.62
1038.532	287.62
1043.636	284.62
1048.734	289.62
1053.827	287.62
1058.915	291.62
1063.998	299.62
1069.075	304.62
1074.147	300.62
1079.214	311.62
1084.276	316.62
1089.333	328.62
1094.385	310.62
1099.431	305.62
1104.472	299.62
1109.509	286.62
1114.54	285.62
1119.565	281.62
1124.586	286.62
1129.602	287.62
1134.613	275.62
1139.618	263.62
1144.619	249.62
1149.614	242.62
1154.604	249.62
1159.589	246.62
1164.57	235.62
1169.545	240.62
1174.515	241.62
1179.48	241.62
1184.44	226.62
1189.395	219.62
1194.345	212.62
1199.29	212.62
1204.23	219.62
1209.165	227.62
1214.095	216.62
1219.021	217.62
1223.941	227.62
1228.856	229.62
1233.766	231.62
1238.672	235.62
1243.572	246.62
1248.467	239.62
1253.358	244.62
1258.244	251.62
1263.124	251.62
1268	249.62
1272.871	243.62
1277.737	239.62
1282.599	236.62
1287.455	235.62
1292.306	234.62
1297.153	255.62
1301.995	262.62
1306.832	267.62
1311.664	259.62
1316.491	259.62
1321.314	243.62
1326.132	239.62
1330.945	227.62
1335.753	219.62
1340.556	222.62
1345.354	211.62
1350.148	212.62
1354.937	208.62
1359.722	203.62
1364.501	206.62
1369.276	204.62
1374.046	202.62
1378.811	201.62
1383.572	200.62
1388.327	197.62
1393.079	193.62
1397.825	187.62
1402.567	182.62
1407.304	188.62
1412.036	186.62
1416.764	191.62
1421.487	193.62
1426.205	194.62
1430.919	204.62
1435.628	216.62
1440.333	235.62
1445.032	256.62
1449.727	268.62
1454.418	275.62
1459.104	263.62
1463.785	254.62
1468.462	235.62
1473.134	213.62
1477.802	198.62
1482.465	173.62
1487.123	162.62
1491.777	165.62
1496.426	155.62
1501.071	158.62
1505.711	152.62
1510.347	148.62
1514.978	141.62
1519.604	147.62
1524.226	149.62
1528.844	150.62
1533.457	148.62
1538.065	148.62
1542.669	145.62
1547.269	140.62
1551.864	140.62
1556.454	142.62
1561.041	148.62
1565.622	140.62
1570.199	143.62
1574.772	140.62
1579.34	146.62
1583.904	145.62
1588.464	151.62
1593.019	147.62
1597.569	147.62
1602.115	149.62
1606.657	148.62
1611.195	155.62
1615.728	148.62
1620.256	154.62
1624.78	150.62
1629.3	161.62
1633.816	150.62
1638.327	160.62
1642.834	164.62
1647.336	169.62
1651.834	173.62
1656.328	186.62
1660.817	182.62
1665.302	176.62
1669.783	171.62
1674.259	165.62
1678.732	156.62
1683.199	149.62
1687.663	143.62
1692.122	140.62
1696.577	134.62
1701.028	124.62
1705.474	120.62
1709.917	119.62
1714.355	116.62
1718.788	112.62
1723.218	113.62
1727.643	110.62
1732.064	111.62
1736.481	111.62
1740.893	104.62
1745.301	99.62
1749.705	100.62
1754.105	96.62
1758.501	90.62
1762.893	91.62
1767.28	89.62
1771.663	86.62
1776.042	80.62
1780.417	84.62
1784.787	77.62
1789.154	77.62
1793.516	87.62
1797.874	84.62
1802.228	86.62
1806.578	83.62
1810.924	82.62
1815.266	67.62
1819.603	74.62
1823.937	77.62
1828.266	70.62
1832.591	74.62
1836.913	73.62
1841.23	71.62
1845.543	70.62
1849.852	69.62
1854.156	66.62
1858.457	67.62
1862.754	69.62
1867.047	70.62
1871.335	69.62
1875.62	70.62
1879.9	70.62
1884.177	68.62
1888.449	64.62
1892.718	66.62
1896.982	67.62
1901.243	68.62
1905.499	66.62
1909.752	68.62
1914	67.62
1918.245	64.62
1922.485	64.62
1926.722	60.62
1930.954	64.62
1935.183	69.62
1939.408	71.62
1943.628	69.62
1947.845	70.62
1952.058	69.62
1956.267	63.62
1960.472	60.62
1964.673	64.62
1968.87	61.62
1973.063	66.62
1977.252	61.62
1981.438	63.62
1985.619	57.62
1989.797	58.62
1993.971	54.62
1998.14	56.62
2002.306	55.62
2006.469	56.62
2010.627	59.62
2014.781	61.62
2018.932	56.62
2023.078	53.62
2027.221	52.62
2031.36	55.62
2035.495	51.62
2039.627	54.62
2043.754	55.62
2047.878	51.62
2051.998	54.62
2056.114	49.62
2060.226	53.62
2064.334	50.62
2068.439	55.62
2072.54	56.62
2076.637	56.62
2080.73	51.62
2084.82	58.62
2088.906	55.62
2092.988	52.62
2097.066	53.62
2101.14	54.62
2105.211	56.62
2109.278	55.62
2113.342	56.62
2117.401	54.62
2121.457	48.62
2125.509	48.62
2129.558	48.62
2133.602	51.62
2137.643	52.62
2141.681	46.62
2145.714	49.62
2149.744	47.62
2153.77	45.62
2157.793	44.62
2161.812	44.62
2165.827	49.62
2169.838	44.62
2173.846	42.62
2177.851	46.62
2181.851	42.62
2185.848	42.62
2189.841	40.62
2193.831	41.62
2197.817	41.62
2201.799	38.62
2205.778	35.62
2209.753	35.62
2213.725	35.62
2217.693	39.62
2221.657	37.62
2225.618	35.62
2229.575	39.62
2233.529	31.62
2237.479	31.62
2241.425	36.62
2245.368	35.62
2249.307	33.62
2253.243	34.62
2257.175	29.62
2261.104	26.62
2265.029	25.62
2268.95	21.62
2272.868	25.62
2276.783	27.62
2280.694	26.62
2284.601	26.62
2288.505	28.62
2292.405	28.62
2296.302	22.62
2300.195	22.62
2304.085	21.62
2307.971	25.62
2311.854	24.62
2315.734	21.62
2319.609	16.62
2323.482	16.62
2327.351	20.62
2331.216	24.62
2335.078	25.62
2338.937	20.62
2342.792	18.62
2346.643	20.62
2350.492	17.62
2354.336	13.62
2358.178	14.62
2362.015	20.62
2365.85	14.62
2369.681	15.62
2373.508	17.62
2377.333	21.62
2381.153	20.62
2384.971	17.62
2388.785	11.62
2392.595	12.62
2396.402	15.62
2400.206	20.62
2404.007	15.62
2407.804	17.62
2411.597	10.62
2415.388	10.62
2419.174	14.62
2422.958	14.62
2426.738	11.62
2430.515	13.62
2434.289	14.62
2438.059	11.62
2441.825	9.62
2445.589	10.62
2449.349	4.62
2453.106	11.62
2456.859	13.62
2460.61	8.62
2464.356	12.62
2468.1	10.62
2471.84	11.62
2475.577	9.62
2479.311	8.62
2483.041	5.62
2486.768	8.62
2490.492	13.62
2494.213	11.62
2497.93	8.62
2501.644	10.62
2505.355	4.62
2509.062	5.62
2512.766	9.62
2516.467	12.62
2520.165	8.62
2523.859	14.62
2527.551	11.62
2531.239	7.62
2534.923	7.62
2538.605	3.62
2542.283	4.62
2545.958	11.62
2549.63	10.62
2553.299	8.62
2556.964	9.62
2560.626	10.62
2564.285	2.62
2567.941	4.62
2571.594	7.62
2575.243	9.62
2578.89	6.62
2582.533	13.62
2586.173	10.62
2589.809	5.62
2593.443	2.62
2597.073	7.62
2600.701	6.62
2604.325	2.62
2607.946	5.62
2611.564	7.62
2615.178	10.62
2618.79	3.62
2622.398	2.62
2626.004	5.62
2629.606	5.62
2633.205	4.62
2636.801	10.62
2640.394	6.62
2643.983	11.62
2647.57	4.62
2651.153	6.62
2654.734	1.62
2658.311	7.62
2661.885	5.62
2665.456	4.62
2669.025	5.62
2672.589	6.62
2676.151	5.62
2679.71	4.62
2683.266	4.62
2686.819	3.62
2690.368	3.62
2693.915	3.62
2697.458	11.62
2700.999	2.62
2704.536	6.62
2708.071	1.62
2711.602	1.62
2715.13	8.62
2718.656	9.62
2722.178	8.62
2725.697	7.62
2729.214	7.62
2732.727	10.62
2736.237	6.62
2739.744	9.62
2743.249	6.62
2746.75	6.62
2750.248	7.62
2753.743	6.62
2757.236	4.62
2760.725	9.62
2764.211	4.62
2767.695	6.62
2771.175	4.62
2774.652	5.62
2778.127	2.62
2781.598	5.62
2785.067	4.62
2788.532	6.62
2791.995	4.62
2795.455	4.62
2798.911	7.62
2802.365	5.62
2805.816	8.62
2809.264	6.62
2812.709	10.62
2816.151	11.62
2819.59	14.62
2823.026	17.62
2826.46	14.62
2829.89	17.62
2833.318	22.62
2836.742	25.62
2840.164	32.62
2843.583	38.62
2846.999	45.62
2850.412	60.62
2853.822	67.62
2857.229	70.62
2860.634	76.62
2864.035	68.62
2867.434	72.62
2870.83	67.62
2874.223	77.62
2877.613	81.62
2881	86.62
2884.385	91.62
2887.766	97.62
2891.145	90.62
2894.521	96.62
2897.894	98.62
2901.264	95.62
2904.631	94.62
2907.996	90.62
2911.358	91.62
2914.717	89.62
2918.073	86.62
2921.426	88.62
2924.777	83.62
2928.124	79.62
2931.469	84.62
2934.811	82.62
2938.15	81.62
2941.487	73.62
2944.821	72.62
2948.152	69.62
2951.48	61.62
2954.805	63.62
2958.128	58.62
2961.447	56.62
2964.765	53.62
2968.079	48.62
2971.39	46.62
2974.699	49.62
2978.005	40.62
2981.308	43.62
2984.609	36.62
2987.907	43.62
2991.202	39.62
2994.494	37.62
2997.784	35.62
3001.07	36.62
3004.355	32.62
3007.636	32.62
3010.915	31.62
3014.191	33.62
3017.464	27.62
3020.734	30.62
3024.002	22.62
3027.267	29.62
3030.53	29.62
3033.789	31.62
3037.046	26.62
3040.301	32.62
3043.552	27.62
3046.801	24.62
3050.048	29.62
3053.291	27.62
3056.532	27.62
3059.771	41.62
3063.006	34.62
3066.239	31.62
3069.469	34.62
3072.697	34.62
3075.922	31.62
3079.144	38.62
3082.364	40.62
3085.581	38.62
3088.795	46.62
3092.007	46.62
3095.216	49.62
3098.423	46.62
3101.627	45.62
3104.828	41.62
3108.026	49.62
3111.222	50.62
3114.416	54.62
3117.607	51.62
3120.795	58.62
3123.98	60.62
3127.163	54.62
3130.344	54.62
3133.521	63.62
3136.696	65.62
3139.869	68.62
3143.039	67.62
3146.206	65.62
3149.371	69.62
3152.533	68.62
3155.693	61.62
3158.85	68.62
3162.005	72.62
3165.157	67.62
3168.306	70.62
3171.453	70.62
3174.597	66.62
3177.739	69.62
3180.878	70.62
3184.014	72.62
3187.149	70.62
3190.28	69.62
3193.409	73.62
3196.536	65.62
3199.659	78.62
3202.781	71.62
3205.9	73.62
3209.016	70.62
3212.13	67.62
3215.241	74.62
3218.35	73.62
3221.456	70.62
3224.56	67.62
3227.661	68.62
3230.76	63.62
3233.856	67.62
3236.95	69.62
3240.041	70.62
3243.13	64.62
3246.216	65.62
3249.3	61.62
3252.382	61.62
3255.46	62.62
3258.537	62.62
3261.611	63.62
3264.682	59.62
3267.751	66.62
3270.818	65.62
3273.882	67.62
3276.943	62.62
3280.002	56.62
3283.059	64.62
3286.113	57.62
3289.165	59.62
3292.214	61.62
3295.261	61.62
3298.306	58.62
3301.348	53.62
3304.387	56.62
3307.425	49.62
3310.459	50.62
3313.492	47.62
3316.521	52.62
3319.549	49.62
3322.574	51.62
3325.597	46.62
3328.617	50.62
3331.635	44.62
3334.65	44.62
3337.663	48.62
3340.674	50.62
3343.682	50.62
3346.688	42.62
3349.691	48.62
3352.692	39.62
3355.691	43.62
3358.687	42.62
3361.681	44.62
3364.673	45.62
3367.662	45.62
3370.649	44.62
3373.633	42.62
3376.615	44.62
3379.595	36.62
3382.572	31.62
3385.547	37.62
3388.52	38.62
3391.49	38.62
3394.458	37.62
3397.424	32.62
3400.387	35.62
3403.348	34.62
3406.307	32.62
3409.263	29.62
3412.217	35.62
3415.168	38.62
3418.118	33.62
3421.065	33.62
3424.009	28.62
3426.951	28.62
3429.891	31.62
3432.829	31.62
3435.764	33.62
3438.697	29.62
3441.628	30.62
3444.557	28.62
3447.483	23.62
3450.407	22.62
3453.328	26.62
3456.247	20.62
3459.164	22.62
3462.079	23.62
3464.991	23.62
3467.902	16.62
3470.809	17.62
3473.715	15.62
3476.618	15.62
3479.519	14.62
3482.418	13.62
3485.315	14.62
3488.209	11.62
3491.101	13.62
3493.99	12.62
3496.878	6.62
3499.763	5.62
3502.646	7.62
3505.527	10.62
3508.405	10.62
3511.281	5.62
3514.155	6.62
3517.027	8.62
3519.897	1.62
3522.764	4.62
3525.629	-2.38
3528.492	0.62
3531.352	2.62
3534.211	1.62
3537.067	-1.38
3539.921	-4.38
3542.773	-5.38
3545.622	-1.38
3548.469	-3.38
3551.315	-5.38
3554.157	-3.38
3556.998	-3.38
3559.837	-7.38
3562.673	-8.38
3565.507	-10.38
3568.339	-9.38
3571.169	-10.38
3573.996	-5.38
3576.822	-10.38
3579.645	-12.38
3582.466	-9.38
3585.285	-12.38
3588.101	-12.38
3590.916	-11.38
3593.728	-15.38
3596.538	-10.38
3599.346	-10.38
3602.152	-13.38
3604.956	-13.38
3607.757	-10.38
3610.556	-14.38
3613.354	-12.38
3616.149	-13.38
3618.942	-12.38
3621.732	-15.38
3624.521	-15.38
3627.307	-15.38
3630.092	-13.38
3632.874	-14.38
3635.654	-16.38
3638.432	-16.38
3641.208	-17.38
3643.982	-16.38
3646.753	-16.38
3649.523	-14.38
3652.29	-18.38
3655.055	-17.38
3657.818	-12.38
3660.579	-17.38
3663.338	-16.38
3666.095	-19.38
3668.849	-18.38
3671.602	-16.38
3674.352	-16.38
3677.101	-17.38
3679.847	-19.38
3682.591	-19.38
3685.333	-18.38
3688.073	-20.38
3690.811	-18.38
3693.547	-15.38
3696.281	-16.38
3699.013	-18.38
3701.742	-20.38
3704.47	-14.38
3707.195	-24.38
3709.919	-20.38
3712.64	-20.38
3715.359	-18.38
3718.076	-17.38
3720.792	-16.38
3723.505	-17.38
3726.216	-21.38
3728.925	-22.38
3731.632	-23.38
3734.336	-22.38
3737.039	-17.38
3739.74	-17.38
3742.439	-17.38
3745.136	-17.38
3747.83	-20.38
3750.523	-22.38
3753.213	-22.38
3755.902	-17.38
3758.589	-17.38
3761.273	-20.38
3763.956	-20.38
3766.636	-20.38
3769.315	-21.38
3771.991	-20.38
3774.665	-21.38
3777.338	-20.38
3780.008	-21.38
3782.677	-18.38
3785.343	-20.38
3788.007	-21.38
3790.67	-22.38
3793.33	-22.38
3795.989	-19.38
3798.645	-22.38
3801.299	-15.38
3803.952	-15.38
3806.602	-20.38
3809.251	-19.38
3811.897	-21.38
3814.542	-27.38
3817.184	-23.38
3819.825	-22.38
3822.463	-18.38
3825.1	-17.38
3827.735	-22.38
3830.367	-19.38
3832.998	-23.38
3835.627	-27.38
3838.253	-21.38
3840.878	-21.38
3843.501	-19.38
3846.122	-21.38
3848.741	-18.38
3851.358	-24.38
3853.973	-24.38
3856.586	-22.38
3859.197	-22.38
3861.806	-19.38
3864.414	-19.38
3867.019	-22.38
3869.622	-21.38
3872.224	-20.38
3874.823	-23.38
3877.421	-22.38
3880.016	-15.38
3882.61	-14.38
3885.202	-14.38
3887.792	-14.38
3890.38	-18.38
3892.966	-17.38
3895.55	-22.38
3898.132	-22.38
3900.713	-24.38
3903.291	-19.38
3905.868	-21.38
3908.442	-20.38
3911.015	-20.38
3913.586	-25.38
3916.155	-25.38
3918.722	-19.38
3921.287	-25.38
3923.85	-22.38
3926.411	-20.38
3928.971	-21.38
3931.528	-20.38
3934.084	-19.38
3936.638	-22.38
3939.19	-21.38
3941.74	-24.38
3944.288	-20.38
3946.834	-23.38
3949.378	-21.38
3951.921	-20.38
3954.462	-20.38
3957	-23.38
3959.537	-18.38
3962.072	-23.38
3964.606	-20.38
3967.137	-20.38
3969.667	-18.38
3972.194	-23.38
3974.72	-19.38
3977.244	-22.38
3979.766	-22.38
3982.286	-19.38
3984.805	-19.38
3987.321	-22.38
3989.836	-23.38
3992.349	-22.38
3994.86	-21.38
3997.369	-20.38
3999.877	-17.38
4002.382	-20.38
4004.886	-15.38
4007.388	-19.38
4009.888	-22.38
4012.386	-24.38
4014.883	-22.38
4017.377	-22.38
4019.87	-17.38
4022.361	-17.38
4024.85	-16.38
4027.338	-19.38
4029.823	-23.38
4032.307	-23.38
4034.789	-22.38
4037.269	-19.38
4039.747	-22.38
4042.224	-21.38
4044.699	-19.38
4047.172	-21.38
4049.643	-16.38
4052.112	-22.38
4054.58	-19.38
4057.046	-22.38
4059.51	-17.38
4061.972	-19.38
4064.432	-23.38
4066.891	-20.38
4069.348	-23.38
4071.803	-22.38
4074.256	-22.38
4076.708	-22.38
4079.158	-18.38
4081.606	-21.38
4084.052	-23.38
4086.497	-26.38
4088.939	-22.38
4091.38	-16.38
4093.819	-19.38
4096.257	-24.38
4098.693	-24.38
4101.127	-20.38
4103.559	-21.38
4105.989	-5.38
4108.418	-8.38
4110.845	-7.38
4113.27	-6.38
4115.694	-13.38
4118.115	-9.38
4120.535	-19.38
4122.954	-20.38
4125.37	-23.38
4127.785	-21.38
4130.198	-21.38
4132.609	-21.38
4135.019	-21.38
4137.427	-22.38
4139.833	-22.38
4142.237	-19.38
