Data from 10CFU1_B_RamanShift_1.txt Node
Date: Mon Feb 13 14:01:09 IST 2017
User: aro
Spectrometer: QEPB0276
Trigger mode: 0
Integration Time (sec): 5.000000E0
Scans to average: 1
Electric dark correction enabled: true
Nonlinearity correction enabled: false
Boxcar width: 0
XAxis mode: Raman Shifts
Number of Pixels in Spectrum: 1044
>>>>>Begin Spectral Data<<<<<
160.701	-4.62
166.742	1.38
172.777	18.38
178.805	77.38
184.826	185.38
190.841	397.38
196.849	609.38
202.85	759.38
208.845	795.38
214.833	788.38
220.815	777.38
226.789	760.38
232.758	762.38
238.719	747.38
244.674	739.38
250.623	734.38
256.565	709.38
262.5	674.38
268.429	675.38
274.351	659.38
280.267	644.38
286.176	648.38
292.079	642.38
297.975	640.38
303.865	638.38
309.748	622.38
315.625	621.38
321.495	624.38
327.359	621.38
333.217	617.38
339.068	620.38
344.912	630.38
350.751	639.38
356.583	653.38
362.408	654.38
368.227	639.38
374.04	634.38
379.847	626.38
385.647	633.38
391.44	625.38
397.228	641.38
403.009	648.38
408.784	646.38
414.553	643.38
420.315	642.38
426.071	655.38
431.821	658.38
437.565	659.38
443.302	662.38
449.033	657.38
454.758	649.38
460.477	639.38
466.189	633.38
471.896	636.38
477.596	610.38
483.29	601.38
488.978	605.38
494.66	595.38
500.335	593.38
506.005	559.38
511.668	540.38
517.325	520.38
522.977	508.38
528.622	501.38
534.261	486.38
539.894	476.38
545.521	465.38
551.141	456.38
556.756	444.38
562.365	446.38
567.968	449.38
573.565	442.38
579.155	439.38
584.74	436.38
590.319	421.38
595.892	435.38
601.459	426.38
607.02	422.38
612.575	427.38
618.124	410.38
623.667	410.38
629.204	403.38
634.735	403.38
640.261	403.38
645.781	391.38
651.294	401.38
656.802	395.38
662.304	383.38
667.8	396.38
673.29	380.38
678.775	368.38
684.254	375.38
689.726	377.38
695.193	371.38
700.655	368.38
706.11	374.38
711.56	371.38
717.004	374.38
722.442	364.38
727.874	365.38
733.301	370.38
738.722	359.38
744.137	352.38
749.547	348.38
754.951	359.38
760.349	356.38
765.741	361.38
771.128	367.38
776.509	367.38
781.885	366.38
787.254	371.38
792.618	362.38
797.977	362.38
803.33	370.38
808.677	369.38
814.019	361.38
819.355	367.38
824.686	364.38
830.011	362.38
835.33	367.38
840.644	368.38
845.952	369.38
851.255	367.38
856.552	379.38
861.844	380.38
867.13	376.38
872.41	382.38
877.686	378.38
882.955	378.38
888.219	371.38
893.478	375.38
898.731	363.38
903.979	350.38
909.221	346.38
914.458	339.38
919.69	331.38
924.916	331.38
930.136	338.38
935.351	337.38
940.561	333.38
945.766	333.38
950.965	331.38
956.158	326.38
961.347	323.38
966.529	322.38
971.707	311.38
976.879	300.38
982.046	291.38
987.208	294.38
992.364	299.38
997.515	308.38
1002.66	312.38
1007.801	317.38
1012.936	328.38
1018.066	321.38
1023.19	326.38
1028.309	332.38
1033.423	326.38
1038.532	330.38
1043.636	320.38
1048.734	336.38
1053.827	337.38
1058.915	346.38
1063.998	346.38
1069.075	350.38
1074.147	355.38
1079.214	362.38
1084.276	365.38
1089.333	366.38
1094.385	363.38
1099.431	363.38
1104.472	347.38
1109.509	333.38
1114.54	330.38
1119.565	328.38
1124.586	334.38
1129.602	332.38
1134.613	325.38
1139.618	307.38
1144.619	301.38
1149.614	287.38
1154.604	285.38
1159.589	284.38
1164.57	284.38
1169.545	269.38
1174.515	269.38
1179.48	268.38
1184.44	263.38
1189.395	256.38
1194.345	259.38
1199.29	259.38
1204.23	257.38
1209.165	256.38
1214.095	262.38
1219.021	258.38
1223.941	258.38
1228.856	267.38
1233.766	270.38
1238.672	276.38
1243.572	279.38
1248.467	284.38
1253.358	289.38
1258.244	284.38
1263.124	286.38
1268	290.38
1272.871	284.38
1277.737	280.38
1282.599	281.38
1287.455	274.38
1292.306	280.38
1297.153	284.38
1301.995	316.38
1306.832	312.38
1311.664	307.38
1316.491	300.38
1321.314	285.38
1326.132	277.38
1330.945	264.38
1335.753	255.38
1340.556	250.38
1345.354	245.38
1350.148	232.38
1354.937	236.38
1359.722	230.38
1364.501	235.38
1369.276	238.38
1374.046	238.38
1378.811	242.38
1383.572	232.38
1388.327	234.38
1393.079	229.38
1397.825	224.38
1402.567	213.38
1407.304	214.38
1412.036	221.38
1416.764	221.38
1421.487	220.38
1426.205	232.38
1430.919	235.38
1435.628	252.38
1440.333	272.38
1445.032	300.38
1449.727	301.38
1454.418	302.38
1459.104	299.38
1463.785	282.38
1468.462	273.38
1473.134	245.38
1477.802	231.38
1482.465	205.38
1487.123	189.38
1491.777	184.38
1496.426	178.38
1501.071	178.38
1505.711	179.38
1510.347	173.38
1514.978	178.38
1519.604	174.38
1524.226	171.38
1528.844	177.38
1533.457	171.38
1538.065	173.38
1542.669	167.38
1547.269	164.38
1551.864	168.38
1556.454	175.38
1561.041	176.38
1565.622	170.38
1570.199	171.38
1574.772	166.38
1579.34	173.38
1583.904	169.38
1588.464	175.38
1593.019	171.38
1597.569	174.38
1602.115	176.38
1606.657	177.38
1611.195	180.38
1615.728	177.38
1620.256	178.38
1624.78	178.38
1629.3	186.38
1633.816	183.38
1638.327	184.38
1642.834	188.38
1647.336	193.38
1651.834	205.38
1656.328	204.38
1660.817	211.38
1665.302	197.38
1669.783	201.38
1674.259	192.38
1678.732	182.38
1683.199	172.38
1687.663	160.38
1692.122	162.38
1696.577	154.38
1701.028	147.38
1705.474	145.38
1709.917	144.38
1714.355	129.38
1718.788	135.38
1723.218	132.38
1727.643	123.38
1732.064	127.38
1736.481	129.38
1740.893	120.38
1745.301	118.38
1749.705	116.38
1754.105	112.38
1758.501	109.38
1762.893	103.38
1767.28	101.38
1771.663	101.38
1776.042	98.38
1780.417	97.38
1784.787	97.38
1789.154	97.38
1793.516	93.38
1797.874	88.38
1802.228	95.38
1806.578	96.38
1810.924	103.38
1815.266	96.38
1819.603	89.38
1823.937	87.38
1828.266	87.38
1832.591	82.38
1836.913	84.38
1841.23	84.38
1845.543	82.38
1849.852	81.38
1854.156	87.38
1858.457	77.38
1862.754	79.38
1867.047	77.38
1871.335	79.38
1875.62	81.38
1879.9	79.38
1884.177	81.38
1888.449	83.38
1892.718	77.38
1896.982	78.38
1901.243	74.38
1905.499	75.38
1909.752	74.38
1914	80.38
1918.245	84.38
1922.485	82.38
1926.722	84.38
1930.954	84.38
1935.183	86.38
1939.408	83.38
1943.628	77.38
1947.845	79.38
1952.058	86.38
1956.267	80.38
1960.472	79.38
1964.673	77.38
1968.87	72.38
1973.063	74.38
1977.252	70.38
1981.438	67.38
1985.619	68.38
1989.797	73.38
1993.971	70.38
1998.14	68.38
2002.306	71.38
2006.469	68.38
2010.627	69.38
2014.781	68.38
2018.932	69.38
2023.078	65.38
2027.221	63.38
2031.36	68.38
2035.495	65.38
2039.627	61.38
2043.754	61.38
2047.878	61.38
2051.998	62.38
2056.114	59.38
2060.226	61.38
2064.334	63.38
2068.439	68.38
2072.54	63.38
2076.637	61.38
2080.73	68.38
2084.82	68.38
2088.906	63.38
2092.988	63.38
2097.066	61.38
2101.14	68.38
2105.211	65.38
2109.278	62.38
2113.342	66.38
2117.401	63.38
2121.457	62.38
2125.509	55.38
2129.558	52.38
2133.602	54.38
2137.643	58.38
2141.681	65.38
2145.714	62.38
2149.744	60.38
2153.77	56.38
2157.793	58.38
2161.812	51.38
2165.827	52.38
2169.838	47.38
2173.846	60.38
2177.851	50.38
2181.851	53.38
2185.848	51.38
2189.841	48.38
2193.831	51.38
2197.817	45.38
2201.799	44.38
2205.778	45.38
2209.753	49.38
2213.725	51.38
2217.693	47.38
2221.657	45.38
2225.618	51.38
2229.575	45.38
2233.529	40.38
2237.479	39.38
2241.425	44.38
2245.368	43.38
2249.307	40.38
2253.243	40.38
2257.175	41.38
2261.104	41.38
2265.029	42.38
2268.95	35.38
2272.868	33.38
2276.783	34.38
2280.694	37.38
2284.601	41.38
2288.505	38.38
2292.405	35.38
2296.302	34.38
2300.195	28.38
2304.085	31.38
2307.971	31.38
2311.854	26.38
2315.734	29.38
2319.609	31.38
2323.482	28.38
2327.351	26.38
2331.216	31.38
2335.078	27.38
2338.937	29.38
2342.792	26.38
2346.643	21.38
2350.492	24.38
2354.336	23.38
2358.178	23.38
2362.015	24.38
2365.85	29.38
2369.681	19.38
2373.508	21.38
2377.333	19.38
2381.153	23.38
2384.971	25.38
2388.785	23.38
2392.595	21.38
2396.402	29.38
2400.206	19.38
2404.007	20.38
2407.804	16.38
2411.597	16.38
2415.388	21.38
2419.174	22.38
2422.958	20.38
2426.738	18.38
2430.515	21.38
2434.289	21.38
2438.059	16.38
2441.825	16.38
2445.589	11.38
2449.349	13.38
2453.106	16.38
2456.859	18.38
2460.61	19.38
2464.356	13.38
2468.1	16.38
2471.84	13.38
2475.577	12.38
2479.311	10.38
2483.041	11.38
2486.768	8.38
2490.492	14.38
2494.213	16.38
2497.93	16.38
2501.644	16.38
2505.355	14.38
2509.062	15.38
2512.766	13.38
2516.467	12.38
2520.165	11.38
2523.859	14.38
2527.551	18.38
2531.239	14.38
2534.923	13.38
2538.605	14.38
2542.283	18.38
2545.958	9.38
2549.63	11.38
2553.299	11.38
2556.964	13.38
2560.626	16.38
2564.285	13.38
2567.941	15.38
2571.594	11.38
2575.243	11.38
2578.89	11.38
2582.533	7.38
2586.173	13.38
2589.809	16.38
2593.443	18.38
2597.073	15.38
2600.701	13.38
2604.325	10.38
2607.946	9.38
2611.564	10.38
2615.178	10.38
2618.79	11.38
2622.398	16.38
2626.004	17.38
2629.606	12.38
2633.205	11.38
2636.801	12.38
2640.394	6.38
2643.983	11.38
2647.57	5.38
2651.153	7.38
2654.734	14.38
2658.311	12.38
2661.885	10.38
2665.456	9.38
2669.025	7.38
2672.589	9.38
2676.151	9.38
2679.71	5.38
2683.266	13.38
2686.819	12.38
2690.368	11.38
2693.915	8.38
2697.458	9.38
2700.999	8.38
2704.536	6.38
2708.071	8.38
2711.602	10.38
2715.13	11.38
2718.656	10.38
2722.178	12.38
2725.697	16.38
2729.214	11.38
2732.727	13.38
2736.237	12.38
2739.744	17.38
2743.249	10.38
2746.75	7.38
2750.248	12.38
2753.743	11.38
2757.236	10.38
2760.725	14.38
2764.211	13.38
2767.695	9.38
2771.175	11.38
2774.652	12.38
2778.127	12.38
2781.598	7.38
2785.067	12.38
2788.532	11.38
2791.995	11.38
2795.455	12.38
2798.911	11.38
2802.365	13.38
2805.816	13.38
2809.264	13.38
2812.709	16.38
2816.151	14.38
2819.59	18.38
2823.026	22.38
2826.46	23.38
2829.89	24.38
2833.318	32.38
2836.742	35.38
2840.164	40.38
2843.583	44.38
2846.999	63.38
2850.412	73.38
2853.822	83.38
2857.229	89.38
2860.634	84.38
2864.035	93.38
2867.434	89.38
2870.83	94.38
2874.223	95.38
2877.613	107.38
2881	106.38
2884.385	107.38
2887.766	118.38
2891.145	111.38
2894.521	112.38
2897.894	112.38
2901.264	111.38
2904.631	108.38
2907.996	114.38
2911.358	103.38
2914.717	100.38
2918.073	99.38
2921.426	103.38
2924.777	98.38
2928.124	97.38
2931.469	96.38
2934.811	92.38
2938.15	99.38
2941.487	88.38
2944.821	92.38
2948.152	89.38
2951.48	78.38
2954.805	76.38
2958.128	64.38
2961.447	68.38
2964.765	64.38
2968.079	58.38
2971.39	60.38
2974.699	58.38
2978.005	55.38
2981.308	50.38
2984.609	50.38
2987.907	49.38
2991.202	40.38
2994.494	38.38
2997.784	39.38
3001.07	42.38
3004.355	39.38
3007.636	41.38
3010.915	44.38
3014.191	35.38
3017.464	36.38
3020.734	31.38
3024.002	27.38
3027.267	31.38
3030.53	32.38
3033.789	39.38
3037.046	36.38
3040.301	31.38
3043.552	33.38
3046.801	32.38
3050.048	34.38
3053.291	34.38
3056.532	40.38
3059.771	37.38
3063.006	44.38
3066.239	45.38
3069.469	49.38
3072.697	49.38
3075.922	44.38
3079.144	44.38
3082.364	48.38
3085.581	54.38
3088.795	53.38
3092.007	58.38
3095.216	57.38
3098.423	57.38
3101.627	52.38
3104.828	54.38
3108.026	62.38
3111.222	60.38
3114.416	59.38
3117.607	65.38
3120.795	70.38
3123.98	67.38
3127.163	71.38
3130.344	68.38
3133.521	75.38
3136.696	72.38
3139.869	71.38
3143.039	75.38
3146.206	84.38
3149.371	86.38
3152.533	85.38
3155.693	79.38
3158.85	86.38
3162.005	82.38
3165.157	80.38
3168.306	81.38
3171.453	89.38
3174.597	85.38
3177.739	86.38
3180.878	88.38
3184.014	87.38
3187.149	83.38
3190.28	82.38
3193.409	83.38
3196.536	83.38
3199.659	83.38
3202.781	87.38
3205.9	88.38
3209.016	92.38
3212.13	86.38
3215.241	87.38
3218.35	80.38
3221.456	79.38
3224.56	83.38
3227.661	80.38
3230.76	79.38
3233.856	84.38
3236.95	77.38
3240.041	80.38
3243.13	81.38
3246.216	76.38
3249.3	78.38
3252.382	75.38
3255.46	74.38
3258.537	73.38
3261.611	75.38
3264.682	76.38
3267.751	73.38
3270.818	77.38
3273.882	78.38
3276.943	73.38
3280.002	72.38
3283.059	74.38
3286.113	74.38
3289.165	76.38
3292.214	72.38
3295.261	65.38
3298.306	71.38
3301.348	63.38
3304.387	71.38
3307.425	70.38
3310.459	61.38
3313.492	66.38
3316.521	61.38
3319.549	60.38
3322.574	59.38
3325.597	61.38
3328.617	56.38
3331.635	61.38
3334.65	55.38
3337.663	57.38
3340.674	56.38
3343.682	54.38
3346.688	55.38
3349.691	53.38
3352.692	55.38
3355.691	61.38
3358.687	54.38
3361.681	54.38
3364.673	48.38
3367.662	55.38
3370.649	52.38
3373.633	49.38
3376.615	49.38
3379.595	47.38
3382.572	53.38
3385.547	49.38
3388.52	47.38
3391.49	44.38
3394.458	47.38
3397.424	41.38
3400.387	35.38
3403.348	40.38
3406.307	42.38
3409.263	41.38
3412.217	43.38
3415.168	39.38
3418.118	37.38
3421.065	37.38
3424.009	36.38
3426.951	40.38
3429.891	37.38
3432.829	39.38
3435.764	37.38
3438.697	38.38
3441.628	38.38
3444.557	29.38
3447.483	30.38
3450.407	30.38
3453.328	27.38
3456.247	31.38
3459.164	30.38
3462.079	25.38
3464.991	23.38
3467.902	26.38
3470.809	24.38
3473.715	17.38
3476.618	17.38
3479.519	17.38
3482.418	14.38
3485.315	25.38
3488.209	15.38
3491.101	17.38
3493.99	13.38
3496.878	11.38
3499.763	14.38
3502.646	14.38
3505.527	9.38
3508.405	8.38
3511.281	10.38
3514.155	14.38
3517.027	8.38
3519.897	5.38
3522.764	6.38
3525.629	0.38
3528.492	4.38
3531.352	0.38
3534.211	5.38
3537.067	0.38
3539.921	5.38
3542.773	5.38
3545.622	-1.62
3548.469	-5.62
3551.315	-3.62
3554.157	-7.62
3556.998	-6.62
3559.837	-5.62
3562.673	-1.62
3565.507	-8.62
3568.339	-1.62
3571.169	-5.62
3573.996	-10.62
3576.822	-10.62
3579.645	-13.62
3582.466	-14.62
3585.285	-8.62
3588.101	-8.62
3590.916	-7.62
3593.728	-7.62
3596.538	-12.62
3599.346	-9.62
3602.152	-10.62
3604.956	-14.62
3607.757	-12.62
3610.556	-9.62
3613.354	-8.62
3616.149	-10.62
3618.942	-12.62
3621.732	-11.62
3624.521	-14.62
3627.307	-15.62
3630.092	-14.62
3632.874	-14.62
3635.654	-14.62
3638.432	-12.62
3641.208	-16.62
3643.982	-14.62
3646.753	-12.62
3649.523	-18.62
3652.29	-18.62
3655.055	-19.62
3657.818	-16.62
3660.579	-15.62
3663.338	-17.62
3666.095	-16.62
3668.849	-17.62
3671.602	-17.62
3674.352	-18.62
3677.101	-24.62
3679.847	-20.62
3682.591	-20.62
3685.333	-18.62
3688.073	-14.62
3690.811	-16.62
3693.547	-15.62
3696.281	-18.62
3699.013	-20.62
3701.742	-18.62
3704.47	-23.62
3707.195	-21.62
3709.919	-16.62
3712.64	-18.62
3715.359	-16.62
3718.076	-22.62
3720.792	-17.62
3723.505	-21.62
3726.216	-22.62
3728.925	-21.62
3731.632	-21.62
3734.336	-22.62
3737.039	-19.62
3739.74	-20.62
3742.439	-17.62
3745.136	-20.62
3747.83	-19.62
3750.523	-21.62
3753.213	-24.62
3755.902	-22.62
3758.589	-22.62
3761.273	-22.62
3763.956	-23.62
3766.636	-23.62
3769.315	-15.62
3771.991	-18.62
3774.665	-19.62
3777.338	-19.62
3780.008	-21.62
3782.677	-18.62
3785.343	-21.62
3788.007	-25.62
3790.67	-21.62
3793.33	-21.62
3795.989	-22.62
3798.645	-19.62
3801.299	-24.62
3803.952	-24.62
3806.602	-18.62
3809.251	-20.62
3811.897	-24.62
3814.542	-26.62
3817.184	-21.62
3819.825	-22.62
3822.463	-18.62
3825.1	-22.62
3827.735	-20.62
3830.367	-25.62
3832.998	-21.62
3835.627	-26.62
3838.253	-24.62
3840.878	-24.62
3843.501	-23.62
3846.122	-20.62
3848.741	-21.62
3851.358	-20.62
3853.973	-23.62
3856.586	-21.62
3859.197	-23.62
3861.806	-22.62
3864.414	-23.62
3867.019	-20.62
3869.622	-20.62
3872.224	-20.62
3874.823	-19.62
3877.421	-19.62
3880.016	-21.62
3882.61	-15.62
3885.202	-12.62
3887.792	-19.62
3890.38	-16.62
3892.966	-17.62
3895.55	-17.62
3898.132	-23.62
3900.713	-21.62
3903.291	-24.62
3905.868	-21.62
3908.442	-19.62
3911.015	-26.62
3913.586	-22.62
3916.155	-20.62
3918.722	-19.62
3921.287	-21.62
3923.85	-24.62
3926.411	-21.62
3928.971	-24.62
3931.528	-22.62
3934.084	-21.62
3936.638	-18.62
3939.19	-20.62
3941.74	-20.62
3944.288	-18.62
3946.834	-22.62
3949.378	-23.62
3951.921	-23.62
3954.462	-17.62
3957	-22.62
3959.537	-20.62
3962.072	-19.62
3964.606	-16.62
3967.137	-20.62
3969.667	-22.62
3972.194	-20.62
3974.72	-27.62
3977.244	-25.62
3979.766	-23.62
3982.286	-19.62
3984.805	-20.62
3987.321	-18.62
3989.836	-15.62
3992.349	-21.62
3994.86	-18.62
3997.369	-25.62
3999.877	-21.62
4002.382	-20.62
4004.886	-20.62
4007.388	-22.62
4009.888	-20.62
4012.386	-17.62
4014.883	-23.62
4017.377	-22.62
4019.87	-26.62
4022.361	-21.62
4024.85	-21.62
4027.338	-16.62
4029.823	-17.62
4032.307	-17.62
4034.789	-21.62
4037.269	-18.62
4039.747	-19.62
4042.224	-25.62
4044.699	-21.62
4047.172	-21.62
4049.643	-19.62
4052.112	-21.62
4054.58	-18.62
4057.046	-22.62
4059.51	-18.62
4061.972	-22.62
4064.432	-22.62
4066.891	-24.62
4069.348	-21.62
4071.803	-20.62
4074.256	-17.62
4076.708	-20.62
4079.158	-20.62
4081.606	-21.62
4084.052	-22.62
4086.497	-23.62
4088.939	-24.62
4091.38	-21.62
4093.819	-24.62
4096.257	-21.62
4098.693	-21.62
4101.127	-22.62
4103.559	-24.62
4105.989	-10.62
4108.418	-13.62
4110.845	-9.62
4113.27	-8.62
4115.694	-5.62
4118.115	-3.62
4120.535	-15.62
4122.954	-22.62
4125.37	-19.62
4127.785	-23.62
4130.198	-22.62
4132.609	-21.62
4135.019	-26.62
4137.427	-23.62
4139.833	-21.62
4142.237	-20.62
