Data from 1000CFU2_B_RamanShift_1.txt Node
Date: Mon Feb 13 14:10:09 IST 2017
User: aro
Spectrometer: QEPB0276
Trigger mode: 0
Integration Time (sec): 5.000000E0
Scans to average: 1
Electric dark correction enabled: true
Nonlinearity correction enabled: false
Boxcar width: 0
XAxis mode: Raman Shifts
Number of Pixels in Spectrum: 1044
>>>>>Begin Spectral Data<<<<<
160.701	-5.75
166.742	0.25
172.777	21.25
178.805	76.25
184.826	192.25
190.841	389.25
196.849	600.25
202.85	756.25
208.845	803.25
214.833	786.25
220.815	755.25
226.789	749.25
232.758	749.25
238.719	750.25
244.674	734.25
250.623	728.25
256.565	701.25
262.5	674.25
268.429	674.25
274.351	662.25
280.267	654.25
286.176	642.25
292.079	641.25
297.975	632.25
303.865	629.25
309.748	617.25
315.625	616.25
321.495	610.25
327.359	613.25
333.217	611.25
339.068	630.25
344.912	625.25
350.751	633.25
356.583	649.25
362.408	647.25
368.227	635.25
374.04	627.25
379.847	618.25
385.647	620.25
391.44	631.25
397.228	632.25
403.009	633.25
408.784	637.25
414.553	630.25
420.315	638.25
426.071	648.25
431.821	653.25
437.565	649.25
443.302	648.25
449.033	647.25
454.758	646.25
460.477	631.25
466.189	624.25
471.896	608.25
477.596	612.25
483.29	598.25
488.978	594.25
494.66	600.25
500.335	580.25
506.005	557.25
511.668	533.25
517.325	515.25
522.977	499.25
528.622	490.25
534.261	472.25
539.894	465.25
545.521	464.25
551.141	456.25
556.756	435.25
562.365	435.25
567.968	433.25
573.565	437.25
579.155	432.25
584.74	436.25
590.319	430.25
595.892	429.25
601.459	427.25
607.02	421.25
612.575	422.25
618.124	402.25
623.667	405.25
629.204	405.25
634.735	400.25
640.261	392.25
645.781	379.25
651.294	392.25
656.802	391.25
662.304	389.25
667.8	376.25
673.29	374.25
678.775	368.25
684.254	379.25
689.726	375.25
695.193	364.25
700.655	369.25
706.11	371.25
711.56	369.25
717.004	369.25
722.442	370.25
727.874	357.25
733.301	366.25
738.722	355.25
744.137	359.25
749.547	354.25
754.951	348.25
760.349	351.25
765.741	352.25
771.128	356.25
776.509	366.25
781.885	371.25
787.254	358.25
792.618	363.25
797.977	361.25
803.33	360.25
808.677	360.25
814.019	348.25
819.355	357.25
824.686	359.25
830.011	355.25
835.33	364.25
840.644	366.25
845.952	356.25
851.255	370.25
856.552	367.25
861.844	375.25
867.13	379.25
872.41	375.25
877.686	372.25
882.955	370.25
888.219	375.25
893.478	360.25
898.731	357.25
903.979	349.25
909.221	336.25
914.458	329.25
919.69	326.25
924.916	337.25
930.136	329.25
935.351	321.25
940.561	324.25
945.766	318.25
950.965	325.25
956.158	318.25
961.347	311.25
966.529	314.25
971.707	307.25
976.879	300.25
982.046	299.25
987.208	292.25
992.364	293.25
997.515	296.25
1002.66	298.25
1007.801	313.25
1012.936	321.25
1018.066	330.25
1023.19	321.25
1028.309	332.25
1033.423	321.25
1038.532	323.25
1043.636	321.25
1048.734	331.25
1053.827	322.25
1058.915	331.25
1063.998	341.25
1069.075	349.25
1074.147	352.25
1079.214	358.25
1084.276	362.25
1089.333	358.25
1094.385	363.25
1099.431	351.25
1104.472	348.25
1109.509	336.25
1114.54	327.25
1119.565	323.25
1124.586	331.25
1129.602	336.25
1134.613	326.25
1139.618	297.25
1144.619	285.25
1149.614	285.25
1154.604	284.25
1159.589	277.25
1164.57	284.25
1169.545	276.25
1174.515	268.25
1179.48	265.25
1184.44	262.25
1189.395	253.25
1194.345	247.25
1199.29	249.25
1204.23	249.25
1209.165	248.25
1214.095	249.25
1219.021	256.25
1223.941	252.25
1228.856	258.25
1233.766	266.25
1238.672	272.25
1243.572	278.25
1248.467	276.25
1253.358	278.25
1258.244	289.25
1263.124	283.25
1268	280.25
1272.871	277.25
1277.737	273.25
1282.599	262.25
1287.455	269.25
1292.306	269.25
1297.153	283.25
1301.995	306.25
1306.832	306.25
1311.664	297.25
1316.491	298.25
1321.314	278.25
1326.132	260.25
1330.945	261.25
1335.753	254.25
1340.556	246.25
1345.354	242.25
1350.148	236.25
1354.937	231.25
1359.722	226.25
1364.501	230.25
1369.276	229.25
1374.046	225.25
1378.811	236.25
1383.572	234.25
1388.327	231.25
1393.079	225.25
1397.825	223.25
1402.567	209.25
1407.304	204.25
1412.036	213.25
1416.764	214.25
1421.487	212.25
1426.205	226.25
1430.919	230.25
1435.628	255.25
1440.333	280.25
1445.032	301.25
1449.727	299.25
1454.418	297.25
1459.104	288.25
1463.785	279.25
1468.462	259.25
1473.134	242.25
1477.802	220.25
1482.465	209.25
1487.123	185.25
1491.777	174.25
1496.426	171.25
1501.071	166.25
1505.711	164.25
1510.347	166.25
1514.978	173.25
1519.604	162.25
1524.226	169.25
1528.844	168.25
1533.457	167.25
1538.065	167.25
1542.669	165.25
1547.269	161.25
1551.864	157.25
1556.454	162.25
1561.041	165.25
1565.622	164.25
1570.199	157.25
1574.772	166.25
1579.34	168.25
1583.904	168.25
1588.464	161.25
1593.019	162.25
1597.569	166.25
1602.115	166.25
1606.657	164.25
1611.195	168.25
1615.728	175.25
1620.256	171.25
1624.78	174.25
1629.3	181.25
1633.816	173.25
1638.327	176.25
1642.834	186.25
1647.336	188.25
1651.834	194.25
1656.328	200.25
1660.817	208.25
1665.302	200.25
1669.783	194.25
1674.259	185.25
1678.732	176.25
1683.199	168.25
1687.663	157.25
1692.122	155.25
1696.577	145.25
1701.028	140.25
1705.474	136.25
1709.917	139.25
1714.355	131.25
1718.788	128.25
1723.218	126.25
1727.643	121.25
1732.064	118.25
1736.481	112.25
1740.893	115.25
1745.301	116.25
1749.705	114.25
1754.105	109.25
1758.501	106.25
1762.893	96.25
1767.28	97.25
1771.663	84.25
1776.042	89.25
1780.417	92.25
1784.787	90.25
1789.154	94.25
1793.516	94.25
1797.874	87.25
1802.228	90.25
1806.578	86.25
1810.924	91.25
1815.266	84.25
1819.603	88.25
1823.937	79.25
1828.266	82.25
1832.591	81.25
1836.913	79.25
1841.23	81.25
1845.543	76.25
1849.852	75.25
1854.156	74.25
1858.457	75.25
1862.754	76.25
1867.047	76.25
1871.335	77.25
1875.62	75.25
1879.9	76.25
1884.177	76.25
1888.449	76.25
1892.718	73.25
1896.982	71.25
1901.243	72.25
1905.499	70.25
1909.752	72.25
1914	72.25
1918.245	73.25
1922.485	70.25
1926.722	81.25
1930.954	71.25
1935.183	78.25
1939.408	74.25
1943.628	72.25
1947.845	76.25
1952.058	76.25
1956.267	79.25
1960.472	72.25
1964.673	72.25
1968.87	68.25
1973.063	64.25
1977.252	66.25
1981.438	66.25
1985.619	66.25
1989.797	59.25
1993.971	63.25
1998.14	64.25
2002.306	60.25
2006.469	67.25
2010.627	66.25
2014.781	66.25
2018.932	62.25
2023.078	59.25
2027.221	54.25
2031.36	62.25
2035.495	60.25
2039.627	56.25
2043.754	56.25
2047.878	58.25
2051.998	59.25
2056.114	55.25
2060.226	61.25
2064.334	59.25
2068.439	58.25
2072.54	58.25
2076.637	66.25
2080.73	63.25
2084.82	57.25
2088.906	64.25
2092.988	60.25
2097.066	53.25
2101.14	58.25
2105.211	61.25
2109.278	59.25
2113.342	62.25
2117.401	58.25
2121.457	60.25
2125.509	57.25
2129.558	55.25
2133.602	53.25
2137.643	50.25
2141.681	53.25
2145.714	54.25
2149.744	55.25
2153.77	52.25
2157.793	54.25
2161.812	55.25
2165.827	54.25
2169.838	49.25
2173.846	48.25
2177.851	43.25
2181.851	44.25
2185.848	44.25
2189.841	47.25
2193.831	43.25
2197.817	50.25
2201.799	46.25
2205.778	40.25
2209.753	42.25
2213.725	38.25
2217.693	40.25
2221.657	42.25
2225.618	47.25
2229.575	44.25
2233.529	38.25
2237.479	40.25
2241.425	34.25
2245.368	38.25
2249.307	36.25
2253.243	36.25
2257.175	39.25
2261.104	39.25
2265.029	36.25
2268.95	35.25
2272.868	34.25
2276.783	32.25
2280.694	33.25
2284.601	35.25
2288.505	28.25
2292.405	35.25
2296.302	31.25
2300.195	32.25
2304.085	27.25
2307.971	31.25
2311.854	23.25
2315.734	25.25
2319.609	25.25
2323.482	21.25
2327.351	29.25
2331.216	31.25
2335.078	30.25
2338.937	30.25
2342.792	27.25
2346.643	20.25
2350.492	20.25
2354.336	19.25
2358.178	19.25
2362.015	21.25
2365.85	21.25
2369.681	24.25
2373.508	19.25
2377.333	22.25
2381.153	22.25
2384.971	21.25
2388.785	20.25
2392.595	21.25
2396.402	20.25
2400.206	26.25
2404.007	21.25
2407.804	17.25
2411.597	19.25
2415.388	15.25
2419.174	15.25
2422.958	16.25
2426.738	16.25
2430.515	19.25
2434.289	19.25
2438.059	17.25
2441.825	17.25
2445.589	11.25
2449.349	13.25
2453.106	11.25
2456.859	12.25
2460.61	15.25
2464.356	14.25
2468.1	13.25
2471.84	12.25
2475.577	14.25
2479.311	12.25
2483.041	8.25
2486.768	11.25
2490.492	8.25
2494.213	13.25
2497.93	16.25
2501.644	15.25
2505.355	16.25
2509.062	12.25
2512.766	8.25
2516.467	14.25
2520.165	13.25
2523.859	10.25
2527.551	12.25
2531.239	9.25
2534.923	11.25
2538.605	11.25
2542.283	15.25
2545.958	11.25
2549.63	11.25
2553.299	10.25
2556.964	11.25
2560.626	12.25
2564.285	14.25
2567.941	14.25
2571.594	10.25
2575.243	11.25
2578.89	11.25
2582.533	8.25
2586.173	12.25
2589.809	10.25
2593.443	13.25
2597.073	9.25
2600.701	13.25
2604.325	7.25
2607.946	7.25
2611.564	10.25
2615.178	7.25
2618.79	8.25
2622.398	12.25
2626.004	9.25
2629.606	12.25
2633.205	10.25
2636.801	15.25
2640.394	13.25
2643.983	11.25
2647.57	8.25
2651.153	9.25
2654.734	11.25
2658.311	9.25
2661.885	8.25
2665.456	8.25
2669.025	9.25
2672.589	10.25
2676.151	6.25
2679.71	8.25
2683.266	13.25
2686.819	10.25
2690.368	10.25
2693.915	6.25
2697.458	7.25
2700.999	8.25
2704.536	7.25
2708.071	5.25
2711.602	8.25
2715.13	8.25
2718.656	11.25
2722.178	8.25
2725.697	11.25
2729.214	12.25
2732.727	12.25
2736.237	11.25
2739.744	14.25
2743.249	13.25
2746.75	11.25
2750.248	11.25
2753.743	11.25
2757.236	7.25
2760.725	14.25
2764.211	10.25
2767.695	8.25
2771.175	6.25
2774.652	13.25
2778.127	13.25
2781.598	7.25
2785.067	6.25
2788.532	9.25
2791.995	7.25
2795.455	6.25
2798.911	10.25
2802.365	13.25
2805.816	16.25
2809.264	14.25
2812.709	21.25
2816.151	18.25
2819.59	18.25
2823.026	22.25
2826.46	18.25
2829.89	27.25
2833.318	34.25
2836.742	36.25
2840.164	40.25
2843.583	52.25
2846.999	61.25
2850.412	75.25
2853.822	80.25
2857.229	82.25
2860.634	87.25
2864.035	87.25
2867.434	92.25
2870.83	90.25
2874.223	99.25
2877.613	104.25
2881	109.25
2884.385	113.25
2887.766	119.25
2891.145	114.25
2894.521	112.25
2897.894	116.25
2901.264	117.25
2904.631	110.25
2907.996	112.25
2911.358	111.25
2914.717	110.25
2918.073	106.25
2921.426	98.25
2924.777	105.25
2928.124	98.25
2931.469	95.25
2934.811	103.25
2938.15	102.25
2941.487	89.25
2944.821	90.25
2948.152	87.25
2951.48	73.25
2954.805	75.25
2958.128	72.25
2961.447	68.25
2964.765	65.25
2968.079	64.25
2971.39	59.25
2974.699	58.25
2978.005	57.25
2981.308	50.25
2984.609	45.25
2987.907	49.25
2991.202	45.25
2994.494	44.25
2997.784	42.25
3001.07	40.25
3004.355	46.25
3007.636	40.25
3010.915	39.25
3014.191	34.25
3017.464	36.25
3020.734	35.25
3024.002	35.25
3027.267	34.25
3030.53	37.25
3033.789	36.25
3037.046	35.25
3040.301	33.25
3043.552	35.25
3046.801	30.25
3050.048	40.25
3053.291	38.25
3056.532	41.25
3059.771	41.25
3063.006	45.25
3066.239	44.25
3069.469	42.25
3072.697	42.25
3075.922	43.25
3079.144	49.25
3082.364	50.25
3085.581	51.25
3088.795	51.25
3092.007	60.25
3095.216	56.25
3098.423	55.25
3101.627	58.25
3104.828	57.25
3108.026	58.25
3111.222	61.25
3114.416	64.25
3117.607	68.25
3120.795	68.25
3123.98	70.25
3127.163	68.25
3130.344	69.25
3133.521	71.25
3136.696	77.25
3139.869	79.25
3143.039	78.25
3146.206	86.25
3149.371	83.25
3152.533	84.25
3155.693	77.25
3158.85	82.25
3162.005	84.25
3165.157	81.25
3168.306	79.25
3171.453	81.25
3174.597	86.25
3177.739	83.25
3180.878	89.25
3184.014	86.25
3187.149	88.25
3190.28	85.25
3193.409	79.25
3196.536	88.25
3199.659	88.25
3202.781	90.25
3205.9	83.25
3209.016	90.25
3212.13	87.25
3215.241	88.25
3218.35	82.25
3221.456	83.25
3224.56	81.25
3227.661	81.25
3230.76	82.25
3233.856	85.25
3236.95	84.25
3240.041	81.25
3243.13	75.25
3246.216	77.25
3249.3	70.25
3252.382	75.25
3255.46	67.25
3258.537	80.25
3261.611	77.25
3264.682	81.25
3267.751	76.25
3270.818	72.25
3273.882	71.25
3276.943	72.25
3280.002	71.25
3283.059	75.25
3286.113	70.25
3289.165	76.25
3292.214	74.25
3295.261	70.25
3298.306	71.25
3301.348	66.25
3304.387	64.25
3307.425	66.25
3310.459	63.25
3313.492	57.25
3316.521	60.25
3319.549	60.25
3322.574	60.25
3325.597	61.25
3328.617	54.25
3331.635	56.25
3334.65	57.25
3337.663	57.25
3340.674	58.25
3343.682	55.25
3346.688	51.25
3349.691	57.25
3352.692	61.25
3355.691	57.25
3358.687	55.25
3361.681	50.25
3364.673	47.25
3367.662	50.25
3370.649	52.25
3373.633	52.25
3376.615	50.25
3379.595	47.25
3382.572	51.25
3385.547	45.25
3388.52	47.25
3391.49	44.25
3394.458	42.25
3397.424	46.25
3400.387	43.25
3403.348	44.25
3406.307	50.25
3409.263	43.25
3412.217	39.25
3415.168	35.25
3418.118	38.25
3421.065	37.25
3424.009	40.25
3426.951	46.25
3429.891	41.25
3432.829	38.25
3435.764	39.25
3438.697	36.25
3441.628	32.25
3444.557	34.25
3447.483	31.25
3450.407	31.25
3453.328	29.25
3456.247	29.25
3459.164	27.25
3462.079	27.25
3464.991	22.25
3467.902	21.25
3470.809	22.25
3473.715	20.25
3476.618	21.25
3479.519	18.25
3482.418	21.25
3485.315	22.25
3488.209	17.25
3491.101	17.25
3493.99	10.25
3496.878	12.25
3499.763	11.25
3502.646	14.25
3505.527	15.25
3508.405	10.25
3511.281	11.25
3514.155	12.25
3517.027	6.25
3519.897	5.25
3522.764	6.25
3525.629	4.25
3528.492	7.25
3531.352	5.25
3534.211	4.25
3537.067	0.25
3539.921	1.25
3542.773	0.25
3545.622	-2.75
3548.469	-6.75
3551.315	-0.75
3554.157	-2.75
3556.998	-4.75
3559.837	-1.75
3562.673	-3.75
3565.507	-9.75
3568.339	-4.75
3571.169	-5.75
3573.996	-10.75
3576.822	-8.75
3579.645	-6.75
3582.466	-9.75
3585.285	-5.75
3588.101	-8.75
3590.916	-6.75
3593.728	-10.75
3596.538	-8.75
3599.346	-11.75
3602.152	-12.75
3604.956	-9.75
3607.757	-11.75
3610.556	-10.75
3613.354	-8.75
3616.149	-13.75
3618.942	-15.75
3621.732	-11.75
3624.521	-13.75
3627.307	-8.75
3630.092	-11.75
3632.874	-13.75
3635.654	-16.75
3638.432	-14.75
3641.208	-12.75
3643.982	-14.75
3646.753	-15.75
3649.523	-19.75
3652.29	-17.75
3655.055	-17.75
3657.818	-15.75
3660.579	-12.75
3663.338	-17.75
3666.095	-16.75
3668.849	-20.75
3671.602	-18.75
3674.352	-17.75
3677.101	-16.75
3679.847	-16.75
3682.591	-17.75
3685.333	-16.75
3688.073	-16.75
3690.811	-15.75
3693.547	-17.75
3696.281	-19.75
3699.013	-19.75
3701.742	-16.75
3704.47	-16.75
3707.195	-16.75
3709.919	-16.75
3712.64	-19.75
3715.359	-20.75
3718.076	-21.75
3720.792	-19.75
3723.505	-20.75
3726.216	-18.75
3728.925	-18.75
3731.632	-19.75
3734.336	-22.75
3737.039	-20.75
3739.74	-19.75
3742.439	-22.75
3745.136	-21.75
3747.83	-21.75
3750.523	-20.75
3753.213	-17.75
3755.902	-20.75
3758.589	-21.75
3761.273	-20.75
3763.956	-24.75
3766.636	-24.75
3769.315	-20.75
3771.991	-21.75
3774.665	-18.75
3777.338	-17.75
3780.008	-20.75
3782.677	-17.75
3785.343	-20.75
3788.007	-23.75
3790.67	-22.75
3793.33	-20.75
3795.989	-23.75
3798.645	-22.75
3801.299	-20.75
3803.952	-22.75
3806.602	-19.75
3809.251	-21.75
3811.897	-24.75
3814.542	-25.75
3817.184	-20.75
3819.825	-22.75
3822.463	-17.75
3825.1	-21.75
3827.735	-20.75
3830.367	-23.75
3832.998	-19.75
3835.627	-22.75
3838.253	-24.75
3840.878	-23.75
3843.501	-23.75
3846.122	-21.75
3848.741	-20.75
3851.358	-17.75
3853.973	-20.75
3856.586	-20.75
3859.197	-21.75
3861.806	-25.75
3864.414	-24.75
3867.019	-22.75
3869.622	-19.75
3872.224	-18.75
3874.823	-17.75
3877.421	-17.75
3880.016	-21.75
3882.61	-15.75
3885.202	-15.75
3887.792	-18.75
3890.38	-17.75
3892.966	-18.75
3895.55	-14.75
3898.132	-21.75
3900.713	-20.75
3903.291	-21.75
3905.868	-24.75
3908.442	-23.75
3911.015	-26.75
3913.586	-21.75
3916.155	-20.75
3918.722	-18.75
3921.287	-19.75
3923.85	-20.75
3926.411	-19.75
3928.971	-23.75
3931.528	-25.75
3934.084	-23.75
3936.638	-19.75
3939.19	-19.75
3941.74	-16.75
3944.288	-15.75
3946.834	-21.75
3949.378	-20.75
3951.921	-23.75
3954.462	-20.75
3957	-25.75
3959.537	-23.75
3962.072	-19.75
3964.606	-16.75
3967.137	-19.75
3969.667	-19.75
3972.194	-19.75
3974.72	-22.75
3977.244	-24.75
3979.766	-27.75
3982.286	-26.75
3984.805	-19.75
3987.321	-18.75
3989.836	-18.75
3992.349	-19.75
3994.86	-19.75
3997.369	-22.75
3999.877	-17.75
4002.382	-18.75
4004.886	-22.75
4007.388	-22.75
4009.888	-21.75
4012.386	-16.75
4014.883	-18.75
4017.377	-17.75
4019.87	-22.75
4022.361	-18.75
4024.85	-18.75
4027.338	-19.75
4029.823	-19.75
4032.307	-16.75
4034.789	-18.75
4037.269	-17.75
4039.747	-18.75
4042.224	-25.75
4044.699	-23.75
4047.172	-21.75
4049.643	-22.75
4052.112	-17.75
4054.58	-20.75
4057.046	-20.75
4059.51	-18.75
4061.972	-18.75
4064.432	-20.75
4066.891	-24.75
4069.348	-21.75
4071.803	-22.75
4074.256	-18.75
4076.708	-20.75
4079.158	-21.75
4081.606	-18.75
4084.052	-18.75
4086.497	-21.75
4088.939	-21.75
4091.38	-21.75
4093.819	-24.75
4096.257	-20.75
4098.693	-22.75
4101.127	-20.75
4103.559	-23.75
4105.989	-11.75
4108.418	-9.75
4110.845	-5.75
4113.27	-3.75
4115.694	-2.75
4118.115	-6.75
4120.535	-21.75
4122.954	-22.75
4125.37	-17.75
4127.785	-21.75
4130.198	-20.75
4132.609	-20.75
4135.019	-22.75
4137.427	-22.75
4139.833	-23.75
4142.237	-22.75
