Data from 1000CFU1_B_RamanShift_1.txt Node
Date: Mon Feb 13 14:08:54 IST 2017
User: aro
Spectrometer: QEPB0276
Trigger mode: 0
Integration Time (sec): 5.000000E0
Scans to average: 1
Electric dark correction enabled: true
Nonlinearity correction enabled: false
Boxcar width: 0
XAxis mode: Raman Shifts
Number of Pixels in Spectrum: 1044
>>>>>Begin Spectral Data<<<<<
160.701	-2.88
166.742	0.12
172.777	17.12
178.805	73.12
184.826	185.12
190.841	373.12
196.849	573.12
202.85	695.12
208.845	751.12
214.833	736.12
220.815	715.12
226.789	700.12
232.758	693.12
238.719	692.12
244.674	685.12
250.623	667.12
256.565	659.12
262.5	632.12
268.429	621.12
274.351	610.12
280.267	606.12
286.176	596.12
292.079	591.12
297.975	574.12
303.865	585.12
309.748	588.12
315.625	578.12
321.495	570.12
327.359	572.12
333.217	564.12
339.068	556.12
344.912	574.12
350.751	579.12
356.583	592.12
362.408	591.12
368.227	583.12
374.04	580.12
379.847	572.12
385.647	583.12
391.44	576.12
397.228	584.12
403.009	592.12
408.784	592.12
414.553	600.12
420.315	593.12
426.071	596.12
431.821	604.12
437.565	601.12
443.302	604.12
449.033	590.12
454.758	600.12
460.477	590.12
466.189	575.12
471.896	573.12
477.596	557.12
483.29	552.12
488.978	556.12
494.66	542.12
500.335	535.12
506.005	502.12
511.668	490.12
517.325	473.12
522.977	455.12
528.622	439.12
534.261	430.12
539.894	429.12
545.521	423.12
551.141	405.12
556.756	399.12
562.365	397.12
567.968	397.12
573.565	396.12
579.155	397.12
584.74	388.12
590.319	386.12
595.892	383.12
601.459	382.12
607.02	381.12
612.575	380.12
618.124	375.12
623.667	374.12
629.204	356.12
634.735	358.12
640.261	359.12
645.781	344.12
651.294	348.12
656.802	360.12
662.304	345.12
667.8	347.12
673.29	334.12
678.775	342.12
684.254	331.12
689.726	341.12
695.193	333.12
700.655	334.12
706.11	338.12
711.56	329.12
717.004	335.12
722.442	322.12
727.874	327.12
733.301	323.12
738.722	315.12
744.137	319.12
749.547	307.12
754.951	316.12
760.349	314.12
765.741	321.12
771.128	320.12
776.509	328.12
781.885	327.12
787.254	329.12
792.618	323.12
797.977	319.12
803.33	320.12
808.677	322.12
814.019	321.12
819.355	318.12
824.686	314.12
830.011	323.12
835.33	327.12
840.644	324.12
845.952	329.12
851.255	329.12
856.552	336.12
861.844	338.12
867.13	340.12
872.41	338.12
877.686	338.12
882.955	338.12
888.219	331.12
893.478	321.12
898.731	309.12
903.979	306.12
909.221	292.12
914.458	297.12
919.69	293.12
924.916	300.12
930.136	297.12
935.351	288.12
940.561	278.12
945.766	285.12
950.965	289.12
956.158	291.12
961.347	281.12
966.529	275.12
971.707	271.12
976.879	277.12
982.046	262.12
987.208	264.12
992.364	265.12
997.515	267.12
1002.66	271.12
1007.801	283.12
1012.936	286.12
1018.066	291.12
1023.19	282.12
1028.309	295.12
1033.423	296.12
1038.532	292.12
1043.636	295.12
1048.734	294.12
1053.827	297.12
1058.915	296.12
1063.998	310.12
1069.075	315.12
1074.147	322.12
1079.214	325.12
1084.276	324.12
1089.333	326.12
1094.385	322.12
1099.431	310.12
1104.472	311.12
1109.509	305.12
1114.54	298.12
1119.565	294.12
1124.586	294.12
1129.602	301.12
1134.613	291.12
1139.618	276.12
1144.619	253.12
1149.614	255.12
1154.604	249.12
1159.589	248.12
1164.57	253.12
1169.545	248.12
1174.515	243.12
1179.48	229.12
1184.44	230.12
1189.395	224.12
1194.345	220.12
1199.29	225.12
1204.23	224.12
1209.165	228.12
1214.095	226.12
1219.021	234.12
1223.941	229.12
1228.856	238.12
1233.766	228.12
1238.672	243.12
1243.572	249.12
1248.467	256.12
1253.358	252.12
1258.244	252.12
1263.124	251.12
1268	247.12
1272.871	240.12
1277.737	250.12
1282.599	239.12
1287.455	237.12
1292.306	247.12
1297.153	263.12
1301.995	276.12
1306.832	276.12
1311.664	268.12
1316.491	264.12
1321.314	249.12
1326.132	238.12
1330.945	230.12
1335.753	228.12
1340.556	227.12
1345.354	225.12
1350.148	213.12
1354.937	212.12
1359.722	201.12
1364.501	203.12
1369.276	207.12
1374.046	211.12
1378.811	202.12
1383.572	211.12
1388.327	203.12
1393.079	200.12
1397.825	191.12
1402.567	186.12
1407.304	186.12
1412.036	187.12
1416.764	192.12
1421.487	193.12
1426.205	205.12
1430.919	208.12
1435.628	229.12
1440.333	251.12
1445.032	271.12
1449.727	275.12
1454.418	271.12
1459.104	262.12
1463.785	255.12
1468.462	239.12
1473.134	227.12
1477.802	206.12
1482.465	180.12
1487.123	161.12
1491.777	150.12
1496.426	152.12
1501.071	145.12
1505.711	154.12
1510.347	150.12
1514.978	160.12
1519.604	148.12
1524.226	152.12
1528.844	146.12
1533.457	144.12
1538.065	145.12
1542.669	147.12
1547.269	139.12
1551.864	139.12
1556.454	150.12
1561.041	149.12
1565.622	149.12
1570.199	136.12
1574.772	144.12
1579.34	147.12
1583.904	148.12
1588.464	152.12
1593.019	153.12
1597.569	153.12
1602.115	163.12
1606.657	154.12
1611.195	155.12
1615.728	155.12
1620.256	152.12
1624.78	162.12
1629.3	163.12
1633.816	157.12
1638.327	165.12
1642.834	170.12
1647.336	177.12
1651.834	174.12
1656.328	179.12
1660.817	182.12
1665.302	178.12
1669.783	179.12
1674.259	172.12
1678.732	163.12
1683.199	161.12
1687.663	148.12
1692.122	145.12
1696.577	130.12
1701.028	127.12
1705.474	119.12
1709.917	121.12
1714.355	118.12
1718.788	118.12
1723.218	114.12
1727.643	108.12
1732.064	100.12
1736.481	104.12
1740.893	101.12
1745.301	102.12
1749.705	98.12
1754.105	98.12
1758.501	95.12
1762.893	89.12
1767.28	88.12
1771.663	79.12
1776.042	81.12
1780.417	78.12
1784.787	79.12
1789.154	81.12
1793.516	79.12
1797.874	77.12
1802.228	83.12
1806.578	77.12
1810.924	78.12
1815.266	74.12
1819.603	76.12
1823.937	71.12
1828.266	70.12
1832.591	72.12
1836.913	70.12
1841.23	71.12
1845.543	69.12
1849.852	63.12
1854.156	68.12
1858.457	63.12
1862.754	67.12
1867.047	66.12
1871.335	66.12
1875.62	68.12
1879.9	68.12
1884.177	65.12
1888.449	71.12
1892.718	69.12
1896.982	64.12
1901.243	66.12
1905.499	62.12
1909.752	65.12
1914	62.12
1918.245	67.12
1922.485	65.12
1926.722	67.12
1930.954	65.12
1935.183	68.12
1939.408	66.12
1943.628	67.12
1947.845	68.12
1952.058	71.12
1956.267	67.12
1960.472	63.12
1964.673	60.12
1968.87	59.12
1973.063	60.12
1977.252	61.12
1981.438	58.12
1985.619	60.12
1989.797	60.12
1993.971	54.12
1998.14	58.12
2002.306	61.12
2006.469	59.12
2010.627	59.12
2014.781	60.12
2018.932	56.12
2023.078	51.12
2027.221	54.12
2031.36	54.12
2035.495	50.12
2039.627	53.12
2043.754	56.12
2047.878	53.12
2051.998	52.12
2056.114	53.12
2060.226	53.12
2064.334	51.12
2068.439	53.12
2072.54	50.12
2076.637	56.12
2080.73	58.12
2084.82	54.12
2088.906	58.12
2092.988	54.12
2097.066	49.12
2101.14	50.12
2105.211	57.12
2109.278	55.12
2113.342	52.12
2117.401	56.12
2121.457	51.12
2125.509	54.12
2129.558	51.12
2133.602	47.12
2137.643	44.12
2141.681	48.12
2145.714	44.12
2149.744	49.12
2153.77	45.12
2157.793	51.12
2161.812	48.12
2165.827	43.12
2169.838	43.12
2173.846	44.12
2177.851	41.12
2181.851	40.12
2185.848	38.12
2189.841	40.12
2193.831	37.12
2197.817	41.12
2201.799	40.12
2205.778	38.12
2209.753	38.12
2213.725	36.12
2217.693	35.12
2221.657	38.12
2225.618	42.12
2229.575	30.12
2233.529	33.12
2237.479	37.12
2241.425	35.12
2245.368	35.12
2249.307	33.12
2253.243	28.12
2257.175	29.12
2261.104	34.12
2265.029	37.12
2268.95	31.12
2272.868	28.12
2276.783	21.12
2280.694	29.12
2284.601	26.12
2288.505	29.12
2292.405	30.12
2296.302	22.12
2300.195	22.12
2304.085	26.12
2307.971	27.12
2311.854	23.12
2315.734	23.12
2319.609	28.12
2323.482	17.12
2327.351	22.12
2331.216	19.12
2335.078	25.12
2338.937	18.12
2342.792	19.12
2346.643	19.12
2350.492	18.12
2354.336	20.12
2358.178	19.12
2362.015	20.12
2365.85	16.12
2369.681	16.12
2373.508	16.12
2377.333	15.12
2381.153	17.12
2384.971	17.12
2388.785	17.12
2392.595	19.12
2396.402	18.12
2400.206	17.12
2404.007	18.12
2407.804	13.12
2411.597	14.12
2415.388	15.12
2419.174	17.12
2422.958	17.12
2426.738	15.12
2430.515	17.12
2434.289	19.12
2438.059	15.12
2441.825	12.12
2445.589	13.12
2449.349	10.12
2453.106	13.12
2456.859	14.12
2460.61	12.12
2464.356	11.12
2468.1	10.12
2471.84	8.12
2475.577	8.12
2479.311	4.12
2483.041	10.12
2486.768	5.12
2490.492	9.12
2494.213	11.12
2497.93	15.12
2501.644	10.12
2505.355	8.12
2509.062	11.12
2512.766	5.12
2516.467	16.12
2520.165	10.12
2523.859	13.12
2527.551	10.12
2531.239	9.12
2534.923	6.12
2538.605	5.12
2542.283	6.12
2545.958	5.12
2549.63	8.12
2553.299	11.12
2556.964	11.12
2560.626	11.12
2564.285	14.12
2567.941	11.12
2571.594	4.12
2575.243	9.12
2578.89	6.12
2582.533	10.12
2586.173	8.12
2589.809	10.12
2593.443	11.12
2597.073	9.12
2600.701	7.12
2604.325	8.12
2607.946	6.12
2611.564	7.12
2615.178	4.12
2618.79	8.12
2622.398	7.12
2626.004	10.12
2629.606	6.12
2633.205	6.12
2636.801	8.12
2640.394	7.12
2643.983	8.12
2647.57	5.12
2651.153	4.12
2654.734	10.12
2658.311	10.12
2661.885	9.12
2665.456	8.12
2669.025	7.12
2672.589	6.12
2676.151	2.12
2679.71	4.12
2683.266	9.12
2686.819	8.12
2690.368	11.12
2693.915	8.12
2697.458	6.12
2700.999	4.12
2704.536	5.12
2708.071	4.12
2711.602	2.12
2715.13	8.12
2718.656	9.12
2722.178	14.12
2725.697	11.12
2729.214	12.12
2732.727	11.12
2736.237	11.12
2739.744	13.12
2743.249	6.12
2746.75	6.12
2750.248	9.12
2753.743	10.12
2757.236	11.12
2760.725	12.12
2764.211	7.12
2767.695	7.12
2771.175	6.12
2774.652	9.12
2778.127	6.12
2781.598	6.12
2785.067	7.12
2788.532	8.12
2791.995	8.12
2795.455	7.12
2798.911	8.12
2802.365	13.12
2805.816	10.12
2809.264	12.12
2812.709	15.12
2816.151	10.12
2819.59	15.12
2823.026	21.12
2826.46	25.12
2829.89	23.12
2833.318	29.12
2836.742	35.12
2840.164	40.12
2843.583	43.12
2846.999	54.12
2850.412	69.12
2853.822	75.12
2857.229	83.12
2860.634	83.12
2864.035	82.12
2867.434	83.12
2870.83	81.12
2874.223	85.12
2877.613	96.12
2881	95.12
2884.385	105.12
2887.766	108.12
2891.145	100.12
2894.521	104.12
2897.894	104.12
2901.264	104.12
2904.631	103.12
2907.996	102.12
2911.358	103.12
2914.717	100.12
2918.073	95.12
2921.426	96.12
2924.777	91.12
2928.124	96.12
2931.469	92.12
2934.811	90.12
2938.15	91.12
2941.487	84.12
2944.821	85.12
2948.152	82.12
2951.48	73.12
2954.805	66.12
2958.128	67.12
2961.447	66.12
2964.765	58.12
2968.079	56.12
2971.39	57.12
2974.699	53.12
2978.005	52.12
2981.308	44.12
2984.609	46.12
2987.907	47.12
2991.202	43.12
2994.494	36.12
2997.784	36.12
3001.07	35.12
3004.355	38.12
3007.636	44.12
3010.915	38.12
3014.191	37.12
3017.464	35.12
3020.734	32.12
3024.002	29.12
3027.267	28.12
3030.53	32.12
3033.789	36.12
3037.046	33.12
3040.301	33.12
3043.552	34.12
3046.801	32.12
3050.048	31.12
3053.291	31.12
3056.532	34.12
3059.771	35.12
3063.006	42.12
3066.239	44.12
3069.469	44.12
3072.697	43.12
3075.922	41.12
3079.144	47.12
3082.364	46.12
3085.581	47.12
3088.795	51.12
3092.007	55.12
3095.216	54.12
3098.423	54.12
3101.627	52.12
3104.828	51.12
3108.026	57.12
3111.222	57.12
3114.416	57.12
3117.607	62.12
3120.795	63.12
3123.98	68.12
3127.163	67.12
3130.344	66.12
3133.521	71.12
3136.696	69.12
3139.869	71.12
3143.039	70.12
3146.206	78.12
3149.371	81.12
3152.533	79.12
3155.693	75.12
3158.85	81.12
3162.005	79.12
3165.157	76.12
3168.306	80.12
3171.453	84.12
3174.597	81.12
3177.739	81.12
3180.878	83.12
3184.014	81.12
3187.149	83.12
3190.28	83.12
3193.409	77.12
3196.536	83.12
3199.659	81.12
3202.781	81.12
3205.9	83.12
3209.016	88.12
3212.13	89.12
3215.241	83.12
3218.35	78.12
3221.456	76.12
3224.56	76.12
3227.661	82.12
3230.76	79.12
3233.856	80.12
3236.95	78.12
3240.041	80.12
3243.13	71.12
3246.216	73.12
3249.3	74.12
3252.382	73.12
3255.46	70.12
3258.537	69.12
3261.611	71.12
3264.682	75.12
3267.751	75.12
3270.818	66.12
3273.882	69.12
3276.943	76.12
3280.002	69.12
3283.059	68.12
3286.113	65.12
3289.165	71.12
3292.214	69.12
3295.261	66.12
3298.306	66.12
3301.348	57.12
3304.387	64.12
3307.425	59.12
3310.459	60.12
3313.492	61.12
3316.521	60.12
3319.549	60.12
3322.574	59.12
3325.597	53.12
3328.617	52.12
3331.635	54.12
3334.65	51.12
3337.663	57.12
3340.674	50.12
3343.682	54.12
3346.688	52.12
3349.691	58.12
3352.692	51.12
3355.691	56.12
3358.687	51.12
3361.681	52.12
3364.673	49.12
3367.662	52.12
3370.649	50.12
3373.633	49.12
3376.615	50.12
3379.595	46.12
3382.572	49.12
3385.547	46.12
3388.52	40.12
3391.49	48.12
3394.458	45.12
3397.424	40.12
3400.387	40.12
3403.348	43.12
3406.307	43.12
3409.263	37.12
3412.217	35.12
3415.168	38.12
3418.118	37.12
3421.065	33.12
3424.009	40.12
3426.951	44.12
3429.891	35.12
3432.829	37.12
3435.764	34.12
3438.697	36.12
3441.628	31.12
3444.557	32.12
3447.483	28.12
3450.407	29.12
3453.328	33.12
3456.247	28.12
3459.164	26.12
3462.079	22.12
3464.991	19.12
3467.902	24.12
3470.809	19.12
3473.715	23.12
3476.618	20.12
3479.519	22.12
3482.418	15.12
3485.315	22.12
3488.209	15.12
3491.101	15.12
3493.99	10.12
3496.878	14.12
3499.763	13.12
3502.646	13.12
3505.527	8.12
3508.405	9.12
3511.281	8.12
3514.155	11.12
3517.027	4.12
3519.897	3.12
3522.764	5.12
3525.629	4.12
3528.492	7.12
3531.352	7.12
3534.211	2.12
3537.067	-1.88
3539.921	0.12
3542.773	3.12
3545.622	1.12
3548.469	-3.88
3551.315	-1.88
3554.157	-4.88
3556.998	-1.88
3559.837	-2.88
3562.673	-3.88
3565.507	-4.88
3568.339	-8.88
3571.169	-5.88
3573.996	-9.88
3576.822	-8.88
3579.645	-7.88
3582.466	-8.88
3585.285	-7.88
3588.101	-7.88
3590.916	-10.88
3593.728	-8.88
3596.538	-13.88
3599.346	-8.88
3602.152	-10.88
3604.956	-10.88
3607.757	-10.88
3610.556	-8.88
3613.354	-10.88
3616.149	-12.88
3618.942	-15.88
3621.732	-11.88
3624.521	-12.88
3627.307	-12.88
3630.092	-14.88
3632.874	-12.88
3635.654	-12.88
3638.432	-11.88
3641.208	-12.88
3643.982	-13.88
3646.753	-16.88
3649.523	-18.88
3652.29	-18.88
3655.055	-15.88
3657.818	-13.88
3660.579	-11.88
3663.338	-12.88
3666.095	-15.88
3668.849	-15.88
3671.602	-19.88
3674.352	-15.88
3677.101	-23.88
3679.847	-18.88
3682.591	-16.88
3685.333	-14.88
3688.073	-15.88
3690.811	-13.88
3693.547	-16.88
3696.281	-19.88
3699.013	-17.88
3701.742	-17.88
3704.47	-18.88
3707.195	-15.88
3709.919	-13.88
3712.64	-15.88
3715.359	-15.88
3718.076	-21.88
3720.792	-17.88
3723.505	-22.88
3726.216	-21.88
3728.925	-17.88
3731.632	-18.88
3734.336	-16.88
3737.039	-16.88
3739.74	-16.88
3742.439	-17.88
3745.136	-19.88
3747.83	-22.88
3750.523	-21.88
3753.213	-15.88
3755.902	-18.88
3758.589	-17.88
3761.273	-16.88
3763.956	-19.88
3766.636	-19.88
3769.315	-18.88
3771.991	-20.88
3774.665	-19.88
3777.338	-18.88
3780.008	-21.88
3782.677	-15.88
3785.343	-14.88
3788.007	-14.88
3790.67	-18.88
3793.33	-17.88
3795.989	-22.88
3798.645	-21.88
3801.299	-23.88
3803.952	-23.88
3806.602	-15.88
3809.251	-19.88
3811.897	-18.88
3814.542	-20.88
3817.184	-17.88
3819.825	-21.88
3822.463	-22.88
3825.1	-22.88
3827.735	-19.88
3830.367	-22.88
3832.998	-19.88
3835.627	-20.88
3838.253	-20.88
3840.878	-21.88
3843.501	-20.88
3846.122	-19.88
3848.741	-24.88
3851.358	-19.88
3853.973	-19.88
3856.586	-16.88
3859.197	-19.88
3861.806	-20.88
3864.414	-22.88
3867.019	-20.88
3869.622	-17.88
3872.224	-19.88
3874.823	-20.88
3877.421	-17.88
3880.016	-20.88
3882.61	-12.88
3885.202	-10.88
3887.792	-17.88
3890.38	-15.88
3892.966	-21.88
3895.55	-18.88
3898.132	-23.88
3900.713	-21.88
3903.291	-20.88
3905.868	-23.88
3908.442	-20.88
3911.015	-22.88
3913.586	-19.88
3916.155	-18.88
3918.722	-22.88
3921.287	-22.88
3923.85	-22.88
3926.411	-17.88
3928.971	-23.88
3931.528	-19.88
3934.084	-21.88
3936.638	-16.88
3939.19	-17.88
3941.74	-17.88
3944.288	-18.88
3946.834	-24.88
3949.378	-21.88
3951.921	-19.88
3954.462	-18.88
3957	-20.88
3959.537	-20.88
3962.072	-17.88
3964.606	-20.88
3967.137	-19.88
3969.667	-20.88
3972.194	-21.88
3974.72	-23.88
3977.244	-21.88
3979.766	-22.88
3982.286	-19.88
3984.805	-18.88
3987.321	-17.88
3989.836	-18.88
3992.349	-18.88
3994.86	-23.88
3997.369	-20.88
3999.877	-15.88
4002.382	-17.88
4004.886	-19.88
4007.388	-18.88
4009.888	-17.88
4012.386	-16.88
4014.883	-18.88
4017.377	-20.88
4019.87	-23.88
4022.361	-17.88
4024.85	-19.88
4027.338	-16.88
4029.823	-15.88
4032.307	-15.88
4034.789	-17.88
4037.269	-17.88
4039.747	-19.88
4042.224	-22.88
4044.699	-19.88
4047.172	-20.88
4049.643	-19.88
4052.112	-14.88
4054.58	-17.88
4057.046	-22.88
4059.51	-20.88
4061.972	-21.88
4064.432	-21.88
4066.891	-18.88
4069.348	-17.88
4071.803	-19.88
4074.256	-17.88
4076.708	-18.88
4079.158	-19.88
4081.606	-17.88
4084.052	-21.88
4086.497	-21.88
4088.939	-21.88
4091.38	-20.88
4093.819	-23.88
4096.257	-17.88
4098.693	-20.88
4101.127	-18.88
4103.559	-22.88
4105.989	-11.88
4108.418	-8.88
4110.845	-7.88
4113.27	-6.88
4115.694	-6.88
4118.115	-2.88
4120.535	-15.88
4122.954	-20.88
4125.37	-18.88
4127.785	-25.88
4130.198	-22.88
4132.609	-20.88
4135.019	-22.88
4137.427	-22.88
4139.833	-20.88
4142.237	-20.88
