Data from 1000CFU3_B_RamanShift_1.txt Node
Date: Mon Feb 13 14:11:34 IST 2017
User: aro
Spectrometer: QEPB0276
Trigger mode: 0
Integration Time (sec): 5.000000E0
Scans to average: 1
Electric dark correction enabled: true
Nonlinearity correction enabled: false
Boxcar width: 0
XAxis mode: Raman Shifts
Number of Pixels in Spectrum: 1044
>>>>>Begin Spectral Data<<<<<
160.701	-1.88
166.742	-0.88
172.777	21.12
178.805	70.12
184.826	179.12
190.841	381.12
196.849	590.12
202.85	739.12
208.845	785.12
214.833	758.12
220.815	737.12
226.789	740.12
232.758	736.12
238.719	724.12
244.674	714.12
250.623	698.12
256.565	685.12
262.5	654.12
268.429	642.12
274.351	639.12
280.267	616.12
286.176	621.12
292.079	619.12
297.975	609.12
303.865	599.12
309.748	595.12
315.625	600.12
321.495	593.12
327.359	577.12
333.217	591.12
339.068	601.12
344.912	605.12
350.751	598.12
356.583	626.12
362.408	607.12
368.227	607.12
374.04	599.12
379.847	605.12
385.647	598.12
391.44	597.12
397.228	612.12
403.009	615.12
408.784	609.12
414.553	615.12
420.315	615.12
426.071	626.12
431.821	616.12
437.565	624.12
443.302	622.12
449.033	616.12
454.758	620.12
460.477	610.12
466.189	608.12
471.896	586.12
477.596	583.12
483.29	579.12
488.978	578.12
494.66	565.12
500.335	554.12
506.005	535.12
511.668	509.12
517.325	496.12
522.977	474.12
528.622	447.12
534.261	450.12
539.894	448.12
545.521	446.12
551.141	428.12
556.756	417.12
562.365	415.12
567.968	410.12
573.565	416.12
579.155	419.12
584.74	415.12
590.319	401.12
595.892	408.12
601.459	409.12
607.02	399.12
612.575	395.12
618.124	385.12
623.667	378.12
629.204	377.12
634.735	386.12
640.261	377.12
645.781	372.12
651.294	367.12
656.802	371.12
662.304	359.12
667.8	359.12
673.29	355.12
678.775	351.12
684.254	351.12
689.726	362.12
695.193	345.12
700.655	346.12
706.11	349.12
711.56	341.12
717.004	347.12
722.442	349.12
727.874	344.12
733.301	346.12
738.722	342.12
744.137	335.12
749.547	331.12
754.951	334.12
760.349	336.12
765.741	342.12
771.128	341.12
776.509	346.12
781.885	350.12
787.254	352.12
792.618	343.12
797.977	337.12
803.33	338.12
808.677	337.12
814.019	330.12
819.355	343.12
824.686	340.12
830.011	339.12
835.33	344.12
840.644	346.12
845.952	344.12
851.255	350.12
856.552	354.12
861.844	355.12
867.13	357.12
872.41	354.12
877.686	352.12
882.955	357.12
888.219	353.12
893.478	346.12
898.731	337.12
903.979	329.12
909.221	321.12
914.458	309.12
919.69	306.12
924.916	302.12
930.136	308.12
935.351	308.12
940.561	304.12
945.766	306.12
950.965	307.12
956.158	300.12
961.347	293.12
966.529	291.12
971.707	282.12
976.879	283.12
982.046	281.12
987.208	275.12
992.364	275.12
997.515	286.12
1002.66	287.12
1007.801	294.12
1012.936	296.12
1018.066	304.12
1023.19	302.12
1028.309	312.12
1033.423	303.12
1038.532	306.12
1043.636	312.12
1048.734	314.12
1053.827	307.12
1058.915	313.12
1063.998	324.12
1069.075	330.12
1074.147	335.12
1079.214	328.12
1084.276	344.12
1089.333	343.12
1094.385	341.12
1099.431	331.12
1104.472	320.12
1109.509	319.12
1114.54	308.12
1119.565	310.12
1124.586	308.12
1129.602	313.12
1134.613	305.12
1139.618	285.12
1144.619	274.12
1149.614	271.12
1154.604	268.12
1159.589	260.12
1164.57	262.12
1169.545	252.12
1174.515	259.12
1179.48	250.12
1184.44	245.12
1189.395	233.12
1194.345	236.12
1199.29	238.12
1204.23	233.12
1209.165	231.12
1214.095	238.12
1219.021	233.12
1223.941	239.12
1228.856	248.12
1233.766	251.12
1238.672	261.12
1243.572	259.12
1248.467	252.12
1253.358	267.12
1258.244	265.12
1263.124	263.12
1268	269.12
1272.871	267.12
1277.737	267.12
1282.599	248.12
1287.455	259.12
1292.306	263.12
1297.153	270.12
1301.995	286.12
1306.832	290.12
1311.664	286.12
1316.491	277.12
1321.314	268.12
1326.132	253.12
1330.945	244.12
1335.753	238.12
1340.556	228.12
1345.354	226.12
1350.148	226.12
1354.937	217.12
1359.722	216.12
1364.501	221.12
1369.276	226.12
1374.046	218.12
1378.811	222.12
1383.572	222.12
1388.327	215.12
1393.079	203.12
1397.825	209.12
1402.567	201.12
1407.304	196.12
1412.036	204.12
1416.764	205.12
1421.487	212.12
1426.205	209.12
1430.919	216.12
1435.628	235.12
1440.333	270.12
1445.032	281.12
1449.727	283.12
1454.418	285.12
1459.104	275.12
1463.785	264.12
1468.462	244.12
1473.134	233.12
1477.802	211.12
1482.465	187.12
1487.123	173.12
1491.777	169.12
1496.426	171.12
1501.071	156.12
1505.711	162.12
1510.347	161.12
1514.978	158.12
1519.604	159.12
1524.226	164.12
1528.844	162.12
1533.457	156.12
1538.065	154.12
1542.669	156.12
1547.269	151.12
1551.864	147.12
1556.454	157.12
1561.041	158.12
1565.622	162.12
1570.199	146.12
1574.772	150.12
1579.34	153.12
1583.904	155.12
1588.464	155.12
1593.019	162.12
1597.569	161.12
1602.115	160.12
1606.657	159.12
1611.195	164.12
1615.728	163.12
1620.256	164.12
1624.78	164.12
1629.3	166.12
1633.816	162.12
1638.327	167.12
1642.834	175.12
1647.336	186.12
1651.834	189.12
1656.328	191.12
1660.817	195.12
1665.302	191.12
1669.783	190.12
1674.259	180.12
1678.732	171.12
1683.199	159.12
1687.663	153.12
1692.122	148.12
1696.577	138.12
1701.028	133.12
1705.474	125.12
1709.917	128.12
1714.355	127.12
1718.788	123.12
1723.218	118.12
1727.643	114.12
1732.064	106.12
1736.481	110.12
1740.893	106.12
1745.301	110.12
1749.705	112.12
1754.105	98.12
1758.501	105.12
1762.893	93.12
1767.28	89.12
1771.663	86.12
1776.042	87.12
1780.417	84.12
1784.787	86.12
1789.154	87.12
1793.516	85.12
1797.874	83.12
1802.228	86.12
1806.578	88.12
1810.924	84.12
1815.266	81.12
1819.603	82.12
1823.937	78.12
1828.266	83.12
1832.591	81.12
1836.913	75.12
1841.23	74.12
1845.543	72.12
1849.852	70.12
1854.156	73.12
1858.457	78.12
1862.754	71.12
1867.047	66.12
1871.335	77.12
1875.62	76.12
1879.9	69.12
1884.177	68.12
1888.449	78.12
1892.718	68.12
1896.982	71.12
1901.243	70.12
1905.499	66.12
1909.752	71.12
1914	71.12
1918.245	69.12
1922.485	67.12
1926.722	69.12
1930.954	68.12
1935.183	71.12
1939.408	71.12
1943.628	67.12
1947.845	70.12
1952.058	73.12
1956.267	74.12
1960.472	65.12
1964.673	67.12
1968.87	66.12
1973.063	68.12
1977.252	64.12
1981.438	63.12
1985.619	61.12
1989.797	68.12
1993.971	64.12
1998.14	62.12
2002.306	61.12
2006.469	59.12
2010.627	58.12
2014.781	65.12
2018.932	61.12
2023.078	60.12
2027.221	57.12
2031.36	59.12
2035.495	56.12
2039.627	61.12
2043.754	56.12
2047.878	56.12
2051.998	58.12
2056.114	55.12
2060.226	53.12
2064.334	55.12
2068.439	53.12
2072.54	56.12
2076.637	59.12
2080.73	62.12
2084.82	61.12
2088.906	57.12
2092.988	57.12
2097.066	54.12
2101.14	58.12
2105.211	62.12
2109.278	56.12
2113.342	57.12
2117.401	61.12
2121.457	62.12
2125.509	57.12
2129.558	51.12
2133.602	55.12
2137.643	50.12
2141.681	51.12
2145.714	50.12
2149.744	50.12
2153.77	53.12
2157.793	51.12
2161.812	47.12
2165.827	50.12
2169.838	44.12
2173.846	49.12
2177.851	48.12
2181.851	45.12
2185.848	42.12
2189.841	44.12
2193.831	42.12
2197.817	46.12
2201.799	41.12
2205.778	41.12
2209.753	42.12
2213.725	38.12
2217.693	38.12
2221.657	38.12
2225.618	45.12
2229.575	41.12
2233.529	40.12
2237.479	39.12
2241.425	37.12
2245.368	33.12
2249.307	34.12
2253.243	31.12
2257.175	33.12
2261.104	33.12
2265.029	37.12
2268.95	30.12
2272.868	27.12
2276.783	30.12
2280.694	28.12
2284.601	35.12
2288.505	31.12
2292.405	29.12
2296.302	29.12
2300.195	27.12
2304.085	26.12
2307.971	27.12
2311.854	24.12
2315.734	24.12
2319.609	23.12
2323.482	19.12
2327.351	27.12
2331.216	29.12
2335.078	29.12
2338.937	24.12
2342.792	27.12
2346.643	19.12
2350.492	18.12
2354.336	17.12
2358.178	20.12
2362.015	23.12
2365.85	22.12
2369.681	20.12
2373.508	20.12
2377.333	19.12
2381.153	18.12
2384.971	17.12
2388.785	21.12
2392.595	16.12
2396.402	22.12
2400.206	19.12
2404.007	21.12
2407.804	14.12
2411.597	16.12
2415.388	11.12
2419.174	18.12
2422.958	18.12
2426.738	12.12
2430.515	14.12
2434.289	18.12
2438.059	16.12
2441.825	11.12
2445.589	12.12
2449.349	15.12
2453.106	12.12
2456.859	14.12
2460.61	10.12
2464.356	10.12
2468.1	12.12
2471.84	11.12
2475.577	11.12
2479.311	10.12
2483.041	12.12
2486.768	9.12
2490.492	11.12
2494.213	13.12
2497.93	12.12
2501.644	14.12
2505.355	12.12
2509.062	12.12
2512.766	7.12
2516.467	12.12
2520.165	6.12
2523.859	11.12
2527.551	13.12
2531.239	13.12
2534.923	8.12
2538.605	10.12
2542.283	16.12
2545.958	13.12
2549.63	10.12
2553.299	15.12
2556.964	6.12
2560.626	12.12
2564.285	10.12
2567.941	14.12
2571.594	6.12
2575.243	13.12
2578.89	10.12
2582.533	13.12
2586.173	9.12
2589.809	9.12
2593.443	15.12
2597.073	11.12
2600.701	10.12
2604.325	9.12
2607.946	7.12
2611.564	9.12
2615.178	7.12
2618.79	7.12
2622.398	16.12
2626.004	9.12
2629.606	6.12
2633.205	5.12
2636.801	12.12
2640.394	12.12
2643.983	12.12
2647.57	7.12
2651.153	8.12
2654.734	12.12
2658.311	6.12
2661.885	11.12
2665.456	12.12
2669.025	7.12
2672.589	9.12
2676.151	7.12
2679.71	9.12
2683.266	13.12
2686.819	12.12
2690.368	13.12
2693.915	4.12
2697.458	6.12
2700.999	7.12
2704.536	6.12
2708.071	6.12
2711.602	9.12
2715.13	9.12
2718.656	9.12
2722.178	9.12
2725.697	12.12
2729.214	10.12
2732.727	13.12
2736.237	14.12
2739.744	15.12
2743.249	10.12
2746.75	12.12
2750.248	12.12
2753.743	9.12
2757.236	10.12
2760.725	8.12
2764.211	8.12
2767.695	9.12
2771.175	8.12
2774.652	12.12
2778.127	9.12
2781.598	7.12
2785.067	10.12
2788.532	8.12
2791.995	8.12
2795.455	11.12
2798.911	11.12
2802.365	14.12
2805.816	13.12
2809.264	15.12
2812.709	22.12
2816.151	16.12
2819.59	18.12
2823.026	17.12
2826.46	24.12
2829.89	25.12
2833.318	36.12
2836.742	34.12
2840.164	42.12
2843.583	50.12
2846.999	60.12
2850.412	71.12
2853.822	73.12
2857.229	84.12
2860.634	84.12
2864.035	88.12
2867.434	92.12
2870.83	93.12
2874.223	92.12
2877.613	103.12
2881	107.12
2884.385	109.12
2887.766	112.12
2891.145	103.12
2894.521	108.12
2897.894	108.12
2901.264	114.12
2904.631	110.12
2907.996	107.12
2911.358	104.12
2914.717	105.12
2918.073	100.12
2921.426	95.12
2924.777	96.12
2928.124	92.12
2931.469	97.12
2934.811	97.12
2938.15	93.12
2941.487	89.12
2944.821	79.12
2948.152	78.12
2951.48	75.12
2954.805	71.12
2958.128	65.12
2961.447	73.12
2964.765	61.12
2968.079	61.12
2971.39	59.12
2974.699	58.12
2978.005	54.12
2981.308	43.12
2984.609	44.12
2987.907	43.12
2991.202	45.12
2994.494	40.12
2997.784	42.12
3001.07	42.12
3004.355	41.12
3007.636	40.12
3010.915	34.12
3014.191	34.12
3017.464	38.12
3020.734	36.12
3024.002	33.12
3027.267	35.12
3030.53	31.12
3033.789	35.12
3037.046	31.12
3040.301	36.12
3043.552	30.12
3046.801	32.12
3050.048	35.12
3053.291	39.12
3056.532	42.12
3059.771	40.12
3063.006	41.12
3066.239	46.12
3069.469	47.12
3072.697	46.12
3075.922	51.12
3079.144	45.12
3082.364	55.12
3085.581	53.12
3088.795	56.12
3092.007	55.12
3095.216	58.12
3098.423	56.12
3101.627	56.12
3104.828	56.12
3108.026	58.12
3111.222	61.12
3114.416	63.12
3117.607	70.12
3120.795	65.12
3123.98	67.12
3127.163	65.12
3130.344	68.12
3133.521	69.12
3136.696	77.12
3139.869	76.12
3143.039	74.12
3146.206	79.12
3149.371	81.12
3152.533	84.12
3155.693	82.12
3158.85	82.12
3162.005	77.12
3165.157	77.12
3168.306	83.12
3171.453	83.12
3174.597	83.12
3177.739	84.12
3180.878	84.12
3184.014	91.12
3187.149	82.12
3190.28	82.12
3193.409	84.12
3196.536	80.12
3199.659	90.12
3202.781	86.12
3205.9	86.12
3209.016	89.12
3212.13	87.12
3215.241	90.12
3218.35	77.12
3221.456	85.12
3224.56	81.12
3227.661	81.12
3230.76	79.12
3233.856	81.12
3236.95	85.12
3240.041	78.12
3243.13	77.12
3246.216	73.12
3249.3	76.12
3252.382	73.12
3255.46	71.12
3258.537	78.12
3261.611	73.12
3264.682	80.12
3267.751	79.12
3270.818	75.12
3273.882	80.12
3276.943	73.12
3280.002	77.12
3283.059	71.12
3286.113	72.12
3289.165	74.12
3292.214	71.12
3295.261	67.12
3298.306	72.12
3301.348	61.12
3304.387	63.12
3307.425	59.12
3310.459	67.12
3313.492	57.12
3316.521	54.12
3319.549	61.12
3322.574	61.12
3325.597	59.12
3328.617	55.12
3331.635	59.12
3334.65	52.12
3337.663	57.12
3340.674	60.12
3343.682	56.12
3346.688	58.12
3349.691	58.12
3352.692	55.12
3355.691	55.12
3358.687	54.12
3361.681	51.12
3364.673	49.12
3367.662	54.12
3370.649	55.12
3373.633	50.12
3376.615	50.12
3379.595	47.12
3382.572	48.12
3385.547	47.12
3388.52	41.12
3391.49	46.12
3394.458	48.12
3397.424	39.12
3400.387	43.12
3403.348	42.12
3406.307	42.12
3409.263	42.12
3412.217	38.12
3415.168	46.12
3418.118	38.12
3421.065	36.12
3424.009	40.12
3426.951	41.12
3429.891	37.12
3432.829	36.12
3435.764	36.12
3438.697	40.12
3441.628	34.12
3444.557	33.12
3447.483	28.12
3450.407	30.12
3453.328	27.12
3456.247	30.12
3459.164	26.12
3462.079	26.12
3464.991	23.12
3467.902	22.12
3470.809	22.12
3473.715	21.12
3476.618	19.12
3479.519	23.12
3482.418	16.12
3485.315	22.12
3488.209	18.12
3491.101	18.12
3493.99	18.12
3496.878	13.12
3499.763	16.12
3502.646	13.12
3505.527	12.12
3508.405	10.12
3511.281	8.12
3514.155	10.12
3517.027	7.12
3519.897	4.12
3522.764	4.12
3525.629	4.12
3528.492	6.12
3531.352	7.12
3534.211	3.12
3537.067	3.12
3539.921	2.12
3542.773	2.12
3545.622	1.12
3548.469	-0.88
3551.315	-2.88
3554.157	-0.88
3556.998	-5.88
3559.837	-3.88
3562.673	-5.88
3565.507	-2.88
3568.339	-6.88
3571.169	-2.88
3573.996	-8.88
3576.822	-7.88
3579.645	-9.88
3582.466	-9.88
3585.285	-10.88
3588.101	-7.88
3590.916	-9.88
3593.728	-7.88
3596.538	-8.88
3599.346	-7.88
3602.152	-11.88
3604.956	-10.88
3607.757	-11.88
3610.556	-10.88
3613.354	-10.88
3616.149	-8.88
3618.942	-10.88
3621.732	-7.88
3624.521	-11.88
3627.307	-12.88
3630.092	-16.88
3632.874	-14.88
3635.654	-14.88
3638.432	-14.88
3641.208	-13.88
3643.982	-13.88
3646.753	-13.88
3649.523	-12.88
3652.29	-16.88
3655.055	-14.88
3657.818	-18.88
3660.579	-13.88
3663.338	-18.88
3666.095	-15.88
3668.849	-16.88
3671.602	-17.88
3674.352	-17.88
3677.101	-20.88
3679.847	-18.88
3682.591	-20.88
3685.333	-17.88
3688.073	-14.88
3690.811	-15.88
3693.547	-14.88
3696.281	-19.88
3699.013	-18.88
3701.742	-16.88
3704.47	-18.88
3707.195	-22.88
3709.919	-16.88
3712.64	-17.88
3715.359	-13.88
3718.076	-19.88
3720.792	-15.88
3723.505	-21.88
3726.216	-23.88
3728.925	-22.88
3731.632	-22.88
3734.336	-22.88
3737.039	-18.88
3739.74	-15.88
3742.439	-15.88
3745.136	-19.88
3747.83	-18.88
3750.523	-20.88
3753.213	-19.88
3755.902	-19.88
3758.589	-21.88
3761.273	-20.88
3763.956	-18.88
3766.636	-19.88
3769.315	-16.88
3771.991	-21.88
3774.665	-18.88
3777.338	-20.88
3780.008	-22.88
3782.677	-18.88
3785.343	-16.88
3788.007	-19.88
3790.67	-18.88
3793.33	-20.88
3795.989	-20.88
3798.645	-22.88
3801.299	-24.88
3803.952	-23.88
3806.602	-19.88
3809.251	-19.88
3811.897	-20.88
3814.542	-20.88
3817.184	-16.88
3819.825	-21.88
3822.463	-20.88
3825.1	-21.88
3827.735	-21.88
3830.367	-24.88
3832.998	-20.88
3835.627	-22.88
3838.253	-19.88
3840.878	-23.88
3843.501	-19.88
3846.122	-20.88
3848.741	-21.88
3851.358	-19.88
3853.973	-20.88
3856.586	-19.88
3859.197	-21.88
3861.806	-20.88
3864.414	-20.88
3867.019	-18.88
3869.622	-19.88
3872.224	-19.88
3874.823	-21.88
3877.421	-18.88
3880.016	-19.88
3882.61	-11.88
3885.202	-11.88
3887.792	-16.88
3890.38	-13.88
3892.966	-16.88
3895.55	-16.88
3898.132	-24.88
3900.713	-20.88
3903.291	-23.88
3905.868	-20.88
3908.442	-18.88
3911.015	-21.88
3913.586	-18.88
3916.155	-17.88
3918.722	-18.88
3921.287	-20.88
3923.85	-19.88
3926.411	-20.88
3928.971	-24.88
3931.528	-20.88
3934.084	-20.88
3936.638	-17.88
3939.19	-19.88
3941.74	-13.88
3944.288	-13.88
3946.834	-17.88
3949.378	-20.88
3951.921	-21.88
3954.462	-20.88
3957	-19.88
3959.537	-19.88
3962.072	-15.88
3964.606	-18.88
3967.137	-17.88
3969.667	-21.88
3972.194	-20.88
3974.72	-21.88
3977.244	-24.88
3979.766	-23.88
3982.286	-21.88
3984.805	-19.88
3987.321	-16.88
3989.836	-15.88
3992.349	-18.88
3994.86	-21.88
3997.369	-22.88
3999.877	-17.88
4002.382	-20.88
4004.886	-18.88
4007.388	-18.88
4009.888	-18.88
4012.386	-16.88
4014.883	-18.88
4017.377	-17.88
4019.87	-21.88
4022.361	-19.88
4024.85	-18.88
4027.338	-17.88
4029.823	-18.88
4032.307	-15.88
4034.789	-16.88
4037.269	-18.88
4039.747	-18.88
4042.224	-19.88
4044.699	-21.88
4047.172	-17.88
4049.643	-21.88
4052.112	-15.88
4054.58	-20.88
4057.046	-17.88
4059.51	-16.88
4061.972	-19.88
4064.432	-19.88
4066.891	-21.88
4069.348	-19.88
4071.803	-17.88
4074.256	-16.88
4076.708	-17.88
4079.158	-22.88
4081.606	-16.88
4084.052	-19.88
4086.497	-18.88
4088.939	-21.88
4091.38	-21.88
4093.819	-23.88
4096.257	-17.88
4098.693	-19.88
4101.127	-17.88
4103.559	-22.88
4105.989	-10.88
4108.418	-10.88
4110.845	-5.88
4113.27	-6.88
4115.694	-2.88
4118.115	-2.88
4120.535	-16.88
4122.954	-16.88
4125.37	-16.88
4127.785	-18.88
4130.198	-18.88
4132.609	-20.88
4135.019	-23.88
4137.427	-22.88
4139.833	-21.88
4142.237	-19.88
