Data from 10000000CFU3_A_RamanShift_1.txt Node
Date: Mon Feb 13 13:50:24 IST 2017
User: aro
Spectrometer: QEPB0276
Trigger mode: 0
Integration Time (sec): 5.000000E0
Scans to average: 1
Electric dark correction enabled: true
Nonlinearity correction enabled: false
Boxcar width: 0
XAxis mode: Raman Shifts
Number of Pixels in Spectrum: 1044
>>>>>Begin Spectral Data<<<<<
160.701	-6.25
166.742	3.75
172.777	21.75
178.805	70.75
184.826	174.75
190.841	356.75
196.849	553.75
202.85	692.75
208.845	742.75
214.833	730.75
220.815	705.75
226.789	694.75
232.758	691.75
238.719	688.75
244.674	679.75
250.623	651.75
256.565	639.75
262.5	630.75
268.429	611.75
274.351	595.75
280.267	594.75
286.176	582.75
292.079	578.75
297.975	576.75
303.865	573.75
309.748	573.75
315.625	570.75
321.495	574.75
327.359	575.75
333.217	568.75
339.068	566.75
344.912	573.75
350.751	576.75
356.583	587.75
362.408	592.75
368.227	576.75
374.04	560.75
379.847	567.75
385.647	570.75
391.44	576.75
397.228	573.75
403.009	572.75
408.784	591.75
414.553	591.75
420.315	586.75
426.071	592.75
431.821	597.75
437.565	597.75
443.302	594.75
449.033	591.75
454.758	587.75
460.477	588.75
466.189	574.75
471.896	566.75
477.596	560.75
483.29	553.75
488.978	554.75
494.66	541.75
500.335	533.75
506.005	513.75
511.668	501.75
517.325	469.75
522.977	456.75
528.622	442.75
534.261	421.75
539.894	415.75
545.521	407.75
551.141	401.75
556.756	411.75
562.365	400.75
567.968	389.75
573.565	381.75
579.155	384.75
584.74	386.75
590.319	381.75
595.892	384.75
601.459	380.75
607.02	376.75
612.575	373.75
618.124	375.75
623.667	363.75
629.204	356.75
634.735	353.75
640.261	353.75
645.781	351.75
651.294	355.75
656.802	352.75
662.304	337.75
667.8	350.75
673.29	324.75
678.775	333.75
684.254	330.75
689.726	331.75
695.193	327.75
700.655	331.75
706.11	323.75
711.56	326.75
717.004	322.75
722.442	321.75
727.874	317.75
733.301	324.75
738.722	317.75
744.137	325.75
749.547	310.75
754.951	309.75
760.349	314.75
765.741	322.75
771.128	314.75
776.509	314.75
781.885	321.75
787.254	323.75
792.618	323.75
797.977	320.75
803.33	327.75
808.677	319.75
814.019	316.75
819.355	313.75
824.686	307.75
830.011	308.75
835.33	323.75
840.644	318.75
845.952	326.75
851.255	334.75
856.552	334.75
861.844	339.75
867.13	320.75
872.41	329.75
877.686	324.75
882.955	337.75
888.219	329.75
893.478	322.75
898.731	318.75
903.979	310.75
909.221	294.75
914.458	286.75
919.69	285.75
924.916	292.75
930.136	291.75
935.351	288.75
940.561	288.75
945.766	285.75
950.965	281.75
956.158	277.75
961.347	274.75
966.529	275.75
971.707	270.75
976.879	264.75
982.046	272.75
987.208	259.75
992.364	260.75
997.515	263.75
1002.66	267.75
1007.801	267.75
1012.936	276.75
1018.066	282.75
1023.19	288.75
1028.309	280.75
1033.423	290.75
1038.532	286.75
1043.636	285.75
1048.734	285.75
1053.827	287.75
1058.915	291.75
1063.998	302.75
1069.075	305.75
1074.147	312.75
1079.214	315.75
1084.276	313.75
1089.333	326.75
1094.385	320.75
1099.431	309.75
1104.472	302.75
1109.509	289.75
1114.54	285.75
1119.565	291.75
1124.586	291.75
1129.602	286.75
1134.613	277.75
1139.618	271.75
1144.619	248.75
1149.614	247.75
1154.604	250.75
1159.589	247.75
1164.57	237.75
1169.545	243.75
1174.515	241.75
1179.48	233.75
1184.44	227.75
1189.395	223.75
1194.345	213.75
1199.29	215.75
1204.23	221.75
1209.165	223.75
1214.095	222.75
1219.021	225.75
1223.941	237.75
1228.856	227.75
1233.766	235.75
1238.672	241.75
1243.572	253.75
1248.467	239.75
1253.358	247.75
1258.244	251.75
1263.124	248.75
1268	246.75
1272.871	245.75
1277.737	254.75
1282.599	234.75
1287.455	233.75
1292.306	243.75
1297.153	247.75
1301.995	269.75
1306.832	270.75
1311.664	271.75
1316.491	256.75
1321.314	250.75
1326.132	241.75
1330.945	227.75
1335.753	223.75
1340.556	224.75
1345.354	214.75
1350.148	214.75
1354.937	207.75
1359.722	200.75
1364.501	200.75
1369.276	200.75
1374.046	204.75
1378.811	209.75
1383.572	195.75
1388.327	200.75
1393.079	192.75
1397.825	187.75
1402.567	180.75
1407.304	178.75
1412.036	181.75
1416.764	188.75
1421.487	196.75
1426.205	196.75
1430.919	212.75
1435.628	220.75
1440.333	244.75
1445.032	255.75
1449.727	268.75
1454.418	272.75
1459.104	259.75
1463.785	259.75
1468.462	232.75
1473.134	219.75
1477.802	200.75
1482.465	174.75
1487.123	170.75
1491.777	161.75
1496.426	149.75
1501.071	147.75
1505.711	149.75
1510.347	148.75
1514.978	144.75
1519.604	153.75
1524.226	149.75
1528.844	144.75
1533.457	147.75
1538.065	141.75
1542.669	147.75
1547.269	143.75
1551.864	144.75
1556.454	146.75
1561.041	146.75
1565.622	141.75
1570.199	140.75
1574.772	141.75
1579.34	147.75
1583.904	147.75
1588.464	150.75
1593.019	144.75
1597.569	148.75
1602.115	148.75
1606.657	145.75
1611.195	150.75
1615.728	154.75
1620.256	151.75
1624.78	154.75
1629.3	159.75
1633.816	158.75
1638.327	164.75
1642.834	162.75
1647.336	166.75
1651.834	175.75
1656.328	170.75
1660.817	184.75
1665.302	177.75
1669.783	172.75
1674.259	164.75
1678.732	156.75
1683.199	147.75
1687.663	148.75
1692.122	139.75
1696.577	136.75
1701.028	124.75
1705.474	125.75
1709.917	119.75
1714.355	113.75
1718.788	114.75
1723.218	106.75
1727.643	108.75
1732.064	103.75
1736.481	103.75
1740.893	100.75
1745.301	94.75
1749.705	99.75
1754.105	92.75
1758.501	93.75
1762.893	87.75
1767.28	83.75
1771.663	75.75
1776.042	77.75
1780.417	77.75
1784.787	73.75
1789.154	71.75
1793.516	80.75
1797.874	76.75
1802.228	81.75
1806.578	79.75
1810.924	75.75
1815.266	66.75
1819.603	75.75
1823.937	71.75
1828.266	67.75
1832.591	68.75
1836.913	70.75
1841.23	67.75
1845.543	63.75
1849.852	64.75
1854.156	64.75
1858.457	62.75
1862.754	65.75
1867.047	69.75
1871.335	59.75
1875.62	63.75
1879.9	62.75
1884.177	58.75
1888.449	65.75
1892.718	66.75
1896.982	62.75
1901.243	69.75
1905.499	63.75
1909.752	61.75
1914	61.75
1918.245	57.75
1922.485	64.75
1926.722	60.75
1930.954	62.75
1935.183	74.75
1939.408	69.75
1943.628	67.75
1947.845	61.75
1952.058	64.75
1956.267	63.75
1960.472	60.75
1964.673	60.75
1968.87	58.75
1973.063	62.75
1977.252	60.75
1981.438	52.75
1985.619	55.75
1989.797	53.75
1993.971	54.75
1998.14	51.75
2002.306	52.75
2006.469	59.75
2010.627	54.75
2014.781	48.75
2018.932	53.75
2023.078	51.75
2027.221	54.75
2031.36	51.75
2035.495	49.75
2039.627	55.75
2043.754	54.75
2047.878	46.75
2051.998	49.75
2056.114	49.75
2060.226	48.75
2064.334	47.75
2068.439	51.75
2072.54	50.75
2076.637	52.75
2080.73	52.75
2084.82	53.75
2088.906	54.75
2092.988	54.75
2097.066	49.75
2101.14	49.75
2105.211	51.75
2109.278	49.75
2113.342	49.75
2117.401	52.75
2121.457	49.75
2125.509	51.75
2129.558	44.75
2133.602	49.75
2137.643	46.75
2141.681	40.75
2145.714	44.75
2149.744	46.75
2153.77	48.75
2157.793	41.75
2161.812	46.75
2165.827	53.75
2169.838	41.75
2173.846	42.75
2177.851	36.75
2181.851	42.75
2185.848	39.75
2189.841	36.75
2193.831	39.75
2197.817	39.75
2201.799	36.75
2205.778	34.75
2209.753	34.75
2213.725	34.75
2217.693	33.75
2221.657	30.75
2225.618	37.75
2229.575	34.75
2233.529	28.75
2237.479	34.75
2241.425	32.75
2245.368	29.75
2249.307	31.75
2253.243	34.75
2257.175	32.75
2261.104	29.75
2265.029	30.75
2268.95	25.75
2272.868	27.75
2276.783	30.75
2280.694	26.75
2284.601	29.75
2288.505	26.75
2292.405	24.75
2296.302	24.75
2300.195	16.75
2304.085	21.75
2307.971	22.75
2311.854	26.75
2315.734	22.75
2319.609	22.75
2323.482	17.75
2327.351	16.75
2331.216	20.75
2335.078	21.75
2338.937	22.75
2342.792	19.75
2346.643	21.75
2350.492	21.75
2354.336	12.75
2358.178	17.75
2362.015	14.75
2365.85	7.75
2369.681	8.75
2373.508	14.75
2377.333	18.75
2381.153	17.75
2384.971	15.75
2388.785	15.75
2392.595	11.75
2396.402	10.75
2400.206	15.75
2404.007	8.75
2407.804	14.75
2411.597	11.75
2415.388	10.75
2419.174	11.75
2422.958	14.75
2426.738	7.75
2430.515	9.75
2434.289	11.75
2438.059	8.75
2441.825	7.75
2445.589	12.75
2449.349	6.75
2453.106	7.75
2456.859	8.75
2460.61	11.75
2464.356	11.75
2468.1	2.75
2471.84	8.75
2475.577	5.75
2479.311	8.75
2483.041	8.75
2486.768	12.75
2490.492	9.75
2494.213	9.75
2497.93	9.75
2501.644	6.75
2505.355	8.75
2509.062	1.75
2512.766	7.75
2516.467	7.75
2520.165	8.75
2523.859	8.75
2527.551	11.75
2531.239	4.75
2534.923	3.75
2538.605	4.75
2542.283	6.75
2545.958	5.75
2549.63	10.75
2553.299	9.75
2556.964	8.75
2560.626	7.75
2564.285	2.75
2567.941	3.75
2571.594	6.75
2575.243	4.75
2578.89	4.75
2582.533	8.75
2586.173	10.75
2589.809	8.75
2593.443	4.75
2597.073	4.75
2600.701	7.75
2604.325	3.75
2607.946	2.75
2611.564	6.75
2615.178	9.75
2618.79	5.75
2622.398	7.75
2626.004	3.75
2629.606	4.75
2633.205	6.75
2636.801	4.75
2640.394	4.75
2643.983	6.75
2647.57	3.75
2651.153	7.75
2654.734	3.75
2658.311	8.75
2661.885	3.75
2665.456	6.75
2669.025	3.75
2672.589	5.75
2676.151	4.75
2679.71	4.75
2683.266	4.75
2686.819	4.75
2690.368	3.75
2693.915	1.75
2697.458	6.75
2700.999	2.75
2704.536	2.75
2708.071	6.75
2711.602	5.75
2715.13	6.75
2718.656	10.75
2722.178	3.75
2725.697	7.75
2729.214	6.75
2732.727	8.75
2736.237	8.75
2739.744	5.75
2743.249	3.75
2746.75	6.75
2750.248	6.75
2753.743	5.75
2757.236	4.75
2760.725	8.75
2764.211	2.75
2767.695	6.75
2771.175	2.75
2774.652	0.75
2778.127	3.75
2781.598	5.75
2785.067	7.75
2788.532	9.75
2791.995	8.75
2795.455	10.75
2798.911	0.75
2802.365	4.75
2805.816	8.75
2809.264	10.75
2812.709	9.75
2816.151	11.75
2819.59	13.75
2823.026	19.75
2826.46	16.75
2829.89	17.75
2833.318	20.75
2836.742	26.75
2840.164	31.75
2843.583	40.75
2846.999	52.75
2850.412	65.75
2853.822	67.75
2857.229	72.75
2860.634	75.75
2864.035	74.75
2867.434	74.75
2870.83	78.75
2874.223	89.75
2877.613	89.75
2881	88.75
2884.385	98.75
2887.766	98.75
2891.145	97.75
2894.521	100.75
2897.894	103.75
2901.264	97.75
2904.631	91.75
2907.996	93.75
2911.358	94.75
2914.717	89.75
2918.073	85.75
2921.426	84.75
2924.777	83.75
2928.124	84.75
2931.469	93.75
2934.811	84.75
2938.15	82.75
2941.487	77.75
2944.821	76.75
2948.152	76.75
2951.48	62.75
2954.805	64.75
2958.128	63.75
2961.447	62.75
2964.765	61.75
2968.079	48.75
2971.39	45.75
2974.699	46.75
2978.005	47.75
2981.308	43.75
2984.609	46.75
2987.907	42.75
2991.202	41.75
2994.494	37.75
2997.784	37.75
3001.07	33.75
3004.355	33.75
3007.636	32.75
3010.915	34.75
3014.191	33.75
3017.464	32.75
3020.734	29.75
3024.002	27.75
3027.267	27.75
3030.53	26.75
3033.789	26.75
3037.046	23.75
3040.301	27.75
3043.552	29.75
3046.801	31.75
3050.048	32.75
3053.291	28.75
3056.532	31.75
3059.771	33.75
3063.006	33.75
3066.239	31.75
3069.469	36.75
3072.697	38.75
3075.922	35.75
3079.144	40.75
3082.364	40.75
3085.581	42.75
3088.795	46.75
3092.007	48.75
3095.216	47.75
3098.423	44.75
3101.627	51.75
3104.828	45.75
3108.026	52.75
3111.222	57.75
3114.416	57.75
3117.607	50.75
3120.795	58.75
3123.98	58.75
3127.163	56.75
3130.344	60.75
3133.521	63.75
3136.696	69.75
3139.869	69.75
3143.039	72.75
3146.206	70.75
3149.371	69.75
3152.533	71.75
3155.693	65.75
3158.85	70.75
3162.005	75.75
3165.157	73.75
3168.306	73.75
3171.453	72.75
3174.597	78.75
3177.739	73.75
3180.878	68.75
3184.014	78.75
3187.149	69.75
3190.28	75.75
3193.409	74.75
3196.536	81.75
3199.659	83.75
3202.781	81.75
3205.9	77.75
3209.016	72.75
3212.13	74.75
3215.241	77.75
3218.35	75.75
3221.456	72.75
3224.56	77.75
3227.661	79.75
3230.76	68.75
3233.856	68.75
3236.95	65.75
3240.041	72.75
3243.13	62.75
3246.216	66.75
3249.3	70.75
3252.382	64.75
3255.46	69.75
3258.537	66.75
3261.611	68.75
3264.682	67.75
3267.751	67.75
3270.818	66.75
3273.882	67.75
3276.943	67.75
3280.002	59.75
3283.059	67.75
3286.113	65.75
3289.165	64.75
3292.214	63.75
3295.261	61.75
3298.306	57.75
3301.348	53.75
3304.387	53.75
3307.425	55.75
3310.459	51.75
3313.492	49.75
3316.521	55.75
3319.549	55.75
3322.574	53.75
3325.597	51.75
3328.617	48.75
3331.635	48.75
3334.65	44.75
3337.663	49.75
3340.674	45.75
3343.682	51.75
3346.688	47.75
3349.691	53.75
3352.692	48.75
3355.691	45.75
3358.687	49.75
3361.681	45.75
3364.673	45.75
3367.662	49.75
3370.649	46.75
3373.633	43.75
3376.615	44.75
3379.595	41.75
3382.572	36.75
3385.547	35.75
3388.52	37.75
3391.49	36.75
3394.458	42.75
3397.424	35.75
3400.387	35.75
3403.348	36.75
3406.307	38.75
3409.263	38.75
3412.217	36.75
3415.168	32.75
3418.118	36.75
3421.065	29.75
3424.009	33.75
3426.951	36.75
3429.891	34.75
3432.829	35.75
3435.764	32.75
3438.697	29.75
3441.628	26.75
3444.557	26.75
3447.483	23.75
3450.407	26.75
3453.328	26.75
3456.247	28.75
3459.164	24.75
3462.079	23.75
3464.991	19.75
3467.902	21.75
3470.809	14.75
3473.715	13.75
3476.618	18.75
3479.519	14.75
3482.418	13.75
3485.315	20.75
3488.209	10.75
3491.101	14.75
3493.99	13.75
3496.878	1.75
3499.763	6.75
3502.646	7.75
3505.527	9.75
3508.405	9.75
3511.281	5.75
3514.155	7.75
3517.027	6.75
3519.897	3.75
3522.764	5.75
3525.629	1.75
3528.492	-0.25
3531.352	-0.25
3534.211	-2.25
3537.067	-4.25
3539.921	-4.25
3542.773	-6.25
3545.622	-5.25
3548.469	-3.25
3551.315	-5.25
3554.157	-2.25
3556.998	-6.25
3559.837	-9.25
3562.673	-8.25
3565.507	-9.25
3568.339	-8.25
3571.169	-7.25
3573.996	-4.25
3576.822	-9.25
3579.645	-13.25
3582.466	-12.25
3585.285	-16.25
3588.101	-12.25
3590.916	-10.25
3593.728	-9.25
3596.538	-7.25
3599.346	-12.25
3602.152	-17.25
3604.956	-15.25
3607.757	-15.25
3610.556	-14.25
3613.354	-15.25
3616.149	-14.25
3618.942	-6.25
3621.732	-15.25
3624.521	-19.25
3627.307	-18.25
3630.092	-17.25
3632.874	-16.25
3635.654	-19.25
3638.432	-18.25
3641.208	-15.25
3643.982	-14.25
3646.753	-16.25
3649.523	-19.25
3652.29	-22.25
3655.055	-18.25
3657.818	-16.25
3660.579	-17.25
3663.338	-18.25
3666.095	-20.25
3668.849	-17.25
3671.602	-20.25
3674.352	-20.25
3677.101	-18.25
3679.847	-21.25
3682.591	-20.25
3685.333	-22.25
3688.073	-23.25
3690.811	-23.25
3693.547	-20.25
3696.281	-17.25
3699.013	-19.25
3701.742	-18.25
3704.47	-16.25
3707.195	-24.25
3709.919	-22.25
3712.64	-20.25
3715.359	-20.25
3718.076	-20.25
3720.792	-17.25
3723.505	-16.25
3726.216	-19.25
3728.925	-21.25
3731.632	-25.25
3734.336	-24.25
3737.039	-22.25
3739.74	-22.25
3742.439	-22.25
3745.136	-21.25
3747.83	-18.25
3750.523	-24.25
3753.213	-23.25
3755.902	-23.25
3758.589	-21.25
3761.273	-22.25
3763.956	-21.25
3766.636	-22.25
3769.315	-22.25
3771.991	-21.25
3774.665	-24.25
3777.338	-22.25
3780.008	-24.25
3782.677	-26.25
3785.343	-21.25
3788.007	-24.25
3790.67	-22.25
3793.33	-24.25
3795.989	-18.25
3798.645	-25.25
3801.299	-19.25
3803.952	-20.25
3806.602	-22.25
3809.251	-23.25
3811.897	-22.25
3814.542	-27.25
3817.184	-25.25
3819.825	-22.25
3822.463	-20.25
3825.1	-20.25
3827.735	-26.25
3830.367	-21.25
3832.998	-25.25
3835.627	-24.25
3838.253	-21.25
3840.878	-24.25
3843.501	-20.25
3846.122	-20.25
3848.741	-20.25
3851.358	-23.25
3853.973	-24.25
3856.586	-23.25
3859.197	-21.25
3861.806	-21.25
3864.414	-19.25
3867.019	-26.25
3869.622	-19.25
3872.224	-21.25
3874.823	-24.25
3877.421	-24.25
3880.016	-22.25
3882.61	-17.25
3885.202	-17.25
3887.792	-15.25
3890.38	-14.25
3892.966	-17.25
3895.55	-21.25
3898.132	-24.25
3900.713	-25.25
3903.291	-21.25
3905.868	-24.25
3908.442	-22.25
3911.015	-21.25
3913.586	-23.25
3916.155	-24.25
3918.722	-22.25
3921.287	-25.25
3923.85	-26.25
3926.411	-24.25
3928.971	-23.25
3931.528	-21.25
3934.084	-19.25
3936.638	-19.25
3939.19	-22.25
3941.74	-26.25
3944.288	-22.25
3946.834	-27.25
3949.378	-26.25
3951.921	-21.25
3954.462	-21.25
3957	-19.25
3959.537	-20.25
3962.072	-21.25
3964.606	-25.25
3967.137	-25.25
3969.667	-24.25
3972.194	-26.25
3974.72	-20.25
3977.244	-21.25
3979.766	-18.25
3982.286	-15.25
3984.805	-19.25
3987.321	-26.25
3989.836	-26.25
3992.349	-25.25
3994.86	-23.25
3997.369	-21.25
3999.877	-16.25
4002.382	-16.25
4004.886	-18.25
4007.388	-20.25
4009.888	-22.25
4012.386	-26.25
4014.883	-24.25
4017.377	-20.25
4019.87	-18.25
4022.361	-18.25
4024.85	-22.25
4027.338	-22.25
4029.823	-25.25
4032.307	-27.25
4034.789	-25.25
4037.269	-21.25
4039.747	-24.25
4042.224	-21.25
4044.699	-18.25
4047.172	-23.25
4049.643	-23.25
4052.112	-23.25
4054.58	-24.25
4057.046	-24.25
4059.51	-21.25
4061.972	-23.25
4064.432	-21.25
4066.891	-23.25
4069.348	-23.25
4071.803	-22.25
4074.256	-21.25
4076.708	-19.25
4079.158	-21.25
4081.606	-23.25
4084.052	-27.25
4086.497	-24.25
4088.939	-23.25
4091.38	-22.25
4093.819	-21.25
4096.257	-27.25
4098.693	-26.25
4101.127	-21.25
4103.559	-22.25
4105.989	-7.25
4108.418	-10.25
4110.845	-11.25
4113.27	-7.25
4115.694	-10.25
4118.115	-8.25
4120.535	-21.25
4122.954	-23.25
4125.37	-20.25
4127.785	-24.25
4130.198	-20.25
4132.609	-23.25
4135.019	-23.25
4137.427	-25.25
4139.833	-20.25
4142.237	-21.25
