Data from 1000CFU1_A_RamanShift_1.txt Node
Date: Mon Feb 13 13:31:39 IST 2017
User: aro
Spectrometer: QEPB0276
Trigger mode: 0
Integration Time (sec): 5.000000E0
Scans to average: 1
Electric dark correction enabled: true
Nonlinearity correction enabled: false
Boxcar width: 0
XAxis mode: Raman Shifts
Number of Pixels in Spectrum: 1044
>>>>>Begin Spectral Data<<<<<
160.701	-3.88
166.742	-0.88
172.777	20.12
178.805	73.12
184.826	178.12
190.841	354.12
196.849	565.12
202.85	702.12
208.845	736.12
214.833	735.12
220.815	711.12
226.789	704.12
232.758	700.12
238.719	695.12
244.674	677.12
250.623	658.12
256.565	644.12
262.5	634.12
268.429	614.12
274.351	614.12
280.267	610.12
286.176	592.12
292.079	579.12
297.975	575.12
303.865	581.12
309.748	574.12
315.625	564.12
321.495	567.12
327.359	578.12
333.217	571.12
339.068	577.12
344.912	571.12
350.751	582.12
356.583	594.12
362.408	594.12
368.227	583.12
374.04	581.12
379.847	567.12
385.647	571.12
391.44	572.12
397.228	587.12
403.009	589.12
408.784	605.12
414.553	587.12
420.315	602.12
426.071	600.12
431.821	603.12
437.565	602.12
443.302	603.12
449.033	601.12
454.758	589.12
460.477	589.12
466.189	587.12
471.896	572.12
477.596	567.12
483.29	557.12
488.978	553.12
494.66	541.12
500.335	529.12
506.005	520.12
511.668	498.12
517.325	468.12
522.977	454.12
528.622	444.12
534.261	426.12
539.894	431.12
545.521	409.12
551.141	410.12
556.756	404.12
562.365	403.12
567.968	404.12
573.565	396.12
579.155	392.12
584.74	386.12
590.319	388.12
595.892	391.12
601.459	383.12
607.02	382.12
612.575	373.12
618.124	375.12
623.667	361.12
629.204	365.12
634.735	362.12
640.261	356.12
645.781	346.12
651.294	358.12
656.802	340.12
662.304	341.12
667.8	353.12
673.29	337.12
678.775	334.12
684.254	343.12
689.726	336.12
695.193	325.12
700.655	327.12
706.11	330.12
711.56	329.12
717.004	335.12
722.442	320.12
727.874	334.12
733.301	316.12
738.722	320.12
744.137	316.12
749.547	317.12
754.951	320.12
760.349	322.12
765.741	312.12
771.128	319.12
776.509	315.12
781.885	336.12
787.254	313.12
792.618	325.12
797.977	324.12
803.33	331.12
808.677	321.12
814.019	320.12
819.355	326.12
824.686	317.12
830.011	317.12
835.33	325.12
840.644	327.12
845.952	334.12
851.255	335.12
856.552	335.12
861.844	339.12
867.13	332.12
872.41	336.12
877.686	326.12
882.955	333.12
888.219	336.12
893.478	317.12
898.731	330.12
903.979	313.12
909.221	294.12
914.458	292.12
919.69	281.12
924.916	289.12
930.136	287.12
935.351	287.12
940.561	294.12
945.766	287.12
950.965	300.12
956.158	286.12
961.347	286.12
966.529	274.12
971.707	262.12
976.879	261.12
982.046	265.12
987.208	263.12
992.364	259.12
997.515	280.12
1002.66	275.12
1007.801	272.12
1012.936	284.12
1018.066	284.12
1023.19	288.12
1028.309	290.12
1033.423	291.12
1038.532	289.12
1043.636	292.12
1048.734	293.12
1053.827	296.12
1058.915	297.12
1063.998	308.12
1069.075	305.12
1074.147	310.12
1079.214	306.12
1084.276	326.12
1089.333	331.12
1094.385	329.12
1099.431	319.12
1104.472	301.12
1109.509	293.12
1114.54	286.12
1119.565	291.12
1124.586	300.12
1129.602	295.12
1134.613	277.12
1139.618	271.12
1144.619	251.12
1149.614	251.12
1154.604	258.12
1159.589	251.12
1164.57	241.12
1169.545	245.12
1174.515	240.12
1179.48	234.12
1184.44	226.12
1189.395	226.12
1194.345	223.12
1199.29	215.12
1204.23	225.12
1209.165	224.12
1214.095	223.12
1219.021	224.12
1223.941	226.12
1228.856	233.12
1233.766	237.12
1238.672	238.12
1243.572	247.12
1248.467	247.12
1253.358	247.12
1258.244	248.12
1263.124	253.12
1268	247.12
1272.871	240.12
1277.737	243.12
1282.599	240.12
1287.455	239.12
1292.306	244.12
1297.153	257.12
1301.995	280.12
1306.832	272.12
1311.664	266.12
1316.491	255.12
1321.314	260.12
1326.132	242.12
1330.945	234.12
1335.753	223.12
1340.556	228.12
1345.354	216.12
1350.148	212.12
1354.937	210.12
1359.722	206.12
1364.501	201.12
1369.276	200.12
1374.046	200.12
1378.811	204.12
1383.572	203.12
1388.327	204.12
1393.079	189.12
1397.825	192.12
1402.567	181.12
1407.304	188.12
1412.036	184.12
1416.764	189.12
1421.487	193.12
1426.205	196.12
1430.919	199.12
1435.628	222.12
1440.333	248.12
1445.032	265.12
1449.727	273.12
1454.418	272.12
1459.104	264.12
1463.785	259.12
1468.462	239.12
1473.134	219.12
1477.802	197.12
1482.465	173.12
1487.123	161.12
1491.777	160.12
1496.426	152.12
1501.071	149.12
1505.711	144.12
1510.347	152.12
1514.978	145.12
1519.604	147.12
1524.226	145.12
1528.844	147.12
1533.457	143.12
1538.065	148.12
1542.669	149.12
1547.269	146.12
1551.864	146.12
1556.454	138.12
1561.041	146.12
1565.622	139.12
1570.199	140.12
1574.772	142.12
1579.34	154.12
1583.904	144.12
1588.464	149.12
1593.019	145.12
1597.569	140.12
1602.115	151.12
1606.657	147.12
1611.195	152.12
1615.728	157.12
1620.256	158.12
1624.78	156.12
1629.3	161.12
1633.816	157.12
1638.327	160.12
1642.834	165.12
1647.336	176.12
1651.834	179.12
1656.328	185.12
1660.817	187.12
1665.302	184.12
1669.783	177.12
1674.259	161.12
1678.732	164.12
1683.199	153.12
1687.663	144.12
1692.122	139.12
1696.577	133.12
1701.028	131.12
1705.474	128.12
1709.917	115.12
1714.355	111.12
1718.788	112.12
1723.218	110.12
1727.643	112.12
1732.064	107.12
1736.481	107.12
1740.893	105.12
1745.301	96.12
1749.705	97.12
1754.105	95.12
1758.501	89.12
1762.893	88.12
1767.28	84.12
1771.663	84.12
1776.042	80.12
1780.417	85.12
1784.787	77.12
1789.154	82.12
1793.516	79.12
1797.874	84.12
1802.228	81.12
1806.578	85.12
1810.924	77.12
1815.266	63.12
1819.603	74.12
1823.937	74.12
1828.266	72.12
1832.591	74.12
1836.913	67.12
1841.23	73.12
1845.543	68.12
1849.852	66.12
1854.156	70.12
1858.457	65.12
1862.754	67.12
1867.047	71.12
1871.335	68.12
1875.62	66.12
1879.9	68.12
1884.177	64.12
1888.449	62.12
1892.718	67.12
1896.982	62.12
1901.243	67.12
1905.499	68.12
1909.752	63.12
1914	66.12
1918.245	58.12
1922.485	65.12
1926.722	64.12
1930.954	66.12
1935.183	71.12
1939.408	67.12
1943.628	69.12
1947.845	63.12
1952.058	67.12
1956.267	64.12
1960.472	62.12
1964.673	62.12
1968.87	63.12
1973.063	64.12
1977.252	62.12
1981.438	55.12
1985.619	58.12
1989.797	59.12
1993.971	55.12
1998.14	54.12
2002.306	56.12
2006.469	58.12
2010.627	61.12
2014.781	55.12
2018.932	55.12
2023.078	52.12
2027.221	52.12
2031.36	53.12
2035.495	48.12
2039.627	50.12
2043.754	54.12
2047.878	49.12
2051.998	50.12
2056.114	49.12
2060.226	48.12
2064.334	50.12
2068.439	55.12
2072.54	52.12
2076.637	48.12
2080.73	49.12
2084.82	58.12
2088.906	57.12
2092.988	57.12
2097.066	47.12
2101.14	54.12
2105.211	54.12
2109.278	51.12
2113.342	53.12
2117.401	50.12
2121.457	52.12
2125.509	46.12
2129.558	50.12
2133.602	49.12
2137.643	46.12
2141.681	46.12
2145.714	49.12
2149.744	49.12
2153.77	44.12
2157.793	45.12
2161.812	48.12
2165.827	49.12
2169.838	45.12
2173.846	43.12
2177.851	42.12
2181.851	45.12
2185.848	40.12
2189.841	39.12
2193.831	38.12
2197.817	44.12
2201.799	35.12
2205.778	36.12
2209.753	34.12
2213.725	34.12
2217.693	35.12
2221.657	37.12
2225.618	37.12
2229.575	33.12
2233.529	33.12
2237.479	35.12
2241.425	31.12
2245.368	33.12
2249.307	32.12
2253.243	31.12
2257.175	30.12
2261.104	36.12
2265.029	24.12
2268.95	25.12
2272.868	28.12
2276.783	31.12
2280.694	27.12
2284.601	30.12
2288.505	25.12
2292.405	22.12
2296.302	22.12
2300.195	20.12
2304.085	27.12
2307.971	23.12
2311.854	26.12
2315.734	21.12
2319.609	22.12
2323.482	16.12
2327.351	20.12
2331.216	19.12
2335.078	27.12
2338.937	20.12
2342.792	21.12
2346.643	21.12
2350.492	18.12
2354.336	19.12
2358.178	16.12
2362.015	15.12
2365.85	15.12
2369.681	15.12
2373.508	16.12
2377.333	20.12
2381.153	17.12
2384.971	17.12
2388.785	14.12
2392.595	14.12
2396.402	11.12
2400.206	23.12
2404.007	15.12
2407.804	20.12
2411.597	17.12
2415.388	15.12
2419.174	11.12
2422.958	14.12
2426.738	11.12
2430.515	17.12
2434.289	13.12
2438.059	15.12
2441.825	10.12
2445.589	14.12
2449.349	8.12
2453.106	8.12
2456.859	8.12
2460.61	8.12
2464.356	14.12
2468.1	12.12
2471.84	12.12
2475.577	7.12
2479.311	8.12
2483.041	3.12
2486.768	12.12
2490.492	10.12
2494.213	14.12
2497.93	12.12
2501.644	8.12
2505.355	5.12
2509.062	6.12
2512.766	10.12
2516.467	8.12
2520.165	10.12
2523.859	11.12
2527.551	13.12
2531.239	10.12
2534.923	8.12
2538.605	8.12
2542.283	6.12
2545.958	9.12
2549.63	14.12
2553.299	10.12
2556.964	10.12
2560.626	11.12
2564.285	8.12
2567.941	2.12
2571.594	6.12
2575.243	5.12
2578.89	9.12
2582.533	13.12
2586.173	12.12
2589.809	7.12
2593.443	6.12
2597.073	5.12
2600.701	6.12
2604.325	3.12
2607.946	10.12
2611.564	11.12
2615.178	11.12
2618.79	6.12
2622.398	7.12
2626.004	6.12
2629.606	5.12
2633.205	5.12
2636.801	6.12
2640.394	7.12
2643.983	9.12
2647.57	3.12
2651.153	10.12
2654.734	1.12
2658.311	5.12
2661.885	4.12
2665.456	3.12
2669.025	6.12
2672.589	9.12
2676.151	8.12
2679.71	9.12
2683.266	8.12
2686.819	5.12
2690.368	5.12
2693.915	3.12
2697.458	9.12
2700.999	5.12
2704.536	9.12
2708.071	7.12
2711.602	7.12
2715.13	8.12
2718.656	10.12
2722.178	8.12
2725.697	10.12
2729.214	8.12
2732.727	15.12
2736.237	13.12
2739.744	10.12
2743.249	6.12
2746.75	8.12
2750.248	3.12
2753.743	10.12
2757.236	9.12
2760.725	9.12
2764.211	6.12
2767.695	12.12
2771.175	5.12
2774.652	3.12
2778.127	4.12
2781.598	8.12
2785.067	8.12
2788.532	8.12
2791.995	7.12
2795.455	10.12
2798.911	7.12
2802.365	10.12
2805.816	12.12
2809.264	8.12
2812.709	11.12
2816.151	11.12
2819.59	10.12
2823.026	18.12
2826.46	18.12
2829.89	18.12
2833.318	27.12
2836.742	32.12
2840.164	33.12
2843.583	42.12
2846.999	52.12
2850.412	61.12
2853.822	71.12
2857.229	74.12
2860.634	84.12
2864.035	74.12
2867.434	79.12
2870.83	84.12
2874.223	86.12
2877.613	94.12
2881	90.12
2884.385	99.12
2887.766	102.12
2891.145	100.12
2894.521	105.12
2897.894	97.12
2901.264	108.12
2904.631	98.12
2907.996	95.12
2911.358	95.12
2914.717	98.12
2918.073	96.12
2921.426	91.12
2924.777	91.12
2928.124	88.12
2931.469	89.12
2934.811	87.12
2938.15	84.12
2941.487	88.12
2944.821	81.12
2948.152	75.12
2951.48	63.12
2954.805	69.12
2958.128	61.12
2961.447	64.12
2964.765	57.12
2968.079	54.12
2971.39	50.12
2974.699	55.12
2978.005	46.12
2981.308	47.12
2984.609	48.12
2987.907	46.12
2991.202	40.12
2994.494	40.12
2997.784	35.12
3001.07	37.12
3004.355	39.12
3007.636	33.12
3010.915	35.12
3014.191	33.12
3017.464	35.12
3020.734	30.12
3024.002	27.12
3027.267	32.12
3030.53	31.12
3033.789	32.12
3037.046	30.12
3040.301	36.12
3043.552	30.12
3046.801	31.12
3050.048	36.12
3053.291	32.12
3056.532	34.12
3059.771	38.12
3063.006	38.12
3066.239	39.12
3069.469	42.12
3072.697	42.12
3075.922	40.12
3079.144	42.12
3082.364	44.12
3085.581	46.12
3088.795	51.12
3092.007	48.12
3095.216	54.12
3098.423	51.12
3101.627	49.12
3104.828	53.12
3108.026	58.12
3111.222	53.12
3114.416	59.12
3117.607	59.12
3120.795	63.12
3123.98	65.12
3127.163	58.12
3130.344	64.12
3133.521	62.12
3136.696	67.12
3139.869	73.12
3143.039	72.12
3146.206	71.12
3149.371	76.12
3152.533	74.12
3155.693	69.12
3158.85	77.12
3162.005	81.12
3165.157	78.12
3168.306	82.12
3171.453	79.12
3174.597	79.12
3177.739	81.12
3180.878	78.12
3184.014	81.12
3187.149	76.12
3190.28	82.12
3193.409	81.12
3196.536	79.12
3199.659	81.12
3202.781	83.12
3205.9	82.12
3209.016	74.12
3212.13	79.12
3215.241	85.12
3218.35	83.12
3221.456	78.12
3224.56	76.12
3227.661	73.12
3230.76	74.12
3233.856	70.12
3236.95	70.12
3240.041	73.12
3243.13	77.12
3246.216	72.12
3249.3	76.12
3252.382	75.12
3255.46	65.12
3258.537	71.12
3261.611	70.12
3264.682	70.12
3267.751	75.12
3270.818	69.12
3273.882	74.12
3276.943	70.12
3280.002	66.12
3283.059	67.12
3286.113	64.12
3289.165	69.12
3292.214	66.12
3295.261	58.12
3298.306	65.12
3301.348	62.12
3304.387	59.12
3307.425	56.12
3310.459	62.12
3313.492	53.12
3316.521	58.12
3319.549	57.12
3322.574	54.12
3325.597	49.12
3328.617	54.12
3331.635	47.12
3334.65	52.12
3337.663	52.12
3340.674	51.12
3343.682	53.12
3346.688	50.12
3349.691	58.12
3352.692	49.12
3355.691	47.12
3358.687	51.12
3361.681	48.12
3364.673	49.12
3367.662	47.12
3370.649	50.12
3373.633	46.12
3376.615	50.12
3379.595	41.12
3382.572	39.12
3385.547	37.12
3388.52	43.12
3391.49	47.12
3394.458	44.12
3397.424	41.12
3400.387	34.12
3403.348	41.12
3406.307	37.12
3409.263	36.12
3412.217	42.12
3415.168	38.12
3418.118	35.12
3421.065	33.12
3424.009	35.12
3426.951	37.12
3429.891	33.12
3432.829	37.12
3435.764	38.12
3438.697	36.12
3441.628	36.12
3444.557	26.12
3447.483	28.12
3450.407	28.12
3453.328	25.12
3456.247	21.12
3459.164	23.12
3462.079	24.12
3464.991	24.12
3467.902	22.12
3470.809	22.12
3473.715	16.12
3476.618	13.12
3479.519	19.12
3482.418	19.12
3485.315	18.12
3488.209	14.12
3491.101	15.12
3493.99	15.12
3496.878	10.12
3499.763	12.12
3502.646	11.12
3505.527	12.12
3508.405	15.12
3511.281	10.12
3514.155	8.12
3517.027	9.12
3519.897	5.12
3522.764	6.12
3525.629	3.12
3528.492	3.12
3531.352	2.12
3534.211	2.12
3537.067	0.12
3539.921	-1.88
3542.773	-5.88
3545.622	-1.88
3548.469	-4.88
3551.315	-3.88
3554.157	-4.88
3556.998	-4.88
3559.837	-4.88
3562.673	-5.88
3565.507	-7.88
3568.339	-8.88
3571.169	-7.88
3573.996	-4.88
3576.822	-6.88
3579.645	-9.88
3582.466	-8.88
3585.285	-12.88
3588.101	-8.88
3590.916	-8.88
3593.728	-11.88
3596.538	-10.88
3599.346	-10.88
3602.152	-11.88
3604.956	-11.88
3607.757	-12.88
3610.556	-10.88
3613.354	-12.88
3616.149	-11.88
3618.942	-10.88
3621.732	-13.88
3624.521	-13.88
3627.307	-15.88
3630.092	-11.88
3632.874	-12.88
3635.654	-15.88
3638.432	-13.88
3641.208	-14.88
3643.982	-19.88
3646.753	-17.88
3649.523	-15.88
3652.29	-17.88
3655.055	-16.88
3657.818	-15.88
3660.579	-17.88
3663.338	-14.88
3666.095	-20.88
3668.849	-16.88
3671.602	-19.88
3674.352	-16.88
3677.101	-19.88
3679.847	-20.88
3682.591	-16.88
3685.333	-18.88
3688.073	-18.88
3690.811	-16.88
3693.547	-16.88
3696.281	-17.88
3699.013	-18.88
3701.742	-17.88
3704.47	-16.88
3707.195	-18.88
3709.919	-17.88
3712.64	-18.88
3715.359	-19.88
3718.076	-18.88
3720.792	-16.88
3723.505	-15.88
3726.216	-18.88
3728.925	-18.88
3731.632	-22.88
3734.336	-19.88
3737.039	-14.88
3739.74	-16.88
3742.439	-18.88
3745.136	-18.88
3747.83	-22.88
3750.523	-21.88
3753.213	-27.88
3755.902	-18.88
3758.589	-18.88
3761.273	-18.88
3763.956	-17.88
3766.636	-20.88
3769.315	-21.88
3771.991	-22.88
3774.665	-23.88
3777.338	-19.88
3780.008	-20.88
3782.677	-19.88
3785.343	-16.88
3788.007	-20.88
3790.67	-19.88
3793.33	-21.88
3795.989	-19.88
3798.645	-21.88
3801.299	-17.88
3803.952	-16.88
3806.602	-19.88
3809.251	-17.88
3811.897	-20.88
3814.542	-27.88
3817.184	-23.88
3819.825	-20.88
3822.463	-20.88
3825.1	-17.88
3827.735	-19.88
3830.367	-15.88
3832.998	-22.88
3835.627	-25.88
3838.253	-22.88
3840.878	-23.88
3843.501	-20.88
3846.122	-19.88
3848.741	-16.88
3851.358	-19.88
3853.973	-20.88
3856.586	-20.88
3859.197	-23.88
3861.806	-20.88
3864.414	-23.88
3867.019	-22.88
3869.622	-15.88
3872.224	-16.88
3874.823	-20.88
3877.421	-21.88
3880.016	-17.88
3882.61	-17.88
3885.202	-12.88
3887.792	-13.88
3890.38	-14.88
3892.966	-13.88
3895.55	-17.88
3898.132	-19.88
3900.713	-24.88
3903.291	-23.88
3905.868	-23.88
3908.442	-19.88
3911.015	-19.88
3913.586	-21.88
3916.155	-21.88
3918.722	-16.88
3921.287	-23.88
3923.85	-23.88
3926.411	-21.88
3928.971	-22.88
3931.528	-20.88
3934.084	-17.88
3936.638	-17.88
3939.19	-17.88
3941.74	-23.88
3944.288	-20.88
3946.834	-25.88
3949.378	-22.88
3951.921	-23.88
3954.462	-20.88
3957	-21.88
3959.537	-17.88
3962.072	-22.88
3964.606	-19.88
3967.137	-22.88
3969.667	-19.88
3972.194	-25.88
3974.72	-18.88
3977.244	-20.88
3979.766	-21.88
3982.286	-19.88
3984.805	-17.88
3987.321	-23.88
3989.836	-22.88
3992.349	-21.88
3994.86	-22.88
3997.369	-22.88
3999.877	-16.88
4002.382	-15.88
4004.886	-14.88
4007.388	-19.88
4009.888	-23.88
4012.386	-22.88
4014.883	-22.88
4017.377	-20.88
4019.87	-15.88
4022.361	-15.88
4024.85	-20.88
4027.338	-21.88
4029.823	-24.88
4032.307	-25.88
4034.789	-23.88
4037.269	-18.88
4039.747	-18.88
4042.224	-17.88
4044.699	-19.88
4047.172	-21.88
4049.643	-20.88
4052.112	-24.88
4054.58	-23.88
4057.046	-21.88
4059.51	-16.88
4061.972	-19.88
4064.432	-19.88
4066.891	-20.88
4069.348	-20.88
4071.803	-25.88
4074.256	-18.88
4076.708	-21.88
4079.158	-21.88
4081.606	-19.88
4084.052	-24.88
4086.497	-23.88
4088.939	-19.88
4091.38	-19.88
4093.819	-20.88
4096.257	-20.88
4098.693	-21.88
4101.127	-21.88
4103.559	-18.88
4105.989	-7.88
4108.418	-9.88
4110.845	-9.88
4113.27	-6.88
4115.694	-6.88
4118.115	-6.88
4120.535	-20.88
4122.954	-22.88
4125.37	-20.88
4127.785	-16.88
4130.198	-20.88
4132.609	-19.88
4135.019	-20.88
4137.427	-22.88
4139.833	-20.88
4142.237	-23.88
