Data from 100CFU3_A_RamanShift_1.txt Node
Date: Mon Feb 13 13:29:39 IST 2017
User: aro
Spectrometer: QEPB0276
Trigger mode: 0
Integration Time (sec): 5.000000E0
Scans to average: 1
Electric dark correction enabled: true
Nonlinearity correction enabled: false
Boxcar width: 0
XAxis mode: Raman Shifts
Number of Pixels in Spectrum: 1044
>>>>>Begin Spectral Data<<<<<
160.701	-6.5
166.742	1.5
172.777	18.5
178.805	76.5
184.826	187.5
190.841	367.5
196.849	583.5
202.85	704.5
208.845	763.5
214.833	732.5
220.815	726.5
226.789	711.5
232.758	715.5
238.719	700.5
244.674	692.5
250.623	672.5
256.565	656.5
262.5	649.5
268.429	638.5
274.351	627.5
280.267	616.5
286.176	606.5
292.079	589.5
297.975	590.5
303.865	583.5
309.748	586.5
315.625	587.5
321.495	589.5
327.359	588.5
333.217	580.5
339.068	590.5
344.912	588.5
350.751	596.5
356.583	606.5
362.408	604.5
368.227	605.5
374.04	591.5
379.847	579.5
385.647	589.5
391.44	599.5
397.228	604.5
403.009	600.5
408.784	615.5
414.553	601.5
420.315	604.5
426.071	607.5
431.821	611.5
437.565	602.5
443.302	623.5
449.033	612.5
454.758	612.5
460.477	601.5
466.189	594.5
471.896	579.5
477.596	580.5
483.29	579.5
488.978	565.5
494.66	549.5
500.335	534.5
506.005	521.5
511.668	510.5
517.325	487.5
522.977	467.5
528.622	459.5
534.261	443.5
539.894	439.5
545.521	428.5
551.141	418.5
556.756	423.5
562.365	414.5
567.968	407.5
573.565	406.5
579.155	407.5
584.74	395.5
590.319	398.5
595.892	403.5
601.459	402.5
607.02	401.5
612.575	389.5
618.124	376.5
623.667	383.5
629.204	364.5
634.735	376.5
640.261	377.5
645.781	363.5
651.294	367.5
656.802	363.5
662.304	360.5
667.8	357.5
673.29	350.5
678.775	348.5
684.254	346.5
689.726	349.5
695.193	343.5
700.655	341.5
706.11	343.5
711.56	346.5
717.004	339.5
722.442	343.5
727.874	332.5
733.301	330.5
738.722	333.5
744.137	332.5
749.547	326.5
754.951	330.5
760.349	331.5
765.741	334.5
771.128	335.5
776.509	332.5
781.885	342.5
787.254	345.5
792.618	332.5
797.977	331.5
803.33	342.5
808.677	338.5
814.019	339.5
819.355	325.5
824.686	330.5
830.011	329.5
835.33	339.5
840.644	335.5
845.952	337.5
851.255	345.5
856.552	344.5
861.844	344.5
867.13	348.5
872.41	344.5
877.686	345.5
882.955	348.5
888.219	348.5
893.478	344.5
898.731	330.5
903.979	322.5
909.221	314.5
914.458	311.5
919.69	298.5
924.916	303.5
930.136	302.5
935.351	298.5
940.561	297.5
945.766	299.5
950.965	302.5
956.158	298.5
961.347	298.5
966.529	289.5
971.707	280.5
976.879	279.5
982.046	279.5
987.208	273.5
992.364	271.5
997.515	285.5
1002.66	287.5
1007.801	288.5
1012.936	294.5
1018.066	292.5
1023.19	307.5
1028.309	306.5
1033.423	299.5
1038.532	300.5
1043.636	307.5
1048.734	306.5
1053.827	310.5
1058.915	306.5
1063.998	307.5
1069.075	321.5
1074.147	328.5
1079.214	328.5
1084.276	342.5
1089.333	343.5
1094.385	336.5
1099.431	332.5
1104.472	317.5
1109.509	313.5
1114.54	305.5
1119.565	300.5
1124.586	304.5
1129.602	304.5
1134.613	299.5
1139.618	276.5
1144.619	272.5
1149.614	268.5
1154.604	258.5
1159.589	266.5
1164.57	250.5
1169.545	257.5
1174.515	249.5
1179.48	244.5
1184.44	238.5
1189.395	242.5
1194.345	232.5
1199.29	230.5
1204.23	234.5
1209.165	232.5
1214.095	237.5
1219.021	231.5
1223.941	230.5
1228.856	246.5
1233.766	250.5
1238.672	255.5
1243.572	262.5
1248.467	264.5
1253.358	255.5
1258.244	263.5
1263.124	260.5
1268	256.5
1272.871	261.5
1277.737	259.5
1282.599	245.5
1287.455	252.5
1292.306	246.5
1297.153	264.5
1301.995	282.5
1306.832	287.5
1311.664	276.5
1316.491	270.5
1321.314	267.5
1326.132	252.5
1330.945	237.5
1335.753	232.5
1340.556	235.5
1345.354	220.5
1350.148	224.5
1354.937	218.5
1359.722	204.5
1364.501	212.5
1369.276	207.5
1374.046	212.5
1378.811	211.5
1383.572	210.5
1388.327	210.5
1393.079	207.5
1397.825	201.5
1402.567	193.5
1407.304	193.5
1412.036	194.5
1416.764	194.5
1421.487	196.5
1426.205	209.5
1430.919	220.5
1435.628	235.5
1440.333	260.5
1445.032	273.5
1449.727	288.5
1454.418	280.5
1459.104	276.5
1463.785	265.5
1468.462	257.5
1473.134	228.5
1477.802	202.5
1482.465	185.5
1487.123	177.5
1491.777	168.5
1496.426	158.5
1501.071	161.5
1505.711	156.5
1510.347	161.5
1514.978	156.5
1519.604	154.5
1524.226	151.5
1528.844	151.5
1533.457	156.5
1538.065	150.5
1542.669	156.5
1547.269	156.5
1551.864	150.5
1556.454	156.5
1561.041	149.5
1565.622	147.5
1570.199	149.5
1574.772	147.5
1579.34	154.5
1583.904	154.5
1588.464	160.5
1593.019	154.5
1597.569	150.5
1602.115	154.5
1606.657	152.5
1611.195	161.5
1615.728	158.5
1620.256	159.5
1624.78	165.5
1629.3	162.5
1633.816	163.5
1638.327	168.5
1642.834	172.5
1647.336	179.5
1651.834	183.5
1656.328	189.5
1660.817	190.5
1665.302	189.5
1669.783	184.5
1674.259	170.5
1678.732	167.5
1683.199	155.5
1687.663	150.5
1692.122	144.5
1696.577	138.5
1701.028	136.5
1705.474	127.5
1709.917	122.5
1714.355	120.5
1718.788	120.5
1723.218	120.5
1727.643	116.5
1732.064	116.5
1736.481	111.5
1740.893	110.5
1745.301	101.5
1749.705	97.5
1754.105	95.5
1758.501	93.5
1762.893	94.5
1767.28	89.5
1771.663	84.5
1776.042	84.5
1780.417	85.5
1784.787	79.5
1789.154	82.5
1793.516	85.5
1797.874	85.5
1802.228	84.5
1806.578	82.5
1810.924	81.5
1815.266	79.5
1819.603	77.5
1823.937	75.5
1828.266	80.5
1832.591	79.5
1836.913	78.5
1841.23	77.5
1845.543	69.5
1849.852	68.5
1854.156	73.5
1858.457	73.5
1862.754	72.5
1867.047	70.5
1871.335	71.5
1875.62	73.5
1879.9	77.5
1884.177	65.5
1888.449	71.5
1892.718	74.5
1896.982	67.5
1901.243	67.5
1905.499	69.5
1909.752	67.5
1914	71.5
1918.245	67.5
1922.485	73.5
1926.722	66.5
1930.954	64.5
1935.183	71.5
1939.408	70.5
1943.628	69.5
1947.845	68.5
1952.058	72.5
1956.267	69.5
1960.472	69.5
1964.673	64.5
1968.87	61.5
1973.063	73.5
1977.252	62.5
1981.438	60.5
1985.619	60.5
1989.797	59.5
1993.971	54.5
1998.14	61.5
2002.306	51.5
2006.469	58.5
2010.627	60.5
2014.781	58.5
2018.932	58.5
2023.078	58.5
2027.221	57.5
2031.36	59.5
2035.495	55.5
2039.627	57.5
2043.754	53.5
2047.878	54.5
2051.998	55.5
2056.114	55.5
2060.226	54.5
2064.334	57.5
2068.439	57.5
2072.54	54.5
2076.637	54.5
2080.73	51.5
2084.82	55.5
2088.906	59.5
2092.988	64.5
2097.066	58.5
2101.14	55.5
2105.211	55.5
2109.278	54.5
2113.342	51.5
2117.401	55.5
2121.457	51.5
2125.509	55.5
2129.558	57.5
2133.602	54.5
2137.643	56.5
2141.681	49.5
2145.714	49.5
2149.744	45.5
2153.77	47.5
2157.793	49.5
2161.812	49.5
2165.827	53.5
2169.838	46.5
2173.846	42.5
2177.851	41.5
2181.851	42.5
2185.848	44.5
2189.841	46.5
2193.831	46.5
2197.817	42.5
2201.799	38.5
2205.778	38.5
2209.753	36.5
2213.725	34.5
2217.693	41.5
2221.657	42.5
2225.618	43.5
2229.575	39.5
2233.529	34.5
2237.479	40.5
2241.425	34.5
2245.368	36.5
2249.307	34.5
2253.243	32.5
2257.175	38.5
2261.104	37.5
2265.029	36.5
2268.95	31.5
2272.868	25.5
2276.783	30.5
2280.694	29.5
2284.601	30.5
2288.505	30.5
2292.405	30.5
2296.302	28.5
2300.195	24.5
2304.085	24.5
2307.971	21.5
2311.854	23.5
2315.734	21.5
2319.609	23.5
2323.482	21.5
2327.351	23.5
2331.216	22.5
2335.078	25.5
2338.937	26.5
2342.792	21.5
2346.643	19.5
2350.492	24.5
2354.336	21.5
2358.178	25.5
2362.015	19.5
2365.85	15.5
2369.681	18.5
2373.508	16.5
2377.333	18.5
2381.153	16.5
2384.971	25.5
2388.785	18.5
2392.595	16.5
2396.402	15.5
2400.206	21.5
2404.007	14.5
2407.804	20.5
2411.597	18.5
2415.388	15.5
2419.174	15.5
2422.958	18.5
2426.738	11.5
2430.515	16.5
2434.289	12.5
2438.059	12.5
2441.825	12.5
2445.589	19.5
2449.349	12.5
2453.106	12.5
2456.859	12.5
2460.61	10.5
2464.356	13.5
2468.1	11.5
2471.84	13.5
2475.577	12.5
2479.311	12.5
2483.041	8.5
2486.768	13.5
2490.492	12.5
2494.213	11.5
2497.93	12.5
2501.644	9.5
2505.355	11.5
2509.062	9.5
2512.766	14.5
2516.467	9.5
2520.165	11.5
2523.859	11.5
2527.551	6.5
2531.239	10.5
2534.923	9.5
2538.605	10.5
2542.283	9.5
2545.958	8.5
2549.63	14.5
2553.299	12.5
2556.964	15.5
2560.626	10.5
2564.285	8.5
2567.941	9.5
2571.594	14.5
2575.243	10.5
2578.89	11.5
2582.533	11.5
2586.173	13.5
2589.809	9.5
2593.443	7.5
2597.073	10.5
2600.701	10.5
2604.325	10.5
2607.946	10.5
2611.564	11.5
2615.178	10.5
2618.79	5.5
2622.398	6.5
2626.004	8.5
2629.606	10.5
2633.205	7.5
2636.801	9.5
2640.394	8.5
2643.983	11.5
2647.57	3.5
2651.153	7.5
2654.734	5.5
2658.311	8.5
2661.885	11.5
2665.456	8.5
2669.025	6.5
2672.589	6.5
2676.151	6.5
2679.71	6.5
2683.266	6.5
2686.819	7.5
2690.368	5.5
2693.915	9.5
2697.458	7.5
2700.999	7.5
2704.536	6.5
2708.071	8.5
2711.602	8.5
2715.13	13.5
2718.656	12.5
2722.178	11.5
2725.697	11.5
2729.214	7.5
2732.727	11.5
2736.237	11.5
2739.744	12.5
2743.249	6.5
2746.75	8.5
2750.248	8.5
2753.743	6.5
2757.236	7.5
2760.725	11.5
2764.211	7.5
2767.695	9.5
2771.175	6.5
2774.652	8.5
2778.127	7.5
2781.598	11.5
2785.067	6.5
2788.532	8.5
2791.995	9.5
2795.455	10.5
2798.911	9.5
2802.365	7.5
2805.816	11.5
2809.264	10.5
2812.709	10.5
2816.151	13.5
2819.59	16.5
2823.026	20.5
2826.46	22.5
2829.89	24.5
2833.318	28.5
2836.742	27.5
2840.164	35.5
2843.583	45.5
2846.999	50.5
2850.412	68.5
2853.822	75.5
2857.229	80.5
2860.634	79.5
2864.035	81.5
2867.434	77.5
2870.83	85.5
2874.223	91.5
2877.613	98.5
2881	94.5
2884.385	100.5
2887.766	99.5
2891.145	105.5
2894.521	96.5
2897.894	109.5
2901.264	106.5
2904.631	105.5
2907.996	99.5
2911.358	98.5
2914.717	92.5
2918.073	91.5
2921.426	88.5
2924.777	95.5
2928.124	101.5
2931.469	90.5
2934.811	89.5
2938.15	88.5
2941.487	89.5
2944.821	80.5
2948.152	78.5
2951.48	78.5
2954.805	72.5
2958.128	68.5
2961.447	62.5
2964.765	59.5
2968.079	53.5
2971.39	46.5
2974.699	50.5
2978.005	51.5
2981.308	45.5
2984.609	47.5
2987.907	48.5
2991.202	44.5
2994.494	39.5
2997.784	33.5
3001.07	33.5
3004.355	38.5
3007.636	37.5
3010.915	39.5
3014.191	41.5
3017.464	37.5
3020.734	34.5
3024.002	28.5
3027.267	28.5
3030.53	30.5
3033.789	32.5
3037.046	29.5
3040.301	37.5
3043.552	33.5
3046.801	33.5
3050.048	32.5
3053.291	30.5
3056.532	35.5
3059.771	35.5
3063.006	36.5
3066.239	39.5
3069.469	42.5
3072.697	39.5
3075.922	39.5
3079.144	41.5
3082.364	40.5
3085.581	44.5
3088.795	52.5
3092.007	52.5
3095.216	50.5
3098.423	51.5
3101.627	53.5
3104.828	45.5
3108.026	54.5
3111.222	56.5
3114.416	59.5
3117.607	62.5
3120.795	67.5
3123.98	67.5
3127.163	64.5
3130.344	60.5
3133.521	69.5
3136.696	69.5
3139.869	71.5
3143.039	73.5
3146.206	73.5
3149.371	77.5
3152.533	70.5
3155.693	72.5
3158.85	73.5
3162.005	75.5
3165.157	81.5
3168.306	83.5
3171.453	78.5
3174.597	80.5
3177.739	73.5
3180.878	73.5
3184.014	81.5
3187.149	75.5
3190.28	81.5
3193.409	78.5
3196.536	80.5
3199.659	79.5
3202.781	81.5
3205.9	76.5
3209.016	76.5
3212.13	75.5
3215.241	77.5
3218.35	79.5
3221.456	76.5
3224.56	76.5
3227.661	78.5
3230.76	71.5
3233.856	66.5
3236.95	71.5
3240.041	73.5
3243.13	74.5
3246.216	72.5
3249.3	68.5
3252.382	68.5
3255.46	67.5
3258.537	67.5
3261.611	69.5
3264.682	69.5
3267.751	72.5
3270.818	67.5
3273.882	67.5
3276.943	69.5
3280.002	62.5
3283.059	71.5
3286.113	67.5
3289.165	64.5
3292.214	69.5
3295.261	59.5
3298.306	68.5
3301.348	61.5
3304.387	58.5
3307.425	55.5
3310.459	54.5
3313.492	52.5
3316.521	53.5
3319.549	51.5
3322.574	51.5
3325.597	53.5
3328.617	51.5
3331.635	56.5
3334.65	54.5
3337.663	54.5
3340.674	48.5
3343.682	49.5
3346.688	49.5
3349.691	56.5
3352.692	47.5
3355.691	45.5
3358.687	50.5
3361.681	50.5
3364.673	48.5
3367.662	48.5
3370.649	45.5
3373.633	40.5
3376.615	47.5
3379.595	44.5
3382.572	43.5
3385.547	42.5
3388.52	43.5
3391.49	39.5
3394.458	41.5
3397.424	39.5
3400.387	33.5
3403.348	39.5
3406.307	41.5
3409.263	39.5
3412.217	37.5
3415.168	33.5
3418.118	35.5
3421.065	31.5
3424.009	32.5
3426.951	33.5
3429.891	34.5
3432.829	37.5
3435.764	36.5
3438.697	31.5
3441.628	27.5
3444.557	31.5
3447.483	29.5
3450.407	27.5
3453.328	28.5
3456.247	23.5
3459.164	27.5
3462.079	20.5
3464.991	25.5
3467.902	20.5
3470.809	20.5
3473.715	21.5
3476.618	17.5
3479.519	17.5
3482.418	18.5
3485.315	18.5
3488.209	11.5
3491.101	10.5
3493.99	12.5
3496.878	10.5
3499.763	12.5
3502.646	12.5
3505.527	12.5
3508.405	13.5
3511.281	4.5
3514.155	1.5
3517.027	6.5
3519.897	4.5
3522.764	9.5
3525.629	3.5
3528.492	5.5
3531.352	2.5
3534.211	3.5
3537.067	-2.5
3539.921	-1.5
3542.773	-5.5
3545.622	1.5
3548.469	0.5
3551.315	-3.5
3554.157	-2.5
3556.998	-4.5
3559.837	-6.5
3562.673	-10.5
3565.507	-9.5
3568.339	-7.5
3571.169	-3.5
3573.996	-1.5
3576.822	-7.5
3579.645	-6.5
3582.466	-8.5
3585.285	-12.5
3588.101	-16.5
3590.916	-8.5
3593.728	-12.5
3596.538	-7.5
3599.346	-5.5
3602.152	-11.5
3604.956	-12.5
3607.757	-13.5
3610.556	-14.5
3613.354	-12.5
3616.149	-8.5
3618.942	-9.5
3621.732	-13.5
3624.521	-11.5
3627.307	-19.5
3630.092	-15.5
3632.874	-15.5
3635.654	-15.5
3638.432	-13.5
3641.208	-14.5
3643.982	-12.5
3646.753	-15.5
3649.523	-14.5
3652.29	-17.5
3655.055	-16.5
3657.818	-13.5
3660.579	-14.5
3663.338	-11.5
3666.095	-14.5
3668.849	-14.5
3671.602	-17.5
3674.352	-16.5
3677.101	-17.5
3679.847	-20.5
3682.591	-17.5
3685.333	-17.5
3688.073	-16.5
3690.811	-21.5
3693.547	-18.5
3696.281	-16.5
3699.013	-21.5
3701.742	-15.5
3704.47	-14.5
3707.195	-21.5
3709.919	-19.5
3712.64	-19.5
3715.359	-19.5
3718.076	-20.5
3720.792	-17.5
3723.505	-15.5
3726.216	-20.5
3728.925	-17.5
3731.632	-20.5
3734.336	-16.5
3737.039	-16.5
3739.74	-16.5
3742.439	-19.5
3745.136	-18.5
3747.83	-19.5
3750.523	-18.5
3753.213	-22.5
3755.902	-18.5
3758.589	-21.5
3761.273	-20.5
3763.956	-19.5
3766.636	-21.5
3769.315	-21.5
3771.991	-20.5
3774.665	-20.5
3777.338	-18.5
3780.008	-20.5
3782.677	-21.5
3785.343	-17.5
3788.007	-22.5
3790.67	-21.5
3793.33	-22.5
3795.989	-21.5
3798.645	-22.5
3801.299	-14.5
3803.952	-19.5
3806.602	-21.5
3809.251	-20.5
3811.897	-22.5
3814.542	-23.5
3817.184	-20.5
3819.825	-21.5
3822.463	-20.5
3825.1	-17.5
3827.735	-21.5
3830.367	-18.5
3832.998	-23.5
3835.627	-24.5
3838.253	-18.5
3840.878	-21.5
3843.501	-21.5
3846.122	-18.5
3848.741	-18.5
3851.358	-21.5
3853.973	-20.5
3856.586	-20.5
3859.197	-19.5
3861.806	-17.5
3864.414	-18.5
3867.019	-25.5
3869.622	-18.5
3872.224	-16.5
3874.823	-22.5
3877.421	-23.5
3880.016	-12.5
3882.61	-14.5
3885.202	-13.5
3887.792	-13.5
3890.38	-15.5
3892.966	-17.5
3895.55	-23.5
3898.132	-21.5
3900.713	-21.5
3903.291	-20.5
3905.868	-22.5
3908.442	-19.5
3911.015	-22.5
3913.586	-22.5
3916.155	-22.5
3918.722	-20.5
3921.287	-20.5
3923.85	-19.5
3926.411	-17.5
3928.971	-18.5
3931.528	-22.5
3934.084	-17.5
3936.638	-20.5
3939.19	-20.5
3941.74	-22.5
3944.288	-21.5
3946.834	-22.5
3949.378	-19.5
3951.921	-21.5
3954.462	-21.5
3957	-22.5
3959.537	-17.5
3962.072	-22.5
3964.606	-20.5
3967.137	-21.5
3969.667	-18.5
3972.194	-24.5
3974.72	-21.5
3977.244	-20.5
3979.766	-19.5
3982.286	-18.5
3984.805	-20.5
3987.321	-20.5
3989.836	-18.5
3992.349	-22.5
3994.86	-20.5
3997.369	-20.5
3999.877	-15.5
4002.382	-17.5
4004.886	-16.5
4007.388	-16.5
4009.888	-22.5
4012.386	-20.5
4014.883	-24.5
4017.377	-20.5
4019.87	-17.5
4022.361	-16.5
4024.85	-18.5
4027.338	-21.5
4029.823	-23.5
4032.307	-22.5
4034.789	-24.5
4037.269	-17.5
4039.747	-18.5
4042.224	-15.5
4044.699	-17.5
4047.172	-19.5
4049.643	-21.5
4052.112	-23.5
4054.58	-23.5
4057.046	-22.5
4059.51	-13.5
4061.972	-20.5
4064.432	-19.5
4066.891	-19.5
4069.348	-22.5
4071.803	-22.5
4074.256	-20.5
4076.708	-17.5
4079.158	-18.5
4081.606	-21.5
4084.052	-23.5
4086.497	-24.5
4088.939	-22.5
4091.38	-20.5
4093.819	-21.5
4096.257	-23.5
4098.693	-22.5
4101.127	-19.5
4103.559	-19.5
4105.989	-2.5
4108.418	-5.5
4110.845	-7.5
4113.27	-6.5
4115.694	-9.5
4118.115	-3.5
4120.535	-21.5
4122.954	-18.5
4125.37	-19.5
4127.785	-19.5
4130.198	-21.5
4132.609	-22.5
4135.019	-23.5
4137.427	-23.5
4139.833	-22.5
4142.237	-20.5
