Data from 100CFU1_B_RamanShift_1.txt Node
Date: Mon Feb 13 14:04:59 IST 2017
User: aro
Spectrometer: QEPB0276
Trigger mode: 0
Integration Time (sec): 5.000000E0
Scans to average: 1
Electric dark correction enabled: true
Nonlinearity correction enabled: false
Boxcar width: 0
XAxis mode: Raman Shifts
Number of Pixels in Spectrum: 1044
>>>>>Begin Spectral Data<<<<<
160.701	-3.88
166.742	0.12
172.777	19.12
178.805	70.12
184.826	189.12
190.841	380.12
196.849	588.12
202.85	731.12
208.845	770.12
214.833	759.12
220.815	747.12
226.789	733.12
232.758	730.12
238.719	733.12
244.674	713.12
250.623	692.12
256.565	679.12
262.5	665.12
268.429	637.12
274.351	629.12
280.267	617.12
286.176	608.12
292.079	622.12
297.975	610.12
303.865	598.12
309.748	602.12
315.625	588.12
321.495	590.12
327.359	586.12
333.217	589.12
339.068	593.12
344.912	604.12
350.751	608.12
356.583	614.12
362.408	612.12
368.227	607.12
374.04	591.12
379.847	592.12
385.647	594.12
391.44	594.12
397.228	613.12
403.009	610.12
408.784	623.12
414.553	623.12
420.315	611.12
426.071	620.12
431.821	621.12
437.565	621.12
443.302	624.12
449.033	625.12
454.758	613.12
460.477	614.12
466.189	597.12
471.896	588.12
477.596	588.12
483.29	569.12
488.978	570.12
494.66	565.12
500.335	551.12
506.005	534.12
511.668	518.12
517.325	479.12
522.977	474.12
528.622	455.12
534.261	440.12
539.894	431.12
545.521	434.12
551.141	419.12
556.756	421.12
562.365	409.12
567.968	406.12
573.565	405.12
579.155	403.12
584.74	395.12
590.319	398.12
595.892	403.12
601.459	401.12
607.02	398.12
612.575	391.12
618.124	377.12
623.667	380.12
629.204	374.12
634.735	372.12
640.261	372.12
645.781	357.12
651.294	365.12
656.802	362.12
662.304	357.12
667.8	354.12
673.29	354.12
678.775	346.12
684.254	352.12
689.726	351.12
695.193	336.12
700.655	344.12
706.11	341.12
711.56	340.12
717.004	347.12
722.442	340.12
727.874	338.12
733.301	333.12
738.722	331.12
744.137	324.12
749.547	325.12
754.951	331.12
760.349	328.12
765.741	335.12
771.128	327.12
776.509	333.12
781.885	342.12
787.254	336.12
792.618	336.12
797.977	337.12
803.33	332.12
808.677	327.12
814.019	329.12
819.355	333.12
824.686	337.12
830.011	333.12
835.33	332.12
840.644	327.12
845.952	339.12
851.255	343.12
856.552	342.12
861.844	344.12
867.13	347.12
872.41	350.12
877.686	350.12
882.955	353.12
888.219	344.12
893.478	334.12
898.731	327.12
903.979	325.12
909.221	308.12
914.458	311.12
919.69	304.12
924.916	302.12
930.136	305.12
935.351	290.12
940.561	293.12
945.766	296.12
950.965	303.12
956.158	290.12
961.347	300.12
966.529	286.12
971.707	283.12
976.879	279.12
982.046	275.12
987.208	262.12
992.364	261.12
997.515	273.12
1002.66	289.12
1007.801	292.12
1012.936	297.12
1018.066	305.12
1023.19	298.12
1028.309	303.12
1033.423	304.12
1038.532	301.12
1043.636	298.12
1048.734	300.12
1053.827	303.12
1058.915	316.12
1063.998	313.12
1069.075	325.12
1074.147	327.12
1079.214	334.12
1084.276	333.12
1089.333	332.12
1094.385	336.12
1099.431	325.12
1104.472	316.12
1109.509	309.12
1114.54	300.12
1119.565	308.12
1124.586	309.12
1129.602	307.12
1134.613	286.12
1139.618	278.12
1144.619	260.12
1149.614	260.12
1154.604	265.12
1159.589	257.12
1164.57	257.12
1169.545	247.12
1174.515	244.12
1179.48	242.12
1184.44	232.12
1189.395	235.12
1194.345	228.12
1199.29	232.12
1204.23	229.12
1209.165	233.12
1214.095	235.12
1219.021	236.12
1223.941	236.12
1228.856	235.12
1233.766	240.12
1238.672	248.12
1243.572	254.12
1248.467	256.12
1253.358	265.12
1258.244	260.12
1263.124	265.12
1268	260.12
1272.871	258.12
1277.737	261.12
1282.599	250.12
1287.455	248.12
1292.306	258.12
1297.153	278.12
1301.995	286.12
1306.832	291.12
1311.664	283.12
1316.491	263.12
1321.314	258.12
1326.132	243.12
1330.945	246.12
1335.753	241.12
1340.556	232.12
1345.354	229.12
1350.148	217.12
1354.937	213.12
1359.722	214.12
1364.501	208.12
1369.276	212.12
1374.046	216.12
1378.811	220.12
1383.572	219.12
1388.327	212.12
1393.079	212.12
1397.825	200.12
1402.567	188.12
1407.304	190.12
1412.036	190.12
1416.764	195.12
1421.487	195.12
1426.205	213.12
1430.919	217.12
1435.628	235.12
1440.333	255.12
1445.032	276.12
1449.727	287.12
1454.418	279.12
1459.104	274.12
1463.785	260.12
1468.462	246.12
1473.134	226.12
1477.802	213.12
1482.465	191.12
1487.123	171.12
1491.777	161.12
1496.426	154.12
1501.071	152.12
1505.711	152.12
1510.347	154.12
1514.978	163.12
1519.604	164.12
1524.226	160.12
1528.844	146.12
1533.457	154.12
1538.065	151.12
1542.669	151.12
1547.269	151.12
1551.864	147.12
1556.454	158.12
1561.041	157.12
1565.622	155.12
1570.199	148.12
1574.772	155.12
1579.34	151.12
1583.904	151.12
1588.464	159.12
1593.019	158.12
1597.569	154.12
1602.115	166.12
1606.657	159.12
1611.195	165.12
1615.728	157.12
1620.256	156.12
1624.78	162.12
1629.3	165.12
1633.816	164.12
1638.327	175.12
1642.834	178.12
1647.336	178.12
1651.834	183.12
1656.328	183.12
1660.817	193.12
1665.302	187.12
1669.783	181.12
1674.259	176.12
1678.732	171.12
1683.199	166.12
1687.663	153.12
1692.122	149.12
1696.577	137.12
1701.028	131.12
1705.474	120.12
1709.917	125.12
1714.355	127.12
1718.788	126.12
1723.218	117.12
1727.643	114.12
1732.064	109.12
1736.481	110.12
1740.893	108.12
1745.301	102.12
1749.705	104.12
1754.105	106.12
1758.501	100.12
1762.893	97.12
1767.28	88.12
1771.663	89.12
1776.042	85.12
1780.417	78.12
1784.787	83.12
1789.154	85.12
1793.516	82.12
1797.874	83.12
1802.228	90.12
1806.578	84.12
1810.924	86.12
1815.266	78.12
1819.603	76.12
1823.937	76.12
1828.266	74.12
1832.591	78.12
1836.913	75.12
1841.23	73.12
1845.543	76.12
1849.852	74.12
1854.156	71.12
1858.457	70.12
1862.754	68.12
1867.047	69.12
1871.335	67.12
1875.62	71.12
1879.9	69.12
1884.177	69.12
1888.449	76.12
1892.718	67.12
1896.982	68.12
1901.243	66.12
1905.499	68.12
1909.752	70.12
1914	70.12
1918.245	74.12
1922.485	69.12
1926.722	71.12
1930.954	69.12
1935.183	71.12
1939.408	67.12
1943.628	67.12
1947.845	72.12
1952.058	68.12
1956.267	69.12
1960.472	63.12
1964.673	66.12
1968.87	66.12
1973.063	62.12
1977.252	59.12
1981.438	62.12
1985.619	62.12
1989.797	65.12
1993.971	57.12
1998.14	60.12
2002.306	61.12
2006.469	60.12
2010.627	57.12
2014.781	56.12
2018.932	57.12
2023.078	58.12
2027.221	57.12
2031.36	58.12
2035.495	58.12
2039.627	52.12
2043.754	55.12
2047.878	54.12
2051.998	52.12
2056.114	55.12
2060.226	56.12
2064.334	56.12
2068.439	61.12
2072.54	57.12
2076.637	59.12
2080.73	62.12
2084.82	58.12
2088.906	61.12
2092.988	58.12
2097.066	57.12
2101.14	62.12
2105.211	64.12
2109.278	59.12
2113.342	54.12
2117.401	58.12
2121.457	57.12
2125.509	55.12
2129.558	48.12
2133.602	52.12
2137.643	52.12
2141.681	55.12
2145.714	51.12
2149.744	52.12
2153.77	54.12
2157.793	52.12
2161.812	47.12
2165.827	50.12
2169.838	44.12
2173.846	45.12
2177.851	48.12
2181.851	50.12
2185.848	46.12
2189.841	43.12
2193.831	39.12
2197.817	43.12
2201.799	43.12
2205.778	42.12
2209.753	41.12
2213.725	43.12
2217.693	39.12
2221.657	38.12
2225.618	41.12
2229.575	38.12
2233.529	34.12
2237.479	40.12
2241.425	38.12
2245.368	39.12
2249.307	35.12
2253.243	33.12
2257.175	33.12
2261.104	34.12
2265.029	35.12
2268.95	31.12
2272.868	30.12
2276.783	30.12
2280.694	34.12
2284.601	32.12
2288.505	32.12
2292.405	31.12
2296.302	23.12
2300.195	22.12
2304.085	26.12
2307.971	29.12
2311.854	21.12
2315.734	26.12
2319.609	22.12
2323.482	17.12
2327.351	21.12
2331.216	23.12
2335.078	29.12
2338.937	23.12
2342.792	27.12
2346.643	22.12
2350.492	20.12
2354.336	19.12
2358.178	24.12
2362.015	19.12
2365.85	17.12
2369.681	17.12
2373.508	16.12
2377.333	14.12
2381.153	19.12
2384.971	21.12
2388.785	18.12
2392.595	20.12
2396.402	16.12
2400.206	20.12
2404.007	17.12
2407.804	15.12
2411.597	17.12
2415.388	12.12
2419.174	17.12
2422.958	17.12
2426.738	14.12
2430.515	15.12
2434.289	16.12
2438.059	10.12
2441.825	11.12
2445.589	12.12
2449.349	12.12
2453.106	14.12
2456.859	13.12
2460.61	11.12
2464.356	11.12
2468.1	11.12
2471.84	7.12
2475.577	9.12
2479.311	9.12
2483.041	12.12
2486.768	7.12
2490.492	15.12
2494.213	13.12
2497.93	18.12
2501.644	10.12
2505.355	15.12
2509.062	12.12
2512.766	11.12
2516.467	15.12
2520.165	12.12
2523.859	15.12
2527.551	16.12
2531.239	11.12
2534.923	9.12
2538.605	10.12
2542.283	12.12
2545.958	5.12
2549.63	6.12
2553.299	9.12
2556.964	10.12
2560.626	14.12
2564.285	13.12
2567.941	14.12
2571.594	5.12
2575.243	11.12
2578.89	11.12
2582.533	8.12
2586.173	7.12
2589.809	10.12
2593.443	13.12
2597.073	12.12
2600.701	10.12
2604.325	9.12
2607.946	8.12
2611.564	8.12
2615.178	8.12
2618.79	4.12
2622.398	7.12
2626.004	11.12
2629.606	6.12
2633.205	10.12
2636.801	9.12
2640.394	9.12
2643.983	10.12
2647.57	5.12
2651.153	4.12
2654.734	7.12
2658.311	6.12
2661.885	12.12
2665.456	9.12
2669.025	8.12
2672.589	7.12
2676.151	3.12
2679.71	6.12
2683.266	10.12
2686.819	11.12
2690.368	13.12
2693.915	9.12
2697.458	6.12
2700.999	6.12
2704.536	5.12
2708.071	6.12
2711.602	8.12
2715.13	11.12
2718.656	14.12
2722.178	12.12
2725.697	13.12
2729.214	12.12
2732.727	11.12
2736.237	9.12
2739.744	11.12
2743.249	7.12
2746.75	6.12
2750.248	11.12
2753.743	11.12
2757.236	12.12
2760.725	15.12
2764.211	12.12
2767.695	8.12
2771.175	11.12
2774.652	10.12
2778.127	7.12
2781.598	8.12
2785.067	9.12
2788.532	11.12
2791.995	11.12
2795.455	8.12
2798.911	9.12
2802.365	12.12
2805.816	12.12
2809.264	8.12
2812.709	16.12
2816.151	13.12
2819.59	15.12
2823.026	20.12
2826.46	22.12
2829.89	23.12
2833.318	37.12
2836.742	34.12
2840.164	41.12
2843.583	45.12
2846.999	54.12
2850.412	72.12
2853.822	79.12
2857.229	87.12
2860.634	83.12
2864.035	89.12
2867.434	87.12
2870.83	88.12
2874.223	96.12
2877.613	101.12
2881	101.12
2884.385	111.12
2887.766	109.12
2891.145	109.12
2894.521	109.12
2897.894	112.12
2901.264	105.12
2904.631	106.12
2907.996	109.12
2911.358	103.12
2914.717	100.12
2918.073	98.12
2921.426	102.12
2924.777	98.12
2928.124	98.12
2931.469	91.12
2934.811	98.12
2938.15	95.12
2941.487	88.12
2944.821	84.12
2948.152	81.12
2951.48	75.12
2954.805	71.12
2958.128	73.12
2961.447	70.12
2964.765	58.12
2968.079	57.12
2971.39	53.12
2974.699	59.12
2978.005	55.12
2981.308	49.12
2984.609	48.12
2987.907	46.12
2991.202	44.12
2994.494	39.12
2997.784	41.12
3001.07	43.12
3004.355	45.12
3007.636	45.12
3010.915	42.12
3014.191	37.12
3017.464	31.12
3020.734	33.12
3024.002	33.12
3027.267	32.12
3030.53	29.12
3033.789	37.12
3037.046	34.12
3040.301	37.12
3043.552	36.12
3046.801	37.12
3050.048	38.12
3053.291	36.12
3056.532	40.12
3059.771	38.12
3063.006	40.12
3066.239	49.12
3069.469	50.12
3072.697	48.12
3075.922	45.12
3079.144	53.12
3082.364	53.12
3085.581	55.12
3088.795	56.12
3092.007	57.12
3095.216	56.12
3098.423	61.12
3101.627	60.12
3104.828	57.12
3108.026	58.12
3111.222	62.12
3114.416	63.12
3117.607	63.12
3120.795	64.12
3123.98	70.12
3127.163	67.12
3130.344	70.12
3133.521	76.12
3136.696	78.12
3139.869	76.12
3143.039	78.12
3146.206	80.12
3149.371	84.12
3152.533	80.12
3155.693	85.12
3158.85	77.12
3162.005	86.12
3165.157	83.12
3168.306	79.12
3171.453	84.12
3174.597	81.12
3177.739	83.12
3180.878	85.12
3184.014	84.12
3187.149	88.12
3190.28	89.12
3193.409	85.12
3196.536	87.12
3199.659	88.12
3202.781	83.12
3205.9	82.12
3209.016	90.12
3212.13	86.12
3215.241	90.12
3218.35	84.12
3221.456	90.12
3224.56	85.12
3227.661	79.12
3230.76	78.12
3233.856	76.12
3236.95	86.12
3240.041	82.12
3243.13	79.12
3246.216	84.12
3249.3	76.12
3252.382	78.12
3255.46	72.12
3258.537	75.12
3261.611	77.12
3264.682	79.12
3267.751	75.12
3270.818	73.12
3273.882	68.12
3276.943	73.12
3280.002	73.12
3283.059	70.12
3286.113	69.12
3289.165	73.12
3292.214	73.12
3295.261	72.12
3298.306	74.12
3301.348	71.12
3304.387	64.12
3307.425	62.12
3310.459	61.12
3313.492	58.12
3316.521	60.12
3319.549	64.12
3322.574	63.12
3325.597	61.12
3328.617	59.12
3331.635	60.12
3334.65	62.12
3337.663	55.12
3340.674	55.12
3343.682	56.12
3346.688	59.12
3349.691	56.12
3352.692	57.12
3355.691	58.12
3358.687	54.12
3361.681	54.12
3364.673	47.12
3367.662	53.12
3370.649	52.12
3373.633	57.12
3376.615	53.12
3379.595	48.12
3382.572	52.12
3385.547	47.12
3388.52	46.12
3391.49	43.12
3394.458	45.12
3397.424	40.12
3400.387	46.12
3403.348	39.12
3406.307	49.12
3409.263	41.12
3412.217	38.12
3415.168	38.12
3418.118	36.12
3421.065	40.12
3424.009	43.12
3426.951	44.12
3429.891	41.12
3432.829	36.12
3435.764	40.12
3438.697	40.12
3441.628	32.12
3444.557	27.12
3447.483	29.12
3450.407	35.12
3453.328	32.12
3456.247	29.12
3459.164	29.12
3462.079	24.12
3464.991	22.12
3467.902	22.12
3470.809	20.12
3473.715	22.12
3476.618	25.12
3479.519	21.12
3482.418	18.12
3485.315	22.12
3488.209	21.12
3491.101	17.12
3493.99	13.12
3496.878	9.12
3499.763	18.12
3502.646	14.12
3505.527	14.12
3508.405	13.12
3511.281	10.12
3514.155	10.12
3517.027	8.12
3519.897	6.12
3522.764	7.12
3525.629	2.12
3528.492	10.12
3531.352	10.12
3534.211	6.12
3537.067	-0.88
3539.921	3.12
3542.773	1.12
3545.622	0.12
3548.469	-4.88
3551.315	1.12
3554.157	-1.88
3556.998	-1.88
3559.837	-2.88
3562.673	1.12
3565.507	-3.88
3568.339	-6.88
3571.169	-3.88
3573.996	-8.88
3576.822	-8.88
3579.645	-7.88
3582.466	-4.88
3585.285	-7.88
3588.101	-6.88
3590.916	-6.88
3593.728	-10.88
3596.538	-9.88
3599.346	-10.88
3602.152	-10.88
3604.956	-6.88
3607.757	-10.88
3610.556	-5.88
3613.354	-9.88
3616.149	-11.88
3618.942	-11.88
3621.732	-9.88
3624.521	-12.88
3627.307	-10.88
3630.092	-10.88
3632.874	-9.88
3635.654	-14.88
3638.432	-13.88
3641.208	-13.88
3643.982	-16.88
3646.753	-14.88
3649.523	-16.88
3652.29	-13.88
3655.055	-11.88
3657.818	-13.88
3660.579	-11.88
3663.338	-15.88
3666.095	-17.88
3668.849	-17.88
3671.602	-18.88
3674.352	-17.88
3677.101	-18.88
3679.847	-16.88
3682.591	-13.88
3685.333	-13.88
3688.073	-16.88
3690.811	-12.88
3693.547	-17.88
3696.281	-16.88
3699.013	-19.88
3701.742	-15.88
3704.47	-16.88
3707.195	-16.88
3709.919	-13.88
3712.64	-15.88
3715.359	-17.88
3718.076	-21.88
3720.792	-18.88
3723.505	-23.88
3726.216	-21.88
3728.925	-19.88
3731.632	-18.88
3734.336	-18.88
3737.039	-16.88
3739.74	-16.88
3742.439	-17.88
3745.136	-21.88
3747.83	-22.88
3750.523	-22.88
3753.213	-19.88
3755.902	-16.88
3758.589	-19.88
3761.273	-16.88
3763.956	-20.88
3766.636	-25.88
3769.315	-18.88
3771.991	-20.88
3774.665	-18.88
3777.338	-21.88
3780.008	-19.88
3782.677	-16.88
3785.343	-15.88
3788.007	-19.88
3790.67	-19.88
3793.33	-18.88
3795.989	-24.88
3798.645	-24.88
3801.299	-24.88
3803.952	-22.88
3806.602	-20.88
3809.251	-15.88
3811.897	-18.88
3814.542	-20.88
3817.184	-19.88
3819.825	-22.88
3822.463	-21.88
3825.1	-24.88
3827.735	-21.88
3830.367	-21.88
3832.998	-18.88
3835.627	-18.88
3838.253	-20.88
3840.878	-22.88
3843.501	-23.88
3846.122	-21.88
3848.741	-24.88
3851.358	-16.88
3853.973	-20.88
3856.586	-18.88
3859.197	-19.88
3861.806	-21.88
3864.414	-23.88
3867.019	-18.88
3869.622	-22.88
3872.224	-18.88
3874.823	-17.88
3877.421	-15.88
3880.016	-15.88
3882.61	-11.88
3885.202	-13.88
3887.792	-18.88
3890.38	-15.88
3892.966	-19.88
3895.55	-19.88
3898.132	-23.88
3900.713	-18.88
3903.291	-19.88
3905.868	-18.88
3908.442	-22.88
3911.015	-25.88
3913.586	-21.88
3916.155	-20.88
3918.722	-19.88
3921.287	-21.88
3923.85	-20.88
3926.411	-16.88
3928.971	-21.88
3931.528	-21.88
3934.084	-20.88
3936.638	-17.88
3939.19	-18.88
3941.74	-20.88
3944.288	-16.88
3946.834	-22.88
3949.378	-18.88
3951.921	-21.88
3954.462	-18.88
3957	-18.88
3959.537	-18.88
3962.072	-16.88
3964.606	-15.88
3967.137	-21.88
3969.667	-22.88
3972.194	-22.88
3974.72	-21.88
3977.244	-24.88
3979.766	-21.88
3982.286	-20.88
3984.805	-16.88
3987.321	-17.88
3989.836	-19.88
3992.349	-20.88
3994.86	-19.88
3997.369	-21.88
3999.877	-16.88
4002.382	-19.88
4004.886	-19.88
4007.388	-19.88
4009.888	-18.88
4012.386	-16.88
4014.883	-20.88
4017.377	-19.88
4019.87	-22.88
4022.361	-17.88
4024.85	-15.88
4027.338	-16.88
4029.823	-18.88
4032.307	-16.88
4034.789	-20.88
4037.269	-20.88
4039.747	-16.88
4042.224	-22.88
4044.699	-19.88
4047.172	-16.88
4049.643	-17.88
4052.112	-16.88
4054.58	-19.88
4057.046	-22.88
4059.51	-19.88
4061.972	-19.88
4064.432	-20.88
4066.891	-18.88
4069.348	-18.88
4071.803	-16.88
4074.256	-16.88
4076.708	-17.88
4079.158	-19.88
4081.606	-20.88
4084.052	-20.88
4086.497	-20.88
4088.939	-19.88
4091.38	-22.88
4093.819	-19.88
4096.257	-17.88
4098.693	-19.88
4101.127	-18.88
4103.559	-20.88
4105.989	-8.88
4108.418	-9.88
4110.845	-6.88
4113.27	-9.88
4115.694	-4.88
4118.115	-1.88
4120.535	-16.88
4122.954	-18.88
4125.37	-20.88
4127.785	-24.88
4130.198	-21.88
4132.609	-22.88
4135.019	-22.88
4137.427	-21.88
4139.833	-20.88
4142.237	-19.88
