Data from 10CFU2_A_RamanShift_1.txt Node
Date: Mon Feb 13 13:24:24 IST 2017
User: aro
Spectrometer: QEPB0276
Trigger mode: 0
Integration Time (sec): 5.000000E0
Scans to average: 1
Electric dark correction enabled: true
Nonlinearity correction enabled: false
Boxcar width: 0
XAxis mode: Raman Shifts
Number of Pixels in Spectrum: 1044
>>>>>Begin Spectral Data<<<<<
160.701	-3.12
166.742	1.88
172.777	18.88
178.805	68.88
184.826	169.88
190.841	354.88
196.849	552.88
202.85	676.88
208.845	722.88
214.833	705.88
220.815	699.88
226.789	677.88
232.758	670.88
238.719	670.88
244.674	665.88
250.623	651.88
256.565	635.88
262.5	613.88
268.429	608.88
274.351	598.88
280.267	588.88
286.176	582.88
292.079	571.88
297.975	576.88
303.865	571.88
309.748	565.88
315.625	562.88
321.495	568.88
327.359	567.88
333.217	568.88
339.068	567.88
344.912	560.88
350.751	571.88
356.583	580.88
362.408	583.88
368.227	563.88
374.04	565.88
379.847	562.88
385.647	566.88
391.44	571.88
397.228	576.88
403.009	570.88
408.784	591.88
414.553	584.88
420.315	588.88
426.071	587.88
431.821	598.88
437.565	597.88
443.302	595.88
449.033	588.88
454.758	576.88
460.477	583.88
466.189	569.88
471.896	559.88
477.596	555.88
483.29	554.88
488.978	547.88
494.66	532.88
500.335	511.88
506.005	500.88
511.668	482.88
517.325	468.88
522.977	453.88
528.622	434.88
534.261	431.88
539.894	419.88
545.521	408.88
551.141	414.88
556.756	403.88
562.365	397.88
567.968	390.88
573.565	386.88
579.155	388.88
584.74	387.88
590.319	375.88
595.892	380.88
601.459	381.88
607.02	376.88
612.575	381.88
618.124	366.88
623.667	348.88
629.204	355.88
634.735	356.88
640.261	354.88
645.781	347.88
651.294	347.88
656.802	343.88
662.304	338.88
667.8	333.88
673.29	334.88
678.775	337.88
684.254	333.88
689.726	327.88
695.193	322.88
700.655	323.88
706.11	318.88
711.56	325.88
717.004	322.88
722.442	325.88
727.874	316.88
733.301	314.88
738.722	309.88
744.137	320.88
749.547	315.88
754.951	318.88
760.349	315.88
765.741	316.88
771.128	316.88
776.509	316.88
781.885	314.88
787.254	316.88
792.618	329.88
797.977	319.88
803.33	323.88
808.677	322.88
814.019	317.88
819.355	313.88
824.686	311.88
830.011	312.88
835.33	321.88
840.644	316.88
845.952	331.88
851.255	320.88
856.552	328.88
861.844	321.88
867.13	331.88
872.41	324.88
877.686	323.88
882.955	328.88
888.219	331.88
893.478	323.88
898.731	311.88
903.979	300.88
909.221	299.88
914.458	293.88
919.69	285.88
924.916	275.88
930.136	285.88
935.351	285.88
940.561	285.88
945.766	285.88
950.965	288.88
956.158	281.88
961.347	274.88
966.529	273.88
971.707	260.88
976.879	263.88
982.046	262.88
987.208	257.88
992.364	262.88
997.515	272.88
1002.66	272.88
1007.801	266.88
1012.936	274.88
1018.066	283.88
1023.19	289.88
1028.309	284.88
1033.423	290.88
1038.532	285.88
1043.636	283.88
1048.734	286.88
1053.827	279.88
1058.915	292.88
1063.998	305.88
1069.075	307.88
1074.147	308.88
1079.214	305.88
1084.276	316.88
1089.333	314.88
1094.385	308.88
1099.431	319.88
1104.472	294.88
1109.509	291.88
1114.54	286.88
1119.565	285.88
1124.586	289.88
1129.602	277.88
1134.613	280.88
1139.618	267.88
1144.619	255.88
1149.614	254.88
1154.604	251.88
1159.589	244.88
1164.57	235.88
1169.545	242.88
1174.515	230.88
1179.48	231.88
1184.44	227.88
1189.395	226.88
1194.345	218.88
1199.29	219.88
1204.23	221.88
1209.165	222.88
1214.095	221.88
1219.021	217.88
1223.941	224.88
1228.856	231.88
1233.766	240.88
1238.672	245.88
1243.572	236.88
1248.467	241.88
1253.358	244.88
1258.244	246.88
1263.124	255.88
1268	245.88
1272.871	240.88
1277.737	247.88
1282.599	236.88
1287.455	233.88
1292.306	229.88
1297.153	245.88
1301.995	264.88
1306.832	271.88
1311.664	266.88
1316.491	254.88
1321.314	245.88
1326.132	239.88
1330.945	224.88
1335.753	215.88
1340.556	222.88
1345.354	211.88
1350.148	204.88
1354.937	211.88
1359.722	200.88
1364.501	205.88
1369.276	195.88
1374.046	201.88
1378.811	210.88
1383.572	200.88
1388.327	197.88
1393.079	191.88
1397.825	186.88
1402.567	176.88
1407.304	179.88
1412.036	181.88
1416.764	187.88
1421.487	189.88
1426.205	194.88
1430.919	197.88
1435.628	221.88
1440.333	244.88
1445.032	256.88
1449.727	267.88
1454.418	262.88
1459.104	249.88
1463.785	247.88
1468.462	226.88
1473.134	216.88
1477.802	192.88
1482.465	183.88
1487.123	165.88
1491.777	159.88
1496.426	156.88
1501.071	147.88
1505.711	149.88
1510.347	148.88
1514.978	145.88
1519.604	153.88
1524.226	150.88
1528.844	148.88
1533.457	144.88
1538.065	148.88
1542.669	148.88
1547.269	142.88
1551.864	145.88
1556.454	147.88
1561.041	142.88
1565.622	140.88
1570.199	138.88
1574.772	141.88
1579.34	145.88
1583.904	147.88
1588.464	145.88
1593.019	144.88
1597.569	148.88
1602.115	151.88
1606.657	151.88
1611.195	153.88
1615.728	157.88
1620.256	151.88
1624.78	154.88
1629.3	156.88
1633.816	156.88
1638.327	154.88
1642.834	163.88
1647.336	167.88
1651.834	173.88
1656.328	185.88
1660.817	181.88
1665.302	172.88
1669.783	169.88
1674.259	164.88
1678.732	157.88
1683.199	143.88
1687.663	143.88
1692.122	140.88
1696.577	134.88
1701.028	126.88
1705.474	124.88
1709.917	122.88
1714.355	113.88
1718.788	114.88
1723.218	114.88
1727.643	102.88
1732.064	105.88
1736.481	105.88
1740.893	106.88
1745.301	95.88
1749.705	92.88
1754.105	92.88
1758.501	90.88
1762.893	87.88
1767.28	85.88
1771.663	81.88
1776.042	79.88
1780.417	76.88
1784.787	75.88
1789.154	79.88
1793.516	79.88
1797.874	77.88
1802.228	74.88
1806.578	78.88
1810.924	73.88
1815.266	68.88
1819.603	75.88
1823.937	73.88
1828.266	69.88
1832.591	65.88
1836.913	70.88
1841.23	70.88
1845.543	66.88
1849.852	68.88
1854.156	65.88
1858.457	63.88
1862.754	67.88
1867.047	65.88
1871.335	65.88
1875.62	67.88
1879.9	67.88
1884.177	67.88
1888.449	61.88
1892.718	70.88
1896.982	59.88
1901.243	69.88
1905.499	66.88
1909.752	66.88
1914	63.88
1918.245	59.88
1922.485	64.88
1926.722	66.88
1930.954	65.88
1935.183	64.88
1939.408	65.88
1943.628	65.88
1947.845	65.88
1952.058	62.88
1956.267	62.88
1960.472	59.88
1964.673	66.88
1968.87	57.88
1973.063	60.88
1977.252	56.88
1981.438	54.88
1985.619	55.88
1989.797	57.88
1993.971	53.88
1998.14	55.88
2002.306	51.88
2006.469	55.88
2010.627	54.88
2014.781	54.88
2018.932	55.88
2023.078	54.88
2027.221	52.88
2031.36	52.88
2035.495	48.88
2039.627	51.88
2043.754	56.88
2047.878	47.88
2051.998	47.88
2056.114	45.88
2060.226	49.88
2064.334	51.88
2068.439	51.88
2072.54	52.88
2076.637	51.88
2080.73	50.88
2084.82	53.88
2088.906	52.88
2092.988	55.88
2097.066	49.88
2101.14	52.88
2105.211	52.88
2109.278	52.88
2113.342	56.88
2117.401	49.88
2121.457	48.88
2125.509	45.88
2129.558	45.88
2133.602	45.88
2137.643	53.88
2141.681	46.88
2145.714	46.88
2149.744	43.88
2153.77	43.88
2157.793	44.88
2161.812	43.88
2165.827	48.88
2169.838	42.88
2173.846	41.88
2177.851	32.88
2181.851	47.88
2185.848	37.88
2189.841	36.88
2193.831	38.88
2197.817	33.88
2201.799	37.88
2205.778	35.88
2209.753	36.88
2213.725	36.88
2217.693	39.88
2221.657	36.88
2225.618	38.88
2229.575	37.88
2233.529	30.88
2237.479	37.88
2241.425	31.88
2245.368	35.88
2249.307	30.88
2253.243	31.88
2257.175	31.88
2261.104	26.88
2265.029	26.88
2268.95	32.88
2272.868	29.88
2276.783	30.88
2280.694	32.88
2284.601	26.88
2288.505	27.88
2292.405	25.88
2296.302	19.88
2300.195	21.88
2304.085	21.88
2307.971	22.88
2311.854	23.88
2315.734	17.88
2319.609	15.88
2323.482	13.88
2327.351	19.88
2331.216	22.88
2335.078	21.88
2338.937	19.88
2342.792	19.88
2346.643	16.88
2350.492	15.88
2354.336	14.88
2358.178	14.88
2362.015	17.88
2365.85	14.88
2369.681	15.88
2373.508	19.88
2377.333	17.88
2381.153	16.88
2384.971	16.88
2388.785	9.88
2392.595	14.88
2396.402	12.88
2400.206	17.88
2404.007	14.88
2407.804	16.88
2411.597	13.88
2415.388	10.88
2419.174	11.88
2422.958	15.88
2426.738	13.88
2430.515	11.88
2434.289	15.88
2438.059	11.88
2441.825	10.88
2445.589	15.88
2449.349	10.88
2453.106	9.88
2456.859	7.88
2460.61	8.88
2464.356	13.88
2468.1	11.88
2471.84	8.88
2475.577	6.88
2479.311	6.88
2483.041	3.88
2486.768	11.88
2490.492	10.88
2494.213	8.88
2497.93	10.88
2501.644	9.88
2505.355	3.88
2509.062	9.88
2512.766	5.88
2516.467	9.88
2520.165	4.88
2523.859	10.88
2527.551	12.88
2531.239	8.88
2534.923	5.88
2538.605	4.88
2542.283	5.88
2545.958	5.88
2549.63	9.88
2553.299	10.88
2556.964	11.88
2560.626	9.88
2564.285	4.88
2567.941	7.88
2571.594	4.88
2575.243	8.88
2578.89	4.88
2582.533	11.88
2586.173	11.88
2589.809	11.88
2593.443	4.88
2597.073	6.88
2600.701	9.88
2604.325	3.88
2607.946	7.88
2611.564	5.88
2615.178	10.88
2618.79	6.88
2622.398	6.88
2626.004	6.88
2629.606	5.88
2633.205	5.88
2636.801	7.88
2640.394	4.88
2643.983	4.88
2647.57	2.88
2651.153	7.88
2654.734	1.88
2658.311	5.88
2661.885	6.88
2665.456	4.88
2669.025	5.88
2672.589	5.88
2676.151	5.88
2679.71	9.88
2683.266	8.88
2686.819	2.88
2690.368	1.88
2693.915	-0.12
2697.458	5.88
2700.999	6.88
2704.536	8.88
2708.071	5.88
2711.602	4.88
2715.13	8.88
2718.656	8.88
2722.178	6.88
2725.697	10.88
2729.214	9.88
2732.727	11.88
2736.237	10.88
2739.744	10.88
2743.249	4.88
2746.75	7.88
2750.248	7.88
2753.743	4.88
2757.236	6.88
2760.725	8.88
2764.211	4.88
2767.695	9.88
2771.175	7.88
2774.652	6.88
2778.127	0.88
2781.598	3.88
2785.067	8.88
2788.532	4.88
2791.995	6.88
2795.455	8.88
2798.911	8.88
2802.365	8.88
2805.816	10.88
2809.264	6.88
2812.709	7.88
2816.151	10.88
2819.59	13.88
2823.026	18.88
2826.46	18.88
2829.89	21.88
2833.318	22.88
2836.742	25.88
2840.164	26.88
2843.583	40.88
2846.999	45.88
2850.412	61.88
2853.822	64.88
2857.229	74.88
2860.634	74.88
2864.035	75.88
2867.434	74.88
2870.83	78.88
2874.223	85.88
2877.613	87.88
2881	87.88
2884.385	96.88
2887.766	98.88
2891.145	100.88
2894.521	95.88
2897.894	98.88
2901.264	98.88
2904.631	96.88
2907.996	88.88
2911.358	86.88
2914.717	85.88
2918.073	89.88
2921.426	85.88
2924.777	86.88
2928.124	85.88
2931.469	83.88
2934.811	83.88
2938.15	78.88
2941.487	78.88
2944.821	74.88
2948.152	69.88
2951.48	65.88
2954.805	68.88
2958.128	58.88
2961.447	56.88
2964.765	57.88
2968.079	51.88
2971.39	50.88
2974.699	52.88
2978.005	47.88
2981.308	45.88
2984.609	38.88
2987.907	38.88
2991.202	37.88
2994.494	35.88
2997.784	38.88
3001.07	37.88
3004.355	30.88
3007.636	34.88
3010.915	36.88
3014.191	33.88
3017.464	30.88
3020.734	31.88
3024.002	30.88
3027.267	29.88
3030.53	26.88
3033.789	26.88
3037.046	29.88
3040.301	32.88
3043.552	32.88
3046.801	28.88
3050.048	30.88
3053.291	28.88
3056.532	30.88
3059.771	35.88
3063.006	33.88
3066.239	34.88
3069.469	37.88
3072.697	37.88
3075.922	39.88
3079.144	45.88
3082.364	39.88
3085.581	41.88
3088.795	45.88
3092.007	45.88
3095.216	46.88
3098.423	40.88
3101.627	47.88
3104.828	46.88
3108.026	51.88
3111.222	54.88
3114.416	53.88
3117.607	52.88
3120.795	59.88
3123.98	61.88
3127.163	58.88
3130.344	62.88
3133.521	65.88
3136.696	66.88
3139.869	66.88
3143.039	66.88
3146.206	69.88
3149.371	67.88
3152.533	71.88
3155.693	73.88
3158.85	70.88
3162.005	71.88
3165.157	72.88
3168.306	72.88
3171.453	73.88
3174.597	73.88
3177.739	71.88
3180.878	70.88
3184.014	79.88
3187.149	79.88
3190.28	81.88
3193.409	74.88
3196.536	73.88
3199.659	78.88
3202.781	77.88
3205.9	79.88
3209.016	78.88
3212.13	69.88
3215.241	76.88
3218.35	78.88
3221.456	73.88
3224.56	68.88
3227.661	70.88
3230.76	70.88
3233.856	70.88
3236.95	72.88
3240.041	69.88
3243.13	64.88
3246.216	65.88
3249.3	70.88
3252.382	66.88
3255.46	62.88
3258.537	67.88
3261.611	64.88
3264.682	67.88
3267.751	65.88
3270.818	62.88
3273.882	66.88
3276.943	62.88
3280.002	64.88
3283.059	63.88
3286.113	58.88
3289.165	58.88
3292.214	65.88
3295.261	54.88
3298.306	53.88
3301.348	58.88
3304.387	56.88
3307.425	55.88
3310.459	52.88
3313.492	51.88
3316.521	50.88
3319.549	51.88
3322.574	50.88
3325.597	49.88
3328.617	47.88
3331.635	50.88
3334.65	45.88
3337.663	47.88
3340.674	46.88
3343.682	50.88
3346.688	44.88
3349.691	48.88
3352.692	43.88
3355.691	50.88
3358.687	50.88
3361.681	46.88
3364.673	47.88
3367.662	40.88
3370.649	44.88
3373.633	38.88
3376.615	43.88
3379.595	40.88
3382.572	39.88
3385.547	40.88
3388.52	39.88
3391.49	35.88
3394.458	43.88
3397.424	35.88
3400.387	36.88
3403.348	38.88
3406.307	38.88
3409.263	34.88
3412.217	37.88
3415.168	36.88
3418.118	33.88
3421.065	34.88
3424.009	34.88
3426.951	35.88
3429.891	27.88
3432.829	31.88
3435.764	33.88
3438.697	26.88
3441.628	27.88
3444.557	25.88
3447.483	27.88
3450.407	25.88
3453.328	24.88
3456.247	21.88
3459.164	22.88
3462.079	18.88
3464.991	18.88
3467.902	18.88
3470.809	17.88
3473.715	18.88
3476.618	16.88
3479.519	17.88
3482.418	12.88
3485.315	16.88
3488.209	11.88
3491.101	12.88
3493.99	10.88
3496.878	7.88
3499.763	9.88
3502.646	10.88
3505.527	7.88
3508.405	8.88
3511.281	5.88
3514.155	4.88
3517.027	4.88
3519.897	2.88
3522.764	8.88
3525.629	1.88
3528.492	1.88
3531.352	0.88
3534.211	-0.12
3537.067	-3.12
3539.921	-0.12
3542.773	-1.12
3545.622	-1.12
3548.469	-4.12
3551.315	-6.12
3554.157	-5.12
3556.998	-8.12
3559.837	-7.12
3562.673	-4.12
3565.507	-7.12
3568.339	-8.12
3571.169	-11.12
3573.996	-4.12
3576.822	-9.12
3579.645	-12.12
3582.466	-8.12
3585.285	-13.12
3588.101	-9.12
3590.916	-11.12
3593.728	-11.12
3596.538	-11.12
3599.346	-10.12
3602.152	-13.12
3604.956	-11.12
3607.757	-13.12
3610.556	-9.12
3613.354	-13.12
3616.149	-11.12
3618.942	-12.12
3621.732	-17.12
3624.521	-16.12
3627.307	-18.12
3630.092	-14.12
3632.874	-10.12
3635.654	-15.12
3638.432	-15.12
3641.208	-15.12
3643.982	-17.12
3646.753	-19.12
3649.523	-17.12
3652.29	-17.12
3655.055	-18.12
3657.818	-14.12
3660.579	-17.12
3663.338	-18.12
3666.095	-20.12
3668.849	-17.12
3671.602	-17.12
3674.352	-17.12
3677.101	-16.12
3679.847	-19.12
3682.591	-17.12
3685.333	-22.12
3688.073	-20.12
3690.811	-21.12
3693.547	-19.12
3696.281	-16.12
3699.013	-19.12
3701.742	-16.12
3704.47	-16.12
3707.195	-22.12
3709.919	-20.12
3712.64	-19.12
3715.359	-19.12
3718.076	-20.12
3720.792	-18.12
3723.505	-17.12
3726.216	-20.12
3728.925	-18.12
3731.632	-25.12
3734.336	-22.12
3737.039	-16.12
3739.74	-21.12
3742.439	-18.12
3745.136	-16.12
3747.83	-17.12
3750.523	-22.12
3753.213	-24.12
3755.902	-24.12
3758.589	-21.12
3761.273	-19.12
3763.956	-20.12
3766.636	-19.12
3769.315	-18.12
3771.991	-21.12
3774.665	-22.12
3777.338	-22.12
3780.008	-24.12
3782.677	-21.12
3785.343	-20.12
3788.007	-20.12
3790.67	-16.12
3793.33	-20.12
3795.989	-19.12
3798.645	-22.12
3801.299	-20.12
3803.952	-21.12
3806.602	-21.12
3809.251	-17.12
3811.897	-18.12
3814.542	-24.12
3817.184	-22.12
3819.825	-22.12
3822.463	-22.12
3825.1	-22.12
3827.735	-26.12
3830.367	-18.12
3832.998	-20.12
3835.627	-22.12
3838.253	-17.12
3840.878	-25.12
3843.501	-20.12
3846.122	-23.12
3848.741	-18.12
3851.358	-24.12
3853.973	-19.12
3856.586	-19.12
3859.197	-21.12
3861.806	-18.12
3864.414	-21.12
3867.019	-25.12
3869.622	-20.12
3872.224	-19.12
3874.823	-22.12
3877.421	-21.12
3880.016	-16.12
3882.61	-14.12
3885.202	-9.12
3887.792	-17.12
3890.38	-16.12
3892.966	-16.12
3895.55	-23.12
3898.132	-21.12
3900.713	-22.12
3903.291	-20.12
3905.868	-23.12
3908.442	-21.12
3911.015	-20.12
3913.586	-24.12
3916.155	-24.12
3918.722	-20.12
3921.287	-25.12
3923.85	-23.12
3926.411	-19.12
3928.971	-21.12
3931.528	-19.12
3934.084	-20.12
3936.638	-19.12
3939.19	-20.12
3941.74	-23.12
3944.288	-21.12
3946.834	-25.12
3949.378	-24.12
3951.921	-19.12
3954.462	-22.12
3957	-21.12
3959.537	-15.12
3962.072	-20.12
3964.606	-21.12
3967.137	-22.12
3969.667	-21.12
3972.194	-24.12
3974.72	-20.12
3977.244	-22.12
3979.766	-22.12
3982.286	-18.12
3984.805	-19.12
3987.321	-21.12
3989.836	-21.12
3992.349	-22.12
3994.86	-24.12
3997.369	-23.12
3999.877	-20.12
4002.382	-18.12
4004.886	-17.12
4007.388	-17.12
4009.888	-23.12
4012.386	-20.12
4014.883	-23.12
4017.377	-24.12
4019.87	-19.12
4022.361	-22.12
4024.85	-22.12
4027.338	-20.12
4029.823	-24.12
4032.307	-21.12
4034.789	-24.12
4037.269	-18.12
4039.747	-20.12
4042.224	-17.12
4044.699	-19.12
4047.172	-23.12
4049.643	-18.12
4052.112	-21.12
4054.58	-21.12
4057.046	-22.12
4059.51	-19.12
4061.972	-22.12
4064.432	-21.12
4066.891	-23.12
4069.348	-21.12
4071.803	-19.12
4074.256	-19.12
4076.708	-19.12
4079.158	-18.12
4081.606	-18.12
4084.052	-24.12
4086.497	-25.12
4088.939	-22.12
4091.38	-18.12
4093.819	-19.12
4096.257	-22.12
4098.693	-23.12
4101.127	-18.12
4103.559	-20.12
4105.989	-5.12
4108.418	-13.12
4110.845	-10.12
4113.27	-8.12
4115.694	-9.12
4118.115	-8.12
4120.535	-20.12
4122.954	-21.12
4125.37	-23.12
4127.785	-19.12
4130.198	-21.12
4132.609	-19.12
4135.019	-20.12
4137.427	-22.12
4139.833	-22.12
4142.237	-22.12
