Data from 10CFU2_B_RamanShift_1.txt Node
Date: Mon Feb 13 14:02:19 IST 2017
User: aro
Spectrometer: QEPB0276
Trigger mode: 0
Integration Time (sec): 5.000000E0
Scans to average: 1
Electric dark correction enabled: true
Nonlinearity correction enabled: false
Boxcar width: 0
XAxis mode: Raman Shifts
Number of Pixels in Spectrum: 1044
>>>>>Begin Spectral Data<<<<<
160.701	-5.5
166.742	-0.5
172.777	17.5
178.805	78.5
184.826	188.5
190.841	380.5
196.849	589.5
202.85	734.5
208.845	783.5
214.833	769.5
220.815	740.5
226.789	731.5
232.758	730.5
238.719	722.5
244.674	715.5
250.623	694.5
256.565	682.5
262.5	668.5
268.429	659.5
274.351	627.5
280.267	628.5
286.176	628.5
292.079	617.5
297.975	608.5
303.865	590.5
309.748	601.5
315.625	598.5
321.495	592.5
327.359	596.5
333.217	590.5
339.068	594.5
344.912	605.5
350.751	600.5
356.583	619.5
362.408	610.5
368.227	604.5
374.04	604.5
379.847	602.5
385.647	596.5
391.44	603.5
397.228	592.5
403.009	606.5
408.784	616.5
414.553	625.5
420.315	620.5
426.071	616.5
431.821	629.5
437.565	625.5
443.302	632.5
449.033	622.5
454.758	620.5
460.477	604.5
466.189	599.5
471.896	593.5
477.596	591.5
483.29	584.5
488.978	575.5
494.66	570.5
500.335	558.5
506.005	534.5
511.668	514.5
517.325	503.5
522.977	483.5
528.622	459.5
534.261	458.5
539.894	449.5
545.521	433.5
551.141	434.5
556.756	417.5
562.365	418.5
567.968	414.5
573.565	412.5
579.155	407.5
584.74	400.5
590.319	401.5
595.892	398.5
601.459	396.5
607.02	405.5
612.575	393.5
618.124	386.5
623.667	392.5
629.204	377.5
634.735	382.5
640.261	376.5
645.781	379.5
651.294	368.5
656.802	363.5
662.304	367.5
667.8	357.5
673.29	355.5
678.775	355.5
684.254	345.5
689.726	360.5
695.193	350.5
700.655	357.5
706.11	346.5
711.56	343.5
717.004	345.5
722.442	347.5
727.874	340.5
733.301	341.5
738.722	338.5
744.137	325.5
749.547	331.5
754.951	334.5
760.349	334.5
765.741	340.5
771.128	333.5
776.509	341.5
781.885	342.5
787.254	343.5
792.618	354.5
797.977	338.5
803.33	336.5
808.677	342.5
814.019	333.5
819.355	340.5
824.686	335.5
830.011	337.5
835.33	340.5
840.644	341.5
845.952	350.5
851.255	349.5
856.552	352.5
861.844	356.5
867.13	355.5
872.41	352.5
877.686	351.5
882.955	352.5
888.219	351.5
893.478	341.5
898.731	330.5
903.979	326.5
909.221	315.5
914.458	308.5
919.69	309.5
924.916	307.5
930.136	310.5
935.351	301.5
940.561	303.5
945.766	304.5
950.965	312.5
956.158	300.5
961.347	301.5
966.529	293.5
971.707	284.5
976.879	289.5
982.046	285.5
987.208	270.5
992.364	279.5
997.515	284.5
1002.66	286.5
1007.801	290.5
1012.936	311.5
1018.066	300.5
1023.19	299.5
1028.309	303.5
1033.423	307.5
1038.532	305.5
1043.636	301.5
1048.734	302.5
1053.827	313.5
1058.915	312.5
1063.998	319.5
1069.075	331.5
1074.147	338.5
1079.214	325.5
1084.276	338.5
1089.333	339.5
1094.385	334.5
1099.431	342.5
1104.472	321.5
1109.509	317.5
1114.54	305.5
1119.565	301.5
1124.586	305.5
1129.602	311.5
1134.613	305.5
1139.618	289.5
1144.619	274.5
1149.614	267.5
1154.604	268.5
1159.589	263.5
1164.57	261.5
1169.545	256.5
1174.515	251.5
1179.48	244.5
1184.44	240.5
1189.395	239.5
1194.345	231.5
1199.29	234.5
1204.23	239.5
1209.165	241.5
1214.095	234.5
1219.021	232.5
1223.941	233.5
1228.856	245.5
1233.766	248.5
1238.672	250.5
1243.572	263.5
1248.467	265.5
1253.358	264.5
1258.244	263.5
1263.124	261.5
1268	269.5
1272.871	257.5
1277.737	261.5
1282.599	250.5
1287.455	251.5
1292.306	260.5
1297.153	272.5
1301.995	284.5
1306.832	294.5
1311.664	279.5
1316.491	276.5
1321.314	268.5
1326.132	250.5
1330.945	246.5
1335.753	240.5
1340.556	233.5
1345.354	228.5
1350.148	216.5
1354.937	221.5
1359.722	219.5
1364.501	212.5
1369.276	215.5
1374.046	225.5
1378.811	219.5
1383.572	211.5
1388.327	211.5
1393.079	207.5
1397.825	199.5
1402.567	198.5
1407.304	197.5
1412.036	199.5
1416.764	198.5
1421.487	202.5
1426.205	209.5
1430.919	220.5
1435.628	235.5
1440.333	259.5
1445.032	288.5
1449.727	284.5
1454.418	280.5
1459.104	273.5
1463.785	260.5
1468.462	246.5
1473.134	232.5
1477.802	215.5
1482.465	189.5
1487.123	177.5
1491.777	167.5
1496.426	165.5
1501.071	160.5
1505.711	157.5
1510.347	152.5
1514.978	164.5
1519.604	162.5
1524.226	157.5
1528.844	155.5
1533.457	151.5
1538.065	155.5
1542.669	151.5
1547.269	152.5
1551.864	154.5
1556.454	162.5
1561.041	155.5
1565.622	153.5
1570.199	149.5
1574.772	146.5
1579.34	152.5
1583.904	153.5
1588.464	162.5
1593.019	160.5
1597.569	162.5
1602.115	162.5
1606.657	157.5
1611.195	165.5
1615.728	166.5
1620.256	163.5
1624.78	166.5
1629.3	175.5
1633.816	172.5
1638.327	176.5
1642.834	182.5
1647.336	183.5
1651.834	185.5
1656.328	190.5
1660.817	192.5
1665.302	190.5
1669.783	188.5
1674.259	185.5
1678.732	174.5
1683.199	163.5
1687.663	151.5
1692.122	150.5
1696.577	138.5
1701.028	138.5
1705.474	130.5
1709.917	125.5
1714.355	127.5
1718.788	129.5
1723.218	122.5
1727.643	118.5
1732.064	109.5
1736.481	109.5
1740.893	111.5
1745.301	104.5
1749.705	105.5
1754.105	100.5
1758.501	100.5
1762.893	97.5
1767.28	93.5
1771.663	85.5
1776.042	82.5
1780.417	81.5
1784.787	85.5
1789.154	85.5
1793.516	86.5
1797.874	86.5
1802.228	85.5
1806.578	83.5
1810.924	84.5
1815.266	74.5
1819.603	79.5
1823.937	76.5
1828.266	73.5
1832.591	81.5
1836.913	75.5
1841.23	70.5
1845.543	75.5
1849.852	67.5
1854.156	67.5
1858.457	67.5
1862.754	70.5
1867.047	67.5
1871.335	70.5
1875.62	74.5
1879.9	70.5
1884.177	74.5
1888.449	69.5
1892.718	68.5
1896.982	66.5
1901.243	69.5
1905.499	68.5
1909.752	73.5
1914	70.5
1918.245	72.5
1922.485	67.5
1926.722	72.5
1930.954	68.5
1935.183	74.5
1939.408	72.5
1943.628	66.5
1947.845	72.5
1952.058	73.5
1956.267	73.5
1960.472	73.5
1964.673	67.5
1968.87	62.5
1973.063	62.5
1977.252	62.5
1981.438	66.5
1985.619	66.5
1989.797	66.5
1993.971	58.5
1998.14	56.5
2002.306	55.5
2006.469	62.5
2010.627	57.5
2014.781	58.5
2018.932	59.5
2023.078	60.5
2027.221	62.5
2031.36	57.5
2035.495	57.5
2039.627	55.5
2043.754	56.5
2047.878	56.5
2051.998	57.5
2056.114	57.5
2060.226	56.5
2064.334	54.5
2068.439	58.5
2072.54	57.5
2076.637	58.5
2080.73	59.5
2084.82	55.5
2088.906	60.5
2092.988	58.5
2097.066	56.5
2101.14	53.5
2105.211	61.5
2109.278	55.5
2113.342	58.5
2117.401	58.5
2121.457	57.5
2125.509	55.5
2129.558	55.5
2133.602	51.5
2137.643	49.5
2141.681	54.5
2145.714	52.5
2149.744	54.5
2153.77	50.5
2157.793	48.5
2161.812	49.5
2165.827	51.5
2169.838	49.5
2173.846	43.5
2177.851	46.5
2181.851	47.5
2185.848	44.5
2189.841	43.5
2193.831	42.5
2197.817	41.5
2201.799	41.5
2205.778	38.5
2209.753	39.5
2213.725	37.5
2217.693	41.5
2221.657	38.5
2225.618	41.5
2229.575	34.5
2233.529	40.5
2237.479	34.5
2241.425	34.5
2245.368	37.5
2249.307	37.5
2253.243	33.5
2257.175	31.5
2261.104	34.5
2265.029	38.5
2268.95	35.5
2272.868	31.5
2276.783	32.5
2280.694	32.5
2284.601	34.5
2288.505	26.5
2292.405	32.5
2296.302	28.5
2300.195	31.5
2304.085	26.5
2307.971	26.5
2311.854	24.5
2315.734	20.5
2319.609	27.5
2323.482	19.5
2327.351	22.5
2331.216	28.5
2335.078	27.5
2338.937	20.5
2342.792	26.5
2346.643	21.5
2350.492	19.5
2354.336	19.5
2358.178	19.5
2362.015	23.5
2365.85	16.5
2369.681	22.5
2373.508	17.5
2377.333	19.5
2381.153	19.5
2384.971	20.5
2388.785	15.5
2392.595	18.5
2396.402	16.5
2400.206	18.5
2404.007	18.5
2407.804	16.5
2411.597	17.5
2415.388	12.5
2419.174	16.5
2422.958	10.5
2426.738	14.5
2430.515	13.5
2434.289	17.5
2438.059	15.5
2441.825	14.5
2445.589	11.5
2449.349	14.5
2453.106	10.5
2456.859	11.5
2460.61	8.5
2464.356	9.5
2468.1	8.5
2471.84	9.5
2475.577	12.5
2479.311	11.5
2483.041	10.5
2486.768	9.5
2490.492	6.5
2494.213	8.5
2497.93	14.5
2501.644	12.5
2505.355	11.5
2509.062	12.5
2512.766	12.5
2516.467	15.5
2520.165	7.5
2523.859	11.5
2527.551	9.5
2531.239	9.5
2534.923	8.5
2538.605	10.5
2542.283	14.5
2545.958	8.5
2549.63	12.5
2553.299	10.5
2556.964	10.5
2560.626	9.5
2564.285	9.5
2567.941	13.5
2571.594	7.5
2575.243	13.5
2578.89	13.5
2582.533	8.5
2586.173	8.5
2589.809	6.5
2593.443	12.5
2597.073	10.5
2600.701	8.5
2604.325	8.5
2607.946	5.5
2611.564	8.5
2615.178	9.5
2618.79	9.5
2622.398	12.5
2626.004	10.5
2629.606	7.5
2633.205	7.5
2636.801	10.5
2640.394	8.5
2643.983	9.5
2647.57	6.5
2651.153	9.5
2654.734	6.5
2658.311	7.5
2661.885	7.5
2665.456	8.5
2669.025	8.5
2672.589	9.5
2676.151	6.5
2679.71	6.5
2683.266	11.5
2686.819	10.5
2690.368	9.5
2693.915	4.5
2697.458	4.5
2700.999	4.5
2704.536	4.5
2708.071	9.5
2711.602	8.5
2715.13	10.5
2718.656	12.5
2722.178	8.5
2725.697	13.5
2729.214	10.5
2732.727	11.5
2736.237	13.5
2739.744	13.5
2743.249	10.5
2746.75	9.5
2750.248	9.5
2753.743	10.5
2757.236	10.5
2760.725	12.5
2764.211	8.5
2767.695	6.5
2771.175	8.5
2774.652	12.5
2778.127	12.5
2781.598	9.5
2785.067	11.5
2788.532	8.5
2791.995	4.5
2795.455	8.5
2798.911	5.5
2802.365	15.5
2805.816	15.5
2809.264	14.5
2812.709	20.5
2816.151	15.5
2819.59	14.5
2823.026	18.5
2826.46	22.5
2829.89	22.5
2833.318	28.5
2836.742	36.5
2840.164	35.5
2843.583	45.5
2846.999	65.5
2850.412	67.5
2853.822	78.5
2857.229	84.5
2860.634	88.5
2864.035	86.5
2867.434	88.5
2870.83	88.5
2874.223	92.5
2877.613	99.5
2881	99.5
2884.385	101.5
2887.766	110.5
2891.145	105.5
2894.521	110.5
2897.894	109.5
2901.264	111.5
2904.631	106.5
2907.996	105.5
2911.358	100.5
2914.717	99.5
2918.073	96.5
2921.426	100.5
2924.777	100.5
2928.124	96.5
2931.469	98.5
2934.811	102.5
2938.15	96.5
2941.487	90.5
2944.821	84.5
2948.152	80.5
2951.48	74.5
2954.805	71.5
2958.128	70.5
2961.447	68.5
2964.765	64.5
2968.079	62.5
2971.39	63.5
2974.699	56.5
2978.005	52.5
2981.308	50.5
2984.609	46.5
2987.907	49.5
2991.202	41.5
2994.494	43.5
2997.784	44.5
3001.07	43.5
3004.355	40.5
3007.636	37.5
3010.915	38.5
3014.191	36.5
3017.464	33.5
3020.734	30.5
3024.002	34.5
3027.267	36.5
3030.53	32.5
3033.789	31.5
3037.046	35.5
3040.301	31.5
3043.552	33.5
3046.801	32.5
3050.048	33.5
3053.291	35.5
3056.532	40.5
3059.771	39.5
3063.006	41.5
3066.239	41.5
3069.469	46.5
3072.697	44.5
3075.922	45.5
3079.144	50.5
3082.364	53.5
3085.581	52.5
3088.795	56.5
3092.007	58.5
3095.216	55.5
3098.423	51.5
3101.627	54.5
3104.828	55.5
3108.026	59.5
3111.222	62.5
3114.416	62.5
3117.607	66.5
3120.795	67.5
3123.98	69.5
3127.163	71.5
3130.344	69.5
3133.521	71.5
3136.696	75.5
3139.869	86.5
3143.039	73.5
3146.206	78.5
3149.371	84.5
3152.533	86.5
3155.693	78.5
3158.85	81.5
3162.005	82.5
3165.157	79.5
3168.306	84.5
3171.453	82.5
3174.597	85.5
3177.739	87.5
3180.878	84.5
3184.014	84.5
3187.149	83.5
3190.28	85.5
3193.409	86.5
3196.536	81.5
3199.659	88.5
3202.781	87.5
3205.9	87.5
3209.016	90.5
3212.13	86.5
3215.241	86.5
3218.35	78.5
3221.456	85.5
3224.56	86.5
3227.661	82.5
3230.76	85.5
3233.856	83.5
3236.95	85.5
3240.041	79.5
3243.13	75.5
3246.216	76.5
3249.3	77.5
3252.382	77.5
3255.46	70.5
3258.537	78.5
3261.611	73.5
3264.682	75.5
3267.751	76.5
3270.818	69.5
3273.882	76.5
3276.943	75.5
3280.002	75.5
3283.059	77.5
3286.113	69.5
3289.165	74.5
3292.214	72.5
3295.261	69.5
3298.306	69.5
3301.348	62.5
3304.387	66.5
3307.425	63.5
3310.459	67.5
3313.492	62.5
3316.521	58.5
3319.549	63.5
3322.574	61.5
3325.597	60.5
3328.617	55.5
3331.635	60.5
3334.65	58.5
3337.663	58.5
3340.674	57.5
3343.682	56.5
3346.688	54.5
3349.691	59.5
3352.692	58.5
3355.691	59.5
3358.687	56.5
3361.681	51.5
3364.673	53.5
3367.662	50.5
3370.649	51.5
3373.633	50.5
3376.615	52.5
3379.595	46.5
3382.572	47.5
3385.547	45.5
3388.52	46.5
3391.49	42.5
3394.458	47.5
3397.424	42.5
3400.387	41.5
3403.348	40.5
3406.307	39.5
3409.263	41.5
3412.217	36.5
3415.168	40.5
3418.118	32.5
3421.065	39.5
3424.009	38.5
3426.951	42.5
3429.891	37.5
3432.829	32.5
3435.764	34.5
3438.697	39.5
3441.628	38.5
3444.557	33.5
3447.483	33.5
3450.407	31.5
3453.328	24.5
3456.247	29.5
3459.164	30.5
3462.079	28.5
3464.991	23.5
3467.902	26.5
3470.809	20.5
3473.715	17.5
3476.618	20.5
3479.519	20.5
3482.418	15.5
3485.315	20.5
3488.209	15.5
3491.101	17.5
3493.99	14.5
3496.878	12.5
3499.763	14.5
3502.646	12.5
3505.527	12.5
3508.405	10.5
3511.281	11.5
3514.155	13.5
3517.027	6.5
3519.897	7.5
3522.764	9.5
3525.629	1.5
3528.492	4.5
3531.352	0.5
3534.211	-0.5
3537.067	-4.5
3539.921	1.5
3542.773	3.5
3545.622	3.5
3548.469	-1.5
3551.315	-1.5
3554.157	-3.5
3556.998	-6.5
3559.837	-4.5
3562.673	-4.5
3565.507	-5.5
3568.339	-5.5
3571.169	-5.5
3573.996	-8.5
3576.822	-10.5
3579.645	-10.5
3582.466	-10.5
3585.285	-8.5
3588.101	-10.5
3590.916	-6.5
3593.728	-8.5
3596.538	-9.5
3599.346	-9.5
3602.152	-11.5
3604.956	-13.5
3607.757	-16.5
3610.556	-10.5
3613.354	-11.5
3616.149	-10.5
3618.942	-9.5
3621.732	-12.5
3624.521	-11.5
3627.307	-13.5
3630.092	-15.5
3632.874	-13.5
3635.654	-16.5
3638.432	-11.5
3641.208	-12.5
3643.982	-12.5
3646.753	-13.5
3649.523	-17.5
3652.29	-16.5
3655.055	-21.5
3657.818	-17.5
3660.579	-15.5
3663.338	-14.5
3666.095	-17.5
3668.849	-17.5
3671.602	-17.5
3674.352	-18.5
3677.101	-20.5
3679.847	-20.5
3682.591	-20.5
3685.333	-18.5
3688.073	-17.5
3690.811	-13.5
3693.547	-16.5
3696.281	-18.5
3699.013	-20.5
3701.742	-18.5
3704.47	-21.5
3707.195	-19.5
3709.919	-17.5
3712.64	-15.5
3715.359	-17.5
3718.076	-22.5
3720.792	-18.5
3723.505	-23.5
3726.216	-22.5
3728.925	-21.5
3731.632	-20.5
3734.336	-19.5
3737.039	-15.5
3739.74	-14.5
3742.439	-18.5
3745.136	-20.5
3747.83	-21.5
3750.523	-23.5
3753.213	-20.5
3755.902	-19.5
3758.589	-20.5
3761.273	-18.5
3763.956	-21.5
3766.636	-23.5
3769.315	-20.5
3771.991	-21.5
3774.665	-23.5
3777.338	-21.5
3780.008	-21.5
3782.677	-14.5
3785.343	-16.5
3788.007	-18.5
3790.67	-22.5
3793.33	-20.5
3795.989	-22.5
3798.645	-20.5
3801.299	-25.5
3803.952	-20.5
3806.602	-17.5
3809.251	-18.5
3811.897	-20.5
3814.542	-22.5
3817.184	-21.5
3819.825	-24.5
3822.463	-19.5
3825.1	-22.5
3827.735	-17.5
3830.367	-23.5
3832.998	-18.5
3835.627	-19.5
3838.253	-18.5
3840.878	-25.5
3843.501	-20.5
3846.122	-23.5
3848.741	-24.5
3851.358	-17.5
3853.973	-20.5
3856.586	-17.5
3859.197	-21.5
3861.806	-22.5
3864.414	-23.5
3867.019	-22.5
3869.622	-19.5
3872.224	-22.5
3874.823	-21.5
3877.421	-18.5
3880.016	-16.5
3882.61	-12.5
3885.202	-12.5
3887.792	-17.5
3890.38	-17.5
3892.966	-20.5
3895.55	-18.5
3898.132	-23.5
3900.713	-20.5
3903.291	-22.5
3905.868	-19.5
3908.442	-24.5
3911.015	-22.5
3913.586	-21.5
3916.155	-19.5
3918.722	-19.5
3921.287	-18.5
3923.85	-22.5
3926.411	-22.5
3928.971	-21.5
3931.528	-23.5
3934.084	-23.5
3936.638	-20.5
3939.19	-23.5
3941.74	-19.5
3944.288	-19.5
3946.834	-20.5
3949.378	-18.5
3951.921	-21.5
3954.462	-17.5
3957	-21.5
3959.537	-20.5
3962.072	-18.5
3964.606	-19.5
3967.137	-21.5
3969.667	-24.5
3972.194	-22.5
3974.72	-22.5
3977.244	-20.5
3979.766	-22.5
3982.286	-19.5
3984.805	-21.5
3987.321	-18.5
3989.836	-17.5
3992.349	-22.5
3994.86	-20.5
3997.369	-21.5
3999.877	-18.5
4002.382	-19.5
4004.886	-19.5
4007.388	-20.5
4009.888	-19.5
4012.386	-16.5
4014.883	-19.5
4017.377	-20.5
4019.87	-24.5
4022.361	-21.5
4024.85	-19.5
4027.338	-17.5
4029.823	-17.5
4032.307	-19.5
4034.789	-19.5
4037.269	-18.5
4039.747	-17.5
4042.224	-26.5
4044.699	-20.5
4047.172	-16.5
4049.643	-20.5
4052.112	-18.5
4054.58	-18.5
4057.046	-21.5
4059.51	-18.5
4061.972	-19.5
4064.432	-23.5
4066.891	-23.5
4069.348	-20.5
4071.803	-19.5
4074.256	-18.5
4076.708	-20.5
4079.158	-20.5
4081.606	-21.5
4084.052	-19.5
4086.497	-20.5
4088.939	-21.5
4091.38	-21.5
4093.819	-24.5
4096.257	-19.5
4098.693	-21.5
4101.127	-19.5
4103.559	-20.5
4105.989	-8.5
4108.418	-9.5
4110.845	-8.5
4113.27	-4.5
4115.694	-5.5
4118.115	-4.5
4120.535	-16.5
4122.954	-21.5
4125.37	-20.5
4127.785	-23.5
4130.198	-20.5
4132.609	-18.5
4135.019	-25.5
4137.427	-21.5
4139.833	-23.5
4142.237	-19.5
