Data from 1CFU3_A_RamanShift_1.txt Node
Date: Mon Feb 13 13:20:49 IST 2017
User: aro
Spectrometer: QEPB0276
Trigger mode: 0
Integration Time (sec): 5.000000E0
Scans to average: 1
Electric dark correction enabled: true
Nonlinearity correction enabled: false
Boxcar width: 0
XAxis mode: Raman Shifts
Number of Pixels in Spectrum: 1044
>>>>>Begin Spectral Data<<<<<
160.701	-6.12
166.742	-1.12
172.777	22.88
178.805	78.88
184.826	184.88
190.841	380.88
196.849	584.88
202.85	727.88
208.845	771.88
214.833	765.88
220.815	749.88
226.789	733.88
232.758	731.88
238.719	721.88
244.674	705.88
250.623	695.88
256.565	674.88
262.5	662.88
268.429	652.88
274.351	628.88
280.267	617.88
286.176	602.88
292.079	602.88
297.975	600.88
303.865	587.88
309.748	589.88
315.625	588.88
321.495	593.88
327.359	582.88
333.217	597.88
339.068	580.88
344.912	594.88
350.751	599.88
356.583	609.88
362.408	612.88
368.227	614.88
374.04	593.88
379.847	592.88
385.647	587.88
391.44	592.88
397.228	590.88
403.009	606.88
408.784	611.88
414.553	613.88
420.315	615.88
426.071	620.88
431.821	620.88
437.565	620.88
443.302	612.88
449.033	620.88
454.758	613.88
460.477	600.88
466.189	600.88
471.896	589.88
477.596	591.88
483.29	571.88
488.978	565.88
494.66	558.88
500.335	551.88
506.005	532.88
511.668	513.88
517.325	489.88
522.977	469.88
528.622	462.88
534.261	437.88
539.894	440.88
545.521	434.88
551.141	429.88
556.756	425.88
562.365	403.88
567.968	406.88
573.565	403.88
579.155	397.88
584.74	399.88
590.319	397.88
595.892	400.88
601.459	400.88
607.02	393.88
612.575	391.88
618.124	382.88
623.667	380.88
629.204	373.88
634.735	365.88
640.261	371.88
645.781	362.88
651.294	371.88
656.802	360.88
662.304	365.88
667.8	362.88
673.29	352.88
678.775	351.88
684.254	354.88
689.726	343.88
695.193	341.88
700.655	335.88
706.11	344.88
711.56	344.88
717.004	333.88
722.442	352.88
727.874	332.88
733.301	334.88
738.722	325.88
744.137	324.88
749.547	319.88
754.951	332.88
760.349	325.88
765.741	330.88
771.128	336.88
776.509	331.88
781.885	341.88
787.254	335.88
792.618	338.88
797.977	331.88
803.33	343.88
808.677	334.88
814.019	330.88
819.355	344.88
824.686	318.88
830.011	337.88
835.33	338.88
840.644	334.88
845.952	340.88
851.255	354.88
856.552	353.88
861.844	350.88
867.13	347.88
872.41	345.88
877.686	346.88
882.955	355.88
888.219	353.88
893.478	343.88
898.731	339.88
903.979	324.88
909.221	319.88
914.458	305.88
919.69	306.88
924.916	306.88
930.136	303.88
935.351	303.88
940.561	305.88
945.766	308.88
950.965	302.88
956.158	298.88
961.347	294.88
966.529	283.88
971.707	285.88
976.879	275.88
982.046	279.88
987.208	283.88
992.364	274.88
997.515	280.88
1002.66	285.88
1007.801	287.88
1012.936	304.88
1018.066	306.88
1023.19	301.88
1028.309	300.88
1033.423	310.88
1038.532	301.88
1043.636	307.88
1048.734	307.88
1053.827	308.88
1058.915	306.88
1063.998	315.88
1069.075	329.88
1074.147	329.88
1079.214	327.88
1084.276	342.88
1089.333	342.88
1094.385	339.88
1099.431	325.88
1104.472	322.88
1109.509	313.88
1114.54	300.88
1119.565	307.88
1124.586	310.88
1129.602	299.88
1134.613	293.88
1139.618	285.88
1144.619	270.88
1149.614	260.88
1154.604	264.88
1159.589	261.88
1164.57	251.88
1169.545	255.88
1174.515	253.88
1179.48	244.88
1184.44	245.88
1189.395	237.88
1194.345	231.88
1199.29	226.88
1204.23	232.88
1209.165	233.88
1214.095	231.88
1219.021	238.88
1223.941	244.88
1228.856	246.88
1233.766	250.88
1238.672	249.88
1243.572	253.88
1248.467	258.88
1253.358	266.88
1258.244	269.88
1263.124	268.88
1268	256.88
1272.871	262.88
1277.737	262.88
1282.599	249.88
1287.455	251.88
1292.306	256.88
1297.153	267.88
1301.995	279.88
1306.832	296.88
1311.664	286.88
1316.491	274.88
1321.314	266.88
1326.132	253.88
1330.945	235.88
1335.753	232.88
1340.556	231.88
1345.354	231.88
1350.148	228.88
1354.937	223.88
1359.722	220.88
1364.501	213.88
1369.276	205.88
1374.046	219.88
1378.811	214.88
1383.572	222.88
1388.327	214.88
1393.079	202.88
1397.825	209.88
1402.567	199.88
1407.304	188.88
1412.036	193.88
1416.764	192.88
1421.487	203.88
1426.205	209.88
1430.919	223.88
1435.628	240.88
1440.333	267.88
1445.032	278.88
1449.727	290.88
1454.418	285.88
1459.104	280.88
1463.785	279.88
1468.462	255.88
1473.134	242.88
1477.802	204.88
1482.465	188.88
1487.123	174.88
1491.777	168.88
1496.426	159.88
1501.071	158.88
1505.711	155.88
1510.347	162.88
1514.978	154.88
1519.604	157.88
1524.226	158.88
1528.844	156.88
1533.457	157.88
1538.065	160.88
1542.669	155.88
1547.269	157.88
1551.864	151.88
1556.454	158.88
1561.041	151.88
1565.622	155.88
1570.199	149.88
1574.772	148.88
1579.34	155.88
1583.904	155.88
1588.464	158.88
1593.019	156.88
1597.569	162.88
1602.115	158.88
1606.657	160.88
1611.195	160.88
1615.728	166.88
1620.256	164.88
1624.78	164.88
1629.3	167.88
1633.816	162.88
1638.327	172.88
1642.834	175.88
1647.336	177.88
1651.834	181.88
1656.328	187.88
1660.817	196.88
1665.302	187.88
1669.783	185.88
1674.259	184.88
1678.732	171.88
1683.199	160.88
1687.663	154.88
1692.122	149.88
1696.577	142.88
1701.028	132.88
1705.474	129.88
1709.917	132.88
1714.355	124.88
1718.788	120.88
1723.218	117.88
1727.643	115.88
1732.064	109.88
1736.481	112.88
1740.893	107.88
1745.301	106.88
1749.705	107.88
1754.105	103.88
1758.501	97.88
1762.893	89.88
1767.28	85.88
1771.663	81.88
1776.042	76.88
1780.417	80.88
1784.787	84.88
1789.154	80.88
1793.516	87.88
1797.874	81.88
1802.228	83.88
1806.578	82.88
1810.924	83.88
1815.266	75.88
1819.603	76.88
1823.937	75.88
1828.266	77.88
1832.591	74.88
1836.913	75.88
1841.23	67.88
1845.543	69.88
1849.852	73.88
1854.156	68.88
1858.457	68.88
1862.754	70.88
1867.047	75.88
1871.335	67.88
1875.62	69.88
1879.9	66.88
1884.177	66.88
1888.449	69.88
1892.718	70.88
1896.982	65.88
1901.243	70.88
1905.499	69.88
1909.752	66.88
1914	67.88
1918.245	66.88
1922.485	70.88
1926.722	72.88
1930.954	70.88
1935.183	74.88
1939.408	74.88
1943.628	72.88
1947.845	68.88
1952.058	70.88
1956.267	67.88
1960.472	65.88
1964.673	66.88
1968.87	65.88
1973.063	68.88
1977.252	66.88
1981.438	60.88
1985.619	53.88
1989.797	59.88
1993.971	58.88
1998.14	58.88
2002.306	57.88
2006.469	62.88
2010.627	57.88
2014.781	59.88
2018.932	56.88
2023.078	57.88
2027.221	60.88
2031.36	56.88
2035.495	57.88
2039.627	57.88
2043.754	53.88
2047.878	52.88
2051.998	49.88
2056.114	48.88
2060.226	52.88
2064.334	52.88
2068.439	55.88
2072.54	59.88
2076.637	55.88
2080.73	54.88
2084.82	56.88
2088.906	57.88
2092.988	58.88
2097.066	54.88
2101.14	60.88
2105.211	59.88
2109.278	58.88
2113.342	55.88
2117.401	52.88
2121.457	50.88
2125.509	48.88
2129.558	52.88
2133.602	52.88
2137.643	51.88
2141.681	49.88
2145.714	53.88
2149.744	47.88
2153.77	51.88
2157.793	47.88
2161.812	47.88
2165.827	51.88
2169.838	50.88
2173.846	42.88
2177.851	42.88
2181.851	49.88
2185.848	40.88
2189.841	43.88
2193.831	40.88
2197.817	39.88
2201.799	42.88
2205.778	42.88
2209.753	36.88
2213.725	41.88
2217.693	36.88
2221.657	35.88
2225.618	40.88
2229.575	39.88
2233.529	36.88
2237.479	38.88
2241.425	36.88
2245.368	37.88
2249.307	32.88
2253.243	36.88
2257.175	37.88
2261.104	35.88
2265.029	30.88
2268.95	27.88
2272.868	30.88
2276.783	34.88
2280.694	29.88
2284.601	26.88
2288.505	26.88
2292.405	28.88
2296.302	22.88
2300.195	21.88
2304.085	23.88
2307.971	22.88
2311.854	28.88
2315.734	21.88
2319.609	20.88
2323.482	18.88
2327.351	18.88
2331.216	20.88
2335.078	30.88
2338.937	23.88
2342.792	24.88
2346.643	23.88
2350.492	21.88
2354.336	17.88
2358.178	11.88
2362.015	17.88
2365.85	14.88
2369.681	13.88
2373.508	15.88
2377.333	24.88
2381.153	16.88
2384.971	19.88
2388.785	14.88
2392.595	14.88
2396.402	15.88
2400.206	19.88
2404.007	13.88
2407.804	20.88
2411.597	15.88
2415.388	10.88
2419.174	8.88
2422.958	10.88
2426.738	10.88
2430.515	14.88
2434.289	14.88
2438.059	12.88
2441.825	14.88
2445.589	16.88
2449.349	6.88
2453.106	9.88
2456.859	9.88
2460.61	11.88
2464.356	13.88
2468.1	8.88
2471.84	10.88
2475.577	12.88
2479.311	5.88
2483.041	6.88
2486.768	7.88
2490.492	11.88
2494.213	10.88
2497.93	13.88
2501.644	11.88
2505.355	8.88
2509.062	4.88
2512.766	7.88
2516.467	10.88
2520.165	13.88
2523.859	10.88
2527.551	12.88
2531.239	8.88
2534.923	7.88
2538.605	3.88
2542.283	5.88
2545.958	9.88
2549.63	11.88
2553.299	11.88
2556.964	9.88
2560.626	11.88
2564.285	5.88
2567.941	6.88
2571.594	8.88
2575.243	7.88
2578.89	10.88
2582.533	10.88
2586.173	11.88
2589.809	12.88
2593.443	5.88
2597.073	5.88
2600.701	5.88
2604.325	6.88
2607.946	6.88
2611.564	10.88
2615.178	10.88
2618.79	6.88
2622.398	6.88
2626.004	4.88
2629.606	7.88
2633.205	3.88
2636.801	8.88
2640.394	9.88
2643.983	14.88
2647.57	3.88
2651.153	6.88
2654.734	3.88
2658.311	5.88
2661.885	7.88
2665.456	6.88
2669.025	10.88
2672.589	9.88
2676.151	4.88
2679.71	4.88
2683.266	0.88
2686.819	3.88
2690.368	0.88
2693.915	1.88
2697.458	8.88
2700.999	8.88
2704.536	10.88
2708.071	9.88
2711.602	5.88
2715.13	4.88
2718.656	7.88
2722.178	10.88
2725.697	9.88
2729.214	12.88
2732.727	14.88
2736.237	10.88
2739.744	10.88
2743.249	4.88
2746.75	7.88
2750.248	8.88
2753.743	7.88
2757.236	10.88
2760.725	12.88
2764.211	9.88
2767.695	13.88
2771.175	2.88
2774.652	2.88
2778.127	4.88
2781.598	9.88
2785.067	8.88
2788.532	10.88
2791.995	5.88
2795.455	9.88
2798.911	6.88
2802.365	5.88
2805.816	9.88
2809.264	8.88
2812.709	14.88
2816.151	13.88
2819.59	18.88
2823.026	22.88
2826.46	17.88
2829.89	21.88
2833.318	25.88
2836.742	32.88
2840.164	38.88
2843.583	48.88
2846.999	58.88
2850.412	69.88
2853.822	77.88
2857.229	79.88
2860.634	84.88
2864.035	87.88
2867.434	88.88
2870.83	91.88
2874.223	94.88
2877.613	100.88
2881	103.88
2884.385	108.88
2887.766	109.88
2891.145	106.88
2894.521	113.88
2897.894	111.88
2901.264	112.88
2904.631	113.88
2907.996	107.88
2911.358	101.88
2914.717	99.88
2918.073	99.88
2921.426	99.88
2924.777	105.88
2928.124	103.88
2931.469	102.88
2934.811	99.88
2938.15	93.88
2941.487	83.88
2944.821	87.88
2948.152	84.88
2951.48	75.88
2954.805	78.88
2958.128	68.88
2961.447	70.88
2964.765	64.88
2968.079	56.88
2971.39	48.88
2974.699	52.88
2978.005	53.88
2981.308	51.88
2984.609	49.88
2987.907	49.88
2991.202	45.88
2994.494	38.88
2997.784	39.88
3001.07	39.88
3004.355	39.88
3007.636	40.88
3010.915	42.88
3014.191	39.88
3017.464	37.88
3020.734	35.88
3024.002	29.88
3027.267	31.88
3030.53	27.88
3033.789	33.88
3037.046	33.88
3040.301	37.88
3043.552	34.88
3046.801	29.88
3050.048	32.88
3053.291	30.88
3056.532	32.88
3059.771	39.88
3063.006	39.88
3066.239	41.88
3069.469	45.88
3072.697	41.88
3075.922	42.88
3079.144	44.88
3082.364	43.88
3085.581	45.88
3088.795	49.88
3092.007	55.88
3095.216	56.88
3098.423	53.88
3101.627	54.88
3104.828	54.88
3108.026	58.88
3111.222	57.88
3114.416	58.88
3117.607	65.88
3120.795	64.88
3123.98	66.88
3127.163	70.88
3130.344	65.88
3133.521	74.88
3136.696	72.88
3139.869	76.88
3143.039	78.88
3146.206	75.88
3149.371	80.88
3152.533	81.88
3155.693	80.88
3158.85	83.88
3162.005	83.88
3165.157	78.88
3168.306	80.88
3171.453	85.88
3174.597	85.88
3177.739	83.88
3180.878	81.88
3184.014	85.88
3187.149	84.88
3190.28	75.88
3193.409	84.88
3196.536	91.88
3199.659	87.88
3202.781	85.88
3205.9	87.88
3209.016	82.88
3212.13	83.88
3215.241	83.88
3218.35	86.88
3221.456	84.88
3224.56	88.88
3227.661	81.88
3230.76	79.88
3233.856	77.88
3236.95	72.88
3240.041	79.88
3243.13	76.88
3246.216	79.88
3249.3	81.88
3252.382	76.88
3255.46	76.88
3258.537	77.88
3261.611	76.88
3264.682	73.88
3267.751	74.88
3270.818	75.88
3273.882	73.88
3276.943	73.88
3280.002	70.88
3283.059	75.88
3286.113	70.88
3289.165	73.88
3292.214	67.88
3295.261	67.88
3298.306	69.88
3301.348	64.88
3304.387	64.88
3307.425	64.88
3310.459	58.88
3313.492	58.88
3316.521	57.88
3319.549	55.88
3322.574	57.88
3325.597	57.88
3328.617	50.88
3331.635	58.88
3334.65	57.88
3337.663	56.88
3340.674	54.88
3343.682	60.88
3346.688	53.88
3349.691	48.88
3352.692	45.88
3355.691	55.88
3358.687	52.88
3361.681	50.88
3364.673	53.88
3367.662	48.88
3370.649	46.88
3373.633	48.88
3376.615	49.88
3379.595	44.88
3382.572	43.88
3385.547	45.88
3388.52	46.88
3391.49	41.88
3394.458	47.88
3397.424	40.88
3400.387	40.88
3403.348	40.88
3406.307	38.88
3409.263	45.88
3412.217	41.88
3415.168	41.88
3418.118	40.88
3421.065	31.88
3424.009	32.88
3426.951	35.88
3429.891	35.88
3432.829	36.88
3435.764	36.88
3438.697	36.88
3441.628	35.88
3444.557	32.88
3447.483	27.88
3450.407	22.88
3453.328	24.88
3456.247	29.88
3459.164	23.88
3462.079	21.88
3464.991	24.88
3467.902	24.88
3470.809	21.88
3473.715	20.88
3476.618	17.88
3479.519	20.88
3482.418	19.88
3485.315	20.88
3488.209	16.88
3491.101	13.88
3493.99	15.88
3496.878	8.88
3499.763	11.88
3502.646	9.88
3505.527	12.88
3508.405	13.88
3511.281	5.88
3514.155	5.88
3517.027	3.88
3519.897	4.88
3522.764	2.88
3525.629	4.88
3528.492	2.88
3531.352	1.88
3534.211	1.88
3537.067	-4.12
3539.921	-1.12
3542.773	-0.12
3545.622	-3.12
3548.469	-4.12
3551.315	-2.12
3554.157	-2.12
3556.998	-6.12
3559.837	-7.12
3562.673	-8.12
3565.507	-5.12
3568.339	-10.12
3571.169	-9.12
3573.996	-6.12
3576.822	-8.12
3579.645	-12.12
3582.466	-8.12
3585.285	-11.12
3588.101	-13.12
3590.916	-10.12
3593.728	-14.12
3596.538	-9.12
3599.346	-11.12
3602.152	-11.12
3604.956	-14.12
3607.757	-12.12
3610.556	-11.12
3613.354	-14.12
3616.149	-16.12
3618.942	-13.12
3621.732	-16.12
3624.521	-14.12
3627.307	-17.12
3630.092	-15.12
3632.874	-15.12
3635.654	-16.12
3638.432	-17.12
3641.208	-19.12
3643.982	-19.12
3646.753	-17.12
3649.523	-16.12
3652.29	-17.12
3655.055	-19.12
3657.818	-16.12
3660.579	-19.12
3663.338	-20.12
3666.095	-21.12
3668.849	-17.12
3671.602	-18.12
3674.352	-14.12
3677.101	-18.12
3679.847	-20.12
3682.591	-22.12
3685.333	-23.12
3688.073	-20.12
3690.811	-26.12
3693.547	-19.12
3696.281	-16.12
3699.013	-22.12
3701.742	-17.12
3704.47	-16.12
3707.195	-24.12
3709.919	-25.12
3712.64	-19.12
3715.359	-20.12
3718.076	-20.12
3720.792	-19.12
3723.505	-18.12
3726.216	-20.12
3728.925	-21.12
3731.632	-26.12
3734.336	-25.12
3737.039	-20.12
3739.74	-21.12
3742.439	-22.12
3745.136	-19.12
3747.83	-22.12
3750.523	-23.12
3753.213	-25.12
3755.902	-21.12
3758.589	-19.12
3761.273	-21.12
3763.956	-18.12
3766.636	-24.12
3769.315	-23.12
3771.991	-24.12
3774.665	-23.12
3777.338	-24.12
3780.008	-24.12
3782.677	-23.12
3785.343	-21.12
3788.007	-20.12
3790.67	-25.12
3793.33	-25.12
3795.989	-24.12
3798.645	-26.12
3801.299	-19.12
3803.952	-17.12
3806.602	-19.12
3809.251	-20.12
3811.897	-23.12
3814.542	-28.12
3817.184	-24.12
3819.825	-24.12
3822.463	-20.12
3825.1	-20.12
3827.735	-27.12
3830.367	-20.12
3832.998	-24.12
3835.627	-28.12
3838.253	-25.12
3840.878	-25.12
3843.501	-26.12
3846.122	-19.12
3848.741	-19.12
3851.358	-22.12
3853.973	-22.12
3856.586	-23.12
3859.197	-23.12
3861.806	-22.12
3864.414	-23.12
3867.019	-25.12
3869.622	-21.12
3872.224	-20.12
3874.823	-21.12
3877.421	-26.12
3880.016	-19.12
3882.61	-16.12
3885.202	-14.12
3887.792	-16.12
3890.38	-15.12
3892.966	-16.12
3895.55	-24.12
3898.132	-27.12
3900.713	-25.12
3903.291	-24.12
3905.868	-23.12
3908.442	-23.12
3911.015	-20.12
3913.586	-25.12
3916.155	-25.12
3918.722	-24.12
3921.287	-26.12
3923.85	-23.12
3926.411	-20.12
3928.971	-22.12
3931.528	-20.12
3934.084	-21.12
3936.638	-22.12
3939.19	-20.12
3941.74	-27.12
3944.288	-26.12
3946.834	-28.12
3949.378	-24.12
3951.921	-24.12
3954.462	-22.12
3957	-20.12
3959.537	-22.12
3962.072	-26.12
3964.606	-25.12
3967.137	-25.12
3969.667	-22.12
3972.194	-25.12
3974.72	-20.12
3977.244	-22.12
3979.766	-22.12
3982.286	-22.12
3984.805	-24.12
3987.321	-23.12
3989.836	-24.12
3992.349	-19.12
3994.86	-20.12
3997.369	-23.12
3999.877	-19.12
4002.382	-21.12
4004.886	-21.12
4007.388	-20.12
4009.888	-25.12
4012.386	-24.12
4014.883	-21.12
4017.377	-22.12
4019.87	-21.12
4022.361	-21.12
4024.85	-24.12
4027.338	-24.12
4029.823	-24.12
4032.307	-25.12
4034.789	-22.12
4037.269	-20.12
4039.747	-22.12
4042.224	-24.12
4044.699	-23.12
4047.172	-22.12
4049.643	-24.12
4052.112	-22.12
4054.58	-19.12
4057.046	-21.12
4059.51	-19.12
4061.972	-24.12
4064.432	-24.12
4066.891	-27.12
4069.348	-25.12
4071.803	-25.12
4074.256	-20.12
4076.708	-21.12
4079.158	-16.12
4081.606	-21.12
4084.052	-25.12
4086.497	-28.12
4088.939	-22.12
4091.38	-17.12
4093.819	-24.12
4096.257	-25.12
4098.693	-25.12
4101.127	-22.12
4103.559	-22.12
4105.989	-9.12
4108.418	-10.12
4110.845	-6.12
4113.27	-8.12
4115.694	-10.12
4118.115	-11.12
4120.535	-20.12
4122.954	-20.12
4125.37	-23.12
4127.785	-22.12
4130.198	-25.12
4132.609	-22.12
4135.019	-26.12
4137.427	-21.12
4139.833	-24.12
4142.237	-23.12
