Data from 1CFU3_B_RamanShift_1.txt Node
Date: Mon Feb 13 13:59:24 IST 2017
User: aro
Spectrometer: QEPB0276
Trigger mode: 0
Integration Time (sec): 5.000000E0
Scans to average: 1
Electric dark correction enabled: true
Nonlinearity correction enabled: false
Boxcar width: 0
XAxis mode: Raman Shifts
Number of Pixels in Spectrum: 1044
>>>>>Begin Spectral Data<<<<<
160.701	-5.12
166.742	-0.12
172.777	15.88
178.805	79.88
184.826	190.88
190.841	388.88
196.849	603.88
202.85	732.88
208.845	787.88
214.833	774.88
220.815	758.88
226.789	746.88
232.758	741.88
238.719	737.88
244.674	725.88
250.623	701.88
256.565	675.88
262.5	674.88
268.429	652.88
274.351	645.88
280.267	640.88
286.176	628.88
292.079	622.88
297.975	611.88
303.865	608.88
309.748	609.88
315.625	606.88
321.495	595.88
327.359	595.88
333.217	587.88
339.068	613.88
344.912	606.88
350.751	629.88
356.583	616.88
362.408	623.88
368.227	611.88
374.04	615.88
379.847	607.88
385.647	594.88
391.44	603.88
397.228	616.88
403.009	614.88
408.784	621.88
414.553	618.88
420.315	628.88
426.071	633.88
431.821	630.88
437.565	640.88
443.302	647.88
449.033	628.88
454.758	613.88
460.477	604.88
466.189	612.88
471.896	586.88
477.596	593.88
483.29	598.88
488.978	587.88
494.66	574.88
500.335	555.88
506.005	545.88
511.668	506.88
517.325	503.88
522.977	488.88
528.622	474.88
534.261	461.88
539.894	453.88
545.521	445.88
551.141	445.88
556.756	427.88
562.365	418.88
567.968	412.88
573.565	415.88
579.155	414.88
584.74	407.88
590.319	415.88
595.892	417.88
601.459	415.88
607.02	399.88
612.575	391.88
618.124	387.88
623.667	383.88
629.204	382.88
634.735	386.88
640.261	382.88
645.781	377.88
651.294	374.88
656.802	377.88
662.304	370.88
667.8	362.88
673.29	364.88
678.775	356.88
684.254	354.88
689.726	355.88
695.193	353.88
700.655	352.88
706.11	353.88
711.56	360.88
717.004	351.88
722.442	349.88
727.874	342.88
733.301	349.88
738.722	344.88
744.137	337.88
749.547	341.88
754.951	343.88
760.349	336.88
765.741	348.88
771.128	347.88
776.509	347.88
781.885	351.88
787.254	346.88
792.618	359.88
797.977	348.88
803.33	344.88
808.677	340.88
814.019	337.88
819.355	345.88
824.686	342.88
830.011	342.88
835.33	345.88
840.644	344.88
845.952	355.88
851.255	353.88
856.552	356.88
861.844	356.88
867.13	353.88
872.41	356.88
877.686	365.88
882.955	359.88
888.219	351.88
893.478	346.88
898.731	335.88
903.979	333.88
909.221	310.88
914.458	314.88
919.69	315.88
924.916	312.88
930.136	316.88
935.351	314.88
940.561	308.88
945.766	302.88
950.965	305.88
956.158	306.88
961.347	297.88
966.529	297.88
971.707	291.88
976.879	276.88
982.046	282.88
987.208	276.88
992.364	279.88
997.515	285.88
1002.66	283.88
1007.801	298.88
1012.936	306.88
1018.066	304.88
1023.19	307.88
1028.309	313.88
1033.423	314.88
1038.532	317.88
1043.636	309.88
1048.734	313.88
1053.827	315.88
1058.915	325.88
1063.998	327.88
1069.075	346.88
1074.147	342.88
1079.214	344.88
1084.276	349.88
1089.333	355.88
1094.385	352.88
1099.431	341.88
1104.472	328.88
1109.509	315.88
1114.54	308.88
1119.565	314.88
1124.586	321.88
1129.602	327.88
1134.613	308.88
1139.618	291.88
1144.619	277.88
1149.614	270.88
1154.604	269.88
1159.589	261.88
1164.57	266.88
1169.545	260.88
1174.515	254.88
1179.48	255.88
1184.44	243.88
1189.395	244.88
1194.345	242.88
1199.29	238.88
1204.23	240.88
1209.165	237.88
1214.095	242.88
1219.021	242.88
1223.941	242.88
1228.856	249.88
1233.766	254.88
1238.672	261.88
1243.572	269.88
1248.467	266.88
1253.358	278.88
1258.244	264.88
1263.124	274.88
1268	275.88
1272.871	267.88
1277.737	269.88
1282.599	257.88
1287.455	254.88
1292.306	262.88
1297.153	278.88
1301.995	291.88
1306.832	293.88
1311.664	293.88
1316.491	286.88
1321.314	275.88
1326.132	253.88
1330.945	250.88
1335.753	237.88
1340.556	233.88
1345.354	232.88
1350.148	227.88
1354.937	223.88
1359.722	214.88
1364.501	216.88
1369.276	224.88
1374.046	226.88
1378.811	227.88
1383.572	222.88
1388.327	215.88
1393.079	220.88
1397.825	206.88
1402.567	203.88
1407.304	203.88
1412.036	212.88
1416.764	202.88
1421.487	205.88
1426.205	218.88
1430.919	223.88
1435.628	251.88
1440.333	269.88
1445.032	288.88
1449.727	287.88
1454.418	290.88
1459.104	280.88
1463.785	266.88
1468.462	255.88
1473.134	237.88
1477.802	218.88
1482.465	196.88
1487.123	181.88
1491.777	163.88
1496.426	161.88
1501.071	159.88
1505.711	161.88
1510.347	163.88
1514.978	171.88
1519.604	166.88
1524.226	161.88
1528.844	160.88
1533.457	157.88
1538.065	159.88
1542.669	151.88
1547.269	149.88
1551.864	147.88
1556.454	159.88
1561.041	164.88
1565.622	163.88
1570.199	152.88
1574.772	151.88
1579.34	154.88
1583.904	152.88
1588.464	162.88
1593.019	158.88
1597.569	160.88
1602.115	168.88
1606.657	163.88
1611.195	163.88
1615.728	158.88
1620.256	161.88
1624.78	164.88
1629.3	171.88
1633.816	177.88
1638.327	174.88
1642.834	183.88
1647.336	182.88
1651.834	186.88
1656.328	195.88
1660.817	197.88
1665.302	190.88
1669.783	195.88
1674.259	183.88
1678.732	169.88
1683.199	170.88
1687.663	151.88
1692.122	153.88
1696.577	139.88
1701.028	132.88
1705.474	130.88
1709.917	133.88
1714.355	127.88
1718.788	126.88
1723.218	120.88
1727.643	121.88
1732.064	111.88
1736.481	109.88
1740.893	109.88
1745.301	110.88
1749.705	103.88
1754.105	108.88
1758.501	101.88
1762.893	99.88
1767.28	94.88
1771.663	82.88
1776.042	83.88
1780.417	82.88
1784.787	84.88
1789.154	83.88
1793.516	90.88
1797.874	85.88
1802.228	83.88
1806.578	81.88
1810.924	85.88
1815.266	78.88
1819.603	80.88
1823.937	80.88
1828.266	79.88
1832.591	74.88
1836.913	79.88
1841.23	76.88
1845.543	76.88
1849.852	74.88
1854.156	69.88
1858.457	66.88
1862.754	75.88
1867.047	70.88
1871.335	72.88
1875.62	72.88
1879.9	77.88
1884.177	72.88
1888.449	77.88
1892.718	75.88
1896.982	66.88
1901.243	69.88
1905.499	66.88
1909.752	68.88
1914	70.88
1918.245	71.88
1922.485	67.88
1926.722	73.88
1930.954	74.88
1935.183	76.88
1939.408	72.88
1943.628	70.88
1947.845	73.88
1952.058	71.88
1956.267	73.88
1960.472	68.88
1964.673	70.88
1968.87	65.88
1973.063	68.88
1977.252	64.88
1981.438	65.88
1985.619	63.88
1989.797	64.88
1993.971	62.88
1998.14	63.88
2002.306	58.88
2006.469	65.88
2010.627	64.88
2014.781	65.88
2018.932	61.88
2023.078	60.88
2027.221	53.88
2031.36	55.88
2035.495	63.88
2039.627	60.88
2043.754	57.88
2047.878	55.88
2051.998	59.88
2056.114	54.88
2060.226	59.88
2064.334	58.88
2068.439	58.88
2072.54	57.88
2076.637	59.88
2080.73	67.88
2084.82	59.88
2088.906	60.88
2092.988	58.88
2097.066	55.88
2101.14	58.88
2105.211	62.88
2109.278	57.88
2113.342	60.88
2117.401	54.88
2121.457	57.88
2125.509	57.88
2129.558	52.88
2133.602	52.88
2137.643	49.88
2141.681	54.88
2145.714	50.88
2149.744	54.88
2153.77	53.88
2157.793	51.88
2161.812	46.88
2165.827	45.88
2169.838	49.88
2173.846	44.88
2177.851	42.88
2181.851	43.88
2185.848	46.88
2189.841	42.88
2193.831	44.88
2197.817	47.88
2201.799	41.88
2205.778	37.88
2209.753	40.88
2213.725	39.88
2217.693	39.88
2221.657	41.88
2225.618	47.88
2229.575	39.88
2233.529	38.88
2237.479	37.88
2241.425	35.88
2245.368	34.88
2249.307	34.88
2253.243	40.88
2257.175	35.88
2261.104	38.88
2265.029	36.88
2268.95	34.88
2272.868	31.88
2276.783	25.88
2280.694	27.88
2284.601	33.88
2288.505	29.88
2292.405	30.88
2296.302	31.88
2300.195	28.88
2304.085	25.88
2307.971	26.88
2311.854	21.88
2315.734	22.88
2319.609	22.88
2323.482	19.88
2327.351	26.88
2331.216	25.88
2335.078	28.88
2338.937	21.88
2342.792	23.88
2346.643	17.88
2350.492	16.88
2354.336	17.88
2358.178	20.88
2362.015	23.88
2365.85	26.88
2369.681	20.88
2373.508	17.88
2377.333	17.88
2381.153	16.88
2384.971	15.88
2388.785	14.88
2392.595	14.88
2396.402	20.88
2400.206	16.88
2404.007	21.88
2407.804	14.88
2411.597	15.88
2415.388	13.88
2419.174	17.88
2422.958	13.88
2426.738	12.88
2430.515	9.88
2434.289	17.88
2438.059	15.88
2441.825	14.88
2445.589	11.88
2449.349	11.88
2453.106	10.88
2456.859	13.88
2460.61	5.88
2464.356	9.88
2468.1	12.88
2471.84	9.88
2475.577	9.88
2479.311	9.88
2483.041	9.88
2486.768	6.88
2490.492	7.88
2494.213	10.88
2497.93	9.88
2501.644	8.88
2505.355	13.88
2509.062	10.88
2512.766	12.88
2516.467	14.88
2520.165	8.88
2523.859	10.88
2527.551	10.88
2531.239	8.88
2534.923	9.88
2538.605	9.88
2542.283	11.88
2545.958	8.88
2549.63	8.88
2553.299	10.88
2556.964	7.88
2560.626	9.88
2564.285	12.88
2567.941	8.88
2571.594	5.88
2575.243	11.88
2578.89	9.88
2582.533	9.88
2586.173	8.88
2589.809	8.88
2593.443	8.88
2597.073	13.88
2600.701	10.88
2604.325	6.88
2607.946	8.88
2611.564	9.88
2615.178	8.88
2618.79	5.88
2622.398	10.88
2626.004	9.88
2629.606	7.88
2633.205	7.88
2636.801	11.88
2640.394	9.88
2643.983	12.88
2647.57	6.88
2651.153	7.88
2654.734	8.88
2658.311	9.88
2661.885	6.88
2665.456	10.88
2669.025	9.88
2672.589	7.88
2676.151	8.88
2679.71	8.88
2683.266	12.88
2686.819	11.88
2690.368	10.88
2693.915	5.88
2697.458	4.88
2700.999	6.88
2704.536	8.88
2708.071	7.88
2711.602	7.88
2715.13	10.88
2718.656	10.88
2722.178	8.88
2725.697	9.88
2729.214	11.88
2732.727	12.88
2736.237	9.88
2739.744	13.88
2743.249	11.88
2746.75	12.88
2750.248	13.88
2753.743	9.88
2757.236	11.88
2760.725	12.88
2764.211	5.88
2767.695	6.88
2771.175	10.88
2774.652	13.88
2778.127	9.88
2781.598	9.88
2785.067	6.88
2788.532	11.88
2791.995	7.88
2795.455	7.88
2798.911	10.88
2802.365	11.88
2805.816	15.88
2809.264	15.88
2812.709	20.88
2816.151	14.88
2819.59	15.88
2823.026	16.88
2826.46	18.88
2829.89	24.88
2833.318	34.88
2836.742	38.88
2840.164	42.88
2843.583	44.88
2846.999	60.88
2850.412	71.88
2853.822	79.88
2857.229	86.88
2860.634	90.88
2864.035	90.88
2867.434	87.88
2870.83	93.88
2874.223	91.88
2877.613	104.88
2881	101.88
2884.385	112.88
2887.766	114.88
2891.145	111.88
2894.521	109.88
2897.894	114.88
2901.264	109.88
2904.631	106.88
2907.996	110.88
2911.358	106.88
2914.717	103.88
2918.073	98.88
2921.426	99.88
2924.777	102.88
2928.124	100.88
2931.469	98.88
2934.811	101.88
2938.15	101.88
2941.487	88.88
2944.821	94.88
2948.152	86.88
2951.48	75.88
2954.805	67.88
2958.128	70.88
2961.447	73.88
2964.765	62.88
2968.079	59.88
2971.39	59.88
2974.699	56.88
2978.005	60.88
2981.308	49.88
2984.609	51.88
2987.907	49.88
2991.202	45.88
2994.494	40.88
2997.784	38.88
3001.07	40.88
3004.355	38.88
3007.636	42.88
3010.915	39.88
3014.191	37.88
3017.464	40.88
3020.734	31.88
3024.002	29.88
3027.267	34.88
3030.53	30.88
3033.789	29.88
3037.046	33.88
3040.301	34.88
3043.552	37.88
3046.801	35.88
3050.048	36.88
3053.291	36.88
3056.532	38.88
3059.771	37.88
3063.006	40.88
3066.239	46.88
3069.469	50.88
3072.697	50.88
3075.922	48.88
3079.144	47.88
3082.364	48.88
3085.581	51.88
3088.795	53.88
3092.007	56.88
3095.216	53.88
3098.423	57.88
3101.627	55.88
3104.828	56.88
3108.026	61.88
3111.222	60.88
3114.416	60.88
3117.607	68.88
3120.795	67.88
3123.98	68.88
3127.163	70.88
3130.344	69.88
3133.521	75.88
3136.696	77.88
3139.869	76.88
3143.039	75.88
3146.206	83.88
3149.371	81.88
3152.533	85.88
3155.693	82.88
3158.85	86.88
3162.005	84.88
3165.157	84.88
3168.306	84.88
3171.453	83.88
3174.597	83.88
3177.739	86.88
3180.878	84.88
3184.014	86.88
3187.149	89.88
3190.28	87.88
3193.409	87.88
3196.536	88.88
3199.659	80.88
3202.781	84.88
3205.9	86.88
3209.016	91.88
3212.13	84.88
3215.241	85.88
3218.35	84.88
3221.456	79.88
3224.56	82.88
3227.661	80.88
3230.76	85.88
3233.856	83.88
3236.95	84.88
3240.041	81.88
3243.13	77.88
3246.216	79.88
3249.3	76.88
3252.382	76.88
3255.46	70.88
3258.537	71.88
3261.611	76.88
3264.682	79.88
3267.751	80.88
3270.818	74.88
3273.882	75.88
3276.943	75.88
3280.002	73.88
3283.059	74.88
3286.113	69.88
3289.165	78.88
3292.214	72.88
3295.261	69.88
3298.306	70.88
3301.348	65.88
3304.387	59.88
3307.425	62.88
3310.459	63.88
3313.492	61.88
3316.521	61.88
3319.549	63.88
3322.574	63.88
3325.597	57.88
3328.617	55.88
3331.635	57.88
3334.65	56.88
3337.663	55.88
3340.674	56.88
3343.682	59.88
3346.688	54.88
3349.691	58.88
3352.692	56.88
3355.691	57.88
3358.687	57.88
3361.681	51.88
3364.673	49.88
3367.662	55.88
3370.649	52.88
3373.633	51.88
3376.615	52.88
3379.595	48.88
3382.572	51.88
3385.547	44.88
3388.52	46.88
3391.49	45.88
3394.458	46.88
3397.424	44.88
3400.387	46.88
3403.348	43.88
3406.307	45.88
3409.263	43.88
3412.217	38.88
3415.168	40.88
3418.118	41.88
3421.065	42.88
3424.009	40.88
3426.951	39.88
3429.891	38.88
3432.829	39.88
3435.764	32.88
3438.697	37.88
3441.628	35.88
3444.557	31.88
3447.483	27.88
3450.407	31.88
3453.328	31.88
3456.247	28.88
3459.164	30.88
3462.079	25.88
3464.991	21.88
3467.902	24.88
3470.809	23.88
3473.715	22.88
3476.618	23.88
3479.519	21.88
3482.418	16.88
3485.315	21.88
3488.209	18.88
3491.101	16.88
3493.99	13.88
3496.878	17.88
3499.763	15.88
3502.646	15.88
3505.527	8.88
3508.405	10.88
3511.281	9.88
3514.155	13.88
3517.027	5.88
3519.897	4.88
3522.764	9.88
3525.629	1.88
3528.492	2.88
3531.352	1.88
3534.211	1.88
3537.067	-1.12
3539.921	3.88
3542.773	5.88
3545.622	2.88
3548.469	-4.12
3551.315	-0.12
3554.157	-5.12
3556.998	-6.12
3559.837	-2.12
3562.673	-4.12
3565.507	-5.12
3568.339	-2.12
3571.169	-1.12
3573.996	-8.12
3576.822	-7.12
3579.645	-11.12
3582.466	-12.12
3585.285	-10.12
3588.101	-11.12
3590.916	-7.12
3593.728	-7.12
3596.538	-7.12
3599.346	-9.12
3602.152	-12.12
3604.956	-12.12
3607.757	-14.12
3610.556	-9.12
3613.354	-10.12
3616.149	-10.12
3618.942	-12.12
3621.732	-12.12
3624.521	-13.12
3627.307	-14.12
3630.092	-18.12
3632.874	-14.12
3635.654	-15.12
3638.432	-16.12
3641.208	-14.12
3643.982	-11.12
3646.753	-16.12
3649.523	-18.12
3652.29	-16.12
3655.055	-15.12
3657.818	-17.12
3660.579	-13.12
3663.338	-17.12
3666.095	-16.12
3668.849	-18.12
3671.602	-17.12
3674.352	-17.12
3677.101	-18.12
3679.847	-18.12
3682.591	-20.12
3685.333	-19.12
3688.073	-18.12
3690.811	-16.12
3693.547	-13.12
3696.281	-15.12
3699.013	-16.12
3701.742	-18.12
3704.47	-19.12
3707.195	-20.12
3709.919	-18.12
3712.64	-19.12
3715.359	-16.12
3718.076	-21.12
3720.792	-17.12
3723.505	-21.12
3726.216	-19.12
3728.925	-21.12
3731.632	-20.12
3734.336	-21.12
3737.039	-20.12
3739.74	-21.12
3742.439	-18.12
3745.136	-22.12
3747.83	-17.12
3750.523	-20.12
3753.213	-18.12
3755.902	-20.12
3758.589	-20.12
3761.273	-20.12
3763.956	-23.12
3766.636	-26.12
3769.315	-20.12
3771.991	-21.12
3774.665	-19.12
3777.338	-18.12
3780.008	-20.12
3782.677	-17.12
3785.343	-19.12
3788.007	-22.12
3790.67	-22.12
3793.33	-23.12
3795.989	-24.12
3798.645	-22.12
3801.299	-23.12
3803.952	-20.12
3806.602	-21.12
3809.251	-20.12
3811.897	-23.12
3814.542	-26.12
3817.184	-21.12
3819.825	-25.12
3822.463	-19.12
3825.1	-21.12
3827.735	-20.12
3830.367	-25.12
3832.998	-20.12
3835.627	-23.12
3838.253	-22.12
3840.878	-25.12
3843.501	-21.12
3846.122	-21.12
3848.741	-19.12
3851.358	-18.12
3853.973	-21.12
3856.586	-21.12
3859.197	-26.12
3861.806	-22.12
3864.414	-23.12
3867.019	-22.12
3869.622	-18.12
3872.224	-22.12
3874.823	-20.12
3877.421	-18.12
3880.016	-19.12
3882.61	-16.12
3885.202	-13.12
3887.792	-18.12
3890.38	-18.12
3892.966	-17.12
3895.55	-16.12
3898.132	-25.12
3900.713	-23.12
3903.291	-21.12
3905.868	-18.12
3908.442	-23.12
3911.015	-27.12
3913.586	-20.12
3916.155	-18.12
3918.722	-19.12
3921.287	-18.12
3923.85	-20.12
3926.411	-21.12
3928.971	-27.12
3931.528	-24.12
3934.084	-22.12
3936.638	-18.12
3939.19	-21.12
3941.74	-17.12
3944.288	-16.12
3946.834	-20.12
3949.378	-22.12
3951.921	-23.12
3954.462	-20.12
3957	-21.12
3959.537	-19.12
3962.072	-19.12
3964.606	-20.12
3967.137	-22.12
3969.667	-22.12
3972.194	-22.12
3974.72	-27.12
3977.244	-24.12
3979.766	-26.12
3982.286	-23.12
3984.805	-17.12
3987.321	-18.12
3989.836	-17.12
3992.349	-21.12
3994.86	-23.12
3997.369	-23.12
3999.877	-21.12
4002.382	-21.12
4004.886	-24.12
4007.388	-22.12
4009.888	-18.12
4012.386	-15.12
4014.883	-20.12
4017.377	-20.12
4019.87	-24.12
4022.361	-19.12
4024.85	-19.12
4027.338	-19.12
4029.823	-18.12
4032.307	-17.12
4034.789	-19.12
4037.269	-19.12
4039.747	-17.12
4042.224	-24.12
4044.699	-25.12
4047.172	-21.12
4049.643	-23.12
4052.112	-17.12
4054.58	-18.12
4057.046	-22.12
4059.51	-20.12
4061.972	-21.12
4064.432	-23.12
4066.891	-23.12
4069.348	-21.12
4071.803	-20.12
4074.256	-19.12
4076.708	-18.12
4079.158	-20.12
4081.606	-21.12
4084.052	-21.12
4086.497	-25.12
4088.939	-25.12
4091.38	-22.12
4093.819	-25.12
4096.257	-22.12
4098.693	-22.12
4101.127	-22.12
4103.559	-27.12
4105.989	-12.12
4108.418	-10.12
4110.845	-7.12
4113.27	-7.12
4115.694	-6.12
4118.115	-6.12
4120.535	-17.12
4122.954	-20.12
4125.37	-18.12
4127.785	-22.12
4130.198	-22.12
4132.609	-22.12
4135.019	-25.12
4137.427	-23.12
4139.833	-21.12
4142.237	-21.12
