Data from 1CFU2_B_RamanShift_1.txt Node
Date: Mon Feb 13 13:58:09 IST 2017
User: aro
Spectrometer: QEPB0276
Trigger mode: 0
Integration Time (sec): 5.000000E0
Scans to average: 1
Electric dark correction enabled: true
Nonlinearity correction enabled: false
Boxcar width: 0
XAxis mode: Raman Shifts
Number of Pixels in Spectrum: 1044
>>>>>Begin Spectral Data<<<<<
160.701	-4.25
166.742	0.75
172.777	22.75
178.805	71.75
184.826	180.75
190.841	379.75
196.849	574.75
202.85	720.75
208.845	777.75
214.833	758.75
220.815	743.75
226.789	728.75
232.758	735.75
238.719	718.75
244.674	709.75
250.623	690.75
256.565	678.75
262.5	675.75
268.429	644.75
274.351	645.75
280.267	628.75
286.176	619.75
292.079	619.75
297.975	619.75
303.865	601.75
309.748	596.75
315.625	596.75
321.495	591.75
327.359	591.75
333.217	594.75
339.068	602.75
344.912	615.75
350.751	612.75
356.583	608.75
362.408	624.75
368.227	616.75
374.04	606.75
379.847	602.75
385.647	605.75
391.44	602.75
397.228	599.75
403.009	612.75
408.784	620.75
414.553	618.75
420.315	623.75
426.071	633.75
431.821	636.75
437.565	620.75
443.302	626.75
449.033	623.75
454.758	617.75
460.477	622.75
466.189	601.75
471.896	595.75
477.596	588.75
483.29	585.75
488.978	573.75
494.66	565.75
500.335	547.75
506.005	539.75
511.668	515.75
517.325	489.75
522.977	482.75
528.622	476.75
534.261	457.75
539.894	457.75
545.521	448.75
551.141	423.75
556.756	424.75
562.365	415.75
567.968	411.75
573.565	424.75
579.155	417.75
584.74	418.75
590.319	416.75
595.892	406.75
601.459	410.75
607.02	397.75
612.575	402.75
618.124	398.75
623.667	396.75
629.204	385.75
634.735	388.75
640.261	379.75
645.781	380.75
651.294	367.75
656.802	368.75
662.304	372.75
667.8	358.75
673.29	359.75
678.775	353.75
684.254	357.75
689.726	361.75
695.193	347.75
700.655	343.75
706.11	353.75
711.56	338.75
717.004	345.75
722.442	342.75
727.874	339.75
733.301	346.75
738.722	346.75
744.137	326.75
749.547	331.75
754.951	327.75
760.349	332.75
765.741	337.75
771.128	341.75
776.509	340.75
781.885	356.75
787.254	346.75
792.618	348.75
797.977	349.75
803.33	340.75
808.677	337.75
814.019	333.75
819.355	341.75
824.686	343.75
830.011	333.75
835.33	343.75
840.644	339.75
845.952	346.75
851.255	355.75
856.552	348.75
861.844	350.75
867.13	349.75
872.41	354.75
877.686	353.75
882.955	356.75
888.219	347.75
893.478	349.75
898.731	329.75
903.979	327.75
909.221	319.75
914.458	310.75
919.69	312.75
924.916	322.75
930.136	320.75
935.351	305.75
940.561	307.75
945.766	298.75
950.965	298.75
956.158	298.75
961.347	301.75
966.529	296.75
971.707	288.75
976.879	281.75
982.046	273.75
987.208	286.75
992.364	278.75
997.515	273.75
1002.66	285.75
1007.801	296.75
1012.936	297.75
1018.066	306.75
1023.19	308.75
1028.309	310.75
1033.423	308.75
1038.532	308.75
1043.636	308.75
1048.734	300.75
1053.827	310.75
1058.915	316.75
1063.998	323.75
1069.075	334.75
1074.147	337.75
1079.214	332.75
1084.276	339.75
1089.333	343.75
1094.385	335.75
1099.431	340.75
1104.472	323.75
1109.509	320.75
1114.54	303.75
1119.565	305.75
1124.586	310.75
1129.602	315.75
1134.613	301.75
1139.618	285.75
1144.619	272.75
1149.614	268.75
1154.604	262.75
1159.589	265.75
1164.57	262.75
1169.545	258.75
1174.515	244.75
1179.48	242.75
1184.44	241.75
1189.395	237.75
1194.345	239.75
1199.29	234.75
1204.23	240.75
1209.165	239.75
1214.095	231.75
1219.021	241.75
1223.941	235.75
1228.856	242.75
1233.766	254.75
1238.672	255.75
1243.572	264.75
1248.467	270.75
1253.358	263.75
1258.244	260.75
1263.124	271.75
1268	272.75
1272.871	267.75
1277.737	261.75
1282.599	250.75
1287.455	254.75
1292.306	257.75
1297.153	271.75
1301.995	290.75
1306.832	291.75
1311.664	281.75
1316.491	278.75
1321.314	256.75
1326.132	248.75
1330.945	246.75
1335.753	235.75
1340.556	234.75
1345.354	225.75
1350.148	223.75
1354.937	219.75
1359.722	214.75
1364.501	215.75
1369.276	211.75
1374.046	214.75
1378.811	221.75
1383.572	219.75
1388.327	216.75
1393.079	210.75
1397.825	200.75
1402.567	198.75
1407.304	198.75
1412.036	196.75
1416.764	197.75
1421.487	203.75
1426.205	214.75
1430.919	213.75
1435.628	237.75
1440.333	264.75
1445.032	279.75
1449.727	283.75
1454.418	278.75
1459.104	267.75
1463.785	263.75
1468.462	246.75
1473.134	237.75
1477.802	213.75
1482.465	191.75
1487.123	173.75
1491.777	163.75
1496.426	162.75
1501.071	150.75
1505.711	157.75
1510.347	160.75
1514.978	167.75
1519.604	158.75
1524.226	158.75
1528.844	155.75
1533.457	154.75
1538.065	156.75
1542.669	149.75
1547.269	149.75
1551.864	148.75
1556.454	157.75
1561.041	160.75
1565.622	160.75
1570.199	156.75
1574.772	148.75
1579.34	156.75
1583.904	154.75
1588.464	154.75
1593.019	159.75
1597.569	161.75
1602.115	163.75
1606.657	162.75
1611.195	163.75
1615.728	164.75
1620.256	160.75
1624.78	164.75
1629.3	161.75
1633.816	160.75
1638.327	169.75
1642.834	174.75
1647.336	180.75
1651.834	181.75
1656.328	186.75
1660.817	195.75
1665.302	185.75
1669.783	189.75
1674.259	179.75
1678.732	168.75
1683.199	156.75
1687.663	148.75
1692.122	143.75
1696.577	133.75
1701.028	128.75
1705.474	129.75
1709.917	128.75
1714.355	122.75
1718.788	123.75
1723.218	118.75
1727.643	114.75
1732.064	113.75
1736.481	106.75
1740.893	101.75
1745.301	109.75
1749.705	105.75
1754.105	103.75
1758.501	100.75
1762.893	92.75
1767.28	91.75
1771.663	85.75
1776.042	85.75
1780.417	76.75
1784.787	86.75
1789.154	80.75
1793.516	82.75
1797.874	76.75
1802.228	80.75
1806.578	80.75
1810.924	83.75
1815.266	79.75
1819.603	81.75
1823.937	75.75
1828.266	74.75
1832.591	76.75
1836.913	75.75
1841.23	68.75
1845.543	72.75
1849.852	72.75
1854.156	71.75
1858.457	67.75
1862.754	72.75
1867.047	70.75
1871.335	64.75
1875.62	71.75
1879.9	67.75
1884.177	69.75
1888.449	72.75
1892.718	67.75
1896.982	67.75
1901.243	72.75
1905.499	62.75
1909.752	66.75
1914	63.75
1918.245	65.75
1922.485	64.75
1926.722	69.75
1930.954	72.75
1935.183	70.75
1939.408	72.75
1943.628	62.75
1947.845	66.75
1952.058	71.75
1956.267	69.75
1960.472	61.75
1964.673	66.75
1968.87	64.75
1973.063	58.75
1977.252	60.75
1981.438	67.75
1985.619	62.75
1989.797	59.75
1993.971	55.75
1998.14	56.75
2002.306	56.75
2006.469	56.75
2010.627	64.75
2014.781	60.75
2018.932	57.75
2023.078	50.75
2027.221	61.75
2031.36	55.75
2035.495	57.75
2039.627	55.75
2043.754	60.75
2047.878	53.75
2051.998	56.75
2056.114	55.75
2060.226	54.75
2064.334	51.75
2068.439	51.75
2072.54	55.75
2076.637	56.75
2080.73	57.75
2084.82	59.75
2088.906	59.75
2092.988	51.75
2097.066	51.75
2101.14	55.75
2105.211	57.75
2109.278	61.75
2113.342	61.75
2117.401	53.75
2121.457	55.75
2125.509	51.75
2129.558	48.75
2133.602	50.75
2137.643	47.75
2141.681	48.75
2145.714	45.75
2149.744	51.75
2153.77	53.75
2157.793	47.75
2161.812	42.75
2165.827	43.75
2169.838	45.75
2173.846	40.75
2177.851	44.75
2181.851	44.75
2185.848	46.75
2189.841	42.75
2193.831	38.75
2197.817	43.75
2201.799	41.75
2205.778	38.75
2209.753	38.75
2213.725	40.75
2217.693	42.75
2221.657	39.75
2225.618	40.75
2229.575	35.75
2233.529	36.75
2237.479	32.75
2241.425	35.75
2245.368	35.75
2249.307	33.75
2253.243	33.75
2257.175	35.75
2261.104	35.75
2265.029	36.75
2268.95	27.75
2272.868	27.75
2276.783	29.75
2280.694	29.75
2284.601	32.75
2288.505	29.75
2292.405	35.75
2296.302	25.75
2300.195	23.75
2304.085	22.75
2307.971	25.75
2311.854	19.75
2315.734	25.75
2319.609	22.75
2323.482	24.75
2327.351	21.75
2331.216	24.75
2335.078	25.75
2338.937	20.75
2342.792	19.75
2346.643	18.75
2350.492	19.75
2354.336	21.75
2358.178	21.75
2362.015	21.75
2365.85	16.75
2369.681	16.75
2373.508	14.75
2377.333	12.75
2381.153	13.75
2384.971	15.75
2388.785	14.75
2392.595	17.75
2396.402	20.75
2400.206	16.75
2404.007	18.75
2407.804	13.75
2411.597	11.75
2415.388	10.75
2419.174	11.75
2422.958	16.75
2426.738	18.75
2430.515	17.75
2434.289	15.75
2438.059	13.75
2441.825	10.75
2445.589	11.75
2449.349	7.75
2453.106	12.75
2456.859	16.75
2460.61	11.75
2464.356	9.75
2468.1	14.75
2471.84	11.75
2475.577	9.75
2479.311	9.75
2483.041	5.75
2486.768	5.75
2490.492	7.75
2494.213	10.75
2497.93	14.75
2501.644	11.75
2505.355	10.75
2509.062	10.75
2512.766	7.75
2516.467	7.75
2520.165	7.75
2523.859	12.75
2527.551	12.75
2531.239	11.75
2534.923	11.75
2538.605	13.75
2542.283	11.75
2545.958	6.75
2549.63	8.75
2553.299	8.75
2556.964	8.75
2560.626	10.75
2564.285	11.75
2567.941	10.75
2571.594	6.75
2575.243	9.75
2578.89	10.75
2582.533	9.75
2586.173	9.75
2589.809	8.75
2593.443	9.75
2597.073	7.75
2600.701	9.75
2604.325	9.75
2607.946	9.75
2611.564	10.75
2615.178	7.75
2618.79	4.75
2622.398	9.75
2626.004	11.75
2629.606	7.75
2633.205	7.75
2636.801	9.75
2640.394	8.75
2643.983	8.75
2647.57	3.75
2651.153	3.75
2654.734	7.75
2658.311	8.75
2661.885	9.75
2665.456	9.75
2669.025	5.75
2672.589	6.75
2676.151	4.75
2679.71	6.75
2683.266	7.75
2686.819	5.75
2690.368	7.75
2693.915	5.75
2697.458	4.75
2700.999	4.75
2704.536	3.75
2708.071	4.75
2711.602	6.75
2715.13	7.75
2718.656	12.75
2722.178	7.75
2725.697	10.75
2729.214	11.75
2732.727	10.75
2736.237	11.75
2739.744	13.75
2743.249	5.75
2746.75	7.75
2750.248	8.75
2753.743	9.75
2757.236	9.75
2760.725	14.75
2764.211	6.75
2767.695	10.75
2771.175	4.75
2774.652	6.75
2778.127	9.75
2781.598	5.75
2785.067	6.75
2788.532	9.75
2791.995	8.75
2795.455	7.75
2798.911	10.75
2802.365	11.75
2805.816	14.75
2809.264	11.75
2812.709	13.75
2816.151	12.75
2819.59	12.75
2823.026	22.75
2826.46	19.75
2829.89	25.75
2833.318	34.75
2836.742	32.75
2840.164	36.75
2843.583	42.75
2846.999	54.75
2850.412	73.75
2853.822	78.75
2857.229	82.75
2860.634	84.75
2864.035	86.75
2867.434	88.75
2870.83	88.75
2874.223	88.75
2877.613	96.75
2881	98.75
2884.385	101.75
2887.766	114.75
2891.145	105.75
2894.521	102.75
2897.894	108.75
2901.264	108.75
2904.631	108.75
2907.996	106.75
2911.358	101.75
2914.717	103.75
2918.073	101.75
2921.426	100.75
2924.777	93.75
2928.124	94.75
2931.469	96.75
2934.811	93.75
2938.15	90.75
2941.487	88.75
2944.821	84.75
2948.152	83.75
2951.48	76.75
2954.805	73.75
2958.128	66.75
2961.447	62.75
2964.765	62.75
2968.079	51.75
2971.39	55.75
2974.699	57.75
2978.005	53.75
2981.308	47.75
2984.609	44.75
2987.907	49.75
2991.202	43.75
2994.494	38.75
2997.784	30.75
3001.07	41.75
3004.355	40.75
3007.636	38.75
3010.915	39.75
3014.191	35.75
3017.464	35.75
3020.734	33.75
3024.002	25.75
3027.267	30.75
3030.53	30.75
3033.789	35.75
3037.046	32.75
3040.301	33.75
3043.552	30.75
3046.801	28.75
3050.048	31.75
3053.291	34.75
3056.532	37.75
3059.771	34.75
3063.006	36.75
3066.239	39.75
3069.469	48.75
3072.697	46.75
3075.922	44.75
3079.144	45.75
3082.364	44.75
3085.581	48.75
3088.795	48.75
3092.007	54.75
3095.216	53.75
3098.423	54.75
3101.627	53.75
3104.828	55.75
3108.026	55.75
3111.222	59.75
3114.416	55.75
3117.607	64.75
3120.795	63.75
3123.98	61.75
3127.163	65.75
3130.344	65.75
3133.521	73.75
3136.696	75.75
3139.869	69.75
3143.039	69.75
3146.206	77.75
3149.371	80.75
3152.533	78.75
3155.693	82.75
3158.85	78.75
3162.005	77.75
3165.157	82.75
3168.306	81.75
3171.453	80.75
3174.597	80.75
3177.739	83.75
3180.878	79.75
3184.014	82.75
3187.149	82.75
3190.28	81.75
3193.409	79.75
3196.536	77.75
3199.659	78.75
3202.781	83.75
3205.9	80.75
3209.016	87.75
3212.13	85.75
3215.241	85.75
3218.35	74.75
3221.456	82.75
3224.56	82.75
3227.661	74.75
3230.76	79.75
3233.856	76.75
3236.95	82.75
3240.041	74.75
3243.13	71.75
3246.216	75.75
3249.3	74.75
3252.382	70.75
3255.46	67.75
3258.537	74.75
3261.611	75.75
3264.682	74.75
3267.751	70.75
3270.818	71.75
3273.882	70.75
3276.943	69.75
3280.002	67.75
3283.059	70.75
3286.113	68.75
3289.165	75.75
3292.214	67.75
3295.261	66.75
3298.306	72.75
3301.348	63.75
3304.387	61.75
3307.425	59.75
3310.459	59.75
3313.492	57.75
3316.521	57.75
3319.549	60.75
3322.574	58.75
3325.597	59.75
3328.617	54.75
3331.635	54.75
3334.65	53.75
3337.663	52.75
3340.674	52.75
3343.682	53.75
3346.688	54.75
3349.691	54.75
3352.692	56.75
3355.691	52.75
3358.687	53.75
3361.681	48.75
3364.673	49.75
3367.662	48.75
3370.649	46.75
3373.633	51.75
3376.615	49.75
3379.595	43.75
3382.572	47.75
3385.547	42.75
3388.52	41.75
3391.49	41.75
3394.458	43.75
3397.424	42.75
3400.387	43.75
3403.348	41.75
3406.307	41.75
3409.263	40.75
3412.217	40.75
3415.168	34.75
3418.118	36.75
3421.065	37.75
3424.009	40.75
3426.951	38.75
3429.891	39.75
3432.829	32.75
3435.764	34.75
3438.697	36.75
3441.628	36.75
3444.557	31.75
3447.483	25.75
3450.407	29.75
3453.328	27.75
3456.247	28.75
3459.164	25.75
3462.079	25.75
3464.991	22.75
3467.902	25.75
3470.809	21.75
3473.715	20.75
3476.618	18.75
3479.519	17.75
3482.418	18.75
3485.315	18.75
3488.209	16.75
3491.101	12.75
3493.99	11.75
3496.878	14.75
3499.763	14.75
3502.646	9.75
3505.527	10.75
3508.405	7.75
3511.281	7.75
3514.155	7.75
3517.027	4.75
3519.897	5.75
3522.764	3.75
3525.629	0.75
3528.492	2.75
3531.352	1.75
3534.211	2.75
3537.067	0.75
3539.921	1.75
3542.773	3.75
3545.622	2.75
3548.469	-6.25
3551.315	-7.25
3554.157	-3.25
3556.998	-4.25
3559.837	-7.25
3562.673	-5.25
3565.507	-6.25
3568.339	-6.25
3571.169	-3.25
3573.996	-7.25
3576.822	-12.25
3579.645	-11.25
3582.466	-11.25
3585.285	-12.25
3588.101	-13.25
3590.916	-6.25
3593.728	-6.25
3596.538	-10.25
3599.346	-10.25
3602.152	-13.25
3604.956	-14.25
3607.757	-13.25
3610.556	-12.25
3613.354	-13.25
3616.149	-13.25
3618.942	-10.25
3621.732	-9.25
3624.521	-11.25
3627.307	-15.25
3630.092	-15.25
3632.874	-16.25
3635.654	-17.25
3638.432	-14.25
3641.208	-14.25
3643.982	-12.25
3646.753	-12.25
3649.523	-16.25
3652.29	-15.25
3655.055	-17.25
3657.818	-18.25
3660.579	-16.25
3663.338	-21.25
3666.095	-18.25
3668.849	-16.25
3671.602	-18.25
3674.352	-18.25
3677.101	-21.25
3679.847	-18.25
3682.591	-18.25
3685.333	-19.25
3688.073	-17.25
3690.811	-14.25
3693.547	-19.25
3696.281	-20.25
3699.013	-20.25
3701.742	-18.25
3704.47	-19.25
3707.195	-24.25
3709.919	-19.25
3712.64	-20.25
3715.359	-20.25
3718.076	-21.25
3720.792	-15.25
3723.505	-24.25
3726.216	-20.25
3728.925	-20.25
3731.632	-21.25
3734.336	-23.25
3737.039	-21.25
3739.74	-18.25
3742.439	-18.25
3745.136	-22.25
3747.83	-21.25
3750.523	-19.25
3753.213	-21.25
3755.902	-20.25
3758.589	-22.25
3761.273	-19.25
3763.956	-25.25
3766.636	-21.25
3769.315	-19.25
3771.991	-21.25
3774.665	-19.25
3777.338	-21.25
3780.008	-21.25
3782.677	-20.25
3785.343	-22.25
3788.007	-24.25
3790.67	-24.25
3793.33	-22.25
3795.989	-22.25
3798.645	-22.25
3801.299	-23.25
3803.952	-26.25
3806.602	-22.25
3809.251	-24.25
3811.897	-22.25
3814.542	-25.25
3817.184	-20.25
3819.825	-20.25
3822.463	-18.25
3825.1	-22.25
3827.735	-20.25
3830.367	-22.25
3832.998	-21.25
3835.627	-25.25
3838.253	-23.25
3840.878	-24.25
3843.501	-23.25
3846.122	-25.25
3848.741	-21.25
3851.358	-19.25
3853.973	-23.25
3856.586	-22.25
3859.197	-23.25
3861.806	-21.25
3864.414	-22.25
3867.019	-21.25
3869.622	-20.25
3872.224	-19.25
3874.823	-19.25
3877.421	-21.25
3880.016	-20.25
3882.61	-16.25
3885.202	-10.25
3887.792	-19.25
3890.38	-14.25
3892.966	-20.25
3895.55	-19.25
3898.132	-22.25
3900.713	-21.25
3903.291	-24.25
3905.868	-23.25
3908.442	-26.25
3911.015	-23.25
3913.586	-21.25
3916.155	-18.25
3918.722	-18.25
3921.287	-18.25
3923.85	-22.25
3926.411	-21.25
3928.971	-26.25
3931.528	-26.25
3934.084	-22.25
3936.638	-20.25
3939.19	-20.25
3941.74	-16.25
3944.288	-18.25
3946.834	-22.25
3949.378	-21.25
3951.921	-23.25
3954.462	-22.25
3957	-23.25
3959.537	-22.25
3962.072	-16.25
3964.606	-20.25
3967.137	-21.25
3969.667	-23.25
3972.194	-23.25
3974.72	-26.25
3977.244	-26.25
3979.766	-23.25
3982.286	-21.25
3984.805	-19.25
3987.321	-18.25
3989.836	-17.25
3992.349	-18.25
3994.86	-19.25
3997.369	-23.25
3999.877	-22.25
4002.382	-22.25
4004.886	-23.25
4007.388	-22.25
4009.888	-21.25
4012.386	-18.25
4014.883	-21.25
4017.377	-22.25
4019.87	-23.25
4022.361	-24.25
4024.85	-24.25
4027.338	-18.25
4029.823	-17.25
4032.307	-18.25
4034.789	-18.25
4037.269	-19.25
4039.747	-17.25
4042.224	-25.25
4044.699	-23.25
4047.172	-22.25
4049.643	-24.25
4052.112	-17.25
4054.58	-20.25
4057.046	-20.25
4059.51	-20.25
4061.972	-20.25
4064.432	-21.25
4066.891	-24.25
4069.348	-23.25
4071.803	-21.25
4074.256	-18.25
4076.708	-18.25
4079.158	-19.25
4081.606	-20.25
4084.052	-20.25
4086.497	-22.25
4088.939	-25.25
4091.38	-22.25
4093.819	-23.25
4096.257	-23.25
4098.693	-26.25
4101.127	-20.25
4103.559	-23.25
4105.989	-9.25
4108.418	-11.25
4110.845	-10.25
4113.27	-8.25
4115.694	-7.25
4118.115	-7.25
4120.535	-18.25
4122.954	-19.25
4125.37	-17.25
4127.785	-22.25
4130.198	-23.25
4132.609	-23.25
4135.019	-24.25
4137.427	-24.25
4139.833	-22.25
4142.237	-20.25
