Data from 1CFU2_RamanShift_1.txt Node
Date: Mon Feb 13 13:19:29 IST 2017
User: aro
Spectrometer: QEPB0276
Trigger mode: 0
Integration Time (sec): 5.000000E0
Scans to average: 1
Electric dark correction enabled: true
Nonlinearity correction enabled: false
Boxcar width: 0
XAxis mode: Raman Shifts
Number of Pixels in Spectrum: 1044
>>>>>Begin Spectral Data<<<<<
160.701	-2.88
166.742	-0.88
172.777	18.12
178.805	79.12
184.826	197.12
190.841	400.12
196.849	615.12
202.85	764.12
208.845	809.12
214.833	791.12
220.815	774.12
226.789	778.12
232.758	758.12
238.719	757.12
244.674	730.12
250.623	720.12
256.565	712.12
262.5	697.12
268.429	679.12
274.351	660.12
280.267	659.12
286.176	645.12
292.079	646.12
297.975	629.12
303.865	631.12
309.748	630.12
315.625	616.12
321.495	623.12
327.359	624.12
333.217	629.12
339.068	631.12
344.912	630.12
350.751	636.12
356.583	644.12
362.408	638.12
368.227	646.12
374.04	624.12
379.847	622.12
385.647	612.12
391.44	631.12
397.228	639.12
403.009	631.12
408.784	644.12
414.553	639.12
420.315	642.12
426.071	636.12
431.821	656.12
437.565	652.12
443.302	663.12
449.033	653.12
454.758	643.12
460.477	645.12
466.189	627.12
471.896	617.12
477.596	611.12
483.29	600.12
488.978	599.12
494.66	590.12
500.335	589.12
506.005	567.12
511.668	543.12
517.325	519.12
522.977	495.12
528.622	494.12
534.261	479.12
539.894	468.12
545.521	468.12
551.141	453.12
556.756	443.12
562.365	438.12
567.968	435.12
573.565	438.12
579.155	434.12
584.74	431.12
590.319	437.12
595.892	423.12
601.459	427.12
607.02	425.12
612.575	421.12
618.124	417.12
623.667	411.12
629.204	405.12
634.735	409.12
640.261	398.12
645.781	384.12
651.294	385.12
656.802	397.12
662.304	391.12
667.8	381.12
673.29	391.12
678.775	373.12
684.254	368.12
689.726	372.12
695.193	366.12
700.655	372.12
706.11	372.12
711.56	366.12
717.004	370.12
722.442	371.12
727.874	360.12
733.301	361.12
738.722	353.12
744.137	358.12
749.547	352.12
754.951	356.12
760.349	359.12
765.741	354.12
771.128	367.12
776.509	361.12
781.885	362.12
787.254	365.12
792.618	369.12
797.977	358.12
803.33	356.12
808.677	365.12
814.019	354.12
819.355	356.12
824.686	357.12
830.011	354.12
835.33	367.12
840.644	356.12
845.952	363.12
851.255	379.12
856.552	371.12
861.844	377.12
867.13	380.12
872.41	380.12
877.686	362.12
882.955	370.12
888.219	367.12
893.478	365.12
898.731	357.12
903.979	343.12
909.221	339.12
914.458	334.12
919.69	329.12
924.916	322.12
930.136	325.12
935.351	329.12
940.561	320.12
945.766	323.12
950.965	326.12
956.158	326.12
961.347	312.12
966.529	308.12
971.707	304.12
976.879	292.12
982.046	294.12
987.208	302.12
992.364	296.12
997.515	303.12
1002.66	309.12
1007.801	316.12
1012.936	318.12
1018.066	318.12
1023.19	319.12
1028.309	324.12
1033.423	332.12
1038.532	324.12
1043.636	323.12
1048.734	335.12
1053.827	332.12
1058.915	335.12
1063.998	336.12
1069.075	346.12
1074.147	350.12
1079.214	360.12
1084.276	370.12
1089.333	364.12
1094.385	356.12
1099.431	347.12
1104.472	333.12
1109.509	327.12
1114.54	330.12
1119.565	329.12
1124.586	327.12
1129.602	326.12
1134.613	321.12
1139.618	307.12
1144.619	288.12
1149.614	277.12
1154.604	281.12
1159.589	284.12
1164.57	273.12
1169.545	273.12
1174.515	268.12
1179.48	268.12
1184.44	256.12
1189.395	255.12
1194.345	242.12
1199.29	248.12
1204.23	251.12
1209.165	250.12
1214.095	261.12
1219.021	252.12
1223.941	254.12
1228.856	257.12
1233.766	269.12
1238.672	275.12
1243.572	273.12
1248.467	275.12
1253.358	278.12
1258.244	284.12
1263.124	285.12
1268	280.12
1272.871	279.12
1277.737	278.12
1282.599	267.12
1287.455	271.12
1292.306	274.12
1297.153	287.12
1301.995	303.12
1306.832	306.12
1311.664	301.12
1316.491	292.12
1321.314	281.12
1326.132	270.12
1330.945	262.12
1335.753	258.12
1340.556	246.12
1345.354	245.12
1350.148	235.12
1354.937	242.12
1359.722	227.12
1364.501	235.12
1369.276	229.12
1374.046	228.12
1378.811	238.12
1383.572	233.12
1388.327	222.12
1393.079	220.12
1397.825	216.12
1402.567	216.12
1407.304	214.12
1412.036	209.12
1416.764	217.12
1421.487	217.12
1426.205	221.12
1430.919	230.12
1435.628	258.12
1440.333	279.12
1445.032	307.12
1449.727	302.12
1454.418	305.12
1459.104	292.12
1463.785	287.12
1468.462	273.12
1473.134	242.12
1477.802	229.12
1482.465	195.12
1487.123	187.12
1491.777	184.12
1496.426	174.12
1501.071	177.12
1505.711	166.12
1510.347	175.12
1514.978	169.12
1519.604	171.12
1524.226	172.12
1528.844	171.12
1533.457	174.12
1538.065	172.12
1542.669	160.12
1547.269	166.12
1551.864	171.12
1556.454	164.12
1561.041	163.12
1565.622	166.12
1570.199	160.12
1574.772	160.12
1579.34	163.12
1583.904	164.12
1588.464	174.12
1593.019	171.12
1597.569	172.12
1602.115	168.12
1606.657	168.12
1611.195	179.12
1615.728	178.12
1620.256	176.12
1624.78	177.12
1629.3	181.12
1633.816	180.12
1638.327	182.12
1642.834	189.12
1647.336	185.12
1651.834	188.12
1656.328	207.12
1660.817	207.12
1665.302	204.12
1669.783	199.12
1674.259	189.12
1678.732	176.12
1683.199	164.12
1687.663	167.12
1692.122	158.12
1696.577	149.12
1701.028	144.12
1705.474	138.12
1709.917	141.12
1714.355	132.12
1718.788	132.12
1723.218	122.12
1727.643	124.12
1732.064	118.12
1736.481	125.12
1740.893	119.12
1745.301	107.12
1749.705	110.12
1754.105	110.12
1758.501	97.12
1762.893	100.12
1767.28	95.12
1771.663	89.12
1776.042	92.12
1780.417	94.12
1784.787	87.12
1789.154	86.12
1793.516	94.12
1797.874	89.12
1802.228	92.12
1806.578	91.12
1810.924	86.12
1815.266	86.12
1819.603	89.12
1823.937	86.12
1828.266	87.12
1832.591	83.12
1836.913	82.12
1841.23	81.12
1845.543	76.12
1849.852	77.12
1854.156	77.12
1858.457	72.12
1862.754	78.12
1867.047	80.12
1871.335	75.12
1875.62	75.12
1879.9	72.12
1884.177	77.12
1888.449	79.12
1892.718	77.12
1896.982	73.12
1901.243	79.12
1905.499	74.12
1909.752	74.12
1914	75.12
1918.245	71.12
1922.485	74.12
1926.722	72.12
1930.954	80.12
1935.183	80.12
1939.408	76.12
1943.628	75.12
1947.845	74.12
1952.058	84.12
1956.267	73.12
1960.472	75.12
1964.673	72.12
1968.87	74.12
1973.063	74.12
1977.252	67.12
1981.438	69.12
1985.619	66.12
1989.797	67.12
1993.971	62.12
1998.14	66.12
2002.306	63.12
2006.469	66.12
2010.627	63.12
2014.781	65.12
2018.932	66.12
2023.078	62.12
2027.221	68.12
2031.36	62.12
2035.495	60.12
2039.627	62.12
2043.754	52.12
2047.878	58.12
2051.998	60.12
2056.114	59.12
2060.226	61.12
2064.334	61.12
2068.439	57.12
2072.54	61.12
2076.637	58.12
2080.73	53.12
2084.82	62.12
2088.906	64.12
2092.988	65.12
2097.066	64.12
2101.14	64.12
2105.211	62.12
2109.278	58.12
2113.342	55.12
2117.401	57.12
2121.457	56.12
2125.509	57.12
2129.558	58.12
2133.602	60.12
2137.643	59.12
2141.681	55.12
2145.714	54.12
2149.744	56.12
2153.77	49.12
2157.793	50.12
2161.812	56.12
2165.827	55.12
2169.838	52.12
2173.846	46.12
2177.851	46.12
2181.851	52.12
2185.848	50.12
2189.841	47.12
2193.831	47.12
2197.817	49.12
2201.799	49.12
2205.778	43.12
2209.753	38.12
2213.725	41.12
2217.693	43.12
2221.657	44.12
2225.618	45.12
2229.575	46.12
2233.529	43.12
2237.479	45.12
2241.425	36.12
2245.368	40.12
2249.307	41.12
2253.243	36.12
2257.175	36.12
2261.104	39.12
2265.029	33.12
2268.95	34.12
2272.868	32.12
2276.783	37.12
2280.694	34.12
2284.601	35.12
2288.505	35.12
2292.405	32.12
2296.302	28.12
2300.195	27.12
2304.085	31.12
2307.971	29.12
2311.854	31.12
2315.734	23.12
2319.609	25.12
2323.482	21.12
2327.351	25.12
2331.216	27.12
2335.078	28.12
2338.937	24.12
2342.792	26.12
2346.643	23.12
2350.492	22.12
2354.336	21.12
2358.178	19.12
2362.015	24.12
2365.85	17.12
2369.681	21.12
2373.508	18.12
2377.333	22.12
2381.153	20.12
2384.971	16.12
2388.785	20.12
2392.595	23.12
2396.402	15.12
2400.206	24.12
2404.007	18.12
2407.804	20.12
2411.597	19.12
2415.388	12.12
2419.174	12.12
2422.958	21.12
2426.738	16.12
2430.515	19.12
2434.289	18.12
2438.059	16.12
2441.825	15.12
2445.589	18.12
2449.349	11.12
2453.106	11.12
2456.859	12.12
2460.61	14.12
2464.356	17.12
2468.1	15.12
2471.84	17.12
2475.577	14.12
2479.311	11.12
2483.041	9.12
2486.768	10.12
2490.492	13.12
2494.213	13.12
2497.93	16.12
2501.644	17.12
2505.355	8.12
2509.062	11.12
2512.766	14.12
2516.467	12.12
2520.165	12.12
2523.859	14.12
2527.551	14.12
2531.239	15.12
2534.923	13.12
2538.605	14.12
2542.283	13.12
2545.958	14.12
2549.63	10.12
2553.299	14.12
2556.964	13.12
2560.626	13.12
2564.285	12.12
2567.941	9.12
2571.594	9.12
2575.243	8.12
2578.89	10.12
2582.533	11.12
2586.173	10.12
2589.809	12.12
2593.443	13.12
2597.073	8.12
2600.701	11.12
2604.325	8.12
2607.946	10.12
2611.564	12.12
2615.178	13.12
2618.79	5.12
2622.398	12.12
2626.004	11.12
2629.606	8.12
2633.205	6.12
2636.801	8.12
2640.394	9.12
2643.983	12.12
2647.57	5.12
2651.153	8.12
2654.734	6.12
2658.311	10.12
2661.885	9.12
2665.456	9.12
2669.025	9.12
2672.589	8.12
2676.151	8.12
2679.71	9.12
2683.266	8.12
2686.819	9.12
2690.368	6.12
2693.915	7.12
2697.458	9.12
2700.999	7.12
2704.536	7.12
2708.071	5.12
2711.602	5.12
2715.13	13.12
2718.656	12.12
2722.178	13.12
2725.697	14.12
2729.214	11.12
2732.727	12.12
2736.237	12.12
2739.744	12.12
2743.249	9.12
2746.75	11.12
2750.248	12.12
2753.743	5.12
2757.236	9.12
2760.725	13.12
2764.211	6.12
2767.695	9.12
2771.175	9.12
2774.652	7.12
2778.127	5.12
2781.598	9.12
2785.067	10.12
2788.532	9.12
2791.995	9.12
2795.455	8.12
2798.911	9.12
2802.365	11.12
2805.816	14.12
2809.264	13.12
2812.709	16.12
2816.151	17.12
2819.59	17.12
2823.026	21.12
2826.46	23.12
2829.89	25.12
2833.318	30.12
2836.742	37.12
2840.164	41.12
2843.583	50.12
2846.999	64.12
2850.412	74.12
2853.822	82.12
2857.229	87.12
2860.634	91.12
2864.035	88.12
2867.434	96.12
2870.83	92.12
2874.223	100.12
2877.613	103.12
2881	108.12
2884.385	112.12
2887.766	120.12
2891.145	117.12
2894.521	113.12
2897.894	113.12
2901.264	112.12
2904.631	109.12
2907.996	109.12
2911.358	114.12
2914.717	106.12
2918.073	105.12
2921.426	106.12
2924.777	103.12
2928.124	106.12
2931.469	100.12
2934.811	98.12
2938.15	98.12
2941.487	95.12
2944.821	88.12
2948.152	89.12
2951.48	78.12
2954.805	79.12
2958.128	68.12
2961.447	69.12
2964.765	64.12
2968.079	65.12
2971.39	55.12
2974.699	54.12
2978.005	54.12
2981.308	52.12
2984.609	45.12
2987.907	49.12
2991.202	49.12
2994.494	45.12
2997.784	41.12
3001.07	45.12
3004.355	44.12
3007.636	39.12
3010.915	39.12
3014.191	39.12
3017.464	37.12
3020.734	34.12
3024.002	33.12
3027.267	36.12
3030.53	34.12
3033.789	40.12
3037.046	34.12
3040.301	36.12
3043.552	34.12
3046.801	37.12
3050.048	41.12
3053.291	38.12
3056.532	35.12
3059.771	41.12
3063.006	38.12
3066.239	37.12
3069.469	43.12
3072.697	46.12
3075.922	48.12
3079.144	50.12
3082.364	49.12
3085.581	46.12
3088.795	52.12
3092.007	54.12
3095.216	55.12
3098.423	52.12
3101.627	60.12
3104.828	56.12
3108.026	59.12
3111.222	62.12
3114.416	63.12
3117.607	64.12
3120.795	66.12
3123.98	70.12
3127.163	67.12
3130.344	74.12
3133.521	75.12
3136.696	76.12
3139.869	74.12
3143.039	76.12
3146.206	78.12
3149.371	79.12
3152.533	85.12
3155.693	82.12
3158.85	90.12
3162.005	81.12
3165.157	84.12
3168.306	84.12
3171.453	81.12
3174.597	87.12
3177.739	89.12
3180.878	87.12
3184.014	90.12
3187.149	87.12
3190.28	87.12
3193.409	88.12
3196.536	84.12
3199.659	89.12
3202.781	88.12
3205.9	88.12
3209.016	86.12
3212.13	86.12
3215.241	80.12
3218.35	87.12
3221.456	84.12
3224.56	85.12
3227.661	85.12
3230.76	82.12
3233.856	79.12
3236.95	78.12
3240.041	79.12
3243.13	77.12
3246.216	76.12
3249.3	75.12
3252.382	78.12
3255.46	78.12
3258.537	79.12
3261.611	78.12
3264.682	75.12
3267.751	78.12
3270.818	75.12
3273.882	77.12
3276.943	73.12
3280.002	71.12
3283.059	76.12
3286.113	73.12
3289.165	68.12
3292.214	72.12
3295.261	69.12
3298.306	65.12
3301.348	68.12
3304.387	68.12
3307.425	63.12
3310.459	57.12
3313.492	62.12
3316.521	57.12
3319.549	63.12
3322.574	58.12
3325.597	61.12
3328.617	61.12
3331.635	58.12
3334.65	53.12
3337.663	60.12
3340.674	56.12
3343.682	56.12
3346.688	53.12
3349.691	61.12
3352.692	52.12
3355.691	58.12
3358.687	53.12
3361.681	55.12
3364.673	55.12
3367.662	53.12
3370.649	52.12
3373.633	48.12
3376.615	49.12
3379.595	52.12
3382.572	45.12
3385.547	44.12
3388.52	48.12
3391.49	47.12
3394.458	47.12
3397.424	40.12
3400.387	41.12
3403.348	43.12
3406.307	44.12
3409.263	46.12
3412.217	46.12
3415.168	43.12
3418.118	34.12
3421.065	36.12
3424.009	35.12
3426.951	44.12
3429.891	36.12
3432.829	38.12
3435.764	37.12
3438.697	39.12
3441.628	31.12
3444.557	34.12
3447.483	33.12
3450.407	29.12
3453.328	29.12
3456.247	33.12
3459.164	28.12
3462.079	23.12
3464.991	23.12
3467.902	20.12
3470.809	20.12
3473.715	23.12
3476.618	19.12
3479.519	20.12
3482.418	21.12
3485.315	16.12
3488.209	13.12
3491.101	12.12
3493.99	14.12
3496.878	12.12
3499.763	15.12
3502.646	13.12
3505.527	14.12
3508.405	15.12
3511.281	7.12
3514.155	8.12
3517.027	6.12
3519.897	4.12
3522.764	7.12
3525.629	7.12
3528.492	3.12
3531.352	4.12
3534.211	3.12
3537.067	-0.88
3539.921	-2.88
3542.773	-2.88
3545.622	1.12
3548.469	-1.88
3551.315	0.12
3554.157	-2.88
3556.998	-3.88
3559.837	-6.88
3562.673	-6.88
3565.507	-10.88
3568.339	-6.88
3571.169	-9.88
3573.996	-5.88
3576.822	-5.88
3579.645	-9.88
3582.466	-6.88
3585.285	-11.88
3588.101	-10.88
3590.916	-10.88
3593.728	-13.88
3596.538	-9.88
3599.346	-9.88
3602.152	-14.88
3604.956	-10.88
3607.757	-10.88
3610.556	-10.88
3613.354	-13.88
3616.149	-12.88
3618.942	-10.88
3621.732	-15.88
3624.521	-15.88
3627.307	-18.88
3630.092	-14.88
3632.874	-11.88
3635.654	-15.88
3638.432	-16.88
3641.208	-16.88
3643.982	-18.88
3646.753	-18.88
3649.523	-16.88
3652.29	-18.88
3655.055	-18.88
3657.818	-14.88
3660.579	-18.88
3663.338	-16.88
3666.095	-19.88
3668.849	-17.88
3671.602	-21.88
3674.352	-16.88
3677.101	-18.88
3679.847	-18.88
3682.591	-19.88
3685.333	-20.88
3688.073	-23.88
3690.811	-19.88
3693.547	-17.88
3696.281	-17.88
3699.013	-17.88
3701.742	-12.88
3704.47	-16.88
3707.195	-22.88
3709.919	-23.88
3712.64	-22.88
3715.359	-18.88
3718.076	-16.88
3720.792	-16.88
3723.505	-14.88
3726.216	-18.88
3728.925	-18.88
3731.632	-25.88
3734.336	-26.88
3737.039	-17.88
3739.74	-17.88
3742.439	-18.88
3745.136	-18.88
3747.83	-22.88
3750.523	-22.88
3753.213	-22.88
3755.902	-22.88
3758.589	-23.88
3761.273	-20.88
3763.956	-21.88
3766.636	-22.88
3769.315	-19.88
3771.991	-22.88
3774.665	-24.88
3777.338	-25.88
3780.008	-24.88
3782.677	-24.88
3785.343	-21.88
3788.007	-19.88
3790.67	-18.88
3793.33	-19.88
3795.989	-20.88
3798.645	-25.88
3801.299	-19.88
3803.952	-19.88
3806.602	-20.88
3809.251	-21.88
3811.897	-18.88
3814.542	-24.88
3817.184	-23.88
3819.825	-21.88
3822.463	-23.88
3825.1	-20.88
3827.735	-25.88
3830.367	-21.88
3832.998	-21.88
3835.627	-26.88
3838.253	-21.88
3840.878	-21.88
3843.501	-22.88
3846.122	-25.88
3848.741	-21.88
3851.358	-25.88
3853.973	-22.88
3856.586	-21.88
3859.197	-21.88
3861.806	-20.88
3864.414	-20.88
3867.019	-26.88
3869.622	-21.88
3872.224	-22.88
3874.823	-21.88
3877.421	-20.88
3880.016	-16.88
3882.61	-18.88
3885.202	-15.88
3887.792	-18.88
3890.38	-19.88
3892.966	-17.88
3895.55	-24.88
3898.132	-21.88
3900.713	-22.88
3903.291	-22.88
3905.868	-23.88
3908.442	-22.88
3911.015	-22.88
3913.586	-26.88
3916.155	-24.88
3918.722	-19.88
3921.287	-24.88
3923.85	-21.88
3926.411	-18.88
3928.971	-21.88
3931.528	-22.88
3934.084	-22.88
3936.638	-23.88
3939.19	-22.88
3941.74	-24.88
3944.288	-20.88
3946.834	-23.88
3949.378	-21.88
3951.921	-24.88
3954.462	-25.88
3957	-22.88
3959.537	-19.88
3962.072	-23.88
3964.606	-20.88
3967.137	-24.88
3969.667	-21.88
3972.194	-27.88
3974.72	-19.88
3977.244	-23.88
3979.766	-23.88
3982.286	-22.88
3984.805	-23.88
3987.321	-21.88
3989.836	-20.88
3992.349	-23.88
3994.86	-21.88
3997.369	-24.88
3999.877	-20.88
4002.382	-20.88
4004.886	-21.88
4007.388	-22.88
4009.888	-27.88
4012.386	-25.88
4014.883	-22.88
4017.377	-21.88
4019.87	-20.88
4022.361	-21.88
4024.85	-19.88
4027.338	-21.88
4029.823	-23.88
4032.307	-21.88
4034.789	-23.88
4037.269	-17.88
4039.747	-21.88
4042.224	-23.88
4044.699	-20.88
4047.172	-21.88
4049.643	-22.88
4052.112	-23.88
4054.58	-21.88
4057.046	-21.88
4059.51	-17.88
4061.972	-21.88
4064.432	-20.88
4066.891	-23.88
4069.348	-22.88
4071.803	-22.88
4074.256	-19.88
4076.708	-20.88
4079.158	-19.88
4081.606	-23.88
4084.052	-27.88
4086.497	-25.88
4088.939	-23.88
4091.38	-19.88
4093.819	-20.88
4096.257	-23.88
4098.693	-23.88
4101.127	-21.88
4103.559	-23.88
4105.989	-7.88
4108.418	-9.88
4110.845	-8.88
4113.27	-7.88
4115.694	-12.88
4118.115	-8.88
4120.535	-22.88
4122.954	-22.88
4125.37	-23.88
4127.785	-20.88
4130.198	-23.88
4132.609	-23.88
4135.019	-24.88
4137.427	-23.88
4139.833	-21.88
4142.237	-22.88
