Data from 1000000CFU2_B_RamanShift_1.txt Node
Date: Mon Jan 23 14:41:37 IST 2017
User: aro
Spectrometer: QEPB0276
Trigger mode: 0
Integration Time (sec): 5.000000E0
Scans to average: 1
Electric dark correction enabled: true
Nonlinearity correction enabled: false
Boxcar width: 0
XAxis mode: Raman Shifts
Number of Pixels in Spectrum: 1044
>>>>>Begin Spectral Data<<<<<
160.701	-30.38
166.742	0.62
172.777	96.62
178.805	382.62
184.826	1065.62
190.841	2215.62
196.849	3484.62
202.85	4328.62
208.845	4501.62
214.833	4396.62
220.815	4260.62
226.789	4172.62
232.758	4056.62
238.719	3969.62
244.674	3848.62
250.623	3703.62
256.565	3542.62
262.5	3413.62
268.429	3303.62
274.351	3199.62
280.267	3097.62
286.176	3000.62
292.079	2909.62
297.975	2852.62
303.865	2762.62
309.748	2709.62
315.625	2659.62
321.495	2598.62
327.359	2577.62
333.217	2553.62
339.068	2527.62
344.912	2508.62
350.751	2524.62
356.583	2506.62
362.408	2520.62
368.227	2508.62
374.04	2523.62
379.847	2519.62
385.647	2559.62
391.44	2561.62
397.228	2555.62
403.009	2586.62
408.784	2589.62
414.553	2589.62
420.315	2597.62
426.071	2596.62
431.821	2601.62
437.565	2606.62
443.302	2605.62
449.033	2612.62
454.758	2585.62
460.477	2598.62
466.189	2587.62
471.896	2569.62
477.596	2547.62
483.29	2556.62
488.978	2571.62
494.66	2543.62
500.335	2518.62
506.005	2495.62
511.668	2440.62
517.325	2407.62
522.977	2379.62
528.622	2367.62
534.261	2339.62
539.894	2325.62
545.521	2337.62
551.141	2316.62
556.756	2306.62
562.365	2283.62
567.968	2297.62
573.565	2278.62
579.155	2267.62
584.74	2263.62
590.319	2250.62
595.892	2248.62
601.459	2255.62
607.02	2210.62
612.575	2205.62
618.124	2188.62
623.667	2173.62
629.204	2141.62
634.735	2124.62
640.261	2130.62
645.781	2121.62
651.294	2114.62
656.802	2111.62
662.304	2105.62
667.8	2071.62
673.29	2088.62
678.775	2088.62
684.254	2057.62
689.726	2078.62
695.193	2049.62
700.655	2065.62
706.11	2047.62
711.56	2041.62
717.004	2019.62
722.442	2013.62
727.874	2023.62
733.301	2000.62
738.722	2013.62
744.137	1974.62
749.547	1974.62
754.951	1968.62
760.349	1977.62
765.741	1994.62
771.128	1979.62
776.509	1986.62
781.885	1981.62
787.254	1977.62
792.618	1964.62
797.977	1951.62
803.33	1933.62
808.677	1928.62
814.019	1918.62
819.355	1912.62
824.686	1888.62
830.011	1871.62
835.33	1874.62
840.644	1874.62
845.952	1862.62
851.255	1889.62
856.552	1862.62
861.844	1864.62
867.13	1850.62
872.41	1860.62
877.686	1850.62
882.955	1823.62
888.219	1808.62
893.478	1786.62
898.731	1770.62
903.979	1754.62
909.221	1727.62
914.458	1726.62
919.69	1718.62
924.916	1722.62
930.136	1717.62
935.351	1711.62
940.561	1730.62
945.766	1701.62
950.965	1702.62
956.158	1695.62
961.347	1686.62
966.529	1656.62
971.707	1621.62
976.879	1630.62
982.046	1612.62
987.208	1605.62
992.364	1604.62
997.515	1614.62
1002.66	1618.62
1007.801	1633.62
1012.936	1642.62
1018.066	1642.62
1023.19	1668.62
1028.309	1674.62
1033.423	1653.62
1038.532	1665.62
1043.636	1655.62
1048.734	1625.62
1053.827	1623.62
1058.915	1605.62
1063.998	1587.62
1069.075	1597.62
1074.147	1598.62
1079.214	1601.62
1084.276	1604.62
1089.333	1635.62
1094.385	1634.62
1099.431	1647.62
1104.472	1644.62
1109.509	1653.62
1114.54	1629.62
1119.565	1608.62
1124.586	1586.62
1129.602	1580.62
1134.613	1554.62
1139.618	1555.62
1144.619	1549.62
1149.614	1558.62
1154.604	1569.62
1159.589	1582.62
1164.57	1595.62
1169.545	1599.62
1174.515	1606.62
1179.48	1582.62
1184.44	1574.62
1189.395	1573.62
1194.345	1560.62
1199.29	1573.62
1204.23	1559.62
1209.165	1550.62
1214.095	1575.62
1219.021	1580.62
1223.941	1617.62
1228.856	1612.62
1233.766	1601.62
1238.672	1630.62
1243.572	1608.62
1248.467	1603.62
1253.358	1585.62
1258.244	1567.62
1263.124	1532.62
1268	1518.62
1272.871	1508.62
1277.737	1487.62
1282.599	1479.62
1287.455	1513.62
1292.306	1513.62
1297.153	1521.62
1301.995	1530.62
1306.832	1540.62
1311.664	1536.62
1316.491	1559.62
1321.314	1548.62
1326.132	1525.62
1330.945	1517.62
1335.753	1505.62
1340.556	1495.62
1345.354	1473.62
1350.148	1489.62
1354.937	1449.62
1359.722	1462.62
1364.501	1433.62
1369.276	1418.62
1374.046	1404.62
1378.811	1399.62
1383.572	1382.62
1388.327	1366.62
1393.079	1365.62
1397.825	1365.62
1402.567	1360.62
1407.304	1345.62
1412.036	1357.62
1416.764	1342.62
1421.487	1349.62
1426.205	1360.62
1430.919	1368.62
1435.628	1396.62
1440.333	1402.62
1445.032	1407.62
1449.727	1412.62
1454.418	1416.62
1459.104	1420.62
1463.785	1415.62
1468.462	1389.62
1473.134	1414.62
1477.802	1370.62
1482.465	1390.62
1487.123	1382.62
1491.777	1366.62
1496.426	1379.62
1501.071	1391.62
1505.711	1387.62
1510.347	1395.62
1514.978	1405.62
1519.604	1438.62
1524.226	1408.62
1528.844	1410.62
1533.457	1403.62
1538.065	1391.62
1542.669	1381.62
1547.269	1365.62
1551.864	1382.62
1556.454	1400.62
1561.041	1410.62
1565.622	1409.62
1570.199	1407.62
1574.772	1420.62
1579.34	1456.62
1583.904	1464.62
1588.464	1465.62
1593.019	1495.62
1597.569	1515.62
1602.115	1528.62
1606.657	1528.62
1611.195	1531.62
1615.728	1530.62
1620.256	1529.62
1624.78	1564.62
1629.3	1572.62
1633.816	1606.62
1638.327	1621.62
1642.834	1638.62
1647.336	1646.62
1651.834	1643.62
1656.328	1653.62
1660.817	1641.62
1665.302	1604.62
1669.783	1600.62
1674.259	1566.62
1678.732	1538.62
1683.199	1513.62
1687.663	1472.62
1692.122	1447.62
1696.577	1374.62
1701.028	1316.62
1705.474	1256.62
1709.917	1231.62
1714.355	1208.62
1718.788	1216.62
1723.218	1188.62
1727.643	1177.62
1732.064	1172.62
1736.481	1147.62
1740.893	1125.62
1745.301	1098.62
1749.705	1069.62
1754.105	1048.62
1758.501	1040.62
1762.893	1021.62
1767.28	1013.62
1771.663	999.62
1776.042	1009.62
1780.417	1028.62
1784.787	1013.62
1789.154	1017.62
1793.516	1005.62
1797.874	1008.62
1802.228	980.62
1806.578	985.62
1810.924	955.62
1815.266	935.62
1819.603	924.62
1823.937	924.62
1828.266	908.62
1832.591	907.62
1836.913	911.62
1841.23	906.62
1845.543	917.62
1849.852	920.62
1854.156	910.62
1858.457	912.62
1862.754	919.62
1867.047	931.62
1871.335	926.62
1875.62	939.62
1879.9	943.62
1884.177	921.62
1888.449	937.62
1892.718	917.62
1896.982	932.62
1901.243	920.62
1905.499	918.62
1909.752	925.62
1914	914.62
1918.245	915.62
1922.485	922.62
1926.722	911.62
1930.954	916.62
1935.183	914.62
1939.408	921.62
1943.628	916.62
1947.845	902.62
1952.058	909.62
1956.267	888.62
1960.472	882.62
1964.673	883.62
1968.87	859.62
1973.063	858.62
1977.252	851.62
1981.438	854.62
1985.619	848.62
1989.797	837.62
1993.971	833.62
1998.14	843.62
2002.306	848.62
2006.469	863.62
2010.627	860.62
2014.781	861.62
2018.932	871.62
2023.078	856.62
2027.221	858.62
2031.36	851.62
2035.495	836.62
2039.627	822.62
2043.754	820.62
2047.878	835.62
2051.998	827.62
2056.114	814.62
2060.226	822.62
2064.334	828.62
2068.439	833.62
2072.54	826.62
2076.637	831.62
2080.73	844.62
2084.82	850.62
2088.906	839.62
2092.988	844.62
2097.066	841.62
2101.14	836.62
2105.211	834.62
2109.278	821.62
2113.342	813.62
2117.401	797.62
2121.457	790.62
2125.509	801.62
2129.558	793.62
2133.602	803.62
2137.643	787.62
2141.681	772.62
2145.714	793.62
2149.744	780.62
2153.77	782.62
2157.793	778.62
2161.812	751.62
2165.827	752.62
2169.838	742.62
2173.846	733.62
2177.851	722.62
2181.851	712.62
2185.848	712.62
2189.841	689.62
2193.831	696.62
2197.817	691.62
2201.799	684.62
2205.778	694.62
2209.753	671.62
2213.725	686.62
2217.693	677.62
2221.657	685.62
2225.618	669.62
2229.575	668.62
2233.529	673.62
2237.479	665.62
2241.425	660.62
2245.368	662.62
2249.307	642.62
2253.243	627.62
2257.175	616.62
2261.104	624.62
2265.029	613.62
2268.95	606.62
2272.868	601.62
2276.783	579.62
2280.694	578.62
2284.601	565.62
2288.505	565.62
2292.405	557.62
2296.302	559.62
2300.195	553.62
2304.085	530.62
2307.971	532.62
2311.854	524.62
2315.734	517.62
2319.609	502.62
2323.482	507.62
2327.351	491.62
2331.216	496.62
2335.078	492.62
2338.937	483.62
2342.792	494.62
2346.643	468.62
2350.492	483.62
2354.336	484.62
2358.178	482.62
2362.015	483.62
2365.85	483.62
2369.681	494.62
2373.508	490.62
2377.333	487.62
2381.153	487.62
2384.971	481.62
2388.785	477.62
2392.595	476.62
2396.402	470.62
2400.206	477.62
2404.007	468.62
2407.804	470.62
2411.597	463.62
2415.388	467.62
2419.174	466.62
2422.958	454.62
2426.738	452.62
2430.515	465.62
2434.289	448.62
2438.059	447.62
2441.825	448.62
2445.589	448.62
2449.349	449.62
2453.106	444.62
2456.859	437.62
2460.61	439.62
2464.356	433.62
2468.1	421.62
2471.84	432.62
2475.577	421.62
2479.311	431.62
2483.041	422.62
2486.768	420.62
2490.492	426.62
2494.213	431.62
2497.93	421.62
2501.644	420.62
2505.355	420.62
2509.062	423.62
2512.766	422.62
2516.467	418.62
2520.165	415.62
2523.859	406.62
2527.551	406.62
2531.239	397.62
2534.923	403.62
2538.605	408.62
2542.283	395.62
2545.958	384.62
2549.63	400.62
2553.299	394.62
2556.964	377.62
2560.626	387.62
2564.285	380.62
2567.941	379.62
2571.594	373.62
2575.243	374.62
2578.89	377.62
2582.533	369.62
2586.173	361.62
2589.809	352.62
2593.443	365.62
2597.073	350.62
2600.701	346.62
2604.325	349.62
2607.946	352.62
2611.564	344.62
2615.178	342.62
2618.79	341.62
2622.398	331.62
2626.004	340.62
2629.606	338.62
2633.205	334.62
2636.801	341.62
2640.394	325.62
2643.983	325.62
2647.57	331.62
2651.153	318.62
2654.734	312.62
2658.311	311.62
2661.885	314.62
2665.456	312.62
2669.025	309.62
2672.589	304.62
2676.151	306.62
2679.71	295.62
2683.266	297.62
2686.819	291.62
2690.368	293.62
2693.915	287.62
2697.458	286.62
2700.999	275.62
2704.536	280.62
2708.071	274.62
2711.602	271.62
2715.13	267.62
2718.656	276.62
2722.178	272.62
2725.697	282.62
2729.214	280.62
2732.727	277.62
2736.237	277.62
2739.744	269.62
2743.249	279.62
2746.75	278.62
2750.248	272.62
2753.743	272.62
2757.236	271.62
2760.725	255.62
2764.211	260.62
2767.695	256.62
2771.175	253.62
2774.652	248.62
2778.127	256.62
2781.598	252.62
2785.067	250.62
2788.532	248.62
2791.995	261.62
2795.455	248.62
2798.911	249.62
2802.365	247.62
2805.816	245.62
2809.264	250.62
2812.709	256.62
2816.151	259.62
2819.59	257.62
2823.026	253.62
2826.46	251.62
2829.89	258.62
2833.318	253.62
2836.742	256.62
2840.164	259.62
2843.583	262.62
2846.999	263.62
2850.412	262.62
2853.822	267.62
2857.229	255.62
2860.634	262.62
2864.035	266.62
2867.434	268.62
2870.83	268.62
2874.223	273.62
2877.613	271.62
2881	272.62
2884.385	277.62
2887.766	267.62
2891.145	268.62
2894.521	272.62
2897.894	276.62
2901.264	269.62
2904.631	278.62
2907.996	283.62
2911.358	271.62
2914.717	278.62
2918.073	274.62
2921.426	285.62
2924.777	281.62
2928.124	290.62
2931.469	293.62
2934.811	304.62
2938.15	307.62
2941.487	311.62
2944.821	305.62
2948.152	307.62
2951.48	317.62
2954.805	317.62
2958.128	329.62
2961.447	330.62
2964.765	330.62
2968.079	339.62
2971.39	343.62
2974.699	347.62
2978.005	353.62
2981.308	359.62
2984.609	374.62
2987.907	383.62
2991.202	392.62
2994.494	397.62
2997.784	408.62
3001.07	410.62
3004.355	419.62
3007.636	434.62
3010.915	442.62
3014.191	443.62
3017.464	449.62
3020.734	452.62
3024.002	464.62
3027.267	468.62
3030.53	471.62
3033.789	483.62
3037.046	497.62
3040.301	514.62
3043.552	515.62
3046.801	526.62
3050.048	537.62
3053.291	549.62
3056.532	576.62
3059.771	576.62
3063.006	598.62
3066.239	620.62
3069.469	641.62
3072.697	652.62
3075.922	667.62
3079.144	684.62
3082.364	697.62
3085.581	714.62
3088.795	734.62
3092.007	736.62
3095.216	759.62
3098.423	768.62
3101.627	776.62
3104.828	818.62
3108.026	822.62
3111.222	838.62
3114.416	855.62
3117.607	892.62
3120.795	871.62
3123.98	903.62
3127.163	931.62
3130.344	969.62
3133.521	976.62
3136.696	997.62
3139.869	1003.62
3143.039	1015.62
3146.206	1038.62
3149.371	1045.62
3152.533	1064.62
3155.693	1071.62
3158.85	1091.62
3162.005	1092.62
3165.157	1092.62
3168.306	1091.62
3171.453	1099.62
3174.597	1094.62
3177.739	1103.62
3180.878	1092.62
3184.014	1109.62
3187.149	1103.62
3190.28	1101.62
3193.409	1123.62
3196.536	1120.62
3199.659	1115.62
3202.781	1120.62
3205.9	1130.62
3209.016	1126.62
3212.13	1111.62
3215.241	1114.62
3218.35	1108.62
3221.456	1095.62
3224.56	1094.62
3227.661	1089.62
3230.76	1074.62
3233.856	1063.62
3236.95	1047.62
3240.041	1059.62
3243.13	1031.62
3246.216	1027.62
3249.3	1013.62
3252.382	1004.62
3255.46	1003.62
3258.537	1006.62
3261.611	1003.62
3264.682	987.62
3267.751	994.62
3270.818	982.62
3273.882	989.62
3276.943	973.62
3280.002	962.62
3283.059	928.62
3286.113	936.62
3289.165	939.62
3292.214	922.62
3295.261	899.62
3298.306	886.62
3301.348	869.62
3304.387	857.62
3307.425	840.62
3310.459	831.62
3313.492	835.62
3316.521	814.62
3319.549	819.62
3322.574	793.62
3325.597	801.62
3328.617	798.62
3331.635	781.62
3334.65	776.62
3337.663	779.62
3340.674	782.62
3343.682	766.62
3346.688	765.62
3349.691	760.62
3352.692	746.62
3355.691	754.62
3358.687	748.62
3361.681	741.62
3364.673	726.62
3367.662	714.62
3370.649	698.62
3373.633	700.62
3376.615	685.62
3379.595	676.62
3382.572	667.62
3385.547	656.62
3388.52	648.62
3391.49	638.62
3394.458	638.62
3397.424	620.62
3400.387	613.62
3403.348	609.62
3406.307	590.62
3409.263	613.62
3412.217	590.62
3415.168	595.62
3418.118	572.62
3421.065	565.62
3424.009	573.62
3426.951	558.62
3429.891	540.62
3432.829	533.62
3435.764	528.62
3438.697	518.62
3441.628	503.62
3444.557	494.62
3447.483	474.62
3450.407	466.62
3453.328	456.62
3456.247	440.62
3459.164	436.62
3462.079	415.62
3464.991	393.62
3467.902	383.62
3470.809	371.62
3473.715	362.62
3476.618	356.62
3479.519	340.62
3482.418	336.62
3485.315	324.62
3488.209	319.62
3491.101	304.62
3493.99	290.62
3496.878	283.62
3499.763	266.62
3502.646	270.62
3505.527	258.62
3508.405	255.62
3511.281	242.62
3514.155	223.62
3517.027	224.62
3519.897	204.62
3522.764	198.62
3525.629	178.62
3528.492	172.62
3531.352	164.62
3534.211	159.62
3537.067	146.62
3539.921	133.62
3542.773	122.62
3545.622	114.62
3548.469	115.62
3551.315	104.62
3554.157	101.62
3556.998	98.62
3559.837	87.62
3562.673	75.62
3565.507	73.62
3568.339	68.62
3571.169	59.62
3573.996	64.62
3576.822	53.62
3579.645	47.62
3582.466	39.62
3585.285	37.62
3588.101	25.62
3590.916	30.62
3593.728	25.62
3596.538	23.62
3599.346	15.62
3602.152	16.62
3604.956	9.62
3607.757	-2.38
3610.556	-5.38
3613.354	-11.38
3616.149	-7.38
3618.942	-17.38
3621.732	-20.38
3624.521	-13.38
3627.307	-20.38
3630.092	-22.38
3632.874	-24.38
3635.654	-24.38
3638.432	-25.38
3641.208	-31.38
3643.982	-36.38
3646.753	-42.38
3649.523	-42.38
3652.29	-46.38
3655.055	-47.38
3657.818	-52.38
3660.579	-56.38
3663.338	-51.38
3666.095	-52.38
3668.849	-51.38
3671.602	-62.38
3674.352	-64.38
3677.101	-63.38
3679.847	-64.38
3682.591	-66.38
3685.333	-66.38
3688.073	-70.38
3690.811	-72.38
3693.547	-79.38
3696.281	-79.38
3699.013	-76.38
3701.742	-78.38
3704.47	-77.38
3707.195	-76.38
3709.919	-77.38
3712.64	-80.38
3715.359	-80.38
3718.076	-85.38
3720.792	-86.38
3723.505	-86.38
3726.216	-85.38
3728.925	-83.38
3731.632	-87.38
3734.336	-85.38
3737.039	-91.38
3739.74	-84.38
3742.439	-89.38
3745.136	-93.38
3747.83	-91.38
3750.523	-89.38
3753.213	-88.38
3755.902	-91.38
3758.589	-95.38
3761.273	-95.38
3763.956	-94.38
3766.636	-95.38
3769.315	-96.38
3771.991	-97.38
3774.665	-91.38
3777.338	-93.38
3780.008	-95.38
3782.677	-96.38
3785.343	-95.38
3788.007	-96.38
3790.67	-98.38
3793.33	-100.38
3795.989	-98.38
3798.645	-97.38
3801.299	-99.38
3803.952	-98.38
3806.602	-103.38
3809.251	-96.38
3811.897	-95.38
3814.542	-100.38
3817.184	-96.38
3819.825	-104.38
3822.463	-99.38
3825.1	-101.38
3827.735	-104.38
3830.367	-102.38
3832.998	-107.38
3835.627	-103.38
3838.253	-102.38
3840.878	-104.38
3843.501	-100.38
3846.122	-102.38
3848.741	-106.38
3851.358	-102.38
3853.973	-105.38
3856.586	-103.38
3859.197	-103.38
3861.806	-107.38
3864.414	-106.38
3867.019	-105.38
3869.622	-109.38
3872.224	-103.38
3874.823	-100.38
3877.421	-97.38
3880.016	-96.38
3882.61	-91.38
3885.202	-94.38
3887.792	-99.38
3890.38	-101.38
3892.966	-104.38
3895.55	-108.38
3898.132	-107.38
3900.713	-109.38
3903.291	-105.38
3905.868	-103.38
3908.442	-105.38
3911.015	-108.38
3913.586	-103.38
3916.155	-109.38
3918.722	-109.38
3921.287	-107.38
3923.85	-108.38
3926.411	-109.38
3928.971	-110.38
3931.528	-112.38
3934.084	-110.38
3936.638	-111.38
3939.19	-108.38
3941.74	-106.38
3944.288	-108.38
3946.834	-106.38
3949.378	-107.38
3951.921	-106.38
3954.462	-109.38
3957	-108.38
3959.537	-112.38
3962.072	-111.38
3964.606	-111.38
3967.137	-107.38
3969.667	-106.38
3972.194	-107.38
3974.72	-106.38
3977.244	-107.38
3979.766	-102.38
3982.286	-101.38
3984.805	-103.38
3987.321	-105.38
3989.836	-105.38
3992.349	-108.38
3994.86	-111.38
3997.369	-107.38
3999.877	-104.38
4002.382	-105.38
4004.886	-104.38
4007.388	-103.38
4009.888	-104.38
4012.386	-104.38
4014.883	-110.38
4017.377	-110.38
4019.87	-105.38
4022.361	-109.38
4024.85	-107.38
4027.338	-108.38
4029.823	-103.38
4032.307	-108.38
4034.789	-106.38
4037.269	-106.38
4039.747	-104.38
4042.224	-108.38
4044.699	-109.38
4047.172	-106.38
4049.643	-106.38
4052.112	-112.38
4054.58	-107.38
4057.046	-106.38
4059.51	-107.38
4061.972	-112.38
4064.432	-111.38
4066.891	-106.38
4069.348	-106.38
4071.803	-107.38
4074.256	-101.38
4076.708	-103.38
4079.158	-108.38
4081.606	-110.38
4084.052	-110.38
4086.497	-108.38
4088.939	-105.38
4091.38	-110.38
4093.819	-109.38
4096.257	-113.38
4098.693	-111.38
4101.127	-109.38
4103.559	-110.38
4105.989	-71.38
4108.418	-68.38
4110.845	-68.38
4113.27	-62.38
4115.694	-51.38
4118.115	-47.38
4120.535	-106.38
4122.954	-103.38
4125.37	-107.38
4127.785	-110.38
4130.198	-110.38
4132.609	-107.38
4135.019	-114.38
4137.427	-111.38
4139.833	-113.38
4142.237	-110.38
