Data from 10000CFU3_B_RamanShift_1.txt Node
Date: Mon Jan 23 14:27:02 IST 2017
User: aro
Spectrometer: QEPB0276
Trigger mode: 0
Integration Time (sec): 5.000000E0
Scans to average: 1
Electric dark correction enabled: true
Nonlinearity correction enabled: false
Boxcar width: 0
XAxis mode: Raman Shifts
Number of Pixels in Spectrum: 1044
>>>>>Begin Spectral Data<<<<<
160.701	-24.5
166.742	-2.5
172.777	90.5
178.805	384.5
184.826	1060.5
190.841	2174.5
196.849	3410.5
202.85	4214.5
208.845	4404.5
214.833	4262.5
220.815	4122.5
226.789	3990.5
232.758	3898.5
238.719	3775.5
244.674	3664.5
250.623	3508.5
256.565	3369.5
262.5	3194.5
268.429	3059.5
274.351	2934.5
280.267	2871.5
286.176	2747.5
292.079	2680.5
297.975	2584.5
303.865	2508.5
309.748	2434.5
315.625	2393.5
321.495	2302.5
327.359	2304.5
333.217	2283.5
339.068	2259.5
344.912	2248.5
350.751	2243.5
356.583	2224.5
362.408	2218.5
368.227	2225.5
374.04	2233.5
379.847	2241.5
385.647	2249.5
391.44	2267.5
397.228	2274.5
403.009	2270.5
408.784	2298.5
414.553	2307.5
420.315	2310.5
426.071	2303.5
431.821	2309.5
437.565	2317.5
443.302	2315.5
449.033	2297.5
454.758	2297.5
460.477	2306.5
466.189	2298.5
471.896	2280.5
477.596	2272.5
483.29	2241.5
488.978	2225.5
494.66	2221.5
500.335	2197.5
506.005	2171.5
511.668	2137.5
517.325	2100.5
522.977	2063.5
528.622	2054.5
534.261	2035.5
539.894	2015.5
545.521	2016.5
551.141	1977.5
556.756	1976.5
562.365	1964.5
567.968	1965.5
573.565	1954.5
579.155	1936.5
584.74	1929.5
590.319	1937.5
595.892	1918.5
601.459	1897.5
607.02	1876.5
612.575	1882.5
618.124	1858.5
623.667	1824.5
629.204	1819.5
634.735	1808.5
640.261	1808.5
645.781	1791.5
651.294	1783.5
656.802	1767.5
662.304	1752.5
667.8	1765.5
673.29	1778.5
678.775	1763.5
684.254	1753.5
689.726	1742.5
695.193	1734.5
700.655	1722.5
706.11	1723.5
711.56	1702.5
717.004	1692.5
722.442	1707.5
727.874	1674.5
733.301	1693.5
738.722	1654.5
744.137	1659.5
749.547	1654.5
754.951	1651.5
760.349	1651.5
765.741	1658.5
771.128	1653.5
776.509	1655.5
781.885	1654.5
787.254	1658.5
792.618	1648.5
797.977	1635.5
803.33	1615.5
808.677	1620.5
814.019	1609.5
819.355	1585.5
824.686	1580.5
830.011	1565.5
835.33	1565.5
840.644	1556.5
845.952	1542.5
851.255	1545.5
856.552	1556.5
861.844	1529.5
867.13	1537.5
872.41	1536.5
877.686	1518.5
882.955	1507.5
888.219	1504.5
893.478	1465.5
898.731	1461.5
903.979	1420.5
909.221	1395.5
914.458	1398.5
919.69	1387.5
924.916	1407.5
930.136	1398.5
935.351	1407.5
940.561	1398.5
945.766	1410.5
950.965	1391.5
956.158	1373.5
961.347	1366.5
966.529	1342.5
971.707	1319.5
976.879	1296.5
982.046	1303.5
987.208	1291.5
992.364	1282.5
997.515	1298.5
1002.66	1303.5
1007.801	1325.5
1012.936	1344.5
1018.066	1347.5
1023.19	1349.5
1028.309	1356.5
1033.423	1359.5
1038.532	1343.5
1043.636	1333.5
1048.734	1333.5
1053.827	1299.5
1058.915	1314.5
1063.998	1307.5
1069.075	1307.5
1074.147	1292.5
1079.214	1302.5
1084.276	1306.5
1089.333	1334.5
1094.385	1337.5
1099.431	1341.5
1104.472	1344.5
1109.509	1324.5
1114.54	1321.5
1119.565	1297.5
1124.586	1270.5
1129.602	1289.5
1134.613	1275.5
1139.618	1268.5
1144.619	1261.5
1149.614	1272.5
1154.604	1274.5
1159.589	1288.5
1164.57	1298.5
1169.545	1286.5
1174.515	1305.5
1179.48	1289.5
1184.44	1283.5
1189.395	1267.5
1194.345	1268.5
1199.29	1267.5
1204.23	1280.5
1209.165	1284.5
1214.095	1279.5
1219.021	1294.5
1223.941	1315.5
1228.856	1310.5
1233.766	1311.5
1238.672	1309.5
1243.572	1315.5
1248.467	1304.5
1253.358	1309.5
1258.244	1294.5
1263.124	1258.5
1268	1245.5
1272.871	1234.5
1277.737	1215.5
1282.599	1221.5
1287.455	1220.5
1292.306	1240.5
1297.153	1231.5
1301.995	1257.5
1306.832	1253.5
1311.664	1276.5
1316.491	1264.5
1321.314	1252.5
1326.132	1229.5
1330.945	1204.5
1335.753	1182.5
1340.556	1135.5
1345.354	1103.5
1350.148	1094.5
1354.937	1086.5
1359.722	1093.5
1364.501	1122.5
1369.276	1163.5
1374.046	1197.5
1378.811	1227.5
1383.572	1213.5
1388.327	1232.5
1393.079	1213.5
1397.825	1186.5
1402.567	1170.5
1407.304	1134.5
1412.036	1133.5
1416.764	1129.5
1421.487	1112.5
1426.205	1133.5
1430.919	1120.5
1435.628	1125.5
1440.333	1127.5
1445.032	1144.5
1449.727	1147.5
1454.418	1134.5
1459.104	1133.5
1463.785	1120.5
1468.462	1101.5
1473.134	1085.5
1477.802	1081.5
1482.465	1075.5
1487.123	1070.5
1491.777	1090.5
1496.426	1094.5
1501.071	1114.5
1505.711	1142.5
1510.347	1158.5
1514.978	1189.5
1519.604	1192.5
1524.226	1219.5
1528.844	1224.5
1533.457	1220.5
1538.065	1221.5
1542.669	1213.5
1547.269	1221.5
1551.864	1218.5
1556.454	1221.5
1561.041	1211.5
1565.622	1225.5
1570.199	1243.5
1574.772	1258.5
1579.34	1259.5
1583.904	1274.5
1588.464	1301.5
1593.019	1295.5
1597.569	1312.5
1602.115	1315.5
1606.657	1314.5
1611.195	1316.5
1615.728	1325.5
1620.256	1343.5
1624.78	1358.5
1629.3	1383.5
1633.816	1379.5
1638.327	1400.5
1642.834	1407.5
1647.336	1422.5
1651.834	1429.5
1656.328	1418.5
1660.817	1415.5
1665.302	1400.5
1669.783	1375.5
1674.259	1347.5
1678.732	1292.5
1683.199	1229.5
1687.663	1184.5
1692.122	1138.5
1696.577	1107.5
1701.028	1115.5
1705.474	1121.5
1709.917	1131.5
1714.355	1123.5
1718.788	1100.5
1723.218	1072.5
1727.643	1031.5
1732.064	994.5
1736.481	983.5
1740.893	947.5
1745.301	933.5
1749.705	901.5
1754.105	868.5
1758.501	850.5
1762.893	828.5
1767.28	801.5
1771.663	812.5
1776.042	790.5
1780.417	801.5
1784.787	788.5
1789.154	799.5
1793.516	824.5
1797.874	859.5
1802.228	861.5
1806.578	863.5
1810.924	864.5
1815.266	851.5
1819.603	844.5
1823.937	825.5
1828.266	807.5
1832.591	802.5
1836.913	784.5
1841.23	795.5
1845.543	788.5
1849.852	781.5
1854.156	770.5
1858.457	765.5
1862.754	782.5
1867.047	765.5
1871.335	781.5
1875.62	766.5
1879.9	769.5
1884.177	764.5
1888.449	752.5
1892.718	738.5
1896.982	752.5
1901.243	753.5
1905.499	742.5
1909.752	751.5
1914	759.5
1918.245	750.5
1922.485	753.5
1926.722	761.5
1930.954	776.5
1935.183	788.5
1939.408	795.5
1943.628	780.5
1947.845	786.5
1952.058	801.5
1956.267	783.5
1960.472	785.5
1964.673	780.5
1968.87	783.5
1973.063	771.5
1977.252	777.5
1981.438	759.5
1985.619	760.5
1989.797	738.5
1993.971	738.5
1998.14	757.5
2002.306	746.5
2006.469	752.5
2010.627	753.5
2014.781	758.5
2018.932	737.5
2023.078	749.5
2027.221	744.5
2031.36	729.5
2035.495	711.5
2039.627	703.5
2043.754	720.5
2047.878	724.5
2051.998	698.5
2056.114	696.5
2060.226	701.5
2064.334	713.5
2068.439	708.5
2072.54	725.5
2076.637	722.5
2080.73	734.5
2084.82	730.5
2088.906	740.5
2092.988	730.5
2097.066	740.5
2101.14	734.5
2105.211	714.5
2109.278	725.5
2113.342	728.5
2117.401	724.5
2121.457	719.5
2125.509	722.5
2129.558	703.5
2133.602	714.5
2137.643	708.5
2141.681	703.5
2145.714	716.5
2149.744	698.5
2153.77	700.5
2157.793	692.5
2161.812	674.5
2165.827	673.5
2169.838	664.5
2173.846	657.5
2177.851	646.5
2181.851	637.5
2185.848	637.5
2189.841	629.5
2193.831	612.5
2197.817	606.5
2201.799	607.5
2205.778	606.5
2209.753	595.5
2213.725	602.5
2217.693	604.5
2221.657	603.5
2225.618	598.5
2229.575	603.5
2233.529	595.5
2237.479	605.5
2241.425	593.5
2245.368	586.5
2249.307	573.5
2253.243	563.5
2257.175	551.5
2261.104	538.5
2265.029	545.5
2268.95	536.5
2272.868	524.5
2276.783	523.5
2280.694	523.5
2284.601	518.5
2288.505	513.5
2292.405	511.5
2296.302	511.5
2300.195	500.5
2304.085	489.5
2307.971	478.5
2311.854	475.5
2315.734	475.5
2319.609	462.5
2323.482	447.5
2327.351	444.5
2331.216	452.5
2335.078	449.5
2338.937	446.5
2342.792	447.5
2346.643	435.5
2350.492	440.5
2354.336	437.5
2358.178	431.5
2362.015	426.5
2365.85	438.5
2369.681	432.5
2373.508	439.5
2377.333	431.5
2381.153	431.5
2384.971	429.5
2388.785	430.5
2392.595	429.5
2396.402	427.5
2400.206	408.5
2404.007	418.5
2407.804	410.5
2411.597	414.5
2415.388	410.5
2419.174	407.5
2422.958	395.5
2426.738	399.5
2430.515	401.5
2434.289	399.5
2438.059	395.5
2441.825	392.5
2445.589	390.5
2449.349	395.5
2453.106	375.5
2456.859	382.5
2460.61	380.5
2464.356	371.5
2468.1	371.5
2471.84	373.5
2475.577	364.5
2479.311	361.5
2483.041	363.5
2486.768	373.5
2490.492	369.5
2494.213	371.5
2497.93	363.5
2501.644	371.5
2505.355	366.5
2509.062	358.5
2512.766	369.5
2516.467	360.5
2520.165	356.5
2523.859	355.5
2527.551	351.5
2531.239	352.5
2534.923	341.5
2538.605	345.5
2542.283	350.5
2545.958	343.5
2549.63	333.5
2553.299	350.5
2556.964	347.5
2560.626	337.5
2564.285	336.5
2567.941	339.5
2571.594	329.5
2575.243	332.5
2578.89	335.5
2582.533	326.5
2586.173	329.5
2589.809	331.5
2593.443	321.5
2597.073	321.5
2600.701	315.5
2604.325	324.5
2607.946	319.5
2611.564	317.5
2615.178	313.5
2618.79	316.5
2622.398	308.5
2626.004	305.5
2629.606	311.5
2633.205	309.5
2636.801	313.5
2640.394	300.5
2643.983	293.5
2647.57	294.5
2651.153	290.5
2654.734	295.5
2658.311	285.5
2661.885	285.5
2665.456	268.5
2669.025	279.5
2672.589	278.5
2676.151	271.5
2679.71	264.5
2683.266	270.5
2686.819	252.5
2690.368	256.5
2693.915	260.5
2697.458	248.5
2700.999	243.5
2704.536	240.5
2708.071	239.5
2711.602	232.5
2715.13	222.5
2718.656	231.5
2722.178	237.5
2725.697	223.5
2729.214	227.5
2732.727	221.5
2736.237	217.5
2739.744	226.5
2743.249	228.5
2746.75	227.5
2750.248	239.5
2753.743	240.5
2757.236	233.5
2760.725	248.5
2764.211	245.5
2767.695	244.5
2771.175	244.5
2774.652	233.5
2778.127	237.5
2781.598	244.5
2785.067	237.5
2788.532	238.5
2791.995	241.5
2795.455	242.5
2798.911	233.5
2802.365	246.5
2805.816	235.5
2809.264	241.5
2812.709	247.5
2816.151	235.5
2819.59	237.5
2823.026	233.5
2826.46	237.5
2829.89	236.5
2833.318	240.5
2836.742	233.5
2840.164	232.5
2843.583	238.5
2846.999	248.5
2850.412	243.5
2853.822	244.5
2857.229	246.5
2860.634	250.5
2864.035	249.5
2867.434	250.5
2870.83	259.5
2874.223	268.5
2877.613	250.5
2881	261.5
2884.385	261.5
2887.766	263.5
2891.145	258.5
2894.521	263.5
2897.894	263.5
2901.264	270.5
2904.631	278.5
2907.996	267.5
2911.358	264.5
2914.717	265.5
2918.073	271.5
2921.426	276.5
2924.777	270.5
2928.124	280.5
2931.469	278.5
2934.811	291.5
2938.15	297.5
2941.487	298.5
2944.821	296.5
2948.152	293.5
2951.48	296.5
2954.805	298.5
2958.128	307.5
2961.447	305.5
2964.765	308.5
2968.079	313.5
2971.39	315.5
2974.699	334.5
2978.005	342.5
2981.308	335.5
2984.609	362.5
2987.907	371.5
2991.202	381.5
2994.494	401.5
2997.784	396.5
3001.07	404.5
3004.355	417.5
3007.636	433.5
3010.915	435.5
3014.191	442.5
3017.464	450.5
3020.734	465.5
3024.002	475.5
3027.267	475.5
3030.53	473.5
3033.789	490.5
3037.046	496.5
3040.301	498.5
3043.552	509.5
3046.801	521.5
3050.048	526.5
3053.291	548.5
3056.532	561.5
3059.771	579.5
3063.006	596.5
3066.239	610.5
3069.469	637.5
3072.697	651.5
3075.922	668.5
3079.144	675.5
3082.364	685.5
3085.581	705.5
3088.795	720.5
3092.007	742.5
3095.216	759.5
3098.423	785.5
3101.627	793.5
3104.828	803.5
3108.026	824.5
3111.222	839.5
3114.416	848.5
3117.607	878.5
3120.795	897.5
3123.98	908.5
3127.163	930.5
3130.344	968.5
3133.521	980.5
3136.696	998.5
3139.869	1003.5
3143.039	1025.5
3146.206	1060.5
3149.371	1063.5
3152.533	1068.5
3155.693	1067.5
3158.85	1087.5
3162.005	1083.5
3165.157	1089.5
3168.306	1101.5
3171.453	1100.5
3174.597	1096.5
3177.739	1105.5
3180.878	1104.5
3184.014	1100.5
3187.149	1112.5
3190.28	1118.5
3193.409	1110.5
3196.536	1104.5
3199.659	1129.5
3202.781	1117.5
3205.9	1120.5
3209.016	1113.5
3212.13	1116.5
3215.241	1113.5
3218.35	1111.5
3221.456	1093.5
3224.56	1084.5
3227.661	1083.5
3230.76	1062.5
3233.856	1060.5
3236.95	1054.5
3240.041	1033.5
3243.13	1033.5
3246.216	1031.5
3249.3	1008.5
3252.382	1012.5
3255.46	997.5
3258.537	1009.5
3261.611	998.5
3264.682	1004.5
3267.751	993.5
3270.818	1002.5
3273.882	986.5
3276.943	988.5
3280.002	979.5
3283.059	957.5
3286.113	955.5
3289.165	939.5
3292.214	923.5
3295.261	924.5
3298.306	889.5
3301.348	884.5
3304.387	873.5
3307.425	857.5
3310.459	855.5
3313.492	844.5
3316.521	821.5
3319.549	822.5
3322.574	801.5
3325.597	793.5
3328.617	797.5
3331.635	784.5
3334.65	785.5
3337.663	780.5
3340.674	771.5
3343.682	771.5
3346.688	756.5
3349.691	763.5
3352.692	758.5
3355.691	757.5
3358.687	751.5
3361.681	751.5
3364.673	737.5
3367.662	724.5
3370.649	707.5
3373.633	697.5
3376.615	698.5
3379.595	690.5
3382.572	674.5
3385.547	667.5
3388.52	654.5
3391.49	648.5
3394.458	649.5
3397.424	638.5
3400.387	621.5
3403.348	621.5
3406.307	612.5
3409.263	609.5
3412.217	595.5
3415.168	586.5
3418.118	571.5
3421.065	568.5
3424.009	560.5
3426.951	560.5
3429.891	545.5
3432.829	535.5
3435.764	527.5
3438.697	518.5
3441.628	497.5
3444.557	498.5
3447.483	476.5
3450.407	459.5
3453.328	446.5
3456.247	432.5
3459.164	421.5
3462.079	417.5
3464.991	396.5
3467.902	389.5
3470.809	379.5
3473.715	366.5
3476.618	346.5
3479.519	357.5
3482.418	335.5
3485.315	332.5
3488.209	310.5
3491.101	308.5
3493.99	299.5
3496.878	289.5
3499.763	282.5
3502.646	281.5
3505.527	262.5
3508.405	252.5
3511.281	237.5
3514.155	229.5
3517.027	215.5
3519.897	210.5
3522.764	200.5
3525.629	193.5
3528.492	179.5
3531.352	161.5
3534.211	153.5
3537.067	144.5
3539.921	133.5
3542.773	133.5
3545.622	121.5
3548.469	122.5
3551.315	107.5
3554.157	101.5
3556.998	102.5
3559.837	92.5
3562.673	81.5
3565.507	78.5
3568.339	68.5
3571.169	66.5
3573.996	62.5
3576.822	60.5
3579.645	51.5
3582.466	45.5
3585.285	39.5
3588.101	30.5
3590.916	32.5
3593.728	28.5
3596.538	21.5
3599.346	17.5
3602.152	15.5
3604.956	5.5
3607.757	1.5
3610.556	-2.5
3613.354	-2.5
3616.149	-8.5
3618.942	-10.5
3621.732	-19.5
3624.521	-14.5
3627.307	-20.5
3630.092	-21.5
3632.874	-26.5
3635.654	-31.5
3638.432	-28.5
3641.208	-35.5
3643.982	-31.5
3646.753	-36.5
3649.523	-43.5
3652.29	-43.5
3655.055	-47.5
3657.818	-49.5
3660.579	-50.5
3663.338	-47.5
3666.095	-48.5
3668.849	-52.5
3671.602	-60.5
3674.352	-60.5
3677.101	-64.5
3679.847	-70.5
3682.591	-69.5
3685.333	-67.5
3688.073	-74.5
3690.811	-73.5
3693.547	-71.5
3696.281	-73.5
3699.013	-73.5
3701.742	-78.5
3704.47	-75.5
3707.195	-76.5
3709.919	-77.5
3712.64	-76.5
3715.359	-81.5
3718.076	-84.5
3720.792	-87.5
3723.505	-86.5
3726.216	-82.5
3728.925	-81.5
3731.632	-85.5
3734.336	-87.5
3737.039	-85.5
3739.74	-84.5
3742.439	-89.5
3745.136	-89.5
3747.83	-88.5
3750.523	-89.5
3753.213	-94.5
3755.902	-90.5
3758.589	-94.5
3761.273	-96.5
3763.956	-91.5
3766.636	-93.5
3769.315	-95.5
3771.991	-93.5
3774.665	-92.5
3777.338	-90.5
3780.008	-94.5
3782.677	-97.5
3785.343	-97.5
3788.007	-96.5
3790.67	-100.5
3793.33	-100.5
3795.989	-97.5
3798.645	-96.5
3801.299	-93.5
3803.952	-97.5
3806.602	-104.5
3809.251	-98.5
3811.897	-94.5
3814.542	-100.5
3817.184	-99.5
3819.825	-102.5
3822.463	-101.5
3825.1	-99.5
3827.735	-104.5
3830.367	-102.5
3832.998	-104.5
3835.627	-101.5
3838.253	-101.5
3840.878	-101.5
3843.501	-99.5
3846.122	-103.5
3848.741	-106.5
3851.358	-104.5
3853.973	-108.5
3856.586	-103.5
3859.197	-101.5
3861.806	-103.5
3864.414	-105.5
3867.019	-107.5
3869.622	-105.5
3872.224	-102.5
3874.823	-101.5
3877.421	-98.5
3880.016	-97.5
3882.61	-91.5
3885.202	-94.5
3887.792	-99.5
3890.38	-101.5
3892.966	-106.5
3895.55	-107.5
3898.132	-102.5
3900.713	-107.5
3903.291	-106.5
3905.868	-101.5
3908.442	-105.5
3911.015	-108.5
3913.586	-105.5
3916.155	-106.5
3918.722	-110.5
3921.287	-106.5
3923.85	-106.5
3926.411	-110.5
3928.971	-111.5
3931.528	-106.5
3934.084	-108.5
3936.638	-107.5
3939.19	-110.5
3941.74	-104.5
3944.288	-104.5
3946.834	-105.5
3949.378	-106.5
3951.921	-108.5
3954.462	-109.5
3957	-109.5
3959.537	-112.5
3962.072	-110.5
3964.606	-108.5
3967.137	-105.5
3969.667	-101.5
3972.194	-107.5
3974.72	-106.5
3977.244	-106.5
3979.766	-104.5
3982.286	-106.5
3984.805	-103.5
3987.321	-107.5
3989.836	-108.5
3992.349	-109.5
3994.86	-106.5
3997.369	-103.5
3999.877	-106.5
4002.382	-103.5
4004.886	-102.5
4007.388	-104.5
4009.888	-107.5
4012.386	-104.5
4014.883	-111.5
4017.377	-115.5
4019.87	-104.5
4022.361	-109.5
4024.85	-108.5
4027.338	-104.5
4029.823	-106.5
4032.307	-104.5
4034.789	-106.5
4037.269	-106.5
4039.747	-106.5
4042.224	-109.5
4044.699	-110.5
4047.172	-107.5
4049.643	-107.5
4052.112	-108.5
4054.58	-109.5
4057.046	-108.5
4059.51	-107.5
4061.972	-110.5
4064.432	-105.5
4066.891	-105.5
4069.348	-104.5
4071.803	-105.5
4074.256	-106.5
4076.708	-105.5
4079.158	-109.5
4081.606	-109.5
4084.052	-111.5
4086.497	-104.5
4088.939	-107.5
4091.38	-106.5
4093.819	-107.5
4096.257	-113.5
4098.693	-113.5
4101.127	-113.5
4103.559	-113.5
4105.989	-75.5
4108.418	-71.5
4110.845	-67.5
4113.27	-60.5
4115.694	-57.5
4118.115	-46.5
4120.535	-104.5
4122.954	-106.5
4125.37	-106.5
4127.785	-110.5
4130.198	-107.5
4132.609	-109.5
4135.019	-112.5
4137.427	-114.5
4139.833	-111.5
4142.237	-109.5
