Data from 100000000CFU1_B_RamanShift_1.txt Node
Date: Mon Jan 23 14:55:42 IST 2017
User: aro
Spectrometer: QEPB0276
Trigger mode: 0
Integration Time (sec): 5.000000E0
Scans to average: 1
Electric dark correction enabled: true
Nonlinearity correction enabled: false
Boxcar width: 0
XAxis mode: Raman Shifts
Number of Pixels in Spectrum: 1044
>>>>>Begin Spectral Data<<<<<
160.701	-24.12
166.742	0.88
172.777	69.88
178.805	278.88
184.826	756.88
190.841	1564.88
196.849	2435.88
202.85	3027.88
208.845	3138.88
214.833	3046.88
220.815	2923.88
226.789	2856.88
232.758	2772.88
238.719	2696.88
244.674	2591.88
250.623	2488.88
256.565	2365.88
262.5	2254.88
268.429	2133.88
274.351	2063.88
280.267	1978.88
286.176	1912.88
292.079	1854.88
297.975	1788.88
303.865	1723.88
309.748	1690.88
315.625	1652.88
321.495	1596.88
327.359	1587.88
333.217	1563.88
339.068	1555.88
344.912	1545.88
350.751	1545.88
356.583	1539.88
362.408	1539.88
368.227	1539.88
374.04	1546.88
379.847	1544.88
385.647	1558.88
391.44	1582.88
397.228	1573.88
403.009	1591.88
408.784	1594.88
414.553	1594.88
420.315	1610.88
426.071	1617.88
431.821	1614.88
437.565	1597.88
443.302	1595.88
449.033	1600.88
454.758	1580.88
460.477	1591.88
466.189	1567.88
471.896	1580.88
477.596	1565.88
483.29	1562.88
488.978	1554.88
494.66	1538.88
500.335	1522.88
506.005	1497.88
511.668	1465.88
517.325	1424.88
522.977	1413.88
528.622	1376.88
534.261	1373.88
539.894	1364.88
545.521	1333.88
551.141	1329.88
556.756	1325.88
562.365	1304.88
567.968	1312.88
573.565	1308.88
579.155	1297.88
584.74	1285.88
590.319	1285.88
595.892	1263.88
601.459	1255.88
607.02	1265.88
612.575	1246.88
618.124	1230.88
623.667	1230.88
629.204	1206.88
634.735	1200.88
640.261	1187.88
645.781	1190.88
651.294	1174.88
656.802	1156.88
662.304	1171.88
667.8	1157.88
673.29	1153.88
678.775	1152.88
684.254	1139.88
689.726	1144.88
695.193	1127.88
700.655	1125.88
706.11	1115.88
711.56	1118.88
717.004	1104.88
722.442	1083.88
727.874	1092.88
733.301	1087.88
738.722	1074.88
744.137	1060.88
749.547	1073.88
754.951	1075.88
760.349	1074.88
765.741	1069.88
771.128	1072.88
776.509	1074.88
781.885	1062.88
787.254	1059.88
792.618	1053.88
797.977	1051.88
803.33	1049.88
808.677	1035.88
814.019	1018.88
819.355	1011.88
824.686	1000.88
830.011	989.88
835.33	984.88
840.644	971.88
845.952	969.88
851.255	983.88
856.552	981.88
861.844	954.88
867.13	971.88
872.41	956.88
877.686	945.88
882.955	937.88
888.219	927.88
893.478	901.88
898.731	888.88
903.979	869.88
909.221	853.88
914.458	848.88
919.69	849.88
924.916	855.88
930.136	838.88
935.351	865.88
940.561	853.88
945.766	844.88
950.965	851.88
956.158	834.88
961.347	824.88
966.529	807.88
971.707	792.88
976.879	782.88
982.046	775.88
987.208	771.88
992.364	779.88
997.515	776.88
1002.66	778.88
1007.801	788.88
1012.936	804.88
1018.066	804.88
1023.19	807.88
1028.309	816.88
1033.423	802.88
1038.532	802.88
1043.636	788.88
1048.734	780.88
1053.827	779.88
1058.915	755.88
1063.998	766.88
1069.075	751.88
1074.147	766.88
1079.214	769.88
1084.276	771.88
1089.333	789.88
1094.385	792.88
1099.431	780.88
1104.472	781.88
1109.509	774.88
1114.54	764.88
1119.565	768.88
1124.586	754.88
1129.602	743.88
1134.613	741.88
1139.618	735.88
1144.619	745.88
1149.614	748.88
1154.604	743.88
1159.589	751.88
1164.57	746.88
1169.545	757.88
1174.515	747.88
1179.48	750.88
1184.44	747.88
1189.395	735.88
1194.345	731.88
1199.29	737.88
1204.23	733.88
1209.165	739.88
1214.095	739.88
1219.021	746.88
1223.941	750.88
1228.856	761.88
1233.766	757.88
1238.672	762.88
1243.572	762.88
1248.467	765.88
1253.358	745.88
1258.244	724.88
1263.124	725.88
1268	712.88
1272.871	704.88
1277.737	706.88
1282.599	697.88
1287.455	701.88
1292.306	707.88
1297.153	698.88
1301.995	701.88
1306.832	717.88
1311.664	713.88
1316.491	721.88
1321.314	712.88
1326.132	708.88
1330.945	697.88
1335.753	700.88
1340.556	681.88
1345.354	670.88
1350.148	684.88
1354.937	680.88
1359.722	664.88
1364.501	653.88
1369.276	666.88
1374.046	660.88
1378.811	654.88
1383.572	657.88
1388.327	654.88
1393.079	645.88
1397.825	633.88
1402.567	621.88
1407.304	629.88
1412.036	626.88
1416.764	636.88
1421.487	624.88
1426.205	625.88
1430.919	635.88
1435.628	631.88
1440.333	642.88
1445.032	649.88
1449.727	658.88
1454.418	653.88
1459.104	659.88
1463.785	659.88
1468.462	647.88
1473.134	648.88
1477.802	639.88
1482.465	643.88
1487.123	633.88
1491.777	627.88
1496.426	640.88
1501.071	638.88
1505.711	641.88
1510.347	649.88
1514.978	663.88
1519.604	666.88
1524.226	684.88
1528.844	682.88
1533.457	678.88
1538.065	664.88
1542.669	672.88
1547.269	665.88
1551.864	653.88
1556.454	678.88
1561.041	686.88
1565.622	674.88
1570.199	702.88
1574.772	712.88
1579.34	719.88
1583.904	728.88
1588.464	746.88
1593.019	750.88
1597.569	757.88
1602.115	791.88
1606.657	769.88
1611.195	796.88
1615.728	791.88
1620.256	789.88
1624.78	818.88
1629.3	842.88
1633.816	846.88
1638.327	861.88
1642.834	872.88
1647.336	869.88
1651.834	879.88
1656.328	873.88
1660.817	853.88
1665.302	860.88
1669.783	841.88
1674.259	817.88
1678.732	793.88
1683.199	760.88
1687.663	723.88
1692.122	714.88
1696.577	679.88
1701.028	664.88
1705.474	633.88
1709.917	598.88
1714.355	605.88
1718.788	577.88
1723.218	564.88
1727.643	553.88
1732.064	546.88
1736.481	526.88
1740.893	514.88
1745.301	484.88
1749.705	481.88
1754.105	463.88
1758.501	461.88
1762.893	469.88
1767.28	436.88
1771.663	439.88
1776.042	440.88
1780.417	443.88
1784.787	436.88
1789.154	440.88
1793.516	443.88
1797.874	432.88
1802.228	438.88
1806.578	422.88
1810.924	418.88
1815.266	405.88
1819.603	399.88
1823.937	395.88
1828.266	396.88
1832.591	389.88
1836.913	393.88
1841.23	385.88
1845.543	394.88
1849.852	381.88
1854.156	385.88
1858.457	382.88
1862.754	391.88
1867.047	392.88
1871.335	402.88
1875.62	396.88
1879.9	401.88
1884.177	393.88
1888.449	398.88
1892.718	385.88
1896.982	398.88
1901.243	398.88
1905.499	389.88
1909.752	391.88
1914	396.88
1918.245	387.88
1922.485	394.88
1926.722	399.88
1930.954	394.88
1935.183	402.88
1939.408	400.88
1943.628	404.88
1947.845	400.88
1952.058	398.88
1956.267	390.88
1960.472	388.88
1964.673	390.88
1968.87	384.88
1973.063	366.88
1977.252	377.88
1981.438	368.88
1985.619	374.88
1989.797	371.88
1993.971	368.88
1998.14	371.88
2002.306	369.88
2006.469	378.88
2010.627	379.88
2014.781	375.88
2018.932	378.88
2023.078	379.88
2027.221	383.88
2031.36	370.88
2035.495	366.88
2039.627	367.88
2043.754	369.88
2047.878	380.88
2051.998	373.88
2056.114	365.88
2060.226	368.88
2064.334	367.88
2068.439	366.88
2072.54	373.88
2076.637	384.88
2080.73	384.88
2084.82	386.88
2088.906	390.88
2092.988	385.88
2097.066	386.88
2101.14	379.88
2105.211	383.88
2109.278	384.88
2113.342	373.88
2117.401	367.88
2121.457	363.88
2125.509	370.88
2129.558	368.88
2133.602	351.88
2137.643	363.88
2141.681	351.88
2145.714	361.88
2149.744	360.88
2153.77	352.88
2157.793	348.88
2161.812	347.88
2165.827	345.88
2169.838	338.88
2173.846	336.88
2177.851	327.88
2181.851	321.88
2185.848	309.88
2189.841	308.88
2193.831	310.88
2197.817	311.88
2201.799	310.88
2205.778	304.88
2209.753	309.88
2213.725	307.88
2217.693	309.88
2221.657	297.88
2225.618	306.88
2229.575	292.88
2233.529	299.88
2237.479	296.88
2241.425	298.88
2245.368	288.88
2249.307	285.88
2253.243	285.88
2257.175	273.88
2261.104	276.88
2265.029	264.88
2268.95	262.88
2272.868	262.88
2276.783	260.88
2280.694	251.88
2284.601	236.88
2288.505	238.88
2292.405	237.88
2296.302	240.88
2300.195	238.88
2304.085	233.88
2307.971	229.88
2311.854	221.88
2315.734	224.88
2319.609	213.88
2323.482	210.88
2327.351	210.88
2331.216	210.88
2335.078	212.88
2338.937	205.88
2342.792	203.88
2346.643	199.88
2350.492	204.88
2354.336	199.88
2358.178	196.88
2362.015	199.88
2365.85	197.88
2369.681	203.88
2373.508	203.88
2377.333	199.88
2381.153	202.88
2384.971	199.88
2388.785	190.88
2392.595	187.88
2396.402	195.88
2400.206	193.88
2404.007	187.88
2407.804	188.88
2411.597	182.88
2415.388	190.88
2419.174	189.88
2422.958	189.88
2426.738	190.88
2430.515	186.88
2434.289	183.88
2438.059	183.88
2441.825	178.88
2445.589	166.88
2449.349	172.88
2453.106	164.88
2456.859	174.88
2460.61	178.88
2464.356	166.88
2468.1	173.88
2471.84	176.88
2475.577	170.88
2479.311	170.88
2483.041	169.88
2486.768	165.88
2490.492	167.88
2494.213	165.88
2497.93	161.88
2501.644	164.88
2505.355	159.88
2509.062	167.88
2512.766	171.88
2516.467	170.88
2520.165	161.88
2523.859	166.88
2527.551	167.88
2531.239	161.88
2534.923	149.88
2538.605	161.88
2542.283	151.88
2545.958	159.88
2549.63	146.88
2553.299	156.88
2556.964	150.88
2560.626	152.88
2564.285	147.88
2567.941	152.88
2571.594	148.88
2575.243	146.88
2578.89	151.88
2582.533	147.88
2586.173	147.88
2589.809	137.88
2593.443	144.88
2597.073	137.88
2600.701	142.88
2604.325	137.88
2607.946	136.88
2611.564	136.88
2615.178	130.88
2618.79	132.88
2622.398	130.88
2626.004	126.88
2629.606	129.88
2633.205	128.88
2636.801	137.88
2640.394	125.88
2643.983	126.88
2647.57	119.88
2651.153	119.88
2654.734	124.88
2658.311	120.88
2661.885	114.88
2665.456	118.88
2669.025	117.88
2672.589	114.88
2676.151	114.88
2679.71	108.88
2683.266	108.88
2686.819	115.88
2690.368	111.88
2693.915	114.88
2697.458	108.88
2700.999	100.88
2704.536	101.88
2708.071	98.88
2711.602	103.88
2715.13	100.88
2718.656	105.88
2722.178	110.88
2725.697	106.88
2729.214	106.88
2732.727	106.88
2736.237	103.88
2739.744	105.88
2743.249	105.88
2746.75	113.88
2750.248	103.88
2753.743	103.88
2757.236	100.88
2760.725	104.88
2764.211	105.88
2767.695	106.88
2771.175	95.88
2774.652	105.88
2778.127	101.88
2781.598	107.88
2785.067	100.88
2788.532	105.88
2791.995	105.88
2795.455	103.88
2798.911	105.88
2802.365	107.88
2805.816	103.88
2809.264	105.88
2812.709	102.88
2816.151	108.88
2819.59	107.88
2823.026	104.88
2826.46	104.88
2829.89	113.88
2833.318	111.88
2836.742	116.88
2840.164	113.88
2843.583	108.88
2846.999	114.88
2850.412	119.88
2853.822	118.88
2857.229	121.88
2860.634	113.88
2864.035	124.88
2867.434	134.88
2870.83	133.88
2874.223	137.88
2877.613	138.88
2881	133.88
2884.385	142.88
2887.766	140.88
2891.145	141.88
2894.521	137.88
2897.894	136.88
2901.264	130.88
2904.631	143.88
2907.996	147.88
2911.358	148.88
2914.717	148.88
2918.073	150.88
2921.426	149.88
2924.777	156.88
2928.124	166.88
2931.469	163.88
2934.811	176.88
2938.15	176.88
2941.487	163.88
2944.821	177.88
2948.152	181.88
2951.48	183.88
2954.805	181.88
2958.128	198.88
2961.447	196.88
2964.765	202.88
2968.079	199.88
2971.39	207.88
2974.699	213.88
2978.005	220.88
2981.308	217.88
2984.609	223.88
2987.907	237.88
2991.202	241.88
2994.494	260.88
2997.784	259.88
3001.07	278.88
3004.355	268.88
3007.636	292.88
3010.915	290.88
3014.191	304.88
3017.464	306.88
3020.734	305.88
3024.002	315.88
3027.267	322.88
3030.53	321.88
3033.789	332.88
3037.046	337.88
3040.301	350.88
3043.552	365.88
3046.801	365.88
3050.048	380.88
3053.291	392.88
3056.532	405.88
3059.771	417.88
3063.006	427.88
3066.239	439.88
3069.469	446.88
3072.697	473.88
3075.922	485.88
3079.144	492.88
3082.364	508.88
3085.581	516.88
3088.795	530.88
3092.007	540.88
3095.216	555.88
3098.423	574.88
3101.627	580.88
3104.828	593.88
3108.026	603.88
3111.222	628.88
3114.416	638.88
3117.607	654.88
3120.795	663.88
3123.98	678.88
3127.163	712.88
3130.344	721.88
3133.521	734.88
3136.696	750.88
3139.869	759.88
3143.039	791.88
3146.206	797.88
3149.371	799.88
3152.533	811.88
3155.693	807.88
3158.85	820.88
3162.005	817.88
3165.157	834.88
3168.306	826.88
3171.453	839.88
3174.597	850.88
3177.739	833.88
3180.878	844.88
3184.014	841.88
3187.149	838.88
3190.28	856.88
3193.409	847.88
3196.536	846.88
3199.659	852.88
3202.781	855.88
3205.9	851.88
3209.016	860.88
3212.13	855.88
3215.241	857.88
3218.35	849.88
3221.456	841.88
3224.56	835.88
3227.661	815.88
3230.76	807.88
3233.856	799.88
3236.95	801.88
3240.041	804.88
3243.13	784.88
3246.216	782.88
3249.3	772.88
3252.382	760.88
3255.46	778.88
3258.537	768.88
3261.611	771.88
3264.682	757.88
3267.751	767.88
3270.818	759.88
3273.882	748.88
3276.943	730.88
3280.002	736.88
3283.059	727.88
3286.113	729.88
3289.165	715.88
3292.214	698.88
3295.261	688.88
3298.306	674.88
3301.348	671.88
3304.387	655.88
3307.425	638.88
3310.459	635.88
3313.492	628.88
3316.521	624.88
3319.549	632.88
3322.574	607.88
3325.597	601.88
3328.617	608.88
3331.635	603.88
3334.65	597.88
3337.663	596.88
3340.674	590.88
3343.682	583.88
3346.688	575.88
3349.691	580.88
3352.692	565.88
3355.691	569.88
3358.687	572.88
3361.681	573.88
3364.673	558.88
3367.662	547.88
3370.649	546.88
3373.633	526.88
3376.615	530.88
3379.595	527.88
3382.572	517.88
3385.547	505.88
3388.52	508.88
3391.49	496.88
3394.458	481.88
3397.424	475.88
3400.387	465.88
3403.348	468.88
3406.307	469.88
3409.263	472.88
3412.217	454.88
3415.168	452.88
3418.118	447.88
3421.065	445.88
3424.009	429.88
3426.951	426.88
3429.891	419.88
3432.829	416.88
3435.764	402.88
3438.697	391.88
3441.628	383.88
3444.557	367.88
3447.483	361.88
3450.407	368.88
3453.328	340.88
3456.247	331.88
3459.164	323.88
3462.079	322.88
3464.991	302.88
3467.902	292.88
3470.809	281.88
3473.715	279.88
3476.618	272.88
3479.519	259.88
3482.418	253.88
3485.315	251.88
3488.209	238.88
3491.101	235.88
3493.99	228.88
3496.878	213.88
3499.763	204.88
3502.646	209.88
3505.527	198.88
3508.405	195.88
3511.281	181.88
3514.155	173.88
3517.027	165.88
3519.897	161.88
3522.764	154.88
3525.629	148.88
3528.492	130.88
3531.352	124.88
3534.211	116.88
3537.067	106.88
3539.921	99.88
3542.773	98.88
3545.622	94.88
3548.469	90.88
3551.315	86.88
3554.157	80.88
3556.998	79.88
3559.837	65.88
3562.673	58.88
3565.507	56.88
3568.339	55.88
3571.169	49.88
3573.996	47.88
3576.822	44.88
3579.645	40.88
3582.466	31.88
3585.285	30.88
3588.101	25.88
3590.916	23.88
3593.728	24.88
3596.538	14.88
3599.346	14.88
3602.152	9.88
3604.956	3.88
3607.757	-0.12
3610.556	-4.12
3613.354	-9.12
3616.149	-8.12
3618.942	-11.12
3621.732	-11.12
3624.521	-12.12
3627.307	-10.12
3630.092	-19.12
3632.874	-16.12
3635.654	-20.12
3638.432	-18.12
3641.208	-19.12
3643.982	-27.12
3646.753	-26.12
3649.523	-30.12
3652.29	-33.12
3655.055	-36.12
3657.818	-41.12
3660.579	-40.12
3663.338	-41.12
3666.095	-40.12
3668.849	-41.12
3671.602	-44.12
3674.352	-43.12
3677.101	-46.12
3679.847	-48.12
3682.591	-51.12
3685.333	-53.12
3688.073	-51.12
3690.811	-56.12
3693.547	-57.12
3696.281	-60.12
3699.013	-57.12
3701.742	-60.12
3704.47	-59.12
3707.195	-60.12
3709.919	-58.12
3712.64	-58.12
3715.359	-60.12
3718.076	-60.12
3720.792	-63.12
3723.505	-59.12
3726.216	-63.12
3728.925	-65.12
3731.632	-64.12
3734.336	-65.12
3737.039	-69.12
3739.74	-67.12
3742.439	-70.12
3745.136	-71.12
3747.83	-68.12
3750.523	-66.12
3753.213	-63.12
3755.902	-69.12
3758.589	-68.12
3761.273	-69.12
3763.956	-67.12
3766.636	-73.12
3769.315	-75.12
3771.991	-73.12
3774.665	-73.12
3777.338	-73.12
3780.008	-72.12
3782.677	-73.12
3785.343	-74.12
3788.007	-69.12
3790.67	-72.12
3793.33	-73.12
3795.989	-73.12
3798.645	-71.12
3801.299	-74.12
3803.952	-74.12
3806.602	-80.12
3809.251	-79.12
3811.897	-77.12
3814.542	-79.12
3817.184	-73.12
3819.825	-76.12
3822.463	-73.12
3825.1	-75.12
3827.735	-79.12
3830.367	-77.12
3832.998	-81.12
3835.627	-75.12
3838.253	-75.12
3840.878	-77.12
3843.501	-79.12
3846.122	-81.12
3848.741	-81.12
3851.358	-76.12
3853.973	-77.12
3856.586	-80.12
3859.197	-72.12
3861.806	-77.12
3864.414	-76.12
3867.019	-77.12
3869.622	-78.12
3872.224	-78.12
3874.823	-75.12
3877.421	-74.12
3880.016	-73.12
3882.61	-71.12
3885.202	-73.12
3887.792	-74.12
3890.38	-75.12
3892.966	-75.12
3895.55	-75.12
3898.132	-74.12
3900.713	-77.12
3903.291	-77.12
3905.868	-76.12
3908.442	-81.12
3911.015	-80.12
3913.586	-82.12
3916.155	-82.12
3918.722	-85.12
3921.287	-79.12
3923.85	-79.12
3926.411	-81.12
3928.971	-80.12
3931.528	-85.12
3934.084	-80.12
3936.638	-80.12
3939.19	-82.12
3941.74	-79.12
3944.288	-80.12
3946.834	-79.12
3949.378	-80.12
3951.921	-81.12
3954.462	-85.12
3957	-80.12
3959.537	-82.12
3962.072	-83.12
3964.606	-82.12
3967.137	-77.12
3969.667	-76.12
3972.194	-77.12
3974.72	-78.12
3977.244	-79.12
3979.766	-78.12
3982.286	-79.12
3984.805	-80.12
3987.321	-80.12
3989.836	-81.12
3992.349	-83.12
3994.86	-78.12
3997.369	-79.12
3999.877	-78.12
4002.382	-75.12
4004.886	-77.12
4007.388	-74.12
4009.888	-79.12
4012.386	-77.12
4014.883	-81.12
4017.377	-85.12
4019.87	-79.12
4022.361	-83.12
4024.85	-82.12
4027.338	-79.12
4029.823	-78.12
4032.307	-79.12
4034.789	-78.12
4037.269	-78.12
4039.747	-79.12
4042.224	-83.12
4044.699	-81.12
4047.172	-80.12
4049.643	-79.12
4052.112	-80.12
4054.58	-83.12
4057.046	-79.12
4059.51	-82.12
4061.972	-80.12
4064.432	-82.12
4066.891	-80.12
4069.348	-76.12
4071.803	-77.12
4074.256	-75.12
4076.708	-75.12
4079.158	-79.12
4081.606	-76.12
4084.052	-84.12
4086.497	-79.12
4088.939	-82.12
4091.38	-81.12
4093.819	-81.12
4096.257	-82.12
4098.693	-81.12
4101.127	-84.12
4103.559	-86.12
4105.989	-57.12
4108.418	-54.12
4110.845	-52.12
4113.27	-46.12
4115.694	-38.12
4118.115	-37.12
4120.535	-77.12
4122.954	-77.12
4125.37	-80.12
4127.785	-82.12
4130.198	-78.12
4132.609	-78.12
4135.019	-80.12
4137.427	-81.12
4139.833	-81.12
4142.237	-83.12
