Data from 100000000CFU3_B_RamanShift_2.txt Node
Date: Mon Jan 23 15:02:01 IST 2017
User: aro
Spectrometer: QEPB0276
Trigger mode: 0
Integration Time (sec): 5.000000E0
Scans to average: 1
Electric dark correction enabled: true
Nonlinearity correction enabled: false
Boxcar width: 0
XAxis mode: Raman Shifts
Number of Pixels in Spectrum: 1044
>>>>>Begin Spectral Data<<<<<
160.701	-19.25
166.742	0.75
172.777	68.75
178.805	272.75
184.826	746.75
190.841	1558.75
196.849	2445.75
202.85	3017.75
208.845	3147.75
214.833	3053.75
220.815	2925.75
226.789	2860.75
232.758	2738.75
238.719	2666.75
244.674	2594.75
250.623	2472.75
256.565	2369.75
262.5	2250.75
268.429	2158.75
274.351	2064.75
280.267	1982.75
286.176	1918.75
292.079	1843.75
297.975	1775.75
303.865	1730.75
309.748	1664.75
315.625	1632.75
321.495	1629.75
327.359	1574.75
333.217	1577.75
339.068	1543.75
344.912	1531.75
350.751	1542.75
356.583	1529.75
362.408	1540.75
368.227	1561.75
374.04	1537.75
379.847	1548.75
385.647	1569.75
391.44	1567.75
397.228	1577.75
403.009	1581.75
408.784	1600.75
414.553	1585.75
420.315	1604.75
426.071	1576.75
431.821	1597.75
437.565	1590.75
443.302	1591.75
449.033	1591.75
454.758	1590.75
460.477	1586.75
466.189	1580.75
471.896	1564.75
477.596	1547.75
483.29	1547.75
488.978	1550.75
494.66	1532.75
500.335	1497.75
506.005	1500.75
511.668	1466.75
517.325	1442.75
522.977	1395.75
528.622	1372.75
534.261	1370.75
539.894	1346.75
545.521	1335.75
551.141	1334.75
556.756	1320.75
562.365	1316.75
567.968	1303.75
573.565	1291.75
579.155	1302.75
584.74	1295.75
590.319	1278.75
595.892	1270.75
601.459	1266.75
607.02	1268.75
612.575	1238.75
618.124	1228.75
623.667	1202.75
629.204	1204.75
634.735	1208.75
640.261	1171.75
645.781	1180.75
651.294	1180.75
656.802	1162.75
662.304	1159.75
667.8	1162.75
673.29	1150.75
678.775	1168.75
684.254	1152.75
689.726	1138.75
695.193	1134.75
700.655	1115.75
706.11	1120.75
711.56	1106.75
717.004	1107.75
722.442	1106.75
727.874	1088.75
733.301	1108.75
738.722	1083.75
744.137	1059.75
749.547	1078.75
754.951	1064.75
760.349	1062.75
765.741	1062.75
771.128	1061.75
776.509	1067.75
781.885	1072.75
787.254	1049.75
792.618	1063.75
797.977	1057.75
803.33	1050.75
808.677	1030.75
814.019	1017.75
819.355	1019.75
824.686	1004.75
830.011	997.75
835.33	984.75
840.644	973.75
845.952	983.75
851.255	976.75
856.552	976.75
861.844	961.75
867.13	951.75
872.41	961.75
877.686	955.75
882.955	943.75
888.219	931.75
893.478	904.75
898.731	885.75
903.979	877.75
909.221	863.75
914.458	850.75
919.69	855.75
924.916	844.75
930.136	842.75
935.351	850.75
940.561	848.75
945.766	834.75
950.965	850.75
956.158	828.75
961.347	805.75
966.529	791.75
971.707	786.75
976.879	789.75
982.046	770.75
987.208	777.75
992.364	780.75
997.515	776.75
1002.66	781.75
1007.801	788.75
1012.936	792.75
1018.066	789.75
1023.19	805.75
1028.309	803.75
1033.423	803.75
1038.532	798.75
1043.636	781.75
1048.734	793.75
1053.827	770.75
1058.915	772.75
1063.998	764.75
1069.075	755.75
1074.147	761.75
1079.214	764.75
1084.276	775.75
1089.333	771.75
1094.385	785.75
1099.431	784.75
1104.472	797.75
1109.509	787.75
1114.54	779.75
1119.565	759.75
1124.586	740.75
1129.602	727.75
1134.613	734.75
1139.618	748.75
1144.619	736.75
1149.614	750.75
1154.604	748.75
1159.589	745.75
1164.57	747.75
1169.545	752.75
1174.515	753.75
1179.48	741.75
1184.44	750.75
1189.395	742.75
1194.345	728.75
1199.29	735.75
1204.23	732.75
1209.165	745.75
1214.095	737.75
1219.021	754.75
1223.941	754.75
1228.856	757.75
1233.766	767.75
1238.672	761.75
1243.572	751.75
1248.467	755.75
1253.358	744.75
1258.244	733.75
1263.124	732.75
1268	720.75
1272.871	699.75
1277.737	708.75
1282.599	695.75
1287.455	699.75
1292.306	707.75
1297.153	709.75
1301.995	722.75
1306.832	712.75
1311.664	733.75
1316.491	719.75
1321.314	721.75
1326.132	715.75
1330.945	704.75
1335.753	703.75
1340.556	688.75
1345.354	686.75
1350.148	683.75
1354.937	680.75
1359.722	666.75
1364.501	659.75
1369.276	673.75
1374.046	659.75
1378.811	659.75
1383.572	651.75
1388.327	661.75
1393.079	650.75
1397.825	639.75
1402.567	633.75
1407.304	640.75
1412.036	624.75
1416.764	625.75
1421.487	626.75
1426.205	618.75
1430.919	637.75
1435.628	642.75
1440.333	643.75
1445.032	650.75
1449.727	675.75
1454.418	678.75
1459.104	663.75
1463.785	658.75
1468.462	658.75
1473.134	651.75
1477.802	648.75
1482.465	636.75
1487.123	640.75
1491.777	642.75
1496.426	640.75
1501.071	652.75
1505.711	658.75
1510.347	672.75
1514.978	662.75
1519.604	669.75
1524.226	675.75
1528.844	682.75
1533.457	675.75
1538.065	671.75
1542.669	666.75
1547.269	675.75
1551.864	664.75
1556.454	675.75
1561.041	691.75
1565.622	693.75
1570.199	689.75
1574.772	709.75
1579.34	723.75
1583.904	738.75
1588.464	741.75
1593.019	764.75
1597.569	776.75
1602.115	778.75
1606.657	777.75
1611.195	794.75
1615.728	803.75
1620.256	812.75
1624.78	830.75
1629.3	828.75
1633.816	845.75
1638.327	858.75
1642.834	877.75
1647.336	877.75
1651.834	883.75
1656.328	876.75
1660.817	868.75
1665.302	867.75
1669.783	838.75
1674.259	815.75
1678.732	803.75
1683.199	777.75
1687.663	746.75
1692.122	718.75
1696.577	688.75
1701.028	663.75
1705.474	632.75
1709.917	614.75
1714.355	599.75
1718.788	590.75
1723.218	580.75
1727.643	558.75
1732.064	539.75
1736.481	534.75
1740.893	525.75
1745.301	508.75
1749.705	486.75
1754.105	477.75
1758.501	466.75
1762.893	453.75
1767.28	454.75
1771.663	443.75
1776.042	442.75
1780.417	440.75
1784.787	441.75
1789.154	442.75
1793.516	443.75
1797.874	439.75
1802.228	434.75
1806.578	435.75
1810.924	423.75
1815.266	416.75
1819.603	406.75
1823.937	407.75
1828.266	397.75
1832.591	396.75
1836.913	391.75
1841.23	386.75
1845.543	393.75
1849.852	391.75
1854.156	392.75
1858.457	393.75
1862.754	402.75
1867.047	404.75
1871.335	395.75
1875.62	405.75
1879.9	400.75
1884.177	406.75
1888.449	394.75
1892.718	395.75
1896.982	398.75
1901.243	402.75
1905.499	399.75
1909.752	401.75
1914	407.75
1918.245	397.75
1922.485	394.75
1926.722	407.75
1930.954	408.75
1935.183	415.75
1939.408	409.75
1943.628	410.75
1947.845	404.75
1952.058	404.75
1956.267	392.75
1960.472	391.75
1964.673	385.75
1968.87	390.75
1973.063	376.75
1977.252	381.75
1981.438	382.75
1985.619	390.75
1989.797	377.75
1993.971	376.75
1998.14	374.75
2002.306	378.75
2006.469	385.75
2010.627	386.75
2014.781	388.75
2018.932	383.75
2023.078	386.75
2027.221	384.75
2031.36	371.75
2035.495	378.75
2039.627	372.75
2043.754	371.75
2047.878	374.75
2051.998	373.75
2056.114	368.75
2060.226	382.75
2064.334	374.75
2068.439	387.75
2072.54	389.75
2076.637	397.75
2080.73	393.75
2084.82	388.75
2088.906	397.75
2092.988	387.75
2097.066	390.75
2101.14	387.75
2105.211	387.75
2109.278	384.75
2113.342	379.75
2117.401	379.75
2121.457	372.75
2125.509	381.75
2129.558	368.75
2133.602	370.75
2137.643	365.75
2141.681	372.75
2145.714	375.75
2149.744	365.75
2153.77	356.75
2157.793	351.75
2161.812	352.75
2165.827	346.75
2169.838	341.75
2173.846	341.75
2177.851	332.75
2181.851	325.75
2185.848	326.75
2189.841	324.75
2193.831	324.75
2197.817	311.75
2201.799	310.75
2205.778	308.75
2209.753	318.75
2213.725	311.75
2217.693	310.75
2221.657	308.75
2225.618	318.75
2229.575	303.75
2233.529	307.75
2237.479	307.75
2241.425	300.75
2245.368	299.75
2249.307	292.75
2253.243	286.75
2257.175	272.75
2261.104	278.75
2265.029	269.75
2268.95	270.75
2272.868	268.75
2276.783	266.75
2280.694	251.75
2284.601	257.75
2288.505	252.75
2292.405	247.75
2296.302	238.75
2300.195	241.75
2304.085	240.75
2307.971	235.75
2311.854	231.75
2315.734	224.75
2319.609	218.75
2323.482	214.75
2327.351	212.75
2331.216	217.75
2335.078	209.75
2338.937	213.75
2342.792	215.75
2346.643	198.75
2350.492	203.75
2354.336	204.75
2358.178	195.75
2362.015	203.75
2365.85	204.75
2369.681	206.75
2373.508	208.75
2377.333	209.75
2381.153	209.75
2384.971	207.75
2388.785	203.75
2392.595	208.75
2396.402	207.75
2400.206	197.75
2404.007	198.75
2407.804	194.75
2411.597	199.75
2415.388	192.75
2419.174	190.75
2422.958	192.75
2426.738	195.75
2430.515	189.75
2434.289	190.75
2438.059	197.75
2441.825	187.75
2445.589	179.75
2449.349	183.75
2453.106	184.75
2456.859	180.75
2460.61	177.75
2464.356	175.75
2468.1	180.75
2471.84	174.75
2475.577	188.75
2479.311	172.75
2483.041	174.75
2486.768	180.75
2490.492	172.75
2494.213	173.75
2497.93	176.75
2501.644	176.75
2505.355	173.75
2509.062	167.75
2512.766	176.75
2516.467	175.75
2520.165	177.75
2523.859	165.75
2527.551	170.75
2531.239	168.75
2534.923	161.75
2538.605	165.75
2542.283	165.75
2545.958	154.75
2549.63	158.75
2553.299	155.75
2556.964	159.75
2560.626	150.75
2564.285	156.75
2567.941	158.75
2571.594	158.75
2575.243	159.75
2578.89	154.75
2582.533	153.75
2586.173	146.75
2589.809	146.75
2593.443	151.75
2597.073	143.75
2600.701	142.75
2604.325	142.75
2607.946	144.75
2611.564	143.75
2615.178	139.75
2618.79	142.75
2622.398	138.75
2626.004	137.75
2629.606	139.75
2633.205	139.75
2636.801	142.75
2640.394	132.75
2643.983	127.75
2647.57	131.75
2651.153	123.75
2654.734	126.75
2658.311	122.75
2661.885	121.75
2665.456	120.75
2669.025	129.75
2672.589	128.75
2676.151	118.75
2679.71	122.75
2683.266	119.75
2686.819	115.75
2690.368	117.75
2693.915	117.75
2697.458	111.75
2700.999	112.75
2704.536	107.75
2708.071	108.75
2711.602	103.75
2715.13	111.75
2718.656	111.75
2722.178	118.75
2725.697	117.75
2729.214	112.75
2732.727	113.75
2736.237	114.75
2739.744	111.75
2743.249	116.75
2746.75	118.75
2750.248	114.75
2753.743	119.75
2757.236	110.75
2760.725	105.75
2764.211	108.75
2767.695	109.75
2771.175	108.75
2774.652	111.75
2778.127	110.75
2781.598	110.75
2785.067	100.75
2788.532	101.75
2791.995	107.75
2795.455	106.75
2798.911	109.75
2802.365	114.75
2805.816	111.75
2809.264	112.75
2812.709	114.75
2816.151	112.75
2819.59	109.75
2823.026	106.75
2826.46	111.75
2829.89	122.75
2833.318	116.75
2836.742	121.75
2840.164	122.75
2843.583	120.75
2846.999	119.75
2850.412	123.75
2853.822	127.75
2857.229	120.75
2860.634	122.75
2864.035	127.75
2867.434	137.75
2870.83	144.75
2874.223	149.75
2877.613	145.75
2881	139.75
2884.385	141.75
2887.766	148.75
2891.145	144.75
2894.521	145.75
2897.894	141.75
2901.264	146.75
2904.631	154.75
2907.996	152.75
2911.358	159.75
2914.717	153.75
2918.073	157.75
2921.426	162.75
2924.777	164.75
2928.124	172.75
2931.469	176.75
2934.811	174.75
2938.15	174.75
2941.487	183.75
2944.821	186.75
2948.152	177.75
2951.48	188.75
2954.805	193.75
2958.128	199.75
2961.447	197.75
2964.765	208.75
2968.079	210.75
2971.39	208.75
2974.699	211.75
2978.005	223.75
2981.308	224.75
2984.609	235.75
2987.907	241.75
2991.202	254.75
2994.494	257.75
2997.784	260.75
3001.07	272.75
3004.355	280.75
3007.636	285.75
3010.915	290.75
3014.191	297.75
3017.464	309.75
3020.734	310.75
3024.002	317.75
3027.267	327.75
3030.53	327.75
3033.789	344.75
3037.046	347.75
3040.301	353.75
3043.552	360.75
3046.801	367.75
3050.048	382.75
3053.291	387.75
3056.532	397.75
3059.771	419.75
3063.006	433.75
3066.239	438.75
3069.469	462.75
3072.697	479.75
3075.922	484.75
3079.144	496.75
3082.364	510.75
3085.581	516.75
3088.795	533.75
3092.007	551.75
3095.216	562.75
3098.423	586.75
3101.627	590.75
3104.828	604.75
3108.026	614.75
3111.222	634.75
3114.416	622.75
3117.607	657.75
3120.795	665.75
3123.98	682.75
3127.163	708.75
3130.344	730.75
3133.521	742.75
3136.696	743.75
3139.869	769.75
3143.039	774.75
3146.206	795.75
3149.371	799.75
3152.533	804.75
3155.693	812.75
3158.85	826.75
3162.005	817.75
3165.157	836.75
3168.306	836.75
3171.453	832.75
3174.597	832.75
3177.739	840.75
3180.878	836.75
3184.014	847.75
3187.149	840.75
3190.28	851.75
3193.409	856.75
3196.536	859.75
3199.659	856.75
3202.781	859.75
3205.9	857.75
3209.016	859.75
3212.13	864.75
3215.241	848.75
3218.35	828.75
3221.456	833.75
3224.56	824.75
3227.661	812.75
3230.76	812.75
3233.856	808.75
3236.95	795.75
3240.041	793.75
3243.13	784.75
3246.216	783.75
3249.3	772.75
3252.382	773.75
3255.46	771.75
3258.537	768.75
3261.611	762.75
3264.682	765.75
3267.751	761.75
3270.818	759.75
3273.882	759.75
3276.943	737.75
3280.002	739.75
3283.059	722.75
3286.113	720.75
3289.165	713.75
3292.214	705.75
3295.261	684.75
3298.306	673.75
3301.348	673.75
3304.387	667.75
3307.425	652.75
3310.459	650.75
3313.492	642.75
3316.521	637.75
3319.549	622.75
3322.574	610.75
3325.597	610.75
3328.617	606.75
3331.635	601.75
3334.65	591.75
3337.663	588.75
3340.674	597.75
3343.682	592.75
3346.688	589.75
3349.691	586.75
3352.692	576.75
3355.691	586.75
3358.687	579.75
3361.681	576.75
3364.673	562.75
3367.662	544.75
3370.649	548.75
3373.633	532.75
3376.615	529.75
3379.595	515.75
3382.572	517.75
3385.547	512.75
3388.52	511.75
3391.49	490.75
3394.458	491.75
3397.424	486.75
3400.387	469.75
3403.348	473.75
3406.307	462.75
3409.263	457.75
3412.217	461.75
3415.168	457.75
3418.118	452.75
3421.065	441.75
3424.009	436.75
3426.951	428.75
3429.891	416.75
3432.829	421.75
3435.764	413.75
3438.697	403.75
3441.628	393.75
3444.557	365.75
3447.483	358.75
3450.407	355.75
3453.328	352.75
3456.247	336.75
3459.164	331.75
3462.079	323.75
3464.991	313.75
3467.902	305.75
3470.809	290.75
3473.715	273.75
3476.618	267.75
3479.519	268.75
3482.418	254.75
3485.315	252.75
3488.209	243.75
3491.101	239.75
3493.99	225.75
3496.878	211.75
3499.763	211.75
3502.646	203.75
3505.527	202.75
3508.405	196.75
3511.281	188.75
3514.155	177.75
3517.027	166.75
3519.897	158.75
3522.764	152.75
3525.629	145.75
3528.492	137.75
3531.352	131.75
3534.211	121.75
3537.067	118.75
3539.921	105.75
3542.773	105.75
3545.622	96.75
3548.469	92.75
3551.315	86.75
3554.157	85.75
3556.998	69.75
3559.837	67.75
3562.673	60.75
3565.507	56.75
3568.339	55.75
3571.169	52.75
3573.996	48.75
3576.822	45.75
3579.645	44.75
3582.466	34.75
3585.285	33.75
3588.101	20.75
3590.916	21.75
3593.728	24.75
3596.538	15.75
3599.346	14.75
3602.152	10.75
3604.956	4.75
3607.757	1.75
3610.556	-3.25
3613.354	-3.25
3616.149	1.75
3618.942	-8.25
3621.732	-6.25
3624.521	-9.25
3627.307	-9.25
3630.092	-18.25
3632.874	-21.25
3635.654	-19.25
3638.432	-20.25
3641.208	-19.25
3643.982	-20.25
3646.753	-21.25
3649.523	-25.25
3652.29	-29.25
3655.055	-33.25
3657.818	-39.25
3660.579	-40.25
3663.338	-41.25
3666.095	-39.25
3668.849	-39.25
3671.602	-44.25
3674.352	-42.25
3677.101	-43.25
3679.847	-48.25
3682.591	-47.25
3685.333	-45.25
3688.073	-48.25
3690.811	-50.25
3693.547	-52.25
3696.281	-56.25
3699.013	-58.25
3701.742	-57.25
3704.47	-56.25
3707.195	-61.25
3709.919	-55.25
3712.64	-54.25
3715.359	-60.25
3718.076	-60.25
3720.792	-62.25
3723.505	-62.25
3726.216	-61.25
3728.925	-62.25
3731.632	-65.25
3734.336	-61.25
3737.039	-65.25
3739.74	-64.25
3742.439	-66.25
3745.136	-69.25
3747.83	-63.25
3750.523	-64.25
3753.213	-63.25
3755.902	-62.25
3758.589	-67.25
3761.273	-64.25
3763.956	-68.25
3766.636	-70.25
3769.315	-69.25
3771.991	-70.25
3774.665	-69.25
3777.338	-66.25
3780.008	-70.25
3782.677	-70.25
3785.343	-69.25
3788.007	-69.25
3790.67	-70.25
3793.33	-69.25
3795.989	-68.25
3798.645	-66.25
3801.299	-72.25
3803.952	-72.25
3806.602	-78.25
3809.251	-73.25
3811.897	-71.25
3814.542	-73.25
3817.184	-69.25
3819.825	-75.25
3822.463	-69.25
3825.1	-73.25
3827.735	-76.25
3830.367	-70.25
3832.998	-77.25
3835.627	-75.25
3838.253	-72.25
3840.878	-75.25
3843.501	-74.25
3846.122	-79.25
3848.741	-81.25
3851.358	-73.25
3853.973	-75.25
3856.586	-72.25
3859.197	-74.25
3861.806	-75.25
3864.414	-75.25
3867.019	-78.25
3869.622	-75.25
3872.224	-75.25
3874.823	-73.25
3877.421	-72.25
3880.016	-69.25
3882.61	-65.25
3885.202	-69.25
3887.792	-69.25
3890.38	-73.25
3892.966	-72.25
3895.55	-71.25
3898.132	-73.25
3900.713	-75.25
3903.291	-73.25
3905.868	-74.25
3908.442	-78.25
3911.015	-78.25
3913.586	-75.25
3916.155	-78.25
3918.722	-80.25
3921.287	-73.25
3923.85	-72.25
3926.411	-78.25
3928.971	-75.25
3931.528	-79.25
3934.084	-78.25
3936.638	-77.25
3939.19	-81.25
3941.74	-78.25
3944.288	-78.25
3946.834	-76.25
3949.378	-77.25
3951.921	-77.25
3954.462	-79.25
3957	-76.25
3959.537	-77.25
3962.072	-76.25
3964.606	-75.25
3967.137	-75.25
3969.667	-74.25
3972.194	-78.25
3974.72	-75.25
3977.244	-77.25
3979.766	-76.25
3982.286	-79.25
3984.805	-76.25
3987.321	-76.25
3989.836	-76.25
3992.349	-79.25
3994.86	-78.25
3997.369	-78.25
3999.877	-78.25
4002.382	-73.25
4004.886	-74.25
4007.388	-71.25
4009.888	-75.25
4012.386	-72.25
4014.883	-77.25
4017.377	-81.25
4019.87	-77.25
4022.361	-79.25
4024.85	-80.25
4027.338	-76.25
4029.823	-74.25
4032.307	-75.25
4034.789	-73.25
4037.269	-74.25
4039.747	-75.25
4042.224	-80.25
4044.699	-78.25
4047.172	-76.25
4049.643	-76.25
4052.112	-81.25
4054.58	-79.25
4057.046	-75.25
4059.51	-78.25
4061.972	-78.25
4064.432	-78.25
4066.891	-75.25
4069.348	-75.25
4071.803	-77.25
4074.256	-72.25
4076.708	-74.25
4079.158	-77.25
4081.606	-77.25
4084.052	-83.25
4086.497	-79.25
4088.939	-78.25
4091.38	-79.25
4093.819	-75.25
4096.257	-81.25
4098.693	-77.25
4101.127	-81.25
4103.559	-83.25
4105.989	-56.25
4108.418	-49.25
4110.845	-49.25
4113.27	-45.25
4115.694	-36.25
4118.115	-32.25
4120.535	-73.25
4122.954	-71.25
4125.37	-79.25
4127.785	-77.25
4130.198	-78.25
4132.609	-75.25
4135.019	-79.25
4137.427	-81.25
4139.833	-82.25
4142.237	-80.25
