Data from 100000000CFU3_B_RamanShift_1.txt Node
Date: Mon Jan 23 14:59:02 IST 2017
User: aro
Spectrometer: QEPB0276
Trigger mode: 0
Integration Time (sec): 5.000000E0
Scans to average: 1
Electric dark correction enabled: true
Nonlinearity correction enabled: false
Boxcar width: 0
XAxis mode: Raman Shifts
Number of Pixels in Spectrum: 1044
>>>>>Begin Spectral Data<<<<<
160.701	-23.25
166.742	1.75
172.777	66.75
178.805	269.75
184.826	770.75
190.841	1564.75
196.849	2420.75
202.85	2992.75
208.845	3161.75
214.833	3048.75
220.815	2938.75
226.789	2869.75
232.758	2762.75
238.719	2700.75
244.674	2600.75
250.623	2492.75
256.565	2366.75
262.5	2242.75
268.429	2163.75
274.351	2073.75
280.267	1984.75
286.176	1943.75
292.079	1850.75
297.975	1767.75
303.865	1732.75
309.748	1705.75
315.625	1661.75
321.495	1622.75
327.359	1594.75
333.217	1572.75
339.068	1586.75
344.912	1557.75
350.751	1550.75
356.583	1544.75
362.408	1565.75
368.227	1549.75
374.04	1550.75
379.847	1553.75
385.647	1564.75
391.44	1581.75
397.228	1590.75
403.009	1585.75
408.784	1599.75
414.553	1599.75
420.315	1616.75
426.071	1608.75
431.821	1613.75
437.565	1609.75
443.302	1602.75
449.033	1610.75
454.758	1607.75
460.477	1594.75
466.189	1584.75
471.896	1572.75
477.596	1579.75
483.29	1564.75
488.978	1562.75
494.66	1551.75
500.335	1545.75
506.005	1508.75
511.668	1470.75
517.325	1444.75
522.977	1408.75
528.622	1398.75
534.261	1386.75
539.894	1355.75
545.521	1376.75
551.141	1348.75
556.756	1337.75
562.365	1321.75
567.968	1327.75
573.565	1312.75
579.155	1303.75
584.74	1292.75
590.319	1297.75
595.892	1283.75
601.459	1275.75
607.02	1244.75
612.575	1251.75
618.124	1217.75
623.667	1231.75
629.204	1221.75
634.735	1192.75
640.261	1186.75
645.781	1191.75
651.294	1183.75
656.802	1176.75
662.304	1186.75
667.8	1169.75
673.29	1175.75
678.775	1168.75
684.254	1162.75
689.726	1162.75
695.193	1133.75
700.655	1145.75
706.11	1137.75
711.56	1125.75
717.004	1121.75
722.442	1119.75
727.874	1095.75
733.301	1100.75
738.722	1091.75
744.137	1084.75
749.547	1089.75
754.951	1090.75
760.349	1078.75
765.741	1089.75
771.128	1078.75
776.509	1071.75
781.885	1075.75
787.254	1083.75
792.618	1079.75
797.977	1051.75
803.33	1054.75
808.677	1049.75
814.019	1034.75
819.355	1023.75
824.686	1023.75
830.011	1010.75
835.33	991.75
840.644	1004.75
845.952	989.75
851.255	989.75
856.552	976.75
861.844	973.75
867.13	970.75
872.41	960.75
877.686	970.75
882.955	948.75
888.219	936.75
893.478	921.75
898.731	891.75
903.979	893.75
909.221	879.75
914.458	872.75
919.69	865.75
924.916	869.75
930.136	863.75
935.351	858.75
940.561	841.75
945.766	852.75
950.965	853.75
956.158	826.75
961.347	830.75
966.529	809.75
971.707	796.75
976.879	790.75
982.046	792.75
987.208	791.75
992.364	784.75
997.515	773.75
1002.66	784.75
1007.801	804.75
1012.936	804.75
1018.066	802.75
1023.19	819.75
1028.309	815.75
1033.423	813.75
1038.532	811.75
1043.636	801.75
1048.734	794.75
1053.827	778.75
1058.915	760.75
1063.998	778.75
1069.075	765.75
1074.147	767.75
1079.214	776.75
1084.276	784.75
1089.333	784.75
1094.385	792.75
1099.431	788.75
1104.472	795.75
1109.509	782.75
1114.54	786.75
1119.565	777.75
1124.586	764.75
1129.602	758.75
1134.613	750.75
1139.618	741.75
1144.619	747.75
1149.614	734.75
1154.604	754.75
1159.589	746.75
1164.57	753.75
1169.545	757.75
1174.515	774.75
1179.48	748.75
1184.44	760.75
1189.395	753.75
1194.345	741.75
1199.29	748.75
1204.23	752.75
1209.165	754.75
1214.095	753.75
1219.021	749.75
1223.941	762.75
1228.856	765.75
1233.766	760.75
1238.672	778.75
1243.572	782.75
1248.467	765.75
1253.358	769.75
1258.244	751.75
1263.124	747.75
1268	725.75
1272.871	720.75
1277.737	694.75
1282.599	711.75
1287.455	709.75
1292.306	717.75
1297.153	708.75
1301.995	724.75
1306.832	734.75
1311.664	730.75
1316.491	730.75
1321.314	724.75
1326.132	732.75
1330.945	709.75
1335.753	701.75
1340.556	692.75
1345.354	681.75
1350.148	687.75
1354.937	675.75
1359.722	682.75
1364.501	674.75
1369.276	669.75
1374.046	667.75
1378.811	676.75
1383.572	664.75
1388.327	655.75
1393.079	655.75
1397.825	648.75
1402.567	645.75
1407.304	639.75
1412.036	635.75
1416.764	639.75
1421.487	640.75
1426.205	626.75
1430.919	634.75
1435.628	645.75
1440.333	660.75
1445.032	668.75
1449.727	671.75
1454.418	671.75
1459.104	680.75
1463.785	669.75
1468.462	663.75
1473.134	659.75
1477.802	652.75
1482.465	639.75
1487.123	649.75
1491.777	650.75
1496.426	661.75
1501.071	647.75
1505.711	666.75
1510.347	678.75
1514.978	676.75
1519.604	688.75
1524.226	692.75
1528.844	687.75
1533.457	685.75
1538.065	686.75
1542.669	675.75
1547.269	678.75
1551.864	672.75
1556.454	686.75
1561.041	699.75
1565.622	694.75
1570.199	701.75
1574.772	721.75
1579.34	732.75
1583.904	751.75
1588.464	750.75
1593.019	764.75
1597.569	774.75
1602.115	785.75
1606.657	793.75
1611.195	796.75
1615.728	806.75
1620.256	818.75
1624.78	827.75
1629.3	849.75
1633.816	858.75
1638.327	864.75
1642.834	889.75
1647.336	893.75
1651.834	877.75
1656.328	887.75
1660.817	876.75
1665.302	853.75
1669.783	847.75
1674.259	819.75
1678.732	803.75
1683.199	778.75
1687.663	756.75
1692.122	723.75
1696.577	692.75
1701.028	656.75
1705.474	637.75
1709.917	608.75
1714.355	604.75
1718.788	588.75
1723.218	580.75
1727.643	567.75
1732.064	558.75
1736.481	542.75
1740.893	516.75
1745.301	498.75
1749.705	487.75
1754.105	472.75
1758.501	473.75
1762.893	474.75
1767.28	465.75
1771.663	448.75
1776.042	450.75
1780.417	453.75
1784.787	446.75
1789.154	444.75
1793.516	456.75
1797.874	443.75
1802.228	446.75
1806.578	434.75
1810.924	424.75
1815.266	421.75
1819.603	409.75
1823.937	405.75
1828.266	400.75
1832.591	401.75
1836.913	402.75
1841.23	396.75
1845.543	400.75
1849.852	399.75
1854.156	403.75
1858.457	392.75
1862.754	402.75
1867.047	405.75
1871.335	401.75
1875.62	401.75
1879.9	406.75
1884.177	402.75
1888.449	406.75
1892.718	396.75
1896.982	412.75
1901.243	401.75
1905.499	400.75
1909.752	409.75
1914	404.75
1918.245	407.75
1922.485	395.75
1926.722	399.75
1930.954	405.75
1935.183	412.75
1939.408	413.75
1943.628	402.75
1947.845	420.75
1952.058	405.75
1956.267	404.75
1960.472	401.75
1964.673	395.75
1968.87	392.75
1973.063	391.75
1977.252	383.75
1981.438	393.75
1985.619	374.75
1989.797	377.75
1993.971	376.75
1998.14	383.75
2002.306	383.75
2006.469	388.75
2010.627	403.75
2014.781	392.75
2018.932	388.75
2023.078	392.75
2027.221	394.75
2031.36	381.75
2035.495	381.75
2039.627	375.75
2043.754	377.75
2047.878	374.75
2051.998	381.75
2056.114	378.75
2060.226	377.75
2064.334	383.75
2068.439	388.75
2072.54	384.75
2076.637	389.75
2080.73	395.75
2084.82	392.75
2088.906	399.75
2092.988	401.75
2097.066	391.75
2101.14	388.75
2105.211	390.75
2109.278	391.75
2113.342	384.75
2117.401	378.75
2121.457	376.75
2125.509	381.75
2129.558	364.75
2133.602	367.75
2137.643	373.75
2141.681	367.75
2145.714	367.75
2149.744	362.75
2153.77	367.75
2157.793	359.75
2161.812	357.75
2165.827	357.75
2169.838	342.75
2173.846	344.75
2177.851	336.75
2181.851	331.75
2185.848	320.75
2189.841	318.75
2193.831	318.75
2197.817	322.75
2201.799	324.75
2205.778	314.75
2209.753	311.75
2213.725	322.75
2217.693	316.75
2221.657	314.75
2225.618	312.75
2229.575	305.75
2233.529	311.75
2237.479	305.75
2241.425	306.75
2245.368	296.75
2249.307	290.75
2253.243	280.75
2257.175	272.75
2261.104	279.75
2265.029	270.75
2268.95	271.75
2272.868	270.75
2276.783	259.75
2280.694	259.75
2284.601	255.75
2288.505	252.75
2292.405	244.75
2296.302	247.75
2300.195	242.75
2304.085	247.75
2307.971	243.75
2311.854	230.75
2315.734	228.75
2319.609	226.75
2323.482	223.75
2327.351	219.75
2331.216	213.75
2335.078	214.75
2338.937	211.75
2342.792	216.75
2346.643	199.75
2350.492	199.75
2354.336	203.75
2358.178	211.75
2362.015	201.75
2365.85	210.75
2369.681	209.75
2373.508	214.75
2377.333	209.75
2381.153	200.75
2384.971	204.75
2388.785	201.75
2392.595	200.75
2396.402	203.75
2400.206	199.75
2404.007	206.75
2407.804	193.75
2411.597	193.75
2415.388	198.75
2419.174	205.75
2422.958	191.75
2426.738	190.75
2430.515	191.75
2434.289	192.75
2438.059	189.75
2441.825	185.75
2445.589	179.75
2449.349	178.75
2453.106	182.75
2456.859	198.75
2460.61	181.75
2464.356	180.75
2468.1	179.75
2471.84	179.75
2475.577	185.75
2479.311	177.75
2483.041	174.75
2486.768	178.75
2490.492	171.75
2494.213	167.75
2497.93	174.75
2501.644	171.75
2505.355	181.75
2509.062	178.75
2512.766	180.75
2516.467	174.75
2520.165	175.75
2523.859	167.75
2527.551	174.75
2531.239	173.75
2534.923	162.75
2538.605	164.75
2542.283	161.75
2545.958	161.75
2549.63	161.75
2553.299	167.75
2556.964	167.75
2560.626	157.75
2564.285	158.75
2567.941	157.75
2571.594	151.75
2575.243	147.75
2578.89	148.75
2582.533	147.75
2586.173	148.75
2589.809	147.75
2593.443	148.75
2597.073	144.75
2600.701	144.75
2604.325	146.75
2607.946	151.75
2611.564	153.75
2615.178	137.75
2618.79	145.75
2622.398	141.75
2626.004	127.75
2629.606	135.75
2633.205	134.75
2636.801	143.75
2640.394	135.75
2643.983	133.75
2647.57	130.75
2651.153	125.75
2654.734	125.75
2658.311	127.75
2661.885	123.75
2665.456	120.75
2669.025	128.75
2672.589	125.75
2676.151	119.75
2679.71	113.75
2683.266	125.75
2686.819	111.75
2690.368	115.75
2693.915	122.75
2697.458	119.75
2700.999	113.75
2704.536	109.75
2708.071	111.75
2711.602	113.75
2715.13	113.75
2718.656	111.75
2722.178	117.75
2725.697	113.75
2729.214	106.75
2732.727	106.75
2736.237	112.75
2739.744	109.75
2743.249	115.75
2746.75	114.75
2750.248	115.75
2753.743	119.75
2757.236	118.75
2760.725	110.75
2764.211	110.75
2767.695	111.75
2771.175	101.75
2774.652	106.75
2778.127	108.75
2781.598	102.75
2785.067	107.75
2788.532	110.75
2791.995	108.75
2795.455	112.75
2798.911	109.75
2802.365	113.75
2805.816	111.75
2809.264	116.75
2812.709	111.75
2816.151	111.75
2819.59	113.75
2823.026	108.75
2826.46	119.75
2829.89	118.75
2833.318	114.75
2836.742	117.75
2840.164	116.75
2843.583	115.75
2846.999	126.75
2850.412	123.75
2853.822	129.75
2857.229	126.75
2860.634	131.75
2864.035	128.75
2867.434	134.75
2870.83	141.75
2874.223	138.75
2877.613	132.75
2881	141.75
2884.385	140.75
2887.766	140.75
2891.145	141.75
2894.521	145.75
2897.894	140.75
2901.264	144.75
2904.631	149.75
2907.996	149.75
2911.358	150.75
2914.717	148.75
2918.073	152.75
2921.426	158.75
2924.777	156.75
2928.124	161.75
2931.469	173.75
2934.811	172.75
2938.15	174.75
2941.487	172.75
2944.821	182.75
2948.152	183.75
2951.48	188.75
2954.805	183.75
2958.128	194.75
2961.447	196.75
2964.765	201.75
2968.079	210.75
2971.39	214.75
2974.699	218.75
2978.005	223.75
2981.308	224.75
2984.609	239.75
2987.907	246.75
2991.202	252.75
2994.494	261.75
2997.784	266.75
3001.07	273.75
3004.355	281.75
3007.636	285.75
3010.915	291.75
3014.191	301.75
3017.464	305.75
3020.734	307.75
3024.002	326.75
3027.267	322.75
3030.53	330.75
3033.789	336.75
3037.046	336.75
3040.301	349.75
3043.552	356.75
3046.801	365.75
3050.048	374.75
3053.291	386.75
3056.532	409.75
3059.771	419.75
3063.006	424.75
3066.239	457.75
3069.469	462.75
3072.697	465.75
3075.922	490.75
3079.144	491.75
3082.364	511.75
3085.581	519.75
3088.795	528.75
3092.007	541.75
3095.216	559.75
3098.423	574.75
3101.627	581.75
3104.828	598.75
3108.026	615.75
3111.222	623.75
3114.416	636.75
3117.607	653.75
3120.795	668.75
3123.98	681.75
3127.163	710.75
3130.344	721.75
3133.521	721.75
3136.696	750.75
3139.869	763.75
3143.039	780.75
3146.206	790.75
3149.371	795.75
3152.533	805.75
3155.693	811.75
3158.85	825.75
3162.005	821.75
3165.157	828.75
3168.306	823.75
3171.453	830.75
3174.597	834.75
3177.739	833.75
3180.878	837.75
3184.014	835.75
3187.149	846.75
3190.28	845.75
3193.409	843.75
3196.536	857.75
3199.659	851.75
3202.781	847.75
3205.9	850.75
3209.016	850.75
3212.13	858.75
3215.241	851.75
3218.35	832.75
3221.456	833.75
3224.56	826.75
3227.661	809.75
3230.76	813.75
3233.856	798.75
3236.95	795.75
3240.041	791.75
3243.13	786.75
3246.216	777.75
3249.3	772.75
3252.382	771.75
3255.46	765.75
3258.537	767.75
3261.611	764.75
3264.682	768.75
3267.751	749.75
3270.818	752.75
3273.882	741.75
3276.943	728.75
3280.002	731.75
3283.059	722.75
3286.113	728.75
3289.165	691.75
3292.214	702.75
3295.261	687.75
3298.306	675.75
3301.348	673.75
3304.387	650.75
3307.425	650.75
3310.459	644.75
3313.492	626.75
3316.521	622.75
3319.549	619.75
3322.574	617.75
3325.597	608.75
3328.617	608.75
3331.635	611.75
3334.65	594.75
3337.663	594.75
3340.674	580.75
3343.682	591.75
3346.688	587.75
3349.691	581.75
3352.692	572.75
3355.691	574.75
3358.687	572.75
3361.681	551.75
3364.673	561.75
3367.662	542.75
3370.649	533.75
3373.633	536.75
3376.615	532.75
3379.595	518.75
3382.572	509.75
3385.547	508.75
3388.52	503.75
3391.49	489.75
3394.458	479.75
3397.424	480.75
3400.387	474.75
3403.348	466.75
3406.307	465.75
3409.263	458.75
3412.217	447.75
3415.168	449.75
3418.118	436.75
3421.065	436.75
3424.009	428.75
3426.951	423.75
3429.891	418.75
3432.829	407.75
3435.764	396.75
3438.697	393.75
3441.628	388.75
3444.557	370.75
3447.483	368.75
3450.407	344.75
3453.328	350.75
3456.247	331.75
3459.164	322.75
3462.079	321.75
3464.991	305.75
3467.902	279.75
3470.809	284.75
3473.715	272.75
3476.618	256.75
3479.519	268.75
3482.418	260.75
3485.315	249.75
3488.209	242.75
3491.101	242.75
3493.99	219.75
3496.878	214.75
3499.763	209.75
3502.646	207.75
3505.527	197.75
3508.405	198.75
3511.281	179.75
3514.155	169.75
3517.027	172.75
3519.897	160.75
3522.764	157.75
3525.629	145.75
3528.492	133.75
3531.352	131.75
3534.211	121.75
3537.067	107.75
3539.921	102.75
3542.773	98.75
3545.622	88.75
3548.469	89.75
3551.315	76.75
3554.157	81.75
3556.998	74.75
3559.837	72.75
3562.673	57.75
3565.507	52.75
3568.339	58.75
3571.169	46.75
3573.996	49.75
3576.822	45.75
3579.645	38.75
3582.466	27.75
3585.285	30.75
3588.101	19.75
3590.916	20.75
3593.728	17.75
3596.538	18.75
3599.346	19.75
3602.152	11.75
3604.956	11.75
3607.757	4.75
3610.556	-6.25
3613.354	-5.25
3616.149	-4.25
3618.942	-14.25
3621.732	-9.25
3624.521	-11.25
3627.307	-10.25
3630.092	-15.25
3632.874	-16.25
3635.654	-19.25
3638.432	-17.25
3641.208	-16.25
3643.982	-27.25
3646.753	-26.25
3649.523	-31.25
3652.29	-32.25
3655.055	-32.25
3657.818	-40.25
3660.579	-36.25
3663.338	-38.25
3666.095	-36.25
3668.849	-38.25
3671.602	-38.25
3674.352	-43.25
3677.101	-47.25
3679.847	-51.25
3682.591	-51.25
3685.333	-51.25
3688.073	-49.25
3690.811	-54.25
3693.547	-53.25
3696.281	-57.25
3699.013	-54.25
3701.742	-57.25
3704.47	-56.25
3707.195	-56.25
3709.919	-60.25
3712.64	-59.25
3715.359	-54.25
3718.076	-65.25
3720.792	-65.25
3723.505	-63.25
3726.216	-60.25
3728.925	-63.25
3731.632	-61.25
3734.336	-63.25
3737.039	-65.25
3739.74	-63.25
3742.439	-67.25
3745.136	-65.25
3747.83	-66.25
3750.523	-68.25
3753.213	-68.25
3755.902	-66.25
3758.589	-70.25
3761.273	-68.25
3763.956	-67.25
3766.636	-69.25
3769.315	-68.25
3771.991	-70.25
3774.665	-67.25
3777.338	-68.25
3780.008	-68.25
3782.677	-73.25
3785.343	-68.25
3788.007	-73.25
3790.67	-74.25
3793.33	-76.25
3795.989	-69.25
3798.645	-70.25
3801.299	-69.25
3803.952	-71.25
3806.602	-76.25
3809.251	-73.25
3811.897	-73.25
3814.542	-73.25
3817.184	-71.25
3819.825	-76.25
3822.463	-75.25
3825.1	-76.25
3827.735	-77.25
3830.367	-74.25
3832.998	-77.25
3835.627	-73.25
3838.253	-73.25
3840.878	-72.25
3843.501	-71.25
3846.122	-75.25
3848.741	-79.25
3851.358	-76.25
3853.973	-76.25
3856.586	-75.25
3859.197	-70.25
3861.806	-78.25
3864.414	-78.25
3867.019	-75.25
3869.622	-75.25
3872.224	-76.25
3874.823	-71.25
3877.421	-71.25
3880.016	-68.25
3882.61	-65.25
3885.202	-71.25
3887.792	-69.25
3890.38	-72.25
3892.966	-74.25
3895.55	-77.25
3898.132	-77.25
3900.713	-77.25
3903.291	-73.25
3905.868	-73.25
3908.442	-76.25
3911.015	-78.25
3913.586	-76.25
3916.155	-78.25
3918.722	-79.25
3921.287	-76.25
3923.85	-77.25
3926.411	-79.25
3928.971	-79.25
3931.528	-82.25
3934.084	-79.25
3936.638	-79.25
3939.19	-79.25
3941.74	-77.25
3944.288	-79.25
3946.834	-76.25
3949.378	-79.25
3951.921	-74.25
3954.462	-81.25
3957	-82.25
3959.537	-81.25
3962.072	-83.25
3964.606	-79.25
3967.137	-74.25
3969.667	-78.25
3972.194	-78.25
3974.72	-80.25
3977.244	-75.25
3979.766	-76.25
3982.286	-74.25
3984.805	-75.25
3987.321	-78.25
3989.836	-77.25
3992.349	-82.25
3994.86	-82.25
3997.369	-80.25
3999.877	-81.25
4002.382	-75.25
4004.886	-75.25
4007.388	-76.25
4009.888	-75.25
4012.386	-72.25
4014.883	-78.25
4017.377	-81.25
4019.87	-73.25
4022.361	-78.25
4024.85	-79.25
4027.338	-74.25
4029.823	-78.25
4032.307	-77.25
4034.789	-79.25
4037.269	-80.25
4039.747	-78.25
4042.224	-83.25
4044.699	-79.25
4047.172	-74.25
4049.643	-77.25
4052.112	-79.25
4054.58	-81.25
4057.046	-77.25
4059.51	-78.25
4061.972	-82.25
4064.432	-80.25
4066.891	-76.25
4069.348	-77.25
4071.803	-80.25
4074.256	-77.25
4076.708	-75.25
4079.158	-78.25
4081.606	-77.25
4084.052	-80.25
4086.497	-75.25
4088.939	-77.25
4091.38	-78.25
4093.819	-77.25
4096.257	-81.25
4098.693	-76.25
4101.127	-79.25
4103.559	-81.25
4105.989	-54.25
4108.418	-50.25
4110.845	-49.25
4113.27	-49.25
4115.694	-40.25
4118.115	-35.25
4120.535	-78.25
4122.954	-75.25
4125.37	-79.25
4127.785	-82.25
4130.198	-80.25
4132.609	-79.25
4135.019	-82.25
4137.427	-79.25
4139.833	-77.25
4142.237	-76.25
