Data from 100000CFU1_B_RamanShift_1.txt Node
Date: Mon Jan 23 14:28:22 IST 2017
User: aro
Spectrometer: QEPB0276
Trigger mode: 0
Integration Time (sec): 5.000000E0
Scans to average: 1
Electric dark correction enabled: true
Nonlinearity correction enabled: false
Boxcar width: 0
XAxis mode: Raman Shifts
Number of Pixels in Spectrum: 1044
>>>>>Begin Spectral Data<<<<<
160.701	-30.25
166.742	1.75
172.777	93.75
178.805	393.75
184.826	1098.75
190.841	2258.75
196.849	3580.75
202.85	4417.75
208.845	4628.75
214.833	4442.75
220.815	4279.75
226.789	4149.75
232.758	4055.75
238.719	3921.75
244.674	3749.75
250.623	3570.75
256.565	3435.75
262.5	3244.75
268.429	3115.75
274.351	2974.75
280.267	2858.75
286.176	2752.75
292.079	2672.75
297.975	2575.75
303.865	2489.75
309.748	2420.75
315.625	2400.75
321.495	2323.75
327.359	2272.75
333.217	2219.75
339.068	2237.75
344.912	2214.75
350.751	2217.75
356.583	2205.75
362.408	2196.75
368.227	2192.75
374.04	2196.75
379.847	2199.75
385.647	2213.75
391.44	2235.75
397.228	2249.75
403.009	2259.75
408.784	2264.75
414.553	2280.75
420.315	2288.75
426.071	2261.75
431.821	2280.75
437.565	2281.75
443.302	2264.75
449.033	2260.75
454.758	2274.75
460.477	2243.75
466.189	2250.75
471.896	2226.75
477.596	2222.75
483.29	2210.75
488.978	2226.75
494.66	2182.75
500.335	2149.75
506.005	2132.75
511.668	2097.75
517.325	2042.75
522.977	2038.75
528.622	1991.75
534.261	1967.75
539.894	1956.75
545.521	1954.75
551.141	1938.75
556.756	1907.75
562.365	1904.75
567.968	1882.75
573.565	1881.75
579.155	1875.75
584.74	1858.75
590.319	1840.75
595.892	1840.75
601.459	1821.75
607.02	1829.75
612.575	1797.75
618.124	1783.75
623.667	1770.75
629.204	1747.75
634.735	1724.75
640.261	1711.75
645.781	1710.75
651.294	1692.75
656.802	1683.75
662.304	1678.75
667.8	1675.75
673.29	1661.75
678.775	1691.75
684.254	1656.75
689.726	1640.75
695.193	1639.75
700.655	1642.75
706.11	1614.75
711.56	1618.75
717.004	1601.75
722.442	1580.75
727.874	1588.75
733.301	1562.75
738.722	1560.75
744.137	1552.75
749.547	1545.75
754.951	1553.75
760.349	1557.75
765.741	1567.75
771.128	1548.75
776.509	1546.75
781.885	1539.75
787.254	1534.75
792.618	1529.75
797.977	1521.75
803.33	1515.75
808.677	1504.75
814.019	1472.75
819.355	1473.75
824.686	1458.75
830.011	1457.75
835.33	1436.75
840.644	1432.75
845.952	1430.75
851.255	1417.75
856.552	1413.75
861.844	1408.75
867.13	1398.75
872.41	1388.75
877.686	1379.75
882.955	1371.75
888.219	1352.75
893.478	1319.75
898.731	1295.75
903.979	1287.75
909.221	1276.75
914.458	1257.75
919.69	1240.75
924.916	1242.75
930.136	1225.75
935.351	1252.75
940.561	1236.75
945.766	1243.75
950.965	1230.75
956.158	1216.75
961.347	1209.75
966.529	1193.75
971.707	1184.75
976.879	1155.75
982.046	1139.75
987.208	1154.75
992.364	1134.75
997.515	1145.75
1002.66	1147.75
1007.801	1178.75
1012.936	1170.75
1018.066	1186.75
1023.19	1184.75
1028.309	1177.75
1033.423	1187.75
1038.532	1181.75
1043.636	1173.75
1048.734	1164.75
1053.827	1158.75
1058.915	1129.75
1063.998	1124.75
1069.075	1130.75
1074.147	1131.75
1079.214	1141.75
1084.276	1142.75
1089.333	1161.75
1094.385	1167.75
1099.431	1166.75
1104.472	1165.75
1109.509	1178.75
1114.54	1141.75
1119.565	1136.75
1124.586	1118.75
1129.602	1107.75
1134.613	1102.75
1139.618	1101.75
1144.619	1106.75
1149.614	1109.75
1154.604	1122.75
1159.589	1120.75
1164.57	1119.75
1169.545	1121.75
1174.515	1127.75
1179.48	1110.75
1184.44	1108.75
1189.395	1114.75
1194.345	1091.75
1199.29	1103.75
1204.23	1115.75
1209.165	1107.75
1214.095	1116.75
1219.021	1105.75
1223.941	1116.75
1228.856	1134.75
1233.766	1133.75
1238.672	1145.75
1243.572	1149.75
1248.467	1137.75
1253.358	1128.75
1258.244	1100.75
1263.124	1104.75
1268	1084.75
1272.871	1070.75
1277.737	1061.75
1282.599	1057.75
1287.455	1052.75
1292.306	1071.75
1297.153	1074.75
1301.995	1065.75
1306.832	1076.75
1311.664	1083.75
1316.491	1091.75
1321.314	1088.75
1326.132	1099.75
1330.945	1078.75
1335.753	1058.75
1340.556	1051.75
1345.354	1037.75
1350.148	1027.75
1354.937	1015.75
1359.722	1014.75
1364.501	1004.75
1369.276	999.75
1374.046	978.75
1378.811	971.75
1383.572	971.75
1388.327	981.75
1393.079	969.75
1397.825	967.75
1402.567	965.75
1407.304	954.75
1412.036	956.75
1416.764	949.75
1421.487	944.75
1426.205	949.75
1430.919	959.75
1435.628	984.75
1440.333	991.75
1445.032	992.75
1449.727	1012.75
1454.418	999.75
1459.104	1009.75
1463.785	1005.75
1468.462	1006.75
1473.134	982.75
1477.802	975.75
1482.465	969.75
1487.123	955.75
1491.777	974.75
1496.426	970.75
1501.071	978.75
1505.711	984.75
1510.347	1007.75
1514.978	997.75
1519.604	1021.75
1524.226	1031.75
1528.844	1023.75
1533.457	1008.75
1538.065	1011.75
1542.669	1006.75
1547.269	1012.75
1551.864	1015.75
1556.454	1020.75
1561.041	1036.75
1565.622	1051.75
1570.199	1050.75
1574.772	1080.75
1579.34	1092.75
1583.904	1121.75
1588.464	1118.75
1593.019	1141.75
1597.569	1152.75
1602.115	1171.75
1606.657	1195.75
1611.195	1191.75
1615.728	1193.75
1620.256	1225.75
1624.78	1234.75
1629.3	1260.75
1633.816	1285.75
1638.327	1314.75
1642.834	1316.75
1647.336	1317.75
1651.834	1327.75
1656.328	1308.75
1660.817	1330.75
1665.302	1299.75
1669.783	1269.75
1674.259	1228.75
1678.732	1215.75
1683.199	1172.75
1687.663	1129.75
1692.122	1100.75
1696.577	1048.75
1701.028	1004.75
1705.474	954.75
1709.917	913.75
1714.355	898.75
1718.788	876.75
1723.218	886.75
1727.643	840.75
1732.064	834.75
1736.481	821.75
1740.893	786.75
1745.301	776.75
1749.705	746.75
1754.105	734.75
1758.501	718.75
1762.893	711.75
1767.28	683.75
1771.663	675.75
1776.042	682.75
1780.417	682.75
1784.787	692.75
1789.154	688.75
1793.516	684.75
1797.874	691.75
1802.228	668.75
1806.578	675.75
1810.924	643.75
1815.266	647.75
1819.603	629.75
1823.937	623.75
1828.266	611.75
1832.591	613.75
1836.913	602.75
1841.23	608.75
1845.543	612.75
1849.852	616.75
1854.156	610.75
1858.457	621.75
1862.754	623.75
1867.047	620.75
1871.335	621.75
1875.62	619.75
1879.9	632.75
1884.177	624.75
1888.449	624.75
1892.718	615.75
1896.982	630.75
1901.243	624.75
1905.499	629.75
1909.752	616.75
1914	618.75
1918.245	607.75
1922.485	627.75
1926.722	621.75
1930.954	624.75
1935.183	625.75
1939.408	613.75
1943.628	635.75
1947.845	627.75
1952.058	622.75
1956.267	625.75
1960.472	611.75
1964.673	603.75
1968.87	599.75
1973.063	590.75
1977.252	586.75
1981.438	575.75
1985.619	586.75
1989.797	583.75
1993.971	587.75
1998.14	588.75
2002.306	585.75
2006.469	602.75
2010.627	606.75
2014.781	595.75
2018.932	593.75
2023.078	585.75
2027.221	604.75
2031.36	594.75
2035.495	579.75
2039.627	586.75
2043.754	582.75
2047.878	588.75
2051.998	579.75
2056.114	576.75
2060.226	589.75
2064.334	588.75
2068.439	600.75
2072.54	591.75
2076.637	609.75
2080.73	614.75
2084.82	600.75
2088.906	620.75
2092.988	614.75
2097.066	594.75
2101.14	596.75
2105.211	590.75
2109.278	582.75
2113.342	588.75
2117.401	586.75
2121.457	569.75
2125.509	575.75
2129.558	572.75
2133.602	573.75
2137.643	576.75
2141.681	569.75
2145.714	577.75
2149.744	563.75
2153.77	550.75
2157.793	552.75
2161.812	549.75
2165.827	540.75
2169.838	523.75
2173.846	525.75
2177.851	520.75
2181.851	516.75
2185.848	502.75
2189.841	506.75
2193.831	503.75
2197.817	491.75
2201.799	484.75
2205.778	495.75
2209.753	485.75
2213.725	487.75
2217.693	480.75
2221.657	486.75
2225.618	485.75
2229.575	474.75
2233.529	480.75
2237.479	482.75
2241.425	481.75
2245.368	461.75
2249.307	459.75
2253.243	441.75
2257.175	440.75
2261.104	432.75
2265.029	433.75
2268.95	422.75
2272.868	418.75
2276.783	416.75
2280.694	407.75
2284.601	403.75
2288.505	391.75
2292.405	383.75
2296.302	397.75
2300.195	368.75
2304.085	376.75
2307.971	374.75
2311.854	359.75
2315.734	358.75
2319.609	344.75
2323.482	346.75
2327.351	336.75
2331.216	342.75
2335.078	340.75
2338.937	334.75
2342.792	326.75
2346.643	335.75
2350.492	323.75
2354.336	328.75
2358.178	323.75
2362.015	325.75
2365.85	321.75
2369.681	327.75
2373.508	329.75
2377.333	333.75
2381.153	333.75
2384.971	321.75
2388.785	325.75
2392.595	328.75
2396.402	331.75
2400.206	327.75
2404.007	320.75
2407.804	312.75
2411.597	313.75
2415.388	315.75
2419.174	310.75
2422.958	310.75
2426.738	317.75
2430.515	314.75
2434.289	310.75
2438.059	309.75
2441.825	315.75
2445.589	306.75
2449.349	302.75
2453.106	292.75
2456.859	299.75
2460.61	295.75
2464.356	293.75
2468.1	294.75
2471.84	281.75
2475.577	286.75
2479.311	290.75
2483.041	278.75
2486.768	278.75
2490.492	290.75
2494.213	287.75
2497.93	290.75
2501.644	290.75
2505.355	284.75
2509.062	283.75
2512.766	281.75
2516.467	271.75
2520.165	274.75
2523.859	276.75
2527.551	275.75
2531.239	272.75
2534.923	274.75
2538.605	269.75
2542.283	270.75
2545.958	260.75
2549.63	270.75
2553.299	261.75
2556.964	259.75
2560.626	254.75
2564.285	252.75
2567.941	252.75
2571.594	253.75
2575.243	250.75
2578.89	254.75
2582.533	243.75
2586.173	243.75
2589.809	239.75
2593.443	249.75
2597.073	237.75
2600.701	240.75
2604.325	232.75
2607.946	227.75
2611.564	238.75
2615.178	231.75
2618.79	229.75
2622.398	226.75
2626.004	230.75
2629.606	225.75
2633.205	232.75
2636.801	231.75
2640.394	216.75
2643.983	218.75
2647.57	214.75
2651.153	213.75
2654.734	207.75
2658.311	207.75
2661.885	214.75
2665.456	206.75
2669.025	200.75
2672.589	203.75
2676.151	198.75
2679.71	192.75
2683.266	197.75
2686.819	200.75
2690.368	202.75
2693.915	197.75
2697.458	185.75
2700.999	188.75
2704.536	183.75
2708.071	173.75
2711.602	177.75
2715.13	181.75
2718.656	183.75
2722.178	193.75
2725.697	189.75
2729.214	190.75
2732.727	182.75
2736.237	182.75
2739.744	175.75
2743.249	187.75
2746.75	184.75
2750.248	188.75
2753.743	188.75
2757.236	180.75
2760.725	182.75
2764.211	180.75
2767.695	186.75
2771.175	176.75
2774.652	166.75
2778.127	185.75
2781.598	181.75
2785.067	172.75
2788.532	172.75
2791.995	176.75
2795.455	171.75
2798.911	174.75
2802.365	185.75
2805.816	181.75
2809.264	177.75
2812.709	186.75
2816.151	182.75
2819.59	182.75
2823.026	180.75
2826.46	184.75
2829.89	186.75
2833.318	186.75
2836.742	183.75
2840.164	189.75
2843.583	190.75
2846.999	196.75
2850.412	189.75
2853.822	195.75
2857.229	199.75
2860.634	205.75
2864.035	207.75
2867.434	215.75
2870.83	214.75
2874.223	215.75
2877.613	210.75
2881	226.75
2884.385	220.75
2887.766	214.75
2891.145	224.75
2894.521	224.75
2897.894	223.75
2901.264	225.75
2904.631	231.75
2907.996	226.75
2911.358	232.75
2914.717	237.75
2918.073	228.75
2921.426	241.75
2924.777	237.75
2928.124	245.75
2931.469	260.75
2934.811	266.75
2938.15	264.75
2941.487	274.75
2944.821	276.75
2948.152	279.75
2951.48	284.75
2954.805	288.75
2958.128	292.75
2961.447	287.75
2964.765	299.75
2968.079	312.75
2971.39	315.75
2974.699	316.75
2978.005	333.75
2981.308	334.75
2984.609	353.75
2987.907	356.75
2991.202	373.75
2994.494	374.75
2997.784	385.75
3001.07	397.75
3004.355	409.75
3007.636	419.75
3010.915	428.75
3014.191	432.75
3017.464	447.75
3020.734	446.75
3024.002	460.75
3027.267	478.75
3030.53	478.75
3033.789	489.75
3037.046	496.75
3040.301	513.75
3043.552	518.75
3046.801	530.75
3050.048	545.75
3053.291	563.75
3056.532	576.75
3059.771	596.75
3063.006	611.75
3066.239	644.75
3069.469	664.75
3072.697	680.75
3075.922	692.75
3079.144	701.75
3082.364	736.75
3085.581	738.75
3088.795	763.75
3092.007	776.75
3095.216	793.75
3098.423	828.75
3101.627	834.75
3104.828	845.75
3108.026	868.75
3111.222	889.75
3114.416	908.75
3117.607	932.75
3120.795	960.75
3123.98	967.75
3127.163	1003.75
3130.344	1030.75
3133.521	1046.75
3136.696	1079.75
3139.869	1083.75
3143.039	1095.75
3146.206	1126.75
3149.371	1136.75
3152.533	1150.75
3155.693	1165.75
3158.85	1161.75
3162.005	1161.75
3165.157	1176.75
3168.306	1173.75
3171.453	1162.75
3174.597	1185.75
3177.739	1189.75
3180.878	1185.75
3184.014	1187.75
3187.149	1202.75
3190.28	1212.75
3193.409	1211.75
3196.536	1205.75
3199.659	1209.75
3202.781	1213.75
3205.9	1219.75
3209.016	1202.75
3212.13	1218.75
3215.241	1216.75
3218.35	1199.75
3221.456	1192.75
3224.56	1183.75
3227.661	1171.75
3230.76	1173.75
3233.856	1135.75
3236.95	1135.75
3240.041	1133.75
3243.13	1131.75
3246.216	1096.75
3249.3	1097.75
3252.382	1109.75
3255.46	1084.75
3258.537	1097.75
3261.611	1081.75
3264.682	1071.75
3267.751	1064.75
3270.818	1064.75
3273.882	1053.75
3276.943	1061.75
3280.002	1043.75
3283.059	1042.75
3286.113	1011.75
3289.165	1008.75
3292.214	988.75
3295.261	988.75
3298.306	958.75
3301.348	941.75
3304.387	943.75
3307.425	923.75
3310.459	912.75
3313.492	899.75
3316.521	890.75
3319.549	875.75
3322.574	874.75
3325.597	860.75
3328.617	861.75
3331.635	864.75
3334.65	841.75
3337.663	851.75
3340.674	856.75
3343.682	838.75
3346.688	840.75
3349.691	835.75
3352.692	838.75
3355.691	825.75
3358.687	825.75
3361.681	805.75
3364.673	792.75
3367.662	794.75
3370.649	782.75
3373.633	779.75
3376.615	744.75
3379.595	743.75
3382.572	740.75
3385.547	732.75
3388.52	731.75
3391.49	701.75
3394.458	696.75
3397.424	685.75
3400.387	675.75
3403.348	671.75
3406.307	663.75
3409.263	663.75
3412.217	646.75
3415.168	641.75
3418.118	634.75
3421.065	630.75
3424.009	622.75
3426.951	612.75
3429.891	597.75
3432.829	593.75
3435.764	574.75
3438.697	564.75
3441.628	558.75
3444.557	538.75
3447.483	523.75
3450.407	516.75
3453.328	508.75
3456.247	487.75
3459.164	464.75
3462.079	463.75
3464.991	433.75
3467.902	423.75
3470.809	415.75
3473.715	407.75
3476.618	391.75
3479.519	373.75
3482.418	364.75
3485.315	356.75
3488.209	342.75
3491.101	337.75
3493.99	323.75
3496.878	315.75
3499.763	296.75
3502.646	293.75
3505.527	288.75
3508.405	267.75
3511.281	259.75
3514.155	243.75
3517.027	240.75
3519.897	222.75
3522.764	218.75
3525.629	194.75
3528.492	183.75
3531.352	179.75
3534.211	169.75
3537.067	151.75
3539.921	150.75
3542.773	146.75
3545.622	131.75
3548.469	119.75
3551.315	116.75
3554.157	111.75
3556.998	93.75
3559.837	94.75
3562.673	83.75
3565.507	80.75
3568.339	81.75
3571.169	70.75
3573.996	67.75
3576.822	63.75
3579.645	58.75
3582.466	48.75
3585.285	36.75
3588.101	41.75
3590.916	36.75
3593.728	27.75
3596.538	23.75
3599.346	15.75
3602.152	14.75
3604.956	10.75
3607.757	4.75
3610.556	-3.25
3613.354	-8.25
3616.149	-2.25
3618.942	-12.25
3621.732	-13.25
3624.521	-13.25
3627.307	-20.25
3630.092	-24.25
3632.874	-26.25
3635.654	-32.25
3638.432	-28.25
3641.208	-34.25
3643.982	-34.25
3646.753	-37.25
3649.523	-38.25
3652.29	-42.25
3655.055	-44.25
3657.818	-50.25
3660.579	-55.25
3663.338	-59.25
3666.095	-63.25
3668.849	-54.25
3671.602	-62.25
3674.352	-61.25
3677.101	-66.25
3679.847	-64.25
3682.591	-70.25
3685.333	-72.25
3688.073	-70.25
3690.811	-72.25
3693.547	-74.25
3696.281	-77.25
3699.013	-84.25
3701.742	-82.25
3704.47	-84.25
3707.195	-86.25
3709.919	-81.25
3712.64	-84.25
3715.359	-86.25
3718.076	-88.25
3720.792	-91.25
3723.505	-88.25
3726.216	-89.25
3728.925	-88.25
3731.632	-89.25
3734.336	-90.25
3737.039	-92.25
3739.74	-93.25
3742.439	-97.25
3745.136	-96.25
3747.83	-95.25
3750.523	-93.25
3753.213	-93.25
3755.902	-93.25
3758.589	-95.25
3761.273	-97.25
3763.956	-95.25
3766.636	-104.25
3769.315	-101.25
3771.991	-101.25
3774.665	-101.25
3777.338	-99.25
3780.008	-103.25
3782.677	-102.25
3785.343	-100.25
3788.007	-101.25
3790.67	-104.25
3793.33	-102.25
3795.989	-101.25
3798.645	-102.25
3801.299	-101.25
3803.952	-102.25
3806.602	-106.25
3809.251	-110.25
3811.897	-104.25
3814.542	-108.25
3817.184	-103.25
3819.825	-108.25
3822.463	-103.25
3825.1	-105.25
3827.735	-107.25
3830.367	-104.25
3832.998	-113.25
3835.627	-107.25
3838.253	-106.25
3840.878	-107.25
3843.501	-109.25
3846.122	-109.25
3848.741	-112.25
3851.358	-109.25
3853.973	-109.25
3856.586	-104.25
3859.197	-104.25
3861.806	-109.25
3864.414	-110.25
3867.019	-108.25
3869.622	-109.25
3872.224	-110.25
3874.823	-107.25
3877.421	-106.25
3880.016	-103.25
3882.61	-100.25
3885.202	-100.25
3887.792	-103.25
3890.38	-103.25
3892.966	-107.25
3895.55	-108.25
3898.132	-107.25
3900.713	-108.25
3903.291	-108.25
3905.868	-108.25
3908.442	-114.25
3911.015	-114.25
3913.586	-113.25
3916.155	-115.25
3918.722	-112.25
3921.287	-110.25
3923.85	-110.25
3926.411	-111.25
3928.971	-113.25
3931.528	-115.25
3934.084	-112.25
3936.638	-112.25
3939.19	-117.25
3941.74	-112.25
3944.288	-115.25
3946.834	-111.25
3949.378	-111.25
3951.921	-111.25
3954.462	-116.25
3957	-111.25
3959.537	-113.25
3962.072	-112.25
3964.606	-113.25
3967.137	-111.25
3969.667	-108.25
3972.194	-111.25
3974.72	-113.25
3977.244	-117.25
3979.766	-113.25
3982.286	-110.25
3984.805	-109.25
3987.321	-110.25
3989.836	-110.25
3992.349	-113.25
3994.86	-111.25
3997.369	-110.25
3999.877	-112.25
4002.382	-111.25
4004.886	-111.25
4007.388	-110.25
4009.888	-113.25
4012.386	-111.25
4014.883	-113.25
4017.377	-115.25
4019.87	-111.25
4022.361	-111.25
4024.85	-111.25
4027.338	-108.25
4029.823	-109.25
4032.307	-108.25
4034.789	-112.25
4037.269	-113.25
4039.747	-112.25
4042.224	-115.25
4044.699	-117.25
4047.172	-114.25
4049.643	-112.25
4052.112	-114.25
4054.58	-111.25
4057.046	-113.25
4059.51	-112.25
4061.972	-113.25
4064.432	-115.25
4066.891	-114.25
4069.348	-112.25
4071.803	-112.25
4074.256	-111.25
4076.708	-111.25
4079.158	-111.25
4081.606	-111.25
4084.052	-117.25
4086.497	-111.25
4088.939	-110.25
4091.38	-114.25
4093.819	-110.25
4096.257	-117.25
4098.693	-114.25
4101.127	-117.25
4103.559	-119.25
4105.989	-80.25
4108.418	-72.25
4110.845	-76.25
4113.27	-67.25
4115.694	-59.25
4118.115	-49.25
4120.535	-112.25
4122.954	-110.25
4125.37	-116.25
4127.785	-115.25
4130.198	-114.25
4132.609	-113.25
4135.019	-116.25
4137.427	-116.25
4139.833	-112.25
4142.237	-114.25
