Data from 100000CFU2_A_RamanShift_1.txt Node
Date: Mon Jan 23 14:30:02 IST 2017
User: aro
Spectrometer: QEPB0276
Trigger mode: 0
Integration Time (sec): 5.000000E0
Scans to average: 1
Electric dark correction enabled: true
Nonlinearity correction enabled: false
Boxcar width: 0
XAxis mode: Raman Shifts
Number of Pixels in Spectrum: 1044
>>>>>Begin Spectral Data<<<<<
160.701	-28.38
166.742	-1.38
172.777	80.62
178.805	349.62
184.826	966.62
190.841	2012.62
196.849	3181.62
202.85	3946.62
208.845	4138.62
214.833	3983.62
220.815	3852.62
226.789	3700.62
232.758	3635.62
238.719	3518.62
244.674	3393.62
250.623	3226.62
256.565	3082.62
262.5	2955.62
268.429	2816.62
274.351	2703.62
280.267	2585.62
286.176	2493.62
292.079	2438.62
297.975	2338.62
303.865	2247.62
309.748	2210.62
315.625	2153.62
321.495	2116.62
327.359	2075.62
333.217	2048.62
339.068	2043.62
344.912	2020.62
350.751	2014.62
356.583	2023.62
362.408	2014.62
368.227	2035.62
374.04	2023.62
379.847	2032.62
385.647	2027.62
391.44	2054.62
397.228	2063.62
403.009	2084.62
408.784	2076.62
414.553	2093.62
420.315	2083.62
426.071	2093.62
431.821	2108.62
437.565	2103.62
443.302	2081.62
449.033	2083.62
454.758	2079.62
460.477	2096.62
466.189	2053.62
471.896	2057.62
477.596	2055.62
483.29	2015.62
488.978	2013.62
494.66	1994.62
500.335	1986.62
506.005	1961.62
511.668	1917.62
517.325	1886.62
522.977	1854.62
528.622	1847.62
534.261	1823.62
539.894	1804.62
545.521	1788.62
551.141	1791.62
556.756	1752.62
562.365	1740.62
567.968	1758.62
573.565	1732.62
579.155	1731.62
584.74	1715.62
590.319	1714.62
595.892	1691.62
601.459	1691.62
607.02	1665.62
612.575	1668.62
618.124	1631.62
623.667	1637.62
629.204	1616.62
634.735	1619.62
640.261	1588.62
645.781	1589.62
651.294	1576.62
656.802	1558.62
662.304	1578.62
667.8	1548.62
673.29	1565.62
678.775	1563.62
684.254	1533.62
689.726	1548.62
695.193	1524.62
700.655	1508.62
706.11	1514.62
711.56	1503.62
717.004	1483.62
722.442	1493.62
727.874	1478.62
733.301	1479.62
738.722	1452.62
744.137	1454.62
749.547	1442.62
754.951	1450.62
760.349	1442.62
765.741	1448.62
771.128	1438.62
776.509	1449.62
781.885	1445.62
787.254	1439.62
792.618	1427.62
797.977	1422.62
803.33	1408.62
808.677	1400.62
814.019	1383.62
819.355	1368.62
824.686	1374.62
830.011	1341.62
835.33	1344.62
840.644	1349.62
845.952	1332.62
851.255	1324.62
856.552	1348.62
861.844	1317.62
867.13	1327.62
872.41	1331.62
877.686	1328.62
882.955	1327.62
888.219	1299.62
893.478	1268.62
898.731	1225.62
903.979	1210.62
909.221	1185.62
914.458	1199.62
919.69	1184.62
924.916	1190.62
930.136	1182.62
935.351	1166.62
940.561	1160.62
945.766	1184.62
950.965	1170.62
956.158	1167.62
961.347	1145.62
966.529	1126.62
971.707	1099.62
976.879	1094.62
982.046	1083.62
987.208	1082.62
992.364	1084.62
997.515	1093.62
1002.66	1086.62
1007.801	1104.62
1012.936	1114.62
1018.066	1110.62
1023.19	1136.62
1028.309	1137.62
1033.423	1144.62
1038.532	1121.62
1043.636	1109.62
1048.734	1099.62
1053.827	1102.62
1058.915	1091.62
1063.998	1089.62
1069.075	1090.62
1074.147	1083.62
1079.214	1088.62
1084.276	1106.62
1089.333	1113.62
1094.385	1125.62
1099.431	1117.62
1104.472	1119.62
1109.509	1102.62
1114.54	1094.62
1119.565	1079.62
1124.586	1070.62
1129.602	1057.62
1134.613	1040.62
1139.618	1039.62
1144.619	1052.62
1149.614	1059.62
1154.604	1062.62
1159.589	1054.62
1164.57	1074.62
1169.545	1070.62
1174.515	1068.62
1179.48	1069.62
1184.44	1058.62
1189.395	1056.62
1194.345	1046.62
1199.29	1050.62
1204.23	1061.62
1209.165	1057.62
1214.095	1056.62
1219.021	1050.62
1223.941	1072.62
1228.856	1074.62
1233.766	1068.62
1238.672	1095.62
1243.572	1089.62
1248.467	1084.62
1253.358	1062.62
1258.244	1061.62
1263.124	1031.62
1268	1020.62
1272.871	1009.62
1277.737	1006.62
1282.599	1005.62
1287.455	1010.62
1292.306	1014.62
1297.153	1024.62
1301.995	1017.62
1306.832	1027.62
1311.664	1038.62
1316.491	1027.62
1321.314	1035.62
1326.132	1038.62
1330.945	1017.62
1335.753	1009.62
1340.556	1002.62
1345.354	993.62
1350.148	985.62
1354.937	974.62
1359.722	964.62
1364.501	962.62
1369.276	946.62
1374.046	933.62
1378.811	923.62
1383.572	927.62
1388.327	918.62
1393.079	922.62
1397.825	912.62
1402.567	900.62
1407.304	904.62
1412.036	909.62
1416.764	913.62
1421.487	902.62
1426.205	908.62
1430.919	917.62
1435.628	933.62
1440.333	942.62
1445.032	950.62
1449.727	975.62
1454.418	976.62
1459.104	972.62
1463.785	980.62
1468.462	945.62
1473.134	949.62
1477.802	928.62
1482.465	916.62
1487.123	922.62
1491.777	936.62
1496.426	941.62
1501.071	951.62
1505.711	940.62
1510.347	950.62
1514.978	974.62
1519.604	964.62
1524.226	958.62
1528.844	974.62
1533.457	959.62
1538.065	956.62
1542.669	948.62
1547.269	956.62
1551.864	947.62
1556.454	974.62
1561.041	976.62
1565.622	980.62
1570.199	1011.62
1574.772	1009.62
1579.34	1017.62
1583.904	1050.62
1588.464	1057.62
1593.019	1077.62
1597.569	1093.62
1602.115	1096.62
1606.657	1111.62
1611.195	1121.62
1615.728	1128.62
1620.256	1149.62
1624.78	1161.62
1629.3	1175.62
1633.816	1188.62
1638.327	1215.62
1642.834	1234.62
1647.336	1240.62
1651.834	1240.62
1656.328	1237.62
1660.817	1230.62
1665.302	1199.62
1669.783	1183.62
1674.259	1159.62
1678.732	1133.62
1683.199	1095.62
1687.663	1066.62
1692.122	1029.62
1696.577	990.62
1701.028	939.62
1705.474	879.62
1709.917	871.62
1714.355	851.62
1718.788	834.62
1723.218	844.62
1727.643	819.62
1732.064	794.62
1736.481	770.62
1740.893	762.62
1745.301	727.62
1749.705	719.62
1754.105	697.62
1758.501	683.62
1762.893	672.62
1767.28	665.62
1771.663	664.62
1776.042	653.62
1780.417	662.62
1784.787	658.62
1789.154	661.62
1793.516	674.62
1797.874	660.62
1802.228	652.62
1806.578	639.62
1810.924	621.62
1815.266	601.62
1819.603	601.62
1823.937	592.62
1828.266	587.62
1832.591	596.62
1836.913	598.62
1841.23	583.62
1845.543	598.62
1849.852	584.62
1854.156	593.62
1858.457	592.62
1862.754	596.62
1867.047	603.62
1871.335	609.62
1875.62	602.62
1879.9	616.62
1884.177	607.62
1888.449	597.62
1892.718	595.62
1896.982	613.62
1901.243	593.62
1905.499	598.62
1909.752	595.62
1914	593.62
1918.245	597.62
1922.485	597.62
1926.722	592.62
1930.954	605.62
1935.183	619.62
1939.408	609.62
1943.628	599.62
1947.845	602.62
1952.058	604.62
1956.267	594.62
1960.472	587.62
1964.673	580.62
1968.87	586.62
1973.063	566.62
1977.252	564.62
1981.438	559.62
1985.619	566.62
1989.797	566.62
1993.971	561.62
1998.14	564.62
2002.306	570.62
2006.469	575.62
2010.627	582.62
2014.781	572.62
2018.932	585.62
2023.078	569.62
2027.221	571.62
2031.36	565.62
2035.495	555.62
2039.627	556.62
2043.754	561.62
2047.878	571.62
2051.998	551.62
2056.114	568.62
2060.226	562.62
2064.334	565.62
2068.439	577.62
2072.54	573.62
2076.637	582.62
2080.73	570.62
2084.82	587.62
2088.906	580.62
2092.988	580.62
2097.066	573.62
2101.14	563.62
2105.211	569.62
2109.278	567.62
2113.342	557.62
2117.401	566.62
2121.457	565.62
2125.509	551.62
2129.558	542.62
2133.602	547.62
2137.643	552.62
2141.681	537.62
2145.714	537.62
2149.744	545.62
2153.77	535.62
2157.793	528.62
2161.812	527.62
2165.827	527.62
2169.838	513.62
2173.846	509.62
2177.851	493.62
2181.851	496.62
2185.848	501.62
2189.841	482.62
2193.831	474.62
2197.817	481.62
2201.799	475.62
2205.778	466.62
2209.753	465.62
2213.725	475.62
2217.693	460.62
2221.657	466.62
2225.618	462.62
2229.575	470.62
2233.529	461.62
2237.479	461.62
2241.425	451.62
2245.368	450.62
2249.307	449.62
2253.243	424.62
2257.175	430.62
2261.104	411.62
2265.029	418.62
2268.95	414.62
2272.868	401.62
2276.783	404.62
2280.694	396.62
2284.601	396.62
2288.505	392.62
2292.405	376.62
2296.302	378.62
2300.195	369.62
2304.085	372.62
2307.971	367.62
2311.854	353.62
2315.734	346.62
2319.609	330.62
2323.482	335.62
2327.351	334.62
2331.216	337.62
2335.078	336.62
2338.937	320.62
2342.792	317.62
2346.643	314.62
2350.492	319.62
2354.336	322.62
2358.178	325.62
2362.015	321.62
2365.85	316.62
2369.681	333.62
2373.508	325.62
2377.333	329.62
2381.153	320.62
2384.971	326.62
2388.785	322.62
2392.595	319.62
2396.402	316.62
2400.206	311.62
2404.007	309.62
2407.804	305.62
2411.597	310.62
2415.388	304.62
2419.174	307.62
2422.958	309.62
2426.738	309.62
2430.515	308.62
2434.289	307.62
2438.059	310.62
2441.825	300.62
2445.589	295.62
2449.349	296.62
2453.106	292.62
2456.859	292.62
2460.61	297.62
2464.356	280.62
2468.1	285.62
2471.84	289.62
2475.577	288.62
2479.311	283.62
2483.041	281.62
2486.768	288.62
2490.492	281.62
2494.213	279.62
2497.93	286.62
2501.644	286.62
2505.355	284.62
2509.062	275.62
2512.766	275.62
2516.467	287.62
2520.165	280.62
2523.859	266.62
2527.551	272.62
2531.239	265.62
2534.923	262.62
2538.605	268.62
2542.283	262.62
2545.958	263.62
2549.63	260.62
2553.299	259.62
2556.964	262.62
2560.626	266.62
2564.285	248.62
2567.941	247.62
2571.594	243.62
2575.243	255.62
2578.89	247.62
2582.533	248.62
2586.173	244.62
2589.809	246.62
2593.443	243.62
2597.073	240.62
2600.701	235.62
2604.325	238.62
2607.946	236.62
2611.564	232.62
2615.178	219.62
2618.79	229.62
2622.398	222.62
2626.004	221.62
2629.606	224.62
2633.205	218.62
2636.801	228.62
2640.394	212.62
2643.983	215.62
2647.57	221.62
2651.153	212.62
2654.734	204.62
2658.311	209.62
2661.885	202.62
2665.456	207.62
2669.025	204.62
2672.589	203.62
2676.151	195.62
2679.71	195.62
2683.266	193.62
2686.819	187.62
2690.368	189.62
2693.915	192.62
2697.458	192.62
2700.999	189.62
2704.536	180.62
2708.071	181.62
2711.602	183.62
2715.13	179.62
2718.656	188.62
2722.178	184.62
2725.697	180.62
2729.214	188.62
2732.727	189.62
2736.237	181.62
2739.744	181.62
2743.249	186.62
2746.75	186.62
2750.248	185.62
2753.743	186.62
2757.236	177.62
2760.725	179.62
2764.211	177.62
2767.695	175.62
2771.175	177.62
2774.652	174.62
2778.127	177.62
2781.598	175.62
2785.067	167.62
2788.532	164.62
2791.995	176.62
2795.455	174.62
2798.911	171.62
2802.365	176.62
2805.816	174.62
2809.264	178.62
2812.709	179.62
2816.151	179.62
2819.59	182.62
2823.026	178.62
2826.46	173.62
2829.89	183.62
2833.318	188.62
2836.742	189.62
2840.164	182.62
2843.583	187.62
2846.999	190.62
2850.412	191.62
2853.822	192.62
2857.229	196.62
2860.634	191.62
2864.035	204.62
2867.434	205.62
2870.83	209.62
2874.223	213.62
2877.613	219.62
2881	215.62
2884.385	220.62
2887.766	212.62
2891.145	212.62
2894.521	222.62
2897.894	221.62
2901.264	217.62
2904.631	226.62
2907.996	231.62
2911.358	226.62
2914.717	229.62
2918.073	231.62
2921.426	232.62
2924.777	235.62
2928.124	243.62
2931.469	242.62
2934.811	259.62
2938.15	263.62
2941.487	264.62
2944.821	275.62
2948.152	273.62
2951.48	276.62
2954.805	265.62
2958.128	282.62
2961.447	286.62
2964.765	287.62
2968.079	294.62
2971.39	300.62
2974.699	302.62
2978.005	313.62
2981.308	316.62
2984.609	331.62
2987.907	342.62
2991.202	348.62
2994.494	368.62
2997.784	358.62
3001.07	378.62
3004.355	383.62
3007.636	391.62
3010.915	396.62
3014.191	402.62
3017.464	410.62
3020.734	418.62
3024.002	434.62
3027.267	426.62
3030.53	428.62
3033.789	450.62
3037.046	463.62
3040.301	468.62
3043.552	474.62
3046.801	487.62
3050.048	501.62
3053.291	514.62
3056.532	534.62
3059.771	552.62
3063.006	569.62
3066.239	580.62
3069.469	600.62
3072.697	623.62
3075.922	639.62
3079.144	647.62
3082.364	671.62
3085.581	679.62
3088.795	698.62
3092.007	721.62
3095.216	730.62
3098.423	740.62
3101.627	765.62
3104.828	784.62
3108.026	792.62
3111.222	813.62
3114.416	823.62
3117.607	849.62
3120.795	872.62
3123.98	895.62
3127.163	912.62
3130.344	930.62
3133.521	959.62
3136.696	967.62
3139.869	986.62
3143.039	1001.62
3146.206	1015.62
3149.371	1031.62
3152.533	1051.62
3155.693	1049.62
3158.85	1042.62
3162.005	1053.62
3165.157	1075.62
3168.306	1073.62
3171.453	1078.62
3174.597	1086.62
3177.739	1086.62
3180.878	1077.62
3184.014	1086.62
3187.149	1098.62
3190.28	1104.62
3193.409	1100.62
3196.536	1087.62
3199.659	1105.62
3202.781	1103.62
3205.9	1112.62
3209.016	1103.62
3212.13	1109.62
3215.241	1098.62
3218.35	1090.62
3221.456	1080.62
3224.56	1081.62
3227.661	1072.62
3230.76	1055.62
3233.856	1053.62
3236.95	1030.62
3240.041	1023.62
3243.13	1024.62
3246.216	1007.62
3249.3	995.62
3252.382	999.62
3255.46	996.62
3258.537	986.62
3261.611	981.62
3264.682	978.62
3267.751	988.62
3270.818	960.62
3273.882	976.62
3276.943	967.62
3280.002	960.62
3283.059	946.62
3286.113	937.62
3289.165	924.62
3292.214	911.62
3295.261	898.62
3298.306	880.62
3301.348	862.62
3304.387	851.62
3307.425	850.62
3310.459	841.62
3313.492	825.62
3316.521	816.62
3319.549	799.62
3322.574	794.62
3325.597	786.62
3328.617	799.62
3331.635	782.62
3334.65	774.62
3337.663	768.62
3340.674	769.62
3343.682	760.62
3346.688	757.62
3349.691	766.62
3352.692	752.62
3355.691	749.62
3358.687	741.62
3361.681	738.62
3364.673	726.62
3367.662	709.62
3370.649	693.62
3373.633	695.62
3376.615	681.62
3379.595	679.62
3382.572	664.62
3385.547	655.62
3388.52	655.62
3391.49	648.62
3394.458	641.62
3397.424	617.62
3400.387	613.62
3403.348	610.62
3406.307	609.62
3409.263	602.62
3412.217	599.62
3415.168	588.62
3418.118	579.62
3421.065	573.62
3424.009	568.62
3426.951	553.62
3429.891	547.62
3432.829	543.62
3435.764	539.62
3438.697	513.62
3441.628	497.62
3444.557	493.62
3447.483	468.62
3450.407	466.62
3453.328	457.62
3456.247	443.62
3459.164	430.62
3462.079	414.62
3464.991	406.62
3467.902	390.62
3470.809	381.62
3473.715	367.62
3476.618	354.62
3479.519	345.62
3482.418	334.62
3485.315	337.62
3488.209	311.62
3491.101	308.62
3493.99	302.62
3496.878	290.62
3499.763	281.62
3502.646	284.62
3505.527	265.62
3508.405	268.62
3511.281	245.62
3514.155	233.62
3517.027	225.62
3519.897	214.62
3522.764	197.62
3525.629	196.62
3528.492	177.62
3531.352	171.62
3534.211	168.62
3537.067	154.62
3539.921	145.62
3542.773	137.62
3545.622	125.62
3548.469	128.62
3551.315	114.62
3554.157	108.62
3556.998	94.62
3559.837	90.62
3562.673	78.62
3565.507	82.62
3568.339	71.62
3571.169	68.62
3573.996	75.62
3576.822	59.62
3579.645	57.62
3582.466	52.62
3585.285	40.62
3588.101	37.62
3590.916	36.62
3593.728	31.62
3596.538	22.62
3599.346	21.62
3602.152	23.62
3604.956	12.62
3607.757	9.62
3610.556	-0.38
3613.354	2.62
3616.149	0.62
3618.942	-5.38
3621.732	-14.38
3624.521	-3.38
3627.307	-6.38
3630.092	-15.38
3632.874	-21.38
3635.654	-20.38
3638.432	-23.38
3641.208	-28.38
3643.982	-31.38
3646.753	-32.38
3649.523	-32.38
3652.29	-38.38
3655.055	-35.38
3657.818	-39.38
3660.579	-44.38
3663.338	-42.38
3666.095	-43.38
3668.849	-49.38
3671.602	-49.38
3674.352	-53.38
3677.101	-59.38
3679.847	-58.38
3682.591	-56.38
3685.333	-61.38
3688.073	-58.38
3690.811	-65.38
3693.547	-66.38
3696.281	-65.38
3699.013	-67.38
3701.742	-70.38
3704.47	-68.38
3707.195	-72.38
3709.919	-71.38
3712.64	-71.38
3715.359	-71.38
3718.076	-76.38
3720.792	-77.38
3723.505	-76.38
3726.216	-73.38
3728.925	-75.38
3731.632	-73.38
3734.336	-75.38
3737.039	-75.38
3739.74	-78.38
3742.439	-85.38
3745.136	-83.38
3747.83	-85.38
3750.523	-84.38
3753.213	-80.38
3755.902	-83.38
3758.589	-83.38
3761.273	-85.38
3763.956	-82.38
3766.636	-83.38
3769.315	-84.38
3771.991	-84.38
3774.665	-82.38
3777.338	-85.38
3780.008	-85.38
3782.677	-88.38
3785.343	-91.38
3788.007	-89.38
3790.67	-90.38
3793.33	-92.38
3795.989	-89.38
3798.645	-85.38
3801.299	-88.38
3803.952	-87.38
3806.602	-93.38
3809.251	-92.38
3811.897	-91.38
3814.542	-90.38
3817.184	-91.38
3819.825	-95.38
3822.463	-92.38
3825.1	-93.38
3827.735	-99.38
3830.367	-91.38
3832.998	-96.38
3835.627	-93.38
3838.253	-90.38
3840.878	-93.38
3843.501	-90.38
3846.122	-94.38
3848.741	-98.38
3851.358	-92.38
3853.973	-95.38
3856.586	-95.38
3859.197	-91.38
3861.806	-98.38
3864.414	-96.38
3867.019	-95.38
3869.622	-97.38
3872.224	-94.38
3874.823	-90.38
3877.421	-88.38
3880.016	-87.38
3882.61	-83.38
3885.202	-88.38
3887.792	-89.38
3890.38	-96.38
3892.966	-92.38
3895.55	-97.38
3898.132	-96.38
3900.713	-95.38
3903.291	-94.38
3905.868	-92.38
3908.442	-96.38
3911.015	-95.38
3913.586	-97.38
3916.155	-98.38
3918.722	-101.38
3921.287	-98.38
3923.85	-97.38
3926.411	-100.38
3928.971	-99.38
3931.528	-104.38
3934.084	-99.38
3936.638	-100.38
3939.19	-98.38
3941.74	-98.38
3944.288	-97.38
3946.834	-94.38
3949.378	-97.38
3951.921	-94.38
3954.462	-101.38
3957	-100.38
3959.537	-99.38
3962.072	-101.38
3964.606	-100.38
3967.137	-98.38
3969.667	-94.38
3972.194	-98.38
3974.72	-96.38
3977.244	-96.38
3979.766	-97.38
3982.286	-93.38
3984.805	-94.38
3987.321	-95.38
3989.836	-97.38
3992.349	-99.38
3994.86	-98.38
3997.369	-98.38
3999.877	-97.38
4002.382	-92.38
4004.886	-93.38
4007.388	-93.38
4009.888	-94.38
4012.386	-92.38
4014.883	-95.38
4017.377	-101.38
4019.87	-95.38
4022.361	-98.38
4024.85	-100.38
4027.338	-97.38
4029.823	-99.38
4032.307	-96.38
4034.789	-97.38
4037.269	-97.38
4039.747	-98.38
4042.224	-98.38
4044.699	-100.38
4047.172	-96.38
4049.643	-97.38
4052.112	-95.38
4054.58	-97.38
4057.046	-98.38
4059.51	-100.38
4061.972	-103.38
4064.432	-99.38
4066.891	-96.38
4069.348	-94.38
4071.803	-96.38
4074.256	-93.38
4076.708	-90.38
4079.158	-96.38
4081.606	-99.38
4084.052	-102.38
4086.497	-99.38
4088.939	-99.38
4091.38	-99.38
4093.819	-96.38
4096.257	-102.38
4098.693	-100.38
4101.127	-100.38
4103.559	-97.38
4105.989	-67.38
4108.418	-58.38
4110.845	-58.38
4113.27	-55.38
4115.694	-51.38
4118.115	-42.38
4120.535	-94.38
4122.954	-93.38
4125.37	-97.38
4127.785	-96.38
4130.198	-96.38
4132.609	-97.38
4135.019	-97.38
4137.427	-101.38
4139.833	-100.38
4142.237	-101.38
