Data from 10000000CFU1_B_RamanShift_1.txt Node
Date: Mon Jan 23 14:47:27 IST 2017
User: aro
Spectrometer: QEPB0276
Trigger mode: 0
Integration Time (sec): 5.000000E0
Scans to average: 1
Electric dark correction enabled: true
Nonlinearity correction enabled: false
Boxcar width: 0
XAxis mode: Raman Shifts
Number of Pixels in Spectrum: 1044
>>>>>Begin Spectral Data<<<<<
160.701	-33.12
166.742	1.88
172.777	94.88
178.805	391.88
184.826	1091.88
190.841	2251.88
196.849	3530.88
202.85	4374.88
208.845	4575.88
214.833	4467.88
220.815	4281.88
226.789	4164.88
232.758	4047.88
238.719	3952.88
244.674	3776.88
250.623	3627.88
256.565	3488.88
262.5	3318.88
268.429	3189.88
274.351	3064.88
280.267	2937.88
286.176	2825.88
292.079	2725.88
297.975	2625.88
303.865	2559.88
309.748	2495.88
315.625	2413.88
321.495	2395.88
327.359	2340.88
333.217	2309.88
339.068	2293.88
344.912	2279.88
350.751	2280.88
356.583	2281.88
362.408	2282.88
368.227	2263.88
374.04	2273.88
379.847	2284.88
385.647	2289.88
391.44	2304.88
397.228	2304.88
403.009	2333.88
408.784	2344.88
414.553	2350.88
420.315	2354.88
426.071	2365.88
431.821	2371.88
437.565	2362.88
443.302	2356.88
449.033	2351.88
454.758	2356.88
460.477	2338.88
466.189	2334.88
471.896	2328.88
477.596	2302.88
483.29	2292.88
488.978	2277.88
494.66	2280.88
500.335	2253.88
506.005	2244.88
511.668	2183.88
517.325	2146.88
522.977	2133.88
528.622	2100.88
534.261	2092.88
539.894	2068.88
545.521	2045.88
551.141	2057.88
556.756	2027.88
562.365	2021.88
567.968	1997.88
573.565	1996.88
579.155	1982.88
584.74	1957.88
590.319	1960.88
595.892	1970.88
601.459	1955.88
607.02	1932.88
612.575	1922.88
618.124	1902.88
623.667	1871.88
629.204	1863.88
634.735	1863.88
640.261	1830.88
645.781	1816.88
651.294	1830.88
656.802	1828.88
662.304	1826.88
667.8	1789.88
673.29	1806.88
678.775	1801.88
684.254	1787.88
689.726	1786.88
695.193	1758.88
700.655	1766.88
706.11	1748.88
711.56	1730.88
717.004	1740.88
722.442	1716.88
727.874	1701.88
733.301	1726.88
738.722	1699.88
744.137	1673.88
749.547	1691.88
754.951	1672.88
760.349	1693.88
765.741	1679.88
771.128	1671.88
776.509	1674.88
781.885	1682.88
787.254	1679.88
792.618	1649.88
797.977	1643.88
803.33	1639.88
808.677	1643.88
814.019	1619.88
819.355	1617.88
824.686	1593.88
830.011	1577.88
835.33	1578.88
840.644	1558.88
845.952	1579.88
851.255	1555.88
856.552	1554.88
861.844	1552.88
867.13	1553.88
872.41	1531.88
877.686	1514.88
882.955	1509.88
888.219	1481.88
893.478	1456.88
898.731	1447.88
903.979	1420.88
909.221	1423.88
914.458	1403.88
919.69	1391.88
924.916	1405.88
930.136	1382.88
935.351	1390.88
940.561	1377.88
945.766	1387.88
950.965	1389.88
956.158	1361.88
961.347	1345.88
966.529	1336.88
971.707	1305.88
976.879	1301.88
982.046	1289.88
987.208	1288.88
992.364	1277.88
997.515	1299.88
1002.66	1312.88
1007.801	1308.88
1012.936	1321.88
1018.066	1326.88
1023.19	1349.88
1028.309	1352.88
1033.423	1350.88
1038.532	1346.88
1043.636	1318.88
1048.734	1303.88
1053.827	1299.88
1058.915	1272.88
1063.998	1266.88
1069.075	1273.88
1074.147	1267.88
1079.214	1292.88
1084.276	1282.88
1089.333	1310.88
1094.385	1311.88
1099.431	1320.88
1104.472	1325.88
1109.509	1311.88
1114.54	1289.88
1119.565	1282.88
1124.586	1273.88
1129.602	1263.88
1134.613	1258.88
1139.618	1258.88
1144.619	1258.88
1149.614	1245.88
1154.604	1266.88
1159.589	1260.88
1164.57	1271.88
1169.545	1267.88
1174.515	1263.88
1179.48	1263.88
1184.44	1257.88
1189.395	1252.88
1194.345	1259.88
1199.29	1250.88
1204.23	1243.88
1209.165	1270.88
1214.095	1258.88
1219.021	1260.88
1223.941	1292.88
1228.856	1283.88
1233.766	1295.88
1238.672	1309.88
1243.572	1296.88
1248.467	1279.88
1253.358	1269.88
1258.244	1267.88
1263.124	1242.88
1268	1223.88
1272.871	1209.88
1277.737	1212.88
1282.599	1192.88
1287.455	1214.88
1292.306	1217.88
1297.153	1217.88
1301.995	1221.88
1306.832	1229.88
1311.664	1240.88
1316.491	1236.88
1321.314	1236.88
1326.132	1229.88
1330.945	1212.88
1335.753	1204.88
1340.556	1200.88
1345.354	1186.88
1350.148	1192.88
1354.937	1178.88
1359.722	1160.88
1364.501	1159.88
1369.276	1140.88
1374.046	1131.88
1378.811	1126.88
1383.572	1119.88
1388.327	1103.88
1393.079	1107.88
1397.825	1109.88
1402.567	1110.88
1407.304	1098.88
1412.036	1090.88
1416.764	1085.88
1421.487	1082.88
1426.205	1084.88
1430.919	1098.88
1435.628	1109.88
1440.333	1129.88
1445.032	1132.88
1449.727	1146.88
1454.418	1143.88
1459.104	1143.88
1463.785	1143.88
1468.462	1150.88
1473.134	1117.88
1477.802	1117.88
1482.465	1115.88
1487.123	1103.88
1491.777	1118.88
1496.426	1103.88
1501.071	1125.88
1505.711	1146.88
1510.347	1153.88
1514.978	1138.88
1519.604	1170.88
1524.226	1151.88
1528.844	1161.88
1533.457	1153.88
1538.065	1153.88
1542.669	1147.88
1547.269	1142.88
1551.864	1138.88
1556.454	1158.88
1561.041	1144.88
1565.622	1185.88
1570.199	1185.88
1574.772	1207.88
1579.34	1230.88
1583.904	1261.88
1588.464	1278.88
1593.019	1282.88
1597.569	1299.88
1602.115	1288.88
1606.657	1316.88
1611.195	1334.88
1615.728	1334.88
1620.256	1352.88
1624.78	1370.88
1629.3	1392.88
1633.816	1404.88
1638.327	1419.88
1642.834	1438.88
1647.336	1445.88
1651.834	1443.88
1656.328	1446.88
1660.817	1448.88
1665.302	1446.88
1669.783	1405.88
1674.259	1377.88
1678.732	1328.88
1683.199	1294.88
1687.663	1263.88
1692.122	1228.88
1696.577	1182.88
1701.028	1123.88
1705.474	1066.88
1709.917	1042.88
1714.355	1009.88
1718.788	1008.88
1723.218	992.88
1727.643	986.88
1732.064	970.88
1736.481	933.88
1740.893	902.88
1745.301	885.88
1749.705	876.88
1754.105	848.88
1758.501	832.88
1762.893	818.88
1767.28	808.88
1771.663	797.88
1776.042	804.88
1780.417	800.88
1784.787	823.88
1789.154	806.88
1793.516	812.88
1797.874	806.88
1802.228	797.88
1806.578	791.88
1810.924	775.88
1815.266	760.88
1819.603	747.88
1823.937	736.88
1828.266	732.88
1832.591	733.88
1836.913	717.88
1841.23	727.88
1845.543	707.88
1849.852	717.88
1854.156	726.88
1858.457	735.88
1862.754	737.88
1867.047	728.88
1871.335	740.88
1875.62	761.88
1879.9	753.88
1884.177	745.88
1888.449	746.88
1892.718	726.88
1896.982	744.88
1901.243	744.88
1905.499	745.88
1909.752	738.88
1914	728.88
1918.245	730.88
1922.485	732.88
1926.722	739.88
1930.954	736.88
1935.183	754.88
1939.408	744.88
1943.628	754.88
1947.845	757.88
1952.058	740.88
1956.267	736.88
1960.472	738.88
1964.673	716.88
1968.87	712.88
1973.063	701.88
1977.252	680.88
1981.438	685.88
1985.619	704.88
1989.797	689.88
1993.971	694.88
1998.14	691.88
2002.306	700.88
2006.469	707.88
2010.627	707.88
2014.781	700.88
2018.932	704.88
2023.078	699.88
2027.221	707.88
2031.36	695.88
2035.495	693.88
2039.627	692.88
2043.754	686.88
2047.878	685.88
2051.998	685.88
2056.114	686.88
2060.226	680.88
2064.334	690.88
2068.439	684.88
2072.54	689.88
2076.637	711.88
2080.73	699.88
2084.82	709.88
2088.906	700.88
2092.988	698.88
2097.066	707.88
2101.14	695.88
2105.211	687.88
2109.278	685.88
2113.342	685.88
2117.401	684.88
2121.457	669.88
2125.509	673.88
2129.558	660.88
2133.602	656.88
2137.643	654.88
2141.681	662.88
2145.714	656.88
2149.744	646.88
2153.77	641.88
2157.793	655.88
2161.812	644.88
2165.827	630.88
2169.838	615.88
2173.846	616.88
2177.851	603.88
2181.851	592.88
2185.848	594.88
2189.841	576.88
2193.831	582.88
2197.817	587.88
2201.799	569.88
2205.778	567.88
2209.753	564.88
2213.725	573.88
2217.693	575.88
2221.657	569.88
2225.618	567.88
2229.575	564.88
2233.529	561.88
2237.479	550.88
2241.425	547.88
2245.368	547.88
2249.307	535.88
2253.243	533.88
2257.175	513.88
2261.104	511.88
2265.029	493.88
2268.95	500.88
2272.868	487.88
2276.783	494.88
2280.694	480.88
2284.601	476.88
2288.505	466.88
2292.405	468.88
2296.302	461.88
2300.195	447.88
2304.085	439.88
2307.971	434.88
2311.854	425.88
2315.734	426.88
2319.609	407.88
2323.482	414.88
2327.351	410.88
2331.216	406.88
2335.078	406.88
2338.937	396.88
2342.792	405.88
2346.643	393.88
2350.492	386.88
2354.336	382.88
2358.178	390.88
2362.015	394.88
2365.85	400.88
2369.681	403.88
2373.508	404.88
2377.333	396.88
2381.153	395.88
2384.971	394.88
2388.785	397.88
2392.595	389.88
2396.402	392.88
2400.206	381.88
2404.007	380.88
2407.804	388.88
2411.597	381.88
2415.388	371.88
2419.174	378.88
2422.958	373.88
2426.738	375.88
2430.515	374.88
2434.289	369.88
2438.059	372.88
2441.825	366.88
2445.589	357.88
2449.349	354.88
2453.106	353.88
2456.859	357.88
2460.61	353.88
2464.356	350.88
2468.1	348.88
2471.84	347.88
2475.577	348.88
2479.311	347.88
2483.041	348.88
2486.768	344.88
2490.492	345.88
2494.213	340.88
2497.93	348.88
2501.644	345.88
2505.355	349.88
2509.062	344.88
2512.766	346.88
2516.467	329.88
2520.165	341.88
2523.859	335.88
2527.551	335.88
2531.239	325.88
2534.923	331.88
2538.605	321.88
2542.283	320.88
2545.958	327.88
2549.63	324.88
2553.299	319.88
2556.964	309.88
2560.626	317.88
2564.285	310.88
2567.941	304.88
2571.594	308.88
2575.243	303.88
2578.89	310.88
2582.533	304.88
2586.173	298.88
2589.809	292.88
2593.443	300.88
2597.073	284.88
2600.701	295.88
2604.325	288.88
2607.946	291.88
2611.564	287.88
2615.178	277.88
2618.79	283.88
2622.398	273.88
2626.004	272.88
2629.606	278.88
2633.205	282.88
2636.801	275.88
2640.394	270.88
2643.983	265.88
2647.57	256.88
2651.153	253.88
2654.734	258.88
2658.311	249.88
2661.885	253.88
2665.456	257.88
2669.025	251.88
2672.589	252.88
2676.151	245.88
2679.71	244.88
2683.266	239.88
2686.819	239.88
2690.368	240.88
2693.915	232.88
2697.458	234.88
2700.999	228.88
2704.536	222.88
2708.071	231.88
2711.602	230.88
2715.13	223.88
2718.656	229.88
2722.178	226.88
2725.697	229.88
2729.214	235.88
2732.727	224.88
2736.237	221.88
2739.744	230.88
2743.249	229.88
2746.75	239.88
2750.248	227.88
2753.743	227.88
2757.236	219.88
2760.725	222.88
2764.211	219.88
2767.695	215.88
2771.175	213.88
2774.652	217.88
2778.127	218.88
2781.598	211.88
2785.067	209.88
2788.532	213.88
2791.995	209.88
2795.455	212.88
2798.911	215.88
2802.365	219.88
2805.816	215.88
2809.264	222.88
2812.709	223.88
2816.151	213.88
2819.59	222.88
2823.026	214.88
2826.46	218.88
2829.89	226.88
2833.318	228.88
2836.742	219.88
2840.164	224.88
2843.583	224.88
2846.999	232.88
2850.412	225.88
2853.822	230.88
2857.229	226.88
2860.634	231.88
2864.035	237.88
2867.434	243.88
2870.83	243.88
2874.223	253.88
2877.613	241.88
2881	252.88
2884.385	246.88
2887.766	249.88
2891.145	247.88
2894.521	245.88
2897.894	239.88
2901.264	246.88
2904.631	257.88
2907.996	250.88
2911.358	258.88
2914.717	257.88
2918.073	256.88
2921.426	260.88
2924.777	265.88
2928.124	269.88
2931.469	279.88
2934.811	289.88
2938.15	297.88
2941.487	294.88
2944.821	300.88
2948.152	309.88
2951.48	303.88
2954.805	311.88
2958.128	318.88
2961.447	314.88
2964.765	323.88
2968.079	330.88
2971.39	338.88
2974.699	340.88
2978.005	357.88
2981.308	367.88
2984.609	361.88
2987.907	373.88
2991.202	390.88
2994.494	411.88
2997.784	415.88
3001.07	418.88
3004.355	428.88
3007.636	428.88
3010.915	441.88
3014.191	461.88
3017.464	463.88
3020.734	473.88
3024.002	475.88
3027.267	491.88
3030.53	487.88
3033.789	499.88
3037.046	508.88
3040.301	528.88
3043.552	535.88
3046.801	537.88
3050.048	556.88
3053.291	581.88
3056.532	592.88
3059.771	602.88
3063.006	622.88
3066.239	644.88
3069.469	673.88
3072.697	693.88
3075.922	712.88
3079.144	727.88
3082.364	734.88
3085.581	762.88
3088.795	775.88
3092.007	802.88
3095.216	816.88
3098.423	838.88
3101.627	865.88
3104.828	856.88
3108.026	886.88
3111.222	908.88
3114.416	921.88
3117.607	939.88
3120.795	970.88
3123.98	989.88
3127.163	991.88
3130.344	1033.88
3133.521	1068.88
3136.696	1081.88
3139.869	1102.88
3143.039	1105.88
3146.206	1125.88
3149.371	1136.88
3152.533	1158.88
3155.693	1165.88
3158.85	1172.88
3162.005	1180.88
3165.157	1187.88
3168.306	1190.88
3171.453	1177.88
3174.597	1188.88
3177.739	1188.88
3180.878	1211.88
3184.014	1190.88
3187.149	1204.88
3190.28	1207.88
3193.409	1219.88
3196.536	1201.88
3199.659	1213.88
3202.781	1222.88
3205.9	1223.88
3209.016	1216.88
3212.13	1216.88
3215.241	1211.88
3218.35	1203.88
3221.456	1195.88
3224.56	1204.88
3227.661	1182.88
3230.76	1154.88
3233.856	1147.88
3236.95	1146.88
3240.041	1137.88
3243.13	1127.88
3246.216	1116.88
3249.3	1097.88
3252.382	1084.88
3255.46	1091.88
3258.537	1102.88
3261.611	1100.88
3264.682	1082.88
3267.751	1074.88
3270.818	1072.88
3273.882	1058.88
3276.943	1059.88
3280.002	1051.88
3283.059	1055.88
3286.113	1041.88
3289.165	1014.88
3292.214	994.88
3295.261	975.88
3298.306	965.88
3301.348	956.88
3304.387	927.88
3307.425	919.88
3310.459	910.88
3313.492	890.88
3316.521	885.88
3319.549	874.88
3322.574	863.88
3325.597	860.88
3328.617	856.88
3331.635	849.88
3334.65	849.88
3337.663	843.88
3340.674	832.88
3343.682	832.88
3346.688	826.88
3349.691	821.88
3352.692	822.88
3355.691	813.88
3358.687	807.88
3361.681	813.88
3364.673	773.88
3367.662	775.88
3370.649	770.88
3373.633	760.88
3376.615	742.88
3379.595	751.88
3382.572	724.88
3385.547	730.88
3388.52	716.88
3391.49	700.88
3394.458	681.88
3397.424	673.88
3400.387	670.88
3403.348	668.88
3406.307	652.88
3409.263	661.88
3412.217	638.88
3415.168	639.88
3418.118	628.88
3421.065	625.88
3424.009	613.88
3426.951	598.88
3429.891	586.88
3432.829	588.88
3435.764	574.88
3438.697	564.88
3441.628	545.88
3444.557	536.88
3447.483	521.88
3450.407	510.88
3453.328	489.88
3456.247	480.88
3459.164	475.88
3462.079	454.88
3464.991	437.88
3467.902	432.88
3470.809	395.88
3473.715	392.88
3476.618	381.88
3479.519	371.88
3482.418	360.88
3485.315	355.88
3488.209	347.88
3491.101	332.88
3493.99	324.88
3496.878	310.88
3499.763	305.88
3502.646	297.88
3505.527	285.88
3508.405	271.88
3511.281	262.88
3514.155	256.88
3517.027	239.88
3519.897	231.88
3522.764	211.88
3525.629	198.88
3528.492	201.88
3531.352	180.88
3534.211	166.88
3537.067	157.88
3539.921	153.88
3542.773	142.88
3545.622	127.88
3548.469	120.88
3551.315	112.88
3554.157	115.88
3556.998	101.88
3559.837	102.88
3562.673	92.88
3565.507	78.88
3568.339	78.88
3571.169	72.88
3573.996	67.88
3576.822	56.88
3579.645	53.88
3582.466	46.88
3585.285	46.88
3588.101	34.88
3590.916	37.88
3593.728	31.88
3596.538	25.88
3599.346	25.88
3602.152	18.88
3604.956	11.88
3607.757	5.88
3610.556	-0.12
3613.354	-4.12
3616.149	-5.12
3618.942	-12.12
3621.732	-18.12
3624.521	-19.12
3627.307	-14.12
3630.092	-18.12
3632.874	-25.12
3635.654	-25.12
3638.432	-24.12
3641.208	-25.12
3643.982	-32.12
3646.753	-37.12
3649.523	-41.12
3652.29	-44.12
3655.055	-45.12
3657.818	-52.12
3660.579	-54.12
3663.338	-60.12
3666.095	-54.12
3668.849	-57.12
3671.602	-60.12
3674.352	-64.12
3677.101	-63.12
3679.847	-63.12
3682.591	-71.12
3685.333	-72.12
3688.073	-75.12
3690.811	-73.12
3693.547	-75.12
3696.281	-80.12
3699.013	-80.12
3701.742	-81.12
3704.47	-79.12
3707.195	-82.12
3709.919	-80.12
3712.64	-82.12
3715.359	-80.12
3718.076	-83.12
3720.792	-89.12
3723.505	-87.12
3726.216	-89.12
3728.925	-88.12
3731.632	-90.12
3734.336	-91.12
3737.039	-93.12
3739.74	-93.12
3742.439	-92.12
3745.136	-96.12
3747.83	-96.12
3750.523	-92.12
3753.213	-91.12
3755.902	-92.12
3758.589	-96.12
3761.273	-96.12
3763.956	-95.12
3766.636	-96.12
3769.315	-100.12
3771.991	-97.12
3774.665	-100.12
3777.338	-96.12
3780.008	-100.12
3782.677	-100.12
3785.343	-96.12
3788.007	-97.12
3790.67	-101.12
3793.33	-101.12
3795.989	-97.12
3798.645	-100.12
3801.299	-104.12
3803.952	-107.12
3806.602	-110.12
3809.251	-102.12
3811.897	-100.12
3814.542	-102.12
3817.184	-102.12
3819.825	-105.12
3822.463	-100.12
3825.1	-103.12
3827.735	-109.12
3830.367	-104.12
3832.998	-109.12
3835.627	-107.12
3838.253	-106.12
3840.878	-106.12
3843.501	-107.12
3846.122	-105.12
3848.741	-110.12
3851.358	-106.12
3853.973	-108.12
3856.586	-103.12
3859.197	-104.12
3861.806	-107.12
3864.414	-108.12
3867.019	-109.12
3869.622	-110.12
3872.224	-109.12
3874.823	-107.12
3877.421	-105.12
3880.016	-102.12
3882.61	-97.12
3885.202	-104.12
3887.792	-101.12
3890.38	-106.12
3892.966	-104.12
3895.55	-108.12
3898.132	-107.12
3900.713	-112.12
3903.291	-109.12
3905.868	-111.12
3908.442	-112.12
3911.015	-116.12
3913.586	-112.12
3916.155	-112.12
3918.722	-113.12
3921.287	-108.12
3923.85	-109.12
3926.411	-108.12
3928.971	-112.12
3931.528	-113.12
3934.084	-110.12
3936.638	-113.12
3939.19	-114.12
3941.74	-113.12
3944.288	-113.12
3946.834	-110.12
3949.378	-110.12
3951.921	-111.12
3954.462	-114.12
3957	-114.12
3959.537	-112.12
3962.072	-116.12
3964.606	-111.12
3967.137	-112.12
3969.667	-109.12
3972.194	-113.12
3974.72	-111.12
3977.244	-112.12
3979.766	-112.12
3982.286	-108.12
3984.805	-105.12
3987.321	-106.12
3989.836	-106.12
3992.349	-109.12
3994.86	-111.12
3997.369	-110.12
3999.877	-112.12
4002.382	-108.12
4004.886	-110.12
4007.388	-107.12
4009.888	-112.12
4012.386	-110.12
4014.883	-109.12
4017.377	-116.12
4019.87	-108.12
4022.361	-106.12
4024.85	-112.12
4027.338	-109.12
4029.823	-107.12
4032.307	-109.12
4034.789	-109.12
4037.269	-113.12
4039.747	-112.12
4042.224	-116.12
4044.699	-112.12
4047.172	-108.12
4049.643	-107.12
4052.112	-111.12
4054.58	-110.12
4057.046	-109.12
4059.51	-113.12
4061.972	-113.12
4064.432	-114.12
4066.891	-113.12
4069.348	-110.12
4071.803	-113.12
4074.256	-109.12
4076.708	-106.12
4079.158	-112.12
4081.606	-111.12
4084.052	-111.12
4086.497	-107.12
4088.939	-111.12
4091.38	-112.12
4093.819	-110.12
4096.257	-116.12
4098.693	-113.12
4101.127	-115.12
4103.559	-115.12
4105.989	-77.12
4108.418	-72.12
4110.845	-67.12
4113.27	-63.12
4115.694	-58.12
4118.115	-50.12
4120.535	-110.12
4122.954	-108.12
4125.37	-114.12
4127.785	-114.12
4130.198	-114.12
4132.609	-113.12
4135.019	-116.12
4137.427	-116.12
4139.833	-112.12
4142.237	-111.12
