Data from 10000000CFU2_A_RamanShift_1.txt Node
Date: Mon Jan 23 14:45:07 IST 2017
User: aro
Spectrometer: QEPB0276
Trigger mode: 0
Integration Time (sec): 5.000000E0
Scans to average: 1
Electric dark correction enabled: true
Nonlinearity correction enabled: false
Boxcar width: 0
XAxis mode: Raman Shifts
Number of Pixels in Spectrum: 1044
>>>>>Begin Spectral Data<<<<<
160.701	-31.38
166.742	-3.38
172.777	100.62
178.805	413.62
184.826	1148.62
190.841	2387.62
196.849	3780.62
202.85	4718.62
208.845	4924.62
214.833	4811.62
220.815	4654.62
226.789	4554.62
232.758	4468.62
238.719	4318.62
244.674	4159.62
250.623	4012.62
256.565	3890.62
262.5	3721.62
268.429	3586.62
274.351	3474.62
280.267	3352.62
286.176	3248.62
292.079	3179.62
297.975	3062.62
303.865	3012.62
309.748	2902.62
315.625	2877.62
321.495	2834.62
327.359	2781.62
333.217	2771.62
339.068	2747.62
344.912	2738.62
350.751	2737.62
356.583	2727.62
362.408	2720.62
368.227	2695.62
374.04	2714.62
379.847	2734.62
385.647	2737.62
391.44	2758.62
397.228	2766.62
403.009	2771.62
408.784	2780.62
414.553	2814.62
420.315	2809.62
426.071	2814.62
431.821	2824.62
437.565	2833.62
443.302	2826.62
449.033	2818.62
454.758	2801.62
460.477	2804.62
466.189	2795.62
471.896	2762.62
477.596	2756.62
483.29	2740.62
488.978	2743.62
494.66	2734.62
500.335	2704.62
506.005	2669.62
511.668	2642.62
517.325	2598.62
522.977	2567.62
528.622	2561.62
534.261	2521.62
539.894	2500.62
545.521	2495.62
551.141	2482.62
556.756	2482.62
562.365	2468.62
567.968	2436.62
573.565	2429.62
579.155	2414.62
584.74	2432.62
590.319	2417.62
595.892	2386.62
601.459	2371.62
607.02	2353.62
612.575	2339.62
618.124	2302.62
623.667	2299.62
629.204	2275.62
634.735	2289.62
640.261	2262.62
645.781	2275.62
651.294	2261.62
656.802	2240.62
662.304	2245.62
667.8	2228.62
673.29	2221.62
678.775	2228.62
684.254	2198.62
689.726	2212.62
695.193	2191.62
700.655	2170.62
706.11	2172.62
711.56	2182.62
717.004	2153.62
722.442	2154.62
727.874	2119.62
733.301	2123.62
738.722	2100.62
744.137	2110.62
749.547	2104.62
754.951	2083.62
760.349	2105.62
765.741	2104.62
771.128	2081.62
776.509	2095.62
781.885	2113.62
787.254	2086.62
792.618	2082.62
797.977	2053.62
803.33	2074.62
808.677	2034.62
814.019	2008.62
819.355	1985.62
824.686	1994.62
830.011	1969.62
835.33	1963.62
840.644	1973.62
845.952	1962.62
851.255	1959.62
856.552	1947.62
861.844	1942.62
867.13	1941.62
872.41	1936.62
877.686	1922.62
882.955	1906.62
888.219	1871.62
893.478	1839.62
898.731	1832.62
903.979	1792.62
909.221	1781.62
914.458	1793.62
919.69	1788.62
924.916	1803.62
930.136	1776.62
935.351	1775.62
940.561	1765.62
945.766	1768.62
950.965	1753.62
956.158	1749.62
961.347	1721.62
966.529	1687.62
971.707	1682.62
976.879	1655.62
982.046	1658.62
987.208	1643.62
992.364	1637.62
997.515	1644.62
1002.66	1644.62
1007.801	1687.62
1012.936	1678.62
1018.066	1692.62
1023.19	1705.62
1028.309	1693.62
1033.423	1713.62
1038.532	1700.62
1043.636	1688.62
1048.734	1658.62
1053.827	1643.62
1058.915	1635.62
1063.998	1626.62
1069.075	1616.62
1074.147	1633.62
1079.214	1620.62
1084.276	1623.62
1089.333	1647.62
1094.385	1660.62
1099.431	1665.62
1104.472	1656.62
1109.509	1659.62
1114.54	1618.62
1119.565	1613.62
1124.586	1607.62
1129.602	1571.62
1134.613	1575.62
1139.618	1565.62
1144.619	1560.62
1149.614	1558.62
1154.604	1567.62
1159.589	1588.62
1164.57	1596.62
1169.545	1598.62
1174.515	1596.62
1179.48	1577.62
1184.44	1584.62
1189.395	1557.62
1194.345	1569.62
1199.29	1562.62
1204.23	1554.62
1209.165	1560.62
1214.095	1572.62
1219.021	1590.62
1223.941	1598.62
1228.856	1618.62
1233.766	1616.62
1238.672	1633.62
1243.572	1618.62
1248.467	1613.62
1253.358	1572.62
1258.244	1561.62
1263.124	1550.62
1268	1526.62
1272.871	1494.62
1277.737	1491.62
1282.599	1500.62
1287.455	1482.62
1292.306	1509.62
1297.153	1509.62
1301.995	1535.62
1306.832	1535.62
1311.664	1540.62
1316.491	1542.62
1321.314	1544.62
1326.132	1542.62
1330.945	1513.62
1335.753	1500.62
1340.556	1490.62
1345.354	1481.62
1350.148	1472.62
1354.937	1455.62
1359.722	1452.62
1364.501	1439.62
1369.276	1432.62
1374.046	1414.62
1378.811	1389.62
1383.572	1371.62
1388.327	1365.62
1393.079	1358.62
1397.825	1373.62
1402.567	1371.62
1407.304	1347.62
1412.036	1347.62
1416.764	1349.62
1421.487	1363.62
1426.205	1359.62
1430.919	1373.62
1435.628	1386.62
1440.333	1393.62
1445.032	1396.62
1449.727	1416.62
1454.418	1437.62
1459.104	1437.62
1463.785	1419.62
1468.462	1414.62
1473.134	1401.62
1477.802	1368.62
1482.465	1383.62
1487.123	1385.62
1491.777	1366.62
1496.426	1362.62
1501.071	1380.62
1505.711	1420.62
1510.347	1412.62
1514.978	1409.62
1519.604	1429.62
1524.226	1428.62
1528.844	1423.62
1533.457	1390.62
1538.065	1398.62
1542.669	1388.62
1547.269	1379.62
1551.864	1390.62
1556.454	1390.62
1561.041	1391.62
1565.622	1409.62
1570.199	1433.62
1574.772	1445.62
1579.34	1459.62
1583.904	1478.62
1588.464	1501.62
1593.019	1520.62
1597.569	1528.62
1602.115	1541.62
1606.657	1547.62
1611.195	1557.62
1615.728	1550.62
1620.256	1573.62
1624.78	1574.62
1629.3	1604.62
1633.816	1625.62
1638.327	1653.62
1642.834	1673.62
1647.336	1673.62
1651.834	1676.62
1656.328	1683.62
1660.817	1662.62
1665.302	1652.62
1669.783	1622.62
1674.259	1604.62
1678.732	1564.62
1683.199	1523.62
1687.663	1483.62
1692.122	1441.62
1696.577	1378.62
1701.028	1333.62
1705.474	1279.62
1709.917	1233.62
1714.355	1207.62
1718.788	1203.62
1723.218	1187.62
1727.643	1175.62
1732.064	1156.62
1736.481	1135.62
1740.893	1107.62
1745.301	1079.62
1749.705	1073.62
1754.105	1030.62
1758.501	1025.62
1762.893	1011.62
1767.28	993.62
1771.663	992.62
1776.042	976.62
1780.417	987.62
1784.787	995.62
1789.154	993.62
1793.516	1000.62
1797.874	978.62
1802.228	973.62
1806.578	965.62
1810.924	951.62
1815.266	944.62
1819.603	905.62
1823.937	901.62
1828.266	900.62
1832.591	894.62
1836.913	899.62
1841.23	890.62
1845.543	883.62
1849.852	891.62
1854.156	888.62
1858.457	906.62
1862.754	902.62
1867.047	892.62
1871.335	919.62
1875.62	914.62
1879.9	916.62
1884.177	907.62
1888.449	904.62
1892.718	893.62
1896.982	917.62
1901.243	905.62
1905.499	893.62
1909.752	894.62
1914	884.62
1918.245	879.62
1922.485	892.62
1926.722	890.62
1930.954	898.62
1935.183	902.62
1939.408	906.62
1943.628	898.62
1947.845	901.62
1952.058	888.62
1956.267	883.62
1960.472	879.62
1964.673	855.62
1968.87	854.62
1973.063	841.62
1977.252	828.62
1981.438	828.62
1985.619	830.62
1989.797	816.62
1993.971	825.62
1998.14	828.62
2002.306	833.62
2006.469	826.62
2010.627	836.62
2014.781	830.62
2018.932	837.62
2023.078	808.62
2027.221	826.62
2031.36	819.62
2035.495	806.62
2039.627	817.62
2043.754	800.62
2047.878	791.62
2051.998	814.62
2056.114	802.62
2060.226	806.62
2064.334	796.62
2068.439	812.62
2072.54	808.62
2076.637	814.62
2080.73	823.62
2084.82	816.62
2088.906	815.62
2092.988	818.62
2097.066	805.62
2101.14	799.62
2105.211	795.62
2109.278	787.62
2113.342	776.62
2117.401	768.62
2121.457	776.62
2125.509	780.62
2129.558	760.62
2133.602	755.62
2137.643	753.62
2141.681	764.62
2145.714	756.62
2149.744	745.62
2153.77	740.62
2157.793	745.62
2161.812	729.62
2165.827	726.62
2169.838	709.62
2173.846	707.62
2177.851	702.62
2181.851	688.62
2185.848	674.62
2189.841	667.62
2193.831	660.62
2197.817	658.62
2201.799	665.62
2205.778	652.62
2209.753	651.62
2213.725	658.62
2217.693	656.62
2221.657	655.62
2225.618	650.62
2229.575	640.62
2233.529	637.62
2237.479	632.62
2241.425	618.62
2245.368	623.62
2249.307	613.62
2253.243	606.62
2257.175	595.62
2261.104	591.62
2265.029	579.62
2268.95	577.62
2272.868	567.62
2276.783	559.62
2280.694	552.62
2284.601	534.62
2288.505	533.62
2292.405	529.62
2296.302	527.62
2300.195	518.62
2304.085	512.62
2307.971	504.62
2311.854	495.62
2315.734	495.62
2319.609	481.62
2323.482	466.62
2327.351	464.62
2331.216	462.62
2335.078	463.62
2338.937	457.62
2342.792	450.62
2346.643	442.62
2350.492	438.62
2354.336	449.62
2358.178	444.62
2362.015	451.62
2365.85	447.62
2369.681	447.62
2373.508	449.62
2377.333	448.62
2381.153	455.62
2384.971	446.62
2388.785	447.62
2392.595	438.62
2396.402	450.62
2400.206	436.62
2404.007	436.62
2407.804	430.62
2411.597	437.62
2415.388	428.62
2419.174	436.62
2422.958	430.62
2426.738	419.62
2430.515	430.62
2434.289	420.62
2438.059	414.62
2441.825	415.62
2445.589	408.62
2449.349	402.62
2453.106	411.62
2456.859	406.62
2460.61	404.62
2464.356	396.62
2468.1	398.62
2471.84	392.62
2475.577	386.62
2479.311	387.62
2483.041	395.62
2486.768	396.62
2490.492	374.62
2494.213	387.62
2497.93	392.62
2501.644	397.62
2505.355	383.62
2509.062	383.62
2512.766	386.62
2516.467	381.62
2520.165	379.62
2523.859	380.62
2527.551	370.62
2531.239	365.62
2534.923	365.62
2538.605	361.62
2542.283	365.62
2545.958	353.62
2549.63	361.62
2553.299	362.62
2556.964	359.62
2560.626	352.62
2564.285	343.62
2567.941	341.62
2571.594	348.62
2575.243	345.62
2578.89	342.62
2582.533	332.62
2586.173	329.62
2589.809	326.62
2593.443	328.62
2597.073	321.62
2600.701	317.62
2604.325	325.62
2607.946	328.62
2611.564	318.62
2615.178	316.62
2618.79	311.62
2622.398	308.62
2626.004	310.62
2629.606	307.62
2633.205	307.62
2636.801	298.62
2640.394	291.62
2643.983	295.62
2647.57	295.62
2651.153	286.62
2654.734	287.62
2658.311	284.62
2661.885	283.62
2665.456	277.62
2669.025	280.62
2672.589	277.62
2676.151	272.62
2679.71	275.62
2683.266	272.62
2686.819	267.62
2690.368	263.62
2693.915	262.62
2697.458	257.62
2700.999	262.62
2704.536	248.62
2708.071	250.62
2711.602	250.62
2715.13	244.62
2718.656	241.62
2722.178	249.62
2725.697	244.62
2729.214	244.62
2732.727	245.62
2736.237	245.62
2739.744	244.62
2743.249	252.62
2746.75	258.62
2750.248	249.62
2753.743	244.62
2757.236	241.62
2760.725	243.62
2764.211	237.62
2767.695	243.62
2771.175	231.62
2774.652	229.62
2778.127	228.62
2781.598	229.62
2785.067	222.62
2788.532	228.62
2791.995	229.62
2795.455	226.62
2798.911	237.62
2802.365	226.62
2805.816	231.62
2809.264	232.62
2812.709	231.62
2816.151	236.62
2819.59	243.62
2823.026	227.62
2826.46	227.62
2829.89	241.62
2833.318	233.62
2836.742	236.62
2840.164	238.62
2843.583	234.62
2846.999	243.62
2850.412	242.62
2853.822	232.62
2857.229	237.62
2860.634	245.62
2864.035	255.62
2867.434	248.62
2870.83	256.62
2874.223	268.62
2877.613	259.62
2881	257.62
2884.385	263.62
2887.766	264.62
2891.145	259.62
2894.521	263.62
2897.894	254.62
2901.264	255.62
2904.631	263.62
2907.996	266.62
2911.358	266.62
2914.717	267.62
2918.073	272.62
2921.426	277.62
2924.777	278.62
2928.124	286.62
2931.469	281.62
2934.811	295.62
2938.15	297.62
2941.487	295.62
2944.821	304.62
2948.152	307.62
2951.48	311.62
2954.805	321.62
2958.128	330.62
2961.447	328.62
2964.765	325.62
2968.079	334.62
2971.39	344.62
2974.699	348.62
2978.005	353.62
2981.308	353.62
2984.609	373.62
2987.907	388.62
2991.202	392.62
2994.494	407.62
2997.784	402.62
3001.07	438.62
3004.355	417.62
3007.636	443.62
3010.915	454.62
3014.191	459.62
3017.464	469.62
3020.734	454.62
3024.002	481.62
3027.267	477.62
3030.53	494.62
3033.789	508.62
3037.046	507.62
3040.301	531.62
3043.552	535.62
3046.801	558.62
3050.048	559.62
3053.291	581.62
3056.532	595.62
3059.771	610.62
3063.006	631.62
3066.239	666.62
3069.469	679.62
3072.697	680.62
3075.922	702.62
3079.144	728.62
3082.364	736.62
3085.581	761.62
3088.795	775.62
3092.007	793.62
3095.216	803.62
3098.423	823.62
3101.627	841.62
3104.828	872.62
3108.026	870.62
3111.222	900.62
3114.416	913.62
3117.607	939.62
3120.795	957.62
3123.98	977.62
3127.163	1001.62
3130.344	1030.62
3133.521	1055.62
3136.696	1083.62
3139.869	1083.62
3143.039	1106.62
3146.206	1124.62
3149.371	1111.62
3152.533	1147.62
3155.693	1149.62
3158.85	1157.62
3162.005	1166.62
3165.157	1178.62
3168.306	1163.62
3171.453	1171.62
3174.597	1188.62
3177.739	1185.62
3180.878	1188.62
3184.014	1194.62
3187.149	1195.62
3190.28	1196.62
3193.409	1206.62
3196.536	1207.62
3199.659	1211.62
3202.781	1216.62
3205.9	1201.62
3209.016	1202.62
3212.13	1213.62
3215.241	1188.62
3218.35	1188.62
3221.456	1185.62
3224.56	1162.62
3227.661	1152.62
3230.76	1139.62
3233.856	1136.62
3236.95	1119.62
3240.041	1127.62
3243.13	1092.62
3246.216	1090.62
3249.3	1094.62
3252.382	1081.62
3255.46	1074.62
3258.537	1072.62
3261.611	1070.62
3264.682	1073.62
3267.751	1061.62
3270.818	1054.62
3273.882	1049.62
3276.943	1050.62
3280.002	1036.62
3283.059	1026.62
3286.113	1003.62
3289.165	1000.62
3292.214	973.62
3295.261	972.62
3298.306	956.62
3301.348	943.62
3304.387	934.62
3307.425	926.62
3310.459	891.62
3313.492	890.62
3316.521	882.62
3319.549	864.62
3322.574	861.62
3325.597	858.62
3328.617	846.62
3331.635	841.62
3334.65	828.62
3337.663	840.62
3340.674	833.62
3343.682	832.62
3346.688	818.62
3349.691	822.62
3352.692	820.62
3355.691	810.62
3358.687	813.62
3361.681	800.62
3364.673	784.62
3367.662	763.62
3370.649	762.62
3373.633	743.62
3376.615	742.62
3379.595	739.62
3382.572	722.62
3385.547	710.62
3388.52	712.62
3391.49	694.62
3394.458	677.62
3397.424	666.62
3400.387	664.62
3403.348	659.62
3406.307	648.62
3409.263	642.62
3412.217	628.62
3415.168	628.62
3418.118	620.62
3421.065	616.62
3424.009	607.62
3426.951	604.62
3429.891	583.62
3432.829	578.62
3435.764	560.62
3438.697	545.62
3441.628	534.62
3444.557	525.62
3447.483	513.62
3450.407	502.62
3453.328	476.62
3456.247	464.62
3459.164	459.62
3462.079	453.62
3464.991	427.62
3467.902	419.62
3470.809	403.62
3473.715	387.62
3476.618	378.62
3479.519	361.62
3482.418	361.62
3485.315	345.62
3488.209	330.62
3491.101	329.62
3493.99	317.62
3496.878	303.62
3499.763	300.62
3502.646	286.62
3505.527	279.62
3508.405	268.62
3511.281	255.62
3514.155	252.62
3517.027	229.62
3519.897	221.62
3522.764	213.62
3525.629	199.62
3528.492	183.62
3531.352	176.62
3534.211	164.62
3537.067	152.62
3539.921	150.62
3542.773	137.62
3545.622	123.62
3548.469	122.62
3551.315	114.62
3554.157	107.62
3556.998	97.62
3559.837	94.62
3562.673	84.62
3565.507	75.62
3568.339	72.62
3571.169	65.62
3573.996	63.62
3576.822	61.62
3579.645	56.62
3582.466	41.62
3585.285	42.62
3588.101	36.62
3590.916	29.62
3593.728	27.62
3596.538	22.62
3599.346	14.62
3602.152	17.62
3604.956	8.62
3607.757	-4.38
3610.556	-6.38
3613.354	-14.38
3616.149	-8.38
3618.942	-17.38
3621.732	-19.38
3624.521	-17.38
3627.307	-15.38
3630.092	-23.38
3632.874	-27.38
3635.654	-32.38
3638.432	-34.38
3641.208	-36.38
3643.982	-42.38
3646.753	-43.38
3649.523	-47.38
3652.29	-50.38
3655.055	-51.38
3657.818	-53.38
3660.579	-56.38
3663.338	-54.38
3666.095	-59.38
3668.849	-57.38
3671.602	-64.38
3674.352	-69.38
3677.101	-67.38
3679.847	-77.38
3682.591	-76.38
3685.333	-78.38
3688.073	-76.38
3690.811	-76.38
3693.547	-80.38
3696.281	-79.38
3699.013	-86.38
3701.742	-82.38
3704.47	-81.38
3707.195	-89.38
3709.919	-84.38
3712.64	-87.38
3715.359	-88.38
3718.076	-89.38
3720.792	-94.38
3723.505	-92.38
3726.216	-92.38
3728.925	-92.38
3731.632	-93.38
3734.336	-94.38
3737.039	-95.38
3739.74	-94.38
3742.439	-97.38
3745.136	-100.38
3747.83	-100.38
3750.523	-99.38
3753.213	-100.38
3755.902	-99.38
3758.589	-101.38
3761.273	-99.38
3763.956	-101.38
3766.636	-100.38
3769.315	-102.38
3771.991	-103.38
3774.665	-101.38
3777.338	-101.38
3780.008	-104.38
3782.677	-103.38
3785.343	-106.38
3788.007	-105.38
3790.67	-110.38
3793.33	-109.38
3795.989	-103.38
3798.645	-101.38
3801.299	-105.38
3803.952	-107.38
3806.602	-111.38
3809.251	-107.38
3811.897	-104.38
3814.542	-107.38
3817.184	-104.38
3819.825	-111.38
3822.463	-111.38
3825.1	-108.38
3827.735	-113.38
3830.367	-109.38
3832.998	-114.38
3835.627	-110.38
3838.253	-109.38
3840.878	-110.38
3843.501	-111.38
3846.122	-111.38
3848.741	-114.38
3851.358	-111.38
3853.973	-114.38
3856.586	-114.38
3859.197	-110.38
3861.806	-112.38
3864.414	-113.38
3867.019	-112.38
3869.622	-113.38
3872.224	-113.38
3874.823	-110.38
3877.421	-105.38
3880.016	-104.38
3882.61	-105.38
3885.202	-110.38
3887.792	-106.38
3890.38	-109.38
3892.966	-111.38
3895.55	-113.38
3898.132	-112.38
3900.713	-113.38
3903.291	-113.38
3905.868	-112.38
3908.442	-115.38
3911.015	-117.38
3913.586	-115.38
3916.155	-116.38
3918.722	-117.38
3921.287	-115.38
3923.85	-114.38
3926.411	-117.38
3928.971	-114.38
3931.528	-118.38
3934.084	-118.38
3936.638	-116.38
3939.19	-117.38
3941.74	-117.38
3944.288	-116.38
3946.834	-114.38
3949.378	-116.38
3951.921	-117.38
3954.462	-120.38
3957	-116.38
3959.537	-117.38
3962.072	-119.38
3964.606	-115.38
3967.137	-115.38
3969.667	-111.38
3972.194	-118.38
3974.72	-114.38
3977.244	-117.38
3979.766	-114.38
3982.286	-114.38
3984.805	-113.38
3987.321	-117.38
3989.836	-115.38
3992.349	-115.38
3994.86	-115.38
3997.369	-111.38
3999.877	-113.38
4002.382	-112.38
4004.886	-112.38
4007.388	-111.38
4009.888	-114.38
4012.386	-114.38
4014.883	-118.38
4017.377	-119.38
4019.87	-114.38
4022.361	-115.38
4024.85	-114.38
4027.338	-115.38
4029.823	-111.38
4032.307	-113.38
4034.789	-112.38
4037.269	-117.38
4039.747	-116.38
4042.224	-117.38
4044.699	-119.38
4047.172	-115.38
4049.643	-117.38
4052.112	-119.38
4054.58	-116.38
4057.046	-113.38
4059.51	-114.38
4061.972	-118.38
4064.432	-115.38
4066.891	-112.38
4069.348	-115.38
4071.803	-116.38
4074.256	-114.38
4076.708	-112.38
4079.158	-116.38
4081.606	-118.38
4084.052	-120.38
4086.497	-117.38
4088.939	-114.38
4091.38	-111.38
4093.819	-115.38
4096.257	-121.38
4098.693	-119.38
4101.127	-121.38
4103.559	-121.38
4105.989	-77.38
4108.418	-74.38
4110.845	-72.38
4113.27	-63.38
4115.694	-59.38
4118.115	-51.38
4120.535	-111.38
4122.954	-112.38
4125.37	-116.38
4127.785	-117.38
4130.198	-118.38
4132.609	-117.38
4135.019	-121.38
4137.427	-122.38
4139.833	-118.38
4142.237	-117.38
