Data from 100000CFU3_B_RamanShift_1.txt Node
Date: Mon Jan 23 14:35:12 IST 2017
User: aro
Spectrometer: QEPB0276
Trigger mode: 0
Integration Time (sec): 5.000000E0
Scans to average: 1
Electric dark correction enabled: true
Nonlinearity correction enabled: false
Boxcar width: 0
XAxis mode: Raman Shifts
Number of Pixels in Spectrum: 1044
>>>>>Begin Spectral Data<<<<<
160.701	-31.25
166.742	-2.25
172.777	93.75
178.805	383.75
184.826	1039.75
190.841	2149.75
196.849	3387.75
202.85	4213.75
208.845	4380.75
214.833	4281.75
220.815	4079.75
226.789	3957.75
232.758	3863.75
238.719	3721.75
244.674	3583.75
250.623	3411.75
256.565	3252.75
262.5	3091.75
268.429	2961.75
274.351	2828.75
280.267	2740.75
286.176	2644.75
292.079	2533.75
297.975	2430.75
303.865	2356.75
309.748	2302.75
315.625	2241.75
321.495	2194.75
327.359	2170.75
333.217	2140.75
339.068	2121.75
344.912	2114.75
350.751	2086.75
356.583	2108.75
362.408	2089.75
368.227	2096.75
374.04	2077.75
379.847	2119.75
385.647	2102.75
391.44	2133.75
397.228	2132.75
403.009	2148.75
408.784	2149.75
414.553	2147.75
420.315	2175.75
426.071	2181.75
431.821	2152.75
437.565	2148.75
443.302	2178.75
449.033	2151.75
454.758	2140.75
460.477	2125.75
466.189	2131.75
471.896	2127.75
477.596	2130.75
483.29	2098.75
488.978	2094.75
494.66	2069.75
500.335	2023.75
506.005	2021.75
511.668	1963.75
517.325	1948.75
522.977	1908.75
528.622	1889.75
534.261	1872.75
539.894	1877.75
545.521	1834.75
551.141	1836.75
556.756	1819.75
562.365	1816.75
567.968	1805.75
573.565	1796.75
579.155	1787.75
584.74	1753.75
590.319	1759.75
595.892	1743.75
601.459	1734.75
607.02	1720.75
612.575	1700.75
618.124	1677.75
623.667	1657.75
629.204	1643.75
634.735	1637.75
640.261	1628.75
645.781	1615.75
651.294	1604.75
656.802	1598.75
662.304	1601.75
667.8	1596.75
673.29	1580.75
678.775	1581.75
684.254	1569.75
689.726	1573.75
695.193	1540.75
700.655	1546.75
706.11	1549.75
711.56	1522.75
717.004	1507.75
722.442	1509.75
727.874	1494.75
733.301	1497.75
738.722	1480.75
744.137	1469.75
749.547	1476.75
754.951	1462.75
760.349	1462.75
765.741	1457.75
771.128	1466.75
776.509	1462.75
781.885	1453.75
787.254	1455.75
792.618	1462.75
797.977	1434.75
803.33	1428.75
808.677	1418.75
814.019	1379.75
819.355	1390.75
824.686	1372.75
830.011	1366.75
835.33	1351.75
840.644	1336.75
845.952	1350.75
851.255	1333.75
856.552	1332.75
861.844	1315.75
867.13	1310.75
872.41	1306.75
877.686	1284.75
882.955	1292.75
888.219	1267.75
893.478	1243.75
898.731	1224.75
903.979	1195.75
909.221	1195.75
914.458	1193.75
919.69	1175.75
924.916	1180.75
930.136	1164.75
935.351	1147.75
940.561	1160.75
945.766	1157.75
950.965	1160.75
956.158	1135.75
961.347	1126.75
966.529	1120.75
971.707	1091.75
976.879	1079.75
982.046	1074.75
987.208	1079.75
992.364	1068.75
997.515	1077.75
1002.66	1077.75
1007.801	1080.75
1012.936	1096.75
1018.066	1114.75
1023.19	1110.75
1028.309	1111.75
1033.423	1106.75
1038.532	1101.75
1043.636	1100.75
1048.734	1090.75
1053.827	1073.75
1058.915	1077.75
1063.998	1066.75
1069.075	1055.75
1074.147	1059.75
1079.214	1072.75
1084.276	1070.75
1089.333	1089.75
1094.385	1094.75
1099.431	1096.75
1104.472	1107.75
1109.509	1092.75
1114.54	1081.75
1119.565	1066.75
1124.586	1048.75
1129.602	1039.75
1134.613	1023.75
1139.618	1034.75
1144.619	1018.75
1149.614	1036.75
1154.604	1037.75
1159.589	1062.75
1164.57	1043.75
1169.545	1052.75
1174.515	1061.75
1179.48	1048.75
1184.44	1039.75
1189.395	1017.75
1194.345	1015.75
1199.29	1025.75
1204.23	1034.75
1209.165	1047.75
1214.095	1017.75
1219.021	1043.75
1223.941	1055.75
1228.856	1064.75
1233.766	1051.75
1238.672	1073.75
1243.572	1070.75
1248.467	1051.75
1253.358	1048.75
1258.244	1025.75
1263.124	1010.75
1268	995.75
1272.871	990.75
1277.737	985.75
1282.599	963.75
1287.455	1003.75
1292.306	1006.75
1297.153	1005.75
1301.995	1010.75
1306.832	1010.75
1311.664	1008.75
1316.491	1015.75
1321.314	999.75
1326.132	1008.75
1330.945	983.75
1335.753	984.75
1340.556	985.75
1345.354	959.75
1350.148	957.75
1354.937	956.75
1359.722	952.75
1364.501	921.75
1369.276	923.75
1374.046	911.75
1378.811	906.75
1383.572	904.75
1388.327	908.75
1393.079	904.75
1397.825	906.75
1402.567	894.75
1407.304	898.75
1412.036	891.75
1416.764	888.75
1421.487	882.75
1426.205	881.75
1430.919	882.75
1435.628	905.75
1440.333	911.75
1445.032	901.75
1449.727	931.75
1454.418	928.75
1459.104	943.75
1463.785	924.75
1468.462	911.75
1473.134	912.75
1477.802	908.75
1482.465	907.75
1487.123	899.75
1491.777	890.75
1496.426	899.75
1501.071	909.75
1505.711	910.75
1510.347	926.75
1514.978	923.75
1519.604	954.75
1524.226	950.75
1528.844	935.75
1533.457	937.75
1538.065	947.75
1542.669	938.75
1547.269	932.75
1551.864	946.75
1556.454	945.75
1561.041	953.75
1565.622	957.75
1570.199	986.75
1574.772	1004.75
1579.34	1018.75
1583.904	1038.75
1588.464	1055.75
1593.019	1073.75
1597.569	1084.75
1602.115	1096.75
1606.657	1102.75
1611.195	1120.75
1615.728	1125.75
1620.256	1154.75
1624.78	1166.75
1629.3	1189.75
1633.816	1214.75
1638.327	1226.75
1642.834	1238.75
1647.336	1255.75
1651.834	1256.75
1656.328	1240.75
1660.817	1226.75
1665.302	1219.75
1669.783	1184.75
1674.259	1168.75
1678.732	1115.75
1683.199	1073.75
1687.663	1047.75
1692.122	1016.75
1696.577	981.75
1701.028	922.75
1705.474	879.75
1709.917	846.75
1714.355	833.75
1718.788	812.75
1723.218	822.75
1727.643	790.75
1732.064	774.75
1736.481	758.75
1740.893	719.75
1745.301	716.75
1749.705	682.75
1754.105	667.75
1758.501	663.75
1762.893	648.75
1767.28	647.75
1771.663	635.75
1776.042	630.75
1780.417	643.75
1784.787	635.75
1789.154	626.75
1793.516	637.75
1797.874	618.75
1802.228	612.75
1806.578	612.75
1810.924	596.75
1815.266	587.75
1819.603	564.75
1823.937	568.75
1828.266	565.75
1832.591	558.75
1836.913	559.75
1841.23	559.75
1845.543	550.75
1849.852	561.75
1854.156	557.75
1858.457	567.75
1862.754	579.75
1867.047	569.75
1871.335	574.75
1875.62	575.75
1879.9	575.75
1884.177	572.75
1888.449	570.75
1892.718	569.75
1896.982	576.75
1901.243	573.75
1905.499	578.75
1909.752	578.75
1914	561.75
1918.245	566.75
1922.485	563.75
1926.722	577.75
1930.954	570.75
1935.183	576.75
1939.408	584.75
1943.628	588.75
1947.845	586.75
1952.058	576.75
1956.267	570.75
1960.472	555.75
1964.673	552.75
1968.87	536.75
1973.063	545.75
1977.252	543.75
1981.438	536.75
1985.619	534.75
1989.797	533.75
1993.971	537.75
1998.14	532.75
2002.306	534.75
2006.469	554.75
2010.627	558.75
2014.781	548.75
2018.932	550.75
2023.078	556.75
2027.221	545.75
2031.36	550.75
2035.495	535.75
2039.627	537.75
2043.754	543.75
2047.878	540.75
2051.998	543.75
2056.114	533.75
2060.226	542.75
2064.334	534.75
2068.439	543.75
2072.54	544.75
2076.637	548.75
2080.73	563.75
2084.82	550.75
2088.906	569.75
2092.988	561.75
2097.066	556.75
2101.14	549.75
2105.211	544.75
2109.278	548.75
2113.342	546.75
2117.401	541.75
2121.457	540.75
2125.509	538.75
2129.558	534.75
2133.602	522.75
2137.643	518.75
2141.681	530.75
2145.714	522.75
2149.744	523.75
2153.77	509.75
2157.793	506.75
2161.812	508.75
2165.827	499.75
2169.838	484.75
2173.846	479.75
2177.851	472.75
2181.851	471.75
2185.848	455.75
2189.841	456.75
2193.831	453.75
2197.817	455.75
2201.799	444.75
2205.778	456.75
2209.753	456.75
2213.725	457.75
2217.693	441.75
2221.657	443.75
2225.618	445.75
2229.575	433.75
2233.529	442.75
2237.479	439.75
2241.425	431.75
2245.368	425.75
2249.307	414.75
2253.243	410.75
2257.175	398.75
2261.104	391.75
2265.029	392.75
2268.95	387.75
2272.868	382.75
2276.783	381.75
2280.694	373.75
2284.601	359.75
2288.505	353.75
2292.405	359.75
2296.302	356.75
2300.195	351.75
2304.085	342.75
2307.971	338.75
2311.854	334.75
2315.734	326.75
2319.609	315.75
2323.482	309.75
2327.351	310.75
2331.216	311.75
2335.078	315.75
2338.937	300.75
2342.792	293.75
2346.643	294.75
2350.492	291.75
2354.336	290.75
2358.178	296.75
2362.015	299.75
2365.85	301.75
2369.681	305.75
2373.508	308.75
2377.333	298.75
2381.153	297.75
2384.971	300.75
2388.785	294.75
2392.595	293.75
2396.402	284.75
2400.206	283.75
2404.007	286.75
2407.804	289.75
2411.597	288.75
2415.388	282.75
2419.174	293.75
2422.958	285.75
2426.738	286.75
2430.515	283.75
2434.289	279.75
2438.059	279.75
2441.825	277.75
2445.589	265.75
2449.349	265.75
2453.106	263.75
2456.859	272.75
2460.61	272.75
2464.356	269.75
2468.1	259.75
2471.84	257.75
2475.577	257.75
2479.311	254.75
2483.041	251.75
2486.768	257.75
2490.492	258.75
2494.213	260.75
2497.93	258.75
2501.644	254.75
2505.355	251.75
2509.062	249.75
2512.766	261.75
2516.467	250.75
2520.165	253.75
2523.859	242.75
2527.551	250.75
2531.239	240.75
2534.923	238.75
2538.605	239.75
2542.283	239.75
2545.958	239.75
2549.63	230.75
2553.299	240.75
2556.964	230.75
2560.626	231.75
2564.285	234.75
2567.941	233.75
2571.594	230.75
2575.243	226.75
2578.89	222.75
2582.533	217.75
2586.173	218.75
2589.809	207.75
2593.443	216.75
2597.073	212.75
2600.701	203.75
2604.325	209.75
2607.946	212.75
2611.564	207.75
2615.178	210.75
2618.79	210.75
2622.398	206.75
2626.004	201.75
2629.606	206.75
2633.205	203.75
2636.801	198.75
2640.394	191.75
2643.983	193.75
2647.57	192.75
2651.153	182.75
2654.734	193.75
2658.311	186.75
2661.885	183.75
2665.456	190.75
2669.025	190.75
2672.589	175.75
2676.151	172.75
2679.71	172.75
2683.266	172.75
2686.819	173.75
2690.368	169.75
2693.915	172.75
2697.458	173.75
2700.999	168.75
2704.536	166.75
2708.071	171.75
2711.602	161.75
2715.13	163.75
2718.656	160.75
2722.178	164.75
2725.697	161.75
2729.214	166.75
2732.727	164.75
2736.237	165.75
2739.744	162.75
2743.249	158.75
2746.75	169.75
2750.248	169.75
2753.743	174.75
2757.236	164.75
2760.725	157.75
2764.211	161.75
2767.695	161.75
2771.175	158.75
2774.652	153.75
2778.127	149.75
2781.598	160.75
2785.067	151.75
2788.532	154.75
2791.995	163.75
2795.455	164.75
2798.911	157.75
2802.365	157.75
2805.816	161.75
2809.264	167.75
2812.709	160.75
2816.151	156.75
2819.59	171.75
2823.026	163.75
2826.46	154.75
2829.89	162.75
2833.318	173.75
2836.742	172.75
2840.164	167.75
2843.583	178.75
2846.999	178.75
2850.412	177.75
2853.822	181.75
2857.229	180.75
2860.634	184.75
2864.035	181.75
2867.434	189.75
2870.83	199.75
2874.223	191.75
2877.613	208.75
2881	203.75
2884.385	202.75
2887.766	201.75
2891.145	200.75
2894.521	204.75
2897.894	205.75
2901.264	198.75
2904.631	210.75
2907.996	212.75
2911.358	213.75
2914.717	207.75
2918.073	216.75
2921.426	221.75
2924.777	225.75
2928.124	230.75
2931.469	237.75
2934.811	244.75
2938.15	245.75
2941.487	245.75
2944.821	262.75
2948.152	258.75
2951.48	264.75
2954.805	266.75
2958.128	277.75
2961.447	280.75
2964.765	275.75
2968.079	289.75
2971.39	297.75
2974.699	308.75
2978.005	303.75
2981.308	314.75
2984.609	329.75
2987.907	347.75
2991.202	349.75
2994.494	358.75
2997.784	366.75
3001.07	375.75
3004.355	377.75
3007.636	394.75
3010.915	402.75
3014.191	412.75
3017.464	425.75
3020.734	428.75
3024.002	429.75
3027.267	440.75
3030.53	451.75
3033.789	454.75
3037.046	460.75
3040.301	482.75
3043.552	490.75
3046.801	504.75
3050.048	518.75
3053.291	538.75
3056.532	548.75
3059.771	574.75
3063.006	571.75
3066.239	593.75
3069.469	622.75
3072.697	642.75
3075.922	662.75
3079.144	671.75
3082.364	696.75
3085.581	713.75
3088.795	726.75
3092.007	760.75
3095.216	772.75
3098.423	779.75
3101.627	798.75
3104.828	813.75
3108.026	828.75
3111.222	848.75
3114.416	870.75
3117.607	888.75
3120.795	900.75
3123.98	928.75
3127.163	967.75
3130.344	974.75
3133.521	1015.75
3136.696	1015.75
3139.869	1027.75
3143.039	1067.75
3146.206	1079.75
3149.371	1077.75
3152.533	1106.75
3155.693	1097.75
3158.85	1099.75
3162.005	1112.75
3165.157	1118.75
3168.306	1118.75
3171.453	1133.75
3174.597	1121.75
3177.739	1150.75
3180.878	1134.75
3184.014	1148.75
3187.149	1148.75
3190.28	1149.75
3193.409	1160.75
3196.536	1159.75
3199.659	1165.75
3202.781	1158.75
3205.9	1178.75
3209.016	1167.75
3212.13	1161.75
3215.241	1167.75
3218.35	1155.75
3221.456	1146.75
3224.56	1137.75
3227.661	1130.75
3230.76	1107.75
3233.856	1093.75
3236.95	1102.75
3240.041	1090.75
3243.13	1077.75
3246.216	1070.75
3249.3	1046.75
3252.382	1072.75
3255.46	1044.75
3258.537	1053.75
3261.611	1045.75
3264.682	1052.75
3267.751	1032.75
3270.818	1016.75
3273.882	1025.75
3276.943	1011.75
3280.002	1010.75
3283.059	1004.75
3286.113	994.75
3289.165	981.75
3292.214	969.75
3295.261	945.75
3298.306	936.75
3301.348	910.75
3304.387	901.75
3307.425	887.75
3310.459	883.75
3313.492	864.75
3316.521	851.75
3319.549	841.75
3322.574	832.75
3325.597	841.75
3328.617	841.75
3331.635	821.75
3334.65	819.75
3337.663	803.75
3340.674	808.75
3343.682	803.75
3346.688	799.75
3349.691	799.75
3352.692	795.75
3355.691	806.75
3358.687	788.75
3361.681	778.75
3364.673	756.75
3367.662	758.75
3370.649	747.75
3373.633	743.75
3376.615	720.75
3379.595	712.75
3382.572	702.75
3385.547	702.75
3388.52	691.75
3391.49	681.75
3394.458	674.75
3397.424	665.75
3400.387	654.75
3403.348	643.75
3406.307	643.75
3409.263	637.75
3412.217	623.75
3415.168	624.75
3418.118	615.75
3421.065	606.75
3424.009	583.75
3426.951	583.75
3429.891	579.75
3432.829	571.75
3435.764	562.75
3438.697	545.75
3441.628	534.75
3444.557	520.75
3447.483	503.75
3450.407	498.75
3453.328	478.75
3456.247	472.75
3459.164	459.75
3462.079	435.75
3464.991	419.75
3467.902	410.75
3470.809	391.75
3473.715	386.75
3476.618	373.75
3479.519	360.75
3482.418	356.75
3485.315	341.75
3488.209	339.75
3491.101	322.75
3493.99	316.75
3496.878	306.75
3499.763	296.75
3502.646	281.75
3505.527	277.75
3508.405	261.75
3511.281	250.75
3514.155	243.75
3517.027	227.75
3519.897	220.75
3522.764	214.75
3525.629	201.75
3528.492	188.75
3531.352	178.75
3534.211	165.75
3537.067	149.75
3539.921	148.75
3542.773	135.75
3545.622	126.75
3548.469	120.75
3551.315	116.75
3554.157	114.75
3556.998	98.75
3559.837	96.75
3562.673	89.75
3565.507	82.75
3568.339	73.75
3571.169	70.75
3573.996	63.75
3576.822	59.75
3579.645	57.75
3582.466	45.75
3585.285	39.75
3588.101	32.75
3590.916	32.75
3593.728	33.75
3596.538	26.75
3599.346	22.75
3602.152	17.75
3604.956	13.75
3607.757	4.75
3610.556	1.75
3613.354	-9.25
3616.149	-2.25
3618.942	-10.25
3621.732	-19.25
3624.521	-15.25
3627.307	-10.25
3630.092	-23.25
3632.874	-23.25
3635.654	-24.25
3638.432	-24.25
3641.208	-25.25
3643.982	-34.25
3646.753	-37.25
3649.523	-38.25
3652.29	-43.25
3655.055	-46.25
3657.818	-52.25
3660.579	-53.25
3663.338	-56.25
3666.095	-51.25
3668.849	-53.25
3671.602	-56.25
3674.352	-60.25
3677.101	-65.25
3679.847	-65.25
3682.591	-65.25
3685.333	-66.25
3688.073	-70.25
3690.811	-71.25
3693.547	-72.25
3696.281	-78.25
3699.013	-76.25
3701.742	-78.25
3704.47	-79.25
3707.195	-81.25
3709.919	-78.25
3712.64	-78.25
3715.359	-84.25
3718.076	-81.25
3720.792	-86.25
3723.505	-84.25
3726.216	-84.25
3728.925	-87.25
3731.632	-90.25
3734.336	-88.25
3737.039	-88.25
3739.74	-91.25
3742.439	-90.25
3745.136	-91.25
3747.83	-91.25
3750.523	-89.25
3753.213	-88.25
3755.902	-91.25
3758.589	-96.25
3761.273	-97.25
3763.956	-93.25
3766.636	-97.25
3769.315	-99.25
3771.991	-97.25
3774.665	-96.25
3777.338	-96.25
3780.008	-95.25
3782.677	-98.25
3785.343	-97.25
3788.007	-95.25
3790.67	-98.25
3793.33	-98.25
3795.989	-98.25
3798.645	-97.25
3801.299	-98.25
3803.952	-100.25
3806.602	-106.25
3809.251	-103.25
3811.897	-98.25
3814.542	-101.25
3817.184	-95.25
3819.825	-104.25
3822.463	-101.25
3825.1	-99.25
3827.735	-104.25
3830.367	-100.25
3832.998	-107.25
3835.627	-102.25
3838.253	-101.25
3840.878	-103.25
3843.501	-102.25
3846.122	-103.25
3848.741	-105.25
3851.358	-102.25
3853.973	-104.25
3856.586	-101.25
3859.197	-99.25
3861.806	-105.25
3864.414	-107.25
3867.019	-106.25
3869.622	-105.25
3872.224	-106.25
3874.823	-108.25
3877.421	-99.25
3880.016	-95.25
3882.61	-95.25
3885.202	-98.25
3887.792	-98.25
3890.38	-100.25
3892.966	-100.25
3895.55	-103.25
3898.132	-102.25
3900.713	-107.25
3903.291	-106.25
3905.868	-108.25
3908.442	-107.25
3911.015	-106.25
3913.586	-107.25
3916.155	-106.25
3918.722	-107.25
3921.287	-104.25
3923.85	-105.25
3926.411	-106.25
3928.971	-106.25
3931.528	-109.25
3934.084	-109.25
3936.638	-112.25
3939.19	-111.25
3941.74	-108.25
3944.288	-109.25
3946.834	-105.25
3949.378	-109.25
3951.921	-104.25
3954.462	-109.25
3957	-108.25
3959.537	-109.25
3962.072	-110.25
3964.606	-110.25
3967.137	-107.25
3969.667	-105.25
3972.194	-108.25
3974.72	-109.25
3977.244	-109.25
3979.766	-108.25
3982.286	-104.25
3984.805	-102.25
3987.321	-104.25
3989.836	-101.25
3992.349	-109.25
3994.86	-106.25
3997.369	-108.25
3999.877	-111.25
4002.382	-101.25
4004.886	-104.25
4007.388	-106.25
4009.888	-106.25
4012.386	-103.25
4014.883	-105.25
4017.377	-108.25
4019.87	-104.25
4022.361	-105.25
4024.85	-110.25
4027.338	-105.25
4029.823	-107.25
4032.307	-105.25
4034.789	-107.25
4037.269	-107.25
4039.747	-106.25
4042.224	-111.25
4044.699	-109.25
4047.172	-105.25
4049.643	-106.25
4052.112	-106.25
4054.58	-107.25
4057.046	-106.25
4059.51	-108.25
4061.972	-111.25
4064.432	-111.25
4066.891	-108.25
4069.348	-107.25
4071.803	-107.25
4074.256	-103.25
4076.708	-103.25
4079.158	-104.25
4081.606	-105.25
4084.052	-109.25
4086.497	-105.25
4088.939	-106.25
4091.38	-109.25
4093.819	-109.25
4096.257	-110.25
4098.693	-107.25
4101.127	-109.25
4103.559	-112.25
4105.989	-75.25
4108.418	-72.25
4110.845	-68.25
4113.27	-62.25
4115.694	-59.25
4118.115	-48.25
4120.535	-109.25
4122.954	-107.25
4125.37	-111.25
4127.785	-108.25
4130.198	-107.25
4132.609	-106.25
4135.019	-111.25
4137.427	-111.25
4139.833	-111.25
4142.237	-110.25
