Data from 100000CFU1_B_RamanShift_1.txt Node
Date: Mon Jan 23 14:32:52 IST 2017
User: aro
Spectrometer: QEPB0276
Trigger mode: 0
Integration Time (sec): 5.000000E0
Scans to average: 1
Electric dark correction enabled: true
Nonlinearity correction enabled: false
Boxcar width: 0
XAxis mode: Raman Shifts
Number of Pixels in Spectrum: 1044
>>>>>Begin Spectral Data<<<<<
160.701	-31.38
166.742	-0.38
172.777	96.62
178.805	399.62
184.826	1106.62
190.841	2278.62
196.849	3566.62
202.85	4452.62
208.845	4652.62
214.833	4513.62
220.815	4376.62
226.789	4236.62
232.758	4126.62
238.719	4034.62
244.674	3834.62
250.623	3678.62
256.565	3558.62
262.5	3382.62
268.429	3232.62
274.351	3106.62
280.267	2997.62
286.176	2912.62
292.079	2795.62
297.975	2699.62
303.865	2614.62
309.748	2567.62
315.625	2502.62
321.495	2440.62
327.359	2421.62
333.217	2368.62
339.068	2349.62
344.912	2349.62
350.751	2328.62
356.583	2348.62
362.408	2336.62
368.227	2317.62
374.04	2329.62
379.847	2321.62
385.647	2346.62
391.44	2385.62
397.228	2398.62
403.009	2404.62
408.784	2402.62
414.553	2395.62
420.315	2426.62
426.071	2408.62
431.821	2411.62
437.565	2417.62
443.302	2410.62
449.033	2409.62
454.758	2410.62
460.477	2384.62
466.189	2367.62
471.896	2387.62
477.596	2351.62
483.29	2348.62
488.978	2346.62
494.66	2338.62
500.335	2305.62
506.005	2274.62
511.668	2244.62
517.325	2202.62
522.977	2171.62
528.622	2146.62
534.261	2124.62
539.894	2110.62
545.521	2075.62
551.141	2104.62
556.756	2067.62
562.365	2067.62
567.968	2053.62
573.565	2036.62
579.155	2029.62
584.74	2010.62
590.319	2013.62
595.892	2014.62
601.459	1972.62
607.02	1983.62
612.575	1949.62
618.124	1937.62
623.667	1914.62
629.204	1913.62
634.735	1881.62
640.261	1881.62
645.781	1881.62
651.294	1865.62
656.802	1830.62
662.304	1854.62
667.8	1848.62
673.29	1832.62
678.775	1842.62
684.254	1811.62
689.726	1822.62
695.193	1811.62
700.655	1806.62
706.11	1791.62
711.56	1766.62
717.004	1751.62
722.442	1770.62
727.874	1756.62
733.301	1746.62
738.722	1729.62
744.137	1727.62
749.547	1727.62
754.951	1718.62
760.349	1712.62
765.741	1730.62
771.128	1716.62
776.509	1724.62
781.885	1703.62
787.254	1709.62
792.618	1706.62
797.977	1704.62
803.33	1695.62
808.677	1664.62
814.019	1645.62
819.355	1645.62
824.686	1620.62
830.011	1615.62
835.33	1602.62
840.644	1618.62
845.952	1601.62
851.255	1588.62
856.552	1599.62
861.844	1583.62
867.13	1565.62
872.41	1577.62
877.686	1562.62
882.955	1554.62
888.219	1520.62
893.478	1502.62
898.731	1487.62
903.979	1451.62
909.221	1446.62
914.458	1440.62
919.69	1420.62
924.916	1446.62
930.136	1430.62
935.351	1426.62
940.561	1422.62
945.766	1419.62
950.965	1411.62
956.158	1409.62
961.347	1392.62
966.529	1368.62
971.707	1345.62
976.879	1336.62
982.046	1316.62
987.208	1330.62
992.364	1318.62
997.515	1331.62
1002.66	1329.62
1007.801	1329.62
1012.936	1349.62
1018.066	1378.62
1023.19	1377.62
1028.309	1386.62
1033.423	1398.62
1038.532	1368.62
1043.636	1366.62
1048.734	1345.62
1053.827	1329.62
1058.915	1330.62
1063.998	1316.62
1069.075	1309.62
1074.147	1306.62
1079.214	1310.62
1084.276	1343.62
1089.333	1352.62
1094.385	1348.62
1099.431	1366.62
1104.472	1368.62
1109.509	1357.62
1114.54	1338.62
1119.565	1312.62
1124.586	1312.62
1129.602	1284.62
1134.613	1281.62
1139.618	1274.62
1144.619	1297.62
1149.614	1289.62
1154.604	1297.62
1159.589	1314.62
1164.57	1301.62
1169.545	1305.62
1174.515	1297.62
1179.48	1293.62
1184.44	1305.62
1189.395	1285.62
1194.345	1284.62
1199.29	1289.62
1204.23	1288.62
1209.165	1288.62
1214.095	1308.62
1219.021	1310.62
1223.941	1315.62
1228.856	1322.62
1233.766	1331.62
1238.672	1338.62
1243.572	1331.62
1248.467	1321.62
1253.358	1311.62
1258.244	1306.62
1263.124	1270.62
1268	1254.62
1272.871	1260.62
1277.737	1227.62
1282.599	1232.62
1287.455	1238.62
1292.306	1241.62
1297.153	1263.62
1301.995	1256.62
1306.832	1259.62
1311.664	1292.62
1316.491	1281.62
1321.314	1279.62
1326.132	1273.62
1330.945	1256.62
1335.753	1248.62
1340.556	1239.62
1345.354	1243.62
1350.148	1227.62
1354.937	1213.62
1359.722	1202.62
1364.501	1185.62
1369.276	1179.62
1374.046	1157.62
1378.811	1146.62
1383.572	1135.62
1388.327	1151.62
1393.079	1141.62
1397.825	1130.62
1402.567	1127.62
1407.304	1117.62
1412.036	1119.62
1416.764	1122.62
1421.487	1130.62
1426.205	1136.62
1430.919	1147.62
1435.628	1143.62
1440.333	1170.62
1445.032	1187.62
1449.727	1171.62
1454.418	1187.62
1459.104	1199.62
1463.785	1181.62
1468.462	1177.62
1473.134	1175.62
1477.802	1154.62
1482.465	1144.62
1487.123	1149.62
1491.777	1143.62
1496.426	1153.62
1501.071	1160.62
1505.711	1176.62
1510.347	1180.62
1514.978	1187.62
1519.604	1190.62
1524.226	1211.62
1528.844	1210.62
1533.457	1189.62
1538.065	1175.62
1542.669	1165.62
1547.269	1183.62
1551.864	1182.62
1556.454	1190.62
1561.041	1198.62
1565.622	1209.62
1570.199	1214.62
1574.772	1234.62
1579.34	1272.62
1583.904	1279.62
1588.464	1284.62
1593.019	1317.62
1597.569	1324.62
1602.115	1336.62
1606.657	1343.62
1611.195	1354.62
1615.728	1370.62
1620.256	1381.62
1624.78	1386.62
1629.3	1430.62
1633.816	1437.62
1638.327	1462.62
1642.834	1476.62
1647.336	1484.62
1651.834	1497.62
1656.328	1491.62
1660.817	1467.62
1665.302	1459.62
1669.783	1436.62
1674.259	1406.62
1678.732	1367.62
1683.199	1347.62
1687.663	1295.62
1692.122	1264.62
1696.577	1198.62
1701.028	1151.62
1705.474	1100.62
1709.917	1059.62
1714.355	1029.62
1718.788	1030.62
1723.218	1027.62
1727.643	997.62
1732.064	971.62
1736.481	970.62
1740.893	945.62
1745.301	917.62
1749.705	892.62
1754.105	889.62
1758.501	868.62
1762.893	850.62
1767.28	837.62
1771.663	834.62
1776.042	829.62
1780.417	848.62
1784.787	832.62
1789.154	828.62
1793.516	839.62
1797.874	825.62
1802.228	823.62
1806.578	795.62
1810.924	789.62
1815.266	769.62
1819.603	763.62
1823.937	758.62
1828.266	757.62
1832.591	747.62
1836.913	754.62
1841.23	743.62
1845.543	754.62
1849.852	738.62
1854.156	741.62
1858.457	745.62
1862.754	767.62
1867.047	767.62
1871.335	771.62
1875.62	775.62
1879.9	768.62
1884.177	760.62
1888.449	754.62
1892.718	772.62
1896.982	767.62
1901.243	757.62
1905.499	762.62
1909.752	758.62
1914	763.62
1918.245	751.62
1922.485	747.62
1926.722	758.62
1930.954	763.62
1935.183	763.62
1939.408	776.62
1943.628	766.62
1947.845	771.62
1952.058	765.62
1956.267	764.62
1960.472	752.62
1964.673	738.62
1968.87	725.62
1973.063	720.62
1977.252	715.62
1981.438	718.62
1985.619	710.62
1989.797	713.62
1993.971	720.62
1998.14	712.62
2002.306	719.62
2006.469	729.62
2010.627	724.62
2014.781	727.62
2018.932	720.62
2023.078	715.62
2027.221	717.62
2031.36	701.62
2035.495	708.62
2039.627	698.62
2043.754	701.62
2047.878	708.62
2051.998	707.62
2056.114	695.62
2060.226	698.62
2064.334	717.62
2068.439	710.62
2072.54	715.62
2076.637	712.62
2080.73	717.62
2084.82	724.62
2088.906	722.62
2092.988	729.62
2097.066	719.62
2101.14	714.62
2105.211	707.62
2109.278	704.62
2113.342	692.62
2117.401	695.62
2121.457	683.62
2125.509	676.62
2129.558	679.62
2133.602	676.62
2137.643	670.62
2141.681	666.62
2145.714	674.62
2149.744	666.62
2153.77	661.62
2157.793	658.62
2161.812	648.62
2165.827	636.62
2169.838	637.62
2173.846	634.62
2177.851	615.62
2181.851	612.62
2185.848	597.62
2189.841	595.62
2193.831	585.62
2197.817	593.62
2201.799	597.62
2205.778	591.62
2209.753	594.62
2213.725	578.62
2217.693	587.62
2221.657	585.62
2225.618	584.62
2229.575	578.62
2233.529	571.62
2237.479	567.62
2241.425	566.62
2245.368	568.62
2249.307	548.62
2253.243	539.62
2257.175	533.62
2261.104	541.62
2265.029	527.62
2268.95	504.62
2272.868	513.62
2276.783	508.62
2280.694	495.62
2284.601	481.62
2288.505	488.62
2292.405	470.62
2296.302	473.62
2300.195	460.62
2304.085	462.62
2307.971	456.62
2311.854	449.62
2315.734	433.62
2319.609	424.62
2323.482	426.62
2327.351	418.62
2331.216	419.62
2335.078	413.62
2338.937	412.62
2342.792	409.62
2346.643	400.62
2350.492	394.62
2354.336	401.62
2358.178	403.62
2362.015	407.62
2365.85	413.62
2369.681	410.62
2373.508	406.62
2377.333	401.62
2381.153	414.62
2384.971	407.62
2388.785	407.62
2392.595	413.62
2396.402	401.62
2400.206	392.62
2404.007	390.62
2407.804	395.62
2411.597	394.62
2415.388	391.62
2419.174	393.62
2422.958	389.62
2426.738	396.62
2430.515	385.62
2434.289	383.62
2438.059	378.62
2441.825	376.62
2445.589	373.62
2449.349	380.62
2453.106	377.62
2456.859	365.62
2460.61	366.62
2464.356	365.62
2468.1	366.62
2471.84	357.62
2475.577	364.62
2479.311	361.62
2483.041	355.62
2486.768	360.62
2490.492	358.62
2494.213	350.62
2497.93	354.62
2501.644	354.62
2505.355	352.62
2509.062	362.62
2512.766	352.62
2516.467	349.62
2520.165	357.62
2523.859	348.62
2527.551	351.62
2531.239	336.62
2534.923	324.62
2538.605	337.62
2542.283	334.62
2545.958	336.62
2549.63	322.62
2553.299	324.62
2556.964	324.62
2560.626	322.62
2564.285	322.62
2567.941	321.62
2571.594	318.62
2575.243	321.62
2578.89	307.62
2582.533	308.62
2586.173	307.62
2589.809	308.62
2593.443	308.62
2597.073	298.62
2600.701	301.62
2604.325	297.62
2607.946	294.62
2611.564	297.62
2615.178	293.62
2618.79	284.62
2622.398	284.62
2626.004	291.62
2629.606	282.62
2633.205	278.62
2636.801	281.62
2640.394	276.62
2643.983	270.62
2647.57	270.62
2651.153	273.62
2654.734	261.62
2658.311	268.62
2661.885	259.62
2665.456	265.62
2669.025	265.62
2672.589	252.62
2676.151	257.62
2679.71	243.62
2683.266	250.62
2686.819	241.62
2690.368	247.62
2693.915	243.62
2697.458	240.62
2700.999	235.62
2704.536	235.62
2708.071	236.62
2711.602	232.62
2715.13	238.62
2718.656	233.62
2722.178	231.62
2725.697	241.62
2729.214	235.62
2732.727	227.62
2736.237	227.62
2739.744	230.62
2743.249	230.62
2746.75	237.62
2750.248	235.62
2753.743	241.62
2757.236	229.62
2760.725	224.62
2764.211	218.62
2767.695	230.62
2771.175	223.62
2774.652	215.62
2778.127	217.62
2781.598	214.62
2785.067	207.62
2788.532	205.62
2791.995	210.62
2795.455	219.62
2798.911	223.62
2802.365	219.62
2805.816	219.62
2809.264	226.62
2812.709	230.62
2816.151	225.62
2819.59	227.62
2823.026	217.62
2826.46	220.62
2829.89	221.62
2833.318	222.62
2836.742	216.62
2840.164	226.62
2843.583	230.62
2846.999	235.62
2850.412	232.62
2853.822	227.62
2857.229	231.62
2860.634	232.62
2864.035	237.62
2867.434	247.62
2870.83	245.62
2874.223	255.62
2877.613	248.62
2881	251.62
2884.385	261.62
2887.766	252.62
2891.145	247.62
2894.521	248.62
2897.894	261.62
2901.264	255.62
2904.631	265.62
2907.996	262.62
2911.358	262.62
2914.717	265.62
2918.073	264.62
2921.426	275.62
2924.777	273.62
2928.124	284.62
2931.469	277.62
2934.811	292.62
2938.15	305.62
2941.487	299.62
2944.821	303.62
2948.152	305.62
2951.48	306.62
2954.805	307.62
2958.128	317.62
2961.447	324.62
2964.765	328.62
2968.079	321.62
2971.39	334.62
2974.699	341.62
2978.005	353.62
2981.308	356.62
2984.609	374.62
2987.907	379.62
2991.202	385.62
2994.494	397.62
2997.784	407.62
3001.07	423.62
3004.355	418.62
3007.636	439.62
3010.915	447.62
3014.191	464.62
3017.464	463.62
3020.734	473.62
3024.002	473.62
3027.267	485.62
3030.53	490.62
3033.789	501.62
3037.046	512.62
3040.301	526.62
3043.552	523.62
3046.801	541.62
3050.048	559.62
3053.291	570.62
3056.532	585.62
3059.771	621.62
3063.006	622.62
3066.239	656.62
3069.469	667.62
3072.697	692.62
3075.922	714.62
3079.144	722.62
3082.364	738.62
3085.581	760.62
3088.795	779.62
3092.007	785.62
3095.216	802.62
3098.423	826.62
3101.627	835.62
3104.828	873.62
3108.026	876.62
3111.222	895.62
3114.416	911.62
3117.607	937.62
3120.795	958.62
3123.98	989.62
3127.163	987.62
3130.344	1022.62
3133.521	1039.62
3136.696	1064.62
3139.869	1081.62
3143.039	1091.62
3146.206	1122.62
3149.371	1124.62
3152.533	1144.62
3155.693	1161.62
3158.85	1160.62
3162.005	1166.62
3165.157	1174.62
3168.306	1170.62
3171.453	1181.62
3174.597	1167.62
3177.739	1189.62
3180.878	1182.62
3184.014	1200.62
3187.149	1207.62
3190.28	1175.62
3193.409	1207.62
3196.536	1193.62
3199.659	1213.62
3202.781	1206.62
3205.9	1213.62
3209.016	1213.62
3212.13	1195.62
3215.241	1208.62
3218.35	1181.62
3221.456	1194.62
3224.56	1175.62
3227.661	1171.62
3230.76	1142.62
3233.856	1139.62
3236.95	1120.62
3240.041	1103.62
3243.13	1101.62
3246.216	1103.62
3249.3	1082.62
3252.382	1077.62
3255.46	1081.62
3258.537	1082.62
3261.611	1068.62
3264.682	1070.62
3267.751	1058.62
3270.818	1051.62
3273.882	1043.62
3276.943	1051.62
3280.002	1030.62
3283.059	1034.62
3286.113	1013.62
3289.165	988.62
3292.214	978.62
3295.261	972.62
3298.306	950.62
3301.348	933.62
3304.387	949.62
3307.425	918.62
3310.459	907.62
3313.492	880.62
3316.521	879.62
3319.549	870.62
3322.574	862.62
3325.597	857.62
3328.617	841.62
3331.635	843.62
3334.65	846.62
3337.663	841.62
3340.674	828.62
3343.682	835.62
3346.688	828.62
3349.691	818.62
3352.692	812.62
3355.691	806.62
3358.687	809.62
3361.681	793.62
3364.673	784.62
3367.662	774.62
3370.649	764.62
3373.633	770.62
3376.615	753.62
3379.595	746.62
3382.572	736.62
3385.547	706.62
3388.52	712.62
3391.49	686.62
3394.458	676.62
3397.424	683.62
3400.387	669.62
3403.348	664.62
3406.307	661.62
3409.263	649.62
3412.217	650.62
3415.168	642.62
3418.118	625.62
3421.065	613.62
3424.009	603.62
3426.951	612.62
3429.891	589.62
3432.829	581.62
3435.764	568.62
3438.697	550.62
3441.628	536.62
3444.557	525.62
3447.483	518.62
3450.407	500.62
3453.328	487.62
3456.247	472.62
3459.164	462.62
3462.079	443.62
3464.991	420.62
3467.902	419.62
3470.809	403.62
3473.715	390.62
3476.618	377.62
3479.519	368.62
3482.418	352.62
3485.315	348.62
3488.209	347.62
3491.101	332.62
3493.99	322.62
3496.878	313.62
3499.763	292.62
3502.646	295.62
3505.527	276.62
3508.405	269.62
3511.281	245.62
3514.155	249.62
3517.027	221.62
3519.897	227.62
3522.764	212.62
3525.629	210.62
3528.492	186.62
3531.352	182.62
3534.211	168.62
3537.067	157.62
3539.921	147.62
3542.773	134.62
3545.622	127.62
3548.469	123.62
3551.315	114.62
3554.157	109.62
3556.998	98.62
3559.837	88.62
3562.673	78.62
3565.507	78.62
3568.339	73.62
3571.169	72.62
3573.996	58.62
3576.822	54.62
3579.645	51.62
3582.466	44.62
3585.285	41.62
3588.101	41.62
3590.916	32.62
3593.728	30.62
3596.538	21.62
3599.346	20.62
3602.152	10.62
3604.956	6.62
3607.757	3.62
3610.556	-6.38
3613.354	-6.38
3616.149	-12.38
3618.942	-14.38
3621.732	-19.38
3624.521	-18.38
3627.307	-20.38
3630.092	-24.38
3632.874	-27.38
3635.654	-27.38
3638.432	-30.38
3641.208	-34.38
3643.982	-37.38
3646.753	-40.38
3649.523	-44.38
3652.29	-48.38
3655.055	-49.38
3657.818	-58.38
3660.579	-53.38
3663.338	-57.38
3666.095	-57.38
3668.849	-55.38
3671.602	-63.38
3674.352	-62.38
3677.101	-69.38
3679.847	-71.38
3682.591	-72.38
3685.333	-72.38
3688.073	-74.38
3690.811	-76.38
3693.547	-77.38
3696.281	-84.38
3699.013	-81.38
3701.742	-81.38
3704.47	-80.38
3707.195	-85.38
3709.919	-83.38
3712.64	-83.38
3715.359	-84.38
3718.076	-87.38
3720.792	-91.38
3723.505	-86.38
3726.216	-93.38
3728.925	-92.38
3731.632	-95.38
3734.336	-94.38
3737.039	-93.38
3739.74	-94.38
3742.439	-97.38
3745.136	-95.38
3747.83	-95.38
3750.523	-97.38
3753.213	-92.38
3755.902	-95.38
3758.589	-96.38
3761.273	-99.38
3763.956	-97.38
3766.636	-103.38
3769.315	-104.38
3771.991	-102.38
3774.665	-98.38
3777.338	-99.38
3780.008	-97.38
3782.677	-100.38
3785.343	-102.38
3788.007	-103.38
3790.67	-101.38
3793.33	-105.38
3795.989	-101.38
3798.645	-102.38
3801.299	-103.38
3803.952	-108.38
3806.602	-111.38
3809.251	-104.38
3811.897	-105.38
3814.542	-105.38
3817.184	-102.38
3819.825	-105.38
3822.463	-103.38
3825.1	-107.38
3827.735	-112.38
3830.367	-108.38
3832.998	-112.38
3835.627	-111.38
3838.253	-108.38
3840.878	-110.38
3843.501	-107.38
3846.122	-108.38
3848.741	-112.38
3851.358	-110.38
3853.973	-112.38
3856.586	-110.38
3859.197	-103.38
3861.806	-109.38
3864.414	-113.38
3867.019	-114.38
3869.622	-112.38
3872.224	-113.38
3874.823	-107.38
3877.421	-103.38
3880.016	-98.38
3882.61	-99.38
3885.202	-103.38
3887.792	-106.38
3890.38	-105.38
3892.966	-106.38
3895.55	-111.38
3898.132	-111.38
3900.713	-115.38
3903.291	-114.38
3905.868	-114.38
3908.442	-114.38
3911.015	-113.38
3913.586	-116.38
3916.155	-112.38
3918.722	-115.38
3921.287	-107.38
3923.85	-109.38
3926.411	-113.38
3928.971	-114.38
3931.528	-117.38
3934.084	-114.38
3936.638	-118.38
3939.19	-117.38
3941.74	-115.38
3944.288	-117.38
3946.834	-115.38
3949.378	-112.38
3951.921	-111.38
3954.462	-117.38
3957	-112.38
3959.537	-115.38
3962.072	-115.38
3964.606	-116.38
3967.137	-111.38
3969.667	-112.38
3972.194	-117.38
3974.72	-114.38
3977.244	-116.38
3979.766	-116.38
3982.286	-112.38
3984.805	-110.38
3987.321	-114.38
3989.836	-111.38
3992.349	-112.38
3994.86	-112.38
3997.369	-113.38
3999.877	-112.38
4002.382	-109.38
4004.886	-113.38
4007.388	-110.38
4009.888	-114.38
4012.386	-111.38
4014.883	-114.38
4017.377	-115.38
4019.87	-110.38
4022.361	-111.38
4024.85	-113.38
4027.338	-110.38
4029.823	-110.38
4032.307	-111.38
4034.789	-111.38
4037.269	-115.38
4039.747	-115.38
4042.224	-118.38
4044.699	-117.38
4047.172	-113.38
4049.643	-113.38
4052.112	-114.38
4054.58	-112.38
4057.046	-114.38
4059.51	-114.38
4061.972	-116.38
4064.432	-116.38
4066.891	-113.38
4069.348	-112.38
4071.803	-115.38
4074.256	-112.38
4076.708	-111.38
4079.158	-113.38
4081.606	-112.38
4084.052	-120.38
4086.497	-110.38
4088.939	-112.38
4091.38	-113.38
4093.819	-113.38
4096.257	-117.38
4098.693	-117.38
4101.127	-119.38
4103.559	-119.38
4105.989	-83.38
4108.418	-77.38
4110.845	-76.38
4113.27	-69.38
4115.694	-57.38
4118.115	-51.38
4120.535	-111.38
4122.954	-111.38
4125.37	-116.38
4127.785	-117.38
4130.198	-118.38
4132.609	-116.38
4135.019	-117.38
4137.427	-117.38
4139.833	-115.38
4142.237	-114.38
