Data from 100CFU2_B_RamanShift_1.txt Node
Date: Mon Jan 23 14:06:47 IST 2017
User: aro
Spectrometer: QEPB0276
Trigger mode: 0
Integration Time (sec): 5.000000E0
Scans to average: 1
Electric dark correction enabled: true
Nonlinearity correction enabled: false
Boxcar width: 0
XAxis mode: Raman Shifts
Number of Pixels in Spectrum: 1044
>>>>>Begin Spectral Data<<<<<
160.701	-32.25
166.742	2.75
172.777	92.75
178.805	383.75
184.826	1074.75
190.841	2214.75
196.849	3486.75
202.85	4313.75
208.845	4559.75
214.833	4406.75
220.815	4238.75
226.789	4084.75
232.758	3998.75
238.719	3870.75
244.674	3715.75
250.623	3554.75
256.565	3403.75
262.5	3226.75
268.429	3094.75
274.351	2980.75
280.267	2846.75
286.176	2752.75
292.079	2642.75
297.975	2549.75
303.865	2481.75
309.748	2400.75
315.625	2344.75
321.495	2290.75
327.359	2262.75
333.217	2225.75
339.068	2220.75
344.912	2186.75
350.751	2197.75
356.583	2195.75
362.408	2176.75
368.227	2199.75
374.04	2203.75
379.847	2195.75
385.647	2193.75
391.44	2240.75
397.228	2245.75
403.009	2239.75
408.784	2267.75
414.553	2254.75
420.315	2278.75
426.071	2289.75
431.821	2287.75
437.565	2300.75
443.302	2279.75
449.033	2262.75
454.758	2263.75
460.477	2259.75
466.189	2238.75
471.896	2239.75
477.596	2225.75
483.29	2206.75
488.978	2205.75
494.66	2177.75
500.335	2152.75
506.005	2141.75
511.668	2095.75
517.325	2074.75
522.977	2019.75
528.622	2007.75
534.261	1986.75
539.894	1955.75
545.521	1973.75
551.141	1970.75
556.756	1930.75
562.365	1933.75
567.968	1887.75
573.565	1896.75
579.155	1881.75
584.74	1874.75
590.319	1866.75
595.892	1854.75
601.459	1848.75
607.02	1834.75
612.575	1795.75
618.124	1794.75
623.667	1777.75
629.204	1770.75
634.735	1742.75
640.261	1739.75
645.781	1728.75
651.294	1722.75
656.802	1701.75
662.304	1709.75
667.8	1686.75
673.29	1693.75
678.775	1694.75
684.254	1697.75
689.726	1668.75
695.193	1648.75
700.655	1643.75
706.11	1623.75
711.56	1622.75
717.004	1634.75
722.442	1610.75
727.874	1611.75
733.301	1600.75
738.722	1577.75
744.137	1583.75
749.547	1580.75
754.951	1567.75
760.349	1588.75
765.741	1563.75
771.128	1570.75
776.509	1579.75
781.885	1554.75
787.254	1556.75
792.618	1552.75
797.977	1545.75
803.33	1511.75
808.677	1519.75
814.019	1491.75
819.355	1479.75
824.686	1487.75
830.011	1465.75
835.33	1460.75
840.644	1453.75
845.952	1448.75
851.255	1455.75
856.552	1444.75
861.844	1430.75
867.13	1430.75
872.41	1418.75
877.686	1408.75
882.955	1398.75
888.219	1377.75
893.478	1357.75
898.731	1330.75
903.979	1331.75
909.221	1293.75
914.458	1280.75
919.69	1280.75
924.916	1279.75
930.136	1272.75
935.351	1287.75
940.561	1278.75
945.766	1266.75
950.965	1262.75
956.158	1257.75
961.347	1248.75
966.529	1219.75
971.707	1198.75
976.879	1190.75
982.046	1189.75
987.208	1171.75
992.364	1189.75
997.515	1187.75
1002.66	1182.75
1007.801	1196.75
1012.936	1201.75
1018.066	1219.75
1023.19	1223.75
1028.309	1223.75
1033.423	1223.75
1038.532	1210.75
1043.636	1214.75
1048.734	1174.75
1053.827	1183.75
1058.915	1169.75
1063.998	1183.75
1069.075	1172.75
1074.147	1173.75
1079.214	1156.75
1084.276	1189.75
1089.333	1199.75
1094.385	1192.75
1099.431	1204.75
1104.472	1203.75
1109.509	1203.75
1114.54	1191.75
1119.565	1167.75
1124.586	1153.75
1129.602	1152.75
1134.613	1141.75
1139.618	1134.75
1144.619	1128.75
1149.614	1143.75
1154.604	1133.75
1159.589	1140.75
1164.57	1155.75
1169.545	1155.75
1174.515	1164.75
1179.48	1169.75
1184.44	1151.75
1189.395	1145.75
1194.345	1141.75
1199.29	1128.75
1204.23	1142.75
1209.165	1145.75
1214.095	1138.75
1219.021	1158.75
1223.941	1171.75
1228.856	1167.75
1233.766	1177.75
1238.672	1187.75
1243.572	1179.75
1248.467	1168.75
1253.358	1153.75
1258.244	1139.75
1263.124	1109.75
1268	1107.75
1272.871	1089.75
1277.737	1092.75
1282.599	1091.75
1287.455	1087.75
1292.306	1094.75
1297.153	1107.75
1301.995	1102.75
1306.832	1113.75
1311.664	1125.75
1316.491	1129.75
1321.314	1129.75
1326.132	1104.75
1330.945	1110.75
1335.753	1098.75
1340.556	1081.75
1345.354	1068.75
1350.148	1070.75
1354.937	1063.75
1359.722	1053.75
1364.501	1036.75
1369.276	1025.75
1374.046	1018.75
1378.811	1005.75
1383.572	993.75
1388.327	1002.75
1393.079	1002.75
1397.825	992.75
1402.567	981.75
1407.304	982.75
1412.036	972.75
1416.764	989.75
1421.487	986.75
1426.205	989.75
1430.919	993.75
1435.628	1002.75
1440.333	1016.75
1445.032	1012.75
1449.727	1044.75
1454.418	1030.75
1459.104	1026.75
1463.785	1030.75
1468.462	1015.75
1473.134	1006.75
1477.802	1003.75
1482.465	1005.75
1487.123	1005.75
1491.777	1004.75
1496.426	1004.75
1501.071	1016.75
1505.711	1036.75
1510.347	1034.75
1514.978	1041.75
1519.604	1052.75
1524.226	1059.75
1528.844	1051.75
1533.457	1039.75
1538.065	1045.75
1542.669	1038.75
1547.269	1047.75
1551.864	1035.75
1556.454	1051.75
1561.041	1061.75
1565.622	1068.75
1570.199	1083.75
1574.772	1108.75
1579.34	1130.75
1583.904	1139.75
1588.464	1154.75
1593.019	1167.75
1597.569	1199.75
1602.115	1210.75
1606.657	1222.75
1611.195	1226.75
1615.728	1229.75
1620.256	1237.75
1624.78	1260.75
1629.3	1290.75
1633.816	1311.75
1638.327	1327.75
1642.834	1336.75
1647.336	1348.75
1651.834	1363.75
1656.328	1353.75
1660.817	1333.75
1665.302	1324.75
1669.783	1304.75
1674.259	1265.75
1678.732	1224.75
1683.199	1189.75
1687.663	1168.75
1692.122	1119.75
1696.577	1063.75
1701.028	1026.75
1705.474	978.75
1709.917	941.75
1714.355	923.75
1718.788	893.75
1723.218	897.75
1727.643	877.75
1732.064	868.75
1736.481	844.75
1740.893	825.75
1745.301	805.75
1749.705	778.75
1754.105	764.75
1758.501	750.75
1762.893	727.75
1767.28	734.75
1771.663	721.75
1776.042	713.75
1780.417	721.75
1784.787	721.75
1789.154	726.75
1793.516	724.75
1797.874	733.75
1802.228	717.75
1806.578	701.75
1810.924	675.75
1815.266	672.75
1819.603	662.75
1823.937	659.75
1828.266	646.75
1832.591	646.75
1836.913	648.75
1841.23	645.75
1845.543	639.75
1849.852	637.75
1854.156	641.75
1858.457	641.75
1862.754	650.75
1867.047	661.75
1871.335	665.75
1875.62	662.75
1879.9	669.75
1884.177	664.75
1888.449	654.75
1892.718	660.75
1896.982	664.75
1901.243	653.75
1905.499	646.75
1909.752	642.75
1914	652.75
1918.245	648.75
1922.485	653.75
1926.722	652.75
1930.954	657.75
1935.183	653.75
1939.408	664.75
1943.628	663.75
1947.845	669.75
1952.058	652.75
1956.267	644.75
1960.472	651.75
1964.673	629.75
1968.87	631.75
1973.063	621.75
1977.252	614.75
1981.438	616.75
1985.619	605.75
1989.797	612.75
1993.971	613.75
1998.14	628.75
2002.306	630.75
2006.469	635.75
2010.627	632.75
2014.781	626.75
2018.932	630.75
2023.078	631.75
2027.221	611.75
2031.36	612.75
2035.495	614.75
2039.627	603.75
2043.754	609.75
2047.878	612.75
2051.998	606.75
2056.114	607.75
2060.226	617.75
2064.334	610.75
2068.439	625.75
2072.54	624.75
2076.637	635.75
2080.73	627.75
2084.82	645.75
2088.906	629.75
2092.988	638.75
2097.066	634.75
2101.14	623.75
2105.211	623.75
2109.278	624.75
2113.342	616.75
2117.401	611.75
2121.457	610.75
2125.509	598.75
2129.558	601.75
2133.602	595.75
2137.643	593.75
2141.681	593.75
2145.714	599.75
2149.744	581.75
2153.77	567.75
2157.793	582.75
2161.812	567.75
2165.827	561.75
2169.838	549.75
2173.846	558.75
2177.851	543.75
2181.851	533.75
2185.848	534.75
2189.841	514.75
2193.831	521.75
2197.817	518.75
2201.799	507.75
2205.778	517.75
2209.753	512.75
2213.725	512.75
2217.693	506.75
2221.657	511.75
2225.618	507.75
2229.575	489.75
2233.529	502.75
2237.479	498.75
2241.425	499.75
2245.368	487.75
2249.307	474.75
2253.243	462.75
2257.175	454.75
2261.104	458.75
2265.029	443.75
2268.95	439.75
2272.868	437.75
2276.783	444.75
2280.694	433.75
2284.601	418.75
2288.505	424.75
2292.405	409.75
2296.302	405.75
2300.195	400.75
2304.085	398.75
2307.971	392.75
2311.854	372.75
2315.734	370.75
2319.609	365.75
2323.482	357.75
2327.351	365.75
2331.216	352.75
2335.078	360.75
2338.937	352.75
2342.792	356.75
2346.643	340.75
2350.492	345.75
2354.336	350.75
2358.178	346.75
2362.015	347.75
2365.85	343.75
2369.681	346.75
2373.508	350.75
2377.333	348.75
2381.153	362.75
2384.971	346.75
2388.785	352.75
2392.595	345.75
2396.402	342.75
2400.206	348.75
2404.007	341.75
2407.804	337.75
2411.597	331.75
2415.388	330.75
2419.174	332.75
2422.958	327.75
2426.738	329.75
2430.515	335.75
2434.289	330.75
2438.059	328.75
2441.825	330.75
2445.589	317.75
2449.349	319.75
2453.106	315.75
2456.859	317.75
2460.61	311.75
2464.356	305.75
2468.1	309.75
2471.84	304.75
2475.577	305.75
2479.311	296.75
2483.041	296.75
2486.768	296.75
2490.492	308.75
2494.213	303.75
2497.93	305.75
2501.644	299.75
2505.355	304.75
2509.062	300.75
2512.766	297.75
2516.467	294.75
2520.165	295.75
2523.859	299.75
2527.551	299.75
2531.239	288.75
2534.923	288.75
2538.605	287.75
2542.283	283.75
2545.958	277.75
2549.63	283.75
2553.299	281.75
2556.964	279.75
2560.626	275.75
2564.285	268.75
2567.941	270.75
2571.594	269.75
2575.243	264.75
2578.89	266.75
2582.533	258.75
2586.173	265.75
2589.809	259.75
2593.443	259.75
2597.073	257.75
2600.701	252.75
2604.325	253.75
2607.946	258.75
2611.564	254.75
2615.178	244.75
2618.79	254.75
2622.398	244.75
2626.004	241.75
2629.606	246.75
2633.205	242.75
2636.801	236.75
2640.394	240.75
2643.983	223.75
2647.57	233.75
2651.153	222.75
2654.734	224.75
2658.311	227.75
2661.885	217.75
2665.456	219.75
2669.025	223.75
2672.589	211.75
2676.151	215.75
2679.71	218.75
2683.266	209.75
2686.819	212.75
2690.368	213.75
2693.915	204.75
2697.458	204.75
2700.999	198.75
2704.536	197.75
2708.071	199.75
2711.602	194.75
2715.13	192.75
2718.656	199.75
2722.178	203.75
2725.697	207.75
2729.214	192.75
2732.727	198.75
2736.237	199.75
2739.744	197.75
2743.249	197.75
2746.75	197.75
2750.248	200.75
2753.743	202.75
2757.236	194.75
2760.725	193.75
2764.211	196.75
2767.695	193.75
2771.175	192.75
2774.652	185.75
2778.127	184.75
2781.598	186.75
2785.067	190.75
2788.532	179.75
2791.995	195.75
2795.455	192.75
2798.911	191.75
2802.365	188.75
2805.816	191.75
2809.264	191.75
2812.709	197.75
2816.151	199.75
2819.59	197.75
2823.026	189.75
2826.46	197.75
2829.89	199.75
2833.318	199.75
2836.742	195.75
2840.164	203.75
2843.583	199.75
2846.999	208.75
2850.412	199.75
2853.822	210.75
2857.229	210.75
2860.634	213.75
2864.035	218.75
2867.434	229.75
2870.83	217.75
2874.223	226.75
2877.613	230.75
2881	221.75
2884.385	230.75
2887.766	225.75
2891.145	230.75
2894.521	228.75
2897.894	231.75
2901.264	236.75
2904.631	240.75
2907.996	240.75
2911.358	242.75
2914.717	240.75
2918.073	245.75
2921.426	255.75
2924.777	251.75
2928.124	257.75
2931.469	260.75
2934.811	278.75
2938.15	275.75
2941.487	290.75
2944.821	279.75
2948.152	286.75
2951.48	284.75
2954.805	292.75
2958.128	305.75
2961.447	298.75
2964.765	303.75
2968.079	316.75
2971.39	314.75
2974.699	328.75
2978.005	335.75
2981.308	336.75
2984.609	346.75
2987.907	363.75
2991.202	378.75
2994.494	393.75
2997.784	390.75
3001.07	397.75
3004.355	413.75
3007.636	422.75
3010.915	433.75
3014.191	443.75
3017.464	441.75
3020.734	456.75
3024.002	460.75
3027.267	469.75
3030.53	477.75
3033.789	488.75
3037.046	490.75
3040.301	510.75
3043.552	527.75
3046.801	531.75
3050.048	550.75
3053.291	569.75
3056.532	583.75
3059.771	609.75
3063.006	613.75
3066.239	638.75
3069.469	656.75
3072.697	666.75
3075.922	701.75
3079.144	708.75
3082.364	721.75
3085.581	750.75
3088.795	751.75
3092.007	787.75
3095.216	797.75
3098.423	827.75
3101.627	825.75
3104.828	848.75
3108.026	876.75
3111.222	877.75
3114.416	902.75
3117.607	922.75
3120.795	943.75
3123.98	979.75
3127.163	989.75
3130.344	1004.75
3133.521	1023.75
3136.696	1063.75
3139.869	1073.75
3143.039	1073.75
3146.206	1116.75
3149.371	1114.75
3152.533	1132.75
3155.693	1148.75
3158.85	1152.75
3162.005	1161.75
3165.157	1166.75
3168.306	1164.75
3171.453	1175.75
3174.597	1182.75
3177.739	1168.75
3180.878	1188.75
3184.014	1182.75
3187.149	1184.75
3190.28	1181.75
3193.409	1181.75
3196.536	1192.75
3199.659	1199.75
3202.781	1203.75
3205.9	1187.75
3209.016	1209.75
3212.13	1209.75
3215.241	1208.75
3218.35	1187.75
3221.456	1179.75
3224.56	1176.75
3227.661	1161.75
3230.76	1147.75
3233.856	1128.75
3236.95	1114.75
3240.041	1110.75
3243.13	1093.75
3246.216	1102.75
3249.3	1082.75
3252.382	1099.75
3255.46	1093.75
3258.537	1073.75
3261.611	1075.75
3264.682	1081.75
3267.751	1060.75
3270.818	1060.75
3273.882	1047.75
3276.943	1033.75
3280.002	1033.75
3283.059	1033.75
3286.113	1012.75
3289.165	1015.75
3292.214	981.75
3295.261	968.75
3298.306	945.75
3301.348	926.75
3304.387	936.75
3307.425	913.75
3310.459	923.75
3313.492	894.75
3316.521	862.75
3319.549	885.75
3322.574	866.75
3325.597	863.75
3328.617	851.75
3331.635	854.75
3334.65	850.75
3337.663	846.75
3340.674	837.75
3343.682	821.75
3346.688	816.75
3349.691	819.75
3352.692	816.75
3355.691	813.75
3358.687	805.75
3361.681	803.75
3364.673	798.75
3367.662	772.75
3370.649	768.75
3373.633	755.75
3376.615	750.75
3379.595	737.75
3382.572	732.75
3385.547	720.75
3388.52	719.75
3391.49	700.75
3394.458	686.75
3397.424	690.75
3400.387	682.75
3403.348	667.75
3406.307	660.75
3409.263	651.75
3412.217	644.75
3415.168	647.75
3418.118	632.75
3421.065	620.75
3424.009	621.75
3426.951	617.75
3429.891	612.75
3432.829	575.75
3435.764	568.75
3438.697	563.75
3441.628	540.75
3444.557	537.75
3447.483	513.75
3450.407	504.75
3453.328	496.75
3456.247	484.75
3459.164	468.75
3462.079	453.75
3464.991	432.75
3467.902	425.75
3470.809	405.75
3473.715	397.75
3476.618	387.75
3479.519	374.75
3482.418	364.75
3485.315	344.75
3488.209	339.75
3491.101	337.75
3493.99	327.75
3496.878	313.75
3499.763	302.75
3502.646	298.75
3505.527	286.75
3508.405	286.75
3511.281	262.75
3514.155	258.75
3517.027	231.75
3519.897	228.75
3522.764	215.75
3525.629	202.75
3528.492	194.75
3531.352	176.75
3534.211	177.75
3537.067	163.75
3539.921	153.75
3542.773	146.75
3545.622	142.75
3548.469	128.75
3551.315	122.75
3554.157	117.75
3556.998	110.75
3559.837	103.75
3562.673	89.75
3565.507	82.75
3568.339	81.75
3571.169	75.75
3573.996	68.75
3576.822	65.75
3579.645	60.75
3582.466	48.75
3585.285	45.75
3588.101	36.75
3590.916	43.75
3593.728	33.75
3596.538	26.75
3599.346	25.75
3602.152	17.75
3604.956	16.75
3607.757	5.75
3610.556	6.75
3613.354	-4.25
3616.149	2.75
3618.942	-5.25
3621.732	-12.25
3624.521	-6.25
3627.307	-7.25
3630.092	-19.25
3632.874	-16.25
3635.654	-23.25
3638.432	-24.25
3641.208	-29.25
3643.982	-31.25
3646.753	-34.25
3649.523	-38.25
3652.29	-41.25
3655.055	-42.25
3657.818	-48.25
3660.579	-47.25
3663.338	-51.25
3666.095	-49.25
3668.849	-50.25
3671.602	-59.25
3674.352	-59.25
3677.101	-62.25
3679.847	-67.25
3682.591	-68.25
3685.333	-70.25
3688.073	-69.25
3690.811	-72.25
3693.547	-72.25
3696.281	-73.25
3699.013	-75.25
3701.742	-74.25
3704.47	-78.25
3707.195	-76.25
3709.919	-80.25
3712.64	-78.25
3715.359	-79.25
3718.076	-84.25
3720.792	-87.25
3723.505	-84.25
3726.216	-84.25
3728.925	-84.25
3731.632	-81.25
3734.336	-87.25
3737.039	-85.25
3739.74	-86.25
3742.439	-90.25
3745.136	-91.25
3747.83	-90.25
3750.523	-90.25
3753.213	-91.25
3755.902	-95.25
3758.589	-93.25
3761.273	-94.25
3763.956	-92.25
3766.636	-92.25
3769.315	-94.25
3771.991	-93.25
3774.665	-95.25
3777.338	-92.25
3780.008	-93.25
3782.677	-98.25
3785.343	-95.25
3788.007	-98.25
3790.67	-100.25
3793.33	-100.25
3795.989	-100.25
3798.645	-96.25
3801.299	-94.25
3803.952	-99.25
3806.602	-103.25
3809.251	-98.25
3811.897	-97.25
3814.542	-99.25
3817.184	-97.25
3819.825	-100.25
3822.463	-98.25
3825.1	-102.25
3827.735	-106.25
3830.367	-101.25
3832.998	-104.25
3835.627	-101.25
3838.253	-101.25
3840.878	-100.25
3843.501	-101.25
3846.122	-103.25
3848.741	-107.25
3851.358	-102.25
3853.973	-105.25
3856.586	-103.25
3859.197	-103.25
3861.806	-107.25
3864.414	-105.25
3867.019	-108.25
3869.622	-104.25
3872.224	-104.25
3874.823	-99.25
3877.421	-97.25
3880.016	-96.25
3882.61	-92.25
3885.202	-97.25
3887.792	-100.25
3890.38	-101.25
3892.966	-105.25
3895.55	-106.25
3898.132	-102.25
3900.713	-106.25
3903.291	-106.25
3905.868	-102.25
3908.442	-105.25
3911.015	-107.25
3913.586	-106.25
3916.155	-106.25
3918.722	-108.25
3921.287	-106.25
3923.85	-106.25
3926.411	-109.25
3928.971	-108.25
3931.528	-113.25
3934.084	-108.25
3936.638	-108.25
3939.19	-109.25
3941.74	-106.25
3944.288	-106.25
3946.834	-106.25
3949.378	-103.25
3951.921	-104.25
3954.462	-109.25
3957	-108.25
3959.537	-110.25
3962.072	-110.25
3964.606	-108.25
3967.137	-108.25
3969.667	-104.25
3972.194	-105.25
3974.72	-104.25
3977.244	-107.25
3979.766	-104.25
3982.286	-103.25
3984.805	-102.25
3987.321	-106.25
3989.836	-106.25
3992.349	-109.25
3994.86	-108.25
3997.369	-108.25
3999.877	-105.25
4002.382	-103.25
4004.886	-101.25
4007.388	-102.25
4009.888	-106.25
4012.386	-102.25
4014.883	-105.25
4017.377	-111.25
4019.87	-104.25
4022.361	-107.25
4024.85	-106.25
4027.338	-105.25
4029.823	-106.25
4032.307	-109.25
4034.789	-106.25
4037.269	-104.25
4039.747	-103.25
4042.224	-107.25
4044.699	-108.25
4047.172	-106.25
4049.643	-105.25
4052.112	-113.25
4054.58	-110.25
4057.046	-109.25
4059.51	-110.25
4061.972	-114.25
4064.432	-109.25
4066.891	-106.25
4069.348	-105.25
4071.803	-105.25
4074.256	-104.25
4076.708	-101.25
4079.158	-103.25
4081.606	-104.25
4084.052	-110.25
4086.497	-110.25
4088.939	-110.25
4091.38	-109.25
4093.819	-106.25
4096.257	-111.25
4098.693	-109.25
4101.127	-110.25
4103.559	-110.25
4105.989	-70.25
4108.418	-67.25
4110.845	-67.25
4113.27	-63.25
4115.694	-57.25
4118.115	-48.25
4120.535	-105.25
4122.954	-103.25
4125.37	-108.25
4127.785	-107.25
4130.198	-108.25
4132.609	-105.25
4135.019	-112.25
4137.427	-112.25
4139.833	-112.25
4142.237	-110.25
