Data from 10CFU2_B_RamanShift_1.txt Node
Date: Mon Jan 23 14:01:57 IST 2017
User: aro
Spectrometer: QEPB0276
Trigger mode: 0
Integration Time (sec): 5.000000E0
Scans to average: 1
Electric dark correction enabled: true
Nonlinearity correction enabled: false
Boxcar width: 0
XAxis mode: Raman Shifts
Number of Pixels in Spectrum: 1044
>>>>>Begin Spectral Data<<<<<
160.701	-27.5
166.742	1.5
172.777	83.5
178.805	343.5
184.826	960.5
190.841	2010.5
196.849	3191.5
202.85	3947.5
208.845	4156.5
214.833	4046.5
220.815	3886.5
226.789	3768.5
232.758	3658.5
238.719	3566.5
244.674	3420.5
250.623	3313.5
256.565	3154.5
262.5	3009.5
268.429	2876.5
274.351	2766.5
280.267	2641.5
286.176	2569.5
292.079	2489.5
297.975	2405.5
303.865	2325.5
309.748	2259.5
315.625	2215.5
321.495	2167.5
327.359	2121.5
333.217	2129.5
339.068	2101.5
344.912	2085.5
350.751	2082.5
356.583	2075.5
362.408	2069.5
368.227	2062.5
374.04	2074.5
379.847	2075.5
385.647	2073.5
391.44	2114.5
397.228	2091.5
403.009	2136.5
408.784	2125.5
414.553	2144.5
420.315	2174.5
426.071	2145.5
431.821	2150.5
437.565	2170.5
443.302	2140.5
449.033	2135.5
454.758	2141.5
460.477	2127.5
466.189	2116.5
471.896	2109.5
477.596	2083.5
483.29	2090.5
488.978	2094.5
494.66	2058.5
500.335	2045.5
506.005	2030.5
511.668	1980.5
517.325	1947.5
522.977	1916.5
528.622	1896.5
534.261	1871.5
539.894	1856.5
545.521	1841.5
551.141	1846.5
556.756	1830.5
562.365	1813.5
567.968	1802.5
573.565	1804.5
579.155	1787.5
584.74	1784.5
590.319	1761.5
595.892	1760.5
601.459	1742.5
607.02	1715.5
612.575	1723.5
618.124	1686.5
623.667	1701.5
629.204	1669.5
634.735	1674.5
640.261	1655.5
645.781	1652.5
651.294	1641.5
656.802	1641.5
662.304	1617.5
667.8	1613.5
673.29	1618.5
678.775	1606.5
684.254	1604.5
689.726	1595.5
695.193	1592.5
700.655	1580.5
706.11	1568.5
711.56	1559.5
717.004	1551.5
722.442	1534.5
727.874	1551.5
733.301	1527.5
738.722	1510.5
744.137	1501.5
749.547	1502.5
754.951	1509.5
760.349	1504.5
765.741	1503.5
771.128	1519.5
776.509	1510.5
781.885	1508.5
787.254	1503.5
792.618	1502.5
797.977	1476.5
803.33	1491.5
808.677	1467.5
814.019	1450.5
819.355	1446.5
824.686	1418.5
830.011	1411.5
835.33	1421.5
840.644	1405.5
845.952	1399.5
851.255	1400.5
856.552	1415.5
861.844	1377.5
867.13	1381.5
872.41	1389.5
877.686	1387.5
882.955	1360.5
888.219	1363.5
893.478	1319.5
898.731	1314.5
903.979	1274.5
909.221	1267.5
914.458	1251.5
919.69	1253.5
924.916	1246.5
930.136	1248.5
935.351	1248.5
940.561	1265.5
945.766	1231.5
950.965	1246.5
956.158	1232.5
961.347	1229.5
966.529	1196.5
971.707	1177.5
976.879	1164.5
982.046	1155.5
987.208	1157.5
992.364	1142.5
997.515	1153.5
1002.66	1169.5
1007.801	1182.5
1012.936	1190.5
1018.066	1203.5
1023.19	1199.5
1028.309	1190.5
1033.423	1201.5
1038.532	1206.5
1043.636	1178.5
1048.734	1189.5
1053.827	1179.5
1058.915	1164.5
1063.998	1149.5
1069.075	1141.5
1074.147	1159.5
1079.214	1158.5
1084.276	1163.5
1089.333	1175.5
1094.385	1194.5
1099.431	1192.5
1104.472	1180.5
1109.509	1192.5
1114.54	1170.5
1119.565	1164.5
1124.586	1134.5
1129.602	1141.5
1134.613	1135.5
1139.618	1111.5
1144.619	1126.5
1149.614	1128.5
1154.604	1129.5
1159.589	1141.5
1164.57	1156.5
1169.545	1148.5
1174.515	1149.5
1179.48	1142.5
1184.44	1130.5
1189.395	1130.5
1194.345	1123.5
1199.29	1114.5
1204.23	1123.5
1209.165	1128.5
1214.095	1137.5
1219.021	1148.5
1223.941	1142.5
1228.856	1155.5
1233.766	1164.5
1238.672	1161.5
1243.572	1173.5
1248.467	1161.5
1253.358	1148.5
1258.244	1140.5
1263.124	1110.5
1268	1103.5
1272.871	1097.5
1277.737	1077.5
1282.599	1085.5
1287.455	1076.5
1292.306	1102.5
1297.153	1103.5
1301.995	1105.5
1306.832	1114.5
1311.664	1110.5
1316.491	1121.5
1321.314	1115.5
1326.132	1116.5
1330.945	1104.5
1335.753	1086.5
1340.556	1071.5
1345.354	1079.5
1350.148	1071.5
1354.937	1058.5
1359.722	1047.5
1364.501	1039.5
1369.276	1004.5
1374.046	1000.5
1378.811	987.5
1383.572	997.5
1388.327	990.5
1393.079	995.5
1397.825	984.5
1402.567	986.5
1407.304	980.5
1412.036	988.5
1416.764	973.5
1421.487	986.5
1426.205	990.5
1430.919	991.5
1435.628	1019.5
1440.333	1024.5
1445.032	1022.5
1449.727	1039.5
1454.418	1043.5
1459.104	1046.5
1463.785	1060.5
1468.462	1037.5
1473.134	1020.5
1477.802	1012.5
1482.465	1012.5
1487.123	1010.5
1491.777	1007.5
1496.426	1006.5
1501.071	1011.5
1505.711	1013.5
1510.347	1018.5
1514.978	1034.5
1519.604	1036.5
1524.226	1039.5
1528.844	1042.5
1533.457	1043.5
1538.065	1030.5
1542.669	1019.5
1547.269	1018.5
1551.864	1035.5
1556.454	1031.5
1561.041	1037.5
1565.622	1055.5
1570.199	1066.5
1574.772	1088.5
1579.34	1100.5
1583.904	1116.5
1588.464	1131.5
1593.019	1155.5
1597.569	1154.5
1602.115	1187.5
1606.657	1169.5
1611.195	1183.5
1615.728	1200.5
1620.256	1225.5
1624.78	1243.5
1629.3	1252.5
1633.816	1268.5
1638.327	1279.5
1642.834	1305.5
1647.336	1308.5
1651.834	1329.5
1656.328	1309.5
1660.817	1298.5
1665.302	1282.5
1669.783	1263.5
1674.259	1219.5
1678.732	1221.5
1683.199	1180.5
1687.663	1158.5
1692.122	1118.5
1696.577	1057.5
1701.028	1012.5
1705.474	955.5
1709.917	919.5
1714.355	898.5
1718.788	898.5
1723.218	886.5
1727.643	878.5
1732.064	863.5
1736.481	833.5
1740.893	831.5
1745.301	803.5
1749.705	782.5
1754.105	758.5
1758.501	746.5
1762.893	728.5
1767.28	728.5
1771.663	737.5
1776.042	726.5
1780.417	719.5
1784.787	731.5
1789.154	726.5
1793.516	725.5
1797.874	731.5
1802.228	723.5
1806.578	699.5
1810.924	692.5
1815.266	666.5
1819.603	658.5
1823.937	671.5
1828.266	655.5
1832.591	656.5
1836.913	663.5
1841.23	664.5
1845.543	657.5
1849.852	647.5
1854.156	667.5
1858.457	663.5
1862.754	672.5
1867.047	660.5
1871.335	679.5
1875.62	669.5
1879.9	670.5
1884.177	669.5
1888.449	678.5
1892.718	677.5
1896.982	678.5
1901.243	669.5
1905.499	673.5
1909.752	659.5
1914	672.5
1918.245	664.5
1922.485	656.5
1926.722	661.5
1930.954	660.5
1935.183	675.5
1939.408	678.5
1943.628	673.5
1947.845	677.5
1952.058	671.5
1956.267	655.5
1960.472	655.5
1964.673	636.5
1968.87	632.5
1973.063	633.5
1977.252	617.5
1981.438	626.5
1985.619	622.5
1989.797	612.5
1993.971	625.5
1998.14	623.5
2002.306	621.5
2006.469	635.5
2010.627	642.5
2014.781	642.5
2018.932	629.5
2023.078	638.5
2027.221	639.5
2031.36	618.5
2035.495	625.5
2039.627	609.5
2043.754	625.5
2047.878	619.5
2051.998	631.5
2056.114	614.5
2060.226	619.5
2064.334	616.5
2068.439	628.5
2072.54	627.5
2076.637	641.5
2080.73	638.5
2084.82	645.5
2088.906	644.5
2092.988	632.5
2097.066	636.5
2101.14	629.5
2105.211	628.5
2109.278	612.5
2113.342	616.5
2117.401	611.5
2121.457	616.5
2125.509	602.5
2129.558	604.5
2133.602	591.5
2137.643	596.5
2141.681	604.5
2145.714	605.5
2149.744	593.5
2153.77	592.5
2157.793	580.5
2161.812	580.5
2165.827	559.5
2169.838	561.5
2173.846	562.5
2177.851	541.5
2181.851	545.5
2185.848	527.5
2189.841	536.5
2193.831	523.5
2197.817	527.5
2201.799	529.5
2205.778	518.5
2209.753	513.5
2213.725	521.5
2217.693	529.5
2221.657	520.5
2225.618	505.5
2229.575	518.5
2233.529	506.5
2237.479	511.5
2241.425	496.5
2245.368	508.5
2249.307	492.5
2253.243	484.5
2257.175	475.5
2261.104	464.5
2265.029	463.5
2268.95	454.5
2272.868	456.5
2276.783	449.5
2280.694	446.5
2284.601	427.5
2288.505	430.5
2292.405	429.5
2296.302	423.5
2300.195	416.5
2304.085	407.5
2307.971	393.5
2311.854	398.5
2315.734	379.5
2319.609	380.5
2323.482	374.5
2327.351	367.5
2331.216	374.5
2335.078	375.5
2338.937	368.5
2342.792	370.5
2346.643	363.5
2350.492	360.5
2354.336	369.5
2358.178	366.5
2362.015	358.5
2365.85	360.5
2369.681	368.5
2373.508	369.5
2377.333	364.5
2381.153	367.5
2384.971	362.5
2388.785	372.5
2392.595	357.5
2396.402	359.5
2400.206	359.5
2404.007	350.5
2407.804	348.5
2411.597	341.5
2415.388	345.5
2419.174	354.5
2422.958	344.5
2426.738	349.5
2430.515	350.5
2434.289	352.5
2438.059	345.5
2441.825	341.5
2445.589	340.5
2449.349	332.5
2453.106	338.5
2456.859	339.5
2460.61	334.5
2464.356	334.5
2468.1	333.5
2471.84	324.5
2475.577	336.5
2479.311	316.5
2483.041	320.5
2486.768	334.5
2490.492	331.5
2494.213	321.5
2497.93	324.5
2501.644	318.5
2505.355	333.5
2509.062	323.5
2512.766	314.5
2516.467	317.5
2520.165	319.5
2523.859	308.5
2527.551	313.5
2531.239	304.5
2534.923	304.5
2538.605	301.5
2542.283	305.5
2545.958	303.5
2549.63	304.5
2553.299	305.5
2556.964	294.5
2560.626	290.5
2564.285	283.5
2567.941	292.5
2571.594	285.5
2575.243	278.5
2578.89	290.5
2582.533	286.5
2586.173	278.5
2589.809	276.5
2593.443	283.5
2597.073	269.5
2600.701	267.5
2604.325	267.5
2607.946	274.5
2611.564	261.5
2615.178	263.5
2618.79	268.5
2622.398	259.5
2626.004	263.5
2629.606	261.5
2633.205	260.5
2636.801	256.5
2640.394	253.5
2643.983	245.5
2647.57	237.5
2651.153	240.5
2654.734	235.5
2658.311	230.5
2661.885	247.5
2665.456	236.5
2669.025	238.5
2672.589	224.5
2676.151	230.5
2679.71	224.5
2683.266	233.5
2686.819	224.5
2690.368	228.5
2693.915	227.5
2697.458	218.5
2700.999	216.5
2704.536	210.5
2708.071	206.5
2711.602	206.5
2715.13	207.5
2718.656	217.5
2722.178	215.5
2725.697	213.5
2729.214	220.5
2732.727	215.5
2736.237	222.5
2739.744	216.5
2743.249	218.5
2746.75	216.5
2750.248	212.5
2753.743	212.5
2757.236	202.5
2760.725	202.5
2764.211	210.5
2767.695	205.5
2771.175	196.5
2774.652	198.5
2778.127	198.5
2781.598	198.5
2785.067	196.5
2788.532	197.5
2791.995	201.5
2795.455	195.5
2798.911	198.5
2802.365	203.5
2805.816	200.5
2809.264	208.5
2812.709	207.5
2816.151	204.5
2819.59	201.5
2823.026	206.5
2826.46	208.5
2829.89	210.5
2833.318	205.5
2836.742	202.5
2840.164	200.5
2843.583	219.5
2846.999	223.5
2850.412	209.5
2853.822	209.5
2857.229	220.5
2860.634	226.5
2864.035	221.5
2867.434	231.5
2870.83	225.5
2874.223	233.5
2877.613	229.5
2881	232.5
2884.385	231.5
2887.766	231.5
2891.145	232.5
2894.521	233.5
2897.894	248.5
2901.264	235.5
2904.631	251.5
2907.996	249.5
2911.358	244.5
2914.717	249.5
2918.073	245.5
2921.426	256.5
2924.777	253.5
2928.124	260.5
2931.469	265.5
2934.811	269.5
2938.15	274.5
2941.487	286.5
2944.821	283.5
2948.152	291.5
2951.48	293.5
2954.805	287.5
2958.128	299.5
2961.447	303.5
2964.765	300.5
2968.079	326.5
2971.39	320.5
2974.699	324.5
2978.005	328.5
2981.308	329.5
2984.609	342.5
2987.907	348.5
2991.202	366.5
2994.494	370.5
2997.784	380.5
3001.07	384.5
3004.355	399.5
3007.636	399.5
3010.915	411.5
3014.191	424.5
3017.464	418.5
3020.734	428.5
3024.002	435.5
3027.267	448.5
3030.53	445.5
3033.789	459.5
3037.046	464.5
3040.301	479.5
3043.552	483.5
3046.801	502.5
3050.048	516.5
3053.291	519.5
3056.532	554.5
3059.771	553.5
3063.006	572.5
3066.239	597.5
3069.469	603.5
3072.697	617.5
3075.922	647.5
3079.144	663.5
3082.364	671.5
3085.581	700.5
3088.795	702.5
3092.007	732.5
3095.216	732.5
3098.423	750.5
3101.627	770.5
3104.828	780.5
3108.026	793.5
3111.222	825.5
3114.416	823.5
3117.607	855.5
3120.795	867.5
3123.98	882.5
3127.163	921.5
3130.344	938.5
3133.521	951.5
3136.696	977.5
3139.869	990.5
3143.039	999.5
3146.206	1013.5
3149.371	1035.5
3152.533	1035.5
3155.693	1054.5
3158.85	1063.5
3162.005	1075.5
3165.157	1060.5
3168.306	1069.5
3171.453	1067.5
3174.597	1087.5
3177.739	1077.5
3180.878	1072.5
3184.014	1096.5
3187.149	1094.5
3190.28	1089.5
3193.409	1102.5
3196.536	1087.5
3199.659	1092.5
3202.781	1096.5
3205.9	1104.5
3209.016	1113.5
3212.13	1115.5
3215.241	1097.5
3218.35	1080.5
3221.456	1087.5
3224.56	1071.5
3227.661	1067.5
3230.76	1057.5
3233.856	1043.5
3236.95	1040.5
3240.041	1030.5
3243.13	1015.5
3246.216	1005.5
3249.3	1006.5
3252.382	1002.5
3255.46	986.5
3258.537	988.5
3261.611	979.5
3264.682	974.5
3267.751	985.5
3270.818	981.5
3273.882	968.5
3276.943	963.5
3280.002	955.5
3283.059	954.5
3286.113	936.5
3289.165	925.5
3292.214	894.5
3295.261	888.5
3298.306	878.5
3301.348	866.5
3304.387	856.5
3307.425	852.5
3310.459	827.5
3313.492	820.5
3316.521	809.5
3319.549	805.5
3322.574	802.5
3325.597	792.5
3328.617	785.5
3331.635	788.5
3334.65	769.5
3337.663	764.5
3340.674	767.5
3343.682	764.5
3346.688	766.5
3349.691	756.5
3352.692	761.5
3355.691	752.5
3358.687	760.5
3361.681	734.5
3364.673	735.5
3367.662	717.5
3370.649	708.5
3373.633	694.5
3376.615	696.5
3379.595	688.5
3382.572	672.5
3385.547	662.5
3388.52	647.5
3391.49	637.5
3394.458	628.5
3397.424	622.5
3400.387	607.5
3403.348	611.5
3406.307	599.5
3409.263	605.5
3412.217	589.5
3415.168	582.5
3418.118	583.5
3421.065	573.5
3424.009	567.5
3426.951	561.5
3429.891	551.5
3432.829	541.5
3435.764	526.5
3438.697	513.5
3441.628	499.5
3444.557	483.5
3447.483	476.5
3450.407	460.5
3453.328	451.5
3456.247	446.5
3459.164	431.5
3462.079	415.5
3464.991	409.5
3467.902	388.5
3470.809	378.5
3473.715	361.5
3476.618	354.5
3479.519	340.5
3482.418	337.5
3485.315	325.5
3488.209	318.5
3491.101	317.5
3493.99	299.5
3496.878	296.5
3499.763	289.5
3502.646	282.5
3505.527	267.5
3508.405	257.5
3511.281	245.5
3514.155	232.5
3517.027	221.5
3519.897	208.5
3522.764	200.5
3525.629	186.5
3528.492	185.5
3531.352	170.5
3534.211	163.5
3537.067	145.5
3539.921	141.5
3542.773	132.5
3545.622	129.5
3548.469	113.5
3551.315	105.5
3554.157	106.5
3556.998	99.5
3559.837	90.5
3562.673	84.5
3565.507	76.5
3568.339	71.5
3571.169	74.5
3573.996	67.5
3576.822	58.5
3579.645	58.5
3582.466	43.5
3585.285	41.5
3588.101	35.5
3590.916	33.5
3593.728	29.5
3596.538	28.5
3599.346	20.5
3602.152	19.5
3604.956	12.5
3607.757	11.5
3610.556	3.5
3613.354	-0.5
3616.149	-1.5
3618.942	-6.5
3621.732	-6.5
3624.521	-4.5
3627.307	-13.5
3630.092	-16.5
3632.874	-19.5
3635.654	-21.5
3638.432	-22.5
3641.208	-18.5
3643.982	-27.5
3646.753	-30.5
3649.523	-30.5
3652.29	-37.5
3655.055	-42.5
3657.818	-42.5
3660.579	-42.5
3663.338	-47.5
3666.095	-44.5
3668.849	-43.5
3671.602	-52.5
3674.352	-53.5
3677.101	-59.5
3679.847	-57.5
3682.591	-58.5
3685.333	-61.5
3688.073	-66.5
3690.811	-67.5
3693.547	-67.5
3696.281	-65.5
3699.013	-68.5
3701.742	-68.5
3704.47	-66.5
3707.195	-66.5
3709.919	-70.5
3712.64	-70.5
3715.359	-75.5
3718.076	-76.5
3720.792	-75.5
3723.505	-75.5
3726.216	-80.5
3728.925	-77.5
3731.632	-77.5
3734.336	-76.5
3737.039	-79.5
3739.74	-78.5
3742.439	-83.5
3745.136	-85.5
3747.83	-84.5
3750.523	-84.5
3753.213	-84.5
3755.902	-84.5
3758.589	-83.5
3761.273	-85.5
3763.956	-87.5
3766.636	-82.5
3769.315	-85.5
3771.991	-87.5
3774.665	-85.5
3777.338	-87.5
3780.008	-86.5
3782.677	-90.5
3785.343	-87.5
3788.007	-86.5
3790.67	-93.5
3793.33	-92.5
3795.989	-86.5
3798.645	-86.5
3801.299	-91.5
3803.952	-89.5
3806.602	-93.5
3809.251	-91.5
3811.897	-86.5
3814.542	-91.5
3817.184	-88.5
3819.825	-95.5
3822.463	-93.5
3825.1	-92.5
3827.735	-97.5
3830.367	-93.5
3832.998	-96.5
3835.627	-92.5
3838.253	-89.5
3840.878	-91.5
3843.501	-90.5
3846.122	-94.5
3848.741	-98.5
3851.358	-93.5
3853.973	-96.5
3856.586	-93.5
3859.197	-93.5
3861.806	-95.5
3864.414	-96.5
3867.019	-97.5
3869.622	-96.5
3872.224	-94.5
3874.823	-92.5
3877.421	-90.5
3880.016	-86.5
3882.61	-85.5
3885.202	-90.5
3887.792	-89.5
3890.38	-95.5
3892.966	-92.5
3895.55	-95.5
3898.132	-95.5
3900.713	-99.5
3903.291	-95.5
3905.868	-95.5
3908.442	-97.5
3911.015	-96.5
3913.586	-100.5
3916.155	-97.5
3918.722	-97.5
3921.287	-98.5
3923.85	-95.5
3926.411	-98.5
3928.971	-99.5
3931.528	-102.5
3934.084	-98.5
3936.638	-100.5
3939.19	-101.5
3941.74	-95.5
3944.288	-97.5
3946.834	-97.5
3949.378	-96.5
3951.921	-95.5
3954.462	-99.5
3957	-103.5
3959.537	-101.5
3962.072	-103.5
3964.606	-98.5
3967.137	-96.5
3969.667	-96.5
3972.194	-95.5
3974.72	-99.5
3977.244	-97.5
3979.766	-94.5
3982.286	-97.5
3984.805	-93.5
3987.321	-98.5
3989.836	-95.5
3992.349	-100.5
3994.86	-99.5
3997.369	-94.5
3999.877	-96.5
4002.382	-95.5
4004.886	-93.5
4007.388	-93.5
4009.888	-93.5
4012.386	-93.5
4014.883	-96.5
4017.377	-100.5
4019.87	-93.5
4022.361	-101.5
4024.85	-103.5
4027.338	-97.5
4029.823	-97.5
4032.307	-98.5
4034.789	-95.5
4037.269	-98.5
4039.747	-96.5
4042.224	-100.5
4044.699	-99.5
4047.172	-95.5
4049.643	-99.5
4052.112	-99.5
4054.58	-99.5
4057.046	-98.5
4059.51	-101.5
4061.972	-102.5
4064.432	-100.5
4066.891	-98.5
4069.348	-96.5
4071.803	-96.5
4074.256	-93.5
4076.708	-93.5
4079.158	-95.5
4081.606	-99.5
4084.052	-99.5
4086.497	-98.5
4088.939	-98.5
4091.38	-98.5
4093.819	-100.5
4096.257	-101.5
4098.693	-102.5
4101.127	-104.5
4103.559	-103.5
4105.989	-69.5
4108.418	-61.5
4110.845	-59.5
4113.27	-55.5
4115.694	-49.5
4118.115	-40.5
4120.535	-97.5
4122.954	-94.5
4125.37	-97.5
4127.785	-97.5
4130.198	-99.5
4132.609	-97.5
4135.019	-100.5
4137.427	-101.5
4139.833	-100.5
4142.237	-98.5
