Data from 10CFU1_B_RamanShift_0.txt Node
Date: Mon Jan 23 14:00:57 IST 2017
User: aro
Spectrometer: QEPB0276
Trigger mode: 0
Integration Time (sec): 5.000000E0
Scans to average: 1
Electric dark correction enabled: true
Nonlinearity correction enabled: false
Boxcar width: 0
XAxis mode: Raman Shifts
Number of Pixels in Spectrum: 1044
>>>>>Begin Spectral Data<<<<<
160.701	-27.25
166.742	-1.25
172.777	87.75
178.805	353.75
184.826	981.75
190.841	2009.75
196.849	3173.75
202.85	3942.75
208.845	4143.75
214.833	4024.75
220.815	3896.75
226.789	3797.75
232.758	3691.75
238.719	3588.75
244.674	3454.75
250.623	3327.75
256.565	3168.75
262.5	3049.75
268.429	2927.75
274.351	2799.75
280.267	2702.75
286.176	2604.75
292.079	2526.75
297.975	2449.75
303.865	2389.75
309.748	2327.75
315.625	2278.75
321.495	2211.75
327.359	2179.75
333.217	2170.75
339.068	2146.75
344.912	2153.75
350.751	2113.75
356.583	2122.75
362.408	2137.75
368.227	2130.75
374.04	2119.75
379.847	2138.75
385.647	2152.75
391.44	2155.75
397.228	2174.75
403.009	2171.75
408.784	2202.75
414.553	2189.75
420.315	2202.75
426.071	2213.75
431.821	2186.75
437.565	2193.75
443.302	2219.75
449.033	2188.75
454.758	2182.75
460.477	2196.75
466.189	2180.75
471.896	2180.75
477.596	2150.75
483.29	2150.75
488.978	2133.75
494.66	2125.75
500.335	2104.75
506.005	2086.75
511.668	2027.75
517.325	2015.75
522.977	2008.75
528.622	1958.75
534.261	1969.75
539.894	1934.75
545.521	1916.75
551.141	1906.75
556.756	1891.75
562.365	1881.75
567.968	1873.75
573.565	1867.75
579.155	1857.75
584.74	1850.75
590.319	1847.75
595.892	1825.75
601.459	1822.75
607.02	1810.75
612.575	1792.75
618.124	1774.75
623.667	1752.75
629.204	1756.75
634.735	1731.75
640.261	1725.75
645.781	1718.75
651.294	1704.75
656.802	1703.75
662.304	1697.75
667.8	1707.75
673.29	1706.75
678.775	1684.75
684.254	1679.75
689.726	1674.75
695.193	1671.75
700.655	1654.75
706.11	1635.75
711.56	1644.75
717.004	1637.75
722.442	1627.75
727.874	1611.75
733.301	1614.75
738.722	1604.75
744.137	1602.75
749.547	1596.75
754.951	1602.75
760.349	1583.75
765.741	1596.75
771.128	1578.75
776.509	1607.75
781.885	1589.75
787.254	1581.75
792.618	1569.75
797.977	1576.75
803.33	1569.75
808.677	1555.75
814.019	1543.75
819.355	1535.75
824.686	1513.75
830.011	1501.75
835.33	1496.75
840.644	1485.75
845.952	1486.75
851.255	1478.75
856.552	1485.75
861.844	1491.75
867.13	1474.75
872.41	1467.75
877.686	1456.75
882.955	1446.75
888.219	1435.75
893.478	1405.75
898.731	1394.75
903.979	1363.75
909.221	1355.75
914.458	1337.75
919.69	1342.75
924.916	1336.75
930.136	1334.75
935.351	1355.75
940.561	1356.75
945.766	1341.75
950.965	1341.75
956.158	1335.75
961.347	1322.75
966.529	1296.75
971.707	1259.75
976.879	1261.75
982.046	1253.75
987.208	1250.75
992.364	1262.75
997.515	1253.75
1002.66	1262.75
1007.801	1263.75
1012.936	1282.75
1018.066	1282.75
1023.19	1296.75
1028.309	1301.75
1033.423	1284.75
1038.532	1291.75
1043.636	1281.75
1048.734	1269.75
1053.827	1253.75
1058.915	1253.75
1063.998	1240.75
1069.075	1252.75
1074.147	1243.75
1079.214	1266.75
1084.276	1259.75
1089.333	1269.75
1094.385	1281.75
1099.431	1279.75
1104.472	1294.75
1109.509	1280.75
1114.54	1277.75
1119.565	1249.75
1124.586	1236.75
1129.602	1221.75
1134.613	1221.75
1139.618	1214.75
1144.619	1216.75
1149.614	1220.75
1154.604	1223.75
1159.589	1236.75
1164.57	1236.75
1169.545	1240.75
1174.515	1250.75
1179.48	1239.75
1184.44	1231.75
1189.395	1224.75
1194.345	1217.75
1199.29	1223.75
1204.23	1213.75
1209.165	1218.75
1214.095	1242.75
1219.021	1241.75
1223.941	1253.75
1228.856	1265.75
1233.766	1263.75
1238.672	1271.75
1243.572	1273.75
1248.467	1268.75
1253.358	1243.75
1258.244	1231.75
1263.124	1212.75
1268	1189.75
1272.871	1191.75
1277.737	1173.75
1282.599	1173.75
1287.455	1189.75
1292.306	1182.75
1297.153	1187.75
1301.995	1201.75
1306.832	1213.75
1311.664	1211.75
1316.491	1203.75
1321.314	1208.75
1326.132	1192.75
1330.945	1175.75
1335.753	1167.75
1340.556	1145.75
1345.354	1125.75
1350.148	1121.75
1354.937	1119.75
1359.722	1110.75
1364.501	1108.75
1369.276	1127.75
1374.046	1128.75
1378.811	1132.75
1383.572	1119.75
1388.327	1116.75
1393.079	1107.75
1397.825	1101.75
1402.567	1078.75
1407.304	1075.75
1412.036	1076.75
1416.764	1077.75
1421.487	1062.75
1426.205	1059.75
1430.919	1069.75
1435.628	1100.75
1440.333	1086.75
1445.032	1094.75
1449.727	1103.75
1454.418	1124.75
1459.104	1119.75
1463.785	1106.75
1468.462	1088.75
1473.134	1079.75
1477.802	1079.75
1482.465	1068.75
1487.123	1073.75
1491.777	1060.75
1496.426	1067.75
1501.071	1092.75
1505.711	1092.75
1510.347	1107.75
1514.978	1118.75
1519.604	1149.75
1524.226	1150.75
1528.844	1137.75
1533.457	1151.75
1538.065	1137.75
1542.669	1152.75
1547.269	1145.75
1551.864	1120.75
1556.454	1129.75
1561.041	1148.75
1565.622	1155.75
1570.199	1163.75
1574.772	1180.75
1579.34	1192.75
1583.904	1226.75
1588.464	1230.75
1593.019	1236.75
1597.569	1250.75
1602.115	1264.75
1606.657	1264.75
1611.195	1272.75
1615.728	1285.75
1620.256	1282.75
1624.78	1295.75
1629.3	1314.75
1633.816	1339.75
1638.327	1347.75
1642.834	1368.75
1647.336	1389.75
1651.834	1390.75
1656.328	1397.75
1660.817	1372.75
1665.302	1347.75
1669.783	1333.75
1674.259	1307.75
1678.732	1271.75
1683.199	1216.75
1687.663	1196.75
1692.122	1147.75
1696.577	1105.75
1701.028	1082.75
1705.474	1072.75
1709.917	1042.75
1714.355	1025.75
1718.788	1018.75
1723.218	984.75
1727.643	970.75
1732.064	954.75
1736.481	926.75
1740.893	921.75
1745.301	877.75
1749.705	864.75
1754.105	848.75
1758.501	829.75
1762.893	800.75
1767.28	808.75
1771.663	791.75
1776.042	801.75
1780.417	791.75
1784.787	801.75
1789.154	799.75
1793.516	804.75
1797.874	820.75
1802.228	803.75
1806.578	818.75
1810.924	793.75
1815.266	785.75
1819.603	772.75
1823.937	756.75
1828.266	744.75
1832.591	752.75
1836.913	742.75
1841.23	731.75
1845.543	740.75
1849.852	722.75
1854.156	732.75
1858.457	739.75
1862.754	743.75
1867.047	732.75
1871.335	744.75
1875.62	754.75
1879.9	754.75
1884.177	742.75
1888.449	741.75
1892.718	733.75
1896.982	739.75
1901.243	724.75
1905.499	737.75
1909.752	745.75
1914	731.75
1918.245	729.75
1922.485	731.75
1926.722	739.75
1930.954	741.75
1935.183	738.75
1939.408	743.75
1943.628	743.75
1947.845	747.75
1952.058	767.75
1956.267	748.75
1960.472	736.75
1964.673	719.75
1968.87	735.75
1973.063	725.75
1977.252	713.75
1981.438	720.75
1985.619	707.75
1989.797	696.75
1993.971	716.75
1998.14	721.75
2002.306	705.75
2006.469	714.75
2010.627	712.75
2014.781	708.75
2018.932	702.75
2023.078	714.75
2027.221	703.75
2031.36	708.75
2035.495	702.75
2039.627	697.75
2043.754	690.75
2047.878	678.75
2051.998	688.75
2056.114	678.75
2060.226	679.75
2064.334	684.75
2068.439	692.75
2072.54	691.75
2076.637	689.75
2080.73	702.75
2084.82	707.75
2088.906	706.75
2092.988	698.75
2097.066	707.75
2101.14	699.75
2105.211	694.75
2109.278	692.75
2113.342	686.75
2117.401	684.75
2121.457	687.75
2125.509	668.75
2129.558	680.75
2133.602	667.75
2137.643	662.75
2141.681	671.75
2145.714	677.75
2149.744	655.75
2153.77	656.75
2157.793	648.75
2161.812	637.75
2165.827	633.75
2169.838	625.75
2173.846	615.75
2177.851	617.75
2181.851	605.75
2185.848	589.75
2189.841	582.75
2193.831	582.75
2197.817	592.75
2201.799	578.75
2205.778	577.75
2209.753	574.75
2213.725	580.75
2217.693	559.75
2221.657	577.75
2225.618	568.75
2229.575	564.75
2233.529	570.75
2237.479	570.75
2241.425	563.75
2245.368	552.75
2249.307	552.75
2253.243	537.75
2257.175	537.75
2261.104	526.75
2265.029	510.75
2268.95	512.75
2272.868	511.75
2276.783	504.75
2280.694	494.75
2284.601	490.75
2288.505	478.75
2292.405	484.75
2296.302	476.75
2300.195	474.75
2304.085	470.75
2307.971	442.75
2311.854	458.75
2315.734	445.75
2319.609	427.75
2323.482	440.75
2327.351	424.75
2331.216	418.75
2335.078	412.75
2338.937	426.75
2342.792	409.75
2346.643	412.75
2350.492	411.75
2354.336	411.75
2358.178	401.75
2362.015	418.75
2365.85	407.75
2369.681	421.75
2373.508	412.75
2377.333	412.75
2381.153	417.75
2384.971	413.75
2388.785	408.75
2392.595	403.75
2396.402	399.75
2400.206	388.75
2404.007	387.75
2407.804	391.75
2411.597	399.75
2415.388	391.75
2419.174	380.75
2422.958	388.75
2426.738	388.75
2430.515	383.75
2434.289	385.75
2438.059	381.75
2441.825	381.75
2445.589	372.75
2449.349	368.75
2453.106	374.75
2456.859	366.75
2460.61	370.75
2464.356	356.75
2468.1	359.75
2471.84	362.75
2475.577	354.75
2479.311	354.75
2483.041	363.75
2486.768	355.75
2490.492	352.75
2494.213	351.75
2497.93	355.75
2501.644	344.75
2505.355	351.75
2509.062	356.75
2512.766	346.75
2516.467	345.75
2520.165	361.75
2523.859	342.75
2527.551	344.75
2531.239	335.75
2534.923	337.75
2538.605	337.75
2542.283	327.75
2545.958	331.75
2549.63	329.75
2553.299	327.75
2556.964	326.75
2560.626	325.75
2564.285	316.75
2567.941	320.75
2571.594	320.75
2575.243	318.75
2578.89	316.75
2582.533	312.75
2586.173	313.75
2589.809	309.75
2593.443	301.75
2597.073	306.75
2600.701	302.75
2604.325	298.75
2607.946	311.75
2611.564	304.75
2615.178	284.75
2618.79	293.75
2622.398	292.75
2626.004	290.75
2629.606	291.75
2633.205	290.75
2636.801	291.75
2640.394	283.75
2643.983	278.75
2647.57	282.75
2651.153	277.75
2654.734	271.75
2658.311	272.75
2661.885	271.75
2665.456	266.75
2669.025	259.75
2672.589	262.75
2676.151	258.75
2679.71	253.75
2683.266	252.75
2686.819	248.75
2690.368	247.75
2693.915	252.75
2697.458	246.75
2700.999	245.75
2704.536	243.75
2708.071	236.75
2711.602	232.75
2715.13	227.75
2718.656	230.75
2722.178	231.75
2725.697	232.75
2729.214	232.75
2732.727	225.75
2736.237	228.75
2739.744	233.75
2743.249	227.75
2746.75	232.75
2750.248	228.75
2753.743	238.75
2757.236	228.75
2760.725	231.75
2764.211	227.75
2767.695	232.75
2771.175	231.75
2774.652	224.75
2778.127	230.75
2781.598	218.75
2785.067	229.75
2788.532	214.75
2791.995	225.75
2795.455	223.75
2798.911	229.75
2802.365	226.75
2805.816	229.75
2809.264	230.75
2812.709	228.75
2816.151	225.75
2819.59	227.75
2823.026	214.75
2826.46	224.75
2829.89	233.75
2833.318	225.75
2836.742	223.75
2840.164	231.75
2843.583	228.75
2846.999	226.75
2850.412	231.75
2853.822	234.75
2857.229	227.75
2860.634	241.75
2864.035	239.75
2867.434	252.75
2870.83	250.75
2874.223	246.75
2877.613	251.75
2881	242.75
2884.385	252.75
2887.766	253.75
2891.145	245.75
2894.521	247.75
2897.894	244.75
2901.264	249.75
2904.631	251.75
2907.996	252.75
2911.358	259.75
2914.717	261.75
2918.073	259.75
2921.426	271.75
2924.777	261.75
2928.124	264.75
2931.469	267.75
2934.811	266.75
2938.15	283.75
2941.487	284.75
2944.821	290.75
2948.152	283.75
2951.48	296.75
2954.805	293.75
2958.128	298.75
2961.447	301.75
2964.765	308.75
2968.079	311.75
2971.39	315.75
2974.699	320.75
2978.005	329.75
2981.308	328.75
2984.609	340.75
2987.907	352.75
2991.202	361.75
2994.494	379.75
2997.784	381.75
3001.07	403.75
3004.355	401.75
3007.636	411.75
3010.915	417.75
3014.191	426.75
3017.464	426.75
3020.734	442.75
3024.002	437.75
3027.267	444.75
3030.53	460.75
3033.789	470.75
3037.046	470.75
3040.301	481.75
3043.552	488.75
3046.801	503.75
3050.048	509.75
3053.291	530.75
3056.532	535.75
3059.771	559.75
3063.006	571.75
3066.239	587.75
3069.469	613.75
3072.697	619.75
3075.922	632.75
3079.144	644.75
3082.364	658.75
3085.581	676.75
3088.795	678.75
3092.007	703.75
3095.216	716.75
3098.423	741.75
3101.627	762.75
3104.828	767.75
3108.026	782.75
3111.222	795.75
3114.416	808.75
3117.607	850.75
3120.795	844.75
3123.98	866.75
3127.163	901.75
3130.344	915.75
3133.521	926.75
3136.696	950.75
3139.869	960.75
3143.039	978.75
3146.206	1007.75
3149.371	1016.75
3152.533	1028.75
3155.693	1022.75
3158.85	1050.75
3162.005	1039.75
3165.157	1042.75
3168.306	1049.75
3171.453	1050.75
3174.597	1043.75
3177.739	1059.75
3180.878	1062.75
3184.014	1059.75
3187.149	1062.75
3190.28	1070.75
3193.409	1068.75
3196.536	1070.75
3199.659	1079.75
3202.781	1072.75
3205.9	1096.75
3209.016	1099.75
3212.13	1088.75
3215.241	1075.75
3218.35	1066.75
3221.456	1048.75
3224.56	1056.75
3227.661	1040.75
3230.76	1018.75
3233.856	1024.75
3236.95	1019.75
3240.041	1008.75
3243.13	983.75
3246.216	978.75
3249.3	972.75
3252.382	980.75
3255.46	959.75
3258.537	967.75
3261.611	968.75
3264.682	968.75
3267.751	944.75
3270.818	952.75
3273.882	948.75
3276.943	948.75
3280.002	941.75
3283.059	920.75
3286.113	911.75
3289.165	906.75
3292.214	895.75
3295.261	869.75
3298.306	860.75
3301.348	853.75
3304.387	839.75
3307.425	831.75
3310.459	817.75
3313.492	804.75
3316.521	790.75
3319.549	783.75
3322.574	772.75
3325.597	776.75
3328.617	771.75
3331.635	767.75
3334.65	746.75
3337.663	749.75
3340.674	751.75
3343.682	744.75
3346.688	735.75
3349.691	734.75
3352.692	730.75
3355.691	730.75
3358.687	715.75
3361.681	710.75
3364.673	706.75
3367.662	692.75
3370.649	687.75
3373.633	685.75
3376.615	668.75
3379.595	655.75
3382.572	653.75
3385.547	632.75
3388.52	644.75
3391.49	617.75
3394.458	610.75
3397.424	602.75
3400.387	606.75
3403.348	585.75
3406.307	585.75
3409.263	583.75
3412.217	579.75
3415.168	570.75
3418.118	572.75
3421.065	546.75
3424.009	550.75
3426.951	536.75
3429.891	528.75
3432.829	522.75
3435.764	510.75
3438.697	512.75
3441.628	488.75
3444.557	471.75
3447.483	472.75
3450.407	444.75
3453.328	439.75
3456.247	425.75
3459.164	422.75
3462.079	407.75
3464.991	396.75
3467.902	382.75
3470.809	367.75
3473.715	351.75
3476.618	350.75
3479.519	336.75
3482.418	327.75
3485.315	316.75
3488.209	302.75
3491.101	301.75
3493.99	280.75
3496.878	287.75
3499.763	277.75
3502.646	264.75
3505.527	256.75
3508.405	252.75
3511.281	234.75
3514.155	222.75
3517.027	218.75
3519.897	208.75
3522.764	197.75
3525.629	192.75
3528.492	171.75
3531.352	161.75
3534.211	161.75
3537.067	143.75
3539.921	139.75
3542.773	129.75
3545.622	129.75
3548.469	115.75
3551.315	108.75
3554.157	104.75
3556.998	97.75
3559.837	93.75
3562.673	80.75
3565.507	75.75
3568.339	67.75
3571.169	62.75
3573.996	59.75
3576.822	56.75
3579.645	50.75
3582.466	46.75
3585.285	40.75
3588.101	41.75
3590.916	32.75
3593.728	31.75
3596.538	28.75
3599.346	19.75
3602.152	18.75
3604.956	12.75
3607.757	5.75
3610.556	0.75
3613.354	-2.25
3616.149	-6.25
3618.942	-8.25
3621.732	-13.25
3624.521	-11.25
3627.307	-12.25
3630.092	-18.25
3632.874	-13.25
3635.654	-18.25
3638.432	-23.25
3641.208	-29.25
3643.982	-30.25
3646.753	-34.25
3649.523	-37.25
3652.29	-41.25
3655.055	-44.25
3657.818	-44.25
3660.579	-46.25
3663.338	-44.25
3666.095	-43.25
3668.849	-47.25
3671.602	-52.25
3674.352	-49.25
3677.101	-57.25
3679.847	-61.25
3682.591	-64.25
3685.333	-61.25
3688.073	-65.25
3690.811	-66.25
3693.547	-71.25
3696.281	-72.25
3699.013	-73.25
3701.742	-67.25
3704.47	-74.25
3707.195	-74.25
3709.919	-71.25
3712.64	-71.25
3715.359	-74.25
3718.076	-76.25
3720.792	-80.25
3723.505	-80.25
3726.216	-79.25
3728.925	-78.25
3731.632	-82.25
3734.336	-80.25
3737.039	-80.25
3739.74	-80.25
3742.439	-85.25
3745.136	-85.25
3747.83	-84.25
3750.523	-82.25
3753.213	-85.25
3755.902	-83.25
3758.589	-85.25
3761.273	-87.25
3763.956	-87.25
3766.636	-86.25
3769.315	-90.25
3771.991	-89.25
3774.665	-88.25
3777.338	-87.25
3780.008	-88.25
3782.677	-88.25
3785.343	-86.25
3788.007	-86.25
3790.67	-92.25
3793.33	-91.25
3795.989	-90.25
3798.645	-86.25
3801.299	-90.25
3803.952	-95.25
3806.602	-98.25
3809.251	-95.25
3811.897	-93.25
3814.542	-93.25
3817.184	-91.25
3819.825	-96.25
3822.463	-91.25
3825.1	-90.25
3827.735	-96.25
3830.367	-92.25
3832.998	-101.25
3835.627	-94.25
3838.253	-94.25
3840.878	-96.25
3843.501	-96.25
3846.122	-98.25
3848.741	-100.25
3851.358	-97.25
3853.973	-98.25
3856.586	-98.25
3859.197	-92.25
3861.806	-94.25
3864.414	-95.25
3867.019	-98.25
3869.622	-99.25
3872.224	-96.25
3874.823	-95.25
3877.421	-91.25
3880.016	-88.25
3882.61	-85.25
3885.202	-89.25
3887.792	-89.25
3890.38	-95.25
3892.966	-97.25
3895.55	-96.25
3898.132	-95.25
3900.713	-97.25
3903.291	-97.25
3905.868	-96.25
3908.442	-99.25
3911.015	-97.25
3913.586	-101.25
3916.155	-103.25
3918.722	-100.25
3921.287	-99.25
3923.85	-99.25
3926.411	-99.25
3928.971	-100.25
3931.528	-102.25
3934.084	-101.25
3936.638	-103.25
3939.19	-100.25
3941.74	-97.25
3944.288	-101.25
3946.834	-96.25
3949.378	-100.25
3951.921	-99.25
3954.462	-101.25
3957	-102.25
3959.537	-101.25
3962.072	-105.25
3964.606	-101.25
3967.137	-99.25
3969.667	-97.25
3972.194	-100.25
3974.72	-98.25
3977.244	-101.25
3979.766	-97.25
3982.286	-98.25
3984.805	-96.25
3987.321	-96.25
3989.836	-96.25
3992.349	-103.25
3994.86	-99.25
3997.369	-100.25
3999.877	-100.25
4002.382	-99.25
4004.886	-99.25
4007.388	-96.25
4009.888	-103.25
4012.386	-96.25
4014.883	-100.25
4017.377	-102.25
4019.87	-95.25
4022.361	-97.25
4024.85	-99.25
4027.338	-98.25
4029.823	-98.25
4032.307	-97.25
4034.789	-98.25
4037.269	-102.25
4039.747	-101.25
4042.224	-104.25
4044.699	-104.25
4047.172	-99.25
4049.643	-101.25
4052.112	-101.25
4054.58	-102.25
4057.046	-98.25
4059.51	-101.25
4061.972	-102.25
4064.432	-103.25
4066.891	-99.25
4069.348	-98.25
4071.803	-102.25
4074.256	-94.25
4076.708	-98.25
4079.158	-101.25
4081.606	-101.25
4084.052	-102.25
4086.497	-96.25
4088.939	-101.25
4091.38	-97.25
4093.819	-99.25
4096.257	-102.25
4098.693	-98.25
4101.127	-103.25
4103.559	-104.25
4105.989	-66.25
4108.418	-67.25
4110.845	-66.25
4113.27	-60.25
4115.694	-54.25
4118.115	-42.25
4120.535	-98.25
4122.954	-94.25
4125.37	-101.25
4127.785	-102.25
4130.198	-102.25
4132.609	-99.25
4135.019	-104.25
4137.427	-104.25
4139.833	-101.25
4142.237	-103.25
