Data from 10CFU2_A_RamanShift_1.txt Node
Date: Mon Jan 23 13:58:47 IST 2017
User: aro
Spectrometer: QEPB0276
Trigger mode: 0
Integration Time (sec): 5.000000E0
Scans to average: 1
Electric dark correction enabled: true
Nonlinearity correction enabled: false
Boxcar width: 0
XAxis mode: Raman Shifts
Number of Pixels in Spectrum: 1044
>>>>>Begin Spectral Data<<<<<
160.701	-30.62
166.742	5.38
172.777	83.38
178.805	341.38
184.826	963.38
190.841	2015.38
196.849	3167.38
202.85	3991.38
208.845	4144.38
214.833	4027.38
220.815	3872.38
226.789	3729.38
232.758	3638.38
238.719	3518.38
244.674	3372.38
250.623	3224.38
256.565	3096.38
262.5	2948.38
268.429	2807.38
274.351	2684.38
280.267	2587.38
286.176	2491.38
292.079	2384.38
297.975	2343.38
303.865	2253.38
309.748	2180.38
315.625	2125.38
321.495	2098.38
327.359	2052.38
333.217	2015.38
339.068	2012.38
344.912	1999.38
350.751	2005.38
356.583	1992.38
362.408	1970.38
368.227	1979.38
374.04	2007.38
379.847	2003.38
385.647	2006.38
391.44	2026.38
397.228	2031.38
403.009	2047.38
408.784	2051.38
414.553	2036.38
420.315	2054.38
426.071	2049.38
431.821	2074.38
437.565	2029.38
443.302	2049.38
449.033	2045.38
454.758	2038.38
460.477	2025.38
466.189	2033.38
471.896	2014.38
477.596	2002.38
483.29	1981.38
488.978	1992.38
494.66	1967.38
500.335	1959.38
506.005	1936.38
511.668	1879.38
517.325	1851.38
522.977	1829.38
528.622	1786.38
534.261	1778.38
539.894	1735.38
545.521	1755.38
551.141	1744.38
556.756	1733.38
562.365	1713.38
567.968	1704.38
573.565	1687.38
579.155	1686.38
584.74	1677.38
590.319	1646.38
595.892	1643.38
601.459	1647.38
607.02	1627.38
612.575	1619.38
618.124	1584.38
623.667	1578.38
629.204	1573.38
634.735	1557.38
640.261	1534.38
645.781	1529.38
651.294	1540.38
656.802	1527.38
662.304	1524.38
667.8	1509.38
673.29	1506.38
678.775	1511.38
684.254	1486.38
689.726	1482.38
695.193	1479.38
700.655	1460.38
706.11	1460.38
711.56	1438.38
717.004	1441.38
722.442	1419.38
727.874	1439.38
733.301	1422.38
738.722	1414.38
744.137	1394.38
749.547	1400.38
754.951	1388.38
760.349	1382.38
765.741	1400.38
771.128	1375.38
776.509	1383.38
781.885	1393.38
787.254	1393.38
792.618	1386.38
797.977	1358.38
803.33	1360.38
808.677	1336.38
814.019	1322.38
819.355	1317.38
824.686	1309.38
830.011	1293.38
835.33	1290.38
840.644	1282.38
845.952	1304.38
851.255	1288.38
856.552	1272.38
861.844	1271.38
867.13	1250.38
872.41	1242.38
877.686	1246.38
882.955	1232.38
888.219	1212.38
893.478	1206.38
898.731	1174.38
903.979	1144.38
909.221	1140.38
914.458	1134.38
919.69	1119.38
924.916	1113.38
930.136	1103.38
935.351	1118.38
940.561	1115.38
945.766	1111.38
950.965	1103.38
956.158	1097.38
961.347	1074.38
966.529	1048.38
971.707	1054.38
976.879	1031.38
982.046	1015.38
987.208	1017.38
992.364	1020.38
997.515	1025.38
1002.66	1026.38
1007.801	1046.38
1012.936	1047.38
1018.066	1049.38
1023.19	1066.38
1028.309	1064.38
1033.423	1053.38
1038.532	1058.38
1043.636	1060.38
1048.734	1039.38
1053.827	1038.38
1058.915	1022.38
1063.998	1025.38
1069.075	1018.38
1074.147	1020.38
1079.214	1026.38
1084.276	1027.38
1089.333	1052.38
1094.385	1049.38
1099.431	1049.38
1104.472	1050.38
1109.509	1035.38
1114.54	1042.38
1119.565	1014.38
1124.586	1000.38
1129.602	988.38
1134.613	985.38
1139.618	988.38
1144.619	986.38
1149.614	981.38
1154.604	999.38
1159.589	1003.38
1164.57	1007.38
1169.545	1017.38
1174.515	1010.38
1179.48	1009.38
1184.44	1005.38
1189.395	999.38
1194.345	975.38
1199.29	992.38
1204.23	987.38
1209.165	990.38
1214.095	987.38
1219.021	994.38
1223.941	1019.38
1228.856	1012.38
1233.766	1015.38
1238.672	1020.38
1243.572	1009.38
1248.467	1013.38
1253.358	1009.38
1258.244	988.38
1263.124	983.38
1268	954.38
1272.871	945.38
1277.737	954.38
1282.599	945.38
1287.455	943.38
1292.306	954.38
1297.153	959.38
1301.995	946.38
1306.832	960.38
1311.664	962.38
1316.491	967.38
1321.314	972.38
1326.132	972.38
1330.945	966.38
1335.753	950.38
1340.556	954.38
1345.354	917.38
1350.148	927.38
1354.937	919.38
1359.722	912.38
1364.501	891.38
1369.276	894.38
1374.046	879.38
1378.811	867.38
1383.572	862.38
1388.327	870.38
1393.079	872.38
1397.825	854.38
1402.567	860.38
1407.304	860.38
1412.036	842.38
1416.764	850.38
1421.487	851.38
1426.205	848.38
1430.919	855.38
1435.628	872.38
1440.333	892.38
1445.032	888.38
1449.727	897.38
1454.418	908.38
1459.104	900.38
1463.785	886.38
1468.462	896.38
1473.134	881.38
1477.802	885.38
1482.465	884.38
1487.123	874.38
1491.777	882.38
1496.426	882.38
1501.071	880.38
1505.711	889.38
1510.347	911.38
1514.978	895.38
1519.604	914.38
1524.226	904.38
1528.844	913.38
1533.457	913.38
1538.065	911.38
1542.669	915.38
1547.269	912.38
1551.864	912.38
1556.454	922.38
1561.041	923.38
1565.622	937.38
1570.199	947.38
1574.772	953.38
1579.34	981.38
1583.904	1001.38
1588.464	1013.38
1593.019	1031.38
1597.569	1052.38
1602.115	1062.38
1606.657	1072.38
1611.195	1084.38
1615.728	1100.38
1620.256	1103.38
1624.78	1135.38
1629.3	1159.38
1633.816	1175.38
1638.327	1191.38
1642.834	1195.38
1647.336	1207.38
1651.834	1207.38
1656.328	1207.38
1660.817	1199.38
1665.302	1175.38
1669.783	1154.38
1674.259	1133.38
1678.732	1100.38
1683.199	1058.38
1687.663	1038.38
1692.122	992.38
1696.577	947.38
1701.028	890.38
1705.474	860.38
1709.917	820.38
1714.355	813.38
1718.788	798.38
1723.218	786.38
1727.643	770.38
1732.064	751.38
1736.481	731.38
1740.893	711.38
1745.301	681.38
1749.705	672.38
1754.105	661.38
1758.501	644.38
1762.893	630.38
1767.28	629.38
1771.663	621.38
1776.042	603.38
1780.417	623.38
1784.787	618.38
1789.154	622.38
1793.516	605.38
1797.874	614.38
1802.228	601.38
1806.578	593.38
1810.924	581.38
1815.266	575.38
1819.603	563.38
1823.937	551.38
1828.266	544.38
1832.591	542.38
1836.913	548.38
1841.23	547.38
1845.543	542.38
1849.852	551.38
1854.156	550.38
1858.457	544.38
1862.754	550.38
1867.047	560.38
1871.335	558.38
1875.62	563.38
1879.9	570.38
1884.177	559.38
1888.449	554.38
1892.718	555.38
1896.982	554.38
1901.243	554.38
1905.499	561.38
1909.752	559.38
1914	550.38
1918.245	557.38
1922.485	551.38
1926.722	559.38
1930.954	571.38
1935.183	566.38
1939.408	565.38
1943.628	557.38
1947.845	579.38
1952.058	557.38
1956.267	553.38
1960.472	541.38
1964.673	544.38
1968.87	539.38
1973.063	525.38
1977.252	516.38
1981.438	525.38
1985.619	520.38
1989.797	521.38
1993.971	528.38
1998.14	527.38
2002.306	530.38
2006.469	531.38
2010.627	536.38
2014.781	537.38
2018.932	532.38
2023.078	541.38
2027.221	535.38
2031.36	532.38
2035.495	527.38
2039.627	524.38
2043.754	522.38
2047.878	515.38
2051.998	520.38
2056.114	529.38
2060.226	531.38
2064.334	529.38
2068.439	532.38
2072.54	548.38
2076.637	543.38
2080.73	557.38
2084.82	545.38
2088.906	546.38
2092.988	548.38
2097.066	535.38
2101.14	534.38
2105.211	536.38
2109.278	542.38
2113.342	521.38
2117.401	528.38
2121.457	522.38
2125.509	523.38
2129.558	514.38
2133.602	510.38
2137.643	509.38
2141.681	518.38
2145.714	508.38
2149.744	506.38
2153.77	497.38
2157.793	487.38
2161.812	484.38
2165.827	483.38
2169.838	470.38
2173.846	475.38
2177.851	461.38
2181.851	456.38
2185.848	446.38
2189.841	452.38
2193.831	441.38
2197.817	442.38
2201.799	437.38
2205.778	444.38
2209.753	428.38
2213.725	436.38
2217.693	427.38
2221.657	429.38
2225.618	433.38
2229.575	416.38
2233.529	428.38
2237.479	420.38
2241.425	422.38
2245.368	421.38
2249.307	403.38
2253.243	410.38
2257.175	396.38
2261.104	386.38
2265.029	380.38
2268.95	377.38
2272.868	374.38
2276.783	377.38
2280.694	361.38
2284.601	351.38
2288.505	350.38
2292.405	342.38
2296.302	341.38
2300.195	341.38
2304.085	335.38
2307.971	325.38
2311.854	321.38
2315.734	315.38
2319.609	307.38
2323.482	302.38
2327.351	297.38
2331.216	304.38
2335.078	308.38
2338.937	300.38
2342.792	293.38
2346.643	296.38
2350.492	285.38
2354.336	288.38
2358.178	292.38
2362.015	289.38
2365.85	297.38
2369.681	294.38
2373.508	294.38
2377.333	298.38
2381.153	298.38
2384.971	294.38
2388.785	284.38
2392.595	292.38
2396.402	289.38
2400.206	281.38
2404.007	281.38
2407.804	276.38
2411.597	284.38
2415.388	284.38
2419.174	271.38
2422.958	266.38
2426.738	277.38
2430.515	276.38
2434.289	273.38
2438.059	272.38
2441.825	272.38
2445.589	265.38
2449.349	266.38
2453.106	263.38
2456.859	264.38
2460.61	260.38
2464.356	259.38
2468.1	254.38
2471.84	249.38
2475.577	251.38
2479.311	251.38
2483.041	253.38
2486.768	254.38
2490.492	257.38
2494.213	258.38
2497.93	264.38
2501.644	256.38
2505.355	253.38
2509.062	247.38
2512.766	252.38
2516.467	255.38
2520.165	255.38
2523.859	245.38
2527.551	248.38
2531.239	241.38
2534.923	237.38
2538.605	238.38
2542.283	232.38
2545.958	236.38
2549.63	233.38
2553.299	228.38
2556.964	240.38
2560.626	227.38
2564.285	228.38
2567.941	229.38
2571.594	224.38
2575.243	223.38
2578.89	234.38
2582.533	214.38
2586.173	222.38
2589.809	211.38
2593.443	210.38
2597.073	211.38
2600.701	206.38
2604.325	212.38
2607.946	213.38
2611.564	206.38
2615.178	204.38
2618.79	207.38
2622.398	205.38
2626.004	206.38
2629.606	196.38
2633.205	199.38
2636.801	203.38
2640.394	198.38
2643.983	187.38
2647.57	188.38
2651.153	180.38
2654.734	189.38
2658.311	191.38
2661.885	192.38
2665.456	190.38
2669.025	184.38
2672.589	177.38
2676.151	183.38
2679.71	172.38
2683.266	169.38
2686.819	173.38
2690.368	176.38
2693.915	168.38
2697.458	168.38
2700.999	169.38
2704.536	165.38
2708.071	161.38
2711.602	160.38
2715.13	163.38
2718.656	166.38
2722.178	176.38
2725.697	175.38
2729.214	167.38
2732.727	166.38
2736.237	165.38
2739.744	168.38
2743.249	170.38
2746.75	166.38
2750.248	170.38
2753.743	174.38
2757.236	165.38
2760.725	164.38
2764.211	158.38
2767.695	165.38
2771.175	158.38
2774.652	148.38
2778.127	155.38
2781.598	154.38
2785.067	155.38
2788.532	152.38
2791.995	160.38
2795.455	156.38
2798.911	164.38
2802.365	167.38
2805.816	160.38
2809.264	165.38
2812.709	167.38
2816.151	165.38
2819.59	168.38
2823.026	157.38
2826.46	164.38
2829.89	169.38
2833.318	163.38
2836.742	166.38
2840.164	175.38
2843.583	177.38
2846.999	176.38
2850.412	173.38
2853.822	180.38
2857.229	178.38
2860.634	181.38
2864.035	188.38
2867.434	196.38
2870.83	194.38
2874.223	198.38
2877.613	195.38
2881	191.38
2884.385	202.38
2887.766	200.38
2891.145	199.38
2894.521	210.38
2897.894	202.38
2901.264	201.38
2904.631	208.38
2907.996	208.38
2911.358	215.38
2914.717	213.38
2918.073	218.38
2921.426	218.38
2924.777	228.38
2928.124	230.38
2931.469	229.38
2934.811	248.38
2938.15	249.38
2941.487	243.38
2944.821	257.38
2948.152	252.38
2951.48	267.38
2954.805	262.38
2958.128	281.38
2961.447	282.38
2964.765	274.38
2968.079	298.38
2971.39	294.38
2974.699	308.38
2978.005	307.38
2981.308	306.38
2984.609	333.38
2987.907	337.38
2991.202	340.38
2994.494	354.38
2997.784	354.38
3001.07	375.38
3004.355	376.38
3007.636	386.38
3010.915	398.38
3014.191	399.38
3017.464	421.38
3020.734	416.38
3024.002	430.38
3027.267	438.38
3030.53	436.38
3033.789	455.38
3037.046	456.38
3040.301	473.38
3043.552	480.38
3046.801	495.38
3050.048	505.38
3053.291	522.38
3056.532	544.38
3059.771	555.38
3063.006	562.38
3066.239	591.38
3069.469	603.38
3072.697	629.38
3075.922	641.38
3079.144	653.38
3082.364	671.38
3085.581	689.38
3088.795	705.38
3092.007	736.38
3095.216	750.38
3098.423	754.38
3101.627	772.38
3104.828	786.38
3108.026	805.38
3111.222	813.38
3114.416	839.38
3117.607	870.38
3120.795	890.38
3123.98	911.38
3127.163	924.38
3130.344	958.38
3133.521	953.38
3136.696	990.38
3139.869	1013.38
3143.039	1028.38
3146.206	1052.38
3149.371	1051.38
3152.533	1062.38
3155.693	1083.38
3158.85	1081.38
3162.005	1088.38
3165.157	1095.38
3168.306	1099.38
3171.453	1094.38
3174.597	1094.38
3177.739	1118.38
3180.878	1111.38
3184.014	1103.38
3187.149	1103.38
3190.28	1116.38
3193.409	1129.38
3196.536	1136.38
3199.659	1143.38
3202.781	1140.38
3205.9	1133.38
3209.016	1149.38
3212.13	1134.38
3215.241	1138.38
3218.35	1127.38
3221.456	1116.38
3224.56	1109.38
3227.661	1096.38
3230.76	1089.38
3233.856	1094.38
3236.95	1081.38
3240.041	1068.38
3243.13	1063.38
3246.216	1059.38
3249.3	1034.38
3252.382	1034.38
3255.46	1040.38
3258.537	1027.38
3261.611	1031.38
3264.682	1014.38
3267.751	1016.38
3270.818	1015.38
3273.882	991.38
3276.943	987.38
3280.002	982.38
3283.059	970.38
3286.113	977.38
3289.165	952.38
3292.214	934.38
3295.261	917.38
3298.306	898.38
3301.348	893.38
3304.387	884.38
3307.425	861.38
3310.459	864.38
3313.492	846.38
3316.521	847.38
3319.549	817.38
3322.574	814.38
3325.597	814.38
3328.617	808.38
3331.635	805.38
3334.65	796.38
3337.663	798.38
3340.674	793.38
3343.682	783.38
3346.688	778.38
3349.691	779.38
3352.692	767.38
3355.691	779.38
3358.687	768.38
3361.681	754.38
3364.673	746.38
3367.662	741.38
3370.649	738.38
3373.633	721.38
3376.615	716.38
3379.595	711.38
3382.572	697.38
3385.547	670.38
3388.52	674.38
3391.49	654.38
3394.458	660.38
3397.424	643.38
3400.387	632.38
3403.348	631.38
3406.307	626.38
3409.263	625.38
3412.217	611.38
3415.168	607.38
3418.118	595.38
3421.065	589.38
3424.009	585.38
3426.951	583.38
3429.891	564.38
3432.829	561.38
3435.764	544.38
3438.697	529.38
3441.628	522.38
3444.557	505.38
3447.483	488.38
3450.407	484.38
3453.328	458.38
3456.247	465.38
3459.164	450.38
3462.079	428.38
3464.991	416.38
3467.902	412.38
3470.809	385.38
3473.715	390.38
3476.618	368.38
3479.519	367.38
3482.418	355.38
3485.315	338.38
3488.209	340.38
3491.101	327.38
3493.99	313.38
3496.878	305.38
3499.763	292.38
3502.646	284.38
3505.527	279.38
3508.405	271.38
3511.281	255.38
3514.155	239.38
3517.027	235.38
3519.897	221.38
3522.764	208.38
3525.629	205.38
3528.492	192.38
3531.352	176.38
3534.211	165.38
3537.067	153.38
3539.921	148.38
3542.773	142.38
3545.622	130.38
3548.469	128.38
3551.315	122.38
3554.157	113.38
3556.998	109.38
3559.837	103.38
3562.673	87.38
3565.507	81.38
3568.339	80.38
3571.169	72.38
3573.996	72.38
3576.822	58.38
3579.645	59.38
3582.466	53.38
3585.285	54.38
3588.101	45.38
3590.916	40.38
3593.728	38.38
3596.538	33.38
3599.346	25.38
3602.152	23.38
3604.956	17.38
3607.757	14.38
3610.556	7.38
3613.354	0.38
3616.149	2.38
3618.942	-4.62
3621.732	-7.62
3624.521	-6.62
3627.307	-12.62
3630.092	-14.62
3632.874	-17.62
3635.654	-22.62
3638.432	-13.62
3641.208	-21.62
3643.982	-24.62
3646.753	-27.62
3649.523	-30.62
3652.29	-32.62
3655.055	-40.62
3657.818	-45.62
3660.579	-41.62
3663.338	-48.62
3666.095	-42.62
3668.849	-47.62
3671.602	-53.62
3674.352	-50.62
3677.101	-54.62
3679.847	-53.62
3682.591	-55.62
3685.333	-60.62
3688.073	-57.62
3690.811	-61.62
3693.547	-65.62
3696.281	-66.62
3699.013	-66.62
3701.742	-67.62
3704.47	-69.62
3707.195	-68.62
3709.919	-71.62
3712.64	-74.62
3715.359	-76.62
3718.076	-78.62
3720.792	-80.62
3723.505	-73.62
3726.216	-71.62
3728.925	-74.62
3731.632	-76.62
3734.336	-77.62
3737.039	-78.62
3739.74	-78.62
3742.439	-80.62
3745.136	-83.62
3747.83	-83.62
3750.523	-83.62
3753.213	-82.62
3755.902	-81.62
3758.589	-86.62
3761.273	-82.62
3763.956	-84.62
3766.636	-86.62
3769.315	-85.62
3771.991	-84.62
3774.665	-85.62
3777.338	-83.62
3780.008	-83.62
3782.677	-86.62
3785.343	-88.62
3788.007	-88.62
3790.67	-90.62
3793.33	-89.62
3795.989	-90.62
3798.645	-90.62
3801.299	-86.62
3803.952	-91.62
3806.602	-93.62
3809.251	-87.62
3811.897	-85.62
3814.542	-91.62
3817.184	-86.62
3819.825	-91.62
3822.463	-90.62
3825.1	-91.62
3827.735	-92.62
3830.367	-92.62
3832.998	-97.62
3835.627	-93.62
3838.253	-92.62
3840.878	-92.62
3843.501	-91.62
3846.122	-94.62
3848.741	-93.62
3851.358	-95.62
3853.973	-94.62
3856.586	-91.62
3859.197	-90.62
3861.806	-96.62
3864.414	-95.62
3867.019	-93.62
3869.622	-97.62
3872.224	-96.62
3874.823	-91.62
3877.421	-89.62
3880.016	-88.62
3882.61	-84.62
3885.202	-87.62
3887.792	-88.62
3890.38	-91.62
3892.966	-89.62
3895.55	-93.62
3898.132	-93.62
3900.713	-96.62
3903.291	-94.62
3905.868	-91.62
3908.442	-100.62
3911.015	-97.62
3913.586	-97.62
3916.155	-99.62
3918.722	-99.62
3921.287	-94.62
3923.85	-94.62
3926.411	-97.62
3928.971	-96.62
3931.528	-98.62
3934.084	-99.62
3936.638	-97.62
3939.19	-98.62
3941.74	-97.62
3944.288	-98.62
3946.834	-97.62
3949.378	-98.62
3951.921	-100.62
3954.462	-98.62
3957	-97.62
3959.537	-98.62
3962.072	-101.62
3964.606	-99.62
3967.137	-96.62
3969.667	-93.62
3972.194	-96.62
3974.72	-95.62
3977.244	-98.62
3979.766	-95.62
3982.286	-95.62
3984.805	-95.62
3987.321	-97.62
3989.836	-94.62
3992.349	-98.62
3994.86	-99.62
3997.369	-96.62
3999.877	-93.62
4002.382	-92.62
4004.886	-92.62
4007.388	-95.62
4009.888	-95.62
4012.386	-92.62
4014.883	-97.62
4017.377	-100.62
4019.87	-96.62
4022.361	-99.62
4024.85	-99.62
4027.338	-97.62
4029.823	-95.62
4032.307	-95.62
4034.789	-97.62
4037.269	-93.62
4039.747	-92.62
4042.224	-96.62
4044.699	-99.62
4047.172	-96.62
4049.643	-97.62
4052.112	-98.62
4054.58	-101.62
4057.046	-99.62
4059.51	-100.62
4061.972	-102.62
4064.432	-99.62
4066.891	-96.62
4069.348	-96.62
4071.803	-96.62
4074.256	-95.62
4076.708	-93.62
4079.158	-94.62
4081.606	-97.62
4084.052	-100.62
4086.497	-98.62
4088.939	-98.62
4091.38	-98.62
4093.819	-97.62
4096.257	-103.62
4098.693	-100.62
4101.127	-101.62
4103.559	-102.62
4105.989	-67.62
4108.418	-59.62
4110.845	-56.62
4113.27	-58.62
4115.694	-51.62
4118.115	-44.62
4120.535	-98.62
4122.954	-95.62
4125.37	-99.62
4127.785	-101.62
4130.198	-97.62
4132.609	-97.62
4135.019	-99.62
4137.427	-98.62
4139.833	-100.62
4142.237	-100.62
