Data from 1CFU1_B_RamanShift_3.txt Node
Date: Mon Jan 23 13:50:02 IST 2017
User: aro
Spectrometer: QEPB0276
Trigger mode: 0
Integration Time (sec): 5.000000E0
Scans to average: 1
Electric dark correction enabled: true
Nonlinearity correction enabled: false
Boxcar width: 0
XAxis mode: Raman Shifts
Number of Pixels in Spectrum: 1044
>>>>>Begin Spectral Data<<<<<
160.701	-29.5
166.742	4.5
172.777	85.5
178.805	353.5
184.826	999.5
190.841	2068.5
196.849	3260.5
202.85	4079.5
208.845	4301.5
214.833	4122.5
220.815	3990.5
226.789	3880.5
232.758	3776.5
238.719	3661.5
244.674	3520.5
250.623	3372.5
256.565	3219.5
262.5	3083.5
268.429	2923.5
274.351	2815.5
280.267	2692.5
286.176	2602.5
292.079	2518.5
297.975	2417.5
303.865	2352.5
309.748	2296.5
315.625	2222.5
321.495	2172.5
327.359	2143.5
333.217	2110.5
339.068	2105.5
344.912	2093.5
350.751	2084.5
356.583	2071.5
362.408	2064.5
368.227	2102.5
374.04	2086.5
379.847	2099.5
385.647	2106.5
391.44	2109.5
397.228	2099.5
403.009	2131.5
408.784	2149.5
414.553	2149.5
420.315	2155.5
426.071	2164.5
431.821	2151.5
437.565	2164.5
443.302	2145.5
449.033	2147.5
454.758	2124.5
460.477	2129.5
466.189	2139.5
471.896	2112.5
477.596	2083.5
483.29	2089.5
488.978	2068.5
494.66	2046.5
500.335	2043.5
506.005	1997.5
511.668	1968.5
517.325	1937.5
522.977	1910.5
528.622	1863.5
534.261	1858.5
539.894	1850.5
545.521	1838.5
551.141	1814.5
556.756	1830.5
562.365	1791.5
567.968	1783.5
573.565	1756.5
579.155	1766.5
584.74	1750.5
590.319	1740.5
595.892	1727.5
601.459	1725.5
607.02	1693.5
612.575	1689.5
618.124	1673.5
623.667	1651.5
629.204	1646.5
634.735	1621.5
640.261	1615.5
645.781	1599.5
651.294	1605.5
656.802	1598.5
662.304	1597.5
667.8	1573.5
673.29	1562.5
678.775	1578.5
684.254	1580.5
689.726	1550.5
695.193	1552.5
700.655	1529.5
706.11	1545.5
711.56	1514.5
717.004	1502.5
722.442	1502.5
727.874	1507.5
733.301	1495.5
738.722	1470.5
744.137	1466.5
749.547	1475.5
754.951	1466.5
760.349	1466.5
765.741	1468.5
771.128	1473.5
776.509	1461.5
781.885	1469.5
787.254	1447.5
792.618	1444.5
797.977	1430.5
803.33	1434.5
808.677	1412.5
814.019	1392.5
819.355	1391.5
824.686	1387.5
830.011	1346.5
835.33	1364.5
840.644	1345.5
845.952	1357.5
851.255	1351.5
856.552	1351.5
861.844	1337.5
867.13	1315.5
872.41	1311.5
877.686	1308.5
882.955	1299.5
888.219	1273.5
893.478	1265.5
898.731	1241.5
903.979	1215.5
909.221	1200.5
914.458	1196.5
919.69	1200.5
924.916	1186.5
930.136	1178.5
935.351	1184.5
940.561	1180.5
945.766	1174.5
950.965	1176.5
956.158	1161.5
961.347	1134.5
966.529	1124.5
971.707	1107.5
976.879	1087.5
982.046	1084.5
987.208	1088.5
992.364	1083.5
997.515	1098.5
1002.66	1112.5
1007.801	1114.5
1012.936	1111.5
1018.066	1144.5
1023.19	1128.5
1028.309	1132.5
1033.423	1144.5
1038.532	1126.5
1043.636	1114.5
1048.734	1108.5
1053.827	1100.5
1058.915	1081.5
1063.998	1091.5
1069.075	1093.5
1074.147	1087.5
1079.214	1104.5
1084.276	1096.5
1089.333	1101.5
1094.385	1112.5
1099.431	1123.5
1104.472	1113.5
1109.509	1109.5
1114.54	1092.5
1119.565	1081.5
1124.586	1069.5
1129.602	1063.5
1134.613	1051.5
1139.618	1059.5
1144.619	1043.5
1149.614	1062.5
1154.604	1061.5
1159.589	1083.5
1164.57	1060.5
1169.545	1068.5
1174.515	1081.5
1179.48	1063.5
1184.44	1058.5
1189.395	1053.5
1194.345	1045.5
1199.29	1068.5
1204.23	1055.5
1209.165	1066.5
1214.095	1058.5
1219.021	1075.5
1223.941	1070.5
1228.856	1083.5
1233.766	1093.5
1238.672	1096.5
1243.572	1098.5
1248.467	1091.5
1253.358	1066.5
1258.244	1054.5
1263.124	1037.5
1268	1019.5
1272.871	1009.5
1277.737	1011.5
1282.599	1006.5
1287.455	1021.5
1292.306	1019.5
1297.153	1023.5
1301.995	1028.5
1306.832	1045.5
1311.664	1039.5
1316.491	1026.5
1321.314	1050.5
1326.132	1052.5
1330.945	1016.5
1335.753	1011.5
1340.556	1003.5
1345.354	990.5
1350.148	994.5
1354.937	985.5
1359.722	982.5
1364.501	963.5
1369.276	959.5
1374.046	957.5
1378.811	949.5
1383.572	936.5
1388.327	932.5
1393.079	937.5
1397.825	919.5
1402.567	919.5
1407.304	918.5
1412.036	910.5
1416.764	909.5
1421.487	905.5
1426.205	918.5
1430.919	920.5
1435.628	927.5
1440.333	941.5
1445.032	953.5
1449.727	958.5
1454.418	969.5
1459.104	980.5
1463.785	968.5
1468.462	959.5
1473.134	948.5
1477.802	936.5
1482.465	946.5
1487.123	921.5
1491.777	924.5
1496.426	932.5
1501.071	951.5
1505.711	963.5
1510.347	958.5
1514.978	973.5
1519.604	970.5
1524.226	991.5
1528.844	980.5
1533.457	964.5
1538.065	979.5
1542.669	975.5
1547.269	978.5
1551.864	964.5
1556.454	1000.5
1561.041	980.5
1565.622	1002.5
1570.199	1010.5
1574.772	1029.5
1579.34	1045.5
1583.904	1080.5
1588.464	1079.5
1593.019	1103.5
1597.569	1118.5
1602.115	1132.5
1606.657	1136.5
1611.195	1153.5
1615.728	1170.5
1620.256	1174.5
1624.78	1185.5
1629.3	1208.5
1633.816	1225.5
1638.327	1246.5
1642.834	1268.5
1647.336	1266.5
1651.834	1270.5
1656.328	1260.5
1660.817	1264.5
1665.302	1238.5
1669.783	1234.5
1674.259	1182.5
1678.732	1163.5
1683.199	1111.5
1687.663	1085.5
1692.122	1038.5
1696.577	1009.5
1701.028	949.5
1705.474	889.5
1709.917	897.5
1714.355	870.5
1718.788	843.5
1723.218	833.5
1727.643	817.5
1732.064	796.5
1736.481	785.5
1740.893	765.5
1745.301	750.5
1749.705	719.5
1754.105	704.5
1758.501	699.5
1762.893	681.5
1767.28	667.5
1771.663	666.5
1776.042	672.5
1780.417	663.5
1784.787	663.5
1789.154	656.5
1793.516	684.5
1797.874	667.5
1802.228	663.5
1806.578	634.5
1810.924	628.5
1815.266	610.5
1819.603	606.5
1823.937	610.5
1828.266	602.5
1832.591	597.5
1836.913	591.5
1841.23	589.5
1845.543	595.5
1849.852	585.5
1854.156	588.5
1858.457	589.5
1862.754	609.5
1867.047	615.5
1871.335	615.5
1875.62	609.5
1879.9	612.5
1884.177	611.5
1888.449	624.5
1892.718	605.5
1896.982	601.5
1901.243	604.5
1905.499	601.5
1909.752	601.5
1914	605.5
1918.245	597.5
1922.485	609.5
1926.722	601.5
1930.954	613.5
1935.183	609.5
1939.408	624.5
1943.628	626.5
1947.845	620.5
1952.058	616.5
1956.267	606.5
1960.472	598.5
1964.673	585.5
1968.87	584.5
1973.063	578.5
1977.252	573.5
1981.438	584.5
1985.619	582.5
1989.797	566.5
1993.971	570.5
1998.14	584.5
2002.306	581.5
2006.469	585.5
2010.627	592.5
2014.781	582.5
2018.932	585.5
2023.078	588.5
2027.221	586.5
2031.36	581.5
2035.495	567.5
2039.627	574.5
2043.754	578.5
2047.878	585.5
2051.998	572.5
2056.114	571.5
2060.226	562.5
2064.334	581.5
2068.439	581.5
2072.54	578.5
2076.637	587.5
2080.73	591.5
2084.82	597.5
2088.906	596.5
2092.988	592.5
2097.066	592.5
2101.14	586.5
2105.211	574.5
2109.278	576.5
2113.342	563.5
2117.401	571.5
2121.457	558.5
2125.509	560.5
2129.558	560.5
2133.602	559.5
2137.643	554.5
2141.681	558.5
2145.714	564.5
2149.744	556.5
2153.77	551.5
2157.793	543.5
2161.812	533.5
2165.827	527.5
2169.838	521.5
2173.846	514.5
2177.851	497.5
2181.851	504.5
2185.848	496.5
2189.841	491.5
2193.831	493.5
2197.817	483.5
2201.799	476.5
2205.778	487.5
2209.753	477.5
2213.725	480.5
2217.693	472.5
2221.657	475.5
2225.618	476.5
2229.575	471.5
2233.529	466.5
2237.479	463.5
2241.425	457.5
2245.368	452.5
2249.307	452.5
2253.243	434.5
2257.175	431.5
2261.104	431.5
2265.029	415.5
2268.95	418.5
2272.868	407.5
2276.783	400.5
2280.694	403.5
2284.601	399.5
2288.505	399.5
2292.405	384.5
2296.302	378.5
2300.195	371.5
2304.085	376.5
2307.971	366.5
2311.854	359.5
2315.734	364.5
2319.609	349.5
2323.482	348.5
2327.351	342.5
2331.216	341.5
2335.078	341.5
2338.937	336.5
2342.792	334.5
2346.643	326.5
2350.492	322.5
2354.336	326.5
2358.178	331.5
2362.015	331.5
2365.85	330.5
2369.681	335.5
2373.508	337.5
2377.333	326.5
2381.153	338.5
2384.971	329.5
2388.785	326.5
2392.595	330.5
2396.402	325.5
2400.206	321.5
2404.007	316.5
2407.804	313.5
2411.597	319.5
2415.388	315.5
2419.174	311.5
2422.958	307.5
2426.738	312.5
2430.515	320.5
2434.289	315.5
2438.059	304.5
2441.825	304.5
2445.589	295.5
2449.349	298.5
2453.106	311.5
2456.859	295.5
2460.61	292.5
2464.356	290.5
2468.1	293.5
2471.84	287.5
2475.577	286.5
2479.311	291.5
2483.041	289.5
2486.768	288.5
2490.492	292.5
2494.213	289.5
2497.93	292.5
2501.644	284.5
2505.355	297.5
2509.062	282.5
2512.766	285.5
2516.467	276.5
2520.165	279.5
2523.859	277.5
2527.551	283.5
2531.239	272.5
2534.923	271.5
2538.605	269.5
2542.283	271.5
2545.958	273.5
2549.63	267.5
2553.299	273.5
2556.964	266.5
2560.626	255.5
2564.285	257.5
2567.941	260.5
2571.594	258.5
2575.243	256.5
2578.89	247.5
2582.533	253.5
2586.173	245.5
2589.809	251.5
2593.443	246.5
2597.073	241.5
2600.701	232.5
2604.325	244.5
2607.946	237.5
2611.564	239.5
2615.178	234.5
2618.79	232.5
2622.398	232.5
2626.004	226.5
2629.606	223.5
2633.205	230.5
2636.801	226.5
2640.394	225.5
2643.983	220.5
2647.57	217.5
2651.153	212.5
2654.734	217.5
2658.311	216.5
2661.885	215.5
2665.456	207.5
2669.025	218.5
2672.589	213.5
2676.151	207.5
2679.71	193.5
2683.266	198.5
2686.819	195.5
2690.368	192.5
2693.915	205.5
2697.458	194.5
2700.999	191.5
2704.536	190.5
2708.071	192.5
2711.602	187.5
2715.13	186.5
2718.656	190.5
2722.178	193.5
2725.697	199.5
2729.214	185.5
2732.727	190.5
2736.237	188.5
2739.744	183.5
2743.249	190.5
2746.75	195.5
2750.248	193.5
2753.743	196.5
2757.236	188.5
2760.725	188.5
2764.211	184.5
2767.695	185.5
2771.175	179.5
2774.652	169.5
2778.127	180.5
2781.598	168.5
2785.067	173.5
2788.532	173.5
2791.995	176.5
2795.455	182.5
2798.911	185.5
2802.365	182.5
2805.816	182.5
2809.264	185.5
2812.709	178.5
2816.151	190.5
2819.59	186.5
2823.026	179.5
2826.46	185.5
2829.89	186.5
2833.318	188.5
2836.742	197.5
2840.164	188.5
2843.583	193.5
2846.999	194.5
2850.412	192.5
2853.822	195.5
2857.229	201.5
2860.634	201.5
2864.035	209.5
2867.434	210.5
2870.83	209.5
2874.223	208.5
2877.613	216.5
2881	213.5
2884.385	219.5
2887.766	211.5
2891.145	214.5
2894.521	215.5
2897.894	219.5
2901.264	226.5
2904.631	232.5
2907.996	236.5
2911.358	231.5
2914.717	230.5
2918.073	233.5
2921.426	239.5
2924.777	242.5
2928.124	254.5
2931.469	250.5
2934.811	263.5
2938.15	263.5
2941.487	264.5
2944.821	276.5
2948.152	276.5
2951.48	280.5
2954.805	277.5
2958.128	288.5
2961.447	297.5
2964.765	293.5
2968.079	296.5
2971.39	311.5
2974.699	314.5
2978.005	321.5
2981.308	317.5
2984.609	334.5
2987.907	345.5
2991.202	348.5
2994.494	371.5
2997.784	373.5
3001.07	386.5
3004.355	389.5
3007.636	402.5
3010.915	408.5
3014.191	419.5
3017.464	425.5
3020.734	427.5
3024.002	427.5
3027.267	444.5
3030.53	449.5
3033.789	464.5
3037.046	475.5
3040.301	480.5
3043.552	490.5
3046.801	504.5
3050.048	518.5
3053.291	531.5
3056.532	546.5
3059.771	570.5
3063.006	592.5
3066.239	602.5
3069.469	628.5
3072.697	639.5
3075.922	659.5
3079.144	669.5
3082.364	678.5
3085.581	694.5
3088.795	722.5
3092.007	731.5
3095.216	757.5
3098.423	763.5
3101.627	791.5
3104.828	798.5
3108.026	813.5
3111.222	834.5
3114.416	846.5
3117.607	874.5
3120.795	878.5
3123.98	915.5
3127.163	938.5
3130.344	952.5
3133.521	975.5
3136.696	1006.5
3139.869	1014.5
3143.039	1041.5
3146.206	1055.5
3149.371	1069.5
3152.533	1088.5
3155.693	1078.5
3158.85	1087.5
3162.005	1100.5
3165.157	1098.5
3168.306	1100.5
3171.453	1105.5
3174.597	1112.5
3177.739	1119.5
3180.878	1129.5
3184.014	1132.5
3187.149	1122.5
3190.28	1130.5
3193.409	1121.5
3196.536	1139.5
3199.659	1131.5
3202.781	1148.5
3205.9	1150.5
3209.016	1142.5
3212.13	1134.5
3215.241	1145.5
3218.35	1130.5
3221.456	1116.5
3224.56	1121.5
3227.661	1102.5
3230.76	1096.5
3233.856	1088.5
3236.95	1076.5
3240.041	1053.5
3243.13	1046.5
3246.216	1035.5
3249.3	1047.5
3252.382	1031.5
3255.46	1031.5
3258.537	1022.5
3261.611	1024.5
3264.682	1020.5
3267.751	1019.5
3270.818	1009.5
3273.882	1016.5
3276.943	1003.5
3280.002	987.5
3283.059	981.5
3286.113	968.5
3289.165	957.5
3292.214	959.5
3295.261	940.5
3298.306	914.5
3301.348	898.5
3304.387	886.5
3307.425	867.5
3310.459	864.5
3313.492	854.5
3316.521	856.5
3319.549	842.5
3322.574	828.5
3325.597	829.5
3328.617	819.5
3331.635	808.5
3334.65	814.5
3337.663	799.5
3340.674	796.5
3343.682	800.5
3346.688	790.5
3349.691	787.5
3352.692	778.5
3355.691	783.5
3358.687	781.5
3361.681	779.5
3364.673	753.5
3367.662	742.5
3370.649	735.5
3373.633	729.5
3376.615	713.5
3379.595	707.5
3382.572	709.5
3385.547	690.5
3388.52	679.5
3391.49	678.5
3394.458	666.5
3397.424	641.5
3400.387	642.5
3403.348	637.5
3406.307	630.5
3409.263	626.5
3412.217	620.5
3415.168	619.5
3418.118	607.5
3421.065	600.5
3424.009	591.5
3426.951	588.5
3429.891	573.5
3432.829	561.5
3435.764	548.5
3438.697	548.5
3441.628	528.5
3444.557	514.5
3447.483	506.5
3450.407	484.5
3453.328	469.5
3456.247	464.5
3459.164	457.5
3462.079	445.5
3464.991	420.5
3467.902	416.5
3470.809	394.5
3473.715	385.5
3476.618	363.5
3479.519	360.5
3482.418	350.5
3485.315	335.5
3488.209	339.5
3491.101	325.5
3493.99	319.5
3496.878	306.5
3499.763	304.5
3502.646	290.5
3505.527	279.5
3508.405	267.5
3511.281	257.5
3514.155	237.5
3517.027	236.5
3519.897	214.5
3522.764	208.5
3525.629	196.5
3528.492	183.5
3531.352	180.5
3534.211	164.5
3537.067	154.5
3539.921	149.5
3542.773	149.5
3545.622	135.5
3548.469	126.5
3551.315	111.5
3554.157	119.5
3556.998	107.5
3559.837	95.5
3562.673	88.5
3565.507	83.5
3568.339	77.5
3571.169	79.5
3573.996	65.5
3576.822	62.5
3579.645	64.5
3582.466	50.5
3585.285	50.5
3588.101	38.5
3590.916	35.5
3593.728	44.5
3596.538	37.5
3599.346	23.5
3602.152	22.5
3604.956	14.5
3607.757	8.5
3610.556	5.5
3613.354	-2.5
3616.149	1.5
3618.942	-5.5
3621.732	-8.5
3624.521	-4.5
3627.307	-9.5
3630.092	-17.5
3632.874	-20.5
3635.654	-17.5
3638.432	-20.5
3641.208	-23.5
3643.982	-27.5
3646.753	-30.5
3649.523	-33.5
3652.29	-42.5
3655.055	-43.5
3657.818	-46.5
3660.579	-47.5
3663.338	-47.5
3666.095	-49.5
3668.849	-47.5
3671.602	-51.5
3674.352	-52.5
3677.101	-56.5
3679.847	-57.5
3682.591	-59.5
3685.333	-56.5
3688.073	-63.5
3690.811	-67.5
3693.547	-69.5
3696.281	-71.5
3699.013	-68.5
3701.742	-69.5
3704.47	-69.5
3707.195	-72.5
3709.919	-71.5
3712.64	-71.5
3715.359	-72.5
3718.076	-80.5
3720.792	-79.5
3723.505	-77.5
3726.216	-76.5
3728.925	-78.5
3731.632	-79.5
3734.336	-81.5
3737.039	-85.5
3739.74	-82.5
3742.439	-87.5
3745.136	-85.5
3747.83	-87.5
3750.523	-84.5
3753.213	-81.5
3755.902	-82.5
3758.589	-85.5
3761.273	-83.5
3763.956	-85.5
3766.636	-89.5
3769.315	-89.5
3771.991	-90.5
3774.665	-88.5
3777.338	-87.5
3780.008	-89.5
3782.677	-91.5
3785.343	-93.5
3788.007	-86.5
3790.67	-90.5
3793.33	-91.5
3795.989	-88.5
3798.645	-87.5
3801.299	-88.5
3803.952	-96.5
3806.602	-96.5
3809.251	-97.5
3811.897	-91.5
3814.542	-96.5
3817.184	-92.5
3819.825	-94.5
3822.463	-94.5
3825.1	-94.5
3827.735	-99.5
3830.367	-92.5
3832.998	-98.5
3835.627	-97.5
3838.253	-92.5
3840.878	-95.5
3843.501	-94.5
3846.122	-96.5
3848.741	-100.5
3851.358	-100.5
3853.973	-101.5
3856.586	-97.5
3859.197	-95.5
3861.806	-97.5
3864.414	-99.5
3867.019	-100.5
3869.622	-99.5
3872.224	-94.5
3874.823	-95.5
3877.421	-91.5
3880.016	-90.5
3882.61	-84.5
3885.202	-92.5
3887.792	-94.5
3890.38	-95.5
3892.966	-98.5
3895.55	-99.5
3898.132	-100.5
3900.713	-98.5
3903.291	-98.5
3905.868	-97.5
3908.442	-99.5
3911.015	-98.5
3913.586	-98.5
3916.155	-101.5
3918.722	-100.5
3921.287	-98.5
3923.85	-102.5
3926.411	-105.5
3928.971	-102.5
3931.528	-106.5
3934.084	-104.5
3936.638	-102.5
3939.19	-102.5
3941.74	-100.5
3944.288	-102.5
3946.834	-99.5
3949.378	-98.5
3951.921	-96.5
3954.462	-102.5
3957	-101.5
3959.537	-102.5
3962.072	-103.5
3964.606	-105.5
3967.137	-100.5
3969.667	-99.5
3972.194	-103.5
3974.72	-102.5
3977.244	-99.5
3979.766	-97.5
3982.286	-97.5
3984.805	-96.5
3987.321	-96.5
3989.836	-97.5
3992.349	-102.5
3994.86	-100.5
3997.369	-100.5
3999.877	-102.5
4002.382	-98.5
4004.886	-98.5
4007.388	-99.5
4009.888	-99.5
4012.386	-96.5
4014.883	-100.5
4017.377	-104.5
4019.87	-97.5
4022.361	-98.5
4024.85	-99.5
4027.338	-101.5
4029.823	-99.5
4032.307	-99.5
4034.789	-100.5
4037.269	-100.5
4039.747	-103.5
4042.224	-103.5
4044.699	-105.5
4047.172	-98.5
4049.643	-100.5
4052.112	-101.5
4054.58	-100.5
4057.046	-98.5
4059.51	-101.5
4061.972	-104.5
4064.432	-101.5
4066.891	-100.5
4069.348	-103.5
4071.803	-102.5
4074.256	-100.5
4076.708	-98.5
4079.158	-100.5
4081.606	-100.5
4084.052	-105.5
4086.497	-99.5
4088.939	-97.5
4091.38	-98.5
4093.819	-99.5
4096.257	-104.5
4098.693	-101.5
4101.127	-105.5
4103.559	-105.5
4105.989	-68.5
4108.418	-68.5
4110.845	-63.5
4113.27	-59.5
4115.694	-54.5
4118.115	-44.5
4120.535	-97.5
4122.954	-97.5
4125.37	-101.5
4127.785	-99.5
4130.198	-102.5
4132.609	-103.5
4135.019	-105.5
4137.427	-105.5
4139.833	-100.5
4142.237	-102.5
