Data from B_sub_water_100000CFU_B1_RamanShift_1.txt Node
Date: Thu Feb 23 12:20:48 IST 2017
User: aro
Spectrometer: QEPB0276
Trigger mode: 0
Integration Time (sec): 5.000000E0
Scans to average: 1
Electric dark correction enabled: true
Nonlinearity correction enabled: false
Boxcar width: 0
XAxis mode: Raman Shifts
Number of Pixels in Spectrum: 1044
>>>>>Begin Spectral Data<<<<<
160.701	-22.5
166.742	-1.5
172.777	78.5
178.805	346.5
184.826	947.5
190.841	1977.5
196.849	3120.5
202.85	3890.5
208.845	4049.5
214.833	3912.5
220.815	3750.5
226.789	3645.5
232.758	3551.5
238.719	3413.5
244.674	3303.5
250.623	3143.5
256.565	2996.5
262.5	2837.5
268.429	2710.5
274.351	2595.5
280.267	2491.5
286.176	2398.5
292.079	2289.5
297.975	2232.5
303.865	2176.5
309.748	2104.5
315.625	2051.5
321.495	2007.5
327.359	1954.5
333.217	1943.5
339.068	1944.5
344.912	1935.5
350.751	1904.5
356.583	1906.5
362.408	1914.5
368.227	1911.5
374.04	1917.5
379.847	1918.5
385.647	1938.5
391.44	1973.5
397.228	1950.5
403.009	1972.5
408.784	1982.5
414.553	1989.5
420.315	2008.5
426.071	2007.5
431.821	1973.5
437.565	1978.5
443.302	1980.5
449.033	1970.5
454.758	1970.5
460.477	1947.5
466.189	1941.5
471.896	1912.5
477.596	1924.5
483.29	1908.5
488.978	1889.5
494.66	1892.5
500.335	1858.5
506.005	1824.5
511.668	1790.5
517.325	1754.5
522.977	1719.5
528.622	1694.5
534.261	1662.5
539.894	1660.5
545.521	1627.5
551.141	1632.5
556.756	1622.5
562.365	1594.5
567.968	1586.5
573.565	1590.5
579.155	1554.5
584.74	1558.5
590.319	1538.5
595.892	1546.5
601.459	1523.5
607.02	1493.5
612.575	1501.5
618.124	1477.5
623.667	1470.5
629.204	1461.5
634.735	1428.5
640.261	1429.5
645.781	1393.5
651.294	1394.5
656.802	1389.5
662.304	1393.5
667.8	1382.5
673.29	1370.5
678.775	1357.5
684.254	1361.5
689.726	1351.5
695.193	1346.5
700.655	1339.5
706.11	1320.5
711.56	1315.5
717.004	1303.5
722.442	1298.5
727.874	1269.5
733.301	1281.5
738.722	1252.5
744.137	1266.5
749.547	1255.5
754.951	1246.5
760.349	1235.5
765.741	1231.5
771.128	1247.5
776.509	1225.5
781.885	1236.5
787.254	1223.5
792.618	1239.5
797.977	1216.5
803.33	1205.5
808.677	1196.5
814.019	1188.5
819.355	1168.5
824.686	1130.5
830.011	1142.5
835.33	1131.5
840.644	1131.5
845.952	1105.5
851.255	1117.5
856.552	1102.5
861.844	1080.5
867.13	1095.5
872.41	1076.5
877.686	1066.5
882.955	1059.5
888.219	1042.5
893.478	1013.5
898.731	1000.5
903.979	981.5
909.221	979.5
914.458	964.5
919.69	943.5
924.916	956.5
930.136	941.5
935.351	940.5
940.561	947.5
945.766	936.5
950.965	930.5
956.158	905.5
961.347	908.5
966.529	880.5
971.707	854.5
976.879	859.5
982.046	855.5
987.208	854.5
992.364	849.5
997.515	839.5
1002.66	858.5
1007.801	875.5
1012.936	848.5
1018.066	883.5
1023.19	873.5
1028.309	874.5
1033.423	868.5
1038.532	853.5
1043.636	872.5
1048.734	845.5
1053.827	849.5
1058.915	831.5
1063.998	810.5
1069.075	822.5
1074.147	825.5
1079.214	822.5
1084.276	847.5
1089.333	834.5
1094.385	847.5
1099.431	835.5
1104.472	844.5
1109.509	837.5
1114.54	826.5
1119.565	816.5
1124.586	810.5
1129.602	790.5
1134.613	797.5
1139.618	789.5
1144.619	791.5
1149.614	799.5
1154.604	796.5
1159.589	799.5
1164.57	817.5
1169.545	814.5
1174.515	802.5
1179.48	798.5
1184.44	794.5
1189.395	791.5
1194.345	796.5
1199.29	781.5
1204.23	794.5
1209.165	781.5
1214.095	794.5
1219.021	813.5
1223.941	807.5
1228.856	815.5
1233.766	801.5
1238.672	816.5
1243.572	812.5
1248.467	801.5
1253.358	787.5
1258.244	772.5
1263.124	773.5
1268	754.5
1272.871	744.5
1277.737	748.5
1282.599	745.5
1287.455	735.5
1292.306	739.5
1297.153	738.5
1301.995	754.5
1306.832	754.5
1311.664	753.5
1316.491	758.5
1321.314	743.5
1326.132	752.5
1330.945	727.5
1335.753	712.5
1340.556	701.5
1345.354	689.5
1350.148	671.5
1354.937	658.5
1359.722	666.5
1364.501	675.5
1369.276	691.5
1374.046	710.5
1378.811	726.5
1383.572	726.5
1388.327	715.5
1393.079	690.5
1397.825	686.5
1402.567	678.5
1407.304	664.5
1412.036	656.5
1416.764	660.5
1421.487	659.5
1426.205	661.5
1430.919	661.5
1435.628	673.5
1440.333	664.5
1445.032	679.5
1449.727	679.5
1454.418	674.5
1459.104	675.5
1463.785	661.5
1468.462	658.5
1473.134	648.5
1477.802	662.5
1482.465	637.5
1487.123	637.5
1491.777	638.5
1496.426	658.5
1501.071	668.5
1505.711	669.5
1510.347	693.5
1514.978	700.5
1519.604	705.5
1524.226	705.5
1528.844	726.5
1533.457	734.5
1538.065	730.5
1542.669	726.5
1547.269	729.5
1551.864	728.5
1556.454	736.5
1561.041	739.5
1565.622	759.5
1570.199	751.5
1574.772	769.5
1579.34	784.5
1583.904	798.5
1588.464	815.5
1593.019	824.5
1597.569	849.5
1602.115	847.5
1606.657	868.5
1611.195	879.5
1615.728	891.5
1620.256	917.5
1624.78	919.5
1629.3	942.5
1633.816	951.5
1638.327	981.5
1642.834	972.5
1647.336	971.5
1651.834	975.5
1656.328	984.5
1660.817	961.5
1665.302	949.5
1669.783	935.5
1674.259	897.5
1678.732	857.5
1683.199	822.5
1687.663	794.5
1692.122	765.5
1696.577	726.5
1701.028	705.5
1705.474	693.5
1709.917	681.5
1714.355	666.5
1718.788	644.5
1723.218	607.5
1727.643	591.5
1732.064	566.5
1736.481	538.5
1740.893	521.5
1745.301	508.5
1749.705	493.5
1754.105	474.5
1758.501	470.5
1762.893	446.5
1767.28	435.5
1771.663	421.5
1776.042	419.5
1780.417	405.5
1784.787	410.5
1789.154	409.5
1793.516	421.5
1797.874	437.5
1802.228	442.5
1806.578	439.5
1810.924	426.5
1815.266	418.5
1819.603	410.5
1823.937	400.5
1828.266	394.5
1832.591	401.5
1836.913	381.5
1841.23	380.5
1845.543	372.5
1849.852	371.5
1854.156	373.5
1858.457	372.5
1862.754	380.5
1867.047	374.5
1871.335	376.5
1875.62	372.5
1879.9	365.5
1884.177	370.5
1888.449	367.5
1892.718	365.5
1896.982	372.5
1901.243	364.5
1905.499	368.5
1909.752	367.5
1914	366.5
1918.245	365.5
1922.485	373.5
1926.722	381.5
1930.954	379.5
1935.183	395.5
1939.408	391.5
1943.628	386.5
1947.845	377.5
1952.058	410.5
1956.267	381.5
1960.472	389.5
1964.673	384.5
1968.87	385.5
1973.063	376.5
1977.252	367.5
1981.438	373.5
1985.619	378.5
1989.797	373.5
1993.971	370.5
1998.14	380.5
2002.306	378.5
2006.469	374.5
2010.627	377.5
2014.781	377.5
2018.932	375.5
2023.078	374.5
2027.221	369.5
2031.36	375.5
2035.495	368.5
2039.627	364.5
2043.754	366.5
2047.878	357.5
2051.998	364.5
2056.114	368.5
2060.226	364.5
2064.334	367.5
2068.439	373.5
2072.54	370.5
2076.637	389.5
2080.73	378.5
2084.82	389.5
2088.906	386.5
2092.988	381.5
2097.066	378.5
2101.14	382.5
2105.211	374.5
2109.278	386.5
2113.342	380.5
2117.401	372.5
2121.457	378.5
2125.509	366.5
2129.558	365.5
2133.602	367.5
2137.643	361.5
2141.681	367.5
2145.714	359.5
2149.744	350.5
2153.77	352.5
2157.793	353.5
2161.812	350.5
2165.827	335.5
2169.838	341.5
2173.846	334.5
2177.851	329.5
2181.851	317.5
2185.848	311.5
2189.841	309.5
2193.831	297.5
2197.817	295.5
2201.799	289.5
2205.778	301.5
2209.753	294.5
2213.725	295.5
2217.693	294.5
2221.657	296.5
2225.618	289.5
2229.575	288.5
2233.529	293.5
2237.479	287.5
2241.425	269.5
2245.368	268.5
2249.307	267.5
2253.243	267.5
2257.175	256.5
2261.104	260.5
2265.029	244.5
2268.95	252.5
2272.868	234.5
2276.783	235.5
2280.694	239.5
2284.601	231.5
2288.505	233.5
2292.405	230.5
2296.302	226.5
2300.195	228.5
2304.085	218.5
2307.971	207.5
2311.854	203.5
2315.734	198.5
2319.609	201.5
2323.482	192.5
2327.351	194.5
2331.216	188.5
2335.078	189.5
2338.937	184.5
2342.792	189.5
2346.643	180.5
2350.492	184.5
2354.336	177.5
2358.178	179.5
2362.015	176.5
2365.85	182.5
2369.681	181.5
2373.508	168.5
2377.333	176.5
2381.153	174.5
2384.971	181.5
2388.785	172.5
2392.595	169.5
2396.402	169.5
2400.206	167.5
2404.007	158.5
2407.804	157.5
2411.597	162.5
2415.388	163.5
2419.174	148.5
2422.958	156.5
2426.738	146.5
2430.515	156.5
2434.289	154.5
2438.059	155.5
2441.825	151.5
2445.589	156.5
2449.349	151.5
2453.106	141.5
2456.859	143.5
2460.61	134.5
2464.356	128.5
2468.1	141.5
2471.84	134.5
2475.577	129.5
2479.311	136.5
2483.041	133.5
2486.768	131.5
2490.492	133.5
2494.213	129.5
2497.93	132.5
2501.644	132.5
2505.355	124.5
2509.062	125.5
2512.766	125.5
2516.467	130.5
2520.165	129.5
2523.859	127.5
2527.551	121.5
2531.239	122.5
2534.923	121.5
2538.605	122.5
2542.283	119.5
2545.958	122.5
2549.63	131.5
2553.299	124.5
2556.964	121.5
2560.626	121.5
2564.285	109.5
2567.941	116.5
2571.594	115.5
2575.243	112.5
2578.89	113.5
2582.533	116.5
2586.173	112.5
2589.809	108.5
2593.443	112.5
2597.073	111.5
2600.701	110.5
2604.325	108.5
2607.946	105.5
2611.564	104.5
2615.178	106.5
2618.79	96.5
2622.398	106.5
2626.004	104.5
2629.606	101.5
2633.205	99.5
2636.801	101.5
2640.394	99.5
2643.983	102.5
2647.57	97.5
2651.153	96.5
2654.734	86.5
2658.311	83.5
2661.885	86.5
2665.456	82.5
2669.025	81.5
2672.589	84.5
2676.151	78.5
2679.71	90.5
2683.266	87.5
2686.819	81.5
2690.368	78.5
2693.915	78.5
2697.458	77.5
2700.999	72.5
2704.536	79.5
2708.071	74.5
2711.602	65.5
2715.13	73.5
2718.656	77.5
2722.178	71.5
2725.697	70.5
2729.214	67.5
2732.727	75.5
2736.237	73.5
2739.744	72.5
2743.249	79.5
2746.75	73.5
2750.248	75.5
2753.743	83.5
2757.236	77.5
2760.725	81.5
2764.211	86.5
2767.695	81.5
2771.175	83.5
2774.652	82.5
2778.127	88.5
2781.598	85.5
2785.067	84.5
2788.532	88.5
2791.995	88.5
2795.455	84.5
2798.911	90.5
2802.365	85.5
2805.816	91.5
2809.264	92.5
2812.709	88.5
2816.151	91.5
2819.59	93.5
2823.026	96.5
2826.46	89.5
2829.89	99.5
2833.318	99.5
2836.742	92.5
2840.164	97.5
2843.583	100.5
2846.999	103.5
2850.412	98.5
2853.822	106.5
2857.229	107.5
2860.634	111.5
2864.035	123.5
2867.434	122.5
2870.83	117.5
2874.223	121.5
2877.613	128.5
2881	136.5
2884.385	133.5
2887.766	122.5
2891.145	130.5
2894.521	127.5
2897.894	131.5
2901.264	131.5
2904.631	145.5
2907.996	146.5
2911.358	148.5
2914.717	151.5
2918.073	159.5
2921.426	154.5
2924.777	159.5
2928.124	164.5
2931.469	173.5
2934.811	166.5
2938.15	183.5
2941.487	179.5
2944.821	186.5
2948.152	200.5
2951.48	194.5
2954.805	203.5
2958.128	205.5
2961.447	205.5
2964.765	217.5
2968.079	218.5
2971.39	227.5
2974.699	233.5
2978.005	246.5
2981.308	250.5
2984.609	267.5
2987.907	274.5
2991.202	286.5
2994.494	299.5
2997.784	313.5
3001.07	321.5
3004.355	327.5
3007.636	344.5
3010.915	349.5
3014.191	363.5
3017.464	376.5
3020.734	367.5
3024.002	388.5
3027.267	390.5
3030.53	399.5
3033.789	397.5
3037.046	415.5
3040.301	429.5
3043.552	437.5
3046.801	447.5
3050.048	460.5
3053.291	475.5
3056.532	495.5
3059.771	512.5
3063.006	529.5
3066.239	541.5
3069.469	546.5
3072.697	572.5
3075.922	591.5
3079.144	599.5
3082.364	622.5
3085.581	630.5
3088.795	657.5
3092.007	672.5
3095.216	694.5
3098.423	701.5
3101.627	716.5
3104.828	741.5
3108.026	750.5
3111.222	775.5
3114.416	797.5
3117.607	817.5
3120.795	831.5
3123.98	841.5
3127.163	879.5
3130.344	898.5
3133.521	907.5
3136.696	938.5
3139.869	954.5
3143.039	970.5
3146.206	990.5
3149.371	999.5
3152.533	1007.5
3155.693	1015.5
3158.85	1040.5
3162.005	1029.5
3165.157	1043.5
3168.306	1057.5
3171.453	1054.5
3174.597	1047.5
3177.739	1058.5
3180.878	1061.5
3184.014	1062.5
3187.149	1084.5
3190.28	1085.5
3193.409	1081.5
3196.536	1087.5
3199.659	1105.5
3202.781	1104.5
3205.9	1096.5
3209.016	1099.5
3212.13	1099.5
3215.241	1093.5
3218.35	1085.5
3221.456	1086.5
3224.56	1072.5
3227.661	1060.5
3230.76	1065.5
3233.856	1042.5
3236.95	1035.5
3240.041	1053.5
3243.13	1019.5
3246.216	1021.5
3249.3	1020.5
3252.382	1011.5
3255.46	1011.5
3258.537	1027.5
3261.611	1015.5
3264.682	1010.5
3267.751	1000.5
3270.818	989.5
3273.882	991.5
3276.943	993.5
3280.002	973.5
3283.059	984.5
3286.113	959.5
3289.165	948.5
3292.214	934.5
3295.261	925.5
3298.306	893.5
3301.348	897.5
3304.387	870.5
3307.425	858.5
3310.459	849.5
3313.492	850.5
3316.521	840.5
3319.549	825.5
3322.574	816.5
3325.597	807.5
3328.617	801.5
3331.635	787.5
3334.65	789.5
3337.663	779.5
3340.674	780.5
3343.682	775.5
3346.688	772.5
3349.691	771.5
3352.692	766.5
3355.691	765.5
3358.687	741.5
3361.681	743.5
3364.673	736.5
3367.662	723.5
3370.649	713.5
3373.633	712.5
3376.615	707.5
3379.595	683.5
3382.572	692.5
3385.547	669.5
3388.52	664.5
3391.49	658.5
3394.458	644.5
3397.424	647.5
3400.387	631.5
3403.348	620.5
3406.307	613.5
3409.263	619.5
3412.217	598.5
3415.168	608.5
3418.118	603.5
3421.065	591.5
3424.009	577.5
3426.951	567.5
3429.891	560.5
3432.829	553.5
3435.764	539.5
3438.697	526.5
3441.628	526.5
3444.557	513.5
3447.483	495.5
3450.407	483.5
3453.328	461.5
3456.247	450.5
3459.164	439.5
3462.079	430.5
3464.991	414.5
3467.902	405.5
3470.809	396.5
3473.715	381.5
3476.618	378.5
3479.519	369.5
3482.418	361.5
3485.315	346.5
3488.209	342.5
3491.101	324.5
3493.99	322.5
3496.878	310.5
3499.763	295.5
3502.646	293.5
3505.527	290.5
3508.405	277.5
3511.281	267.5
3514.155	254.5
3517.027	243.5
3519.897	227.5
3522.764	227.5
3525.629	208.5
3528.492	199.5
3531.352	192.5
3534.211	175.5
3537.067	168.5
3539.921	159.5
3542.773	149.5
3545.622	136.5
3548.469	138.5
3551.315	126.5
3554.157	117.5
3556.998	115.5
3559.837	107.5
3562.673	104.5
3565.507	92.5
3568.339	90.5
3571.169	87.5
3573.996	76.5
3576.822	80.5
3579.645	68.5
3582.466	57.5
3585.285	58.5
3588.101	51.5
3590.916	45.5
3593.728	41.5
3596.538	37.5
3599.346	30.5
3602.152	28.5
3604.956	28.5
3607.757	21.5
3610.556	20.5
3613.354	11.5
3616.149	5.5
3618.942	4.5
3621.732	-0.5
3624.521	-1.5
3627.307	-6.5
3630.092	-13.5
3632.874	-10.5
3635.654	-6.5
3638.432	-13.5
3641.208	-16.5
3643.982	-20.5
3646.753	-22.5
3649.523	-22.5
3652.29	-28.5
3655.055	-30.5
3657.818	-33.5
3660.579	-38.5
3663.338	-42.5
3666.095	-41.5
3668.849	-43.5
3671.602	-46.5
3674.352	-48.5
3677.101	-51.5
3679.847	-50.5
3682.591	-57.5
3685.333	-58.5
3688.073	-58.5
3690.811	-62.5
3693.547	-60.5
3696.281	-65.5
3699.013	-69.5
3701.742	-63.5
3704.47	-69.5
3707.195	-62.5
3709.919	-65.5
3712.64	-70.5
3715.359	-72.5
3718.076	-71.5
3720.792	-71.5
3723.505	-72.5
3726.216	-75.5
3728.925	-71.5
3731.632	-75.5
3734.336	-76.5
3737.039	-77.5
3739.74	-81.5
3742.439	-85.5
3745.136	-81.5
3747.83	-81.5
3750.523	-80.5
3753.213	-83.5
3755.902	-77.5
3758.589	-76.5
3761.273	-84.5
3763.956	-79.5
3766.636	-81.5
3769.315	-85.5
3771.991	-85.5
3774.665	-88.5
3777.338	-88.5
3780.008	-88.5
3782.677	-83.5
3785.343	-82.5
3788.007	-82.5
3790.67	-88.5
3793.33	-83.5
3795.989	-86.5
3798.645	-90.5
3801.299	-86.5
3803.952	-85.5
3806.602	-88.5
3809.251	-86.5
3811.897	-92.5
3814.542	-88.5
3817.184	-92.5
3819.825	-86.5
3822.463	-90.5
3825.1	-83.5
3827.735	-88.5
3830.367	-86.5
3832.998	-91.5
3835.627	-90.5
3838.253	-89.5
3840.878	-87.5
3843.501	-92.5
3846.122	-92.5
3848.741	-89.5
3851.358	-91.5
3853.973	-92.5
3856.586	-89.5
3859.197	-94.5
3861.806	-91.5
3864.414	-90.5
3867.019	-89.5
3869.622	-90.5
3872.224	-89.5
3874.823	-88.5
3877.421	-88.5
3880.016	-82.5
3882.61	-78.5
3885.202	-78.5
3887.792	-86.5
3890.38	-88.5
3892.966	-88.5
3895.55	-94.5
3898.132	-91.5
3900.713	-92.5
3903.291	-92.5
3905.868	-90.5
3908.442	-91.5
3911.015	-92.5
3913.586	-95.5
3916.155	-97.5
3918.722	-91.5
3921.287	-98.5
3923.85	-96.5
3926.411	-94.5
3928.971	-93.5
3931.528	-94.5
3934.084	-91.5
3936.638	-93.5
3939.19	-90.5
3941.74	-94.5
3944.288	-93.5
3946.834	-94.5
3949.378	-97.5
3951.921	-97.5
3954.462	-97.5
3957	-98.5
3959.537	-93.5
3962.072	-94.5
3964.606	-91.5
3967.137	-93.5
3969.667	-93.5
3972.194	-93.5
3974.72	-88.5
3977.244	-97.5
3979.766	-92.5
3982.286	-95.5
3984.805	-93.5
3987.321	-92.5
3989.836	-94.5
3992.349	-85.5
3994.86	-90.5
3997.369	-89.5
3999.877	-89.5
4002.382	-89.5
4004.886	-87.5
4007.388	-92.5
4009.888	-93.5
4012.386	-90.5
4014.883	-93.5
4017.377	-93.5
4019.87	-94.5
4022.361	-93.5
4024.85	-90.5
4027.338	-93.5
4029.823	-89.5
4032.307	-92.5
4034.789	-93.5
4037.269	-95.5
4039.747	-92.5
4042.224	-94.5
4044.699	-94.5
4047.172	-93.5
4049.643	-93.5
4052.112	-95.5
4054.58	-95.5
4057.046	-97.5
4059.51	-96.5
4061.972	-94.5
4064.432	-90.5
4066.891	-93.5
4069.348	-91.5
4071.803	-94.5
4074.256	-93.5
4076.708	-91.5
4079.158	-97.5
4081.606	-95.5
4084.052	-98.5
4086.497	-98.5
4088.939	-93.5
4091.38	-94.5
4093.819	-94.5
4096.257	-100.5
4098.693	-94.5
4101.127	-96.5
4103.559	-93.5
4105.989	-58.5
4108.418	-55.5
4110.845	-55.5
4113.27	-53.5
4115.694	-44.5
4118.115	-36.5
4120.535	-93.5
4122.954	-91.5
4125.37	-91.5
4127.785	-92.5
4130.198	-94.5
4132.609	-96.5
4135.019	-100.5
4137.427	-99.5
4139.833	-99.5
4142.237	-101.5
