Data from B_sub_water_1000CFU_B3_RamanShift_1.txt Node
Date: Thu Feb 23 12:17:33 IST 2017
User: aro
Spectrometer: QEPB0276
Trigger mode: 0
Integration Time (sec): 5.000000E0
Scans to average: 1
Electric dark correction enabled: true
Nonlinearity correction enabled: false
Boxcar width: 0
XAxis mode: Raman Shifts
Number of Pixels in Spectrum: 1044
>>>>>Begin Spectral Data<<<<<
160.701	-30.5
166.742	2.5
172.777	87.5
178.805	358.5
184.826	1021.5
190.841	2103.5
196.849	3383.5
202.85	4188.5
208.845	4383.5
214.833	4250.5
220.815	4076.5
226.789	3956.5
232.758	3801.5
238.719	3677.5
244.674	3543.5
250.623	3375.5
256.565	3227.5
262.5	3060.5
268.429	2916.5
274.351	2774.5
280.267	2650.5
286.176	2555.5
292.079	2464.5
297.975	2375.5
303.865	2279.5
309.748	2242.5
315.625	2196.5
321.495	2126.5
327.359	2093.5
333.217	2064.5
339.068	2054.5
344.912	2047.5
350.751	2018.5
356.583	2047.5
362.408	2061.5
368.227	2028.5
374.04	2047.5
379.847	2055.5
385.647	2048.5
391.44	2046.5
397.228	2049.5
403.009	2089.5
408.784	2094.5
414.553	2097.5
420.315	2107.5
426.071	2101.5
431.821	2107.5
437.565	2095.5
443.302	2115.5
449.033	2100.5
454.758	2087.5
460.477	2081.5
466.189	2066.5
471.896	2057.5
477.596	2036.5
483.29	2015.5
488.978	2020.5
494.66	1984.5
500.335	1952.5
506.005	1919.5
511.668	1888.5
517.325	1851.5
522.977	1794.5
528.622	1792.5
534.261	1761.5
539.894	1742.5
545.521	1721.5
551.141	1725.5
556.756	1677.5
562.365	1693.5
567.968	1648.5
573.565	1654.5
579.155	1640.5
584.74	1625.5
590.319	1620.5
595.892	1610.5
601.459	1607.5
607.02	1585.5
612.575	1570.5
618.124	1551.5
623.667	1533.5
629.204	1516.5
634.735	1491.5
640.261	1480.5
645.781	1465.5
651.294	1454.5
656.802	1449.5
662.304	1443.5
667.8	1429.5
673.29	1436.5
678.775	1438.5
684.254	1427.5
689.726	1396.5
695.193	1402.5
700.655	1394.5
706.11	1383.5
711.56	1356.5
717.004	1348.5
722.442	1335.5
727.874	1340.5
733.301	1327.5
738.722	1308.5
744.137	1318.5
749.547	1303.5
754.951	1302.5
760.349	1296.5
765.741	1290.5
771.128	1293.5
776.509	1292.5
781.885	1293.5
787.254	1285.5
792.618	1286.5
797.977	1251.5
803.33	1260.5
808.677	1260.5
814.019	1223.5
819.355	1211.5
824.686	1204.5
830.011	1183.5
835.33	1179.5
840.644	1156.5
845.952	1164.5
851.255	1156.5
856.552	1142.5
861.844	1125.5
867.13	1135.5
872.41	1114.5
877.686	1109.5
882.955	1086.5
888.219	1072.5
893.478	1048.5
898.731	1032.5
903.979	1012.5
909.221	993.5
914.458	997.5
919.69	985.5
924.916	981.5
930.136	968.5
935.351	972.5
940.561	979.5
945.766	972.5
950.965	957.5
956.158	941.5
961.347	943.5
966.529	915.5
971.707	913.5
976.879	895.5
982.046	879.5
987.208	882.5
992.364	878.5
997.515	882.5
1002.66	875.5
1007.801	882.5
1012.936	901.5
1018.066	899.5
1023.19	909.5
1028.309	913.5
1033.423	915.5
1038.532	899.5
1043.636	907.5
1048.734	884.5
1053.827	872.5
1058.915	871.5
1063.998	871.5
1069.075	863.5
1074.147	869.5
1079.214	862.5
1084.276	864.5
1089.333	890.5
1094.385	875.5
1099.431	883.5
1104.472	887.5
1109.509	899.5
1114.54	870.5
1119.565	863.5
1124.586	857.5
1129.602	837.5
1134.613	832.5
1139.618	851.5
1144.619	834.5
1149.614	840.5
1154.604	833.5
1159.589	856.5
1164.57	859.5
1169.545	859.5
1174.515	869.5
1179.48	851.5
1184.44	849.5
1189.395	840.5
1194.345	846.5
1199.29	842.5
1204.23	843.5
1209.165	842.5
1214.095	854.5
1219.021	849.5
1223.941	868.5
1228.856	874.5
1233.766	869.5
1238.672	875.5
1243.572	874.5
1248.467	884.5
1253.358	864.5
1258.244	857.5
1263.124	832.5
1268	821.5
1272.871	813.5
1277.737	807.5
1282.599	799.5
1287.455	802.5
1292.306	805.5
1297.153	810.5
1301.995	828.5
1306.832	833.5
1311.664	821.5
1316.491	837.5
1321.314	814.5
1326.132	805.5
1330.945	813.5
1335.753	790.5
1340.556	777.5
1345.354	751.5
1350.148	736.5
1354.937	737.5
1359.722	740.5
1364.501	751.5
1369.276	775.5
1374.046	795.5
1378.811	795.5
1383.572	807.5
1388.327	790.5
1393.079	770.5
1397.825	773.5
1402.567	759.5
1407.304	746.5
1412.036	746.5
1416.764	739.5
1421.487	736.5
1426.205	736.5
1430.919	745.5
1435.628	753.5
1440.333	768.5
1445.032	759.5
1449.727	761.5
1454.418	763.5
1459.104	766.5
1463.785	757.5
1468.462	747.5
1473.134	736.5
1477.802	743.5
1482.465	744.5
1487.123	733.5
1491.777	750.5
1496.426	758.5
1501.071	765.5
1505.711	784.5
1510.347	790.5
1514.978	820.5
1519.604	822.5
1524.226	832.5
1528.844	848.5
1533.457	857.5
1538.065	850.5
1542.669	852.5
1547.269	852.5
1551.864	856.5
1556.454	866.5
1561.041	875.5
1565.622	870.5
1570.199	890.5
1574.772	903.5
1579.34	920.5
1583.904	940.5
1588.464	954.5
1593.019	972.5
1597.569	985.5
1602.115	1000.5
1606.657	995.5
1611.195	1025.5
1615.728	1047.5
1620.256	1051.5
1624.78	1077.5
1629.3	1085.5
1633.816	1112.5
1638.327	1112.5
1642.834	1145.5
1647.336	1152.5
1651.834	1152.5
1656.328	1156.5
1660.817	1141.5
1665.302	1134.5
1669.783	1106.5
1674.259	1071.5
1678.732	1022.5
1683.199	998.5
1687.663	950.5
1692.122	910.5
1696.577	854.5
1701.028	848.5
1705.474	851.5
1709.917	830.5
1714.355	814.5
1718.788	782.5
1723.218	773.5
1727.643	738.5
1732.064	712.5
1736.481	688.5
1740.893	660.5
1745.301	655.5
1749.705	633.5
1754.105	610.5
1758.501	589.5
1762.893	579.5
1767.28	566.5
1771.663	558.5
1776.042	547.5
1780.417	541.5
1784.787	552.5
1789.154	559.5
1793.516	570.5
1797.874	569.5
1802.228	577.5
1806.578	578.5
1810.924	567.5
1815.266	562.5
1819.603	553.5
1823.937	545.5
1828.266	531.5
1832.591	539.5
1836.913	521.5
1841.23	519.5
1845.543	509.5
1849.852	515.5
1854.156	520.5
1858.457	510.5
1862.754	520.5
1867.047	508.5
1871.335	518.5
1875.62	508.5
1879.9	516.5
1884.177	502.5
1888.449	514.5
1892.718	516.5
1896.982	516.5
1901.243	513.5
1905.499	511.5
1909.752	513.5
1914	514.5
1918.245	515.5
1922.485	522.5
1926.722	524.5
1930.954	528.5
1935.183	530.5
1939.408	541.5
1943.628	551.5
1947.845	553.5
1952.058	547.5
1956.267	548.5
1960.472	550.5
1964.673	541.5
1968.87	541.5
1973.063	528.5
1977.252	531.5
1981.438	532.5
1985.619	527.5
1989.797	522.5
1993.971	523.5
1998.14	523.5
2002.306	518.5
2006.469	526.5
2010.627	530.5
2014.781	536.5
2018.932	526.5
2023.078	530.5
2027.221	535.5
2031.36	535.5
2035.495	527.5
2039.627	517.5
2043.754	503.5
2047.878	514.5
2051.998	509.5
2056.114	515.5
2060.226	514.5
2064.334	532.5
2068.439	534.5
2072.54	531.5
2076.637	545.5
2080.73	539.5
2084.82	544.5
2088.906	542.5
2092.988	544.5
2097.066	541.5
2101.14	536.5
2105.211	544.5
2109.278	524.5
2113.342	528.5
2117.401	537.5
2121.457	541.5
2125.509	528.5
2129.558	530.5
2133.602	529.5
2137.643	523.5
2141.681	515.5
2145.714	515.5
2149.744	519.5
2153.77	516.5
2157.793	507.5
2161.812	513.5
2165.827	489.5
2169.838	492.5
2173.846	481.5
2177.851	468.5
2181.851	464.5
2185.848	459.5
2189.841	460.5
2193.831	457.5
2197.817	449.5
2201.799	440.5
2205.778	445.5
2209.753	451.5
2213.725	438.5
2217.693	440.5
2221.657	440.5
2225.618	437.5
2229.575	441.5
2233.529	431.5
2237.479	432.5
2241.425	418.5
2245.368	423.5
2249.307	415.5
2253.243	410.5
2257.175	412.5
2261.104	396.5
2265.029	392.5
2268.95	383.5
2272.868	379.5
2276.783	377.5
2280.694	373.5
2284.601	360.5
2288.505	374.5
2292.405	358.5
2296.302	357.5
2300.195	352.5
2304.085	345.5
2307.971	338.5
2311.854	341.5
2315.734	325.5
2319.609	325.5
2323.482	318.5
2327.351	311.5
2331.216	316.5
2335.078	316.5
2338.937	307.5
2342.792	305.5
2346.643	297.5
2350.492	308.5
2354.336	297.5
2358.178	298.5
2362.015	295.5
2365.85	298.5
2369.681	301.5
2373.508	303.5
2377.333	299.5
2381.153	301.5
2384.971	296.5
2388.785	295.5
2392.595	289.5
2396.402	295.5
2400.206	282.5
2404.007	272.5
2407.804	282.5
2411.597	277.5
2415.388	277.5
2419.174	273.5
2422.958	270.5
2426.738	276.5
2430.515	269.5
2434.289	272.5
2438.059	271.5
2441.825	266.5
2445.589	263.5
2449.349	264.5
2453.106	251.5
2456.859	246.5
2460.61	246.5
2464.356	250.5
2468.1	241.5
2471.84	242.5
2475.577	238.5
2479.311	240.5
2483.041	243.5
2486.768	247.5
2490.492	248.5
2494.213	243.5
2497.93	234.5
2501.644	237.5
2505.355	240.5
2509.062	236.5
2512.766	234.5
2516.467	237.5
2520.165	232.5
2523.859	236.5
2527.551	226.5
2531.239	233.5
2534.923	227.5
2538.605	221.5
2542.283	227.5
2545.958	226.5
2549.63	225.5
2553.299	227.5
2556.964	215.5
2560.626	222.5
2564.285	222.5
2567.941	216.5
2571.594	211.5
2575.243	210.5
2578.89	216.5
2582.533	212.5
2586.173	208.5
2589.809	204.5
2593.443	209.5
2597.073	206.5
2600.701	203.5
2604.325	207.5
2607.946	194.5
2611.564	197.5
2615.178	207.5
2618.79	196.5
2622.398	199.5
2626.004	200.5
2629.606	193.5
2633.205	195.5
2636.801	203.5
2640.394	190.5
2643.983	191.5
2647.57	186.5
2651.153	179.5
2654.734	176.5
2658.311	177.5
2661.885	178.5
2665.456	173.5
2669.025	173.5
2672.589	168.5
2676.151	167.5
2679.71	162.5
2683.266	168.5
2686.819	171.5
2690.368	166.5
2693.915	156.5
2697.458	154.5
2700.999	144.5
2704.536	148.5
2708.071	149.5
2711.602	144.5
2715.13	146.5
2718.656	145.5
2722.178	140.5
2725.697	141.5
2729.214	139.5
2732.727	149.5
2736.237	143.5
2739.744	148.5
2743.249	144.5
2746.75	141.5
2750.248	154.5
2753.743	156.5
2757.236	149.5
2760.725	150.5
2764.211	158.5
2767.695	155.5
2771.175	153.5
2774.652	152.5
2778.127	157.5
2781.598	152.5
2785.067	152.5
2788.532	151.5
2791.995	150.5
2795.455	148.5
2798.911	158.5
2802.365	149.5
2805.816	154.5
2809.264	151.5
2812.709	152.5
2816.151	162.5
2819.59	162.5
2823.026	152.5
2826.46	153.5
2829.89	168.5
2833.318	159.5
2836.742	157.5
2840.164	168.5
2843.583	170.5
2846.999	166.5
2850.412	172.5
2853.822	166.5
2857.229	165.5
2860.634	172.5
2864.035	170.5
2867.434	176.5
2870.83	180.5
2874.223	180.5
2877.613	185.5
2881	191.5
2884.385	184.5
2887.766	195.5
2891.145	192.5
2894.521	190.5
2897.894	196.5
2901.264	199.5
2904.631	198.5
2907.996	203.5
2911.358	210.5
2914.717	206.5
2918.073	206.5
2921.426	211.5
2924.777	212.5
2928.124	221.5
2931.469	225.5
2934.811	236.5
2938.15	236.5
2941.487	241.5
2944.821	251.5
2948.152	254.5
2951.48	250.5
2954.805	257.5
2958.128	258.5
2961.447	268.5
2964.765	265.5
2968.079	275.5
2971.39	282.5
2974.699	300.5
2978.005	312.5
2981.308	326.5
2984.609	333.5
2987.907	344.5
2991.202	344.5
2994.494	369.5
2997.784	377.5
3001.07	383.5
3004.355	395.5
3007.636	401.5
3010.915	414.5
3014.191	424.5
3017.464	434.5
3020.734	439.5
3024.002	452.5
3027.267	459.5
3030.53	459.5
3033.789	466.5
3037.046	482.5
3040.301	487.5
3043.552	510.5
3046.801	517.5
3050.048	521.5
3053.291	546.5
3056.532	568.5
3059.771	584.5
3063.006	608.5
3066.239	617.5
3069.469	637.5
3072.697	659.5
3075.922	668.5
3079.144	684.5
3082.364	715.5
3085.581	725.5
3088.795	749.5
3092.007	771.5
3095.216	784.5
3098.423	804.5
3101.627	831.5
3104.828	824.5
3108.026	854.5
3111.222	870.5
3114.416	893.5
3117.607	907.5
3120.795	950.5
3123.98	970.5
3127.163	980.5
3130.344	999.5
3133.521	1029.5
3136.696	1048.5
3139.869	1077.5
3143.039	1085.5
3146.206	1110.5
3149.371	1115.5
3152.533	1140.5
3155.693	1149.5
3158.85	1153.5
3162.005	1168.5
3165.157	1174.5
3168.306	1166.5
3171.453	1184.5
3174.597	1188.5
3177.739	1187.5
3180.878	1196.5
3184.014	1197.5
3187.149	1209.5
3190.28	1197.5
3193.409	1203.5
3196.536	1213.5
3199.659	1220.5
3202.781	1236.5
3205.9	1221.5
3209.016	1237.5
3212.13	1230.5
3215.241	1212.5
3218.35	1201.5
3221.456	1207.5
3224.56	1205.5
3227.661	1174.5
3230.76	1178.5
3233.856	1172.5
3236.95	1140.5
3240.041	1132.5
3243.13	1147.5
3246.216	1155.5
3249.3	1130.5
3252.382	1125.5
3255.46	1129.5
3258.537	1120.5
3261.611	1125.5
3264.682	1121.5
3267.751	1107.5
3270.818	1114.5
3273.882	1102.5
3276.943	1100.5
3280.002	1102.5
3283.059	1087.5
3286.113	1065.5
3289.165	1051.5
3292.214	1033.5
3295.261	1019.5
3298.306	1003.5
3301.348	984.5
3304.387	970.5
3307.425	951.5
3310.459	949.5
3313.492	929.5
3316.521	933.5
3319.549	917.5
3322.574	902.5
3325.597	887.5
3328.617	883.5
3331.635	878.5
3334.65	879.5
3337.663	869.5
3340.674	874.5
3343.682	851.5
3346.688	868.5
3349.691	862.5
3352.692	842.5
3355.691	846.5
3358.687	844.5
3361.681	820.5
3364.673	821.5
3367.662	810.5
3370.649	793.5
3373.633	794.5
3376.615	773.5
3379.595	768.5
3382.572	758.5
3385.547	748.5
3388.52	738.5
3391.49	720.5
3394.458	731.5
3397.424	708.5
3400.387	708.5
3403.348	704.5
3406.307	699.5
3409.263	678.5
3412.217	686.5
3415.168	669.5
3418.118	663.5
3421.065	660.5
3424.009	650.5
3426.951	640.5
3429.891	630.5
3432.829	616.5
3435.764	602.5
3438.697	599.5
3441.628	579.5
3444.557	562.5
3447.483	540.5
3450.407	541.5
3453.328	530.5
3456.247	507.5
3459.164	499.5
3462.079	484.5
3464.991	477.5
3467.902	459.5
3470.809	439.5
3473.715	422.5
3476.618	419.5
3479.519	405.5
3482.418	394.5
3485.315	383.5
3488.209	378.5
3491.101	365.5
3493.99	358.5
3496.878	348.5
3499.763	331.5
3502.646	331.5
3505.527	326.5
3508.405	310.5
3511.281	291.5
3514.155	285.5
3517.027	267.5
3519.897	260.5
3522.764	246.5
3525.629	236.5
3528.492	214.5
3531.352	218.5
3534.211	196.5
3537.067	192.5
3539.921	182.5
3542.773	168.5
3545.622	165.5
3548.469	143.5
3551.315	135.5
3554.157	132.5
3556.998	118.5
3559.837	122.5
3562.673	107.5
3565.507	107.5
3568.339	102.5
3571.169	96.5
3573.996	91.5
3576.822	89.5
3579.645	79.5
3582.466	71.5
3585.285	69.5
3588.101	55.5
3590.916	52.5
3593.728	53.5
3596.538	42.5
3599.346	36.5
3602.152	28.5
3604.956	28.5
3607.757	16.5
3610.556	23.5
3613.354	15.5
3616.149	14.5
3618.942	6.5
3621.732	4.5
3624.521	-1.5
3627.307	-4.5
3630.092	-8.5
3632.874	-6.5
3635.654	-11.5
3638.432	-12.5
3641.208	-15.5
3643.982	-23.5
3646.753	-27.5
3649.523	-18.5
3652.29	-27.5
3655.055	-30.5
3657.818	-34.5
3660.579	-38.5
3663.338	-40.5
3666.095	-42.5
3668.849	-50.5
3671.602	-49.5
3674.352	-59.5
3677.101	-53.5
3679.847	-59.5
3682.591	-63.5
3685.333	-64.5
3688.073	-62.5
3690.811	-68.5
3693.547	-62.5
3696.281	-66.5
3699.013	-68.5
3701.742	-66.5
3704.47	-70.5
3707.195	-69.5
3709.919	-69.5
3712.64	-76.5
3715.359	-72.5
3718.076	-72.5
3720.792	-77.5
3723.505	-75.5
3726.216	-81.5
3728.925	-75.5
3731.632	-79.5
3734.336	-85.5
3737.039	-82.5
3739.74	-83.5
3742.439	-90.5
3745.136	-85.5
3747.83	-84.5
3750.523	-87.5
3753.213	-85.5
3755.902	-79.5
3758.589	-82.5
3761.273	-89.5
3763.956	-86.5
3766.636	-88.5
3769.315	-89.5
3771.991	-92.5
3774.665	-88.5
3777.338	-92.5
3780.008	-95.5
3782.677	-90.5
3785.343	-87.5
3788.007	-89.5
3790.67	-92.5
3793.33	-88.5
3795.989	-91.5
3798.645	-95.5
3801.299	-94.5
3803.952	-89.5
3806.602	-94.5
3809.251	-97.5
3811.897	-98.5
3814.542	-96.5
3817.184	-95.5
3819.825	-95.5
3822.463	-95.5
3825.1	-93.5
3827.735	-95.5
3830.367	-92.5
3832.998	-100.5
3835.627	-93.5
3838.253	-92.5
3840.878	-96.5
3843.501	-95.5
3846.122	-97.5
3848.741	-97.5
3851.358	-97.5
3853.973	-96.5
3856.586	-97.5
3859.197	-99.5
3861.806	-97.5
3864.414	-97.5
3867.019	-99.5
3869.622	-98.5
3872.224	-97.5
3874.823	-96.5
3877.421	-94.5
3880.016	-90.5
3882.61	-86.5
3885.202	-84.5
3887.792	-93.5
3890.38	-94.5
3892.966	-98.5
3895.55	-99.5
3898.132	-96.5
3900.713	-100.5
3903.291	-97.5
3905.868	-98.5
3908.442	-98.5
3911.015	-98.5
3913.586	-102.5
3916.155	-102.5
3918.722	-99.5
3921.287	-104.5
3923.85	-103.5
3926.411	-102.5
3928.971	-98.5
3931.528	-103.5
3934.084	-99.5
3936.638	-101.5
3939.19	-99.5
3941.74	-100.5
3944.288	-102.5
3946.834	-102.5
3949.378	-100.5
3951.921	-103.5
3954.462	-101.5
3957	-105.5
3959.537	-105.5
3962.072	-99.5
3964.606	-98.5
3967.137	-99.5
3969.667	-96.5
3972.194	-95.5
3974.72	-98.5
3977.244	-97.5
3979.766	-100.5
3982.286	-100.5
3984.805	-99.5
3987.321	-99.5
3989.836	-102.5
3992.349	-95.5
3994.86	-97.5
3997.369	-99.5
3999.877	-97.5
4002.382	-96.5
4004.886	-97.5
4007.388	-98.5
4009.888	-96.5
4012.386	-98.5
4014.883	-101.5
4017.377	-100.5
4019.87	-97.5
4022.361	-98.5
4024.85	-100.5
4027.338	-101.5
4029.823	-100.5
4032.307	-101.5
4034.789	-102.5
4037.269	-98.5
4039.747	-100.5
4042.224	-102.5
4044.699	-100.5
4047.172	-97.5
4049.643	-98.5
4052.112	-98.5
4054.58	-99.5
4057.046	-101.5
4059.51	-102.5
4061.972	-103.5
4064.432	-98.5
4066.891	-101.5
4069.348	-99.5
4071.803	-104.5
4074.256	-102.5
4076.708	-99.5
4079.158	-98.5
4081.606	-98.5
4084.052	-100.5
4086.497	-100.5
4088.939	-103.5
4091.38	-104.5
4093.819	-102.5
4096.257	-105.5
4098.693	-101.5
4101.127	-102.5
4103.559	-104.5
4105.989	-63.5
4108.418	-59.5
4110.845	-58.5
4113.27	-55.5
4115.694	-48.5
4118.115	-38.5
4120.535	-99.5
4122.954	-100.5
4125.37	-100.5
4127.785	-99.5
4130.198	-99.5
4132.609	-99.5
4135.019	-104.5
4137.427	-103.5
4139.833	-103.5
4142.237	-106.5
