Data from 1000000CFU3_B_RamanShift_1.txt Node
Date: Tue Jan 24 18:11:56 IST 2017
User: aro
Spectrometer: QEPB0276
Trigger mode: 0
Integration Time (sec): 5.000000E0
Scans to average: 1
Electric dark correction enabled: true
Nonlinearity correction enabled: false
Boxcar width: 0
XAxis mode: Raman Shifts
Number of Pixels in Spectrum: 1044
>>>>>Begin Spectral Data<<<<<
160.701	-33.5
166.742	-0.5
172.777	97.5
178.805	403.5
184.826	1098.5
190.841	2254.5
196.849	3544.5
202.85	4436.5
208.845	4630.5
214.833	4491.5
220.815	4306.5
226.789	4178.5
232.758	4062.5
238.719	3954.5
244.674	3799.5
250.623	3621.5
256.565	3461.5
262.5	3319.5
268.429	3155.5
274.351	3049.5
280.267	2949.5
286.176	2819.5
292.079	2722.5
297.975	2632.5
303.865	2580.5
309.748	2494.5
315.625	2433.5
321.495	2397.5
327.359	2339.5
333.217	2311.5
339.068	2286.5
344.912	2274.5
350.751	2263.5
356.583	2285.5
362.408	2279.5
368.227	2279.5
374.04	2301.5
379.847	2304.5
385.647	2297.5
391.44	2335.5
397.228	2324.5
403.009	2317.5
408.784	2345.5
414.553	2350.5
420.315	2369.5
426.071	2378.5
431.821	2372.5
437.565	2354.5
443.302	2329.5
449.033	2339.5
454.758	2354.5
460.477	2347.5
466.189	2320.5
471.896	2337.5
477.596	2309.5
483.29	2286.5
488.978	2280.5
494.66	2259.5
500.335	2255.5
506.005	2220.5
511.668	2156.5
517.325	2116.5
522.977	2067.5
528.622	2057.5
534.261	2046.5
539.894	2016.5
545.521	1999.5
551.141	1975.5
556.756	1976.5
562.365	1970.5
567.968	1957.5
573.565	1962.5
579.155	1920.5
584.74	1922.5
590.319	1925.5
595.892	1892.5
601.459	1871.5
607.02	1869.5
612.575	1855.5
618.124	1851.5
623.667	1815.5
629.204	1821.5
634.735	1801.5
640.261	1778.5
645.781	1752.5
651.294	1739.5
656.802	1754.5
662.304	1733.5
667.8	1737.5
673.29	1732.5
678.775	1731.5
684.254	1720.5
689.726	1708.5
695.193	1699.5
700.655	1687.5
706.11	1663.5
711.56	1671.5
717.004	1664.5
722.442	1652.5
727.874	1627.5
733.301	1636.5
738.722	1621.5
744.137	1604.5
749.547	1616.5
754.951	1612.5
760.349	1611.5
765.741	1601.5
771.128	1613.5
776.509	1609.5
781.885	1596.5
787.254	1599.5
792.618	1591.5
797.977	1594.5
803.33	1575.5
808.677	1543.5
814.019	1546.5
819.355	1531.5
824.686	1514.5
830.011	1505.5
835.33	1504.5
840.644	1513.5
845.952	1471.5
851.255	1468.5
856.552	1464.5
861.844	1475.5
867.13	1461.5
872.41	1458.5
877.686	1445.5
882.955	1418.5
888.219	1384.5
893.478	1367.5
898.731	1354.5
903.979	1328.5
909.221	1328.5
914.458	1312.5
919.69	1307.5
924.916	1306.5
930.136	1313.5
935.351	1304.5
940.561	1311.5
945.766	1304.5
950.965	1291.5
956.158	1268.5
961.347	1260.5
966.529	1246.5
971.707	1211.5
976.879	1208.5
982.046	1214.5
987.208	1207.5
992.364	1204.5
997.515	1206.5
1002.66	1214.5
1007.801	1234.5
1012.936	1235.5
1018.066	1231.5
1023.19	1251.5
1028.309	1252.5
1033.423	1242.5
1038.532	1239.5
1043.636	1230.5
1048.734	1221.5
1053.827	1202.5
1058.915	1197.5
1063.998	1183.5
1069.075	1192.5
1074.147	1187.5
1079.214	1199.5
1084.276	1219.5
1089.333	1211.5
1094.385	1234.5
1099.431	1229.5
1104.472	1238.5
1109.509	1234.5
1114.54	1219.5
1119.565	1206.5
1124.586	1193.5
1129.602	1164.5
1134.613	1162.5
1139.618	1160.5
1144.619	1146.5
1149.614	1162.5
1154.604	1182.5
1159.589	1182.5
1164.57	1183.5
1169.545	1179.5
1174.515	1191.5
1179.48	1185.5
1184.44	1176.5
1189.395	1175.5
1194.345	1152.5
1199.29	1154.5
1204.23	1150.5
1209.165	1162.5
1214.095	1168.5
1219.021	1187.5
1223.941	1197.5
1228.856	1191.5
1233.766	1208.5
1238.672	1223.5
1243.572	1195.5
1248.467	1193.5
1253.358	1190.5
1258.244	1178.5
1263.124	1155.5
1268	1143.5
1272.871	1119.5
1277.737	1113.5
1282.599	1110.5
1287.455	1132.5
1292.306	1124.5
1297.153	1148.5
1301.995	1140.5
1306.832	1138.5
1311.664	1139.5
1316.491	1158.5
1321.314	1136.5
1326.132	1122.5
1330.945	1119.5
1335.753	1125.5
1340.556	1097.5
1345.354	1089.5
1350.148	1089.5
1354.937	1080.5
1359.722	1068.5
1364.501	1049.5
1369.276	1045.5
1374.046	1028.5
1378.811	1040.5
1383.572	1040.5
1388.327	1017.5
1393.079	1029.5
1397.825	1017.5
1402.567	1015.5
1407.304	1002.5
1412.036	1008.5
1416.764	989.5
1421.487	1002.5
1426.205	1004.5
1430.919	1027.5
1435.628	1023.5
1440.333	1037.5
1445.032	1046.5
1449.727	1053.5
1454.418	1058.5
1459.104	1053.5
1463.785	1044.5
1468.462	1043.5
1473.134	1042.5
1477.802	1025.5
1482.465	1013.5
1487.123	1027.5
1491.777	1021.5
1496.426	1009.5
1501.071	1030.5
1505.711	1042.5
1510.347	1047.5
1514.978	1057.5
1519.604	1074.5
1524.226	1078.5
1528.844	1070.5
1533.457	1058.5
1538.065	1079.5
1542.669	1054.5
1547.269	1075.5
1551.864	1061.5
1556.454	1069.5
1561.041	1077.5
1565.622	1081.5
1570.199	1101.5
1574.772	1121.5
1579.34	1150.5
1583.904	1175.5
1588.464	1194.5
1593.019	1200.5
1597.569	1213.5
1602.115	1234.5
1606.657	1239.5
1611.195	1225.5
1615.728	1246.5
1620.256	1280.5
1624.78	1288.5
1629.3	1320.5
1633.816	1336.5
1638.327	1341.5
1642.834	1351.5
1647.336	1362.5
1651.834	1380.5
1656.328	1372.5
1660.817	1367.5
1665.302	1341.5
1669.783	1308.5
1674.259	1288.5
1678.732	1241.5
1683.199	1209.5
1687.663	1167.5
1692.122	1127.5
1696.577	1104.5
1701.028	1041.5
1705.474	994.5
1709.917	962.5
1714.355	937.5
1718.788	930.5
1723.218	909.5
1727.643	899.5
1732.064	871.5
1736.481	860.5
1740.893	834.5
1745.301	821.5
1749.705	804.5
1754.105	775.5
1758.501	775.5
1762.893	755.5
1767.28	748.5
1771.663	734.5
1776.042	735.5
1780.417	728.5
1784.787	720.5
1789.154	731.5
1793.516	733.5
1797.874	726.5
1802.228	716.5
1806.578	710.5
1810.924	688.5
1815.266	685.5
1819.603	684.5
1823.937	679.5
1828.266	676.5
1832.591	664.5
1836.913	652.5
1841.23	665.5
1845.543	667.5
1849.852	653.5
1854.156	663.5
1858.457	667.5
1862.754	662.5
1867.047	674.5
1871.335	670.5
1875.62	678.5
1879.9	667.5
1884.177	681.5
1888.449	674.5
1892.718	658.5
1896.982	675.5
1901.243	667.5
1905.499	658.5
1909.752	655.5
1914	669.5
1918.245	664.5
1922.485	664.5
1926.722	650.5
1930.954	664.5
1935.183	664.5
1939.408	661.5
1943.628	670.5
1947.845	677.5
1952.058	666.5
1956.267	665.5
1960.472	665.5
1964.673	652.5
1968.87	645.5
1973.063	634.5
1977.252	640.5
1981.438	642.5
1985.619	630.5
1989.797	627.5
1993.971	627.5
1998.14	627.5
2002.306	635.5
2006.469	642.5
2010.627	648.5
2014.781	652.5
2018.932	635.5
2023.078	647.5
2027.221	654.5
2031.36	636.5
2035.495	635.5
2039.627	622.5
2043.754	628.5
2047.878	620.5
2051.998	631.5
2056.114	614.5
2060.226	623.5
2064.334	629.5
2068.439	635.5
2072.54	643.5
2076.637	641.5
2080.73	647.5
2084.82	640.5
2088.906	646.5
2092.988	645.5
2097.066	645.5
2101.14	641.5
2105.211	632.5
2109.278	629.5
2113.342	613.5
2117.401	626.5
2121.457	616.5
2125.509	604.5
2129.558	605.5
2133.602	602.5
2137.643	606.5
2141.681	613.5
2145.714	594.5
2149.744	602.5
2153.77	592.5
2157.793	586.5
2161.812	584.5
2165.827	584.5
2169.838	574.5
2173.846	564.5
2177.851	556.5
2181.851	536.5
2185.848	542.5
2189.841	536.5
2193.831	539.5
2197.817	535.5
2201.799	531.5
2205.778	524.5
2209.753	524.5
2213.725	524.5
2217.693	525.5
2221.657	523.5
2225.618	520.5
2229.575	505.5
2233.529	518.5
2237.479	513.5
2241.425	500.5
2245.368	501.5
2249.307	484.5
2253.243	484.5
2257.175	481.5
2261.104	469.5
2265.029	467.5
2268.95	463.5
2272.868	460.5
2276.783	440.5
2280.694	442.5
2284.601	433.5
2288.505	426.5
2292.405	419.5
2296.302	433.5
2300.195	414.5
2304.085	406.5
2307.971	408.5
2311.854	399.5
2315.734	390.5
2319.609	389.5
2323.482	379.5
2327.351	372.5
2331.216	371.5
2335.078	362.5
2338.937	363.5
2342.792	356.5
2346.643	362.5
2350.492	351.5
2354.336	355.5
2358.178	364.5
2362.015	359.5
2365.85	360.5
2369.681	363.5
2373.508	358.5
2377.333	369.5
2381.153	363.5
2384.971	362.5
2388.785	361.5
2392.595	358.5
2396.402	358.5
2400.206	347.5
2404.007	350.5
2407.804	342.5
2411.597	352.5
2415.388	339.5
2419.174	344.5
2422.958	342.5
2426.738	341.5
2430.515	344.5
2434.289	337.5
2438.059	346.5
2441.825	334.5
2445.589	335.5
2449.349	332.5
2453.106	324.5
2456.859	323.5
2460.61	324.5
2464.356	319.5
2468.1	319.5
2471.84	319.5
2475.577	310.5
2479.311	316.5
2483.041	314.5
2486.768	319.5
2490.492	322.5
2494.213	307.5
2497.93	311.5
2501.644	314.5
2505.355	314.5
2509.062	313.5
2512.766	305.5
2516.467	296.5
2520.165	304.5
2523.859	302.5
2527.551	299.5
2531.239	304.5
2534.923	292.5
2538.605	296.5
2542.283	300.5
2545.958	290.5
2549.63	294.5
2553.299	279.5
2556.964	285.5
2560.626	291.5
2564.285	284.5
2567.941	288.5
2571.594	287.5
2575.243	278.5
2578.89	274.5
2582.533	278.5
2586.173	267.5
2589.809	270.5
2593.443	262.5
2597.073	260.5
2600.701	267.5
2604.325	258.5
2607.946	258.5
2611.564	256.5
2615.178	252.5
2618.79	255.5
2622.398	248.5
2626.004	253.5
2629.606	244.5
2633.205	244.5
2636.801	237.5
2640.394	238.5
2643.983	243.5
2647.57	239.5
2651.153	232.5
2654.734	240.5
2658.311	235.5
2661.885	236.5
2665.456	225.5
2669.025	226.5
2672.589	216.5
2676.151	220.5
2679.71	214.5
2683.266	220.5
2686.819	211.5
2690.368	210.5
2693.915	215.5
2697.458	216.5
2700.999	202.5
2704.536	206.5
2708.071	204.5
2711.602	195.5
2715.13	197.5
2718.656	198.5
2722.178	203.5
2725.697	201.5
2729.214	206.5
2732.727	213.5
2736.237	207.5
2739.744	220.5
2743.249	206.5
2746.75	212.5
2750.248	204.5
2753.743	207.5
2757.236	201.5
2760.725	201.5
2764.211	198.5
2767.695	193.5
2771.175	200.5
2774.652	193.5
2778.127	187.5
2781.598	198.5
2785.067	190.5
2788.532	193.5
2791.995	190.5
2795.455	201.5
2798.911	201.5
2802.365	201.5
2805.816	204.5
2809.264	199.5
2812.709	195.5
2816.151	194.5
2819.59	200.5
2823.026	201.5
2826.46	202.5
2829.89	199.5
2833.318	197.5
2836.742	194.5
2840.164	198.5
2843.583	204.5
2846.999	203.5
2850.412	211.5
2853.822	220.5
2857.229	218.5
2860.634	221.5
2864.035	225.5
2867.434	222.5
2870.83	231.5
2874.223	221.5
2877.613	221.5
2881	229.5
2884.385	231.5
2887.766	224.5
2891.145	234.5
2894.521	231.5
2897.894	228.5
2901.264	228.5
2904.631	232.5
2907.996	240.5
2911.358	242.5
2914.717	234.5
2918.073	247.5
2921.426	249.5
2924.777	258.5
2928.124	247.5
2931.469	262.5
2934.811	267.5
2938.15	275.5
2941.487	283.5
2944.821	286.5
2948.152	289.5
2951.48	291.5
2954.805	296.5
2958.128	295.5
2961.447	301.5
2964.765	302.5
2968.079	310.5
2971.39	313.5
2974.699	324.5
2978.005	329.5
2981.308	346.5
2984.609	353.5
2987.907	365.5
2991.202	370.5
2994.494	383.5
2997.784	394.5
3001.07	398.5
3004.355	411.5
3007.636	419.5
3010.915	429.5
3014.191	445.5
3017.464	451.5
3020.734	456.5
3024.002	460.5
3027.267	471.5
3030.53	487.5
3033.789	501.5
3037.046	512.5
3040.301	519.5
3043.552	533.5
3046.801	551.5
3050.048	547.5
3053.291	568.5
3056.532	578.5
3059.771	602.5
3063.006	622.5
3066.239	642.5
3069.469	665.5
3072.697	675.5
3075.922	704.5
3079.144	722.5
3082.364	740.5
3085.581	745.5
3088.795	762.5
3092.007	781.5
3095.216	797.5
3098.423	830.5
3101.627	847.5
3104.828	844.5
3108.026	877.5
3111.222	889.5
3114.416	909.5
3117.607	946.5
3120.795	958.5
3123.98	988.5
3127.163	1000.5
3130.344	1031.5
3133.521	1051.5
3136.696	1069.5
3139.869	1090.5
3143.039	1101.5
3146.206	1133.5
3149.371	1151.5
3152.533	1154.5
3155.693	1159.5
3158.85	1159.5
3162.005	1176.5
3165.157	1174.5
3168.306	1187.5
3171.453	1184.5
3174.597	1185.5
3177.739	1199.5
3180.878	1192.5
3184.014	1198.5
3187.149	1197.5
3190.28	1220.5
3193.409	1221.5
3196.536	1210.5
3199.659	1227.5
3202.781	1229.5
3205.9	1224.5
3209.016	1221.5
3212.13	1221.5
3215.241	1202.5
3218.35	1208.5
3221.456	1189.5
3224.56	1188.5
3227.661	1175.5
3230.76	1164.5
3233.856	1152.5
3236.95	1135.5
3240.041	1129.5
3243.13	1113.5
3246.216	1115.5
3249.3	1099.5
3252.382	1100.5
3255.46	1098.5
3258.537	1087.5
3261.611	1086.5
3264.682	1067.5
3267.751	1076.5
3270.818	1069.5
3273.882	1063.5
3276.943	1056.5
3280.002	1043.5
3283.059	1039.5
3286.113	1036.5
3289.165	1005.5
3292.214	1006.5
3295.261	989.5
3298.306	969.5
3301.348	956.5
3304.387	937.5
3307.425	927.5
3310.459	917.5
3313.492	896.5
3316.521	886.5
3319.549	884.5
3322.574	885.5
3325.597	882.5
3328.617	875.5
3331.635	866.5
3334.65	851.5
3337.663	840.5
3340.674	835.5
3343.682	839.5
3346.688	831.5
3349.691	848.5
3352.692	828.5
3355.691	832.5
3358.687	817.5
3361.681	811.5
3364.673	799.5
3367.662	799.5
3370.649	783.5
3373.633	769.5
3376.615	755.5
3379.595	742.5
3382.572	735.5
3385.547	724.5
3388.52	717.5
3391.49	703.5
3394.458	685.5
3397.424	688.5
3400.387	685.5
3403.348	664.5
3406.307	682.5
3409.263	662.5
3412.217	646.5
3415.168	639.5
3418.118	641.5
3421.065	629.5
3424.009	619.5
3426.951	607.5
3429.891	607.5
3432.829	588.5
3435.764	574.5
3438.697	555.5
3441.628	552.5
3444.557	535.5
3447.483	525.5
3450.407	509.5
3453.328	490.5
3456.247	480.5
3459.164	460.5
3462.079	446.5
3464.991	442.5
3467.902	420.5
3470.809	410.5
3473.715	398.5
3476.618	391.5
3479.519	366.5
3482.418	361.5
3485.315	355.5
3488.209	339.5
3491.101	337.5
3493.99	319.5
3496.878	325.5
3499.763	301.5
3502.646	290.5
3505.527	285.5
3508.405	275.5
3511.281	252.5
3514.155	246.5
3517.027	225.5
3519.897	214.5
3522.764	209.5
3525.629	197.5
3528.492	190.5
3531.352	173.5
3534.211	164.5
3537.067	144.5
3539.921	145.5
3542.773	135.5
3545.622	127.5
3548.469	120.5
3551.315	107.5
3554.157	104.5
3556.998	99.5
3559.837	88.5
3562.673	81.5
3565.507	78.5
3568.339	70.5
3571.169	68.5
3573.996	57.5
3576.822	51.5
3579.645	44.5
3582.466	44.5
3585.285	38.5
3588.101	34.5
3590.916	28.5
3593.728	18.5
3596.538	22.5
3599.346	18.5
3602.152	8.5
3604.956	5.5
3607.757	-3.5
3610.556	-11.5
3613.354	-6.5
3616.149	-17.5
3618.942	-15.5
3621.732	-14.5
3624.521	-24.5
3627.307	-20.5
3630.092	-28.5
3632.874	-28.5
3635.654	-28.5
3638.432	-33.5
3641.208	-39.5
3643.982	-38.5
3646.753	-40.5
3649.523	-45.5
3652.29	-46.5
3655.055	-52.5
3657.818	-46.5
3660.579	-52.5
3663.338	-55.5
3666.095	-59.5
3668.849	-56.5
3671.602	-62.5
3674.352	-68.5
3677.101	-69.5
3679.847	-73.5
3682.591	-73.5
3685.333	-72.5
3688.073	-75.5
3690.811	-76.5
3693.547	-71.5
3696.281	-76.5
3699.013	-76.5
3701.742	-84.5
3704.47	-81.5
3707.195	-81.5
3709.919	-84.5
3712.64	-85.5
3715.359	-88.5
3718.076	-88.5
3720.792	-88.5
3723.505	-88.5
3726.216	-92.5
3728.925	-92.5
3731.632	-91.5
3734.336	-94.5
3737.039	-97.5
3739.74	-97.5
3742.439	-95.5
3745.136	-91.5
3747.83	-95.5
3750.523	-92.5
3753.213	-97.5
3755.902	-95.5
3758.589	-94.5
3761.273	-94.5
3763.956	-97.5
3766.636	-100.5
3769.315	-100.5
3771.991	-103.5
3774.665	-99.5
3777.338	-105.5
3780.008	-104.5
3782.677	-98.5
3785.343	-101.5
3788.007	-104.5
3790.67	-103.5
3793.33	-105.5
3795.989	-105.5
3798.645	-103.5
3801.299	-101.5
3803.952	-102.5
3806.602	-102.5
3809.251	-106.5
3811.897	-103.5
3814.542	-103.5
3817.184	-102.5
3819.825	-106.5
3822.463	-109.5
3825.1	-104.5
3827.735	-109.5
3830.367	-112.5
3832.998	-110.5
3835.627	-107.5
3838.253	-106.5
3840.878	-105.5
3843.501	-105.5
3846.122	-106.5
3848.741	-109.5
3851.358	-107.5
3853.973	-111.5
3856.586	-106.5
3859.197	-109.5
3861.806	-111.5
3864.414	-109.5
3867.019	-106.5
3869.622	-108.5
3872.224	-106.5
3874.823	-108.5
3877.421	-102.5
3880.016	-101.5
3882.61	-106.5
3885.202	-102.5
3887.792	-102.5
3890.38	-106.5
3892.966	-108.5
3895.55	-108.5
3898.132	-108.5
3900.713	-107.5
3903.291	-107.5
3905.868	-109.5
3908.442	-111.5
3911.015	-110.5
3913.586	-110.5
3916.155	-112.5
3918.722	-113.5
3921.287	-115.5
3923.85	-112.5
3926.411	-113.5
3928.971	-114.5
3931.528	-113.5
3934.084	-114.5
3936.638	-113.5
3939.19	-112.5
3941.74	-113.5
3944.288	-112.5
3946.834	-113.5
3949.378	-110.5
3951.921	-116.5
3954.462	-115.5
3957	-112.5
3959.537	-112.5
3962.072	-107.5
3964.606	-110.5
3967.137	-113.5
3969.667	-116.5
3972.194	-113.5
3974.72	-113.5
3977.244	-116.5
3979.766	-116.5
3982.286	-110.5
3984.805	-110.5
3987.321	-105.5
3989.836	-107.5
3992.349	-107.5
3994.86	-111.5
3997.369	-107.5
3999.877	-112.5
4002.382	-107.5
4004.886	-107.5
4007.388	-111.5
4009.888	-113.5
4012.386	-115.5
4014.883	-108.5
4017.377	-110.5
4019.87	-110.5
4022.361	-112.5
4024.85	-112.5
4027.338	-110.5
4029.823	-114.5
4032.307	-114.5
4034.789	-112.5
4037.269	-111.5
4039.747	-110.5
4042.224	-112.5
4044.699	-112.5
4047.172	-109.5
4049.643	-108.5
4052.112	-111.5
4054.58	-108.5
4057.046	-112.5
4059.51	-111.5
4061.972	-114.5
4064.432	-111.5
4066.891	-115.5
4069.348	-113.5
4071.803	-113.5
4074.256	-113.5
4076.708	-111.5
4079.158	-114.5
4081.606	-111.5
4084.052	-111.5
4086.497	-109.5
4088.939	-112.5
4091.38	-110.5
4093.819	-112.5
4096.257	-112.5
4098.693	-114.5
4101.127	-118.5
4103.559	-116.5
4105.989	-80.5
4108.418	-76.5
4110.845	-73.5
4113.27	-65.5
4115.694	-56.5
4118.115	-44.5
4120.535	-113.5
4122.954	-112.5
4125.37	-112.5
4127.785	-113.5
4130.198	-112.5
4132.609	-114.5
4135.019	-119.5
4137.427	-114.5
4139.833	-116.5
4142.237	-116.5
