Data from 10000000CFU1_B_RamanShift_1.txt Node
Date: Tue Jan 24 18:13:06 IST 2017
User: aro
Spectrometer: QEPB0276
Trigger mode: 0
Integration Time (sec): 5.000000E0
Scans to average: 1
Electric dark correction enabled: true
Nonlinearity correction enabled: false
Boxcar width: 0
XAxis mode: Raman Shifts
Number of Pixels in Spectrum: 1044
>>>>>Begin Spectral Data<<<<<
160.701	-31.12
166.742	2.88
172.777	91.88
178.805	359.88
184.826	999.88
190.841	2059.88
196.849	3255.88
202.85	4029.88
208.845	4199.88
214.833	4071.88
220.815	3906.88
226.789	3817.88
232.758	3684.88
238.719	3602.88
244.674	3436.88
250.623	3284.88
256.565	3142.88
262.5	2994.88
268.429	2870.88
274.351	2773.88
280.267	2642.88
286.176	2548.88
292.079	2489.88
297.975	2400.88
303.865	2308.88
309.748	2258.88
315.625	2204.88
321.495	2171.88
327.359	2114.88
333.217	2086.88
339.068	2082.88
344.912	2057.88
350.751	2060.88
356.583	2054.88
362.408	2047.88
368.227	2056.88
374.04	2072.88
379.847	2076.88
385.647	2065.88
391.44	2069.88
397.228	2075.88
403.009	2114.88
408.784	2107.88
414.553	2113.88
420.315	2138.88
426.071	2115.88
431.821	2126.88
437.565	2128.88
443.302	2128.88
449.033	2115.88
454.758	2111.88
460.477	2104.88
466.189	2090.88
471.896	2081.88
477.596	2054.88
483.29	2053.88
488.978	2043.88
494.66	2045.88
500.335	2006.88
506.005	1975.88
511.668	1939.88
517.325	1888.88
522.977	1864.88
528.622	1837.88
534.261	1815.88
539.894	1818.88
545.521	1786.88
551.141	1791.88
556.756	1789.88
562.365	1773.88
567.968	1741.88
573.565	1743.88
579.155	1744.88
584.74	1708.88
590.319	1727.88
595.892	1711.88
601.459	1685.88
607.02	1666.88
612.575	1669.88
618.124	1636.88
623.667	1635.88
629.204	1618.88
634.735	1609.88
640.261	1575.88
645.781	1594.88
651.294	1570.88
656.802	1555.88
662.304	1548.88
667.8	1544.88
673.29	1540.88
678.775	1545.88
684.254	1528.88
689.726	1536.88
695.193	1537.88
700.655	1502.88
706.11	1498.88
711.56	1499.88
717.004	1476.88
722.442	1471.88
727.874	1453.88
733.301	1449.88
738.722	1452.88
744.137	1444.88
749.547	1444.88
754.951	1446.88
760.349	1447.88
765.741	1429.88
771.128	1431.88
776.509	1417.88
781.885	1420.88
787.254	1440.88
792.618	1433.88
797.977	1421.88
803.33	1410.88
808.677	1394.88
814.019	1380.88
819.355	1376.88
824.686	1349.88
830.011	1350.88
835.33	1338.88
840.644	1343.88
845.952	1324.88
851.255	1337.88
856.552	1314.88
861.844	1339.88
867.13	1300.88
872.41	1299.88
877.686	1279.88
882.955	1260.88
888.219	1227.88
893.478	1234.88
898.731	1212.88
903.979	1185.88
909.221	1180.88
914.458	1182.88
919.69	1164.88
924.916	1181.88
930.136	1180.88
935.351	1161.88
940.561	1161.88
945.766	1155.88
950.965	1144.88
956.158	1129.88
961.347	1130.88
966.529	1109.88
971.707	1102.88
976.879	1083.88
982.046	1071.88
987.208	1069.88
992.364	1055.88
997.515	1080.88
1002.66	1069.88
1007.801	1092.88
1012.936	1108.88
1018.066	1106.88
1023.19	1094.88
1028.309	1105.88
1033.423	1109.88
1038.532	1105.88
1043.636	1100.88
1048.734	1085.88
1053.827	1079.88
1058.915	1063.88
1063.998	1067.88
1069.075	1057.88
1074.147	1065.88
1079.214	1059.88
1084.276	1078.88
1089.333	1079.88
1094.385	1085.88
1099.431	1099.88
1104.472	1102.88
1109.509	1087.88
1114.54	1082.88
1119.565	1074.88
1124.586	1052.88
1129.602	1045.88
1134.613	1026.88
1139.618	1024.88
1144.619	1040.88
1149.614	1036.88
1154.604	1064.88
1159.589	1051.88
1164.57	1053.88
1169.545	1060.88
1174.515	1049.88
1179.48	1050.88
1184.44	1053.88
1189.395	1053.88
1194.345	1037.88
1199.29	1031.88
1204.23	1047.88
1209.165	1035.88
1214.095	1057.88
1219.021	1060.88
1223.941	1067.88
1228.856	1060.88
1233.766	1078.88
1238.672	1086.88
1243.572	1087.88
1248.467	1049.88
1253.358	1056.88
1258.244	1044.88
1263.124	1026.88
1268	1019.88
1272.871	993.88
1277.737	1002.88
1282.599	993.88
1287.455	993.88
1292.306	997.88
1297.153	1016.88
1301.995	1018.88
1306.832	1009.88
1311.664	1012.88
1316.491	1020.88
1321.314	1003.88
1326.132	1009.88
1330.945	987.88
1335.753	1010.88
1340.556	975.88
1345.354	973.88
1350.148	980.88
1354.937	968.88
1359.722	954.88
1364.501	952.88
1369.276	929.88
1374.046	918.88
1378.811	922.88
1383.572	912.88
1388.327	928.88
1393.079	911.88
1397.825	909.88
1402.567	902.88
1407.304	902.88
1412.036	902.88
1416.764	898.88
1421.487	897.88
1426.205	902.88
1430.919	911.88
1435.628	927.88
1440.333	920.88
1445.032	925.88
1449.727	928.88
1454.418	943.88
1459.104	926.88
1463.785	938.88
1468.462	924.88
1473.134	923.88
1477.802	929.88
1482.465	901.88
1487.123	916.88
1491.777	900.88
1496.426	918.88
1501.071	927.88
1505.711	927.88
1510.347	937.88
1514.978	953.88
1519.604	958.88
1524.226	960.88
1528.844	955.88
1533.457	963.88
1538.065	976.88
1542.669	949.88
1547.269	958.88
1551.864	962.88
1556.454	958.88
1561.041	962.88
1565.622	972.88
1570.199	976.88
1574.772	1007.88
1579.34	1032.88
1583.904	1060.88
1588.464	1058.88
1593.019	1071.88
1597.569	1096.88
1602.115	1105.88
1606.657	1124.88
1611.195	1122.88
1615.728	1122.88
1620.256	1151.88
1624.78	1171.88
1629.3	1182.88
1633.816	1203.88
1638.327	1220.88
1642.834	1230.88
1647.336	1240.88
1651.834	1249.88
1656.328	1233.88
1660.817	1242.88
1665.302	1222.88
1669.783	1177.88
1674.259	1162.88
1678.732	1115.88
1683.199	1096.88
1687.663	1061.88
1692.122	1017.88
1696.577	980.88
1701.028	948.88
1705.474	892.88
1709.917	869.88
1714.355	854.88
1718.788	835.88
1723.218	824.88
1727.643	810.88
1732.064	790.88
1736.481	768.88
1740.893	758.88
1745.301	730.88
1749.705	711.88
1754.105	689.88
1758.501	689.88
1762.893	663.88
1767.28	661.88
1771.663	660.88
1776.042	666.88
1780.417	647.88
1784.787	658.88
1789.154	652.88
1793.516	651.88
1797.874	648.88
1802.228	647.88
1806.578	634.88
1810.924	628.88
1815.266	615.88
1819.603	599.88
1823.937	597.88
1828.266	597.88
1832.591	597.88
1836.913	589.88
1841.23	580.88
1845.543	579.88
1849.852	579.88
1854.156	588.88
1858.457	588.88
1862.754	591.88
1867.047	607.88
1871.335	603.88
1875.62	608.88
1879.9	600.88
1884.177	597.88
1888.449	599.88
1892.718	593.88
1896.982	595.88
1901.243	603.88
1905.499	590.88
1909.752	590.88
1914	581.88
1918.245	593.88
1922.485	601.88
1926.722	597.88
1930.954	597.88
1935.183	607.88
1939.408	601.88
1943.628	589.88
1947.845	598.88
1952.058	599.88
1956.267	597.88
1960.472	586.88
1964.673	578.88
1968.87	577.88
1973.063	576.88
1977.252	569.88
1981.438	563.88
1985.619	567.88
1989.797	548.88
1993.971	571.88
1998.14	558.88
2002.306	566.88
2006.469	576.88
2010.627	581.88
2014.781	586.88
2018.932	585.88
2023.078	585.88
2027.221	576.88
2031.36	581.88
2035.495	565.88
2039.627	567.88
2043.754	564.88
2047.878	561.88
2051.998	556.88
2056.114	563.88
2060.226	563.88
2064.334	561.88
2068.439	567.88
2072.54	570.88
2076.637	580.88
2080.73	583.88
2084.82	570.88
2088.906	580.88
2092.988	582.88
2097.066	587.88
2101.14	584.88
2105.211	571.88
2109.278	569.88
2113.342	565.88
2117.401	560.88
2121.457	553.88
2125.509	562.88
2129.558	552.88
2133.602	547.88
2137.643	548.88
2141.681	541.88
2145.714	543.88
2149.744	542.88
2153.77	535.88
2157.793	534.88
2161.812	520.88
2165.827	526.88
2169.838	519.88
2173.846	517.88
2177.851	506.88
2181.851	490.88
2185.848	494.88
2189.841	482.88
2193.831	483.88
2197.817	472.88
2201.799	465.88
2205.778	472.88
2209.753	476.88
2213.725	468.88
2217.693	463.88
2221.657	474.88
2225.618	474.88
2229.575	464.88
2233.529	471.88
2237.479	453.88
2241.425	459.88
2245.368	442.88
2249.307	442.88
2253.243	424.88
2257.175	425.88
2261.104	429.88
2265.029	417.88
2268.95	411.88
2272.868	404.88
2276.783	389.88
2280.694	392.88
2284.601	396.88
2288.505	392.88
2292.405	379.88
2296.302	375.88
2300.195	361.88
2304.085	369.88
2307.971	363.88
2311.854	358.88
2315.734	350.88
2319.609	345.88
2323.482	334.88
2327.351	326.88
2331.216	338.88
2335.078	332.88
2338.937	324.88
2342.792	324.88
2346.643	319.88
2350.492	321.88
2354.336	321.88
2358.178	323.88
2362.015	317.88
2365.85	327.88
2369.681	316.88
2373.508	321.88
2377.333	317.88
2381.153	317.88
2384.971	327.88
2388.785	314.88
2392.595	319.88
2396.402	314.88
2400.206	310.88
2404.007	313.88
2407.804	313.88
2411.597	310.88
2415.388	308.88
2419.174	310.88
2422.958	305.88
2426.738	305.88
2430.515	308.88
2434.289	305.88
2438.059	304.88
2441.825	301.88
2445.589	297.88
2449.349	314.88
2453.106	301.88
2456.859	291.88
2460.61	287.88
2464.356	281.88
2468.1	288.88
2471.84	277.88
2475.577	285.88
2479.311	278.88
2483.041	276.88
2486.768	282.88
2490.492	280.88
2494.213	286.88
2497.93	277.88
2501.644	282.88
2505.355	273.88
2509.062	285.88
2512.766	273.88
2516.467	275.88
2520.165	271.88
2523.859	266.88
2527.551	275.88
2531.239	271.88
2534.923	270.88
2538.605	262.88
2542.283	266.88
2545.958	257.88
2549.63	260.88
2553.299	260.88
2556.964	251.88
2560.626	251.88
2564.285	258.88
2567.941	257.88
2571.594	257.88
2575.243	249.88
2578.89	243.88
2582.533	244.88
2586.173	236.88
2589.809	242.88
2593.443	239.88
2597.073	232.88
2600.701	240.88
2604.325	228.88
2607.946	235.88
2611.564	225.88
2615.178	231.88
2618.79	226.88
2622.398	234.88
2626.004	221.88
2629.606	219.88
2633.205	221.88
2636.801	224.88
2640.394	211.88
2643.983	221.88
2647.57	209.88
2651.153	214.88
2654.734	205.88
2658.311	208.88
2661.885	210.88
2665.456	191.88
2669.025	198.88
2672.589	196.88
2676.151	198.88
2679.71	201.88
2683.266	187.88
2686.819	196.88
2690.368	197.88
2693.915	189.88
2697.458	186.88
2700.999	188.88
2704.536	188.88
2708.071	183.88
2711.602	191.88
2715.13	182.88
2718.656	182.88
2722.178	172.88
2725.697	177.88
2729.214	181.88
2732.727	180.88
2736.237	182.88
2739.744	183.88
2743.249	182.88
2746.75	182.88
2750.248	181.88
2753.743	184.88
2757.236	177.88
2760.725	177.88
2764.211	176.88
2767.695	178.88
2771.175	165.88
2774.652	179.88
2778.127	175.88
2781.598	169.88
2785.067	172.88
2788.532	170.88
2791.995	171.88
2795.455	177.88
2798.911	170.88
2802.365	176.88
2805.816	179.88
2809.264	179.88
2812.709	178.88
2816.151	179.88
2819.59	185.88
2823.026	178.88
2826.46	184.88
2829.89	187.88
2833.318	175.88
2836.742	181.88
2840.164	184.88
2843.583	179.88
2846.999	184.88
2850.412	191.88
2853.822	203.88
2857.229	200.88
2860.634	198.88
2864.035	202.88
2867.434	207.88
2870.83	207.88
2874.223	215.88
2877.613	206.88
2881	204.88
2884.385	209.88
2887.766	208.88
2891.145	214.88
2894.521	211.88
2897.894	216.88
2901.264	211.88
2904.631	213.88
2907.996	216.88
2911.358	219.88
2914.717	225.88
2918.073	223.88
2921.426	234.88
2924.777	238.88
2928.124	224.88
2931.469	236.88
2934.811	243.88
2938.15	261.88
2941.487	255.88
2944.821	260.88
2948.152	263.88
2951.48	267.88
2954.805	271.88
2958.128	269.88
2961.447	282.88
2964.765	280.88
2968.079	284.88
2971.39	293.88
2974.699	307.88
2978.005	313.88
2981.308	311.88
2984.609	335.88
2987.907	349.88
2991.202	355.88
2994.494	362.88
2997.784	366.88
3001.07	377.88
3004.355	383.88
3007.636	392.88
3010.915	408.88
3014.191	410.88
3017.464	415.88
3020.734	428.88
3024.002	421.88
3027.267	435.88
3030.53	440.88
3033.789	456.88
3037.046	468.88
3040.301	480.88
3043.552	494.88
3046.801	509.88
3050.048	507.88
3053.291	531.88
3056.532	546.88
3059.771	565.88
3063.006	580.88
3066.239	599.88
3069.469	622.88
3072.697	635.88
3075.922	646.88
3079.144	666.88
3082.364	691.88
3085.581	692.88
3088.795	710.88
3092.007	733.88
3095.216	743.88
3098.423	763.88
3101.627	791.88
3104.828	796.88
3108.026	815.88
3111.222	838.88
3114.416	849.88
3117.607	883.88
3120.795	886.88
3123.98	900.88
3127.163	923.88
3130.344	946.88
3133.521	984.88
3136.696	996.88
3139.869	1017.88
3143.039	1043.88
3146.206	1051.88
3149.371	1060.88
3152.533	1074.88
3155.693	1084.88
3158.85	1092.88
3162.005	1092.88
3165.157	1092.88
3168.306	1112.88
3171.453	1110.88
3174.597	1108.88
3177.739	1122.88
3180.878	1122.88
3184.014	1113.88
3187.149	1128.88
3190.28	1133.88
3193.409	1133.88
3196.536	1142.88
3199.659	1148.88
3202.781	1147.88
3205.9	1138.88
3209.016	1142.88
3212.13	1133.88
3215.241	1139.88
3218.35	1131.88
3221.456	1107.88
3224.56	1116.88
3227.661	1101.88
3230.76	1102.88
3233.856	1075.88
3236.95	1073.88
3240.041	1058.88
3243.13	1054.88
3246.216	1057.88
3249.3	1040.88
3252.382	1043.88
3255.46	1020.88
3258.537	1024.88
3261.611	1013.88
3264.682	1018.88
3267.751	1006.88
3270.818	997.88
3273.882	1011.88
3276.943	986.88
3280.002	995.88
3283.059	976.88
3286.113	961.88
3289.165	953.88
3292.214	940.88
3295.261	916.88
3298.306	911.88
3301.348	898.88
3304.387	887.88
3307.425	882.88
3310.459	845.88
3313.492	848.88
3316.521	852.88
3319.549	833.88
3322.574	825.88
3325.597	823.88
3328.617	805.88
3331.635	806.88
3334.65	802.88
3337.663	792.88
3340.674	795.88
3343.682	787.88
3346.688	790.88
3349.691	776.88
3352.692	784.88
3355.691	764.88
3358.687	770.88
3361.681	766.88
3364.673	758.88
3367.662	732.88
3370.649	727.88
3373.633	724.88
3376.615	713.88
3379.595	698.88
3382.572	697.88
3385.547	690.88
3388.52	684.88
3391.49	648.88
3394.458	663.88
3397.424	642.88
3400.387	649.88
3403.348	616.88
3406.307	626.88
3409.263	612.88
3412.217	612.88
3415.168	604.88
3418.118	590.88
3421.065	585.88
3424.009	577.88
3426.951	573.88
3429.891	564.88
3432.829	550.88
3435.764	543.88
3438.697	529.88
3441.628	519.88
3444.557	501.88
3447.483	497.88
3450.407	484.88
3453.328	463.88
3456.247	444.88
3459.164	437.88
3462.079	424.88
3464.991	418.88
3467.902	402.88
3470.809	381.88
3473.715	371.88
3476.618	365.88
3479.519	353.88
3482.418	338.88
3485.315	332.88
3488.209	326.88
3491.101	314.88
3493.99	303.88
3496.878	295.88
3499.763	286.88
3502.646	278.88
3505.527	271.88
3508.405	254.88
3511.281	246.88
3514.155	232.88
3517.027	226.88
3519.897	206.88
3522.764	200.88
3525.629	187.88
3528.492	181.88
3531.352	169.88
3534.211	160.88
3537.067	146.88
3539.921	135.88
3542.773	123.88
3545.622	123.88
3548.469	121.88
3551.315	103.88
3554.157	96.88
3556.998	95.88
3559.837	86.88
3562.673	87.88
3565.507	82.88
3568.339	69.88
3571.169	66.88
3573.996	60.88
3576.822	55.88
3579.645	45.88
3582.466	50.88
3585.285	34.88
3588.101	40.88
3590.916	29.88
3593.728	24.88
3596.538	19.88
3599.346	17.88
3602.152	19.88
3604.956	9.88
3607.757	7.88
3610.556	-0.12
3613.354	-4.12
3616.149	-6.12
3618.942	-7.12
3621.732	-11.12
3624.521	-15.12
3627.307	-16.12
3630.092	-21.12
3632.874	-24.12
3635.654	-23.12
3638.432	-28.12
3641.208	-32.12
3643.982	-32.12
3646.753	-33.12
3649.523	-40.12
3652.29	-41.12
3655.055	-43.12
3657.818	-42.12
3660.579	-42.12
3663.338	-52.12
3666.095	-50.12
3668.849	-51.12
3671.602	-53.12
3674.352	-64.12
3677.101	-59.12
3679.847	-63.12
3682.591	-67.12
3685.333	-69.12
3688.073	-71.12
3690.811	-70.12
3693.547	-66.12
3696.281	-68.12
3699.013	-70.12
3701.742	-75.12
3704.47	-74.12
3707.195	-76.12
3709.919	-81.12
3712.64	-75.12
3715.359	-79.12
3718.076	-77.12
3720.792	-78.12
3723.505	-78.12
3726.216	-83.12
3728.925	-81.12
3731.632	-84.12
3734.336	-87.12
3737.039	-87.12
3739.74	-86.12
3742.439	-87.12
3745.136	-83.12
3747.83	-83.12
3750.523	-82.12
3753.213	-86.12
3755.902	-84.12
3758.589	-85.12
3761.273	-88.12
3763.956	-88.12
3766.636	-88.12
3769.315	-91.12
3771.991	-94.12
3774.665	-91.12
3777.338	-94.12
3780.008	-94.12
3782.677	-87.12
3785.343	-91.12
3788.007	-97.12
3790.67	-92.12
3793.33	-93.12
3795.989	-90.12
3798.645	-92.12
3801.299	-91.12
3803.952	-94.12
3806.602	-93.12
3809.251	-99.12
3811.897	-92.12
3814.542	-92.12
3817.184	-94.12
3819.825	-95.12
3822.463	-99.12
3825.1	-99.12
3827.735	-101.12
3830.367	-101.12
3832.998	-98.12
3835.627	-98.12
3838.253	-95.12
3840.878	-94.12
3843.501	-93.12
3846.122	-94.12
3848.741	-98.12
3851.358	-99.12
3853.973	-98.12
3856.586	-96.12
3859.197	-99.12
3861.806	-100.12
3864.414	-101.12
3867.019	-100.12
3869.622	-100.12
3872.224	-94.12
3874.823	-98.12
3877.421	-92.12
3880.016	-94.12
3882.61	-91.12
3885.202	-89.12
3887.792	-88.12
3890.38	-95.12
3892.966	-96.12
3895.55	-97.12
3898.132	-100.12
3900.713	-99.12
3903.291	-100.12
3905.868	-101.12
3908.442	-100.12
3911.015	-102.12
3913.586	-101.12
3916.155	-103.12
3918.722	-102.12
3921.287	-106.12
3923.85	-100.12
3926.411	-102.12
3928.971	-98.12
3931.528	-99.12
3934.084	-100.12
3936.638	-101.12
3939.19	-103.12
3941.74	-101.12
3944.288	-101.12
3946.834	-106.12
3949.378	-101.12
3951.921	-106.12
3954.462	-108.12
3957	-104.12
3959.537	-101.12
3962.072	-98.12
3964.606	-97.12
3967.137	-103.12
3969.667	-102.12
3972.194	-103.12
3974.72	-102.12
3977.244	-104.12
3979.766	-104.12
3982.286	-99.12
3984.805	-101.12
3987.321	-97.12
3989.836	-101.12
3992.349	-102.12
3994.86	-104.12
3997.369	-102.12
3999.877	-102.12
4002.382	-99.12
4004.886	-101.12
4007.388	-102.12
4009.888	-98.12
4012.386	-98.12
4014.883	-97.12
4017.377	-96.12
4019.87	-99.12
4022.361	-98.12
4024.85	-100.12
4027.338	-101.12
4029.823	-101.12
4032.307	-105.12
4034.789	-104.12
4037.269	-103.12
4039.747	-105.12
4042.224	-105.12
4044.699	-101.12
4047.172	-102.12
4049.643	-97.12
4052.112	-98.12
4054.58	-100.12
4057.046	-98.12
4059.51	-102.12
4061.972	-104.12
4064.432	-103.12
4066.891	-101.12
4069.348	-104.12
4071.803	-101.12
4074.256	-102.12
4076.708	-101.12
4079.158	-103.12
4081.606	-101.12
4084.052	-102.12
4086.497	-101.12
4088.939	-105.12
4091.38	-101.12
4093.819	-101.12
4096.257	-101.12
4098.693	-101.12
4101.127	-105.12
4103.559	-106.12
4105.989	-71.12
4108.418	-71.12
4110.845	-64.12
4113.27	-60.12
4115.694	-48.12
4118.115	-41.12
4120.535	-100.12
4122.954	-100.12
4125.37	-101.12
4127.785	-104.12
4130.198	-101.12
4132.609	-100.12
4135.019	-105.12
4137.427	-102.12
4139.833	-109.12
4142.237	-107.12
