Data from 1000CFU1_A_RamanShift_1.txt Node
Date: Tue Jan 24 17:22:51 IST 2017
User: aro
Spectrometer: QEPB0276
Trigger mode: 0
Integration Time (sec): 5.000000E0
Scans to average: 1
Electric dark correction enabled: true
Nonlinearity correction enabled: false
Boxcar width: 0
XAxis mode: Raman Shifts
Number of Pixels in Spectrum: 1044
>>>>>Begin Spectral Data<<<<<
160.701	-31.25
166.742	1.75
172.777	100.75
178.805	396.75
184.826	1112.75
190.841	2285.75
196.849	3581.75
202.85	4435.75
208.845	4612.75
214.833	4478.75
220.815	4316.75
226.789	4198.75
232.758	4083.75
238.719	3972.75
244.674	3833.75
250.623	3651.75
256.565	3497.75
262.5	3339.75
268.429	3193.75
274.351	3083.75
280.267	2961.75
286.176	2861.75
292.079	2779.75
297.975	2699.75
303.865	2597.75
309.748	2525.75
315.625	2463.75
321.495	2425.75
327.359	2395.75
333.217	2363.75
339.068	2336.75
344.912	2340.75
350.751	2336.75
356.583	2323.75
362.408	2317.75
368.227	2324.75
374.04	2333.75
379.847	2346.75
385.647	2352.75
391.44	2359.75
397.228	2392.75
403.009	2399.75
408.784	2400.75
414.553	2395.75
420.315	2397.75
426.071	2418.75
431.821	2382.75
437.565	2406.75
443.302	2388.75
449.033	2399.75
454.758	2388.75
460.477	2389.75
466.189	2377.75
471.896	2344.75
477.596	2334.75
483.29	2337.75
488.978	2340.75
494.66	2306.75
500.335	2285.75
506.005	2244.75
511.668	2225.75
517.325	2171.75
522.977	2137.75
528.622	2112.75
534.261	2097.75
539.894	2082.75
545.521	2053.75
551.141	2038.75
556.756	2052.75
562.365	2019.75
567.968	2012.75
573.565	2008.75
579.155	1981.75
584.74	1979.75
590.319	1945.75
595.892	1953.75
601.459	1932.75
607.02	1929.75
612.575	1903.75
618.124	1909.75
623.667	1871.75
629.204	1856.75
634.735	1840.75
640.261	1840.75
645.781	1812.75
651.294	1811.75
656.802	1808.75
662.304	1795.75
667.8	1776.75
673.29	1791.75
678.775	1794.75
684.254	1775.75
689.726	1777.75
695.193	1759.75
700.655	1739.75
706.11	1738.75
711.56	1721.75
717.004	1705.75
722.442	1713.75
727.874	1704.75
733.301	1685.75
738.722	1678.75
744.137	1670.75
749.547	1675.75
754.951	1685.75
760.349	1660.75
765.741	1663.75
771.128	1665.75
776.509	1642.75
781.885	1667.75
787.254	1641.75
792.618	1646.75
797.977	1633.75
803.33	1637.75
808.677	1623.75
814.019	1602.75
819.355	1608.75
824.686	1587.75
830.011	1565.75
835.33	1554.75
840.644	1546.75
845.952	1544.75
851.255	1545.75
856.552	1530.75
861.844	1525.75
867.13	1524.75
872.41	1528.75
877.686	1497.75
882.955	1485.75
888.219	1453.75
893.478	1439.75
898.731	1401.75
903.979	1387.75
909.221	1403.75
914.458	1386.75
919.69	1374.75
924.916	1398.75
930.136	1369.75
935.351	1357.75
940.561	1366.75
945.766	1372.75
950.965	1359.75
956.158	1355.75
961.347	1335.75
966.529	1305.75
971.707	1292.75
976.879	1277.75
982.046	1264.75
987.208	1252.75
992.364	1271.75
997.515	1268.75
1002.66	1283.75
1007.801	1293.75
1012.936	1300.75
1018.066	1332.75
1023.19	1333.75
1028.309	1321.75
1033.423	1320.75
1038.532	1304.75
1043.636	1286.75
1048.734	1285.75
1053.827	1268.75
1058.915	1254.75
1063.998	1239.75
1069.075	1268.75
1074.147	1254.75
1079.214	1264.75
1084.276	1262.75
1089.333	1275.75
1094.385	1288.75
1099.431	1303.75
1104.472	1290.75
1109.509	1289.75
1114.54	1280.75
1119.565	1266.75
1124.586	1236.75
1129.602	1235.75
1134.613	1207.75
1139.618	1222.75
1144.619	1233.75
1149.614	1225.75
1154.604	1236.75
1159.589	1253.75
1164.57	1259.75
1169.545	1262.75
1174.515	1252.75
1179.48	1241.75
1184.44	1232.75
1189.395	1233.75
1194.345	1210.75
1199.29	1216.75
1204.23	1214.75
1209.165	1229.75
1214.095	1237.75
1219.021	1235.75
1223.941	1273.75
1228.856	1264.75
1233.766	1264.75
1238.672	1271.75
1243.572	1269.75
1248.467	1263.75
1253.358	1254.75
1258.244	1254.75
1263.124	1210.75
1268	1205.75
1272.871	1186.75
1277.737	1173.75
1282.599	1177.75
1287.455	1186.75
1292.306	1169.75
1297.153	1192.75
1301.995	1198.75
1306.832	1199.75
1311.664	1207.75
1316.491	1212.75
1321.314	1193.75
1326.132	1205.75
1330.945	1209.75
1335.753	1185.75
1340.556	1183.75
1345.354	1162.75
1350.148	1141.75
1354.937	1148.75
1359.722	1140.75
1364.501	1114.75
1369.276	1093.75
1374.046	1099.75
1378.811	1108.75
1383.572	1098.75
1388.327	1095.75
1393.079	1088.75
1397.825	1075.75
1402.567	1075.75
1407.304	1065.75
1412.036	1050.75
1416.764	1068.75
1421.487	1074.75
1426.205	1068.75
1430.919	1083.75
1435.628	1092.75
1440.333	1082.75
1445.032	1102.75
1449.727	1117.75
1454.418	1126.75
1459.104	1115.75
1463.785	1106.75
1468.462	1102.75
1473.134	1095.75
1477.802	1083.75
1482.465	1089.75
1487.123	1080.75
1491.777	1088.75
1496.426	1077.75
1501.071	1091.75
1505.711	1104.75
1510.347	1101.75
1514.978	1129.75
1519.604	1133.75
1524.226	1135.75
1528.844	1134.75
1533.457	1145.75
1538.065	1144.75
1542.669	1119.75
1547.269	1117.75
1551.864	1125.75
1556.454	1139.75
1561.041	1131.75
1565.622	1149.75
1570.199	1169.75
1574.772	1187.75
1579.34	1193.75
1583.904	1241.75
1588.464	1248.75
1593.019	1267.75
1597.569	1275.75
1602.115	1283.75
1606.657	1296.75
1611.195	1299.75
1615.728	1318.75
1620.256	1323.75
1624.78	1333.75
1629.3	1356.75
1633.816	1389.75
1638.327	1399.75
1642.834	1403.75
1647.336	1427.75
1651.834	1431.75
1656.328	1422.75
1660.817	1425.75
1665.302	1393.75
1669.783	1379.75
1674.259	1347.75
1678.732	1316.75
1683.199	1267.75
1687.663	1232.75
1692.122	1190.75
1696.577	1140.75
1701.028	1094.75
1705.474	1041.75
1709.917	1023.75
1714.355	1018.75
1718.788	968.75
1723.218	976.75
1727.643	951.75
1732.064	934.75
1736.481	906.75
1740.893	891.75
1745.301	880.75
1749.705	849.75
1754.105	829.75
1758.501	816.75
1762.893	804.75
1767.28	785.75
1771.663	782.75
1776.042	793.75
1780.417	770.75
1784.787	766.75
1789.154	782.75
1793.516	777.75
1797.874	761.75
1802.228	761.75
1806.578	757.75
1810.924	744.75
1815.266	738.75
1819.603	733.75
1823.937	722.75
1828.266	711.75
1832.591	713.75
1836.913	709.75
1841.23	709.75
1845.543	695.75
1849.852	711.75
1854.156	696.75
1858.457	709.75
1862.754	704.75
1867.047	722.75
1871.335	700.75
1875.62	713.75
1879.9	710.75
1884.177	721.75
1888.449	716.75
1892.718	713.75
1896.982	706.75
1901.243	712.75
1905.499	700.75
1909.752	706.75
1914	700.75
1918.245	700.75
1922.485	711.75
1926.722	693.75
1930.954	715.75
1935.183	706.75
1939.408	706.75
1943.628	705.75
1947.845	707.75
1952.058	713.75
1956.267	706.75
1960.472	701.75
1964.673	679.75
1968.87	687.75
1973.063	683.75
1977.252	682.75
1981.438	679.75
1985.619	671.75
1989.797	680.75
1993.971	674.75
1998.14	672.75
2002.306	665.75
2006.469	683.75
2010.627	680.75
2014.781	675.75
2018.932	679.75
2023.078	672.75
2027.221	679.75
2031.36	677.75
2035.495	661.75
2039.627	661.75
2043.754	667.75
2047.878	656.75
2051.998	655.75
2056.114	659.75
2060.226	657.75
2064.334	659.75
2068.439	666.75
2072.54	678.75
2076.637	676.75
2080.73	679.75
2084.82	673.75
2088.906	680.75
2092.988	667.75
2097.066	670.75
2101.14	675.75
2105.211	669.75
2109.278	659.75
2113.342	661.75
2117.401	653.75
2121.457	652.75
2125.509	649.75
2129.558	648.75
2133.602	636.75
2137.643	637.75
2141.681	640.75
2145.714	619.75
2149.744	635.75
2153.77	627.75
2157.793	624.75
2161.812	615.75
2165.827	617.75
2169.838	606.75
2173.846	597.75
2177.851	587.75
2181.851	580.75
2185.848	567.75
2189.841	571.75
2193.831	559.75
2197.817	544.75
2201.799	553.75
2205.778	550.75
2209.753	556.75
2213.725	555.75
2217.693	562.75
2221.657	549.75
2225.618	550.75
2229.575	554.75
2233.529	538.75
2237.479	535.75
2241.425	527.75
2245.368	523.75
2249.307	518.75
2253.243	510.75
2257.175	499.75
2261.104	492.75
2265.029	491.75
2268.95	484.75
2272.868	477.75
2276.783	471.75
2280.694	465.75
2284.601	458.75
2288.505	452.75
2292.405	451.75
2296.302	444.75
2300.195	428.75
2304.085	438.75
2307.971	427.75
2311.854	423.75
2315.734	405.75
2319.609	409.75
2323.482	393.75
2327.351	404.75
2331.216	396.75
2335.078	395.75
2338.937	378.75
2342.792	383.75
2346.643	375.75
2350.492	379.75
2354.336	380.75
2358.178	375.75
2362.015	378.75
2365.85	382.75
2369.681	371.75
2373.508	380.75
2377.333	380.75
2381.153	382.75
2384.971	379.75
2388.785	377.75
2392.595	375.75
2396.402	382.75
2400.206	373.75
2404.007	371.75
2407.804	369.75
2411.597	365.75
2415.388	370.75
2419.174	361.75
2422.958	356.75
2426.738	361.75
2430.515	366.75
2434.289	357.75
2438.059	354.75
2441.825	353.75
2445.589	352.75
2449.349	347.75
2453.106	349.75
2456.859	342.75
2460.61	336.75
2464.356	337.75
2468.1	336.75
2471.84	327.75
2475.577	328.75
2479.311	326.75
2483.041	333.75
2486.768	333.75
2490.492	328.75
2494.213	337.75
2497.93	324.75
2501.644	332.75
2505.355	319.75
2509.062	335.75
2512.766	329.75
2516.467	320.75
2520.165	314.75
2523.859	329.75
2527.551	318.75
2531.239	311.75
2534.923	320.75
2538.605	311.75
2542.283	310.75
2545.958	299.75
2549.63	299.75
2553.299	301.75
2556.964	296.75
2560.626	293.75
2564.285	290.75
2567.941	289.75
2571.594	292.75
2575.243	294.75
2578.89	281.75
2582.533	283.75
2586.173	278.75
2589.809	280.75
2593.443	280.75
2597.073	272.75
2600.701	266.75
2604.325	272.75
2607.946	278.75
2611.564	278.75
2615.178	272.75
2618.79	266.75
2622.398	272.75
2626.004	254.75
2629.606	258.75
2633.205	261.75
2636.801	257.75
2640.394	254.75
2643.983	258.75
2647.57	247.75
2651.153	245.75
2654.734	243.75
2658.311	232.75
2661.885	243.75
2665.456	244.75
2669.025	236.75
2672.589	233.75
2676.151	232.75
2679.71	231.75
2683.266	227.75
2686.819	221.75
2690.368	224.75
2693.915	213.75
2697.458	225.75
2700.999	222.75
2704.536	220.75
2708.071	211.75
2711.602	216.75
2715.13	211.75
2718.656	209.75
2722.178	204.75
2725.697	206.75
2729.214	215.75
2732.727	218.75
2736.237	212.75
2739.744	212.75
2743.249	211.75
2746.75	210.75
2750.248	211.75
2753.743	205.75
2757.236	207.75
2760.725	206.75
2764.211	197.75
2767.695	202.75
2771.175	196.75
2774.652	206.75
2778.127	197.75
2781.598	199.75
2785.067	197.75
2788.532	206.75
2791.995	200.75
2795.455	198.75
2798.911	204.75
2802.365	207.75
2805.816	207.75
2809.264	209.75
2812.709	202.75
2816.151	212.75
2819.59	206.75
2823.026	208.75
2826.46	209.75
2829.89	211.75
2833.318	209.75
2836.742	205.75
2840.164	213.75
2843.583	212.75
2846.999	201.75
2850.412	216.75
2853.822	220.75
2857.229	231.75
2860.634	219.75
2864.035	219.75
2867.434	239.75
2870.83	229.75
2874.223	243.75
2877.613	237.75
2881	235.75
2884.385	241.75
2887.766	234.75
2891.145	240.75
2894.521	238.75
2897.894	244.75
2901.264	246.75
2904.631	244.75
2907.996	235.75
2911.358	248.75
2914.717	258.75
2918.073	251.75
2921.426	261.75
2924.777	257.75
2928.124	265.75
2931.469	274.75
2934.811	282.75
2938.15	284.75
2941.487	291.75
2944.821	288.75
2948.152	293.75
2951.48	298.75
2954.805	307.75
2958.128	298.75
2961.447	317.75
2964.765	316.75
2968.079	328.75
2971.39	335.75
2974.699	340.75
2978.005	349.75
2981.308	352.75
2984.609	367.75
2987.907	374.75
2991.202	383.75
2994.494	409.75
2997.784	404.75
3001.07	421.75
3004.355	432.75
3007.636	438.75
3010.915	452.75
3014.191	462.75
3017.464	454.75
3020.734	469.75
3024.002	475.75
3027.267	484.75
3030.53	494.75
3033.789	515.75
3037.046	518.75
3040.301	534.75
3043.552	541.75
3046.801	553.75
3050.048	563.75
3053.291	592.75
3056.532	602.75
3059.771	612.75
3063.006	639.75
3066.239	665.75
3069.469	666.75
3072.697	703.75
3075.922	712.75
3079.144	743.75
3082.364	751.75
3085.581	775.75
3088.795	788.75
3092.007	798.75
3095.216	832.75
3098.423	848.75
3101.627	855.75
3104.828	883.75
3108.026	902.75
3111.222	920.75
3114.416	940.75
3117.607	954.75
3120.795	988.75
3123.98	1003.75
3127.163	1030.75
3130.344	1056.75
3133.521	1076.75
3136.696	1088.75
3139.869	1116.75
3143.039	1143.75
3146.206	1152.75
3149.371	1167.75
3152.533	1191.75
3155.693	1185.75
3158.85	1194.75
3162.005	1196.75
3165.157	1211.75
3168.306	1222.75
3171.453	1217.75
3174.597	1230.75
3177.739	1227.75
3180.878	1233.75
3184.014	1215.75
3187.149	1241.75
3190.28	1232.75
3193.409	1241.75
3196.536	1236.75
3199.659	1251.75
3202.781	1239.75
3205.9	1250.75
3209.016	1246.75
3212.13	1249.75
3215.241	1233.75
3218.35	1250.75
3221.456	1225.75
3224.56	1215.75
3227.661	1202.75
3230.76	1207.75
3233.856	1176.75
3236.95	1171.75
3240.041	1154.75
3243.13	1151.75
3246.216	1137.75
3249.3	1149.75
3252.382	1133.75
3255.46	1118.75
3258.537	1111.75
3261.611	1113.75
3264.682	1110.75
3267.751	1104.75
3270.818	1113.75
3273.882	1102.75
3276.943	1094.75
3280.002	1077.75
3283.059	1061.75
3286.113	1051.75
3289.165	1036.75
3292.214	1025.75
3295.261	1002.75
3298.306	994.75
3301.348	970.75
3304.387	973.75
3307.425	952.75
3310.459	926.75
3313.492	924.75
3316.521	924.75
3319.549	905.75
3322.574	891.75
3325.597	887.75
3328.617	884.75
3331.635	882.75
3334.65	866.75
3337.663	866.75
3340.674	862.75
3343.682	862.75
3346.688	864.75
3349.691	851.75
3352.692	854.75
3355.691	849.75
3358.687	836.75
3361.681	831.75
3364.673	811.75
3367.662	795.75
3370.649	796.75
3373.633	785.75
3376.615	770.75
3379.595	765.75
3382.572	756.75
3385.547	736.75
3388.52	730.75
3391.49	723.75
3394.458	710.75
3397.424	707.75
3400.387	681.75
3403.348	680.75
3406.307	690.75
3409.263	680.75
3412.217	664.75
3415.168	657.75
3418.118	648.75
3421.065	644.75
3424.009	632.75
3426.951	634.75
3429.891	618.75
3432.829	616.75
3435.764	593.75
3438.697	582.75
3441.628	573.75
3444.557	547.75
3447.483	536.75
3450.407	525.75
3453.328	506.75
3456.247	492.75
3459.164	483.75
3462.079	465.75
3464.991	455.75
3467.902	429.75
3470.809	416.75
3473.715	402.75
3476.618	393.75
3479.519	373.75
3482.418	375.75
3485.315	364.75
3488.209	352.75
3491.101	345.75
3493.99	346.75
3496.878	325.75
3499.763	300.75
3502.646	295.75
3505.527	290.75
3508.405	279.75
3511.281	261.75
3514.155	246.75
3517.027	239.75
3519.897	220.75
3522.764	215.75
3525.629	209.75
3528.492	197.75
3531.352	181.75
3534.211	175.75
3537.067	162.75
3539.921	152.75
3542.773	139.75
3545.622	137.75
3548.469	130.75
3551.315	113.75
3554.157	109.75
3556.998	100.75
3559.837	95.75
3562.673	90.75
3565.507	81.75
3568.339	74.75
3571.169	63.75
3573.996	59.75
3576.822	54.75
3579.645	47.75
3582.466	44.75
3585.285	39.75
3588.101	39.75
3590.916	31.75
3593.728	33.75
3596.538	27.75
3599.346	13.75
3602.152	16.75
3604.956	4.75
3607.757	0.75
3610.556	-8.25
3613.354	-10.25
3616.149	-11.25
3618.942	-18.25
3621.732	-18.25
3624.521	-21.25
3627.307	-18.25
3630.092	-22.25
3632.874	-27.25
3635.654	-25.25
3638.432	-30.25
3641.208	-38.25
3643.982	-36.25
3646.753	-38.25
3649.523	-49.25
3652.29	-48.25
3655.055	-46.25
3657.818	-56.25
3660.579	-50.25
3663.338	-60.25
3666.095	-60.25
3668.849	-62.25
3671.602	-62.25
3674.352	-71.25
3677.101	-70.25
3679.847	-73.25
3682.591	-70.25
3685.333	-73.25
3688.073	-74.25
3690.811	-74.25
3693.547	-67.25
3696.281	-80.25
3699.013	-82.25
3701.742	-82.25
3704.47	-85.25
3707.195	-85.25
3709.919	-85.25
3712.64	-87.25
3715.359	-89.25
3718.076	-90.25
3720.792	-87.25
3723.505	-85.25
3726.216	-90.25
3728.925	-89.25
3731.632	-91.25
3734.336	-93.25
3737.039	-92.25
3739.74	-96.25
3742.439	-94.25
3745.136	-97.25
3747.83	-95.25
3750.523	-96.25
3753.213	-99.25
3755.902	-96.25
3758.589	-101.25
3761.273	-101.25
3763.956	-97.25
3766.636	-99.25
3769.315	-104.25
3771.991	-102.25
3774.665	-101.25
3777.338	-100.25
3780.008	-99.25
3782.677	-99.25
3785.343	-98.25
3788.007	-103.25
3790.67	-106.25
3793.33	-105.25
3795.989	-103.25
3798.645	-107.25
3801.299	-104.25
3803.952	-108.25
3806.602	-106.25
3809.251	-107.25
3811.897	-106.25
3814.542	-101.25
3817.184	-104.25
3819.825	-105.25
3822.463	-108.25
3825.1	-110.25
3827.735	-106.25
3830.367	-109.25
3832.998	-112.25
3835.627	-107.25
3838.253	-110.25
3840.878	-109.25
3843.501	-106.25
3846.122	-107.25
3848.741	-112.25
3851.358	-111.25
3853.973	-112.25
3856.586	-108.25
3859.197	-112.25
3861.806	-110.25
3864.414	-108.25
3867.019	-109.25
3869.622	-105.25
3872.224	-107.25
3874.823	-102.25
3877.421	-100.25
3880.016	-103.25
3882.61	-101.25
3885.202	-98.25
3887.792	-100.25
3890.38	-107.25
3892.966	-109.25
3895.55	-111.25
3898.132	-110.25
3900.713	-110.25
3903.291	-107.25
3905.868	-111.25
3908.442	-109.25
3911.015	-113.25
3913.586	-112.25
3916.155	-114.25
3918.722	-114.25
3921.287	-114.25
3923.85	-113.25
3926.411	-116.25
3928.971	-115.25
3931.528	-115.25
3934.084	-115.25
3936.638	-118.25
3939.19	-114.25
3941.74	-116.25
3944.288	-114.25
3946.834	-116.25
3949.378	-114.25
3951.921	-115.25
3954.462	-114.25
3957	-112.25
3959.537	-111.25
3962.072	-111.25
3964.606	-113.25
3967.137	-115.25
3969.667	-116.25
3972.194	-116.25
3974.72	-114.25
3977.244	-114.25
3979.766	-117.25
3982.286	-113.25
3984.805	-111.25
3987.321	-109.25
3989.836	-111.25
3992.349	-109.25
3994.86	-112.25
3997.369	-110.25
3999.877	-114.25
4002.382	-110.25
4004.886	-111.25
4007.388	-111.25
4009.888	-115.25
4012.386	-114.25
4014.883	-113.25
4017.377	-112.25
4019.87	-111.25
4022.361	-111.25
4024.85	-111.25
4027.338	-113.25
4029.823	-114.25
4032.307	-114.25
4034.789	-113.25
4037.269	-111.25
4039.747	-114.25
4042.224	-116.25
4044.699	-113.25
4047.172	-112.25
4049.643	-114.25
4052.112	-111.25
4054.58	-112.25
4057.046	-111.25
4059.51	-112.25
4061.972	-115.25
4064.432	-113.25
4066.891	-114.25
4069.348	-111.25
4071.803	-112.25
4074.256	-112.25
4076.708	-113.25
4079.158	-112.25
4081.606	-109.25
4084.052	-112.25
4086.497	-113.25
4088.939	-118.25
4091.38	-115.25
4093.819	-120.25
4096.257	-114.25
4098.693	-116.25
4101.127	-119.25
4103.559	-121.25
4105.989	-77.25
4108.418	-77.25
4110.845	-65.25
4113.27	-62.25
4115.694	-50.25
4118.115	-47.25
4120.535	-116.25
4122.954	-114.25
4125.37	-113.25
4127.785	-115.25
4130.198	-111.25
4132.609	-112.25
4135.019	-116.25
4137.427	-115.25
4139.833	-117.25
4142.237	-119.25
