Data from 10000CFU2_B_RamanShift_1.txt Node
Date: Tue Jan 24 18:05:21 IST 2017
User: aro
Spectrometer: QEPB0276
Trigger mode: 0
Integration Time (sec): 5.000000E0
Scans to average: 1
Electric dark correction enabled: true
Nonlinearity correction enabled: false
Boxcar width: 0
XAxis mode: Raman Shifts
Number of Pixels in Spectrum: 1044
>>>>>Begin Spectral Data<<<<<
160.701	-29.5
166.742	-4.5
172.777	98.5
178.805	401.5
184.826	1099.5
190.841	2270.5
196.849	3578.5
202.85	4427.5
208.845	4627.5
214.833	4478.5
220.815	4302.5
226.789	4181.5
232.758	4068.5
238.719	3927.5
244.674	3804.5
250.623	3648.5
256.565	3456.5
262.5	3289.5
268.429	3175.5
274.351	3040.5
280.267	2934.5
286.176	2832.5
292.079	2733.5
297.975	2626.5
303.865	2573.5
309.748	2490.5
315.625	2427.5
321.495	2387.5
327.359	2353.5
333.217	2316.5
339.068	2283.5
344.912	2286.5
350.751	2264.5
356.583	2260.5
362.408	2271.5
368.227	2271.5
374.04	2289.5
379.847	2278.5
385.647	2318.5
391.44	2297.5
397.228	2320.5
403.009	2334.5
408.784	2345.5
414.553	2333.5
420.315	2369.5
426.071	2344.5
431.821	2359.5
437.565	2365.5
443.302	2351.5
449.033	2344.5
454.758	2334.5
460.477	2341.5
466.189	2313.5
471.896	2304.5
477.596	2311.5
483.29	2301.5
488.978	2251.5
494.66	2249.5
500.335	2247.5
506.005	2204.5
511.668	2132.5
517.325	2123.5
522.977	2083.5
528.622	2054.5
534.261	2026.5
539.894	2026.5
545.521	2006.5
551.141	1988.5
556.756	1980.5
562.365	1970.5
567.968	1953.5
573.565	1960.5
579.155	1919.5
584.74	1915.5
590.319	1899.5
595.892	1906.5
601.459	1890.5
607.02	1868.5
612.575	1836.5
618.124	1833.5
623.667	1820.5
629.204	1813.5
634.735	1785.5
640.261	1792.5
645.781	1764.5
651.294	1755.5
656.802	1746.5
662.304	1736.5
667.8	1726.5
673.29	1751.5
678.775	1743.5
684.254	1718.5
689.726	1724.5
695.193	1684.5
700.655	1689.5
706.11	1679.5
711.56	1658.5
717.004	1629.5
722.442	1654.5
727.874	1631.5
733.301	1634.5
738.722	1624.5
744.137	1627.5
749.547	1609.5
754.951	1610.5
760.349	1621.5
765.741	1591.5
771.128	1595.5
776.509	1592.5
781.885	1600.5
787.254	1597.5
792.618	1587.5
797.977	1576.5
803.33	1561.5
808.677	1569.5
814.019	1552.5
819.355	1516.5
824.686	1529.5
830.011	1505.5
835.33	1479.5
840.644	1487.5
845.952	1475.5
851.255	1479.5
856.552	1475.5
861.844	1466.5
867.13	1451.5
872.41	1453.5
877.686	1437.5
882.955	1406.5
888.219	1396.5
893.478	1363.5
898.731	1357.5
903.979	1344.5
909.221	1322.5
914.458	1314.5
919.69	1316.5
924.916	1313.5
930.136	1307.5
935.351	1303.5
940.561	1297.5
945.766	1301.5
950.965	1283.5
956.158	1270.5
961.347	1259.5
966.529	1229.5
971.707	1226.5
976.879	1204.5
982.046	1196.5
987.208	1187.5
992.364	1188.5
997.515	1197.5
1002.66	1211.5
1007.801	1223.5
1012.936	1215.5
1018.066	1245.5
1023.19	1249.5
1028.309	1239.5
1033.423	1248.5
1038.532	1241.5
1043.636	1220.5
1048.734	1219.5
1053.827	1192.5
1058.915	1189.5
1063.998	1179.5
1069.075	1180.5
1074.147	1169.5
1079.214	1202.5
1084.276	1198.5
1089.333	1216.5
1094.385	1238.5
1099.431	1238.5
1104.472	1229.5
1109.509	1221.5
1114.54	1204.5
1119.565	1195.5
1124.586	1185.5
1129.602	1164.5
1134.613	1158.5
1139.618	1147.5
1144.619	1151.5
1149.614	1154.5
1154.604	1177.5
1159.589	1174.5
1164.57	1172.5
1169.545	1188.5
1174.515	1174.5
1179.48	1176.5
1184.44	1169.5
1189.395	1169.5
1194.345	1152.5
1199.29	1140.5
1204.23	1150.5
1209.165	1160.5
1214.095	1168.5
1219.021	1169.5
1223.941	1185.5
1228.856	1194.5
1233.766	1194.5
1238.672	1184.5
1243.572	1198.5
1248.467	1181.5
1253.358	1165.5
1258.244	1157.5
1263.124	1145.5
1268	1105.5
1272.871	1113.5
1277.737	1116.5
1282.599	1094.5
1287.455	1095.5
1292.306	1122.5
1297.153	1126.5
1301.995	1136.5
1306.832	1128.5
1311.664	1131.5
1316.491	1149.5
1321.314	1137.5
1326.132	1122.5
1330.945	1109.5
1335.753	1104.5
1340.556	1087.5
1345.354	1081.5
1350.148	1081.5
1354.937	1067.5
1359.722	1062.5
1364.501	1044.5
1369.276	1034.5
1374.046	1032.5
1378.811	1026.5
1383.572	1014.5
1388.327	1009.5
1393.079	1024.5
1397.825	1010.5
1402.567	1000.5
1407.304	1003.5
1412.036	990.5
1416.764	996.5
1421.487	996.5
1426.205	1005.5
1430.919	996.5
1435.628	1015.5
1440.333	1029.5
1445.032	1049.5
1449.727	1043.5
1454.418	1051.5
1459.104	1064.5
1463.785	1050.5
1468.462	1027.5
1473.134	1017.5
1477.802	1031.5
1482.465	1013.5
1487.123	1021.5
1491.777	1009.5
1496.426	1017.5
1501.071	1016.5
1505.711	1035.5
1510.347	1039.5
1514.978	1042.5
1519.604	1054.5
1524.226	1068.5
1528.844	1061.5
1533.457	1057.5
1538.065	1067.5
1542.669	1052.5
1547.269	1062.5
1551.864	1039.5
1556.454	1057.5
1561.041	1060.5
1565.622	1082.5
1570.199	1098.5
1574.772	1116.5
1579.34	1129.5
1583.904	1160.5
1588.464	1175.5
1593.019	1188.5
1597.569	1199.5
1602.115	1214.5
1606.657	1225.5
1611.195	1235.5
1615.728	1259.5
1620.256	1259.5
1624.78	1290.5
1629.3	1294.5
1633.816	1323.5
1638.327	1326.5
1642.834	1340.5
1647.336	1368.5
1651.834	1376.5
1656.328	1365.5
1660.817	1355.5
1665.302	1336.5
1669.783	1294.5
1674.259	1287.5
1678.732	1234.5
1683.199	1215.5
1687.663	1158.5
1692.122	1117.5
1696.577	1093.5
1701.028	1037.5
1705.474	984.5
1709.917	951.5
1714.355	938.5
1718.788	924.5
1723.218	895.5
1727.643	890.5
1732.064	861.5
1736.481	850.5
1740.893	835.5
1745.301	811.5
1749.705	784.5
1754.105	749.5
1758.501	752.5
1762.893	737.5
1767.28	735.5
1771.663	722.5
1776.042	717.5
1780.417	715.5
1784.787	726.5
1789.154	720.5
1793.516	730.5
1797.874	714.5
1802.228	706.5
1806.578	694.5
1810.924	692.5
1815.266	672.5
1819.603	663.5
1823.937	664.5
1828.266	653.5
1832.591	646.5
1836.913	645.5
1841.23	652.5
1845.543	653.5
1849.852	642.5
1854.156	656.5
1858.457	638.5
1862.754	656.5
1867.047	650.5
1871.335	660.5
1875.62	656.5
1879.9	662.5
1884.177	657.5
1888.449	659.5
1892.718	649.5
1896.982	652.5
1901.243	651.5
1905.499	655.5
1909.752	644.5
1914	661.5
1918.245	651.5
1922.485	641.5
1926.722	648.5
1930.954	644.5
1935.183	664.5
1939.408	666.5
1943.628	650.5
1947.845	658.5
1952.058	663.5
1956.267	650.5
1960.472	629.5
1964.673	631.5
1968.87	635.5
1973.063	619.5
1977.252	626.5
1981.438	624.5
1985.619	605.5
1989.797	605.5
1993.971	617.5
1998.14	611.5
2002.306	624.5
2006.469	633.5
2010.627	628.5
2014.781	635.5
2018.932	630.5
2023.078	624.5
2027.221	630.5
2031.36	630.5
2035.495	611.5
2039.627	619.5
2043.754	605.5
2047.878	614.5
2051.998	609.5
2056.114	608.5
2060.226	612.5
2064.334	625.5
2068.439	623.5
2072.54	633.5
2076.637	621.5
2080.73	619.5
2084.82	628.5
2088.906	628.5
2092.988	624.5
2097.066	631.5
2101.14	618.5
2105.211	609.5
2109.278	609.5
2113.342	612.5
2117.401	621.5
2121.457	598.5
2125.509	602.5
2129.558	591.5
2133.602	597.5
2137.643	594.5
2141.681	595.5
2145.714	582.5
2149.744	587.5
2153.77	580.5
2157.793	578.5
2161.812	578.5
2165.827	564.5
2169.838	562.5
2173.846	555.5
2177.851	539.5
2181.851	527.5
2185.848	530.5
2189.841	526.5
2193.831	517.5
2197.817	517.5
2201.799	512.5
2205.778	510.5
2209.753	517.5
2213.725	519.5
2217.693	515.5
2221.657	511.5
2225.618	514.5
2229.575	486.5
2233.529	505.5
2237.479	493.5
2241.425	492.5
2245.368	477.5
2249.307	477.5
2253.243	470.5
2257.175	464.5
2261.104	457.5
2265.029	462.5
2268.95	451.5
2272.868	439.5
2276.783	426.5
2280.694	418.5
2284.601	425.5
2288.505	411.5
2292.405	414.5
2296.302	406.5
2300.195	397.5
2304.085	394.5
2307.971	386.5
2311.854	380.5
2315.734	374.5
2319.609	368.5
2323.482	363.5
2327.351	359.5
2331.216	358.5
2335.078	357.5
2338.937	348.5
2342.792	347.5
2346.643	347.5
2350.492	353.5
2354.336	350.5
2358.178	346.5
2362.015	347.5
2365.85	347.5
2369.681	351.5
2373.508	342.5
2377.333	341.5
2381.153	345.5
2384.971	347.5
2388.785	343.5
2392.595	345.5
2396.402	345.5
2400.206	340.5
2404.007	340.5
2407.804	336.5
2411.597	329.5
2415.388	334.5
2419.174	336.5
2422.958	324.5
2426.738	328.5
2430.515	328.5
2434.289	327.5
2438.059	328.5
2441.825	326.5
2445.589	321.5
2449.349	322.5
2453.106	317.5
2456.859	313.5
2460.61	315.5
2464.356	308.5
2468.1	312.5
2471.84	311.5
2475.577	304.5
2479.311	309.5
2483.041	304.5
2486.768	297.5
2490.492	303.5
2494.213	305.5
2497.93	302.5
2501.644	304.5
2505.355	290.5
2509.062	293.5
2512.766	295.5
2516.467	296.5
2520.165	292.5
2523.859	281.5
2527.551	295.5
2531.239	289.5
2534.923	294.5
2538.605	276.5
2542.283	280.5
2545.958	279.5
2549.63	272.5
2553.299	271.5
2556.964	276.5
2560.626	276.5
2564.285	269.5
2567.941	269.5
2571.594	272.5
2575.243	265.5
2578.89	260.5
2582.533	256.5
2586.173	250.5
2589.809	252.5
2593.443	252.5
2597.073	256.5
2600.701	245.5
2604.325	239.5
2607.946	239.5
2611.564	252.5
2615.178	244.5
2618.79	245.5
2622.398	243.5
2626.004	231.5
2629.606	234.5
2633.205	229.5
2636.801	235.5
2640.394	235.5
2643.983	223.5
2647.57	236.5
2651.153	225.5
2654.734	227.5
2658.311	214.5
2661.885	213.5
2665.456	222.5
2669.025	217.5
2672.589	209.5
2676.151	215.5
2679.71	216.5
2683.266	206.5
2686.819	199.5
2690.368	204.5
2693.915	197.5
2697.458	198.5
2700.999	197.5
2704.536	200.5
2708.071	186.5
2711.602	195.5
2715.13	180.5
2718.656	187.5
2722.178	186.5
2725.697	184.5
2729.214	188.5
2732.727	193.5
2736.237	190.5
2739.744	194.5
2743.249	194.5
2746.75	192.5
2750.248	193.5
2753.743	195.5
2757.236	191.5
2760.725	186.5
2764.211	183.5
2767.695	184.5
2771.175	180.5
2774.652	189.5
2778.127	184.5
2781.598	176.5
2785.067	177.5
2788.532	184.5
2791.995	184.5
2795.455	186.5
2798.911	187.5
2802.365	191.5
2805.816	184.5
2809.264	187.5
2812.709	186.5
2816.151	186.5
2819.59	191.5
2823.026	181.5
2826.46	185.5
2829.89	193.5
2833.318	185.5
2836.742	197.5
2840.164	192.5
2843.583	201.5
2846.999	196.5
2850.412	200.5
2853.822	212.5
2857.229	211.5
2860.634	206.5
2864.035	209.5
2867.434	213.5
2870.83	221.5
2874.223	218.5
2877.613	214.5
2881	228.5
2884.385	218.5
2887.766	211.5
2891.145	229.5
2894.521	219.5
2897.894	222.5
2901.264	234.5
2904.631	236.5
2907.996	232.5
2911.358	240.5
2914.717	240.5
2918.073	246.5
2921.426	242.5
2924.777	252.5
2928.124	252.5
2931.469	264.5
2934.811	270.5
2938.15	280.5
2941.487	274.5
2944.821	278.5
2948.152	285.5
2951.48	296.5
2954.805	290.5
2958.128	292.5
2961.447	303.5
2964.765	301.5
2968.079	299.5
2971.39	317.5
2974.699	329.5
2978.005	337.5
2981.308	344.5
2984.609	349.5
2987.907	371.5
2991.202	376.5
2994.494	391.5
2997.784	402.5
3001.07	410.5
3004.355	410.5
3007.636	425.5
3010.915	438.5
3014.191	440.5
3017.464	462.5
3020.734	465.5
3024.002	456.5
3027.267	478.5
3030.53	478.5
3033.789	483.5
3037.046	513.5
3040.301	518.5
3043.552	531.5
3046.801	545.5
3050.048	548.5
3053.291	569.5
3056.532	597.5
3059.771	608.5
3063.006	626.5
3066.239	644.5
3069.469	667.5
3072.697	684.5
3075.922	697.5
3079.144	730.5
3082.364	739.5
3085.581	753.5
3088.795	773.5
3092.007	788.5
3095.216	809.5
3098.423	824.5
3101.627	846.5
3104.828	853.5
3108.026	885.5
3111.222	915.5
3114.416	928.5
3117.607	942.5
3120.795	963.5
3123.98	995.5
3127.163	1017.5
3130.344	1036.5
3133.521	1057.5
3136.696	1080.5
3139.869	1115.5
3143.039	1108.5
3146.206	1137.5
3149.371	1154.5
3152.533	1159.5
3155.693	1160.5
3158.85	1184.5
3162.005	1195.5
3165.157	1204.5
3168.306	1194.5
3171.453	1194.5
3174.597	1219.5
3177.739	1221.5
3180.878	1210.5
3184.014	1216.5
3187.149	1222.5
3190.28	1232.5
3193.409	1233.5
3196.536	1232.5
3199.659	1239.5
3202.781	1238.5
3205.9	1259.5
3209.016	1244.5
3212.13	1231.5
3215.241	1239.5
3218.35	1219.5
3221.456	1206.5
3224.56	1216.5
3227.661	1194.5
3230.76	1183.5
3233.856	1174.5
3236.95	1172.5
3240.041	1157.5
3243.13	1128.5
3246.216	1136.5
3249.3	1124.5
3252.382	1115.5
3255.46	1108.5
3258.537	1110.5
3261.611	1108.5
3264.682	1093.5
3267.751	1100.5
3270.818	1089.5
3273.882	1080.5
3276.943	1092.5
3280.002	1071.5
3283.059	1054.5
3286.113	1029.5
3289.165	1021.5
3292.214	1006.5
3295.261	997.5
3298.306	987.5
3301.348	983.5
3304.387	956.5
3307.425	944.5
3310.459	934.5
3313.492	918.5
3316.521	904.5
3319.549	900.5
3322.574	887.5
3325.597	881.5
3328.617	882.5
3331.635	873.5
3334.65	870.5
3337.663	846.5
3340.674	850.5
3343.682	852.5
3346.688	847.5
3349.691	847.5
3352.692	842.5
3355.691	837.5
3358.687	827.5
3361.681	820.5
3364.673	802.5
3367.662	807.5
3370.649	807.5
3373.633	779.5
3376.615	767.5
3379.595	755.5
3382.572	739.5
3385.547	751.5
3388.52	737.5
3391.49	717.5
3394.458	714.5
3397.424	705.5
3400.387	684.5
3403.348	669.5
3406.307	685.5
3409.263	677.5
3412.217	655.5
3415.168	651.5
3418.118	644.5
3421.065	642.5
3424.009	624.5
3426.951	618.5
3429.891	615.5
3432.829	601.5
3435.764	588.5
3438.697	572.5
3441.628	555.5
3444.557	548.5
3447.483	528.5
3450.407	519.5
3453.328	508.5
3456.247	489.5
3459.164	470.5
3462.079	460.5
3464.991	451.5
3467.902	427.5
3470.809	413.5
3473.715	400.5
3476.618	397.5
3479.519	387.5
3482.418	365.5
3485.315	356.5
3488.209	350.5
3491.101	343.5
3493.99	327.5
3496.878	320.5
3499.763	306.5
3502.646	295.5
3505.527	285.5
3508.405	271.5
3511.281	259.5
3514.155	247.5
3517.027	238.5
3519.897	229.5
3522.764	211.5
3525.629	195.5
3528.492	194.5
3531.352	180.5
3534.211	172.5
3537.067	153.5
3539.921	144.5
3542.773	134.5
3545.622	136.5
3548.469	118.5
3551.315	115.5
3554.157	102.5
3556.998	95.5
3559.837	97.5
3562.673	92.5
3565.507	79.5
3568.339	79.5
3571.169	69.5
3573.996	56.5
3576.822	58.5
3579.645	50.5
3582.466	44.5
3585.285	38.5
3588.101	39.5
3590.916	30.5
3593.728	30.5
3596.538	18.5
3599.346	13.5
3602.152	10.5
3604.956	4.5
3607.757	-4.5
3610.556	-8.5
3613.354	-6.5
3616.149	-12.5
3618.942	-10.5
3621.732	-11.5
3624.521	-21.5
3627.307	-17.5
3630.092	-26.5
3632.874	-24.5
3635.654	-25.5
3638.432	-34.5
3641.208	-38.5
3643.982	-34.5
3646.753	-41.5
3649.523	-43.5
3652.29	-48.5
3655.055	-49.5
3657.818	-46.5
3660.579	-50.5
3663.338	-54.5
3666.095	-57.5
3668.849	-54.5
3671.602	-62.5
3674.352	-66.5
3677.101	-70.5
3679.847	-70.5
3682.591	-67.5
3685.333	-71.5
3688.073	-75.5
3690.811	-76.5
3693.547	-72.5
3696.281	-75.5
3699.013	-82.5
3701.742	-84.5
3704.47	-87.5
3707.195	-83.5
3709.919	-81.5
3712.64	-84.5
3715.359	-86.5
3718.076	-89.5
3720.792	-85.5
3723.505	-86.5
3726.216	-89.5
3728.925	-91.5
3731.632	-91.5
3734.336	-91.5
3737.039	-95.5
3739.74	-94.5
3742.439	-98.5
3745.136	-95.5
3747.83	-96.5
3750.523	-89.5
3753.213	-95.5
3755.902	-95.5
3758.589	-90.5
3761.273	-96.5
3763.956	-96.5
3766.636	-97.5
3769.315	-99.5
3771.991	-103.5
3774.665	-95.5
3777.338	-101.5
3780.008	-100.5
3782.677	-100.5
3785.343	-101.5
3788.007	-105.5
3790.67	-104.5
3793.33	-104.5
3795.989	-102.5
3798.645	-100.5
3801.299	-103.5
3803.952	-104.5
3806.602	-104.5
3809.251	-104.5
3811.897	-101.5
3814.542	-102.5
3817.184	-102.5
3819.825	-105.5
3822.463	-106.5
3825.1	-106.5
3827.735	-108.5
3830.367	-110.5
3832.998	-109.5
3835.627	-106.5
3838.253	-108.5
3840.878	-104.5
3843.501	-104.5
3846.122	-104.5
3848.741	-108.5
3851.358	-109.5
3853.973	-106.5
3856.586	-105.5
3859.197	-110.5
3861.806	-109.5
3864.414	-108.5
3867.019	-108.5
3869.622	-109.5
3872.224	-105.5
3874.823	-108.5
3877.421	-101.5
3880.016	-99.5
3882.61	-103.5
3885.202	-101.5
3887.792	-101.5
3890.38	-105.5
3892.966	-110.5
3895.55	-108.5
3898.132	-107.5
3900.713	-108.5
3903.291	-106.5
3905.868	-109.5
3908.442	-108.5
3911.015	-111.5
3913.586	-107.5
3916.155	-113.5
3918.722	-111.5
3921.287	-113.5
3923.85	-115.5
3926.411	-112.5
3928.971	-110.5
3931.528	-109.5
3934.084	-111.5
3936.638	-112.5
3939.19	-111.5
3941.74	-113.5
3944.288	-110.5
3946.834	-113.5
3949.378	-113.5
3951.921	-114.5
3954.462	-114.5
3957	-107.5
3959.537	-108.5
3962.072	-106.5
3964.606	-108.5
3967.137	-109.5
3969.667	-112.5
3972.194	-111.5
3974.72	-115.5
3977.244	-115.5
3979.766	-118.5
3982.286	-112.5
3984.805	-111.5
3987.321	-108.5
3989.836	-109.5
3992.349	-107.5
3994.86	-110.5
3997.369	-105.5
3999.877	-109.5
4002.382	-106.5
4004.886	-108.5
4007.388	-108.5
4009.888	-110.5
4012.386	-111.5
4014.883	-108.5
4017.377	-109.5
4019.87	-104.5
4022.361	-109.5
4024.85	-111.5
4027.338	-112.5
4029.823	-113.5
4032.307	-115.5
4034.789	-111.5
4037.269	-108.5
4039.747	-113.5
4042.224	-110.5
4044.699	-108.5
4047.172	-110.5
4049.643	-106.5
4052.112	-109.5
4054.58	-108.5
4057.046	-108.5
4059.51	-111.5
4061.972	-113.5
4064.432	-113.5
4066.891	-110.5
4069.348	-112.5
4071.803	-111.5
4074.256	-110.5
4076.708	-112.5
4079.158	-109.5
4081.606	-107.5
4084.052	-109.5
4086.497	-110.5
4088.939	-114.5
4091.38	-108.5
4093.819	-112.5
4096.257	-110.5
4098.693	-110.5
4101.127	-114.5
4103.559	-115.5
4105.989	-77.5
4108.418	-72.5
4110.845	-64.5
4113.27	-60.5
4115.694	-51.5
4118.115	-47.5
4120.535	-110.5
4122.954	-111.5
4125.37	-109.5
4127.785	-109.5
4130.198	-112.5
4132.609	-111.5
4135.019	-115.5
4137.427	-114.5
4139.833	-118.5
4142.237	-117.5
