Data from 10000000CFU2_B_RamanShift_1.txt Node
Date: Tue Jan 24 18:14:01 IST 2017
User: aro
Spectrometer: QEPB0276
Trigger mode: 0
Integration Time (sec): 5.000000E0
Scans to average: 1
Electric dark correction enabled: true
Nonlinearity correction enabled: false
Boxcar width: 0
XAxis mode: Raman Shifts
Number of Pixels in Spectrum: 1044
>>>>>Begin Spectral Data<<<<<
160.701	-29.12
166.742	0.88
172.777	96.88
178.805	372.88
184.826	1046.88
190.841	2151.88
196.849	3412.88
202.85	4226.88
208.845	4414.88
214.833	4266.88
220.815	4108.88
226.789	3971.88
232.758	3865.88
238.719	3755.88
244.674	3592.88
250.623	3444.88
256.565	3282.88
262.5	3142.88
268.429	2984.88
274.351	2871.88
280.267	2763.88
286.176	2662.88
292.079	2560.88
297.975	2507.88
303.865	2387.88
309.748	2349.88
315.625	2276.88
321.495	2209.88
327.359	2200.88
333.217	2157.88
339.068	2150.88
344.912	2135.88
350.751	2118.88
356.583	2142.88
362.408	2132.88
368.227	2147.88
374.04	2127.88
379.847	2122.88
385.647	2163.88
391.44	2161.88
397.228	2191.88
403.009	2187.88
408.784	2218.88
414.553	2216.88
420.315	2204.88
426.071	2212.88
431.821	2202.88
437.565	2213.88
443.302	2198.88
449.033	2183.88
454.758	2185.88
460.477	2189.88
466.189	2155.88
471.896	2152.88
477.596	2143.88
483.29	2105.88
488.978	2137.88
494.66	2132.88
500.335	2075.88
506.005	2060.88
511.668	2006.88
517.325	1981.88
522.977	1943.88
528.622	1910.88
534.261	1880.88
539.894	1876.88
545.521	1834.88
551.141	1856.88
556.756	1848.88
562.365	1818.88
567.968	1811.88
573.565	1812.88
579.155	1787.88
584.74	1768.88
590.319	1769.88
595.892	1773.88
601.459	1733.88
607.02	1731.88
612.575	1712.88
618.124	1696.88
623.667	1681.88
629.204	1666.88
634.735	1673.88
640.261	1632.88
645.781	1632.88
651.294	1615.88
656.802	1607.88
662.304	1616.88
667.8	1603.88
673.29	1588.88
678.775	1593.88
684.254	1570.88
689.726	1579.88
695.193	1575.88
700.655	1567.88
706.11	1554.88
711.56	1533.88
717.004	1514.88
722.442	1510.88
727.874	1501.88
733.301	1509.88
738.722	1481.88
744.137	1492.88
749.547	1471.88
754.951	1484.88
760.349	1490.88
765.741	1475.88
771.128	1476.88
776.509	1463.88
781.885	1471.88
787.254	1461.88
792.618	1463.88
797.977	1447.88
803.33	1447.88
808.677	1435.88
814.019	1414.88
819.355	1395.88
824.686	1382.88
830.011	1371.88
835.33	1373.88
840.644	1354.88
845.952	1371.88
851.255	1346.88
856.552	1337.88
861.844	1343.88
867.13	1319.88
872.41	1325.88
877.686	1299.88
882.955	1289.88
888.219	1268.88
893.478	1249.88
898.731	1231.88
903.979	1225.88
909.221	1202.88
914.458	1190.88
919.69	1193.88
924.916	1198.88
930.136	1187.88
935.351	1185.88
940.561	1179.88
945.766	1190.88
950.965	1159.88
956.158	1150.88
961.347	1141.88
966.529	1132.88
971.707	1115.88
976.879	1106.88
982.046	1100.88
987.208	1092.88
992.364	1100.88
997.515	1113.88
1002.66	1101.88
1007.801	1117.88
1012.936	1107.88
1018.066	1135.88
1023.19	1122.88
1028.309	1119.88
1033.423	1132.88
1038.532	1140.88
1043.636	1123.88
1048.734	1110.88
1053.827	1102.88
1058.915	1094.88
1063.998	1086.88
1069.075	1079.88
1074.147	1083.88
1079.214	1091.88
1084.276	1095.88
1089.333	1112.88
1094.385	1112.88
1099.431	1127.88
1104.472	1105.88
1109.509	1121.88
1114.54	1104.88
1119.565	1077.88
1124.586	1074.88
1129.602	1059.88
1134.613	1052.88
1139.618	1052.88
1144.619	1058.88
1149.614	1065.88
1154.604	1068.88
1159.589	1077.88
1164.57	1075.88
1169.545	1088.88
1174.515	1080.88
1179.48	1075.88
1184.44	1061.88
1189.395	1059.88
1194.345	1061.88
1199.29	1049.88
1204.23	1048.88
1209.165	1076.88
1214.095	1076.88
1219.021	1068.88
1223.941	1082.88
1228.856	1104.88
1233.766	1103.88
1238.672	1094.88
1243.572	1098.88
1248.467	1088.88
1253.358	1077.88
1258.244	1057.88
1263.124	1049.88
1268	1044.88
1272.871	1006.88
1277.737	1012.88
1282.599	1006.88
1287.455	1006.88
1292.306	1019.88
1297.153	1036.88
1301.995	1042.88
1306.832	1044.88
1311.664	1038.88
1316.491	1049.88
1321.314	1030.88
1326.132	1028.88
1330.945	1025.88
1335.753	1008.88
1340.556	1012.88
1345.354	1003.88
1350.148	972.88
1354.937	980.88
1359.722	972.88
1364.501	969.88
1369.276	947.88
1374.046	940.88
1378.811	935.88
1383.572	946.88
1388.327	941.88
1393.079	947.88
1397.825	940.88
1402.567	912.88
1407.304	925.88
1412.036	904.88
1416.764	914.88
1421.487	922.88
1426.205	927.88
1430.919	927.88
1435.628	942.88
1440.333	936.88
1445.032	940.88
1449.727	954.88
1454.418	961.88
1459.104	967.88
1463.785	951.88
1468.462	948.88
1473.134	939.88
1477.802	933.88
1482.465	918.88
1487.123	926.88
1491.777	917.88
1496.426	929.88
1501.071	930.88
1505.711	960.88
1510.347	953.88
1514.978	974.88
1519.604	970.88
1524.226	988.88
1528.844	980.88
1533.457	984.88
1538.065	998.88
1542.669	986.88
1547.269	962.88
1551.864	987.88
1556.454	971.88
1561.041	981.88
1565.622	1004.88
1570.199	1017.88
1574.772	1034.88
1579.34	1060.88
1583.904	1079.88
1588.464	1090.88
1593.019	1110.88
1597.569	1125.88
1602.115	1128.88
1606.657	1147.88
1611.195	1149.88
1615.728	1174.88
1620.256	1180.88
1624.78	1204.88
1629.3	1220.88
1633.816	1229.88
1638.327	1267.88
1642.834	1253.88
1647.336	1292.88
1651.834	1291.88
1656.328	1287.88
1660.817	1280.88
1665.302	1257.88
1669.783	1228.88
1674.259	1200.88
1678.732	1155.88
1683.199	1138.88
1687.663	1087.88
1692.122	1034.88
1696.577	1006.88
1701.028	971.88
1705.474	918.88
1709.917	899.88
1714.355	876.88
1718.788	862.88
1723.218	854.88
1727.643	814.88
1732.064	825.88
1736.481	786.88
1740.893	767.88
1745.301	746.88
1749.705	721.88
1754.105	710.88
1758.501	695.88
1762.893	687.88
1767.28	680.88
1771.663	659.88
1776.042	665.88
1780.417	676.88
1784.787	657.88
1789.154	663.88
1793.516	662.88
1797.874	650.88
1802.228	663.88
1806.578	643.88
1810.924	637.88
1815.266	623.88
1819.603	629.88
1823.937	611.88
1828.266	607.88
1832.591	590.88
1836.913	590.88
1841.23	586.88
1845.543	586.88
1849.852	589.88
1854.156	592.88
1858.457	596.88
1862.754	592.88
1867.047	601.88
1871.335	611.88
1875.62	596.88
1879.9	600.88
1884.177	614.88
1888.449	608.88
1892.718	598.88
1896.982	597.88
1901.243	597.88
1905.499	612.88
1909.752	592.88
1914	600.88
1918.245	598.88
1922.485	602.88
1926.722	595.88
1930.954	599.88
1935.183	610.88
1939.408	606.88
1943.628	600.88
1947.845	604.88
1952.058	602.88
1956.267	602.88
1960.472	590.88
1964.673	593.88
1968.87	579.88
1973.063	575.88
1977.252	580.88
1981.438	571.88
1985.619	573.88
1989.797	566.88
1993.971	572.88
1998.14	569.88
2002.306	578.88
2006.469	579.88
2010.627	579.88
2014.781	584.88
2018.932	587.88
2023.078	590.88
2027.221	584.88
2031.36	579.88
2035.495	562.88
2039.627	565.88
2043.754	557.88
2047.878	562.88
2051.998	567.88
2056.114	577.88
2060.226	563.88
2064.334	579.88
2068.439	579.88
2072.54	582.88
2076.637	583.88
2080.73	585.88
2084.82	578.88
2088.906	588.88
2092.988	587.88
2097.066	580.88
2101.14	580.88
2105.211	568.88
2109.278	562.88
2113.342	569.88
2117.401	566.88
2121.457	566.88
2125.509	564.88
2129.558	570.88
2133.602	559.88
2137.643	560.88
2141.681	550.88
2145.714	555.88
2149.744	543.88
2153.77	542.88
2157.793	552.88
2161.812	541.88
2165.827	537.88
2169.838	527.88
2173.846	506.88
2177.851	506.88
2181.851	497.88
2185.848	494.88
2189.841	490.88
2193.831	483.88
2197.817	478.88
2201.799	478.88
2205.778	477.88
2209.753	485.88
2213.725	480.88
2217.693	481.88
2221.657	482.88
2225.618	474.88
2229.575	468.88
2233.529	465.88
2237.479	465.88
2241.425	453.88
2245.368	447.88
2249.307	440.88
2253.243	433.88
2257.175	428.88
2261.104	421.88
2265.029	419.88
2268.95	416.88
2272.868	409.88
2276.783	402.88
2280.694	397.88
2284.601	396.88
2288.505	391.88
2292.405	377.88
2296.302	373.88
2300.195	380.88
2304.085	370.88
2307.971	351.88
2311.854	358.88
2315.734	356.88
2319.609	345.88
2323.482	336.88
2327.351	339.88
2331.216	333.88
2335.078	335.88
2338.937	332.88
2342.792	328.88
2346.643	321.88
2350.492	324.88
2354.336	322.88
2358.178	327.88
2362.015	325.88
2365.85	315.88
2369.681	318.88
2373.508	321.88
2377.333	321.88
2381.153	324.88
2384.971	321.88
2388.785	327.88
2392.595	304.88
2396.402	320.88
2400.206	310.88
2404.007	313.88
2407.804	312.88
2411.597	303.88
2415.388	309.88
2419.174	305.88
2422.958	306.88
2426.738	305.88
2430.515	308.88
2434.289	304.88
2438.059	305.88
2441.825	300.88
2445.589	291.88
2449.349	283.88
2453.106	291.88
2456.859	280.88
2460.61	286.88
2464.356	280.88
2468.1	280.88
2471.84	286.88
2475.577	281.88
2479.311	280.88
2483.041	280.88
2486.768	278.88
2490.492	277.88
2494.213	276.88
2497.93	277.88
2501.644	271.88
2505.355	280.88
2509.062	281.88
2512.766	269.88
2516.467	269.88
2520.165	266.88
2523.859	271.88
2527.551	266.88
2531.239	263.88
2534.923	262.88
2538.605	270.88
2542.283	256.88
2545.958	254.88
2549.63	257.88
2553.299	251.88
2556.964	253.88
2560.626	249.88
2564.285	255.88
2567.941	259.88
2571.594	248.88
2575.243	240.88
2578.89	244.88
2582.533	243.88
2586.173	230.88
2589.809	238.88
2593.443	230.88
2597.073	234.88
2600.701	230.88
2604.325	226.88
2607.946	224.88
2611.564	233.88
2615.178	229.88
2618.79	230.88
2622.398	214.88
2626.004	223.88
2629.606	217.88
2633.205	212.88
2636.801	214.88
2640.394	210.88
2643.983	206.88
2647.57	214.88
2651.153	209.88
2654.734	212.88
2658.311	200.88
2661.885	206.88
2665.456	204.88
2669.025	203.88
2672.589	187.88
2676.151	194.88
2679.71	192.88
2683.266	195.88
2686.819	187.88
2690.368	189.88
2693.915	189.88
2697.458	181.88
2700.999	182.88
2704.536	187.88
2708.071	175.88
2711.602	177.88
2715.13	179.88
2718.656	179.88
2722.178	178.88
2725.697	174.88
2729.214	179.88
2732.727	180.88
2736.237	179.88
2739.744	177.88
2743.249	178.88
2746.75	179.88
2750.248	181.88
2753.743	177.88
2757.236	172.88
2760.725	177.88
2764.211	175.88
2767.695	176.88
2771.175	174.88
2774.652	173.88
2778.127	178.88
2781.598	178.88
2785.067	173.88
2788.532	175.88
2791.995	177.88
2795.455	175.88
2798.911	172.88
2802.365	178.88
2805.816	170.88
2809.264	179.88
2812.709	172.88
2816.151	175.88
2819.59	176.88
2823.026	177.88
2826.46	180.88
2829.89	185.88
2833.318	182.88
2836.742	183.88
2840.164	191.88
2843.583	179.88
2846.999	186.88
2850.412	192.88
2853.822	197.88
2857.229	201.88
2860.634	200.88
2864.035	200.88
2867.434	206.88
2870.83	203.88
2874.223	209.88
2877.613	213.88
2881	205.88
2884.385	215.88
2887.766	216.88
2891.145	213.88
2894.521	208.88
2897.894	221.88
2901.264	221.88
2904.631	220.88
2907.996	222.88
2911.358	222.88
2914.717	222.88
2918.073	221.88
2921.426	232.88
2924.777	241.88
2928.124	236.88
2931.469	248.88
2934.811	257.88
2938.15	249.88
2941.487	263.88
2944.821	272.88
2948.152	266.88
2951.48	274.88
2954.805	279.88
2958.128	289.88
2961.447	299.88
2964.765	285.88
2968.079	306.88
2971.39	314.88
2974.699	320.88
2978.005	321.88
2981.308	328.88
2984.609	348.88
2987.907	351.88
2991.202	356.88
2994.494	371.88
2997.784	380.88
3001.07	382.88
3004.355	401.88
3007.636	411.88
3010.915	426.88
3014.191	426.88
3017.464	437.88
3020.734	443.88
3024.002	453.88
3027.267	454.88
3030.53	469.88
3033.789	478.88
3037.046	489.88
3040.301	497.88
3043.552	516.88
3046.801	531.88
3050.048	528.88
3053.291	560.88
3056.532	566.88
3059.771	588.88
3063.006	598.88
3066.239	622.88
3069.469	645.88
3072.697	660.88
3075.922	687.88
3079.144	700.88
3082.364	725.88
3085.581	724.88
3088.795	752.88
3092.007	775.88
3095.216	795.88
3098.423	804.88
3101.627	821.88
3104.828	842.88
3108.026	857.88
3111.222	880.88
3114.416	904.88
3117.607	923.88
3120.795	935.88
3123.98	962.88
3127.163	976.88
3130.344	1008.88
3133.521	1037.88
3136.696	1052.88
3139.869	1080.88
3143.039	1095.88
3146.206	1107.88
3149.371	1114.88
3152.533	1147.88
3155.693	1146.88
3158.85	1139.88
3162.005	1163.88
3165.157	1157.88
3168.306	1154.88
3171.453	1157.88
3174.597	1186.88
3177.739	1184.88
3180.878	1178.88
3184.014	1189.88
3187.149	1196.88
3190.28	1201.88
3193.409	1198.88
3196.536	1228.88
3199.659	1204.88
3202.781	1218.88
3205.9	1229.88
3209.016	1206.88
3212.13	1202.88
3215.241	1198.88
3218.35	1198.88
3221.456	1186.88
3224.56	1179.88
3227.661	1176.88
3230.76	1161.88
3233.856	1145.88
3236.95	1135.88
3240.041	1123.88
3243.13	1124.88
3246.216	1118.88
3249.3	1107.88
3252.382	1093.88
3255.46	1083.88
3258.537	1090.88
3261.611	1075.88
3264.682	1085.88
3267.751	1078.88
3270.818	1055.88
3273.882	1062.88
3276.943	1066.88
3280.002	1048.88
3283.059	1041.88
3286.113	1020.88
3289.165	1019.88
3292.214	994.88
3295.261	978.88
3298.306	968.88
3301.348	941.88
3304.387	931.88
3307.425	940.88
3310.459	920.88
3313.492	898.88
3316.521	894.88
3319.549	880.88
3322.574	874.88
3325.597	871.88
3328.617	864.88
3331.635	867.88
3334.65	838.88
3337.663	855.88
3340.674	835.88
3343.682	828.88
3346.688	846.88
3349.691	838.88
3352.692	820.88
3355.691	828.88
3358.687	814.88
3361.681	810.88
3364.673	795.88
3367.662	773.88
3370.649	763.88
3373.633	763.88
3376.615	752.88
3379.595	753.88
3382.572	728.88
3385.547	724.88
3388.52	721.88
3391.49	696.88
3394.458	686.88
3397.424	683.88
3400.387	664.88
3403.348	661.88
3406.307	669.88
3409.263	659.88
3412.217	640.88
3415.168	644.88
3418.118	635.88
3421.065	630.88
3424.009	622.88
3426.951	619.88
3429.891	600.88
3432.829	595.88
3435.764	573.88
3438.697	559.88
3441.628	554.88
3444.557	533.88
3447.483	518.88
3450.407	514.88
3453.328	496.88
3456.247	475.88
3459.164	473.88
3462.079	453.88
3464.991	435.88
3467.902	424.88
3470.809	416.88
3473.715	399.88
3476.618	378.88
3479.519	371.88
3482.418	361.88
3485.315	349.88
3488.209	346.88
3491.101	340.88
3493.99	329.88
3496.878	314.88
3499.763	307.88
3502.646	290.88
3505.527	277.88
3508.405	272.88
3511.281	257.88
3514.155	243.88
3517.027	242.88
3519.897	225.88
3522.764	220.88
3525.629	203.88
3528.492	187.88
3531.352	177.88
3534.211	169.88
3537.067	159.88
3539.921	142.88
3542.773	138.88
3545.622	128.88
3548.469	125.88
3551.315	113.88
3554.157	106.88
3556.998	98.88
3559.837	95.88
3562.673	77.88
3565.507	85.88
3568.339	69.88
3571.169	72.88
3573.996	60.88
3576.822	56.88
3579.645	50.88
3582.466	51.88
3585.285	38.88
3588.101	40.88
3590.916	29.88
3593.728	27.88
3596.538	21.88
3599.346	14.88
3602.152	8.88
3604.956	2.88
3607.757	-0.12
3610.556	-0.12
3613.354	-7.12
3616.149	-7.12
3618.942	-9.12
3621.732	-15.12
3624.521	-17.12
3627.307	-18.12
3630.092	-20.12
3632.874	-24.12
3635.654	-28.12
3638.432	-31.12
3641.208	-32.12
3643.982	-33.12
3646.753	-42.12
3649.523	-41.12
3652.29	-45.12
3655.055	-45.12
3657.818	-44.12
3660.579	-49.12
3663.338	-50.12
3666.095	-55.12
3668.849	-57.12
3671.602	-55.12
3674.352	-67.12
3677.101	-65.12
3679.847	-66.12
3682.591	-65.12
3685.333	-68.12
3688.073	-73.12
3690.811	-72.12
3693.547	-72.12
3696.281	-80.12
3699.013	-77.12
3701.742	-84.12
3704.47	-81.12
3707.195	-80.12
3709.919	-83.12
3712.64	-84.12
3715.359	-83.12
3718.076	-85.12
3720.792	-84.12
3723.505	-83.12
3726.216	-86.12
3728.925	-85.12
3731.632	-86.12
3734.336	-90.12
3737.039	-94.12
3739.74	-91.12
3742.439	-96.12
3745.136	-93.12
3747.83	-95.12
3750.523	-89.12
3753.213	-91.12
3755.902	-94.12
3758.589	-90.12
3761.273	-91.12
3763.956	-93.12
3766.636	-93.12
3769.315	-99.12
3771.991	-100.12
3774.665	-96.12
3777.338	-96.12
3780.008	-97.12
3782.677	-95.12
3785.343	-98.12
3788.007	-102.12
3790.67	-102.12
3793.33	-100.12
3795.989	-98.12
3798.645	-99.12
3801.299	-100.12
3803.952	-99.12
3806.602	-101.12
3809.251	-100.12
3811.897	-98.12
3814.542	-100.12
3817.184	-99.12
3819.825	-101.12
3822.463	-105.12
3825.1	-104.12
3827.735	-105.12
3830.367	-107.12
3832.998	-107.12
3835.627	-100.12
3838.253	-106.12
3840.878	-103.12
3843.501	-99.12
3846.122	-101.12
3848.741	-105.12
3851.358	-103.12
3853.973	-103.12
3856.586	-101.12
3859.197	-103.12
3861.806	-104.12
3864.414	-104.12
3867.019	-105.12
3869.622	-106.12
3872.224	-103.12
3874.823	-108.12
3877.421	-99.12
3880.016	-100.12
3882.61	-100.12
3885.202	-95.12
3887.792	-96.12
3890.38	-101.12
3892.966	-102.12
3895.55	-106.12
3898.132	-106.12
3900.713	-103.12
3903.291	-105.12
3905.868	-105.12
3908.442	-104.12
3911.015	-109.12
3913.586	-105.12
3916.155	-111.12
3918.722	-109.12
3921.287	-111.12
3923.85	-110.12
3926.411	-108.12
3928.971	-107.12
3931.528	-107.12
3934.084	-107.12
3936.638	-108.12
3939.19	-108.12
3941.74	-108.12
3944.288	-107.12
3946.834	-114.12
3949.378	-110.12
3951.921	-113.12
3954.462	-114.12
3957	-109.12
3959.537	-111.12
3962.072	-108.12
3964.606	-104.12
3967.137	-112.12
3969.667	-109.12
3972.194	-107.12
3974.72	-111.12
3977.244	-112.12
3979.766	-113.12
3982.286	-106.12
3984.805	-105.12
3987.321	-104.12
3989.836	-105.12
3992.349	-101.12
3994.86	-110.12
3997.369	-106.12
3999.877	-109.12
4002.382	-107.12
4004.886	-109.12
4007.388	-108.12
4009.888	-110.12
4012.386	-110.12
4014.883	-103.12
4017.377	-102.12
4019.87	-105.12
4022.361	-105.12
4024.85	-105.12
4027.338	-107.12
4029.823	-110.12
4032.307	-109.12
4034.789	-111.12
4037.269	-107.12
4039.747	-110.12
4042.224	-112.12
4044.699	-106.12
4047.172	-108.12
4049.643	-107.12
4052.112	-106.12
4054.58	-107.12
4057.046	-107.12
4059.51	-109.12
4061.972	-110.12
4064.432	-107.12
4066.891	-108.12
4069.348	-105.12
4071.803	-105.12
4074.256	-108.12
4076.708	-107.12
4079.158	-109.12
4081.606	-106.12
4084.052	-106.12
4086.497	-107.12
4088.939	-114.12
4091.38	-111.12
4093.819	-112.12
4096.257	-114.12
4098.693	-109.12
4101.127	-112.12
4103.559	-115.12
4105.989	-73.12
4108.418	-72.12
4110.845	-66.12
4113.27	-61.12
4115.694	-54.12
4118.115	-49.12
4120.535	-109.12
4122.954	-111.12
4125.37	-105.12
4127.785	-107.12
4130.198	-107.12
4132.609	-107.12
4135.019	-110.12
4137.427	-108.12
4139.833	-111.12
4142.237	-112.12
