Data from 1000000CFU2_A_RamanShift_1.txt Node
Date: Tue Jan 24 17:36:21 IST 2017
User: aro
Spectrometer: QEPB0276
Trigger mode: 0
Integration Time (sec): 5.000000E0
Scans to average: 1
Electric dark correction enabled: true
Nonlinearity correction enabled: false
Boxcar width: 0
XAxis mode: Raman Shifts
Number of Pixels in Spectrum: 1044
>>>>>Begin Spectral Data<<<<<
160.701	-38.12
166.742	2.88
172.777	102.88
178.805	409.88
184.826	1129.88
190.841	2334.88
196.849	3669.88
202.85	4541.88
208.845	4755.88
214.833	4595.88
220.815	4434.88
226.789	4315.88
232.758	4197.88
238.719	4088.88
244.674	3949.88
250.623	3792.88
256.565	3618.88
262.5	3448.88
268.429	3342.88
274.351	3207.88
280.267	3082.88
286.176	2987.88
292.079	2859.88
297.975	2808.88
303.865	2700.88
309.748	2637.88
315.625	2609.88
321.495	2539.88
327.359	2510.88
333.217	2469.88
339.068	2458.88
344.912	2442.88
350.751	2419.88
356.583	2419.88
362.408	2423.88
368.227	2401.88
374.04	2435.88
379.847	2429.88
385.647	2429.88
391.44	2461.88
397.228	2483.88
403.009	2489.88
408.784	2486.88
414.553	2503.88
420.315	2489.88
426.071	2540.88
431.821	2513.88
437.565	2511.88
443.302	2478.88
449.033	2502.88
454.758	2483.88
460.477	2458.88
466.189	2462.88
471.896	2454.88
477.596	2435.88
483.29	2416.88
488.978	2417.88
494.66	2402.88
500.335	2369.88
506.005	2339.88
511.668	2309.88
517.325	2259.88
522.977	2224.88
528.622	2225.88
534.261	2179.88
539.894	2153.88
545.521	2142.88
551.141	2120.88
556.756	2114.88
562.365	2110.88
567.968	2102.88
573.565	2085.88
579.155	2081.88
584.74	2056.88
590.319	2046.88
595.892	2043.88
601.459	2035.88
607.02	2011.88
612.575	1990.88
618.124	1966.88
623.667	1961.88
629.204	1957.88
634.735	1938.88
640.261	1919.88
645.781	1896.88
651.294	1919.88
656.802	1883.88
662.304	1891.88
667.8	1871.88
673.29	1878.88
678.775	1865.88
684.254	1866.88
689.726	1852.88
695.193	1835.88
700.655	1819.88
706.11	1812.88
711.56	1800.88
717.004	1780.88
722.442	1793.88
727.874	1764.88
733.301	1771.88
738.722	1771.88
744.137	1747.88
749.547	1756.88
754.951	1743.88
760.349	1757.88
765.741	1745.88
771.128	1722.88
776.509	1743.88
781.885	1726.88
787.254	1738.88
792.618	1732.88
797.977	1707.88
803.33	1711.88
808.677	1707.88
814.019	1682.88
819.355	1655.88
824.686	1650.88
830.011	1622.88
835.33	1623.88
840.644	1621.88
845.952	1629.88
851.255	1623.88
856.552	1597.88
861.844	1598.88
867.13	1587.88
872.41	1604.88
877.686	1584.88
882.955	1563.88
888.219	1546.88
893.478	1511.88
898.731	1489.88
903.979	1471.88
909.221	1449.88
914.458	1450.88
919.69	1454.88
924.916	1449.88
930.136	1441.88
935.351	1455.88
940.561	1434.88
945.766	1437.88
950.965	1429.88
956.158	1404.88
961.347	1391.88
966.529	1379.88
971.707	1371.88
976.879	1336.88
982.046	1334.88
987.208	1336.88
992.364	1335.88
997.515	1341.88
1002.66	1339.88
1007.801	1351.88
1012.936	1371.88
1018.066	1380.88
1023.19	1388.88
1028.309	1387.88
1033.423	1386.88
1038.532	1381.88
1043.636	1354.88
1048.734	1358.88
1053.827	1342.88
1058.915	1330.88
1063.998	1320.88
1069.075	1327.88
1074.147	1333.88
1079.214	1328.88
1084.276	1332.88
1089.333	1350.88
1094.385	1354.88
1099.431	1354.88
1104.472	1381.88
1109.509	1364.88
1114.54	1360.88
1119.565	1326.88
1124.586	1331.88
1129.602	1304.88
1134.613	1304.88
1139.618	1296.88
1144.619	1283.88
1149.614	1301.88
1154.604	1294.88
1159.589	1306.88
1164.57	1318.88
1169.545	1319.88
1174.515	1311.88
1179.48	1305.88
1184.44	1306.88
1189.395	1295.88
1194.345	1287.88
1199.29	1277.88
1204.23	1297.88
1209.165	1298.88
1214.095	1304.88
1219.021	1314.88
1223.941	1335.88
1228.856	1337.88
1233.766	1342.88
1238.672	1341.88
1243.572	1345.88
1248.467	1334.88
1253.358	1319.88
1258.244	1308.88
1263.124	1282.88
1268	1268.88
1272.871	1260.88
1277.737	1248.88
1282.599	1239.88
1287.455	1243.88
1292.306	1241.88
1297.153	1273.88
1301.995	1267.88
1306.832	1252.88
1311.664	1287.88
1316.491	1283.88
1321.314	1274.88
1326.132	1256.88
1330.945	1265.88
1335.753	1246.88
1340.556	1225.88
1345.354	1209.88
1350.148	1219.88
1354.937	1199.88
1359.722	1204.88
1364.501	1161.88
1369.276	1174.88
1374.046	1165.88
1378.811	1147.88
1383.572	1147.88
1388.327	1151.88
1393.079	1147.88
1397.825	1142.88
1402.567	1121.88
1407.304	1114.88
1412.036	1115.88
1416.764	1117.88
1421.487	1118.88
1426.205	1135.88
1430.919	1120.88
1435.628	1159.88
1440.333	1155.88
1445.032	1175.88
1449.727	1180.88
1454.418	1184.88
1459.104	1163.88
1463.785	1166.88
1468.462	1172.88
1473.134	1161.88
1477.802	1150.88
1482.465	1129.88
1487.123	1152.88
1491.777	1147.88
1496.426	1141.88
1501.071	1140.88
1505.711	1158.88
1510.347	1179.88
1514.978	1177.88
1519.604	1206.88
1524.226	1194.88
1528.844	1205.88
1533.457	1185.88
1538.065	1199.88
1542.669	1196.88
1547.269	1178.88
1551.864	1195.88
1556.454	1188.88
1561.041	1187.88
1565.622	1217.88
1570.199	1196.88
1574.772	1232.88
1579.34	1271.88
1583.904	1297.88
1588.464	1316.88
1593.019	1328.88
1597.569	1338.88
1602.115	1342.88
1606.657	1352.88
1611.195	1370.88
1615.728	1375.88
1620.256	1400.88
1624.78	1403.88
1629.3	1431.88
1633.816	1450.88
1638.327	1453.88
1642.834	1478.88
1647.336	1509.88
1651.834	1486.88
1656.328	1498.88
1660.817	1482.88
1665.302	1466.88
1669.783	1447.88
1674.259	1392.88
1678.732	1363.88
1683.199	1337.88
1687.663	1288.88
1692.122	1252.88
1696.577	1199.88
1701.028	1145.88
1705.474	1106.88
1709.917	1063.88
1714.355	1037.88
1718.788	1033.88
1723.218	1011.88
1727.643	992.88
1732.064	989.88
1736.481	958.88
1740.893	936.88
1745.301	905.88
1749.705	885.88
1754.105	871.88
1758.501	854.88
1762.893	847.88
1767.28	835.88
1771.663	830.88
1776.042	823.88
1780.417	820.88
1784.787	821.88
1789.154	841.88
1793.516	832.88
1797.874	842.88
1802.228	817.88
1806.578	799.88
1810.924	795.88
1815.266	772.88
1819.603	763.88
1823.937	767.88
1828.266	764.88
1832.591	747.88
1836.913	744.88
1841.23	753.88
1845.543	733.88
1849.852	747.88
1854.156	745.88
1858.457	746.88
1862.754	750.88
1867.047	757.88
1871.335	767.88
1875.62	775.88
1879.9	765.88
1884.177	757.88
1888.449	752.88
1892.718	744.88
1896.982	759.88
1901.243	747.88
1905.499	749.88
1909.752	745.88
1914	744.88
1918.245	751.88
1922.485	748.88
1926.722	752.88
1930.954	762.88
1935.183	750.88
1939.408	764.88
1943.628	757.88
1947.845	752.88
1952.058	746.88
1956.267	753.88
1960.472	737.88
1964.673	732.88
1968.87	721.88
1973.063	720.88
1977.252	708.88
1981.438	705.88
1985.619	710.88
1989.797	716.88
1993.971	716.88
1998.14	699.88
2002.306	715.88
2006.469	714.88
2010.627	720.88
2014.781	719.88
2018.932	717.88
2023.078	734.88
2027.221	711.88
2031.36	717.88
2035.495	698.88
2039.627	699.88
2043.754	703.88
2047.878	699.88
2051.998	701.88
2056.114	693.88
2060.226	697.88
2064.334	705.88
2068.439	714.88
2072.54	716.88
2076.637	716.88
2080.73	708.88
2084.82	708.88
2088.906	721.88
2092.988	718.88
2097.066	707.88
2101.14	702.88
2105.211	695.88
2109.278	693.88
2113.342	696.88
2117.401	684.88
2121.457	683.88
2125.509	691.88
2129.558	682.88
2133.602	685.88
2137.643	685.88
2141.681	671.88
2145.714	658.88
2149.744	661.88
2153.77	669.88
2157.793	654.88
2161.812	654.88
2165.827	649.88
2169.838	648.88
2173.846	635.88
2177.851	611.88
2181.851	605.88
2185.848	602.88
2189.841	590.88
2193.831	584.88
2197.817	584.88
2201.799	595.88
2205.778	590.88
2209.753	582.88
2213.725	588.88
2217.693	583.88
2221.657	582.88
2225.618	588.88
2229.575	565.88
2233.529	575.88
2237.479	568.88
2241.425	552.88
2245.368	544.88
2249.307	550.88
2253.243	537.88
2257.175	535.88
2261.104	522.88
2265.029	512.88
2268.95	510.88
2272.868	510.88
2276.783	500.88
2280.694	493.88
2284.601	485.88
2288.505	468.88
2292.405	477.88
2296.302	481.88
2300.195	461.88
2304.085	463.88
2307.971	453.88
2311.854	441.88
2315.734	447.88
2319.609	434.88
2323.482	427.88
2327.351	416.88
2331.216	418.88
2335.078	418.88
2338.937	404.88
2342.792	408.88
2346.643	404.88
2350.492	412.88
2354.336	415.88
2358.178	407.88
2362.015	400.88
2365.85	405.88
2369.681	409.88
2373.508	407.88
2377.333	412.88
2381.153	399.88
2384.971	407.88
2388.785	397.88
2392.595	399.88
2396.402	398.88
2400.206	395.88
2404.007	404.88
2407.804	403.88
2411.597	387.88
2415.388	383.88
2419.174	383.88
2422.958	384.88
2426.738	380.88
2430.515	380.88
2434.289	381.88
2438.059	380.88
2441.825	385.88
2445.589	368.88
2449.349	375.88
2453.106	367.88
2456.859	358.88
2460.61	358.88
2464.356	365.88
2468.1	357.88
2471.84	349.88
2475.577	353.88
2479.311	364.88
2483.041	356.88
2486.768	367.88
2490.492	361.88
2494.213	354.88
2497.93	351.88
2501.644	355.88
2505.355	345.88
2509.062	352.88
2512.766	349.88
2516.467	345.88
2520.165	341.88
2523.859	350.88
2527.551	348.88
2531.239	340.88
2534.923	331.88
2538.605	333.88
2542.283	331.88
2545.958	315.88
2549.63	332.88
2553.299	319.88
2556.964	324.88
2560.626	319.88
2564.285	315.88
2567.941	316.88
2571.594	315.88
2575.243	312.88
2578.89	311.88
2582.533	299.88
2586.173	299.88
2589.809	309.88
2593.443	300.88
2597.073	306.88
2600.701	291.88
2604.325	290.88
2607.946	296.88
2611.564	296.88
2615.178	292.88
2618.79	292.88
2622.398	281.88
2626.004	275.88
2629.606	283.88
2633.205	284.88
2636.801	272.88
2640.394	270.88
2643.983	270.88
2647.57	269.88
2651.153	264.88
2654.734	264.88
2658.311	260.88
2661.885	262.88
2665.456	261.88
2669.025	251.88
2672.589	258.88
2676.151	249.88
2679.71	252.88
2683.266	242.88
2686.819	247.88
2690.368	233.88
2693.915	237.88
2697.458	235.88
2700.999	238.88
2704.536	236.88
2708.071	228.88
2711.602	224.88
2715.13	227.88
2718.656	223.88
2722.178	220.88
2725.697	221.88
2729.214	219.88
2732.727	224.88
2736.237	227.88
2739.744	230.88
2743.249	229.88
2746.75	231.88
2750.248	223.88
2753.743	232.88
2757.236	231.88
2760.725	222.88
2764.211	218.88
2767.695	222.88
2771.175	218.88
2774.652	213.88
2778.127	214.88
2781.598	219.88
2785.067	219.88
2788.532	217.88
2791.995	211.88
2795.455	209.88
2798.911	212.88
2802.365	209.88
2805.816	214.88
2809.264	218.88
2812.709	217.88
2816.151	223.88
2819.59	219.88
2823.026	218.88
2826.46	232.88
2829.89	229.88
2833.318	223.88
2836.742	224.88
2840.164	232.88
2843.583	229.88
2846.999	225.88
2850.412	224.88
2853.822	230.88
2857.229	238.88
2860.634	236.88
2864.035	233.88
2867.434	239.88
2870.83	248.88
2874.223	243.88
2877.613	249.88
2881	247.88
2884.385	253.88
2887.766	248.88
2891.145	244.88
2894.521	250.88
2897.894	257.88
2901.264	256.88
2904.631	254.88
2907.996	252.88
2911.358	256.88
2914.717	264.88
2918.073	266.88
2921.426	273.88
2924.777	276.88
2928.124	268.88
2931.469	283.88
2934.811	289.88
2938.15	296.88
2941.487	300.88
2944.821	296.88
2948.152	297.88
2951.48	303.88
2954.805	316.88
2958.128	325.88
2961.447	321.88
2964.765	329.88
2968.079	338.88
2971.39	342.88
2974.699	349.88
2978.005	355.88
2981.308	371.88
2984.609	376.88
2987.907	384.88
2991.202	393.88
2994.494	413.88
2997.784	405.88
3001.07	425.88
3004.355	429.88
3007.636	448.88
3010.915	449.88
3014.191	456.88
3017.464	477.88
3020.734	474.88
3024.002	484.88
3027.267	491.88
3030.53	500.88
3033.789	515.88
3037.046	519.88
3040.301	537.88
3043.552	539.88
3046.801	556.88
3050.048	570.88
3053.291	591.88
3056.532	618.88
3059.771	623.88
3063.006	640.88
3066.239	670.88
3069.469	687.88
3072.697	717.88
3075.922	732.88
3079.144	748.88
3082.364	762.88
3085.581	775.88
3088.795	806.88
3092.007	803.88
3095.216	824.88
3098.423	845.88
3101.627	878.88
3104.828	873.88
3108.026	900.88
3111.222	919.88
3114.416	924.88
3117.607	977.88
3120.795	981.88
3123.98	1008.88
3127.163	1023.88
3130.344	1073.88
3133.521	1088.88
3136.696	1103.88
3139.869	1123.88
3143.039	1147.88
3146.206	1165.88
3149.371	1174.88
3152.533	1197.88
3155.693	1193.88
3158.85	1197.88
3162.005	1220.88
3165.157	1209.88
3168.306	1201.88
3171.453	1226.88
3174.597	1240.88
3177.739	1234.88
3180.878	1248.88
3184.014	1252.88
3187.149	1244.88
3190.28	1242.88
3193.409	1270.88
3196.536	1258.88
3199.659	1255.88
3202.781	1251.88
3205.9	1264.88
3209.016	1258.88
3212.13	1253.88
3215.241	1261.88
3218.35	1254.88
3221.456	1227.88
3224.56	1223.88
3227.661	1209.88
3230.76	1207.88
3233.856	1179.88
3236.95	1179.88
3240.041	1173.88
3243.13	1150.88
3246.216	1143.88
3249.3	1136.88
3252.382	1130.88
3255.46	1136.88
3258.537	1122.88
3261.611	1127.88
3264.682	1118.88
3267.751	1102.88
3270.818	1112.88
3273.882	1101.88
3276.943	1085.88
3280.002	1087.88
3283.059	1067.88
3286.113	1055.88
3289.165	1046.88
3292.214	1027.88
3295.261	1013.88
3298.306	1003.88
3301.348	990.88
3304.387	974.88
3307.425	965.88
3310.459	958.88
3313.492	938.88
3316.521	919.88
3319.549	918.88
3322.574	895.88
3325.597	891.88
3328.617	887.88
3331.635	881.88
3334.65	868.88
3337.663	877.88
3340.674	867.88
3343.682	874.88
3346.688	867.88
3349.691	872.88
3352.692	842.88
3355.691	861.88
3358.687	848.88
3361.681	842.88
3364.673	829.88
3367.662	819.88
3370.649	794.88
3373.633	785.88
3376.615	777.88
3379.595	785.88
3382.572	764.88
3385.547	765.88
3388.52	740.88
3391.49	717.88
3394.458	720.88
3397.424	704.88
3400.387	701.88
3403.348	701.88
3406.307	677.88
3409.263	682.88
3412.217	674.88
3415.168	673.88
3418.118	664.88
3421.065	652.88
3424.009	644.88
3426.951	634.88
3429.891	614.88
3432.829	606.88
3435.764	599.88
3438.697	575.88
3441.628	576.88
3444.557	553.88
3447.483	542.88
3450.407	534.88
3453.328	510.88
3456.247	493.88
3459.164	483.88
3462.079	471.88
3464.991	453.88
3467.902	438.88
3470.809	421.88
3473.715	408.88
3476.618	399.88
3479.519	382.88
3482.418	352.88
3485.315	353.88
3488.209	347.88
3491.101	342.88
3493.99	334.88
3496.878	324.88
3499.763	302.88
3502.646	297.88
3505.527	285.88
3508.405	276.88
3511.281	270.88
3514.155	247.88
3517.027	239.88
3519.897	232.88
3522.764	220.88
3525.629	208.88
3528.492	196.88
3531.352	179.88
3534.211	167.88
3537.067	152.88
3539.921	148.88
3542.773	139.88
3545.622	131.88
3548.469	121.88
3551.315	118.88
3554.157	108.88
3556.998	100.88
3559.837	99.88
3562.673	89.88
3565.507	82.88
3568.339	78.88
3571.169	75.88
3573.996	60.88
3576.822	56.88
3579.645	47.88
3582.466	38.88
3585.285	31.88
3588.101	33.88
3590.916	32.88
3593.728	21.88
3596.538	19.88
3599.346	17.88
3602.152	8.88
3604.956	0.88
3607.757	0.88
3610.556	-5.12
3613.354	-9.12
3616.149	-10.12
3618.942	-18.12
3621.732	-18.12
3624.521	-19.12
3627.307	-21.12
3630.092	-27.12
3632.874	-31.12
3635.654	-33.12
3638.432	-34.12
3641.208	-44.12
3643.982	-39.12
3646.753	-41.12
3649.523	-45.12
3652.29	-46.12
3655.055	-47.12
3657.818	-52.12
3660.579	-49.12
3663.338	-58.12
3666.095	-62.12
3668.849	-60.12
3671.602	-66.12
3674.352	-73.12
3677.101	-73.12
3679.847	-73.12
3682.591	-76.12
3685.333	-71.12
3688.073	-73.12
3690.811	-78.12
3693.547	-74.12
3696.281	-79.12
3699.013	-80.12
3701.742	-81.12
3704.47	-86.12
3707.195	-89.12
3709.919	-88.12
3712.64	-89.12
3715.359	-91.12
3718.076	-93.12
3720.792	-89.12
3723.505	-90.12
3726.216	-92.12
3728.925	-92.12
3731.632	-93.12
3734.336	-95.12
3737.039	-98.12
3739.74	-98.12
3742.439	-96.12
3745.136	-96.12
3747.83	-99.12
3750.523	-93.12
3753.213	-96.12
3755.902	-99.12
3758.589	-99.12
3761.273	-101.12
3763.956	-101.12
3766.636	-103.12
3769.315	-101.12
3771.991	-107.12
3774.665	-103.12
3777.338	-105.12
3780.008	-101.12
3782.677	-102.12
3785.343	-102.12
3788.007	-106.12
3790.67	-104.12
3793.33	-104.12
3795.989	-107.12
3798.645	-107.12
3801.299	-105.12
3803.952	-107.12
3806.602	-109.12
3809.251	-110.12
3811.897	-109.12
3814.542	-111.12
3817.184	-107.12
3819.825	-107.12
3822.463	-110.12
3825.1	-109.12
3827.735	-109.12
3830.367	-110.12
3832.998	-110.12
3835.627	-109.12
3838.253	-109.12
3840.878	-105.12
3843.501	-110.12
3846.122	-112.12
3848.741	-111.12
3851.358	-113.12
3853.973	-112.12
3856.586	-111.12
3859.197	-116.12
3861.806	-113.12
3864.414	-112.12
3867.019	-111.12
3869.622	-109.12
3872.224	-108.12
3874.823	-108.12
3877.421	-101.12
3880.016	-102.12
3882.61	-104.12
3885.202	-101.12
3887.792	-108.12
3890.38	-112.12
3892.966	-114.12
3895.55	-115.12
3898.132	-115.12
3900.713	-115.12
3903.291	-112.12
3905.868	-113.12
3908.442	-114.12
3911.015	-115.12
3913.586	-117.12
3916.155	-115.12
3918.722	-117.12
3921.287	-117.12
3923.85	-114.12
3926.411	-116.12
3928.971	-114.12
3931.528	-115.12
3934.084	-117.12
3936.638	-117.12
3939.19	-117.12
3941.74	-118.12
3944.288	-118.12
3946.834	-117.12
3949.378	-119.12
3951.921	-116.12
3954.462	-115.12
3957	-113.12
3959.537	-115.12
3962.072	-112.12
3964.606	-112.12
3967.137	-117.12
3969.667	-118.12
3972.194	-116.12
3974.72	-118.12
3977.244	-119.12
3979.766	-121.12
3982.286	-117.12
3984.805	-118.12
3987.321	-112.12
3989.836	-110.12
3992.349	-111.12
3994.86	-114.12
3997.369	-112.12
3999.877	-113.12
4002.382	-111.12
4004.886	-115.12
4007.388	-110.12
4009.888	-113.12
4012.386	-117.12
4014.883	-113.12
4017.377	-113.12
4019.87	-114.12
4022.361	-111.12
4024.85	-117.12
4027.338	-115.12
4029.823	-114.12
4032.307	-116.12
4034.789	-116.12
4037.269	-112.12
4039.747	-113.12
4042.224	-115.12
4044.699	-112.12
4047.172	-113.12
4049.643	-110.12
4052.112	-114.12
4054.58	-114.12
4057.046	-116.12
4059.51	-114.12
4061.972	-118.12
4064.432	-119.12
4066.891	-116.12
4069.348	-115.12
4071.803	-118.12
4074.256	-114.12
4076.708	-116.12
4079.158	-114.12
4081.606	-112.12
4084.052	-113.12
4086.497	-117.12
4088.939	-118.12
4091.38	-115.12
4093.819	-121.12
4096.257	-114.12
4098.693	-115.12
4101.127	-119.12
4103.559	-123.12
4105.989	-80.12
4108.418	-77.12
4110.845	-73.12
4113.27	-66.12
4115.694	-57.12
4118.115	-49.12
4120.535	-117.12
4122.954	-119.12
4125.37	-118.12
4127.785	-118.12
4130.198	-116.12
4132.609	-116.12
4135.019	-119.12
4137.427	-117.12
4139.833	-121.12
4142.237	-120.12
