Data from 100000000CFU3_A_RamanShift_1.txt Node
Date: Tue Jan 24 17:46:11 IST 2017
User: aro
Spectrometer: QEPB0276
Trigger mode: 0
Integration Time (sec): 5.000000E0
Scans to average: 1
Electric dark correction enabled: true
Nonlinearity correction enabled: false
Boxcar width: 0
XAxis mode: Raman Shifts
Number of Pixels in Spectrum: 1044
>>>>>Begin Spectral Data<<<<<
160.701	-18.12
166.742	0.88
172.777	67.88
178.805	268.88
184.826	747.88
190.841	1554.88
196.849	2400.88
202.85	2945.88
208.845	3088.88
214.833	2999.88
220.815	2880.88
226.789	2798.88
232.758	2719.88
238.719	2638.88
244.674	2548.88
250.623	2456.88
256.565	2337.88
262.5	2257.88
268.429	2147.88
274.351	2068.88
280.267	1995.88
286.176	1924.88
292.079	1868.88
297.975	1804.88
303.865	1766.88
309.748	1714.88
315.625	1680.88
321.495	1651.88
327.359	1626.88
333.217	1605.88
339.068	1611.88
344.912	1605.88
350.751	1589.88
356.583	1588.88
362.408	1590.88
368.227	1583.88
374.04	1603.88
379.847	1596.88
385.647	1597.88
391.44	1605.88
397.228	1638.88
403.009	1640.88
408.784	1635.88
414.553	1658.88
420.315	1654.88
426.071	1661.88
431.821	1646.88
437.565	1673.88
443.302	1661.88
449.033	1646.88
454.758	1636.88
460.477	1630.88
466.189	1609.88
471.896	1620.88
477.596	1599.88
483.29	1582.88
488.978	1602.88
494.66	1580.88
500.335	1545.88
506.005	1544.88
511.668	1497.88
517.325	1458.88
522.977	1433.88
528.622	1399.88
534.261	1380.88
539.894	1377.88
545.521	1361.88
551.141	1350.88
556.756	1345.88
562.365	1346.88
567.968	1335.88
573.565	1306.88
579.155	1307.88
584.74	1309.88
590.319	1283.88
595.892	1284.88
601.459	1269.88
607.02	1269.88
612.575	1274.88
618.124	1245.88
623.667	1236.88
629.204	1233.88
634.735	1197.88
640.261	1193.88
645.781	1182.88
651.294	1167.88
656.802	1182.88
662.304	1168.88
667.8	1172.88
673.29	1172.88
678.775	1161.88
684.254	1159.88
689.726	1149.88
695.193	1147.88
700.655	1141.88
706.11	1134.88
711.56	1113.88
717.004	1116.88
722.442	1114.88
727.874	1098.88
733.301	1096.88
738.722	1089.88
744.137	1100.88
749.547	1086.88
754.951	1083.88
760.349	1080.88
765.741	1080.88
771.128	1079.88
776.509	1085.88
781.885	1092.88
787.254	1083.88
792.618	1083.88
797.977	1081.88
803.33	1074.88
808.677	1062.88
814.019	1032.88
819.355	1018.88
824.686	1030.88
830.011	1001.88
835.33	996.88
840.644	993.88
845.952	1005.88
851.255	984.88
856.552	974.88
861.844	981.88
867.13	978.88
872.41	981.88
877.686	949.88
882.955	941.88
888.219	935.88
893.478	921.88
898.731	906.88
903.979	883.88
909.221	872.88
914.458	871.88
919.69	873.88
924.916	862.88
930.136	859.88
935.351	861.88
940.561	862.88
945.766	865.88
950.965	855.88
956.158	839.88
961.347	825.88
966.529	814.88
971.707	810.88
976.879	803.88
982.046	798.88
987.208	789.88
992.364	792.88
997.515	806.88
1002.66	796.88
1007.801	803.88
1012.936	818.88
1018.066	813.88
1023.19	823.88
1028.309	818.88
1033.423	814.88
1038.532	818.88
1043.636	808.88
1048.734	810.88
1053.827	790.88
1058.915	789.88
1063.998	781.88
1069.075	781.88
1074.147	786.88
1079.214	773.88
1084.276	790.88
1089.333	796.88
1094.385	795.88
1099.431	801.88
1104.472	796.88
1109.509	801.88
1114.54	792.88
1119.565	779.88
1124.586	759.88
1129.602	767.88
1134.613	752.88
1139.618	752.88
1144.619	765.88
1149.614	763.88
1154.604	754.88
1159.589	764.88
1164.57	779.88
1169.545	770.88
1174.515	772.88
1179.48	767.88
1184.44	767.88
1189.395	744.88
1194.345	759.88
1199.29	759.88
1204.23	757.88
1209.165	759.88
1214.095	770.88
1219.021	772.88
1223.941	772.88
1228.856	783.88
1233.766	787.88
1238.672	781.88
1243.572	775.88
1248.467	773.88
1253.358	771.88
1258.244	753.88
1263.124	739.88
1268	729.88
1272.871	714.88
1277.737	718.88
1282.599	717.88
1287.455	719.88
1292.306	714.88
1297.153	726.88
1301.995	736.88
1306.832	722.88
1311.664	731.88
1316.491	735.88
1321.314	724.88
1326.132	730.88
1330.945	727.88
1335.753	710.88
1340.556	691.88
1345.354	687.88
1350.148	693.88
1354.937	672.88
1359.722	690.88
1364.501	673.88
1369.276	666.88
1374.046	670.88
1378.811	660.88
1383.572	661.88
1388.327	656.88
1393.079	667.88
1397.825	655.88
1402.567	639.88
1407.304	639.88
1412.036	647.88
1416.764	635.88
1421.487	642.88
1426.205	644.88
1430.919	644.88
1435.628	661.88
1440.333	657.88
1445.032	673.88
1449.727	662.88
1454.418	672.88
1459.104	660.88
1463.785	672.88
1468.462	658.88
1473.134	643.88
1477.802	635.88
1482.465	643.88
1487.123	640.88
1491.777	641.88
1496.426	654.88
1501.071	647.88
1505.711	667.88
1510.347	655.88
1514.978	675.88
1519.604	681.88
1524.226	683.88
1528.844	683.88
1533.457	681.88
1538.065	688.88
1542.669	680.88
1547.269	669.88
1551.864	676.88
1556.454	681.88
1561.041	687.88
1565.622	690.88
1570.199	708.88
1574.772	717.88
1579.34	736.88
1583.904	751.88
1588.464	759.88
1593.019	756.88
1597.569	768.88
1602.115	780.88
1606.657	779.88
1611.195	795.88
1615.728	797.88
1620.256	816.88
1624.78	823.88
1629.3	838.88
1633.816	857.88
1638.327	864.88
1642.834	880.88
1647.336	888.88
1651.834	873.88
1656.328	875.88
1660.817	864.88
1665.302	859.88
1669.783	853.88
1674.259	819.88
1678.732	802.88
1683.199	773.88
1687.663	735.88
1692.122	708.88
1696.577	694.88
1701.028	671.88
1705.474	643.88
1709.917	621.88
1714.355	601.88
1718.788	591.88
1723.218	585.88
1727.643	579.88
1732.064	563.88
1736.481	536.88
1740.893	518.88
1745.301	513.88
1749.705	507.88
1754.105	487.88
1758.501	474.88
1762.893	478.88
1767.28	462.88
1771.663	444.88
1776.042	456.88
1780.417	452.88
1784.787	437.88
1789.154	457.88
1793.516	455.88
1797.874	442.88
1802.228	448.88
1806.578	447.88
1810.924	441.88
1815.266	430.88
1819.603	436.88
1823.937	416.88
1828.266	414.88
1832.591	416.88
1836.913	404.88
1841.23	396.88
1845.543	414.88
1849.852	406.88
1854.156	397.88
1858.457	400.88
1862.754	410.88
1867.047	413.88
1871.335	414.88
1875.62	417.88
1879.9	413.88
1884.177	414.88
1888.449	413.88
1892.718	414.88
1896.982	399.88
1901.243	413.88
1905.499	405.88
1909.752	400.88
1914	407.88
1918.245	403.88
1922.485	413.88
1926.722	408.88
1930.954	417.88
1935.183	422.88
1939.408	415.88
1943.628	418.88
1947.845	416.88
1952.058	418.88
1956.267	410.88
1960.472	413.88
1964.673	406.88
1968.87	399.88
1973.063	388.88
1977.252	394.88
1981.438	399.88
1985.619	405.88
1989.797	381.88
1993.971	385.88
1998.14	383.88
2002.306	388.88
2006.469	399.88
2010.627	397.88
2014.781	399.88
2018.932	398.88
2023.078	400.88
2027.221	394.88
2031.36	397.88
2035.495	390.88
2039.627	382.88
2043.754	376.88
2047.878	375.88
2051.998	377.88
2056.114	374.88
2060.226	375.88
2064.334	392.88
2068.439	387.88
2072.54	387.88
2076.637	391.88
2080.73	399.88
2084.82	392.88
2088.906	390.88
2092.988	399.88
2097.066	393.88
2101.14	399.88
2105.211	378.88
2109.278	384.88
2113.342	381.88
2117.401	379.88
2121.457	383.88
2125.509	388.88
2129.558	386.88
2133.602	375.88
2137.643	375.88
2141.681	379.88
2145.714	370.88
2149.744	369.88
2153.77	369.88
2157.793	366.88
2161.812	358.88
2165.827	351.88
2169.838	350.88
2173.846	346.88
2177.851	337.88
2181.851	331.88
2185.848	331.88
2189.841	335.88
2193.831	320.88
2197.817	324.88
2201.799	327.88
2205.778	323.88
2209.753	319.88
2213.725	329.88
2217.693	314.88
2221.657	315.88
2225.618	322.88
2229.575	308.88
2233.529	314.88
2237.479	303.88
2241.425	303.88
2245.368	295.88
2249.307	300.88
2253.243	286.88
2257.175	289.88
2261.104	281.88
2265.029	279.88
2268.95	281.88
2272.868	277.88
2276.783	266.88
2280.694	257.88
2284.601	260.88
2288.505	263.88
2292.405	255.88
2296.302	248.88
2300.195	244.88
2304.085	245.88
2307.971	238.88
2311.854	238.88
2315.734	235.88
2319.609	228.88
2323.482	222.88
2327.351	222.88
2331.216	229.88
2335.078	223.88
2338.937	219.88
2342.792	211.88
2346.643	215.88
2350.492	214.88
2354.336	213.88
2358.178	213.88
2362.015	200.88
2365.85	213.88
2369.681	205.88
2373.508	205.88
2377.333	205.88
2381.153	208.88
2384.971	204.88
2388.785	216.88
2392.595	205.88
2396.402	207.88
2400.206	205.88
2404.007	202.88
2407.804	207.88
2411.597	202.88
2415.388	197.88
2419.174	196.88
2422.958	201.88
2426.738	202.88
2430.515	195.88
2434.289	190.88
2438.059	192.88
2441.825	197.88
2445.589	199.88
2449.349	194.88
2453.106	184.88
2456.859	187.88
2460.61	182.88
2464.356	182.88
2468.1	180.88
2471.84	179.88
2475.577	180.88
2479.311	180.88
2483.041	173.88
2486.768	181.88
2490.492	179.88
2494.213	179.88
2497.93	171.88
2501.644	177.88
2505.355	182.88
2509.062	176.88
2512.766	169.88
2516.467	182.88
2520.165	174.88
2523.859	172.88
2527.551	178.88
2531.239	175.88
2534.923	176.88
2538.605	166.88
2542.283	168.88
2545.958	158.88
2549.63	164.88
2553.299	159.88
2556.964	151.88
2560.626	161.88
2564.285	161.88
2567.941	164.88
2571.594	161.88
2575.243	163.88
2578.89	158.88
2582.533	149.88
2586.173	148.88
2589.809	145.88
2593.443	148.88
2597.073	149.88
2600.701	142.88
2604.325	148.88
2607.946	150.88
2611.564	154.88
2615.178	145.88
2618.79	150.88
2622.398	140.88
2626.004	136.88
2629.606	142.88
2633.205	133.88
2636.801	137.88
2640.394	136.88
2643.983	141.88
2647.57	137.88
2651.153	134.88
2654.734	133.88
2658.311	135.88
2661.885	135.88
2665.456	133.88
2669.025	122.88
2672.589	127.88
2676.151	121.88
2679.71	123.88
2683.266	124.88
2686.819	110.88
2690.368	119.88
2693.915	115.88
2697.458	118.88
2700.999	116.88
2704.536	116.88
2708.071	115.88
2711.602	118.88
2715.13	113.88
2718.656	107.88
2722.178	113.88
2725.697	111.88
2729.214	117.88
2732.727	115.88
2736.237	117.88
2739.744	114.88
2743.249	110.88
2746.75	111.88
2750.248	109.88
2753.743	118.88
2757.236	112.88
2760.725	111.88
2764.211	111.88
2767.695	114.88
2771.175	105.88
2774.652	119.88
2778.127	113.88
2781.598	117.88
2785.067	114.88
2788.532	115.88
2791.995	111.88
2795.455	114.88
2798.911	112.88
2802.365	111.88
2805.816	116.88
2809.264	111.88
2812.709	113.88
2816.151	116.88
2819.59	117.88
2823.026	116.88
2826.46	119.88
2829.89	117.88
2833.318	117.88
2836.742	119.88
2840.164	119.88
2843.583	127.88
2846.999	125.88
2850.412	124.88
2853.822	125.88
2857.229	127.88
2860.634	132.88
2864.035	131.88
2867.434	131.88
2870.83	134.88
2874.223	134.88
2877.613	132.88
2881	134.88
2884.385	143.88
2887.766	141.88
2891.145	142.88
2894.521	142.88
2897.894	148.88
2901.264	145.88
2904.631	144.88
2907.996	150.88
2911.358	148.88
2914.717	150.88
2918.073	152.88
2921.426	160.88
2924.777	164.88
2928.124	162.88
2931.469	169.88
2934.811	170.88
2938.15	166.88
2941.487	178.88
2944.821	180.88
2948.152	179.88
2951.48	185.88
2954.805	181.88
2958.128	195.88
2961.447	200.88
2964.765	204.88
2968.079	205.88
2971.39	205.88
2974.699	213.88
2978.005	215.88
2981.308	215.88
2984.609	233.88
2987.907	229.88
2991.202	242.88
2994.494	252.88
2997.784	249.88
3001.07	266.88
3004.355	270.88
3007.636	281.88
3010.915	292.88
3014.191	291.88
3017.464	298.88
3020.734	301.88
3024.002	303.88
3027.267	308.88
3030.53	324.88
3033.789	334.88
3037.046	338.88
3040.301	338.88
3043.552	350.88
3046.801	359.88
3050.048	364.88
3053.291	382.88
3056.532	401.88
3059.771	406.88
3063.006	421.88
3066.239	435.88
3069.469	442.88
3072.697	456.88
3075.922	460.88
3079.144	481.88
3082.364	492.88
3085.581	504.88
3088.795	508.88
3092.007	528.88
3095.216	544.88
3098.423	552.88
3101.627	563.88
3104.828	584.88
3108.026	596.88
3111.222	617.88
3114.416	632.88
3117.607	642.88
3120.795	656.88
3123.98	668.88
3127.163	676.88
3130.344	707.88
3133.521	728.88
3136.696	730.88
3139.869	745.88
3143.039	747.88
3146.206	787.88
3149.371	790.88
3152.533	797.88
3155.693	794.88
3158.85	803.88
3162.005	805.88
3165.157	807.88
3168.306	818.88
3171.453	816.88
3174.597	825.88
3177.739	823.88
3180.878	831.88
3184.014	832.88
3187.149	828.88
3190.28	835.88
3193.409	839.88
3196.536	843.88
3199.659	838.88
3202.781	838.88
3205.9	844.88
3209.016	846.88
3212.13	838.88
3215.241	824.88
3218.35	823.88
3221.456	819.88
3224.56	825.88
3227.661	815.88
3230.76	798.88
3233.856	802.88
3236.95	792.88
3240.041	779.88
3243.13	777.88
3246.216	765.88
3249.3	775.88
3252.382	759.88
3255.46	767.88
3258.537	760.88
3261.611	757.88
3264.682	751.88
3267.751	741.88
3270.818	743.88
3273.882	740.88
3276.943	737.88
3280.002	731.88
3283.059	725.88
3286.113	714.88
3289.165	707.88
3292.214	701.88
3295.261	678.88
3298.306	673.88
3301.348	653.88
3304.387	654.88
3307.425	644.88
3310.459	633.88
3313.492	618.88
3316.521	612.88
3319.549	616.88
3322.574	606.88
3325.597	604.88
3328.617	601.88
3331.635	613.88
3334.65	594.88
3337.663	598.88
3340.674	584.88
3343.682	594.88
3346.688	585.88
3349.691	577.88
3352.692	578.88
3355.691	562.88
3358.687	576.88
3361.681	567.88
3364.673	558.88
3367.662	542.88
3370.649	543.88
3373.633	541.88
3376.615	528.88
3379.595	525.88
3382.572	510.88
3385.547	504.88
3388.52	508.88
3391.49	490.88
3394.458	491.88
3397.424	483.88
3400.387	475.88
3403.348	466.88
3406.307	461.88
3409.263	453.88
3412.217	447.88
3415.168	442.88
3418.118	442.88
3421.065	442.88
3424.009	445.88
3426.951	428.88
3429.891	415.88
3432.829	418.88
3435.764	400.88
3438.697	389.88
3441.628	382.88
3444.557	368.88
3447.483	358.88
3450.407	358.88
3453.328	342.88
3456.247	338.88
3459.164	327.88
3462.079	318.88
3464.991	305.88
3467.902	299.88
3470.809	291.88
3473.715	277.88
3476.618	276.88
3479.519	268.88
3482.418	250.88
3485.315	245.88
3488.209	237.88
3491.101	238.88
3493.99	228.88
3496.878	221.88
3499.763	218.88
3502.646	203.88
3505.527	197.88
3508.405	183.88
3511.281	175.88
3514.155	174.88
3517.027	160.88
3519.897	154.88
3522.764	150.88
3525.629	143.88
3528.492	130.88
3531.352	128.88
3534.211	119.88
3537.067	111.88
3539.921	104.88
3542.773	93.88
3545.622	89.88
3548.469	85.88
3551.315	77.88
3554.157	71.88
3556.998	68.88
3559.837	68.88
3562.673	63.88
3565.507	58.88
3568.339	55.88
3571.169	46.88
3573.996	39.88
3576.822	39.88
3579.645	31.88
3582.466	32.88
3585.285	22.88
3588.101	25.88
3590.916	19.88
3593.728	19.88
3596.538	12.88
3599.346	5.88
3602.152	9.88
3604.956	5.88
3607.757	5.88
3610.556	-1.12
3613.354	-6.12
3616.149	-11.12
3618.942	-9.12
3621.732	-11.12
3624.521	-8.12
3627.307	-16.12
3630.092	-22.12
3632.874	-14.12
3635.654	-21.12
3638.432	-26.12
3641.208	-25.12
3643.982	-27.12
3646.753	-23.12
3649.523	-31.12
3652.29	-31.12
3655.055	-32.12
3657.818	-32.12
3660.579	-34.12
3663.338	-39.12
3666.095	-40.12
3668.849	-42.12
3671.602	-45.12
3674.352	-51.12
3677.101	-46.12
3679.847	-49.12
3682.591	-54.12
3685.333	-51.12
3688.073	-57.12
3690.811	-53.12
3693.547	-49.12
3696.281	-50.12
3699.013	-54.12
3701.742	-57.12
3704.47	-58.12
3707.195	-60.12
3709.919	-58.12
3712.64	-58.12
3715.359	-59.12
3718.076	-66.12
3720.792	-57.12
3723.505	-62.12
3726.216	-64.12
3728.925	-64.12
3731.632	-65.12
3734.336	-68.12
3737.039	-68.12
3739.74	-67.12
3742.439	-65.12
3745.136	-65.12
3747.83	-67.12
3750.523	-63.12
3753.213	-65.12
3755.902	-66.12
3758.589	-65.12
3761.273	-71.12
3763.956	-70.12
3766.636	-71.12
3769.315	-69.12
3771.991	-75.12
3774.665	-70.12
3777.338	-71.12
3780.008	-69.12
3782.677	-70.12
3785.343	-67.12
3788.007	-75.12
3790.67	-68.12
3793.33	-72.12
3795.989	-70.12
3798.645	-70.12
3801.299	-70.12
3803.952	-72.12
3806.602	-71.12
3809.251	-74.12
3811.897	-71.12
3814.542	-73.12
3817.184	-77.12
3819.825	-73.12
3822.463	-76.12
3825.1	-76.12
3827.735	-78.12
3830.367	-78.12
3832.998	-76.12
3835.627	-75.12
3838.253	-73.12
3840.878	-71.12
3843.501	-72.12
3846.122	-73.12
3848.741	-77.12
3851.358	-78.12
3853.973	-76.12
3856.586	-75.12
3859.197	-79.12
3861.806	-80.12
3864.414	-80.12
3867.019	-79.12
3869.622	-78.12
3872.224	-76.12
3874.823	-75.12
3877.421	-70.12
3880.016	-70.12
3882.61	-70.12
3885.202	-65.12
3887.792	-68.12
3890.38	-74.12
3892.966	-74.12
3895.55	-75.12
3898.132	-77.12
3900.713	-77.12
3903.291	-75.12
3905.868	-78.12
3908.442	-78.12
3911.015	-79.12
3913.586	-81.12
3916.155	-81.12
3918.722	-81.12
3921.287	-79.12
3923.85	-74.12
3926.411	-80.12
3928.971	-77.12
3931.528	-77.12
3934.084	-77.12
3936.638	-81.12
3939.19	-77.12
3941.74	-81.12
3944.288	-77.12
3946.834	-82.12
3949.378	-80.12
3951.921	-82.12
3954.462	-84.12
3957	-79.12
3959.537	-79.12
3962.072	-76.12
3964.606	-76.12
3967.137	-78.12
3969.667	-78.12
3972.194	-78.12
3974.72	-79.12
3977.244	-79.12
3979.766	-80.12
3982.286	-76.12
3984.805	-76.12
3987.321	-72.12
3989.836	-76.12
3992.349	-75.12
3994.86	-78.12
3997.369	-76.12
3999.877	-78.12
4002.382	-78.12
4004.886	-81.12
4007.388	-77.12
4009.888	-81.12
4012.386	-81.12
4014.883	-76.12
4017.377	-75.12
4019.87	-78.12
4022.361	-72.12
4024.85	-76.12
4027.338	-77.12
4029.823	-81.12
4032.307	-80.12
4034.789	-77.12
4037.269	-80.12
4039.747	-78.12
4042.224	-81.12
4044.699	-77.12
4047.172	-77.12
4049.643	-77.12
4052.112	-76.12
4054.58	-75.12
4057.046	-77.12
4059.51	-76.12
4061.972	-78.12
4064.432	-77.12
4066.891	-79.12
4069.348	-78.12
4071.803	-76.12
4074.256	-77.12
4076.708	-79.12
4079.158	-76.12
4081.606	-78.12
4084.052	-76.12
4086.497	-80.12
4088.939	-82.12
4091.38	-81.12
4093.819	-83.12
4096.257	-79.12
4098.693	-80.12
4101.127	-82.12
4103.559	-83.12
4105.989	-53.12
4108.418	-52.12
4110.845	-48.12
4113.27	-42.12
4115.694	-37.12
4118.115	-28.12
4120.535	-80.12
4122.954	-79.12
4125.37	-76.12
4127.785	-79.12
4130.198	-76.12
4132.609	-75.12
4135.019	-80.12
4137.427	-77.12
4139.833	-81.12
4142.237	-81.12
