Data from 10000000CFU3_B_RamanShift_1.txt Node
Date: Tue Jan 24 18:14:56 IST 2017
User: aro
Spectrometer: QEPB0276
Trigger mode: 0
Integration Time (sec): 5.000000E0
Scans to average: 1
Electric dark correction enabled: true
Nonlinearity correction enabled: false
Boxcar width: 0
XAxis mode: Raman Shifts
Number of Pixels in Spectrum: 1044
>>>>>Begin Spectral Data<<<<<
160.701	-32.12
166.742	-0.12
172.777	95.88
178.805	363.88
184.826	1042.88
190.841	2114.88
196.849	3358.88
202.85	4160.88
208.845	4333.88
214.833	4199.88
220.815	4038.88
226.789	3920.88
232.758	3853.88
238.719	3715.88
244.674	3565.88
250.623	3413.88
256.565	3268.88
262.5	3149.88
268.429	3008.88
274.351	2879.88
280.267	2777.88
286.176	2678.88
292.079	2579.88
297.975	2511.88
303.865	2437.88
309.748	2362.88
315.625	2307.88
321.495	2268.88
327.359	2230.88
333.217	2206.88
339.068	2173.88
344.912	2196.88
350.751	2153.88
356.583	2162.88
362.408	2171.88
368.227	2164.88
374.04	2178.88
379.847	2187.88
385.647	2175.88
391.44	2181.88
397.228	2221.88
403.009	2224.88
408.784	2228.88
414.553	2228.88
420.315	2254.88
426.071	2269.88
431.821	2234.88
437.565	2234.88
443.302	2226.88
449.033	2248.88
454.758	2222.88
460.477	2215.88
466.189	2222.88
471.896	2189.88
477.596	2188.88
483.29	2177.88
488.978	2164.88
494.66	2158.88
500.335	2136.88
506.005	2079.88
511.668	2048.88
517.325	2005.88
522.977	1972.88
528.622	1950.88
534.261	1943.88
539.894	1930.88
545.521	1900.88
551.141	1912.88
556.756	1878.88
562.365	1868.88
567.968	1861.88
573.565	1848.88
579.155	1833.88
584.74	1832.88
590.319	1822.88
595.892	1807.88
601.459	1794.88
607.02	1799.88
612.575	1771.88
618.124	1754.88
623.667	1746.88
629.204	1702.88
634.735	1708.88
640.261	1691.88
645.781	1680.88
651.294	1690.88
656.802	1672.88
662.304	1663.88
667.8	1660.88
673.29	1653.88
678.775	1638.88
684.254	1651.88
689.726	1637.88
695.193	1624.88
700.655	1602.88
706.11	1602.88
711.56	1590.88
717.004	1577.88
722.442	1568.88
727.874	1567.88
733.301	1543.88
738.722	1560.88
744.137	1548.88
749.547	1559.88
754.951	1540.88
760.349	1525.88
765.741	1535.88
771.128	1527.88
776.509	1546.88
781.885	1543.88
787.254	1527.88
792.618	1518.88
797.977	1520.88
803.33	1497.88
808.677	1505.88
814.019	1483.88
819.355	1480.88
824.686	1450.88
830.011	1438.88
835.33	1456.88
840.644	1438.88
845.952	1413.88
851.255	1419.88
856.552	1413.88
861.844	1427.88
867.13	1419.88
872.41	1414.88
877.686	1385.88
882.955	1375.88
888.219	1361.88
893.478	1334.88
898.731	1311.88
903.979	1287.88
909.221	1280.88
914.458	1264.88
919.69	1264.88
924.916	1270.88
930.136	1278.88
935.351	1285.88
940.561	1253.88
945.766	1254.88
950.965	1250.88
956.158	1247.88
961.347	1221.88
966.529	1215.88
971.707	1193.88
976.879	1191.88
982.046	1169.88
987.208	1160.88
992.364	1173.88
997.515	1170.88
1002.66	1172.88
1007.801	1192.88
1012.936	1204.88
1018.066	1206.88
1023.19	1220.88
1028.309	1225.88
1033.423	1211.88
1038.532	1221.88
1043.636	1212.88
1048.734	1182.88
1053.827	1177.88
1058.915	1168.88
1063.998	1161.88
1069.075	1165.88
1074.147	1154.88
1079.214	1164.88
1084.276	1185.88
1089.333	1187.88
1094.385	1207.88
1099.431	1204.88
1104.472	1200.88
1109.509	1198.88
1114.54	1193.88
1119.565	1174.88
1124.586	1156.88
1129.602	1140.88
1134.613	1153.88
1139.618	1120.88
1144.619	1131.88
1149.614	1140.88
1154.604	1144.88
1159.589	1158.88
1164.57	1154.88
1169.545	1163.88
1174.515	1154.88
1179.48	1170.88
1184.44	1143.88
1189.395	1150.88
1194.345	1147.88
1199.29	1130.88
1204.23	1129.88
1209.165	1143.88
1214.095	1144.88
1219.021	1158.88
1223.941	1179.88
1228.856	1186.88
1233.766	1181.88
1238.672	1185.88
1243.572	1190.88
1248.467	1182.88
1253.358	1172.88
1258.244	1137.88
1263.124	1140.88
1268	1124.88
1272.871	1097.88
1277.737	1099.88
1282.599	1108.88
1287.455	1102.88
1292.306	1098.88
1297.153	1109.88
1301.995	1137.88
1306.832	1123.88
1311.664	1131.88
1316.491	1127.88
1321.314	1120.88
1326.132	1121.88
1330.945	1115.88
1335.753	1096.88
1340.556	1085.88
1345.354	1083.88
1350.148	1063.88
1354.937	1070.88
1359.722	1073.88
1364.501	1041.88
1369.276	1025.88
1374.046	1024.88
1378.811	1026.88
1383.572	1018.88
1388.327	1023.88
1393.079	1022.88
1397.825	1007.88
1402.567	998.88
1407.304	993.88
1412.036	1003.88
1416.764	982.88
1421.487	991.88
1426.205	998.88
1430.919	1013.88
1435.628	1025.88
1440.333	1028.88
1445.032	1040.88
1449.727	1053.88
1454.418	1047.88
1459.104	1057.88
1463.785	1050.88
1468.462	1038.88
1473.134	1047.88
1477.802	1008.88
1482.465	1013.88
1487.123	1002.88
1491.777	1017.88
1496.426	1014.88
1501.071	1029.88
1505.711	1037.88
1510.347	1057.88
1514.978	1048.88
1519.604	1065.88
1524.226	1065.88
1528.844	1064.88
1533.457	1071.88
1538.065	1063.88
1542.669	1063.88
1547.269	1062.88
1551.864	1071.88
1556.454	1066.88
1561.041	1064.88
1565.622	1097.88
1570.199	1098.88
1574.772	1095.88
1579.34	1129.88
1583.904	1147.88
1588.464	1181.88
1593.019	1190.88
1597.569	1193.88
1602.115	1198.88
1606.657	1218.88
1611.195	1218.88
1615.728	1214.88
1620.256	1251.88
1624.78	1262.88
1629.3	1275.88
1633.816	1318.88
1638.327	1332.88
1642.834	1336.88
1647.336	1347.88
1651.834	1353.88
1656.328	1348.88
1660.817	1323.88
1665.302	1306.88
1669.783	1291.88
1674.259	1261.88
1678.732	1224.88
1683.199	1207.88
1687.663	1161.88
1692.122	1122.88
1696.577	1086.88
1701.028	1034.88
1705.474	998.88
1709.917	968.88
1714.355	943.88
1718.788	928.88
1723.218	925.88
1727.643	897.88
1732.064	881.88
1736.481	855.88
1740.893	831.88
1745.301	817.88
1749.705	797.88
1754.105	788.88
1758.501	762.88
1762.893	754.88
1767.28	750.88
1771.663	739.88
1776.042	725.88
1780.417	742.88
1784.787	739.88
1789.154	745.88
1793.516	735.88
1797.874	724.88
1802.228	731.88
1806.578	718.88
1810.924	717.88
1815.266	700.88
1819.603	686.88
1823.937	690.88
1828.266	670.88
1832.591	664.88
1836.913	653.88
1841.23	675.88
1845.543	667.88
1849.852	672.88
1854.156	664.88
1858.457	675.88
1862.754	678.88
1867.047	676.88
1871.335	693.88
1875.62	698.88
1879.9	673.88
1884.177	681.88
1888.449	687.88
1892.718	678.88
1896.982	673.88
1901.243	671.88
1905.499	680.88
1909.752	675.88
1914	674.88
1918.245	655.88
1922.485	672.88
1926.722	669.88
1930.954	676.88
1935.183	673.88
1939.408	689.88
1943.628	679.88
1947.845	692.88
1952.058	677.88
1956.267	681.88
1960.472	671.88
1964.673	658.88
1968.87	657.88
1973.063	649.88
1977.252	645.88
1981.438	639.88
1985.619	633.88
1989.797	625.88
1993.971	642.88
1998.14	635.88
2002.306	638.88
2006.469	650.88
2010.627	642.88
2014.781	660.88
2018.932	652.88
2023.078	658.88
2027.221	643.88
2031.36	647.88
2035.495	646.88
2039.627	634.88
2043.754	639.88
2047.878	634.88
2051.998	629.88
2056.114	617.88
2060.226	630.88
2064.334	641.88
2068.439	643.88
2072.54	647.88
2076.637	642.88
2080.73	654.88
2084.82	645.88
2088.906	653.88
2092.988	645.88
2097.066	640.88
2101.14	640.88
2105.211	646.88
2109.278	636.88
2113.342	630.88
2117.401	629.88
2121.457	620.88
2125.509	622.88
2129.558	626.88
2133.602	614.88
2137.643	628.88
2141.681	607.88
2145.714	612.88
2149.744	608.88
2153.77	606.88
2157.793	610.88
2161.812	588.88
2165.827	592.88
2169.838	577.88
2173.846	571.88
2177.851	565.88
2181.851	551.88
2185.848	555.88
2189.841	553.88
2193.831	538.88
2197.817	531.88
2201.799	544.88
2205.778	526.88
2209.753	534.88
2213.725	533.88
2217.693	537.88
2221.657	529.88
2225.618	539.88
2229.575	519.88
2233.529	518.88
2237.479	520.88
2241.425	512.88
2245.368	500.88
2249.307	503.88
2253.243	490.88
2257.175	483.88
2261.104	478.88
2265.029	484.88
2268.95	478.88
2272.868	461.88
2276.783	458.88
2280.694	455.88
2284.601	448.88
2288.505	431.88
2292.405	440.88
2296.302	426.88
2300.195	421.88
2304.085	420.88
2307.971	402.88
2311.854	406.88
2315.734	396.88
2319.609	398.88
2323.482	386.88
2327.351	392.88
2331.216	385.88
2335.078	390.88
2338.937	371.88
2342.792	378.88
2346.643	373.88
2350.492	373.88
2354.336	376.88
2358.178	375.88
2362.015	378.88
2365.85	373.88
2369.681	378.88
2373.508	364.88
2377.333	369.88
2381.153	364.88
2384.971	374.88
2388.785	371.88
2392.595	369.88
2396.402	368.88
2400.206	367.88
2404.007	367.88
2407.804	361.88
2411.597	363.88
2415.388	362.88
2419.174	356.88
2422.958	346.88
2426.738	348.88
2430.515	353.88
2434.289	351.88
2438.059	351.88
2441.825	343.88
2445.589	359.88
2449.349	337.88
2453.106	329.88
2456.859	340.88
2460.61	336.88
2464.356	331.88
2468.1	329.88
2471.84	322.88
2475.577	329.88
2479.311	320.88
2483.041	337.88
2486.768	326.88
2490.492	332.88
2494.213	331.88
2497.93	335.88
2501.644	329.88
2505.355	323.88
2509.062	317.88
2512.766	324.88
2516.467	308.88
2520.165	326.88
2523.859	325.88
2527.551	311.88
2531.239	311.88
2534.923	309.88
2538.605	307.88
2542.283	311.88
2545.958	294.88
2549.63	304.88
2553.299	302.88
2556.964	298.88
2560.626	296.88
2564.285	290.88
2567.941	300.88
2571.594	290.88
2575.243	293.88
2578.89	288.88
2582.533	280.88
2586.173	268.88
2589.809	283.88
2593.443	279.88
2597.073	274.88
2600.701	279.88
2604.325	269.88
2607.946	274.88
2611.564	278.88
2615.178	272.88
2618.79	271.88
2622.398	265.88
2626.004	263.88
2629.606	261.88
2633.205	257.88
2636.801	260.88
2640.394	254.88
2643.983	257.88
2647.57	246.88
2651.153	249.88
2654.734	246.88
2658.311	238.88
2661.885	247.88
2665.456	240.88
2669.025	244.88
2672.589	234.88
2676.151	232.88
2679.71	233.88
2683.266	230.88
2686.819	231.88
2690.368	229.88
2693.915	226.88
2697.458	225.88
2700.999	208.88
2704.536	215.88
2708.071	223.88
2711.602	215.88
2715.13	215.88
2718.656	216.88
2722.178	214.88
2725.697	215.88
2729.214	213.88
2732.727	219.88
2736.237	211.88
2739.744	213.88
2743.249	214.88
2746.75	211.88
2750.248	219.88
2753.743	214.88
2757.236	213.88
2760.725	204.88
2764.211	211.88
2767.695	211.88
2771.175	196.88
2774.652	206.88
2778.127	198.88
2781.598	203.88
2785.067	203.88
2788.532	209.88
2791.995	199.88
2795.455	201.88
2798.911	202.88
2802.365	204.88
2805.816	212.88
2809.264	206.88
2812.709	209.88
2816.151	199.88
2819.59	200.88
2823.026	198.88
2826.46	208.88
2829.89	212.88
2833.318	209.88
2836.742	218.88
2840.164	210.88
2843.583	208.88
2846.999	217.88
2850.412	217.88
2853.822	221.88
2857.229	222.88
2860.634	223.88
2864.035	230.88
2867.434	227.88
2870.83	231.88
2874.223	241.88
2877.613	235.88
2881	232.88
2884.385	237.88
2887.766	237.88
2891.145	235.88
2894.521	235.88
2897.894	235.88
2901.264	243.88
2904.631	246.88
2907.996	251.88
2911.358	250.88
2914.717	246.88
2918.073	255.88
2921.426	253.88
2924.777	269.88
2928.124	251.88
2931.469	271.88
2934.811	275.88
2938.15	283.88
2941.487	282.88
2944.821	278.88
2948.152	286.88
2951.48	296.88
2954.805	295.88
2958.128	307.88
2961.447	315.88
2964.765	306.88
2968.079	313.88
2971.39	325.88
2974.699	328.88
2978.005	331.88
2981.308	335.88
2984.609	353.88
2987.907	361.88
2991.202	368.88
2994.494	379.88
2997.784	388.88
3001.07	395.88
3004.355	410.88
3007.636	432.88
3010.915	427.88
3014.191	441.88
3017.464	445.88
3020.734	445.88
3024.002	461.88
3027.267	463.88
3030.53	468.88
3033.789	471.88
3037.046	495.88
3040.301	494.88
3043.552	506.88
3046.801	523.88
3050.048	531.88
3053.291	561.88
3056.532	552.88
3059.771	592.88
3063.006	599.88
3066.239	625.88
3069.469	648.88
3072.697	659.88
3075.922	685.88
3079.144	693.88
3082.364	697.88
3085.581	727.88
3088.795	739.88
3092.007	749.88
3095.216	787.88
3098.423	782.88
3101.627	811.88
3104.828	829.88
3108.026	839.88
3111.222	867.88
3114.416	880.88
3117.607	899.88
3120.795	921.88
3123.98	941.88
3127.163	964.88
3130.344	989.88
3133.521	1016.88
3136.696	1025.88
3139.869	1064.88
3143.039	1067.88
3146.206	1080.88
3149.371	1105.88
3152.533	1104.88
3155.693	1105.88
3158.85	1112.88
3162.005	1133.88
3165.157	1135.88
3168.306	1146.88
3171.453	1129.88
3174.597	1135.88
3177.739	1148.88
3180.878	1146.88
3184.014	1157.88
3187.149	1150.88
3190.28	1161.88
3193.409	1174.88
3196.536	1160.88
3199.659	1168.88
3202.781	1167.88
3205.9	1166.88
3209.016	1170.88
3212.13	1155.88
3215.241	1152.88
3218.35	1152.88
3221.456	1155.88
3224.56	1135.88
3227.661	1124.88
3230.76	1122.88
3233.856	1109.88
3236.95	1090.88
3240.041	1068.88
3243.13	1078.88
3246.216	1063.88
3249.3	1050.88
3252.382	1046.88
3255.46	1040.88
3258.537	1042.88
3261.611	1032.88
3264.682	1034.88
3267.751	1040.88
3270.818	1028.88
3273.882	1033.88
3276.943	1010.88
3280.002	1005.88
3283.059	1001.88
3286.113	987.88
3289.165	980.88
3292.214	964.88
3295.261	945.88
3298.306	935.88
3301.348	916.88
3304.387	906.88
3307.425	879.88
3310.459	881.88
3313.492	867.88
3316.521	862.88
3319.549	846.88
3322.574	837.88
3325.597	838.88
3328.617	842.88
3331.635	821.88
3334.65	826.88
3337.663	811.88
3340.674	818.88
3343.682	798.88
3346.688	812.88
3349.691	807.88
3352.692	793.88
3355.691	793.88
3358.687	786.88
3361.681	786.88
3364.673	765.88
3367.662	754.88
3370.649	746.88
3373.633	745.88
3376.615	728.88
3379.595	722.88
3382.572	709.88
3385.547	696.88
3388.52	694.88
3391.49	669.88
3394.458	674.88
3397.424	664.88
3400.387	651.88
3403.348	637.88
3406.307	632.88
3409.263	635.88
3412.217	620.88
3415.168	613.88
3418.118	592.88
3421.065	609.88
3424.009	601.88
3426.951	581.88
3429.891	589.88
3432.829	564.88
3435.764	544.88
3438.697	548.88
3441.628	536.88
3444.557	518.88
3447.483	493.88
3450.407	497.88
3453.328	473.88
3456.247	456.88
3459.164	439.88
3462.079	448.88
3464.991	427.88
3467.902	406.88
3470.809	390.88
3473.715	379.88
3476.618	368.88
3479.519	346.88
3482.418	345.88
3485.315	344.88
3488.209	326.88
3491.101	323.88
3493.99	322.88
3496.878	291.88
3499.763	289.88
3502.646	282.88
3505.527	273.88
3508.405	250.88
3511.281	243.88
3514.155	241.88
3517.027	226.88
3519.897	205.88
3522.764	205.88
3525.629	193.88
3528.492	184.88
3531.352	173.88
3534.211	164.88
3537.067	155.88
3539.921	140.88
3542.773	138.88
3545.622	125.88
3548.469	118.88
3551.315	110.88
3554.157	105.88
3556.998	87.88
3559.837	87.88
3562.673	82.88
3565.507	77.88
3568.339	77.88
3571.169	65.88
3573.996	58.88
3576.822	48.88
3579.645	47.88
3582.466	38.88
3585.285	39.88
3588.101	34.88
3590.916	33.88
3593.728	28.88
3596.538	27.88
3599.346	20.88
3602.152	13.88
3604.956	7.88
3607.757	0.88
3610.556	-4.12
3613.354	-7.12
3616.149	-6.12
3618.942	-7.12
3621.732	-14.12
3624.521	-18.12
3627.307	-17.12
3630.092	-24.12
3632.874	-23.12
3635.654	-25.12
3638.432	-31.12
3641.208	-33.12
3643.982	-31.12
3646.753	-34.12
3649.523	-36.12
3652.29	-40.12
3655.055	-41.12
3657.818	-43.12
3660.579	-45.12
3663.338	-53.12
3666.095	-56.12
3668.849	-55.12
3671.602	-53.12
3674.352	-61.12
3677.101	-63.12
3679.847	-67.12
3682.591	-69.12
3685.333	-64.12
3688.073	-71.12
3690.811	-69.12
3693.547	-65.12
3696.281	-68.12
3699.013	-74.12
3701.742	-75.12
3704.47	-75.12
3707.195	-78.12
3709.919	-78.12
3712.64	-75.12
3715.359	-78.12
3718.076	-83.12
3720.792	-79.12
3723.505	-80.12
3726.216	-83.12
3728.925	-85.12
3731.632	-87.12
3734.336	-86.12
3737.039	-88.12
3739.74	-90.12
3742.439	-88.12
3745.136	-86.12
3747.83	-85.12
3750.523	-82.12
3753.213	-88.12
3755.902	-88.12
3758.589	-86.12
3761.273	-88.12
3763.956	-90.12
3766.636	-93.12
3769.315	-93.12
3771.991	-97.12
3774.665	-94.12
3777.338	-97.12
3780.008	-93.12
3782.677	-92.12
3785.343	-94.12
3788.007	-97.12
3790.67	-96.12
3793.33	-96.12
3795.989	-93.12
3798.645	-92.12
3801.299	-95.12
3803.952	-93.12
3806.602	-94.12
3809.251	-96.12
3811.897	-98.12
3814.542	-95.12
3817.184	-94.12
3819.825	-98.12
3822.463	-101.12
3825.1	-98.12
3827.735	-101.12
3830.367	-102.12
3832.998	-101.12
3835.627	-97.12
3838.253	-99.12
3840.878	-92.12
3843.501	-96.12
3846.122	-95.12
3848.741	-100.12
3851.358	-102.12
3853.973	-102.12
3856.586	-97.12
3859.197	-101.12
3861.806	-103.12
3864.414	-104.12
3867.019	-102.12
3869.622	-101.12
3872.224	-100.12
3874.823	-101.12
3877.421	-94.12
3880.016	-95.12
3882.61	-94.12
3885.202	-94.12
3887.792	-91.12
3890.38	-96.12
3892.966	-96.12
3895.55	-100.12
3898.132	-104.12
3900.713	-99.12
3903.291	-100.12
3905.868	-100.12
3908.442	-101.12
3911.015	-106.12
3913.586	-105.12
3916.155	-107.12
3918.722	-107.12
3921.287	-110.12
3923.85	-106.12
3926.411	-106.12
3928.971	-104.12
3931.528	-103.12
3934.084	-102.12
3936.638	-104.12
3939.19	-106.12
3941.74	-105.12
3944.288	-103.12
3946.834	-107.12
3949.378	-104.12
3951.921	-106.12
3954.462	-110.12
3957	-102.12
3959.537	-107.12
3962.072	-104.12
3964.606	-102.12
3967.137	-106.12
3969.667	-108.12
3972.194	-107.12
3974.72	-104.12
3977.244	-105.12
3979.766	-106.12
3982.286	-101.12
3984.805	-101.12
3987.321	-99.12
3989.836	-98.12
3992.349	-101.12
3994.86	-104.12
3997.369	-101.12
3999.877	-105.12
4002.382	-100.12
4004.886	-106.12
4007.388	-104.12
4009.888	-105.12
4012.386	-105.12
4014.883	-99.12
4017.377	-98.12
4019.87	-99.12
4022.361	-99.12
4024.85	-103.12
4027.338	-101.12
4029.823	-103.12
4032.307	-106.12
4034.789	-104.12
4037.269	-103.12
4039.747	-106.12
4042.224	-108.12
4044.699	-105.12
4047.172	-104.12
4049.643	-104.12
4052.112	-102.12
4054.58	-100.12
4057.046	-102.12
4059.51	-101.12
4061.972	-109.12
4064.432	-104.12
4066.891	-105.12
4069.348	-102.12
4071.803	-103.12
4074.256	-104.12
4076.708	-104.12
4079.158	-105.12
4081.606	-102.12
4084.052	-105.12
4086.497	-104.12
4088.939	-110.12
4091.38	-106.12
4093.819	-107.12
4096.257	-105.12
4098.693	-105.12
4101.127	-110.12
4103.559	-110.12
4105.989	-75.12
4108.418	-67.12
4110.845	-62.12
4113.27	-57.12
4115.694	-50.12
4118.115	-45.12
4120.535	-105.12
4122.954	-105.12
4125.37	-102.12
4127.785	-104.12
4130.198	-102.12
4132.609	-102.12
4135.019	-105.12
4137.427	-103.12
4139.833	-109.12
4142.237	-110.12
