Data from 10000-000CFU2_B_RamanShift_1.txt Node
Date: Tue Jan 24 18:16:31 IST 2017
User: aro
Spectrometer: QEPB0276
Trigger mode: 0
Integration Time (sec): 5.000000E0
Scans to average: 1
Electric dark correction enabled: true
Nonlinearity correction enabled: false
Boxcar width: 0
XAxis mode: Raman Shifts
Number of Pixels in Spectrum: 1044
>>>>>Begin Spectral Data<<<<<
160.701	-22.62
166.742	0.38
172.777	74.38
178.805	272.38
184.826	754.38
190.841	1554.38
196.849	2425.38
202.85	2988.38
208.845	3137.38
214.833	3038.38
220.815	2913.38
226.789	2848.38
232.758	2766.38
238.719	2685.38
244.674	2585.38
250.623	2490.38
256.565	2375.38
262.5	2276.38
268.429	2177.38
274.351	2097.38
280.267	2010.38
286.176	1960.38
292.079	1903.38
297.975	1826.38
303.865	1783.38
309.748	1740.38
315.625	1695.38
321.495	1672.38
327.359	1654.38
333.217	1635.38
339.068	1610.38
344.912	1599.38
350.751	1621.38
356.583	1599.38
362.408	1601.38
368.227	1602.38
374.04	1607.38
379.847	1621.38
385.647	1629.38
391.44	1621.38
397.228	1646.38
403.009	1668.38
408.784	1650.38
414.553	1665.38
420.315	1670.38
426.071	1661.38
431.821	1669.38
437.565	1674.38
443.302	1658.38
449.033	1656.38
454.758	1648.38
460.477	1633.38
466.189	1631.38
471.896	1636.38
477.596	1624.38
483.29	1610.38
488.978	1604.38
494.66	1586.38
500.335	1562.38
506.005	1532.38
511.668	1496.38
517.325	1469.38
522.977	1442.38
528.622	1412.38
534.261	1408.38
539.894	1396.38
545.521	1381.38
551.141	1383.38
556.756	1358.38
562.365	1375.38
567.968	1335.38
573.565	1327.38
579.155	1329.38
584.74	1317.38
590.319	1311.38
595.892	1302.38
601.459	1287.38
607.02	1274.38
612.575	1271.38
618.124	1251.38
623.667	1245.38
629.204	1232.38
634.735	1232.38
640.261	1231.38
645.781	1211.38
651.294	1212.38
656.802	1199.38
662.304	1185.38
667.8	1191.38
673.29	1191.38
678.775	1189.38
684.254	1165.38
689.726	1169.38
695.193	1164.38
700.655	1153.38
706.11	1140.38
711.56	1129.38
717.004	1129.38
722.442	1127.38
727.874	1108.38
733.301	1106.38
738.722	1098.38
744.137	1104.38
749.547	1098.38
754.951	1104.38
760.349	1104.38
765.741	1101.38
771.128	1100.38
776.509	1100.38
781.885	1086.38
787.254	1094.38
792.618	1104.38
797.977	1092.38
803.33	1090.38
808.677	1073.38
814.019	1063.38
819.355	1056.38
824.686	1040.38
830.011	1036.38
835.33	1037.38
840.644	1018.38
845.952	1012.38
851.255	1022.38
856.552	1013.38
861.844	988.38
867.13	1001.38
872.41	975.38
877.686	990.38
882.955	968.38
888.219	961.38
893.478	946.38
898.731	923.38
903.979	908.38
909.221	906.38
914.458	892.38
919.69	891.38
924.916	896.38
930.136	895.38
935.351	892.38
940.561	877.38
945.766	886.38
950.965	875.38
956.158	874.38
961.347	857.38
966.529	861.38
971.707	828.38
976.879	820.38
982.046	813.38
987.208	815.38
992.364	810.38
997.515	822.38
1002.66	829.38
1007.801	826.38
1012.936	829.38
1018.066	850.38
1023.19	849.38
1028.309	859.38
1033.423	864.38
1038.532	828.38
1043.636	837.38
1048.734	832.38
1053.827	817.38
1058.915	823.38
1063.998	803.38
1069.075	809.38
1074.147	806.38
1079.214	796.38
1084.276	818.38
1089.333	832.38
1094.385	830.38
1099.431	841.38
1104.472	842.38
1109.509	835.38
1114.54	816.38
1119.565	811.38
1124.586	807.38
1129.602	794.38
1134.613	788.38
1139.618	794.38
1144.619	788.38
1149.614	793.38
1154.604	789.38
1159.589	804.38
1164.57	807.38
1169.545	808.38
1174.515	804.38
1179.48	805.38
1184.44	792.38
1189.395	792.38
1194.345	779.38
1199.29	784.38
1204.23	782.38
1209.165	792.38
1214.095	795.38
1219.021	797.38
1223.941	811.38
1228.856	808.38
1233.766	822.38
1238.672	814.38
1243.572	812.38
1248.467	809.38
1253.358	795.38
1258.244	779.38
1263.124	771.38
1268	772.38
1272.871	764.38
1277.737	764.38
1282.599	753.38
1287.455	756.38
1292.306	753.38
1297.153	773.38
1301.995	767.38
1306.832	756.38
1311.664	773.38
1316.491	782.38
1321.314	758.38
1326.132	761.38
1330.945	759.38
1335.753	750.38
1340.556	735.38
1345.354	743.38
1350.148	721.38
1354.937	720.38
1359.722	712.38
1364.501	701.38
1369.276	702.38
1374.046	697.38
1378.811	706.38
1383.572	693.38
1388.327	703.38
1393.079	717.38
1397.825	694.38
1402.567	685.38
1407.304	674.38
1412.036	677.38
1416.764	666.38
1421.487	674.38
1426.205	675.38
1430.919	673.38
1435.628	704.38
1440.333	685.38
1445.032	701.38
1449.727	718.38
1454.418	709.38
1459.104	715.38
1463.785	706.38
1468.462	697.38
1473.134	686.38
1477.802	693.38
1482.465	680.38
1487.123	680.38
1491.777	689.38
1496.426	682.38
1501.071	688.38
1505.711	697.38
1510.347	708.38
1514.978	707.38
1519.604	717.38
1524.226	717.38
1528.844	711.38
1533.457	719.38
1538.065	724.38
1542.669	722.38
1547.269	721.38
1551.864	712.38
1556.454	722.38
1561.041	736.38
1565.622	755.38
1570.199	749.38
1574.772	761.38
1579.34	772.38
1583.904	796.38
1588.464	804.38
1593.019	804.38
1597.569	817.38
1602.115	829.38
1606.657	829.38
1611.195	835.38
1615.728	844.38
1620.256	847.38
1624.78	864.38
1629.3	884.38
1633.816	883.38
1638.327	897.38
1642.834	909.38
1647.336	922.38
1651.834	933.38
1656.328	916.38
1660.817	907.38
1665.302	896.38
1669.783	887.38
1674.259	867.38
1678.732	833.38
1683.199	811.38
1687.663	783.38
1692.122	742.38
1696.577	736.38
1701.028	695.38
1705.474	678.38
1709.917	673.38
1714.355	648.38
1718.788	630.38
1723.218	619.38
1727.643	608.38
1732.064	592.38
1736.481	575.38
1740.893	562.38
1745.301	549.38
1749.705	534.38
1754.105	518.38
1758.501	514.38
1762.893	505.38
1767.28	486.38
1771.663	482.38
1776.042	486.38
1780.417	490.38
1784.787	482.38
1789.154	490.38
1793.516	484.38
1797.874	489.38
1802.228	494.38
1806.578	489.38
1810.924	479.38
1815.266	467.38
1819.603	466.38
1823.937	451.38
1828.266	448.38
1832.591	447.38
1836.913	439.38
1841.23	432.38
1845.543	436.38
1849.852	440.38
1854.156	437.38
1858.457	439.38
1862.754	448.38
1867.047	441.38
1871.335	441.38
1875.62	449.38
1879.9	447.38
1884.177	449.38
1888.449	444.38
1892.718	443.38
1896.982	440.38
1901.243	440.38
1905.499	439.38
1909.752	434.38
1914	444.38
1918.245	443.38
1922.485	441.38
1926.722	449.38
1930.954	450.38
1935.183	449.38
1939.408	460.38
1943.628	454.38
1947.845	453.38
1952.058	460.38
1956.267	452.38
1960.472	433.38
1964.673	442.38
1968.87	438.38
1973.063	433.38
1977.252	421.38
1981.438	427.38
1985.619	426.38
1989.797	422.38
1993.971	415.38
1998.14	427.38
2002.306	427.38
2006.469	425.38
2010.627	422.38
2014.781	429.38
2018.932	426.38
2023.078	432.38
2027.221	422.38
2031.36	429.38
2035.495	412.38
2039.627	422.38
2043.754	423.38
2047.878	415.38
2051.998	403.38
2056.114	411.38
2060.226	413.38
2064.334	414.38
2068.439	425.38
2072.54	429.38
2076.637	438.38
2080.73	430.38
2084.82	429.38
2088.906	436.38
2092.988	431.38
2097.066	431.38
2101.14	426.38
2105.211	424.38
2109.278	423.38
2113.342	422.38
2117.401	414.38
2121.457	405.38
2125.509	411.38
2129.558	414.38
2133.602	410.38
2137.643	411.38
2141.681	402.38
2145.714	404.38
2149.744	400.38
2153.77	401.38
2157.793	396.38
2161.812	384.38
2165.827	394.38
2169.838	388.38
2173.846	384.38
2177.851	360.38
2181.851	360.38
2185.848	361.38
2189.841	355.38
2193.831	355.38
2197.817	356.38
2201.799	343.38
2205.778	358.38
2209.753	339.38
2213.725	351.38
2217.693	357.38
2221.657	354.38
2225.618	346.38
2229.575	336.38
2233.529	342.38
2237.479	333.38
2241.425	332.38
2245.368	326.38
2249.307	320.38
2253.243	309.38
2257.175	315.38
2261.104	311.38
2265.029	306.38
2268.95	301.38
2272.868	304.38
2276.783	286.38
2280.694	288.38
2284.601	282.38
2288.505	281.38
2292.405	285.38
2296.302	282.38
2300.195	277.38
2304.085	277.38
2307.971	262.38
2311.854	258.38
2315.734	262.38
2319.609	251.38
2323.482	249.38
2327.351	246.38
2331.216	247.38
2335.078	238.38
2338.937	235.38
2342.792	234.38
2346.643	230.38
2350.492	226.38
2354.336	240.38
2358.178	241.38
2362.015	235.38
2365.85	230.38
2369.681	236.38
2373.508	231.38
2377.333	232.38
2381.153	226.38
2384.971	232.38
2388.785	226.38
2392.595	223.38
2396.402	229.38
2400.206	227.38
2404.007	236.38
2407.804	228.38
2411.597	226.38
2415.388	230.38
2419.174	222.38
2422.958	221.38
2426.738	218.38
2430.515	218.38
2434.289	217.38
2438.059	212.38
2441.825	218.38
2445.589	216.38
2449.349	212.38
2453.106	209.38
2456.859	211.38
2460.61	217.38
2464.356	203.38
2468.1	203.38
2471.84	204.38
2475.577	202.38
2479.311	208.38
2483.041	209.38
2486.768	208.38
2490.492	209.38
2494.213	209.38
2497.93	202.38
2501.644	198.38
2505.355	200.38
2509.062	204.38
2512.766	202.38
2516.467	194.38
2520.165	194.38
2523.859	198.38
2527.551	195.38
2531.239	193.38
2534.923	193.38
2538.605	191.38
2542.283	193.38
2545.958	188.38
2549.63	186.38
2553.299	183.38
2556.964	177.38
2560.626	188.38
2564.285	183.38
2567.941	186.38
2571.594	177.38
2575.243	172.38
2578.89	179.38
2582.533	176.38
2586.173	171.38
2589.809	176.38
2593.443	167.38
2597.073	177.38
2600.701	166.38
2604.325	163.38
2607.946	169.38
2611.564	163.38
2615.178	169.38
2618.79	165.38
2622.398	162.38
2626.004	152.38
2629.606	163.38
2633.205	157.38
2636.801	156.38
2640.394	156.38
2643.983	160.38
2647.57	156.38
2651.153	151.38
2654.734	156.38
2658.311	139.38
2661.885	154.38
2665.456	149.38
2669.025	147.38
2672.589	141.38
2676.151	147.38
2679.71	141.38
2683.266	147.38
2686.819	138.38
2690.368	140.38
2693.915	133.38
2697.458	139.38
2700.999	135.38
2704.536	136.38
2708.071	133.38
2711.602	128.38
2715.13	131.38
2718.656	126.38
2722.178	126.38
2725.697	128.38
2729.214	127.38
2732.727	131.38
2736.237	130.38
2739.744	133.38
2743.249	127.38
2746.75	134.38
2750.248	131.38
2753.743	129.38
2757.236	124.38
2760.725	131.38
2764.211	126.38
2767.695	129.38
2771.175	122.38
2774.652	131.38
2778.127	130.38
2781.598	137.38
2785.067	122.38
2788.532	128.38
2791.995	125.38
2795.455	124.38
2798.911	132.38
2802.365	127.38
2805.816	134.38
2809.264	134.38
2812.709	129.38
2816.151	125.38
2819.59	129.38
2823.026	134.38
2826.46	132.38
2829.89	133.38
2833.318	124.38
2836.742	137.38
2840.164	135.38
2843.583	142.38
2846.999	138.38
2850.412	141.38
2853.822	141.38
2857.229	147.38
2860.634	146.38
2864.035	145.38
2867.434	155.38
2870.83	153.38
2874.223	150.38
2877.613	143.38
2881	146.38
2884.385	154.38
2887.766	147.38
2891.145	151.38
2894.521	154.38
2897.894	161.38
2901.264	167.38
2904.631	158.38
2907.996	168.38
2911.358	163.38
2914.717	161.38
2918.073	161.38
2921.426	170.38
2924.777	180.38
2928.124	175.38
2931.469	180.38
2934.811	186.38
2938.15	185.38
2941.487	188.38
2944.821	187.38
2948.152	190.38
2951.48	202.38
2954.805	200.38
2958.128	209.38
2961.447	216.38
2964.765	216.38
2968.079	204.38
2971.39	222.38
2974.699	224.38
2978.005	235.38
2981.308	240.38
2984.609	241.38
2987.907	252.38
2991.202	252.38
2994.494	269.38
2997.784	275.38
3001.07	277.38
3004.355	283.38
3007.636	290.38
3010.915	300.38
3014.191	311.38
3017.464	317.38
3020.734	322.38
3024.002	316.38
3027.267	328.38
3030.53	338.38
3033.789	340.38
3037.046	352.38
3040.301	358.38
3043.552	359.38
3046.801	370.38
3050.048	378.38
3053.291	392.38
3056.532	409.38
3059.771	416.38
3063.006	425.38
3066.239	446.38
3069.469	457.38
3072.697	472.38
3075.922	485.38
3079.144	505.38
3082.364	522.38
3085.581	518.38
3088.795	530.38
3092.007	546.38
3095.216	553.38
3098.423	567.38
3101.627	585.38
3104.828	596.38
3108.026	613.38
3111.222	614.38
3114.416	631.38
3117.607	649.38
3120.795	663.38
3123.98	690.38
3127.163	691.38
3130.344	711.38
3133.521	736.38
3136.696	750.38
3139.869	771.38
3143.039	771.38
3146.206	793.38
3149.371	791.38
3152.533	807.38
3155.693	807.38
3158.85	814.38
3162.005	826.38
3165.157	826.38
3168.306	826.38
3171.453	821.38
3174.597	829.38
3177.739	827.38
3180.878	832.38
3184.014	829.38
3187.149	849.38
3190.28	849.38
3193.409	849.38
3196.536	847.38
3199.659	847.38
3202.781	848.38
3205.9	857.38
3209.016	856.38
3212.13	851.38
3215.241	847.38
3218.35	834.38
3221.456	835.38
3224.56	829.38
3227.661	821.38
3230.76	808.38
3233.856	803.38
3236.95	793.38
3240.041	800.38
3243.13	780.38
3246.216	774.38
3249.3	795.38
3252.382	777.38
3255.46	766.38
3258.537	762.38
3261.611	763.38
3264.682	770.38
3267.751	758.38
3270.818	755.38
3273.882	740.38
3276.943	743.38
3280.002	738.38
3283.059	734.38
3286.113	715.38
3289.165	722.38
3292.214	697.38
3295.261	692.38
3298.306	683.38
3301.348	669.38
3304.387	663.38
3307.425	654.38
3310.459	649.38
3313.492	630.38
3316.521	625.38
3319.549	626.38
3322.574	611.38
3325.597	606.38
3328.617	603.38
3331.635	591.38
3334.65	598.38
3337.663	586.38
3340.674	587.38
3343.682	586.38
3346.688	593.38
3349.691	594.38
3352.692	580.38
3355.691	576.38
3358.687	576.38
3361.681	575.38
3364.673	558.38
3367.662	545.38
3370.649	543.38
3373.633	534.38
3376.615	530.38
3379.595	529.38
3382.572	526.38
3385.547	510.38
3388.52	508.38
3391.49	495.38
3394.458	486.38
3397.424	482.38
3400.387	476.38
3403.348	461.38
3406.307	458.38
3409.263	465.38
3412.217	461.38
3415.168	462.38
3418.118	455.38
3421.065	451.38
3424.009	441.38
3426.951	429.38
3429.891	422.38
3432.829	417.38
3435.764	403.38
3438.697	391.38
3441.628	385.38
3444.557	373.38
3447.483	361.38
3450.407	361.38
3453.328	345.38
3456.247	340.38
3459.164	324.38
3462.079	318.38
3464.991	310.38
3467.902	291.38
3470.809	294.38
3473.715	277.38
3476.618	277.38
3479.519	257.38
3482.418	252.38
3485.315	247.38
3488.209	242.38
3491.101	234.38
3493.99	230.38
3496.878	222.38
3499.763	214.38
3502.646	204.38
3505.527	199.38
3508.405	184.38
3511.281	182.38
3514.155	172.38
3517.027	169.38
3519.897	153.38
3522.764	153.38
3525.629	141.38
3528.492	133.38
3531.352	120.38
3534.211	122.38
3537.067	111.38
3539.921	104.38
3542.773	98.38
3545.622	89.38
3548.469	87.38
3551.315	87.38
3554.157	80.38
3556.998	74.38
3559.837	67.38
3562.673	60.38
3565.507	59.38
3568.339	58.38
3571.169	44.38
3573.996	48.38
3576.822	38.38
3579.645	25.38
3582.466	33.38
3585.285	30.38
3588.101	23.38
3590.916	18.38
3593.728	18.38
3596.538	16.38
3599.346	13.38
3602.152	11.38
3604.956	4.38
3607.757	1.38
3610.556	-4.62
3613.354	-9.62
3616.149	-10.62
3618.942	-8.62
3621.732	-8.62
3624.521	-18.62
3627.307	-14.62
3630.092	-21.62
3632.874	-19.62
3635.654	-19.62
3638.432	-20.62
3641.208	-23.62
3643.982	-23.62
3646.753	-27.62
3649.523	-33.62
3652.29	-32.62
3655.055	-33.62
3657.818	-36.62
3660.579	-34.62
3663.338	-41.62
3666.095	-39.62
3668.849	-42.62
3671.602	-42.62
3674.352	-48.62
3677.101	-52.62
3679.847	-48.62
3682.591	-51.62
3685.333	-49.62
3688.073	-53.62
3690.811	-50.62
3693.547	-48.62
3696.281	-51.62
3699.013	-57.62
3701.742	-57.62
3704.47	-58.62
3707.195	-61.62
3709.919	-59.62
3712.64	-61.62
3715.359	-57.62
3718.076	-62.62
3720.792	-63.62
3723.505	-60.62
3726.216	-60.62
3728.925	-62.62
3731.632	-61.62
3734.336	-63.62
3737.039	-66.62
3739.74	-67.62
3742.439	-66.62
3745.136	-65.62
3747.83	-64.62
3750.523	-63.62
3753.213	-66.62
3755.902	-65.62
3758.589	-65.62
3761.273	-66.62
3763.956	-69.62
3766.636	-70.62
3769.315	-73.62
3771.991	-71.62
3774.665	-69.62
3777.338	-68.62
3780.008	-70.62
3782.677	-65.62
3785.343	-70.62
3788.007	-76.62
3790.67	-70.62
3793.33	-71.62
3795.989	-71.62
3798.645	-73.62
3801.299	-72.62
3803.952	-70.62
3806.602	-73.62
3809.251	-74.62
3811.897	-72.62
3814.542	-71.62
3817.184	-71.62
3819.825	-70.62
3822.463	-72.62
3825.1	-71.62
3827.735	-73.62
3830.367	-76.62
3832.998	-77.62
3835.627	-74.62
3838.253	-74.62
3840.878	-73.62
3843.501	-71.62
3846.122	-74.62
3848.741	-77.62
3851.358	-78.62
3853.973	-76.62
3856.586	-75.62
3859.197	-75.62
3861.806	-76.62
3864.414	-75.62
3867.019	-75.62
3869.622	-73.62
3872.224	-72.62
3874.823	-73.62
3877.421	-71.62
3880.016	-65.62
3882.61	-71.62
3885.202	-69.62
3887.792	-71.62
3890.38	-77.62
3892.966	-77.62
3895.55	-77.62
3898.132	-77.62
3900.713	-76.62
3903.291	-74.62
3905.868	-77.62
3908.442	-74.62
3911.015	-75.62
3913.586	-76.62
3916.155	-79.62
3918.722	-76.62
3921.287	-78.62
3923.85	-79.62
3926.411	-80.62
3928.971	-76.62
3931.528	-79.62
3934.084	-80.62
3936.638	-78.62
3939.19	-76.62
3941.74	-81.62
3944.288	-78.62
3946.834	-79.62
3949.378	-79.62
3951.921	-79.62
3954.462	-79.62
3957	-78.62
3959.537	-75.62
3962.072	-72.62
3964.606	-72.62
3967.137	-77.62
3969.667	-81.62
3972.194	-79.62
3974.72	-78.62
3977.244	-82.62
3979.766	-84.62
3982.286	-77.62
3984.805	-77.62
3987.321	-74.62
3989.836	-74.62
3992.349	-74.62
3994.86	-74.62
3997.369	-75.62
3999.877	-76.62
4002.382	-72.62
4004.886	-73.62
4007.388	-74.62
4009.888	-75.62
4012.386	-80.62
4014.883	-75.62
4017.377	-73.62
4019.87	-76.62
4022.361	-74.62
4024.85	-78.62
4027.338	-78.62
4029.823	-81.62
4032.307	-80.62
4034.789	-78.62
4037.269	-78.62
4039.747	-79.62
4042.224	-77.62
4044.699	-75.62
4047.172	-76.62
4049.643	-75.62
4052.112	-75.62
4054.58	-73.62
4057.046	-74.62
4059.51	-77.62
4061.972	-78.62
4064.432	-80.62
4066.891	-78.62
4069.348	-78.62
4071.803	-77.62
4074.256	-78.62
4076.708	-78.62
4079.158	-78.62
4081.606	-76.62
4084.052	-75.62
4086.497	-73.62
4088.939	-78.62
4091.38	-79.62
4093.819	-80.62
4096.257	-76.62
4098.693	-73.62
4101.127	-80.62
4103.559	-84.62
4105.989	-48.62
4108.418	-50.62
4110.845	-45.62
4113.27	-42.62
4115.694	-37.62
4118.115	-32.62
4120.535	-77.62
4122.954	-77.62
4125.37	-77.62
4127.785	-77.62
4130.198	-79.62
4132.609	-78.62
4135.019	-81.62
4137.427	-77.62
4139.833	-83.62
4142.237	-81.62
