Data from 100000CFU1_B_RamanShift_1.txt Node
Date: Tue Jan 24 18:07:11 IST 2017
User: aro
Spectrometer: QEPB0276
Trigger mode: 0
Integration Time (sec): 5.000000E0
Scans to average: 1
Electric dark correction enabled: true
Nonlinearity correction enabled: false
Boxcar width: 0
XAxis mode: Raman Shifts
Number of Pixels in Spectrum: 1044
>>>>>Begin Spectral Data<<<<<
160.701	-31.38
166.742	-1.38
172.777	98.62
178.805	396.62
184.826	1099.62
190.841	2264.62
196.849	3573.62
202.85	4431.62
208.845	4608.62
214.833	4501.62
220.815	4331.62
226.789	4210.62
232.758	4109.62
238.719	3976.62
244.674	3837.62
250.623	3656.62
256.565	3522.62
262.5	3345.62
268.429	3218.62
274.351	3091.62
280.267	2952.62
286.176	2872.62
292.079	2782.62
297.975	2699.62
303.865	2616.62
309.748	2544.62
315.625	2503.62
321.495	2453.62
327.359	2408.62
333.217	2386.62
339.068	2363.62
344.912	2348.62
350.751	2328.62
356.583	2321.62
362.408	2328.62
368.227	2327.62
374.04	2342.62
379.847	2338.62
385.647	2355.62
391.44	2385.62
397.228	2374.62
403.009	2386.62
408.784	2391.62
414.553	2401.62
420.315	2393.62
426.071	2429.62
431.821	2401.62
437.565	2397.62
443.302	2429.62
449.033	2408.62
454.758	2389.62
460.477	2385.62
466.189	2370.62
471.896	2366.62
477.596	2364.62
483.29	2345.62
488.978	2337.62
494.66	2314.62
500.335	2308.62
506.005	2275.62
511.668	2242.62
517.325	2167.62
522.977	2144.62
528.622	2128.62
534.261	2087.62
539.894	2075.62
545.521	2070.62
551.141	2060.62
556.756	2043.62
562.365	2046.62
567.968	2020.62
573.565	2003.62
579.155	2000.62
584.74	1991.62
590.319	1968.62
595.892	1960.62
601.459	1943.62
607.02	1956.62
612.575	1922.62
618.124	1911.62
623.667	1890.62
629.204	1866.62
634.735	1877.62
640.261	1841.62
645.781	1825.62
651.294	1829.62
656.802	1815.62
662.304	1808.62
667.8	1808.62
673.29	1798.62
678.775	1786.62
684.254	1789.62
689.726	1771.62
695.193	1785.62
700.655	1771.62
706.11	1747.62
711.56	1743.62
717.004	1721.62
722.442	1718.62
727.874	1707.62
733.301	1696.62
738.722	1689.62
744.137	1699.62
749.547	1686.62
754.951	1696.62
760.349	1696.62
765.741	1688.62
771.128	1682.62
776.509	1693.62
781.885	1696.62
787.254	1668.62
792.618	1672.62
797.977	1645.62
803.33	1678.62
808.677	1634.62
814.019	1623.62
819.355	1611.62
824.686	1601.62
830.011	1596.62
835.33	1586.62
840.644	1574.62
845.952	1568.62
851.255	1573.62
856.552	1570.62
861.844	1547.62
867.13	1551.62
872.41	1547.62
877.686	1530.62
882.955	1501.62
888.219	1467.62
893.478	1460.62
898.731	1447.62
903.979	1427.62
909.221	1418.62
914.458	1393.62
919.69	1397.62
924.916	1414.62
930.136	1415.62
935.351	1408.62
940.561	1383.62
945.766	1398.62
950.965	1397.62
956.158	1365.62
961.347	1354.62
966.529	1336.62
971.707	1330.62
976.879	1314.62
982.046	1316.62
987.208	1296.62
992.364	1297.62
997.515	1297.62
1002.66	1318.62
1007.801	1318.62
1012.936	1318.62
1018.066	1339.62
1023.19	1346.62
1028.309	1369.62
1033.423	1349.62
1038.532	1344.62
1043.636	1331.62
1048.734	1304.62
1053.827	1309.62
1058.915	1291.62
1063.998	1300.62
1069.075	1283.62
1074.147	1284.62
1079.214	1299.62
1084.276	1289.62
1089.333	1317.62
1094.385	1309.62
1099.431	1336.62
1104.472	1339.62
1109.509	1324.62
1114.54	1307.62
1119.565	1295.62
1124.586	1271.62
1129.602	1275.62
1134.613	1252.62
1139.618	1250.62
1144.619	1262.62
1149.614	1262.62
1154.604	1273.62
1159.589	1277.62
1164.57	1276.62
1169.545	1286.62
1174.515	1284.62
1179.48	1296.62
1184.44	1282.62
1189.395	1263.62
1194.345	1257.62
1199.29	1262.62
1204.23	1258.62
1209.165	1277.62
1214.095	1275.62
1219.021	1287.62
1223.941	1293.62
1228.856	1315.62
1233.766	1290.62
1238.672	1306.62
1243.572	1308.62
1248.467	1301.62
1253.358	1287.62
1258.244	1275.62
1263.124	1244.62
1268	1229.62
1272.871	1223.62
1277.737	1210.62
1282.599	1203.62
1287.455	1201.62
1292.306	1220.62
1297.153	1230.62
1301.995	1259.62
1306.832	1245.62
1311.664	1257.62
1316.491	1253.62
1321.314	1241.62
1326.132	1232.62
1330.945	1211.62
1335.753	1221.62
1340.556	1201.62
1345.354	1202.62
1350.148	1190.62
1354.937	1172.62
1359.722	1163.62
1364.501	1154.62
1369.276	1146.62
1374.046	1123.62
1378.811	1136.62
1383.572	1133.62
1388.327	1128.62
1393.079	1129.62
1397.825	1112.62
1402.567	1104.62
1407.304	1108.62
1412.036	1111.62
1416.764	1091.62
1421.487	1095.62
1426.205	1108.62
1430.919	1115.62
1435.628	1113.62
1440.333	1128.62
1445.032	1155.62
1449.727	1154.62
1454.418	1144.62
1459.104	1170.62
1463.785	1141.62
1468.462	1151.62
1473.134	1135.62
1477.802	1134.62
1482.465	1119.62
1487.123	1131.62
1491.777	1118.62
1496.426	1126.62
1501.071	1126.62
1505.711	1156.62
1510.347	1147.62
1514.978	1157.62
1519.604	1171.62
1524.226	1174.62
1528.844	1178.62
1533.457	1174.62
1538.065	1167.62
1542.669	1167.62
1547.269	1177.62
1551.864	1163.62
1556.454	1162.62
1561.041	1177.62
1565.622	1195.62
1570.199	1195.62
1574.772	1224.62
1579.34	1232.62
1583.904	1258.62
1588.464	1291.62
1593.019	1299.62
1597.569	1314.62
1602.115	1318.62
1606.657	1331.62
1611.195	1326.62
1615.728	1355.62
1620.256	1350.62
1624.78	1400.62
1629.3	1409.62
1633.816	1413.62
1638.327	1427.62
1642.834	1453.62
1647.336	1464.62
1651.834	1470.62
1656.328	1459.62
1660.817	1446.62
1665.302	1460.62
1669.783	1401.62
1674.259	1383.62
1678.732	1347.62
1683.199	1320.62
1687.663	1263.62
1692.122	1222.62
1696.577	1177.62
1701.028	1141.62
1705.474	1102.62
1709.917	1073.62
1714.355	1039.62
1718.788	1013.62
1723.218	1007.62
1727.643	992.62
1732.064	974.62
1736.481	960.62
1740.893	932.62
1745.301	918.62
1749.705	890.62
1754.105	864.62
1758.501	860.62
1762.893	842.62
1767.28	830.62
1771.663	820.62
1776.042	812.62
1780.417	821.62
1784.787	823.62
1789.154	828.62
1793.516	822.62
1797.874	819.62
1802.228	816.62
1806.578	802.62
1810.924	789.62
1815.266	791.62
1819.603	767.62
1823.937	773.62
1828.266	760.62
1832.591	748.62
1836.913	739.62
1841.23	743.62
1845.543	737.62
1849.852	736.62
1854.156	753.62
1858.457	740.62
1862.754	754.62
1867.047	760.62
1871.335	767.62
1875.62	763.62
1879.9	758.62
1884.177	774.62
1888.449	765.62
1892.718	771.62
1896.982	751.62
1901.243	749.62
1905.499	744.62
1909.752	741.62
1914	746.62
1918.245	743.62
1922.485	755.62
1926.722	753.62
1930.954	746.62
1935.183	749.62
1939.408	768.62
1943.628	757.62
1947.845	761.62
1952.058	754.62
1956.267	748.62
1960.472	738.62
1964.673	739.62
1968.87	729.62
1973.063	728.62
1977.252	711.62
1981.438	718.62
1985.619	714.62
1989.797	705.62
1993.971	712.62
1998.14	709.62
2002.306	722.62
2006.469	725.62
2010.627	736.62
2014.781	725.62
2018.932	726.62
2023.078	723.62
2027.221	727.62
2031.36	722.62
2035.495	715.62
2039.627	713.62
2043.754	703.62
2047.878	692.62
2051.998	690.62
2056.114	708.62
2060.226	709.62
2064.334	719.62
2068.439	725.62
2072.54	714.62
2076.637	726.62
2080.73	727.62
2084.82	727.62
2088.906	730.62
2092.988	720.62
2097.066	712.62
2101.14	721.62
2105.211	708.62
2109.278	708.62
2113.342	703.62
2117.401	697.62
2121.457	690.62
2125.509	692.62
2129.558	694.62
2133.602	688.62
2137.643	679.62
2141.681	691.62
2145.714	677.62
2149.744	668.62
2153.77	667.62
2157.793	675.62
2161.812	645.62
2165.827	653.62
2169.838	651.62
2173.846	645.62
2177.851	624.62
2181.851	622.62
2185.848	606.62
2189.841	615.62
2193.831	607.62
2197.817	605.62
2201.799	585.62
2205.778	600.62
2209.753	591.62
2213.725	589.62
2217.693	589.62
2221.657	600.62
2225.618	583.62
2229.575	578.62
2233.529	589.62
2237.479	570.62
2241.425	572.62
2245.368	563.62
2249.307	560.62
2253.243	547.62
2257.175	543.62
2261.104	535.62
2265.029	532.62
2268.95	517.62
2272.868	523.62
2276.783	516.62
2280.694	505.62
2284.601	493.62
2288.505	493.62
2292.405	490.62
2296.302	484.62
2300.195	485.62
2304.085	474.62
2307.971	464.62
2311.854	458.62
2315.734	452.62
2319.609	437.62
2323.482	429.62
2327.351	429.62
2331.216	424.62
2335.078	433.62
2338.937	420.62
2342.792	415.62
2346.643	411.62
2350.492	417.62
2354.336	424.62
2358.178	417.62
2362.015	419.62
2365.85	412.62
2369.681	410.62
2373.508	419.62
2377.333	415.62
2381.153	417.62
2384.971	422.62
2388.785	417.62
2392.595	407.62
2396.402	405.62
2400.206	408.62
2404.007	409.62
2407.804	400.62
2411.597	396.62
2415.388	401.62
2419.174	396.62
2422.958	396.62
2426.738	386.62
2430.515	392.62
2434.289	392.62
2438.059	392.62
2441.825	395.62
2445.589	392.62
2449.349	389.62
2453.106	391.62
2456.859	388.62
2460.61	379.62
2464.356	363.62
2468.1	367.62
2471.84	363.62
2475.577	368.62
2479.311	360.62
2483.041	369.62
2486.768	367.62
2490.492	366.62
2494.213	363.62
2497.93	363.62
2501.644	359.62
2505.355	351.62
2509.062	353.62
2512.766	366.62
2516.467	355.62
2520.165	359.62
2523.859	355.62
2527.551	363.62
2531.239	347.62
2534.923	347.62
2538.605	347.62
2542.283	342.62
2545.958	343.62
2549.63	346.62
2553.299	330.62
2556.964	325.62
2560.626	321.62
2564.285	320.62
2567.941	324.62
2571.594	331.62
2575.243	321.62
2578.89	323.62
2582.533	316.62
2586.173	311.62
2589.809	316.62
2593.443	306.62
2597.073	312.62
2600.701	309.62
2604.325	300.62
2607.946	308.62
2611.564	309.62
2615.178	297.62
2618.79	301.62
2622.398	294.62
2626.004	294.62
2629.606	285.62
2633.205	284.62
2636.801	295.62
2640.394	282.62
2643.983	283.62
2647.57	287.62
2651.153	270.62
2654.734	281.62
2658.311	270.62
2661.885	276.62
2665.456	270.62
2669.025	266.62
2672.589	269.62
2676.151	260.62
2679.71	260.62
2683.266	259.62
2686.819	248.62
2690.368	247.62
2693.915	247.62
2697.458	251.62
2700.999	248.62
2704.536	246.62
2708.071	237.62
2711.602	240.62
2715.13	241.62
2718.656	241.62
2722.178	237.62
2725.697	239.62
2729.214	242.62
2732.727	233.62
2736.237	239.62
2739.744	235.62
2743.249	236.62
2746.75	237.62
2750.248	240.62
2753.743	241.62
2757.236	235.62
2760.725	230.62
2764.211	236.62
2767.695	228.62
2771.175	231.62
2774.652	229.62
2778.127	233.62
2781.598	226.62
2785.067	229.62
2788.532	236.62
2791.995	229.62
2795.455	227.62
2798.911	232.62
2802.365	233.62
2805.816	234.62
2809.264	232.62
2812.709	232.62
2816.151	230.62
2819.59	230.62
2823.026	230.62
2826.46	234.62
2829.89	228.62
2833.318	231.62
2836.742	236.62
2840.164	233.62
2843.583	237.62
2846.999	230.62
2850.412	242.62
2853.822	241.62
2857.229	242.62
2860.634	254.62
2864.035	248.62
2867.434	259.62
2870.83	258.62
2874.223	256.62
2877.613	259.62
2881	255.62
2884.385	266.62
2887.766	260.62
2891.145	256.62
2894.521	253.62
2897.894	261.62
2901.264	266.62
2904.631	259.62
2907.996	273.62
2911.358	272.62
2914.717	276.62
2918.073	273.62
2921.426	282.62
2924.777	288.62
2928.124	282.62
2931.469	292.62
2934.811	300.62
2938.15	304.62
2941.487	312.62
2944.821	310.62
2948.152	316.62
2951.48	310.62
2954.805	321.62
2958.128	316.62
2961.447	330.62
2964.765	337.62
2968.079	341.62
2971.39	349.62
2974.699	358.62
2978.005	365.62
2981.308	370.62
2984.609	391.62
2987.907	398.62
2991.202	392.62
2994.494	412.62
2997.784	424.62
3001.07	430.62
3004.355	444.62
3007.636	445.62
3010.915	461.62
3014.191	462.62
3017.464	469.62
3020.734	490.62
3024.002	494.62
3027.267	489.62
3030.53	514.62
3033.789	527.62
3037.046	537.62
3040.301	547.62
3043.552	558.62
3046.801	568.62
3050.048	580.62
3053.291	598.62
3056.532	602.62
3059.771	635.62
3063.006	645.62
3066.239	668.62
3069.469	688.62
3072.697	706.62
3075.922	730.62
3079.144	736.62
3082.364	775.62
3085.581	771.62
3088.795	797.62
3092.007	812.62
3095.216	828.62
3098.423	859.62
3101.627	873.62
3104.828	892.62
3108.026	914.62
3111.222	934.62
3114.416	943.62
3117.607	970.62
3120.795	985.62
3123.98	996.62
3127.163	1033.62
3130.344	1060.62
3133.521	1080.62
3136.696	1107.62
3139.869	1126.62
3143.039	1155.62
3146.206	1160.62
3149.371	1174.62
3152.533	1185.62
3155.693	1191.62
3158.85	1207.62
3162.005	1202.62
3165.157	1206.62
3168.306	1203.62
3171.453	1231.62
3174.597	1216.62
3177.739	1215.62
3180.878	1230.62
3184.014	1229.62
3187.149	1248.62
3190.28	1245.62
3193.409	1248.62
3196.536	1241.62
3199.659	1248.62
3202.781	1266.62
3205.9	1261.62
3209.016	1256.62
3212.13	1261.62
3215.241	1255.62
3218.35	1254.62
3221.456	1231.62
3224.56	1219.62
3227.661	1206.62
3230.76	1182.62
3233.856	1193.62
3236.95	1169.62
3240.041	1176.62
3243.13	1164.62
3246.216	1167.62
3249.3	1140.62
3252.382	1130.62
3255.46	1136.62
3258.537	1120.62
3261.611	1116.62
3264.682	1107.62
3267.751	1119.62
3270.818	1097.62
3273.882	1114.62
3276.943	1096.62
3280.002	1087.62
3283.059	1066.62
3286.113	1049.62
3289.165	1041.62
3292.214	1024.62
3295.261	1012.62
3298.306	1003.62
3301.348	991.62
3304.387	971.62
3307.425	939.62
3310.459	953.62
3313.492	921.62
3316.521	920.62
3319.549	909.62
3322.574	895.62
3325.597	886.62
3328.617	893.62
3331.635	882.62
3334.65	884.62
3337.663	874.62
3340.674	876.62
3343.682	856.62
3346.688	859.62
3349.691	859.62
3352.692	845.62
3355.691	849.62
3358.687	830.62
3361.681	831.62
3364.673	817.62
3367.662	808.62
3370.649	802.62
3373.633	801.62
3376.615	775.62
3379.595	766.62
3382.572	759.62
3385.547	735.62
3388.52	741.62
3391.49	737.62
3394.458	723.62
3397.424	705.62
3400.387	699.62
3403.348	690.62
3406.307	682.62
3409.263	677.62
3412.217	671.62
3415.168	656.62
3418.118	658.62
3421.065	648.62
3424.009	653.62
3426.951	623.62
3429.891	621.62
3432.829	610.62
3435.764	593.62
3438.697	578.62
3441.628	573.62
3444.557	559.62
3447.483	551.62
3450.407	520.62
3453.328	519.62
3456.247	503.62
3459.164	475.62
3462.079	462.62
3464.991	451.62
3467.902	440.62
3470.809	421.62
3473.715	406.62
3476.618	401.62
3479.519	381.62
3482.418	373.62
3485.315	367.62
3488.209	358.62
3491.101	347.62
3493.99	333.62
3496.878	330.62
3499.763	320.62
3502.646	308.62
3505.527	286.62
3508.405	277.62
3511.281	271.62
3514.155	256.62
3517.027	240.62
3519.897	242.62
3522.764	225.62
3525.629	203.62
3528.492	198.62
3531.352	180.62
3534.211	169.62
3537.067	160.62
3539.921	154.62
3542.773	143.62
3545.622	134.62
3548.469	135.62
3551.315	120.62
3554.157	109.62
3556.998	102.62
3559.837	91.62
3562.673	94.62
3565.507	86.62
3568.339	80.62
3571.169	72.62
3573.996	65.62
3576.822	56.62
3579.645	53.62
3582.466	42.62
3585.285	42.62
3588.101	36.62
3590.916	32.62
3593.728	26.62
3596.538	24.62
3599.346	16.62
3602.152	14.62
3604.956	13.62
3607.757	5.62
3610.556	0.62
3613.354	-3.38
3616.149	-6.38
3618.942	-10.38
3621.732	-14.38
3624.521	-19.38
3627.307	-18.38
3630.092	-20.38
3632.874	-22.38
3635.654	-25.38
3638.432	-31.38
3641.208	-34.38
3643.982	-39.38
3646.753	-39.38
3649.523	-44.38
3652.29	-49.38
3655.055	-46.38
3657.818	-48.38
3660.579	-49.38
3663.338	-55.38
3666.095	-55.38
3668.849	-55.38
3671.602	-61.38
3674.352	-70.38
3677.101	-66.38
3679.847	-69.38
3682.591	-73.38
3685.333	-68.38
3688.073	-74.38
3690.811	-74.38
3693.547	-68.38
3696.281	-76.38
3699.013	-81.38
3701.742	-81.38
3704.47	-80.38
3707.195	-85.38
3709.919	-86.38
3712.64	-82.38
3715.359	-84.38
3718.076	-89.38
3720.792	-84.38
3723.505	-84.38
3726.216	-85.38
3728.925	-89.38
3731.632	-86.38
3734.336	-90.38
3737.039	-95.38
3739.74	-95.38
3742.439	-95.38
3745.136	-96.38
3747.83	-97.38
3750.523	-94.38
3753.213	-98.38
3755.902	-98.38
3758.589	-96.38
3761.273	-95.38
3763.956	-95.38
3766.636	-95.38
3769.315	-97.38
3771.991	-103.38
3774.665	-99.38
3777.338	-98.38
3780.008	-98.38
3782.677	-98.38
3785.343	-101.38
3788.007	-103.38
3790.67	-103.38
3793.33	-104.38
3795.989	-105.38
3798.645	-103.38
3801.299	-103.38
3803.952	-102.38
3806.602	-103.38
3809.251	-105.38
3811.897	-101.38
3814.542	-99.38
3817.184	-102.38
3819.825	-101.38
3822.463	-106.38
3825.1	-105.38
3827.735	-106.38
3830.367	-107.38
3832.998	-108.38
3835.627	-110.38
3838.253	-105.38
3840.878	-109.38
3843.501	-103.38
3846.122	-106.38
3848.741	-111.38
3851.358	-109.38
3853.973	-109.38
3856.586	-103.38
3859.197	-106.38
3861.806	-108.38
3864.414	-108.38
3867.019	-104.38
3869.622	-107.38
3872.224	-104.38
3874.823	-106.38
3877.421	-99.38
3880.016	-99.38
3882.61	-102.38
3885.202	-97.38
3887.792	-101.38
3890.38	-108.38
3892.966	-110.38
3895.55	-111.38
3898.132	-113.38
3900.713	-112.38
3903.291	-110.38
3905.868	-108.38
3908.442	-111.38
3911.015	-109.38
3913.586	-109.38
3916.155	-108.38
3918.722	-113.38
3921.287	-113.38
3923.85	-111.38
3926.411	-114.38
3928.971	-111.38
3931.528	-111.38
3934.084	-112.38
3936.638	-116.38
3939.19	-115.38
3941.74	-115.38
3944.288	-117.38
3946.834	-114.38
3949.378	-114.38
3951.921	-116.38
3954.462	-115.38
3957	-111.38
3959.537	-108.38
3962.072	-109.38
3964.606	-107.38
3967.137	-109.38
3969.667	-110.38
3972.194	-112.38
3974.72	-111.38
3977.244	-115.38
3979.766	-116.38
3982.286	-112.38
3984.805	-112.38
3987.321	-106.38
3989.836	-109.38
3992.349	-108.38
3994.86	-113.38
3997.369	-108.38
3999.877	-110.38
4002.382	-110.38
4004.886	-108.38
4007.388	-109.38
4009.888	-110.38
4012.386	-111.38
4014.883	-110.38
4017.377	-106.38
4019.87	-106.38
4022.361	-107.38
4024.85	-109.38
4027.338	-111.38
4029.823	-113.38
4032.307	-114.38
4034.789	-113.38
4037.269	-109.38
4039.747	-114.38
4042.224	-113.38
4044.699	-109.38
4047.172	-111.38
4049.643	-107.38
4052.112	-109.38
4054.58	-109.38
4057.046	-108.38
4059.51	-112.38
4061.972	-111.38
4064.432	-114.38
4066.891	-112.38
4069.348	-109.38
4071.803	-111.38
4074.256	-115.38
4076.708	-112.38
4079.158	-110.38
4081.606	-112.38
4084.052	-111.38
4086.497	-112.38
4088.939	-114.38
4091.38	-112.38
4093.819	-114.38
4096.257	-113.38
4098.693	-109.38
4101.127	-115.38
4103.559	-115.38
4105.989	-80.38
4108.418	-75.38
4110.845	-65.38
4113.27	-66.38
4115.694	-53.38
4118.115	-47.38
4120.535	-113.38
4122.954	-111.38
4125.37	-113.38
4127.785	-110.38
4130.198	-110.38
4132.609	-110.38
4135.019	-117.38
4137.427	-113.38
4139.833	-115.38
4142.237	-116.38
