Data from 100000000CFU1_A_RamanShift_1.txt Node
Date: Tue Jan 24 17:43:36 IST 2017
User: aro
Spectrometer: QEPB0276
Trigger mode: 0
Integration Time (sec): 5.000000E0
Scans to average: 1
Electric dark correction enabled: true
Nonlinearity correction enabled: false
Boxcar width: 0
XAxis mode: Raman Shifts
Number of Pixels in Spectrum: 1044
>>>>>Begin Spectral Data<<<<<
160.701	-27.5
166.742	1.5
172.777	73.5
178.805	273.5
184.826	747.5
190.841	1552.5
196.849	2433.5
202.85	3019.5
208.845	3165.5
214.833	3061.5
220.815	2951.5
226.789	2866.5
232.758	2803.5
238.719	2707.5
244.674	2602.5
250.623	2514.5
256.565	2417.5
262.5	2307.5
268.429	2225.5
274.351	2137.5
280.267	2052.5
286.176	2006.5
292.079	1947.5
297.975	1879.5
303.865	1825.5
309.748	1792.5
315.625	1762.5
321.495	1722.5
327.359	1693.5
333.217	1683.5
339.068	1676.5
344.912	1672.5
350.751	1643.5
356.583	1657.5
362.408	1662.5
368.227	1664.5
374.04	1655.5
379.847	1679.5
385.647	1683.5
391.44	1673.5
397.228	1705.5
403.009	1712.5
408.784	1703.5
414.553	1704.5
420.315	1727.5
426.071	1727.5
431.821	1733.5
437.565	1738.5
443.302	1730.5
449.033	1712.5
454.758	1725.5
460.477	1688.5
466.189	1700.5
471.896	1674.5
477.596	1674.5
483.29	1672.5
488.978	1669.5
494.66	1656.5
500.335	1624.5
506.005	1594.5
511.668	1567.5
517.325	1557.5
522.977	1515.5
528.622	1482.5
534.261	1477.5
539.894	1452.5
545.521	1440.5
551.141	1442.5
556.756	1431.5
562.365	1411.5
567.968	1426.5
573.565	1418.5
579.155	1406.5
584.74	1379.5
590.319	1378.5
595.892	1369.5
601.459	1365.5
607.02	1363.5
612.575	1334.5
618.124	1330.5
623.667	1331.5
629.204	1311.5
634.735	1296.5
640.261	1290.5
645.781	1287.5
651.294	1266.5
656.802	1277.5
662.304	1274.5
667.8	1259.5
673.29	1262.5
678.775	1262.5
684.254	1249.5
689.726	1241.5
695.193	1232.5
700.655	1236.5
706.11	1214.5
711.56	1208.5
717.004	1216.5
722.442	1212.5
727.874	1199.5
733.301	1192.5
738.722	1186.5
744.137	1172.5
749.547	1176.5
754.951	1176.5
760.349	1155.5
765.741	1173.5
771.128	1172.5
776.509	1183.5
781.885	1176.5
787.254	1179.5
792.618	1158.5
797.977	1175.5
803.33	1149.5
808.677	1147.5
814.019	1127.5
819.355	1137.5
824.686	1126.5
830.011	1112.5
835.33	1112.5
840.644	1081.5
845.952	1107.5
851.255	1092.5
856.552	1076.5
861.844	1075.5
867.13	1086.5
872.41	1075.5
877.686	1055.5
882.955	1050.5
888.219	1033.5
893.478	1016.5
898.731	1007.5
903.979	996.5
909.221	979.5
914.458	971.5
919.69	984.5
924.916	965.5
930.136	965.5
935.351	976.5
940.561	973.5
945.766	968.5
950.965	967.5
956.158	944.5
961.347	936.5
966.529	941.5
971.707	934.5
976.879	915.5
982.046	906.5
987.208	896.5
992.364	890.5
997.515	897.5
1002.66	908.5
1007.801	922.5
1012.936	920.5
1018.066	938.5
1023.19	924.5
1028.309	934.5
1033.423	932.5
1038.532	917.5
1043.636	932.5
1048.734	920.5
1053.827	902.5
1058.915	898.5
1063.998	901.5
1069.075	881.5
1074.147	897.5
1079.214	906.5
1084.276	904.5
1089.333	907.5
1094.385	908.5
1099.431	924.5
1104.472	922.5
1109.509	927.5
1114.54	912.5
1119.565	903.5
1124.586	902.5
1129.602	874.5
1134.613	871.5
1139.618	870.5
1144.619	883.5
1149.614	883.5
1154.604	887.5
1159.589	874.5
1164.57	897.5
1169.545	888.5
1174.515	885.5
1179.48	883.5
1184.44	898.5
1189.395	870.5
1194.345	867.5
1199.29	869.5
1204.23	883.5
1209.165	877.5
1214.095	879.5
1219.021	886.5
1223.941	909.5
1228.856	899.5
1233.766	920.5
1238.672	903.5
1243.572	896.5
1248.467	919.5
1253.358	891.5
1258.244	882.5
1263.124	860.5
1268	837.5
1272.871	846.5
1277.737	844.5
1282.599	846.5
1287.455	842.5
1292.306	846.5
1297.153	858.5
1301.995	861.5
1306.832	861.5
1311.664	863.5
1316.491	869.5
1321.314	863.5
1326.132	852.5
1330.945	859.5
1335.753	843.5
1340.556	832.5
1345.354	813.5
1350.148	812.5
1354.937	802.5
1359.722	808.5
1364.501	800.5
1369.276	791.5
1374.046	782.5
1378.811	781.5
1383.572	790.5
1388.327	789.5
1393.079	788.5
1397.825	774.5
1402.567	770.5
1407.304	757.5
1412.036	761.5
1416.764	750.5
1421.487	759.5
1426.205	754.5
1430.919	770.5
1435.628	783.5
1440.333	782.5
1445.032	787.5
1449.727	793.5
1454.418	785.5
1459.104	787.5
1463.785	790.5
1468.462	788.5
1473.134	790.5
1477.802	767.5
1482.465	765.5
1487.123	769.5
1491.777	763.5
1496.426	752.5
1501.071	771.5
1505.711	790.5
1510.347	775.5
1514.978	804.5
1519.604	799.5
1524.226	812.5
1528.844	810.5
1533.457	797.5
1538.065	801.5
1542.669	809.5
1547.269	786.5
1551.864	789.5
1556.454	803.5
1561.041	808.5
1565.622	821.5
1570.199	828.5
1574.772	835.5
1579.34	852.5
1583.904	864.5
1588.464	865.5
1593.019	895.5
1597.569	891.5
1602.115	901.5
1606.657	910.5
1611.195	910.5
1615.728	924.5
1620.256	925.5
1624.78	940.5
1629.3	954.5
1633.816	965.5
1638.327	986.5
1642.834	987.5
1647.336	997.5
1651.834	995.5
1656.328	989.5
1660.817	986.5
1665.302	980.5
1669.783	945.5
1674.259	935.5
1678.732	918.5
1683.199	881.5
1687.663	855.5
1692.122	830.5
1696.577	791.5
1701.028	763.5
1705.474	748.5
1709.917	728.5
1714.355	715.5
1718.788	688.5
1723.218	684.5
1727.643	671.5
1732.064	659.5
1736.481	655.5
1740.893	639.5
1745.301	621.5
1749.705	610.5
1754.105	594.5
1758.501	589.5
1762.893	569.5
1767.28	568.5
1771.663	560.5
1776.042	559.5
1780.417	551.5
1784.787	552.5
1789.154	558.5
1793.516	564.5
1797.874	543.5
1802.228	554.5
1806.578	548.5
1810.924	545.5
1815.266	528.5
1819.603	529.5
1823.937	529.5
1828.266	509.5
1832.591	511.5
1836.913	509.5
1841.23	512.5
1845.543	504.5
1849.852	500.5
1854.156	505.5
1858.457	509.5
1862.754	507.5
1867.047	514.5
1871.335	509.5
1875.62	524.5
1879.9	524.5
1884.177	515.5
1888.449	523.5
1892.718	528.5
1896.982	515.5
1901.243	518.5
1905.499	508.5
1909.752	510.5
1914	518.5
1918.245	505.5
1922.485	512.5
1926.722	506.5
1930.954	513.5
1935.183	508.5
1939.408	522.5
1943.628	517.5
1947.845	516.5
1952.058	514.5
1956.267	513.5
1960.472	503.5
1964.673	495.5
1968.87	507.5
1973.063	490.5
1977.252	487.5
1981.438	481.5
1985.619	484.5
1989.797	477.5
1993.971	486.5
1998.14	487.5
2002.306	483.5
2006.469	492.5
2010.627	489.5
2014.781	481.5
2018.932	488.5
2023.078	505.5
2027.221	485.5
2031.36	501.5
2035.495	476.5
2039.627	477.5
2043.754	478.5
2047.878	469.5
2051.998	472.5
2056.114	471.5
2060.226	470.5
2064.334	473.5
2068.439	486.5
2072.54	482.5
2076.637	489.5
2080.73	492.5
2084.82	499.5
2088.906	485.5
2092.988	477.5
2097.066	480.5
2101.14	487.5
2105.211	477.5
2109.278	473.5
2113.342	472.5
2117.401	461.5
2121.457	466.5
2125.509	471.5
2129.558	461.5
2133.602	455.5
2137.643	458.5
2141.681	452.5
2145.714	440.5
2149.744	453.5
2153.77	450.5
2157.793	452.5
2161.812	436.5
2165.827	442.5
2169.838	433.5
2173.846	429.5
2177.851	421.5
2181.851	417.5
2185.848	410.5
2189.841	417.5
2193.831	406.5
2197.817	402.5
2201.799	403.5
2205.778	400.5
2209.753	396.5
2213.725	399.5
2217.693	411.5
2221.657	395.5
2225.618	397.5
2229.575	402.5
2233.529	391.5
2237.479	386.5
2241.425	375.5
2245.368	377.5
2249.307	366.5
2253.243	367.5
2257.175	369.5
2261.104	359.5
2265.029	359.5
2268.95	357.5
2272.868	351.5
2276.783	336.5
2280.694	338.5
2284.601	323.5
2288.505	323.5
2292.405	323.5
2296.302	317.5
2300.195	318.5
2304.085	316.5
2307.971	314.5
2311.854	310.5
2315.734	299.5
2319.609	299.5
2323.482	292.5
2327.351	289.5
2331.216	291.5
2335.078	290.5
2338.937	280.5
2342.792	275.5
2346.643	281.5
2350.492	272.5
2354.336	281.5
2358.178	271.5
2362.015	276.5
2365.85	274.5
2369.681	276.5
2373.508	276.5
2377.333	276.5
2381.153	281.5
2384.971	281.5
2388.785	280.5
2392.595	272.5
2396.402	272.5
2400.206	269.5
2404.007	271.5
2407.804	269.5
2411.597	274.5
2415.388	264.5
2419.174	261.5
2422.958	254.5
2426.738	265.5
2430.515	263.5
2434.289	263.5
2438.059	260.5
2441.825	252.5
2445.589	258.5
2449.349	258.5
2453.106	255.5
2456.859	250.5
2460.61	250.5
2464.356	239.5
2468.1	245.5
2471.84	246.5
2475.577	230.5
2479.311	242.5
2483.041	237.5
2486.768	243.5
2490.492	244.5
2494.213	252.5
2497.93	246.5
2501.644	246.5
2505.355	242.5
2509.062	250.5
2512.766	239.5
2516.467	230.5
2520.165	238.5
2523.859	245.5
2527.551	236.5
2531.239	232.5
2534.923	227.5
2538.605	232.5
2542.283	231.5
2545.958	211.5
2549.63	227.5
2553.299	219.5
2556.964	213.5
2560.626	227.5
2564.285	220.5
2567.941	224.5
2571.594	221.5
2575.243	218.5
2578.89	214.5
2582.533	206.5
2586.173	204.5
2589.809	207.5
2593.443	209.5
2597.073	199.5
2600.701	198.5
2604.325	199.5
2607.946	202.5
2611.564	198.5
2615.178	200.5
2618.79	200.5
2622.398	202.5
2626.004	202.5
2629.606	193.5
2633.205	190.5
2636.801	197.5
2640.394	184.5
2643.983	191.5
2647.57	181.5
2651.153	179.5
2654.734	179.5
2658.311	172.5
2661.885	181.5
2665.456	177.5
2669.025	177.5
2672.589	182.5
2676.151	178.5
2679.71	172.5
2683.266	168.5
2686.819	164.5
2690.368	164.5
2693.915	170.5
2697.458	169.5
2700.999	161.5
2704.536	163.5
2708.071	160.5
2711.602	161.5
2715.13	155.5
2718.656	162.5
2722.178	155.5
2725.697	153.5
2729.214	158.5
2732.727	153.5
2736.237	163.5
2739.744	161.5
2743.249	163.5
2746.75	161.5
2750.248	158.5
2753.743	155.5
2757.236	154.5
2760.725	148.5
2764.211	149.5
2767.695	150.5
2771.175	149.5
2774.652	149.5
2778.127	146.5
2781.598	144.5
2785.067	150.5
2788.532	154.5
2791.995	152.5
2795.455	151.5
2798.911	152.5
2802.365	150.5
2805.816	152.5
2809.264	163.5
2812.709	146.5
2816.151	149.5
2819.59	148.5
2823.026	155.5
2826.46	154.5
2829.89	154.5
2833.318	154.5
2836.742	158.5
2840.164	155.5
2843.583	155.5
2846.999	152.5
2850.412	157.5
2853.822	163.5
2857.229	162.5
2860.634	167.5
2864.035	159.5
2867.434	168.5
2870.83	168.5
2874.223	168.5
2877.613	167.5
2881	165.5
2884.385	173.5
2887.766	173.5
2891.145	173.5
2894.521	170.5
2897.894	180.5
2901.264	179.5
2904.631	173.5
2907.996	187.5
2911.358	180.5
2914.717	183.5
2918.073	178.5
2921.426	186.5
2924.777	189.5
2928.124	180.5
2931.469	193.5
2934.811	195.5
2938.15	207.5
2941.487	203.5
2944.821	210.5
2948.152	202.5
2951.48	213.5
2954.805	210.5
2958.128	215.5
2961.447	218.5
2964.765	217.5
2968.079	215.5
2971.39	225.5
2974.699	228.5
2978.005	237.5
2981.308	243.5
2984.609	255.5
2987.907	256.5
2991.202	266.5
2994.494	268.5
2997.784	277.5
3001.07	291.5
3004.355	295.5
3007.636	291.5
3010.915	297.5
3014.191	313.5
3017.464	312.5
3020.734	326.5
3024.002	328.5
3027.267	323.5
3030.53	341.5
3033.789	342.5
3037.046	353.5
3040.301	350.5
3043.552	366.5
3046.801	374.5
3050.048	377.5
3053.291	387.5
3056.532	406.5
3059.771	410.5
3063.006	434.5
3066.239	442.5
3069.469	460.5
3072.697	461.5
3075.922	478.5
3079.144	491.5
3082.364	500.5
3085.581	503.5
3088.795	511.5
3092.007	536.5
3095.216	546.5
3098.423	557.5
3101.627	566.5
3104.828	582.5
3108.026	606.5
3111.222	599.5
3114.416	633.5
3117.607	640.5
3120.795	652.5
3123.98	662.5
3127.163	674.5
3130.344	686.5
3133.521	704.5
3136.696	724.5
3139.869	745.5
3143.039	753.5
3146.206	759.5
3149.371	773.5
3152.533	776.5
3155.693	790.5
3158.85	789.5
3162.005	793.5
3165.157	800.5
3168.306	800.5
3171.453	802.5
3174.597	803.5
3177.739	801.5
3180.878	804.5
3184.014	819.5
3187.149	823.5
3190.28	814.5
3193.409	829.5
3196.536	835.5
3199.659	837.5
3202.781	844.5
3205.9	825.5
3209.016	818.5
3212.13	823.5
3215.241	815.5
3218.35	814.5
3221.456	817.5
3224.56	806.5
3227.661	786.5
3230.76	783.5
3233.856	772.5
3236.95	765.5
3240.041	764.5
3243.13	762.5
3246.216	748.5
3249.3	738.5
3252.382	744.5
3255.46	735.5
3258.537	731.5
3261.611	731.5
3264.682	726.5
3267.751	729.5
3270.818	711.5
3273.882	734.5
3276.943	703.5
3280.002	699.5
3283.059	701.5
3286.113	689.5
3289.165	677.5
3292.214	675.5
3295.261	663.5
3298.306	659.5
3301.348	643.5
3304.387	641.5
3307.425	629.5
3310.459	621.5
3313.492	614.5
3316.521	605.5
3319.549	597.5
3322.574	591.5
3325.597	580.5
3328.617	585.5
3331.635	575.5
3334.65	574.5
3337.663	582.5
3340.674	565.5
3343.682	573.5
3346.688	576.5
3349.691	568.5
3352.692	565.5
3355.691	564.5
3358.687	563.5
3361.681	547.5
3364.673	544.5
3367.662	536.5
3370.649	534.5
3373.633	512.5
3376.615	513.5
3379.595	504.5
3382.572	493.5
3385.547	491.5
3388.52	482.5
3391.49	484.5
3394.458	466.5
3397.424	463.5
3400.387	445.5
3403.348	449.5
3406.307	450.5
3409.263	438.5
3412.217	440.5
3415.168	426.5
3418.118	430.5
3421.065	424.5
3424.009	416.5
3426.951	415.5
3429.891	411.5
3432.829	389.5
3435.764	384.5
3438.697	375.5
3441.628	368.5
3444.557	365.5
3447.483	350.5
3450.407	348.5
3453.328	331.5
3456.247	328.5
3459.164	326.5
3462.079	304.5
3464.991	291.5
3467.902	289.5
3470.809	284.5
3473.715	262.5
3476.618	253.5
3479.519	238.5
3482.418	242.5
3485.315	235.5
3488.209	237.5
3491.101	235.5
3493.99	223.5
3496.878	208.5
3499.763	205.5
3502.646	197.5
3505.527	190.5
3508.405	178.5
3511.281	167.5
3514.155	166.5
3517.027	156.5
3519.897	147.5
3522.764	141.5
3525.629	131.5
3528.492	131.5
3531.352	121.5
3534.211	112.5
3537.067	105.5
3539.921	94.5
3542.773	92.5
3545.622	84.5
3548.469	83.5
3551.315	76.5
3554.157	72.5
3556.998	71.5
3559.837	62.5
3562.673	56.5
3565.507	54.5
3568.339	48.5
3571.169	45.5
3573.996	44.5
3576.822	32.5
3579.645	32.5
3582.466	26.5
3585.285	22.5
3588.101	19.5
3590.916	13.5
3593.728	11.5
3596.538	8.5
3599.346	8.5
3602.152	4.5
3604.956	0.5
3607.757	-0.5
3610.556	-9.5
3613.354	-8.5
3616.149	-9.5
3618.942	-16.5
3621.732	-11.5
3624.521	-14.5
3627.307	-18.5
3630.092	-23.5
3632.874	-21.5
3635.654	-25.5
3638.432	-27.5
3641.208	-27.5
3643.982	-27.5
3646.753	-29.5
3649.523	-37.5
3652.29	-31.5
3655.055	-35.5
3657.818	-39.5
3660.579	-35.5
3663.338	-41.5
3666.095	-43.5
3668.849	-42.5
3671.602	-44.5
3674.352	-49.5
3677.101	-49.5
3679.847	-49.5
3682.591	-53.5
3685.333	-56.5
3688.073	-55.5
3690.811	-52.5
3693.547	-49.5
3696.281	-55.5
3699.013	-55.5
3701.742	-57.5
3704.47	-57.5
3707.195	-61.5
3709.919	-58.5
3712.64	-62.5
3715.359	-61.5
3718.076	-63.5
3720.792	-64.5
3723.505	-64.5
3726.216	-64.5
3728.925	-65.5
3731.632	-66.5
3734.336	-66.5
3737.039	-67.5
3739.74	-68.5
3742.439	-66.5
3745.136	-63.5
3747.83	-66.5
3750.523	-64.5
3753.213	-69.5
3755.902	-67.5
3758.589	-65.5
3761.273	-69.5
3763.956	-70.5
3766.636	-71.5
3769.315	-72.5
3771.991	-74.5
3774.665	-73.5
3777.338	-72.5
3780.008	-73.5
3782.677	-72.5
3785.343	-71.5
3788.007	-73.5
3790.67	-70.5
3793.33	-70.5
3795.989	-71.5
3798.645	-71.5
3801.299	-69.5
3803.952	-69.5
3806.602	-74.5
3809.251	-78.5
3811.897	-74.5
3814.542	-75.5
3817.184	-74.5
3819.825	-73.5
3822.463	-76.5
3825.1	-75.5
3827.735	-76.5
3830.367	-76.5
3832.998	-77.5
3835.627	-74.5
3838.253	-74.5
3840.878	-74.5
3843.501	-74.5
3846.122	-74.5
3848.741	-78.5
3851.358	-77.5
3853.973	-78.5
3856.586	-76.5
3859.197	-80.5
3861.806	-78.5
3864.414	-78.5
3867.019	-76.5
3869.622	-73.5
3872.224	-70.5
3874.823	-72.5
3877.421	-70.5
3880.016	-69.5
3882.61	-73.5
3885.202	-70.5
3887.792	-69.5
3890.38	-76.5
3892.966	-80.5
3895.55	-80.5
3898.132	-78.5
3900.713	-81.5
3903.291	-77.5
3905.868	-81.5
3908.442	-75.5
3911.015	-80.5
3913.586	-78.5
3916.155	-77.5
3918.722	-79.5
3921.287	-80.5
3923.85	-80.5
3926.411	-80.5
3928.971	-77.5
3931.528	-80.5
3934.084	-82.5
3936.638	-82.5
3939.19	-80.5
3941.74	-83.5
3944.288	-82.5
3946.834	-82.5
3949.378	-80.5
3951.921	-80.5
3954.462	-83.5
3957	-78.5
3959.537	-76.5
3962.072	-75.5
3964.606	-75.5
3967.137	-79.5
3969.667	-81.5
3972.194	-80.5
3974.72	-82.5
3977.244	-82.5
3979.766	-84.5
3982.286	-77.5
3984.805	-80.5
3987.321	-72.5
3989.836	-77.5
3992.349	-75.5
3994.86	-76.5
3997.369	-75.5
3999.877	-79.5
4002.382	-75.5
4004.886	-77.5
4007.388	-78.5
4009.888	-81.5
4012.386	-80.5
4014.883	-78.5
4017.377	-78.5
4019.87	-80.5
4022.361	-77.5
4024.85	-77.5
4027.338	-78.5
4029.823	-77.5
4032.307	-81.5
4034.789	-78.5
4037.269	-76.5
4039.747	-76.5
4042.224	-81.5
4044.699	-77.5
4047.172	-81.5
4049.643	-77.5
4052.112	-75.5
4054.58	-79.5
4057.046	-78.5
4059.51	-77.5
4061.972	-80.5
4064.432	-79.5
4066.891	-79.5
4069.348	-78.5
4071.803	-76.5
4074.256	-78.5
4076.708	-79.5
4079.158	-77.5
4081.606	-77.5
4084.052	-77.5
4086.497	-79.5
4088.939	-81.5
4091.38	-80.5
4093.819	-85.5
4096.257	-80.5
4098.693	-77.5
4101.127	-85.5
4103.559	-87.5
4105.989	-56.5
4108.418	-54.5
4110.845	-52.5
4113.27	-47.5
4115.694	-39.5
4118.115	-33.5
4120.535	-80.5
4122.954	-79.5
4125.37	-80.5
4127.785	-77.5
4130.198	-76.5
4132.609	-76.5
4135.019	-80.5
4137.427	-76.5
4139.833	-83.5
4142.237	-80.5
