Data from 100000CFU2_B_RamanShift_1.txt Node
Date: Tue Jan 24 18:08:06 IST 2017
User: aro
Spectrometer: QEPB0276
Trigger mode: 0
Integration Time (sec): 5.000000E0
Scans to average: 1
Electric dark correction enabled: true
Nonlinearity correction enabled: false
Boxcar width: 0
XAxis mode: Raman Shifts
Number of Pixels in Spectrum: 1044
>>>>>Begin Spectral Data<<<<<
160.701	-32.12
166.742	-6.12
172.777	100.88
178.805	405.88
184.826	1113.88
190.841	2283.88
196.849	3585.88
202.85	4452.88
208.845	4648.88
214.833	4512.88
220.815	4321.88
226.789	4210.88
232.758	4088.88
238.719	3969.88
244.674	3806.88
250.623	3670.88
256.565	3496.88
262.5	3316.88
268.429	3200.88
274.351	3079.88
280.267	2947.88
286.176	2860.88
292.079	2753.88
297.975	2665.88
303.865	2575.88
309.748	2511.88
315.625	2446.88
321.495	2401.88
327.359	2345.88
333.217	2333.88
339.068	2321.88
344.912	2319.88
350.751	2301.88
356.583	2290.88
362.408	2304.88
368.227	2303.88
374.04	2306.88
379.847	2297.88
385.647	2312.88
391.44	2319.88
397.228	2335.88
403.009	2362.88
408.784	2369.88
414.553	2379.88
420.315	2374.88
426.071	2369.88
431.821	2374.88
437.565	2392.88
443.302	2375.88
449.033	2380.88
454.758	2362.88
460.477	2357.88
466.189	2320.88
471.896	2322.88
477.596	2292.88
483.29	2293.88
488.978	2293.88
494.66	2273.88
500.335	2233.88
506.005	2219.88
511.668	2170.88
517.325	2134.88
522.977	2096.88
528.622	2067.88
534.261	2047.88
539.894	2058.88
545.521	2010.88
551.141	2019.88
556.756	2003.88
562.365	1991.88
567.968	1998.88
573.565	1947.88
579.155	1952.88
584.74	1933.88
590.319	1938.88
595.892	1911.88
601.459	1885.88
607.02	1894.88
612.575	1877.88
618.124	1837.88
623.667	1837.88
629.204	1819.88
634.735	1815.88
640.261	1790.88
645.781	1763.88
651.294	1784.88
656.802	1758.88
662.304	1762.88
667.8	1761.88
673.29	1767.88
678.775	1748.88
684.254	1742.88
689.726	1728.88
695.193	1716.88
700.655	1718.88
706.11	1702.88
711.56	1690.88
717.004	1665.88
722.442	1656.88
727.874	1664.88
733.301	1622.88
738.722	1634.88
744.137	1640.88
749.547	1627.88
754.951	1632.88
760.349	1609.88
765.741	1616.88
771.128	1629.88
776.509	1620.88
781.885	1606.88
787.254	1620.88
792.618	1611.88
797.977	1598.88
803.33	1574.88
808.677	1596.88
814.019	1575.88
819.355	1537.88
824.686	1526.88
830.011	1521.88
835.33	1522.88
840.644	1500.88
845.952	1488.88
851.255	1483.88
856.552	1503.88
861.844	1477.88
867.13	1489.88
872.41	1455.88
877.686	1466.88
882.955	1429.88
888.219	1412.88
893.478	1390.88
898.731	1368.88
903.979	1337.88
909.221	1341.88
914.458	1324.88
919.69	1316.88
924.916	1327.88
930.136	1320.88
935.351	1344.88
940.561	1303.88
945.766	1313.88
950.965	1292.88
956.158	1294.88
961.347	1267.88
966.529	1258.88
971.707	1235.88
976.879	1235.88
982.046	1234.88
987.208	1221.88
992.364	1216.88
997.515	1218.88
1002.66	1232.88
1007.801	1241.88
1012.936	1248.88
1018.066	1259.88
1023.19	1261.88
1028.309	1268.88
1033.423	1260.88
1038.532	1254.88
1043.636	1251.88
1048.734	1229.88
1053.827	1220.88
1058.915	1206.88
1063.998	1203.88
1069.075	1210.88
1074.147	1193.88
1079.214	1209.88
1084.276	1222.88
1089.333	1227.88
1094.385	1254.88
1099.431	1246.88
1104.472	1266.88
1109.509	1222.88
1114.54	1228.88
1119.565	1219.88
1124.586	1199.88
1129.602	1187.88
1134.613	1174.88
1139.618	1170.88
1144.619	1161.88
1149.614	1187.88
1154.604	1171.88
1159.589	1191.88
1164.57	1188.88
1169.545	1206.88
1174.515	1194.88
1179.48	1199.88
1184.44	1176.88
1189.395	1173.88
1194.345	1169.88
1199.29	1154.88
1204.23	1166.88
1209.165	1172.88
1214.095	1195.88
1219.021	1182.88
1223.941	1211.88
1228.856	1197.88
1233.766	1209.88
1238.672	1227.88
1243.572	1208.88
1248.467	1196.88
1253.358	1175.88
1258.244	1174.88
1263.124	1171.88
1268	1156.88
1272.871	1125.88
1277.737	1124.88
1282.599	1129.88
1287.455	1122.88
1292.306	1135.88
1297.153	1131.88
1301.995	1147.88
1306.832	1151.88
1311.664	1148.88
1316.491	1147.88
1321.314	1142.88
1326.132	1140.88
1330.945	1133.88
1335.753	1125.88
1340.556	1103.88
1345.354	1110.88
1350.148	1091.88
1354.937	1092.88
1359.722	1080.88
1364.501	1064.88
1369.276	1042.88
1374.046	1038.88
1378.811	1031.88
1383.572	1030.88
1388.327	1020.88
1393.079	1033.88
1397.825	1025.88
1402.567	1026.88
1407.304	1015.88
1412.036	1008.88
1416.764	1002.88
1421.487	1008.88
1426.205	1011.88
1430.919	1035.88
1435.628	1026.88
1440.333	1048.88
1445.032	1057.88
1449.727	1051.88
1454.418	1067.88
1459.104	1049.88
1463.785	1056.88
1468.462	1048.88
1473.134	1045.88
1477.802	1029.88
1482.465	1024.88
1487.123	1041.88
1491.777	1024.88
1496.426	1017.88
1501.071	1020.88
1505.711	1048.88
1510.347	1068.88
1514.978	1052.88
1519.604	1074.88
1524.226	1075.88
1528.844	1084.88
1533.457	1082.88
1538.065	1083.88
1542.669	1071.88
1547.269	1065.88
1551.864	1065.88
1556.454	1094.88
1561.041	1086.88
1565.622	1100.88
1570.199	1109.88
1574.772	1129.88
1579.34	1156.88
1583.904	1167.88
1588.464	1197.88
1593.019	1198.88
1597.569	1211.88
1602.115	1237.88
1606.657	1238.88
1611.195	1260.88
1615.728	1258.88
1620.256	1290.88
1624.78	1295.88
1629.3	1307.88
1633.816	1344.88
1638.327	1356.88
1642.834	1373.88
1647.336	1380.88
1651.834	1382.88
1656.328	1390.88
1660.817	1367.88
1665.302	1353.88
1669.783	1323.88
1674.259	1285.88
1678.732	1253.88
1683.199	1212.88
1687.663	1191.88
1692.122	1155.88
1696.577	1096.88
1701.028	1054.88
1705.474	1009.88
1709.917	984.88
1714.355	958.88
1718.788	944.88
1723.218	935.88
1727.643	903.88
1732.064	895.88
1736.481	874.88
1740.893	837.88
1745.301	830.88
1749.705	801.88
1754.105	787.88
1758.501	774.88
1762.893	761.88
1767.28	733.88
1771.663	748.88
1776.042	739.88
1780.417	749.88
1784.787	735.88
1789.154	748.88
1793.516	728.88
1797.874	727.88
1802.228	721.88
1806.578	718.88
1810.924	710.88
1815.266	695.88
1819.603	673.88
1823.937	674.88
1828.266	660.88
1832.591	655.88
1836.913	671.88
1841.23	664.88
1845.543	663.88
1849.852	671.88
1854.156	668.88
1858.457	660.88
1862.754	664.88
1867.047	678.88
1871.335	680.88
1875.62	679.88
1879.9	674.88
1884.177	667.88
1888.449	676.88
1892.718	669.88
1896.982	665.88
1901.243	675.88
1905.499	668.88
1909.752	668.88
1914	675.88
1918.245	662.88
1922.485	674.88
1926.722	679.88
1930.954	671.88
1935.183	666.88
1939.408	687.88
1943.628	668.88
1947.845	680.88
1952.058	669.88
1956.267	666.88
1960.472	664.88
1964.673	654.88
1968.87	647.88
1973.063	643.88
1977.252	630.88
1981.438	630.88
1985.619	618.88
1989.797	636.88
1993.971	642.88
1998.14	644.88
2002.306	643.88
2006.469	642.88
2010.627	648.88
2014.781	649.88
2018.932	647.88
2023.078	640.88
2027.221	646.88
2031.36	638.88
2035.495	635.88
2039.627	632.88
2043.754	630.88
2047.878	627.88
2051.998	626.88
2056.114	620.88
2060.226	630.88
2064.334	632.88
2068.439	640.88
2072.54	642.88
2076.637	639.88
2080.73	650.88
2084.82	651.88
2088.906	648.88
2092.988	645.88
2097.066	640.88
2101.14	633.88
2105.211	637.88
2109.278	620.88
2113.342	622.88
2117.401	627.88
2121.457	617.88
2125.509	617.88
2129.558	623.88
2133.602	610.88
2137.643	613.88
2141.681	619.88
2145.714	602.88
2149.744	596.88
2153.77	597.88
2157.793	591.88
2161.812	589.88
2165.827	594.88
2169.838	580.88
2173.846	560.88
2177.851	549.88
2181.851	550.88
2185.848	539.88
2189.841	550.88
2193.831	517.88
2197.817	532.88
2201.799	531.88
2205.778	516.88
2209.753	530.88
2213.725	523.88
2217.693	520.88
2221.657	524.88
2225.618	520.88
2229.575	519.88
2233.529	520.88
2237.479	510.88
2241.425	497.88
2245.368	491.88
2249.307	494.88
2253.243	486.88
2257.175	470.88
2261.104	480.88
2265.029	473.88
2268.95	469.88
2272.868	460.88
2276.783	445.88
2280.694	451.88
2284.601	436.88
2288.505	429.88
2292.405	419.88
2296.302	416.88
2300.195	412.88
2304.085	413.88
2307.971	404.88
2311.854	392.88
2315.734	388.88
2319.609	386.88
2323.482	376.88
2327.351	373.88
2331.216	366.88
2335.078	366.88
2338.937	363.88
2342.792	357.88
2346.643	357.88
2350.492	361.88
2354.336	359.88
2358.178	365.88
2362.015	359.88
2365.85	361.88
2369.681	369.88
2373.508	358.88
2377.333	361.88
2381.153	351.88
2384.971	358.88
2388.785	360.88
2392.595	343.88
2396.402	358.88
2400.206	345.88
2404.007	355.88
2407.804	356.88
2411.597	349.88
2415.388	347.88
2419.174	344.88
2422.958	343.88
2426.738	335.88
2430.515	341.88
2434.289	330.88
2438.059	340.88
2441.825	333.88
2445.589	325.88
2449.349	319.88
2453.106	322.88
2456.859	321.88
2460.61	321.88
2464.356	315.88
2468.1	317.88
2471.84	313.88
2475.577	307.88
2479.311	307.88
2483.041	313.88
2486.768	311.88
2490.492	315.88
2494.213	312.88
2497.93	316.88
2501.644	310.88
2505.355	310.88
2509.062	316.88
2512.766	307.88
2516.467	294.88
2520.165	298.88
2523.859	306.88
2527.551	308.88
2531.239	292.88
2534.923	294.88
2538.605	294.88
2542.283	294.88
2545.958	286.88
2549.63	290.88
2553.299	278.88
2556.964	281.88
2560.626	284.88
2564.285	276.88
2567.941	279.88
2571.594	280.88
2575.243	276.88
2578.89	271.88
2582.533	268.88
2586.173	258.88
2589.809	265.88
2593.443	253.88
2597.073	262.88
2600.701	255.88
2604.325	253.88
2607.946	255.88
2611.564	259.88
2615.178	262.88
2618.79	262.88
2622.398	245.88
2626.004	247.88
2629.606	243.88
2633.205	248.88
2636.801	237.88
2640.394	237.88
2643.983	239.88
2647.57	229.88
2651.153	232.88
2654.734	241.88
2658.311	231.88
2661.885	220.88
2665.456	225.88
2669.025	220.88
2672.589	218.88
2676.151	218.88
2679.71	206.88
2683.266	215.88
2686.819	213.88
2690.368	211.88
2693.915	206.88
2697.458	209.88
2700.999	209.88
2704.536	202.88
2708.071	204.88
2711.602	200.88
2715.13	200.88
2718.656	197.88
2722.178	196.88
2725.697	194.88
2729.214	197.88
2732.727	206.88
2736.237	200.88
2739.744	197.88
2743.249	198.88
2746.75	198.88
2750.248	203.88
2753.743	207.88
2757.236	195.88
2760.725	198.88
2764.211	192.88
2767.695	192.88
2771.175	191.88
2774.652	189.88
2778.127	195.88
2781.598	195.88
2785.067	194.88
2788.532	193.88
2791.995	191.88
2795.455	194.88
2798.911	195.88
2802.365	197.88
2805.816	188.88
2809.264	198.88
2812.709	188.88
2816.151	198.88
2819.59	195.88
2823.026	198.88
2826.46	201.88
2829.89	198.88
2833.318	202.88
2836.742	198.88
2840.164	205.88
2843.583	205.88
2846.999	196.88
2850.412	204.88
2853.822	213.88
2857.229	210.88
2860.634	217.88
2864.035	224.88
2867.434	221.88
2870.83	219.88
2874.223	222.88
2877.613	228.88
2881	222.88
2884.385	239.88
2887.766	228.88
2891.145	227.88
2894.521	233.88
2897.894	238.88
2901.264	230.88
2904.631	236.88
2907.996	247.88
2911.358	238.88
2914.717	244.88
2918.073	243.88
2921.426	248.88
2924.777	253.88
2928.124	253.88
2931.469	263.88
2934.811	277.88
2938.15	271.88
2941.487	275.88
2944.821	280.88
2948.152	287.88
2951.48	298.88
2954.805	296.88
2958.128	293.88
2961.447	313.88
2964.765	307.88
2968.079	318.88
2971.39	330.88
2974.699	331.88
2978.005	340.88
2981.308	355.88
2984.609	361.88
2987.907	368.88
2991.202	371.88
2994.494	393.88
2997.784	394.88
3001.07	410.88
3004.355	418.88
3007.636	434.88
3010.915	439.88
3014.191	452.88
3017.464	453.88
3020.734	469.88
3024.002	478.88
3027.267	476.88
3030.53	485.88
3033.789	498.88
3037.046	511.88
3040.301	521.88
3043.552	527.88
3046.801	551.88
3050.048	558.88
3053.291	568.88
3056.532	592.88
3059.771	599.88
3063.006	634.88
3066.239	643.88
3069.469	683.88
3072.697	705.88
3075.922	717.88
3079.144	731.88
3082.364	745.88
3085.581	761.88
3088.795	776.88
3092.007	804.88
3095.216	822.88
3098.423	839.88
3101.627	865.88
3104.828	874.88
3108.026	899.88
3111.222	905.88
3114.416	936.88
3117.607	960.88
3120.795	975.88
3123.98	998.88
3127.163	1024.88
3130.344	1050.88
3133.521	1079.88
3136.696	1085.88
3139.869	1119.88
3143.039	1129.88
3146.206	1159.88
3149.371	1166.88
3152.533	1177.88
3155.693	1177.88
3158.85	1191.88
3162.005	1182.88
3165.157	1199.88
3168.306	1206.88
3171.453	1204.88
3174.597	1224.88
3177.739	1226.88
3180.878	1220.88
3184.014	1233.88
3187.149	1226.88
3190.28	1245.88
3193.409	1228.88
3196.536	1245.88
3199.659	1248.88
3202.781	1258.88
3205.9	1263.88
3209.016	1245.88
3212.13	1241.88
3215.241	1244.88
3218.35	1214.88
3221.456	1224.88
3224.56	1205.88
3227.661	1198.88
3230.76	1185.88
3233.856	1188.88
3236.95	1166.88
3240.041	1158.88
3243.13	1146.88
3246.216	1147.88
3249.3	1119.88
3252.382	1118.88
3255.46	1122.88
3258.537	1114.88
3261.611	1107.88
3264.682	1089.88
3267.751	1105.88
3270.818	1102.88
3273.882	1088.88
3276.943	1082.88
3280.002	1071.88
3283.059	1054.88
3286.113	1050.88
3289.165	1049.88
3292.214	1019.88
3295.261	1002.88
3298.306	1003.88
3301.348	982.88
3304.387	964.88
3307.425	958.88
3310.459	943.88
3313.492	933.88
3316.521	913.88
3319.549	905.88
3322.574	905.88
3325.597	885.88
3328.617	880.88
3331.635	869.88
3334.65	871.88
3337.663	867.88
3340.674	853.88
3343.682	865.88
3346.688	857.88
3349.691	860.88
3352.692	851.88
3355.691	836.88
3358.687	835.88
3361.681	831.88
3364.673	818.88
3367.662	811.88
3370.649	797.88
3373.633	772.88
3376.615	772.88
3379.595	760.88
3382.572	753.88
3385.547	744.88
3388.52	728.88
3391.49	729.88
3394.458	716.88
3397.424	702.88
3400.387	703.88
3403.348	685.88
3406.307	668.88
3409.263	679.88
3412.217	665.88
3415.168	650.88
3418.118	647.88
3421.065	656.88
3424.009	643.88
3426.951	621.88
3429.891	618.88
3432.829	612.88
3435.764	597.88
3438.697	573.88
3441.628	560.88
3444.557	549.88
3447.483	524.88
3450.407	526.88
3453.328	507.88
3456.247	489.88
3459.164	477.88
3462.079	467.88
3464.991	437.88
3467.902	437.88
3470.809	420.88
3473.715	407.88
3476.618	397.88
3479.519	375.88
3482.418	366.88
3485.315	356.88
3488.209	354.88
3491.101	344.88
3493.99	330.88
3496.878	315.88
3499.763	314.88
3502.646	297.88
3505.527	291.88
3508.405	275.88
3511.281	266.88
3514.155	248.88
3517.027	242.88
3519.897	226.88
3522.764	217.88
3525.629	212.88
3528.492	190.88
3531.352	186.88
3534.211	177.88
3537.067	160.88
3539.921	151.88
3542.773	142.88
3545.622	132.88
3548.469	120.88
3551.315	119.88
3554.157	103.88
3556.998	100.88
3559.837	97.88
3562.673	90.88
3565.507	81.88
3568.339	76.88
3571.169	65.88
3573.996	61.88
3576.822	58.88
3579.645	51.88
3582.466	43.88
3585.285	36.88
3588.101	37.88
3590.916	35.88
3593.728	25.88
3596.538	22.88
3599.346	9.88
3602.152	12.88
3604.956	9.88
3607.757	-0.12
3610.556	-6.12
3613.354	-5.12
3616.149	-15.12
3618.942	-13.12
3621.732	-20.12
3624.521	-24.12
3627.307	-20.12
3630.092	-23.12
3632.874	-24.12
3635.654	-29.12
3638.432	-32.12
3641.208	-34.12
3643.982	-36.12
3646.753	-38.12
3649.523	-43.12
3652.29	-48.12
3655.055	-53.12
3657.818	-46.12
3660.579	-47.12
3663.338	-60.12
3666.095	-59.12
3668.849	-62.12
3671.602	-61.12
3674.352	-67.12
3677.101	-70.12
3679.847	-71.12
3682.591	-73.12
3685.333	-72.12
3688.073	-78.12
3690.811	-76.12
3693.547	-72.12
3696.281	-77.12
3699.013	-84.12
3701.742	-83.12
3704.47	-85.12
3707.195	-83.12
3709.919	-85.12
3712.64	-88.12
3715.359	-91.12
3718.076	-93.12
3720.792	-90.12
3723.505	-88.12
3726.216	-90.12
3728.925	-92.12
3731.632	-92.12
3734.336	-94.12
3737.039	-93.12
3739.74	-95.12
3742.439	-96.12
3745.136	-93.12
3747.83	-98.12
3750.523	-91.12
3753.213	-98.12
3755.902	-97.12
3758.589	-97.12
3761.273	-102.12
3763.956	-102.12
3766.636	-99.12
3769.315	-104.12
3771.991	-108.12
3774.665	-100.12
3777.338	-101.12
3780.008	-105.12
3782.677	-99.12
3785.343	-101.12
3788.007	-104.12
3790.67	-98.12
3793.33	-101.12
3795.989	-105.12
3798.645	-102.12
3801.299	-101.12
3803.952	-104.12
3806.602	-105.12
3809.251	-108.12
3811.897	-106.12
3814.542	-105.12
3817.184	-104.12
3819.825	-104.12
3822.463	-111.12
3825.1	-112.12
3827.735	-112.12
3830.367	-109.12
3832.998	-111.12
3835.627	-109.12
3838.253	-106.12
3840.878	-106.12
3843.501	-106.12
3846.122	-105.12
3848.741	-110.12
3851.358	-108.12
3853.973	-108.12
3856.586	-107.12
3859.197	-108.12
3861.806	-108.12
3864.414	-111.12
3867.019	-111.12
3869.622	-109.12
3872.224	-107.12
3874.823	-108.12
3877.421	-104.12
3880.016	-103.12
3882.61	-104.12
3885.202	-101.12
3887.792	-100.12
3890.38	-104.12
3892.966	-107.12
3895.55	-109.12
3898.132	-111.12
3900.713	-111.12
3903.291	-109.12
3905.868	-114.12
3908.442	-110.12
3911.015	-113.12
3913.586	-116.12
3916.155	-113.12
3918.722	-114.12
3921.287	-114.12
3923.85	-115.12
3926.411	-114.12
3928.971	-110.12
3931.528	-112.12
3934.084	-110.12
3936.638	-115.12
3939.19	-112.12
3941.74	-112.12
3944.288	-111.12
3946.834	-116.12
3949.378	-114.12
3951.921	-118.12
3954.462	-117.12
3957	-114.12
3959.537	-113.12
3962.072	-111.12
3964.606	-111.12
3967.137	-114.12
3969.667	-116.12
3972.194	-117.12
3974.72	-114.12
3977.244	-113.12
3979.766	-116.12
3982.286	-109.12
3984.805	-108.12
3987.321	-107.12
3989.836	-108.12
3992.349	-109.12
3994.86	-109.12
3997.369	-112.12
3999.877	-113.12
4002.382	-113.12
4004.886	-113.12
4007.388	-115.12
4009.888	-116.12
4012.386	-113.12
4014.883	-111.12
4017.377	-110.12
4019.87	-110.12
4022.361	-111.12
4024.85	-110.12
4027.338	-109.12
4029.823	-113.12
4032.307	-115.12
4034.789	-112.12
4037.269	-109.12
4039.747	-113.12
4042.224	-113.12
4044.699	-112.12
4047.172	-112.12
4049.643	-111.12
4052.112	-109.12
4054.58	-110.12
4057.046	-113.12
4059.51	-113.12
4061.972	-117.12
4064.432	-116.12
4066.891	-113.12
4069.348	-113.12
4071.803	-111.12
4074.256	-114.12
4076.708	-112.12
4079.158	-112.12
4081.606	-110.12
4084.052	-108.12
4086.497	-109.12
4088.939	-116.12
4091.38	-113.12
4093.819	-113.12
4096.257	-115.12
4098.693	-116.12
4101.127	-118.12
4103.559	-119.12
4105.989	-80.12
4108.418	-76.12
4110.845	-70.12
4113.27	-64.12
4115.694	-55.12
4118.115	-47.12
4120.535	-114.12
4122.954	-113.12
4125.37	-117.12
4127.785	-113.12
4130.198	-115.12
4132.609	-113.12
4135.019	-117.12
4137.427	-113.12
4139.833	-119.12
4142.237	-119.12
