Data from 1000CFU2_A_RamanShift_1.txt Node
Date: Tue Jan 24 17:24:01 IST 2017
User: aro
Spectrometer: QEPB0276
Trigger mode: 0
Integration Time (sec): 5.000000E0
Scans to average: 1
Electric dark correction enabled: true
Nonlinearity correction enabled: false
Boxcar width: 0
XAxis mode: Raman Shifts
Number of Pixels in Spectrum: 1044
>>>>>Begin Spectral Data<<<<<
160.701	-28.12
166.742	-2.12
172.777	92.88
178.805	387.88
184.826	1079.88
190.841	2207.88
196.849	3464.88
202.85	4282.88
208.845	4436.88
214.833	4323.88
220.815	4161.88
226.789	4049.88
232.758	3936.88
238.719	3828.88
244.674	3703.88
250.623	3551.88
256.565	3368.88
262.5	3225.88
268.429	3111.88
274.351	2987.88
280.267	2869.88
286.176	2798.88
292.079	2706.88
297.975	2606.88
303.865	2533.88
309.748	2469.88
315.625	2415.88
321.495	2385.88
327.359	2341.88
333.217	2321.88
339.068	2284.88
344.912	2284.88
350.751	2269.88
356.583	2263.88
362.408	2247.88
368.227	2257.88
374.04	2255.88
379.847	2267.88
385.647	2279.88
391.44	2303.88
397.228	2305.88
403.009	2320.88
408.784	2324.88
414.553	2319.88
420.315	2337.88
426.071	2352.88
431.821	2341.88
437.565	2348.88
443.302	2344.88
449.033	2335.88
454.758	2328.88
460.477	2320.88
466.189	2311.88
471.896	2291.88
477.596	2274.88
483.29	2276.88
488.978	2264.88
494.66	2247.88
500.335	2223.88
506.005	2205.88
511.668	2170.88
517.325	2110.88
522.977	2089.88
528.622	2062.88
534.261	2029.88
539.894	2022.88
545.521	2008.88
551.141	2001.88
556.756	1992.88
562.365	1977.88
567.968	1954.88
573.565	1967.88
579.155	1926.88
584.74	1923.88
590.319	1930.88
595.892	1903.88
601.459	1900.88
607.02	1883.88
612.575	1884.88
618.124	1851.88
623.667	1834.88
629.204	1800.88
634.735	1808.88
640.261	1792.88
645.781	1783.88
651.294	1789.88
656.802	1754.88
662.304	1750.88
667.8	1752.88
673.29	1769.88
678.775	1739.88
684.254	1735.88
689.726	1726.88
695.193	1733.88
700.655	1715.88
706.11	1690.88
711.56	1679.88
717.004	1692.88
722.442	1674.88
727.874	1655.88
733.301	1643.88
738.722	1624.88
744.137	1637.88
749.547	1649.88
754.951	1638.88
760.349	1631.88
765.741	1628.88
771.128	1619.88
776.509	1616.88
781.885	1627.88
787.254	1622.88
792.618	1628.88
797.977	1608.88
803.33	1611.88
808.677	1594.88
814.019	1578.88
819.355	1555.88
824.686	1550.88
830.011	1526.88
835.33	1540.88
840.644	1528.88
845.952	1525.88
851.255	1532.88
856.552	1522.88
861.844	1502.88
867.13	1483.88
872.41	1484.88
877.686	1479.88
882.955	1451.88
888.219	1440.88
893.478	1420.88
898.731	1395.88
903.979	1383.88
909.221	1378.88
914.458	1360.88
919.69	1354.88
924.916	1354.88
930.136	1366.88
935.351	1346.88
940.561	1343.88
945.766	1330.88
950.965	1331.88
956.158	1324.88
961.347	1310.88
966.529	1278.88
971.707	1267.88
976.879	1264.88
982.046	1260.88
987.208	1254.88
992.364	1236.88
997.515	1240.88
1002.66	1259.88
1007.801	1267.88
1012.936	1276.88
1018.066	1295.88
1023.19	1278.88
1028.309	1289.88
1033.423	1295.88
1038.532	1297.88
1043.636	1272.88
1048.734	1274.88
1053.827	1260.88
1058.915	1258.88
1063.998	1251.88
1069.075	1226.88
1074.147	1237.88
1079.214	1240.88
1084.276	1255.88
1089.333	1256.88
1094.385	1264.88
1099.431	1276.88
1104.472	1288.88
1109.509	1277.88
1114.54	1253.88
1119.565	1237.88
1124.586	1233.88
1129.602	1215.88
1134.613	1215.88
1139.618	1200.88
1144.619	1221.88
1149.614	1202.88
1154.604	1227.88
1159.589	1226.88
1164.57	1231.88
1169.545	1236.88
1174.515	1223.88
1179.48	1223.88
1184.44	1221.88
1189.395	1208.88
1194.345	1196.88
1199.29	1209.88
1204.23	1214.88
1209.165	1230.88
1214.095	1221.88
1219.021	1232.88
1223.941	1227.88
1228.856	1247.88
1233.766	1255.88
1238.672	1245.88
1243.572	1251.88
1248.467	1234.88
1253.358	1233.88
1258.244	1214.88
1263.124	1190.88
1268	1191.88
1272.871	1157.88
1277.737	1168.88
1282.599	1149.88
1287.455	1160.88
1292.306	1172.88
1297.153	1160.88
1301.995	1192.88
1306.832	1189.88
1311.664	1193.88
1316.491	1207.88
1321.314	1186.88
1326.132	1187.88
1330.945	1177.88
1335.753	1160.88
1340.556	1146.88
1345.354	1138.88
1350.148	1122.88
1354.937	1132.88
1359.722	1101.88
1364.501	1110.88
1369.276	1090.88
1374.046	1091.88
1378.811	1084.88
1383.572	1085.88
1388.327	1068.88
1393.079	1090.88
1397.825	1074.88
1402.567	1058.88
1407.304	1051.88
1412.036	1045.88
1416.764	1045.88
1421.487	1048.88
1426.205	1062.88
1430.919	1056.88
1435.628	1076.88
1440.333	1089.88
1445.032	1092.88
1449.727	1086.88
1454.418	1111.88
1459.104	1099.88
1463.785	1089.88
1468.462	1089.88
1473.134	1079.88
1477.802	1079.88
1482.465	1074.88
1487.123	1071.88
1491.777	1069.88
1496.426	1073.88
1501.071	1079.88
1505.711	1091.88
1510.347	1102.88
1514.978	1105.88
1519.604	1120.88
1524.226	1118.88
1528.844	1104.88
1533.457	1118.88
1538.065	1120.88
1542.669	1129.88
1547.269	1109.88
1551.864	1107.88
1556.454	1120.88
1561.041	1120.88
1565.622	1146.88
1570.199	1150.88
1574.772	1165.88
1579.34	1200.88
1583.904	1205.88
1588.464	1222.88
1593.019	1242.88
1597.569	1240.88
1602.115	1267.88
1606.657	1277.88
1611.195	1272.88
1615.728	1292.88
1620.256	1297.88
1624.78	1314.88
1629.3	1347.88
1633.816	1352.88
1638.327	1354.88
1642.834	1398.88
1647.336	1394.88
1651.834	1403.88
1656.328	1384.88
1660.817	1401.88
1665.302	1385.88
1669.783	1359.88
1674.259	1311.88
1678.732	1287.88
1683.199	1253.88
1687.663	1205.88
1692.122	1162.88
1696.577	1140.88
1701.028	1092.88
1705.474	1039.88
1709.917	995.88
1714.355	987.88
1718.788	964.88
1723.218	976.88
1727.643	932.88
1732.064	928.88
1736.481	903.88
1740.893	888.88
1745.301	867.88
1749.705	849.88
1754.105	825.88
1758.501	816.88
1762.893	791.88
1767.28	791.88
1771.663	792.88
1776.042	779.88
1780.417	774.88
1784.787	784.88
1789.154	784.88
1793.516	786.88
1797.874	783.88
1802.228	781.88
1806.578	769.88
1810.924	753.88
1815.266	733.88
1819.603	725.88
1823.937	720.88
1828.266	726.88
1832.591	702.88
1836.913	705.88
1841.23	694.88
1845.543	701.88
1849.852	688.88
1854.156	707.88
1858.457	707.88
1862.754	710.88
1867.047	709.88
1871.335	716.88
1875.62	713.88
1879.9	708.88
1884.177	712.88
1888.449	717.88
1892.718	715.88
1896.982	717.88
1901.243	710.88
1905.499	713.88
1909.752	702.88
1914	704.88
1918.245	714.88
1922.485	707.88
1926.722	709.88
1930.954	712.88
1935.183	712.88
1939.408	722.88
1943.628	715.88
1947.845	710.88
1952.058	725.88
1956.267	710.88
1960.472	709.88
1964.673	699.88
1968.87	694.88
1973.063	683.88
1977.252	674.88
1981.438	672.88
1985.619	675.88
1989.797	675.88
1993.971	679.88
1998.14	662.88
2002.306	684.88
2006.469	699.88
2010.627	678.88
2014.781	690.88
2018.932	679.88
2023.078	683.88
2027.221	677.88
2031.36	676.88
2035.495	666.88
2039.627	659.88
2043.754	661.88
2047.878	665.88
2051.998	668.88
2056.114	665.88
2060.226	648.88
2064.334	672.88
2068.439	665.88
2072.54	676.88
2076.637	684.88
2080.73	679.88
2084.82	678.88
2088.906	687.88
2092.988	686.88
2097.066	660.88
2101.14	665.88
2105.211	665.88
2109.278	669.88
2113.342	659.88
2117.401	653.88
2121.457	656.88
2125.509	645.88
2129.558	653.88
2133.602	648.88
2137.643	648.88
2141.681	639.88
2145.714	628.88
2149.744	633.88
2153.77	632.88
2157.793	622.88
2161.812	610.88
2165.827	618.88
2169.838	612.88
2173.846	598.88
2177.851	600.88
2181.851	573.88
2185.848	576.88
2189.841	558.88
2193.831	569.88
2197.817	563.88
2201.799	560.88
2205.778	558.88
2209.753	558.88
2213.725	553.88
2217.693	547.88
2221.657	552.88
2225.618	555.88
2229.575	554.88
2233.529	554.88
2237.479	542.88
2241.425	541.88
2245.368	528.88
2249.307	532.88
2253.243	504.88
2257.175	500.88
2261.104	496.88
2265.029	492.88
2268.95	486.88
2272.868	490.88
2276.783	474.88
2280.694	470.88
2284.601	465.88
2288.505	462.88
2292.405	449.88
2296.302	450.88
2300.195	442.88
2304.085	435.88
2307.971	435.88
2311.854	432.88
2315.734	421.88
2319.609	414.88
2323.482	409.88
2327.351	401.88
2331.216	409.88
2335.078	394.88
2338.937	398.88
2342.792	393.88
2346.643	389.88
2350.492	393.88
2354.336	399.88
2358.178	384.88
2362.015	398.88
2365.85	395.88
2369.681	395.88
2373.508	382.88
2377.333	385.88
2381.153	381.88
2384.971	391.88
2388.785	393.88
2392.595	378.88
2396.402	377.88
2400.206	384.88
2404.007	385.88
2407.804	376.88
2411.597	379.88
2415.388	369.88
2419.174	369.88
2422.958	368.88
2426.738	363.88
2430.515	369.88
2434.289	366.88
2438.059	360.88
2441.825	362.88
2445.589	354.88
2449.349	356.88
2453.106	358.88
2456.859	350.88
2460.61	345.88
2464.356	348.88
2468.1	346.88
2471.84	338.88
2475.577	343.88
2479.311	340.88
2483.041	340.88
2486.768	332.88
2490.492	338.88
2494.213	336.88
2497.93	333.88
2501.644	332.88
2505.355	333.88
2509.062	334.88
2512.766	334.88
2516.467	323.88
2520.165	330.88
2523.859	334.88
2527.551	327.88
2531.239	328.88
2534.923	324.88
2538.605	319.88
2542.283	311.88
2545.958	319.88
2549.63	310.88
2553.299	303.88
2556.964	305.88
2560.626	306.88
2564.285	300.88
2567.941	310.88
2571.594	307.88
2575.243	300.88
2578.89	304.88
2582.533	298.88
2586.173	298.88
2589.809	288.88
2593.443	292.88
2597.073	282.88
2600.701	280.88
2604.325	279.88
2607.946	280.88
2611.564	278.88
2615.178	280.88
2618.79	276.88
2622.398	278.88
2626.004	278.88
2629.606	271.88
2633.205	272.88
2636.801	264.88
2640.394	261.88
2643.983	265.88
2647.57	266.88
2651.153	259.88
2654.734	259.88
2658.311	255.88
2661.885	253.88
2665.456	246.88
2669.025	243.88
2672.589	239.88
2676.151	234.88
2679.71	236.88
2683.266	234.88
2686.819	239.88
2690.368	231.88
2693.915	230.88
2697.458	230.88
2700.999	235.88
2704.536	230.88
2708.071	221.88
2711.602	219.88
2715.13	215.88
2718.656	211.88
2722.178	213.88
2725.697	219.88
2729.214	221.88
2732.727	217.88
2736.237	223.88
2739.744	224.88
2743.249	215.88
2746.75	225.88
2750.248	227.88
2753.743	223.88
2757.236	215.88
2760.725	220.88
2764.211	211.88
2767.695	214.88
2771.175	209.88
2774.652	211.88
2778.127	207.88
2781.598	213.88
2785.067	203.88
2788.532	208.88
2791.995	208.88
2795.455	208.88
2798.911	206.88
2802.365	205.88
2805.816	211.88
2809.264	213.88
2812.709	218.88
2816.151	214.88
2819.59	212.88
2823.026	218.88
2826.46	222.88
2829.89	214.88
2833.318	218.88
2836.742	219.88
2840.164	211.88
2843.583	214.88
2846.999	216.88
2850.412	212.88
2853.822	222.88
2857.229	231.88
2860.634	228.88
2864.035	223.88
2867.434	238.88
2870.83	233.88
2874.223	243.88
2877.613	240.88
2881	251.88
2884.385	241.88
2887.766	241.88
2891.145	246.88
2894.521	241.88
2897.894	240.88
2901.264	252.88
2904.631	250.88
2907.996	248.88
2911.358	243.88
2914.717	255.88
2918.073	254.88
2921.426	256.88
2924.777	274.88
2928.124	270.88
2931.469	274.88
2934.811	278.88
2938.15	277.88
2941.487	292.88
2944.821	293.88
2948.152	291.88
2951.48	298.88
2954.805	305.88
2958.128	314.88
2961.447	319.88
2964.765	325.88
2968.079	315.88
2971.39	333.88
2974.699	340.88
2978.005	341.88
2981.308	351.88
2984.609	364.88
2987.907	371.88
2991.202	386.88
2994.494	390.88
2997.784	406.88
3001.07	407.88
3004.355	422.88
3007.636	437.88
3010.915	443.88
3014.191	442.88
3017.464	451.88
3020.734	459.88
3024.002	463.88
3027.267	479.88
3030.53	488.88
3033.789	501.88
3037.046	511.88
3040.301	518.88
3043.552	533.88
3046.801	543.88
3050.048	550.88
3053.291	567.88
3056.532	582.88
3059.771	591.88
3063.006	617.88
3066.239	639.88
3069.469	656.88
3072.697	687.88
3075.922	694.88
3079.144	728.88
3082.364	738.88
3085.581	744.88
3088.795	756.88
3092.007	794.88
3095.216	793.88
3098.423	820.88
3101.627	826.88
3104.828	852.88
3108.026	856.88
3111.222	871.88
3114.416	910.88
3117.607	940.88
3120.795	945.88
3123.98	971.88
3127.163	1000.88
3130.344	1009.88
3133.521	1049.88
3136.696	1056.88
3139.869	1085.88
3143.039	1093.88
3146.206	1117.88
3149.371	1142.88
3152.533	1126.88
3155.693	1144.88
3158.85	1165.88
3162.005	1170.88
3165.157	1160.88
3168.306	1166.88
3171.453	1170.88
3174.597	1182.88
3177.739	1189.88
3180.878	1176.88
3184.014	1197.88
3187.149	1172.88
3190.28	1197.88
3193.409	1202.88
3196.536	1206.88
3199.659	1208.88
3202.781	1226.88
3205.9	1215.88
3209.016	1229.88
3212.13	1216.88
3215.241	1201.88
3218.35	1201.88
3221.456	1190.88
3224.56	1174.88
3227.661	1165.88
3230.76	1159.88
3233.856	1150.88
3236.95	1124.88
3240.041	1115.88
3243.13	1110.88
3246.216	1106.88
3249.3	1106.88
3252.382	1093.88
3255.46	1089.88
3258.537	1092.88
3261.611	1083.88
3264.682	1091.88
3267.751	1077.88
3270.818	1077.88
3273.882	1063.88
3276.943	1054.88
3280.002	1046.88
3283.059	1036.88
3286.113	1026.88
3289.165	1009.88
3292.214	989.88
3295.261	970.88
3298.306	954.88
3301.348	945.88
3304.387	924.88
3307.425	923.88
3310.459	918.88
3313.492	885.88
3316.521	884.88
3319.549	878.88
3322.574	873.88
3325.597	856.88
3328.617	847.88
3331.635	848.88
3334.65	840.88
3337.663	843.88
3340.674	842.88
3343.682	831.88
3346.688	837.88
3349.691	820.88
3352.692	813.88
3355.691	827.88
3358.687	817.88
3361.681	802.88
3364.673	790.88
3367.662	782.88
3370.649	772.88
3373.633	756.88
3376.615	756.88
3379.595	752.88
3382.572	731.88
3385.547	711.88
3388.52	713.88
3391.49	700.88
3394.458	684.88
3397.424	676.88
3400.387	669.88
3403.348	670.88
3406.307	656.88
3409.263	653.88
3412.217	648.88
3415.168	628.88
3418.118	633.88
3421.065	642.88
3424.009	611.88
3426.951	616.88
3429.891	604.88
3432.829	593.88
3435.764	576.88
3438.697	540.88
3441.628	548.88
3444.557	535.88
3447.483	521.88
3450.407	517.88
3453.328	498.88
3456.247	477.88
3459.164	465.88
3462.079	456.88
3464.991	444.88
3467.902	423.88
3470.809	406.88
3473.715	390.88
3476.618	388.88
3479.519	360.88
3482.418	361.88
3485.315	344.88
3488.209	344.88
3491.101	338.88
3493.99	330.88
3496.878	318.88
3499.763	306.88
3502.646	289.88
3505.527	283.88
3508.405	275.88
3511.281	255.88
3514.155	247.88
3517.027	237.88
3519.897	223.88
3522.764	222.88
3525.629	203.88
3528.492	197.88
3531.352	183.88
3534.211	171.88
3537.067	160.88
3539.921	150.88
3542.773	134.88
3545.622	129.88
3548.469	123.88
3551.315	116.88
3554.157	108.88
3556.998	105.88
3559.837	100.88
3562.673	87.88
3565.507	85.88
3568.339	83.88
3571.169	68.88
3573.996	62.88
3576.822	64.88
3579.645	52.88
3582.466	48.88
3585.285	44.88
3588.101	40.88
3590.916	37.88
3593.728	25.88
3596.538	25.88
3599.346	23.88
3602.152	14.88
3604.956	7.88
3607.757	3.88
3610.556	-2.12
3613.354	-6.12
3616.149	-8.12
3618.942	-10.12
3621.732	-6.12
3624.521	-11.12
3627.307	-12.12
3630.092	-24.12
3632.874	-23.12
3635.654	-22.12
3638.432	-30.12
3641.208	-34.12
3643.982	-33.12
3646.753	-38.12
3649.523	-39.12
3652.29	-42.12
3655.055	-46.12
3657.818	-44.12
3660.579	-48.12
3663.338	-55.12
3666.095	-51.12
3668.849	-55.12
3671.602	-55.12
3674.352	-64.12
3677.101	-65.12
3679.847	-64.12
3682.591	-68.12
3685.333	-68.12
3688.073	-69.12
3690.811	-70.12
3693.547	-70.12
3696.281	-74.12
3699.013	-76.12
3701.742	-81.12
3704.47	-81.12
3707.195	-80.12
3709.919	-79.12
3712.64	-78.12
3715.359	-80.12
3718.076	-84.12
3720.792	-78.12
3723.505	-81.12
3726.216	-86.12
3728.925	-86.12
3731.632	-86.12
3734.336	-92.12
3737.039	-91.12
3739.74	-90.12
3742.439	-93.12
3745.136	-91.12
3747.83	-95.12
3750.523	-87.12
3753.213	-91.12
3755.902	-90.12
3758.589	-92.12
3761.273	-91.12
3763.956	-91.12
3766.636	-94.12
3769.315	-94.12
3771.991	-97.12
3774.665	-95.12
3777.338	-94.12
3780.008	-98.12
3782.677	-96.12
3785.343	-97.12
3788.007	-101.12
3790.67	-97.12
3793.33	-99.12
3795.989	-96.12
3798.645	-100.12
3801.299	-98.12
3803.952	-96.12
3806.602	-98.12
3809.251	-100.12
3811.897	-95.12
3814.542	-98.12
3817.184	-99.12
3819.825	-99.12
3822.463	-103.12
3825.1	-104.12
3827.735	-104.12
3830.367	-105.12
3832.998	-104.12
3835.627	-104.12
3838.253	-103.12
3840.878	-100.12
3843.501	-99.12
3846.122	-100.12
3848.741	-106.12
3851.358	-102.12
3853.973	-102.12
3856.586	-101.12
3859.197	-101.12
3861.806	-101.12
3864.414	-105.12
3867.019	-105.12
3869.622	-102.12
3872.224	-103.12
3874.823	-104.12
3877.421	-98.12
3880.016	-97.12
3882.61	-97.12
3885.202	-94.12
3887.792	-95.12
3890.38	-102.12
3892.966	-103.12
3895.55	-105.12
3898.132	-106.12
3900.713	-104.12
3903.291	-100.12
3905.868	-106.12
3908.442	-103.12
3911.015	-107.12
3913.586	-107.12
3916.155	-108.12
3918.722	-109.12
3921.287	-109.12
3923.85	-110.12
3926.411	-111.12
3928.971	-107.12
3931.528	-107.12
3934.084	-108.12
3936.638	-105.12
3939.19	-107.12
3941.74	-107.12
3944.288	-107.12
3946.834	-110.12
3949.378	-109.12
3951.921	-109.12
3954.462	-113.12
3957	-110.12
3959.537	-107.12
3962.072	-103.12
3964.606	-106.12
3967.137	-109.12
3969.667	-111.12
3972.194	-110.12
3974.72	-111.12
3977.244	-108.12
3979.766	-108.12
3982.286	-103.12
3984.805	-109.12
3987.321	-102.12
3989.836	-103.12
3992.349	-101.12
3994.86	-108.12
3997.369	-104.12
3999.877	-105.12
4002.382	-103.12
4004.886	-108.12
4007.388	-107.12
4009.888	-107.12
4012.386	-110.12
4014.883	-105.12
4017.377	-106.12
4019.87	-105.12
4022.361	-105.12
4024.85	-106.12
4027.338	-105.12
4029.823	-106.12
4032.307	-110.12
4034.789	-106.12
4037.269	-106.12
4039.747	-109.12
4042.224	-109.12
4044.699	-104.12
4047.172	-104.12
4049.643	-104.12
4052.112	-108.12
4054.58	-105.12
4057.046	-108.12
4059.51	-108.12
4061.972	-110.12
4064.432	-109.12
4066.891	-107.12
4069.348	-105.12
4071.803	-108.12
4074.256	-105.12
4076.708	-108.12
4079.158	-106.12
4081.606	-100.12
4084.052	-106.12
4086.497	-105.12
4088.939	-111.12
4091.38	-106.12
4093.819	-111.12
4096.257	-111.12
4098.693	-109.12
4101.127	-112.12
4103.559	-114.12
4105.989	-72.12
4108.418	-70.12
4110.845	-63.12
4113.27	-58.12
4115.694	-50.12
4118.115	-41.12
4120.535	-111.12
4122.954	-112.12
4125.37	-109.12
4127.785	-110.12
4130.198	-109.12
4132.609	-108.12
4135.019	-113.12
4137.427	-109.12
4139.833	-114.12
4142.237	-114.12
