Data from 100CFU3_A_RamanShift_1.txt Node
Date: Tue Jan 24 17:21:21 IST 2017
User: aro
Spectrometer: QEPB0276
Trigger mode: 0
Integration Time (sec): 5.000000E0
Scans to average: 1
Electric dark correction enabled: true
Nonlinearity correction enabled: false
Boxcar width: 0
XAxis mode: Raman Shifts
Number of Pixels in Spectrum: 1044
>>>>>Begin Spectral Data<<<<<
160.701	-34.12
166.742	-4.12
172.777	92.88
178.805	387.88
184.826	1054.88
190.841	2193.88
196.849	3431.88
202.85	4251.88
208.845	4412.88
214.833	4315.88
220.815	4116.88
226.789	3975.88
232.758	3900.88
238.719	3770.88
244.674	3611.88
250.623	3485.88
256.565	3323.88
262.5	3165.88
268.429	3047.88
274.351	2895.88
280.267	2789.88
286.176	2721.88
292.079	2607.88
297.975	2519.88
303.865	2448.88
309.748	2389.88
315.625	2339.88
321.495	2282.88
327.359	2239.88
333.217	2218.88
339.068	2191.88
344.912	2198.88
350.751	2173.88
356.583	2191.88
362.408	2179.88
368.227	2162.88
374.04	2177.88
379.847	2197.88
385.647	2211.88
391.44	2229.88
397.228	2237.88
403.009	2225.88
408.784	2237.88
414.553	2258.88
420.315	2271.88
426.071	2277.88
431.821	2249.88
437.565	2255.88
443.302	2238.88
449.033	2263.88
454.758	2248.88
460.477	2215.88
466.189	2205.88
471.896	2220.88
477.596	2190.88
483.29	2176.88
488.978	2170.88
494.66	2165.88
500.335	2138.88
506.005	2104.88
511.668	2046.88
517.325	2024.88
522.977	2008.88
528.622	1955.88
534.261	1934.88
539.894	1925.88
545.521	1909.88
551.141	1910.88
556.756	1904.88
562.365	1889.88
567.968	1881.88
573.565	1846.88
579.155	1845.88
584.74	1825.88
590.319	1829.88
595.892	1806.88
601.459	1805.88
607.02	1804.88
612.575	1777.88
618.124	1767.88
623.667	1740.88
629.204	1730.88
634.735	1697.88
640.261	1687.88
645.781	1694.88
651.294	1662.88
656.802	1676.88
662.304	1666.88
667.8	1676.88
673.29	1682.88
678.775	1648.88
684.254	1632.88
689.726	1654.88
695.193	1627.88
700.655	1603.88
706.11	1600.88
711.56	1599.88
717.004	1595.88
722.442	1573.88
727.874	1557.88
733.301	1562.88
738.722	1561.88
744.137	1551.88
749.547	1534.88
754.951	1549.88
760.349	1535.88
765.741	1532.88
771.128	1520.88
776.509	1552.88
781.885	1526.88
787.254	1532.88
792.618	1527.88
797.977	1530.88
803.33	1512.88
808.677	1491.88
814.019	1486.88
819.355	1469.88
824.686	1446.88
830.011	1440.88
835.33	1443.88
840.644	1434.88
845.952	1424.88
851.255	1417.88
856.552	1397.88
861.844	1396.88
867.13	1402.88
872.41	1409.88
877.686	1388.88
882.955	1376.88
888.219	1337.88
893.478	1309.88
898.731	1311.88
903.979	1301.88
909.221	1269.88
914.458	1257.88
919.69	1256.88
924.916	1245.88
930.136	1253.88
935.351	1232.88
940.561	1244.88
945.766	1243.88
950.965	1228.88
956.158	1226.88
961.347	1217.88
966.529	1188.88
971.707	1197.88
976.879	1173.88
982.046	1141.88
987.208	1147.88
992.364	1147.88
997.515	1165.88
1002.66	1157.88
1007.801	1176.88
1012.936	1179.88
1018.066	1182.88
1023.19	1195.88
1028.309	1201.88
1033.423	1197.88
1038.532	1188.88
1043.636	1191.88
1048.734	1169.88
1053.827	1163.88
1058.915	1144.88
1063.998	1149.88
1069.075	1147.88
1074.147	1149.88
1079.214	1146.88
1084.276	1153.88
1089.333	1167.88
1094.385	1176.88
1099.431	1190.88
1104.472	1174.88
1109.509	1180.88
1114.54	1153.88
1119.565	1155.88
1124.586	1116.88
1129.602	1130.88
1134.613	1110.88
1139.618	1140.88
1144.619	1108.88
1149.614	1125.88
1154.604	1120.88
1159.589	1143.88
1164.57	1149.88
1169.545	1141.88
1174.515	1138.88
1179.48	1114.88
1184.44	1125.88
1189.395	1112.88
1194.345	1118.88
1199.29	1111.88
1204.23	1106.88
1209.165	1124.88
1214.095	1124.88
1219.021	1138.88
1223.941	1151.88
1228.856	1146.88
1233.766	1147.88
1238.672	1158.88
1243.572	1155.88
1248.467	1132.88
1253.358	1128.88
1258.244	1112.88
1263.124	1104.88
1268	1096.88
1272.871	1075.88
1277.737	1079.88
1282.599	1067.88
1287.455	1072.88
1292.306	1083.88
1297.153	1088.88
1301.995	1078.88
1306.832	1088.88
1311.664	1106.88
1316.491	1101.88
1321.314	1094.88
1326.132	1080.88
1330.945	1075.88
1335.753	1053.88
1340.556	1065.88
1345.354	1043.88
1350.148	1051.88
1354.937	1025.88
1359.722	1015.88
1364.501	1016.88
1369.276	1002.88
1374.046	1002.88
1378.811	981.88
1383.572	986.88
1388.327	976.88
1393.079	988.88
1397.825	968.88
1402.567	973.88
1407.304	965.88
1412.036	959.88
1416.764	963.88
1421.487	967.88
1426.205	975.88
1430.919	969.88
1435.628	991.88
1440.333	989.88
1445.032	1011.88
1449.727	1013.88
1454.418	1021.88
1459.104	1014.88
1463.785	1014.88
1468.462	1000.88
1473.134	1005.88
1477.802	982.88
1482.465	978.88
1487.123	973.88
1491.777	985.88
1496.426	983.88
1501.071	996.88
1505.711	997.88
1510.347	995.88
1514.978	1027.88
1519.604	1035.88
1524.226	1027.88
1528.844	1025.88
1533.457	1034.88
1538.065	1044.88
1542.669	1011.88
1547.269	1015.88
1551.864	1018.88
1556.454	1028.88
1561.041	1035.88
1565.622	1049.88
1570.199	1055.88
1574.772	1073.88
1579.34	1086.88
1583.904	1123.88
1588.464	1144.88
1593.019	1155.88
1597.569	1167.88
1602.115	1182.88
1606.657	1184.88
1611.195	1184.88
1615.728	1203.88
1620.256	1208.88
1624.78	1236.88
1629.3	1267.88
1633.816	1282.88
1638.327	1300.88
1642.834	1307.88
1647.336	1304.88
1651.834	1317.88
1656.328	1309.88
1660.817	1296.88
1665.302	1284.88
1669.783	1270.88
1674.259	1230.88
1678.732	1191.88
1683.199	1160.88
1687.663	1120.88
1692.122	1082.88
1696.577	1046.88
1701.028	992.88
1705.474	948.88
1709.917	928.88
1714.355	905.88
1718.788	893.88
1723.218	881.88
1727.643	859.88
1732.064	846.88
1736.481	834.88
1740.893	805.88
1745.301	793.88
1749.705	756.88
1754.105	744.88
1758.501	745.88
1762.893	719.88
1767.28	713.88
1771.663	701.88
1776.042	688.88
1780.417	691.88
1784.787	705.88
1789.154	690.88
1793.516	694.88
1797.874	689.88
1802.228	695.88
1806.578	662.88
1810.924	674.88
1815.266	660.88
1819.603	652.88
1823.937	634.88
1828.266	642.88
1832.591	633.88
1836.913	629.88
1841.23	625.88
1845.543	631.88
1849.852	624.88
1854.156	620.88
1858.457	631.88
1862.754	624.88
1867.047	633.88
1871.335	650.88
1875.62	632.88
1879.9	646.88
1884.177	658.88
1888.449	647.88
1892.718	648.88
1896.982	634.88
1901.243	642.88
1905.499	627.88
1909.752	629.88
1914	621.88
1918.245	631.88
1922.485	630.88
1926.722	637.88
1930.954	640.88
1935.183	628.88
1939.408	651.88
1943.628	638.88
1947.845	638.88
1952.058	629.88
1956.267	637.88
1960.472	626.88
1964.673	617.88
1968.87	623.88
1973.063	612.88
1977.252	607.88
1981.438	604.88
1985.619	591.88
1989.797	588.88
1993.971	599.88
1998.14	596.88
2002.306	600.88
2006.469	615.88
2010.627	597.88
2014.781	623.88
2018.932	608.88
2023.078	616.88
2027.221	618.88
2031.36	614.88
2035.495	607.88
2039.627	595.88
2043.754	605.88
2047.878	598.88
2051.998	590.88
2056.114	595.88
2060.226	588.88
2064.334	596.88
2068.439	600.88
2072.54	598.88
2076.637	614.88
2080.73	618.88
2084.82	607.88
2088.906	598.88
2092.988	620.88
2097.066	604.88
2101.14	609.88
2105.211	606.88
2109.278	597.88
2113.342	588.88
2117.401	603.88
2121.457	588.88
2125.509	583.88
2129.558	581.88
2133.602	579.88
2137.643	573.88
2141.681	570.88
2145.714	569.88
2149.744	563.88
2153.77	570.88
2157.793	573.88
2161.812	551.88
2165.827	560.88
2169.838	549.88
2173.846	532.88
2177.851	533.88
2181.851	526.88
2185.848	510.88
2189.841	507.88
2193.831	500.88
2197.817	508.88
2201.799	510.88
2205.778	504.88
2209.753	498.88
2213.725	510.88
2217.693	506.88
2221.657	489.88
2225.618	494.88
2229.575	497.88
2233.529	488.88
2237.479	490.88
2241.425	476.88
2245.368	471.88
2249.307	468.88
2253.243	460.88
2257.175	451.88
2261.104	442.88
2265.029	442.88
2268.95	441.88
2272.868	435.88
2276.783	427.88
2280.694	416.88
2284.601	416.88
2288.505	409.88
2292.405	401.88
2296.302	394.88
2300.195	391.88
2304.085	391.88
2307.971	386.88
2311.854	381.88
2315.734	380.88
2319.609	363.88
2323.482	359.88
2327.351	363.88
2331.216	353.88
2335.078	363.88
2338.937	347.88
2342.792	334.88
2346.643	340.88
2350.492	343.88
2354.336	345.88
2358.178	345.88
2362.015	346.88
2365.85	349.88
2369.681	342.88
2373.508	347.88
2377.333	341.88
2381.153	348.88
2384.971	346.88
2388.785	339.88
2392.595	334.88
2396.402	339.88
2400.206	334.88
2404.007	330.88
2407.804	328.88
2411.597	327.88
2415.388	331.88
2419.174	320.88
2422.958	320.88
2426.738	326.88
2430.515	324.88
2434.289	321.88
2438.059	324.88
2441.825	320.88
2445.589	324.88
2449.349	316.88
2453.106	319.88
2456.859	303.88
2460.61	310.88
2464.356	301.88
2468.1	303.88
2471.84	303.88
2475.577	295.88
2479.311	298.88
2483.041	291.88
2486.768	307.88
2490.492	298.88
2494.213	300.88
2497.93	298.88
2501.644	302.88
2505.355	301.88
2509.062	295.88
2512.766	297.88
2516.467	289.88
2520.165	301.88
2523.859	288.88
2527.551	291.88
2531.239	291.88
2534.923	282.88
2538.605	278.88
2542.283	285.88
2545.958	270.88
2549.63	273.88
2553.299	264.88
2556.964	268.88
2560.626	264.88
2564.285	269.88
2567.941	271.88
2571.594	269.88
2575.243	264.88
2578.89	256.88
2582.533	258.88
2586.173	258.88
2589.809	252.88
2593.443	256.88
2597.073	250.88
2600.701	246.88
2604.325	241.88
2607.946	245.88
2611.564	241.88
2615.178	244.88
2618.79	244.88
2622.398	239.88
2626.004	238.88
2629.606	245.88
2633.205	236.88
2636.801	244.88
2640.394	234.88
2643.983	232.88
2647.57	222.88
2651.153	218.88
2654.734	226.88
2658.311	219.88
2661.885	217.88
2665.456	215.88
2669.025	212.88
2672.589	211.88
2676.151	218.88
2679.71	216.88
2683.266	204.88
2686.819	202.88
2690.368	202.88
2693.915	208.88
2697.458	204.88
2700.999	197.88
2704.536	195.88
2708.071	198.88
2711.602	194.88
2715.13	194.88
2718.656	191.88
2722.178	184.88
2725.697	194.88
2729.214	192.88
2732.727	187.88
2736.237	195.88
2739.744	190.88
2743.249	193.88
2746.75	196.88
2750.248	198.88
2753.743	195.88
2757.236	187.88
2760.725	195.88
2764.211	189.88
2767.695	192.88
2771.175	176.88
2774.652	190.88
2778.127	177.88
2781.598	187.88
2785.067	185.88
2788.532	180.88
2791.995	179.88
2795.455	180.88
2798.911	185.88
2802.365	180.88
2805.816	184.88
2809.264	192.88
2812.709	184.88
2816.151	187.88
2819.59	186.88
2823.026	188.88
2826.46	191.88
2829.89	189.88
2833.318	196.88
2836.742	192.88
2840.164	192.88
2843.583	198.88
2846.999	200.88
2850.412	194.88
2853.822	207.88
2857.229	210.88
2860.634	206.88
2864.035	202.88
2867.434	209.88
2870.83	213.88
2874.223	211.88
2877.613	221.88
2881	218.88
2884.385	222.88
2887.766	218.88
2891.145	209.88
2894.521	222.88
2897.894	224.88
2901.264	231.88
2904.631	232.88
2907.996	232.88
2911.358	231.88
2914.717	234.88
2918.073	246.88
2921.426	241.88
2924.777	247.88
2928.124	250.88
2931.469	257.88
2934.811	265.88
2938.15	267.88
2941.487	278.88
2944.821	272.88
2948.152	280.88
2951.48	281.88
2954.805	283.88
2958.128	286.88
2961.447	301.88
2964.765	296.88
2968.079	300.88
2971.39	314.88
2974.699	320.88
2978.005	321.88
2981.308	330.88
2984.609	348.88
2987.907	348.88
2991.202	361.88
2994.494	370.88
2997.784	380.88
3001.07	387.88
3004.355	397.88
3007.636	405.88
3010.915	408.88
3014.191	421.88
3017.464	436.88
3020.734	435.88
3024.002	450.88
3027.267	453.88
3030.53	462.88
3033.789	481.88
3037.046	499.88
3040.301	493.88
3043.552	508.88
3046.801	514.88
3050.048	518.88
3053.291	539.88
3056.532	558.88
3059.771	574.88
3063.006	611.88
3066.239	616.88
3069.469	650.88
3072.697	654.88
3075.922	675.88
3079.144	685.88
3082.364	713.88
3085.581	710.88
3088.795	733.88
3092.007	754.88
3095.216	787.88
3098.423	800.88
3101.627	809.88
3104.828	831.88
3108.026	836.88
3111.222	860.88
3114.416	879.88
3117.607	913.88
3120.795	905.88
3123.98	946.88
3127.163	962.88
3130.344	987.88
3133.521	1011.88
3136.696	1014.88
3139.869	1042.88
3143.039	1065.88
3146.206	1077.88
3149.371	1091.88
3152.533	1114.88
3155.693	1099.88
3158.85	1110.88
3162.005	1120.88
3165.157	1135.88
3168.306	1138.88
3171.453	1132.88
3174.597	1139.88
3177.739	1152.88
3180.878	1160.88
3184.014	1165.88
3187.149	1153.88
3190.28	1176.88
3193.409	1180.88
3196.536	1188.88
3199.659	1193.88
3202.781	1175.88
3205.9	1187.88
3209.016	1177.88
3212.13	1165.88
3215.241	1165.88
3218.35	1160.88
3221.456	1162.88
3224.56	1144.88
3227.661	1131.88
3230.76	1147.88
3233.856	1111.88
3236.95	1105.88
3240.041	1100.88
3243.13	1078.88
3246.216	1077.88
3249.3	1067.88
3252.382	1069.88
3255.46	1062.88
3258.537	1040.88
3261.611	1038.88
3264.682	1055.88
3267.751	1050.88
3270.818	1046.88
3273.882	1031.88
3276.943	1025.88
3280.002	1029.88
3283.059	1002.88
3286.113	1003.88
3289.165	969.88
3292.214	969.88
3295.261	953.88
3298.306	940.88
3301.348	926.88
3304.387	913.88
3307.425	899.88
3310.459	872.88
3313.492	874.88
3316.521	867.88
3319.549	855.88
3322.574	845.88
3325.597	834.88
3328.617	838.88
3331.635	832.88
3334.65	822.88
3337.663	818.88
3340.674	822.88
3343.682	821.88
3346.688	816.88
3349.691	809.88
3352.692	806.88
3355.691	800.88
3358.687	777.88
3361.681	788.88
3364.673	757.88
3367.662	762.88
3370.649	756.88
3373.633	744.88
3376.615	732.88
3379.595	729.88
3382.572	721.88
3385.547	703.88
3388.52	697.88
3391.49	675.88
3394.458	674.88
3397.424	656.88
3400.387	653.88
3403.348	643.88
3406.307	636.88
3409.263	627.88
3412.217	624.88
3415.168	620.88
3418.118	616.88
3421.065	611.88
3424.009	597.88
3426.951	597.88
3429.891	591.88
3432.829	568.88
3435.764	563.88
3438.697	539.88
3441.628	535.88
3444.557	520.88
3447.483	499.88
3450.407	492.88
3453.328	485.88
3456.247	465.88
3459.164	446.88
3462.079	444.88
3464.991	426.88
3467.902	403.88
3470.809	399.88
3473.715	384.88
3476.618	374.88
3479.519	359.88
3482.418	346.88
3485.315	336.88
3488.209	336.88
3491.101	322.88
3493.99	318.88
3496.878	297.88
3499.763	285.88
3502.646	289.88
3505.527	269.88
3508.405	256.88
3511.281	246.88
3514.155	238.88
3517.027	228.88
3519.897	208.88
3522.764	212.88
3525.629	190.88
3528.492	191.88
3531.352	173.88
3534.211	162.88
3537.067	155.88
3539.921	139.88
3542.773	131.88
3545.622	117.88
3548.469	115.88
3551.315	103.88
3554.157	95.88
3556.998	97.88
3559.837	84.88
3562.673	84.88
3565.507	78.88
3568.339	76.88
3571.169	66.88
3573.996	62.88
3576.822	56.88
3579.645	44.88
3582.466	41.88
3585.285	40.88
3588.101	40.88
3590.916	34.88
3593.728	21.88
3596.538	21.88
3599.346	9.88
3602.152	7.88
3604.956	2.88
3607.757	-0.12
3610.556	-4.12
3613.354	-10.12
3616.149	-6.12
3618.942	-13.12
3621.732	-17.12
3624.521	-18.12
3627.307	-20.12
3630.092	-22.12
3632.874	-24.12
3635.654	-24.12
3638.432	-29.12
3641.208	-31.12
3643.982	-34.12
3646.753	-38.12
3649.523	-43.12
3652.29	-45.12
3655.055	-46.12
3657.818	-50.12
3660.579	-49.12
3663.338	-55.12
3666.095	-55.12
3668.849	-53.12
3671.602	-56.12
3674.352	-65.12
3677.101	-64.12
3679.847	-68.12
3682.591	-69.12
3685.333	-65.12
3688.073	-71.12
3690.811	-75.12
3693.547	-68.12
3696.281	-77.12
3699.013	-80.12
3701.742	-81.12
3704.47	-82.12
3707.195	-81.12
3709.919	-81.12
3712.64	-83.12
3715.359	-84.12
3718.076	-87.12
3720.792	-81.12
3723.505	-85.12
3726.216	-84.12
3728.925	-83.12
3731.632	-86.12
3734.336	-92.12
3737.039	-94.12
3739.74	-92.12
3742.439	-93.12
3745.136	-90.12
3747.83	-98.12
3750.523	-89.12
3753.213	-95.12
3755.902	-94.12
3758.589	-92.12
3761.273	-91.12
3763.956	-93.12
3766.636	-92.12
3769.315	-99.12
3771.991	-98.12
3774.665	-95.12
3777.338	-97.12
3780.008	-101.12
3782.677	-95.12
3785.343	-96.12
3788.007	-102.12
3790.67	-96.12
3793.33	-102.12
3795.989	-101.12
3798.645	-99.12
3801.299	-100.12
3803.952	-98.12
3806.602	-97.12
3809.251	-101.12
3811.897	-101.12
3814.542	-99.12
3817.184	-98.12
3819.825	-99.12
3822.463	-101.12
3825.1	-103.12
3827.735	-103.12
3830.367	-106.12
3832.998	-107.12
3835.627	-106.12
3838.253	-104.12
3840.878	-103.12
3843.501	-102.12
3846.122	-105.12
3848.741	-104.12
3851.358	-103.12
3853.973	-105.12
3856.586	-101.12
3859.197	-103.12
3861.806	-106.12
3864.414	-105.12
3867.019	-101.12
3869.622	-104.12
3872.224	-101.12
3874.823	-104.12
3877.421	-96.12
3880.016	-98.12
3882.61	-99.12
3885.202	-92.12
3887.792	-99.12
3890.38	-102.12
3892.966	-105.12
3895.55	-105.12
3898.132	-106.12
3900.713	-103.12
3903.291	-102.12
3905.868	-104.12
3908.442	-104.12
3911.015	-105.12
3913.586	-106.12
3916.155	-109.12
3918.722	-111.12
3921.287	-109.12
3923.85	-108.12
3926.411	-113.12
3928.971	-108.12
3931.528	-111.12
3934.084	-109.12
3936.638	-109.12
3939.19	-106.12
3941.74	-108.12
3944.288	-108.12
3946.834	-108.12
3949.378	-107.12
3951.921	-111.12
3954.462	-112.12
3957	-107.12
3959.537	-106.12
3962.072	-103.12
3964.606	-108.12
3967.137	-110.12
3969.667	-111.12
3972.194	-113.12
3974.72	-108.12
3977.244	-110.12
3979.766	-113.12
3982.286	-108.12
3984.805	-105.12
3987.321	-103.12
3989.836	-102.12
3992.349	-105.12
3994.86	-105.12
3997.369	-105.12
3999.877	-107.12
4002.382	-103.12
4004.886	-108.12
4007.388	-104.12
4009.888	-110.12
4012.386	-111.12
4014.883	-107.12
4017.377	-105.12
4019.87	-106.12
4022.361	-102.12
4024.85	-106.12
4027.338	-105.12
4029.823	-108.12
4032.307	-107.12
4034.789	-106.12
4037.269	-106.12
4039.747	-108.12
4042.224	-109.12
4044.699	-106.12
4047.172	-107.12
4049.643	-106.12
4052.112	-105.12
4054.58	-107.12
4057.046	-107.12
4059.51	-107.12
4061.972	-110.12
4064.432	-109.12
4066.891	-109.12
4069.348	-105.12
4071.803	-106.12
4074.256	-106.12
4076.708	-102.12
4079.158	-109.12
4081.606	-105.12
4084.052	-107.12
4086.497	-108.12
4088.939	-112.12
4091.38	-107.12
4093.819	-113.12
4096.257	-109.12
4098.693	-108.12
4101.127	-110.12
4103.559	-113.12
4105.989	-70.12
4108.418	-72.12
4110.845	-64.12
4113.27	-60.12
4115.694	-53.12
4118.115	-45.12
4120.535	-111.12
4122.954	-112.12
4125.37	-108.12
4127.785	-109.12
4130.198	-105.12
4132.609	-108.12
4135.019	-110.12
4137.427	-108.12
4139.833	-111.12
4142.237	-113.12
