Data from 10CFU2_B_RamanShift_1.txt Node
Date: Tue Jan 24 17:54:56 IST 2017
User: aro
Spectrometer: QEPB0276
Trigger mode: 0
Integration Time (sec): 5.000000E0
Scans to average: 1
Electric dark correction enabled: true
Nonlinearity correction enabled: false
Boxcar width: 0
XAxis mode: Raman Shifts
Number of Pixels in Spectrum: 1044
>>>>>Begin Spectral Data<<<<<
160.701	-26.25
166.742	-1.25
172.777	99.75
178.805	391.75
184.826	1105.75
190.841	2295.75
196.849	3605.75
202.85	4476.75
208.845	4683.75
214.833	4512.75
220.815	4337.75
226.789	4237.75
232.758	4089.75
238.719	4001.75
244.674	3853.75
250.623	3664.75
256.565	3492.75
262.5	3355.75
268.429	3206.75
274.351	3060.75
280.267	2972.75
286.176	2883.75
292.079	2776.75
297.975	2672.75
303.865	2599.75
309.748	2533.75
315.625	2490.75
321.495	2433.75
327.359	2388.75
333.217	2364.75
339.068	2356.75
344.912	2337.75
350.751	2306.75
356.583	2334.75
362.408	2323.75
368.227	2312.75
374.04	2324.75
379.847	2313.75
385.647	2341.75
391.44	2354.75
397.228	2364.75
403.009	2374.75
408.784	2397.75
414.553	2393.75
420.315	2416.75
426.071	2434.75
431.821	2412.75
437.565	2419.75
443.302	2403.75
449.033	2406.75
454.758	2401.75
460.477	2391.75
466.189	2364.75
471.896	2358.75
477.596	2325.75
483.29	2331.75
488.978	2342.75
494.66	2324.75
500.335	2279.75
506.005	2253.75
511.668	2198.75
517.325	2164.75
522.977	2122.75
528.622	2106.75
534.261	2080.75
539.894	2072.75
545.521	2045.75
551.141	2040.75
556.756	2025.75
562.365	2040.75
567.968	2027.75
573.565	1988.75
579.155	1963.75
584.74	1966.75
590.319	1955.75
595.892	1949.75
601.459	1931.75
607.02	1930.75
612.575	1903.75
618.124	1892.75
623.667	1874.75
629.204	1845.75
634.735	1833.75
640.261	1838.75
645.781	1795.75
651.294	1807.75
656.802	1803.75
662.304	1785.75
667.8	1780.75
673.29	1782.75
678.775	1769.75
684.254	1771.75
689.726	1769.75
695.193	1746.75
700.655	1732.75
706.11	1724.75
711.56	1710.75
717.004	1705.75
722.442	1697.75
727.874	1701.75
733.301	1681.75
738.722	1676.75
744.137	1658.75
749.547	1655.75
754.951	1656.75
760.349	1647.75
765.741	1659.75
771.128	1649.75
776.509	1646.75
781.885	1651.75
787.254	1640.75
792.618	1639.75
797.977	1642.75
803.33	1627.75
808.677	1610.75
814.019	1586.75
819.355	1590.75
824.686	1571.75
830.011	1554.75
835.33	1541.75
840.644	1520.75
845.952	1533.75
851.255	1531.75
856.552	1519.75
861.844	1504.75
867.13	1508.75
872.41	1495.75
877.686	1492.75
882.955	1461.75
888.219	1448.75
893.478	1418.75
898.731	1398.75
903.979	1386.75
909.221	1371.75
914.458	1380.75
919.69	1357.75
924.916	1346.75
930.136	1365.75
935.351	1346.75
940.561	1353.75
945.766	1352.75
950.965	1330.75
956.158	1327.75
961.347	1309.75
966.529	1284.75
971.707	1280.75
976.879	1259.75
982.046	1237.75
987.208	1249.75
992.364	1236.75
997.515	1254.75
1002.66	1265.75
1007.801	1271.75
1012.936	1282.75
1018.066	1290.75
1023.19	1307.75
1028.309	1302.75
1033.423	1314.75
1038.532	1302.75
1043.636	1293.75
1048.734	1274.75
1053.827	1252.75
1058.915	1259.75
1063.998	1241.75
1069.075	1225.75
1074.147	1240.75
1079.214	1238.75
1084.276	1243.75
1089.333	1270.75
1094.385	1283.75
1099.431	1291.75
1104.472	1267.75
1109.509	1294.75
1114.54	1275.75
1119.565	1243.75
1124.586	1226.75
1129.602	1228.75
1134.613	1214.75
1139.618	1215.75
1144.619	1224.75
1149.614	1198.75
1154.604	1231.75
1159.589	1227.75
1164.57	1225.75
1169.545	1232.75
1174.515	1226.75
1179.48	1226.75
1184.44	1224.75
1189.395	1231.75
1194.345	1224.75
1199.29	1208.75
1204.23	1212.75
1209.165	1209.75
1214.095	1241.75
1219.021	1232.75
1223.941	1234.75
1228.856	1261.75
1233.766	1271.75
1238.672	1252.75
1243.572	1248.75
1248.467	1247.75
1253.358	1233.75
1258.244	1213.75
1263.124	1206.75
1268	1180.75
1272.871	1174.75
1277.737	1157.75
1282.599	1148.75
1287.455	1170.75
1292.306	1170.75
1297.153	1184.75
1301.995	1179.75
1306.832	1181.75
1311.664	1191.75
1316.491	1208.75
1321.314	1189.75
1326.132	1176.75
1330.945	1168.75
1335.753	1173.75
1340.556	1148.75
1345.354	1119.75
1350.148	1140.75
1354.937	1133.75
1359.722	1125.75
1364.501	1110.75
1369.276	1093.75
1374.046	1085.75
1378.811	1087.75
1383.572	1080.75
1388.327	1087.75
1393.079	1107.75
1397.825	1076.75
1402.567	1060.75
1407.304	1053.75
1412.036	1060.75
1416.764	1058.75
1421.487	1058.75
1426.205	1047.75
1430.919	1051.75
1435.628	1075.75
1440.333	1079.75
1445.032	1093.75
1449.727	1098.75
1454.418	1099.75
1459.104	1109.75
1463.785	1107.75
1468.462	1088.75
1473.134	1077.75
1477.802	1074.75
1482.465	1082.75
1487.123	1063.75
1491.777	1064.75
1496.426	1076.75
1501.071	1076.75
1505.711	1098.75
1510.347	1103.75
1514.978	1115.75
1519.604	1123.75
1524.226	1131.75
1528.844	1120.75
1533.457	1124.75
1538.065	1114.75
1542.669	1115.75
1547.269	1121.75
1551.864	1107.75
1556.454	1118.75
1561.041	1136.75
1565.622	1132.75
1570.199	1158.75
1574.772	1165.75
1579.34	1198.75
1583.904	1230.75
1588.464	1254.75
1593.019	1257.75
1597.569	1258.75
1602.115	1285.75
1606.657	1271.75
1611.195	1291.75
1615.728	1314.75
1620.256	1315.75
1624.78	1344.75
1629.3	1348.75
1633.816	1383.75
1638.327	1389.75
1642.834	1418.75
1647.336	1421.75
1651.834	1417.75
1656.328	1428.75
1660.817	1408.75
1665.302	1392.75
1669.783	1362.75
1674.259	1334.75
1678.732	1300.75
1683.199	1272.75
1687.663	1225.75
1692.122	1179.75
1696.577	1138.75
1701.028	1093.75
1705.474	1043.75
1709.917	1011.75
1714.355	1001.75
1718.788	966.75
1723.218	953.75
1727.643	951.75
1732.064	918.75
1736.481	904.75
1740.893	879.75
1745.301	849.75
1749.705	837.75
1754.105	817.75
1758.501	814.75
1762.893	799.75
1767.28	789.75
1771.663	774.75
1776.042	781.75
1780.417	774.75
1784.787	775.75
1789.154	772.75
1793.516	769.75
1797.874	764.75
1802.228	767.75
1806.578	744.75
1810.924	732.75
1815.266	721.75
1819.603	731.75
1823.937	701.75
1828.266	704.75
1832.591	697.75
1836.913	698.75
1841.23	687.75
1845.543	689.75
1849.852	700.75
1854.156	702.75
1858.457	694.75
1862.754	705.75
1867.047	708.75
1871.335	703.75
1875.62	709.75
1879.9	705.75
1884.177	721.75
1888.449	696.75
1892.718	705.75
1896.982	695.75
1901.243	699.75
1905.499	688.75
1909.752	680.75
1914	693.75
1918.245	698.75
1922.485	703.75
1926.722	693.75
1930.954	707.75
1935.183	694.75
1939.408	709.75
1943.628	713.75
1947.845	703.75
1952.058	710.75
1956.267	704.75
1960.472	698.75
1964.673	675.75
1968.87	681.75
1973.063	662.75
1977.252	668.75
1981.438	675.75
1985.619	665.75
1989.797	664.75
1993.971	657.75
1998.14	660.75
2002.306	666.75
2006.469	680.75
2010.627	680.75
2014.781	685.75
2018.932	673.75
2023.078	679.75
2027.221	672.75
2031.36	667.75
2035.495	664.75
2039.627	661.75
2043.754	657.75
2047.878	644.75
2051.998	651.75
2056.114	649.75
2060.226	641.75
2064.334	658.75
2068.439	657.75
2072.54	675.75
2076.637	675.75
2080.73	667.75
2084.82	674.75
2088.906	670.75
2092.988	674.75
2097.066	681.75
2101.14	670.75
2105.211	663.75
2109.278	654.75
2113.342	644.75
2117.401	655.75
2121.457	653.75
2125.509	645.75
2129.558	645.75
2133.602	634.75
2137.643	634.75
2141.681	625.75
2145.714	625.75
2149.744	624.75
2153.77	619.75
2157.793	627.75
2161.812	612.75
2165.827	608.75
2169.838	601.75
2173.846	592.75
2177.851	578.75
2181.851	567.75
2185.848	575.75
2189.841	553.75
2193.831	556.75
2197.817	559.75
2201.799	545.75
2205.778	539.75
2209.753	545.75
2213.725	547.75
2217.693	548.75
2221.657	542.75
2225.618	545.75
2229.575	535.75
2233.529	537.75
2237.479	535.75
2241.425	524.75
2245.368	512.75
2249.307	512.75
2253.243	498.75
2257.175	506.75
2261.104	493.75
2265.029	484.75
2268.95	484.75
2272.868	474.75
2276.783	473.75
2280.694	467.75
2284.601	458.75
2288.505	438.75
2292.405	445.75
2296.302	436.75
2300.195	436.75
2304.085	428.75
2307.971	423.75
2311.854	417.75
2315.734	408.75
2319.609	397.75
2323.482	391.75
2327.351	385.75
2331.216	379.75
2335.078	380.75
2338.937	370.75
2342.792	373.75
2346.643	376.75
2350.492	361.75
2354.336	378.75
2358.178	373.75
2362.015	375.75
2365.85	378.75
2369.681	383.75
2373.508	375.75
2377.333	380.75
2381.153	376.75
2384.971	376.75
2388.785	385.75
2392.595	363.75
2396.402	373.75
2400.206	358.75
2404.007	370.75
2407.804	370.75
2411.597	358.75
2415.388	365.75
2419.174	347.75
2422.958	359.75
2426.738	353.75
2430.515	348.75
2434.289	351.75
2438.059	356.75
2441.825	347.75
2445.589	356.75
2449.349	348.75
2453.106	345.75
2456.859	342.75
2460.61	346.75
2464.356	338.75
2468.1	341.75
2471.84	336.75
2475.577	333.75
2479.311	332.75
2483.041	330.75
2486.768	327.75
2490.492	331.75
2494.213	331.75
2497.93	323.75
2501.644	326.75
2505.355	326.75
2509.062	321.75
2512.766	321.75
2516.467	317.75
2520.165	316.75
2523.859	318.75
2527.551	310.75
2531.239	316.75
2534.923	310.75
2538.605	307.75
2542.283	312.75
2545.958	301.75
2549.63	294.75
2553.299	294.75
2556.964	294.75
2560.626	297.75
2564.285	300.75
2567.941	293.75
2571.594	290.75
2575.243	297.75
2578.89	296.75
2582.533	283.75
2586.173	276.75
2589.809	282.75
2593.443	284.75
2597.073	279.75
2600.701	274.75
2604.325	270.75
2607.946	272.75
2611.564	268.75
2615.178	265.75
2618.79	268.75
2622.398	265.75
2626.004	265.75
2629.606	256.75
2633.205	254.75
2636.801	258.75
2640.394	252.75
2643.983	247.75
2647.57	252.75
2651.153	242.75
2654.734	249.75
2658.311	240.75
2661.885	246.75
2665.456	241.75
2669.025	235.75
2672.589	230.75
2676.151	231.75
2679.71	230.75
2683.266	228.75
2686.819	221.75
2690.368	223.75
2693.915	221.75
2697.458	229.75
2700.999	213.75
2704.536	219.75
2708.071	224.75
2711.602	214.75
2715.13	211.75
2718.656	208.75
2722.178	209.75
2725.697	205.75
2729.214	211.75
2732.727	220.75
2736.237	216.75
2739.744	211.75
2743.249	207.75
2746.75	208.75
2750.248	222.75
2753.743	208.75
2757.236	201.75
2760.725	208.75
2764.211	205.75
2767.695	209.75
2771.175	207.75
2774.652	208.75
2778.127	205.75
2781.598	200.75
2785.067	202.75
2788.532	203.75
2791.995	202.75
2795.455	200.75
2798.911	200.75
2802.365	199.75
2805.816	214.75
2809.264	199.75
2812.709	199.75
2816.151	215.75
2819.59	205.75
2823.026	218.75
2826.46	212.75
2829.89	215.75
2833.318	211.75
2836.742	213.75
2840.164	215.75
2843.583	217.75
2846.999	205.75
2850.412	217.75
2853.822	219.75
2857.229	219.75
2860.634	225.75
2864.035	228.75
2867.434	235.75
2870.83	224.75
2874.223	239.75
2877.613	228.75
2881	244.75
2884.385	242.75
2887.766	239.75
2891.145	243.75
2894.521	239.75
2897.894	250.75
2901.264	240.75
2904.631	243.75
2907.996	250.75
2911.358	247.75
2914.717	262.75
2918.073	248.75
2921.426	258.75
2924.777	273.75
2928.124	261.75
2931.469	270.75
2934.811	287.75
2938.15	284.75
2941.487	294.75
2944.821	297.75
2948.152	302.75
2951.48	308.75
2954.805	306.75
2958.128	314.75
2961.447	312.75
2964.765	324.75
2968.079	326.75
2971.39	334.75
2974.699	341.75
2978.005	345.75
2981.308	363.75
2984.609	367.75
2987.907	375.75
2991.202	380.75
2994.494	391.75
2997.784	406.75
3001.07	420.75
3004.355	433.75
3007.636	437.75
3010.915	446.75
3014.191	453.75
3017.464	463.75
3020.734	478.75
3024.002	477.75
3027.267	491.75
3030.53	488.75
3033.789	509.75
3037.046	522.75
3040.301	526.75
3043.552	539.75
3046.801	558.75
3050.048	567.75
3053.291	587.75
3056.532	604.75
3059.771	624.75
3063.006	633.75
3066.239	660.75
3069.469	681.75
3072.697	706.75
3075.922	724.75
3079.144	750.75
3082.364	765.75
3085.581	778.75
3088.795	775.75
3092.007	798.75
3095.216	826.75
3098.423	840.75
3101.627	866.75
3104.828	877.75
3108.026	901.75
3111.222	921.75
3114.416	942.75
3117.607	965.75
3120.795	987.75
3123.98	999.75
3127.163	1032.75
3130.344	1045.75
3133.521	1091.75
3136.696	1106.75
3139.869	1133.75
3143.039	1136.75
3146.206	1163.75
3149.371	1176.75
3152.533	1177.75
3155.693	1189.75
3158.85	1199.75
3162.005	1206.75
3165.157	1221.75
3168.306	1223.75
3171.453	1213.75
3174.597	1234.75
3177.739	1218.75
3180.878	1228.75
3184.014	1246.75
3187.149	1225.75
3190.28	1253.75
3193.409	1250.75
3196.536	1259.75
3199.659	1261.75
3202.781	1263.75
3205.9	1273.75
3209.016	1256.75
3212.13	1243.75
3215.241	1235.75
3218.35	1250.75
3221.456	1232.75
3224.56	1217.75
3227.661	1203.75
3230.76	1210.75
3233.856	1191.75
3236.95	1183.75
3240.041	1157.75
3243.13	1155.75
3246.216	1140.75
3249.3	1137.75
3252.382	1138.75
3255.46	1098.75
3258.537	1120.75
3261.611	1120.75
3264.682	1118.75
3267.751	1104.75
3270.818	1098.75
3273.882	1112.75
3276.943	1084.75
3280.002	1099.75
3283.059	1067.75
3286.113	1054.75
3289.165	1062.75
3292.214	1032.75
3295.261	1015.75
3298.306	998.75
3301.348	1001.75
3304.387	963.75
3307.425	949.75
3310.459	933.75
3313.492	931.75
3316.521	922.75
3319.549	909.75
3322.574	891.75
3325.597	898.75
3328.617	892.75
3331.635	885.75
3334.65	873.75
3337.663	872.75
3340.674	874.75
3343.682	861.75
3346.688	855.75
3349.691	860.75
3352.692	856.75
3355.691	856.75
3358.687	841.75
3361.681	842.75
3364.673	819.75
3367.662	803.75
3370.649	783.75
3373.633	785.75
3376.615	775.75
3379.595	786.75
3382.572	751.75
3385.547	744.75
3388.52	745.75
3391.49	718.75
3394.458	726.75
3397.424	710.75
3400.387	698.75
3403.348	692.75
3406.307	686.75
3409.263	677.75
3412.217	669.75
3415.168	661.75
3418.118	654.75
3421.065	646.75
3424.009	635.75
3426.951	626.75
3429.891	629.75
3432.829	611.75
3435.764	585.75
3438.697	576.75
3441.628	566.75
3444.557	551.75
3447.483	544.75
3450.407	522.75
3453.328	519.75
3456.247	503.75
3459.164	488.75
3462.079	469.75
3464.991	456.75
3467.902	440.75
3470.809	411.75
3473.715	411.75
3476.618	392.75
3479.519	383.75
3482.418	366.75
3485.315	363.75
3488.209	352.75
3491.101	346.75
3493.99	337.75
3496.878	322.75
3499.763	313.75
3502.646	302.75
3505.527	291.75
3508.405	280.75
3511.281	269.75
3514.155	253.75
3517.027	246.75
3519.897	228.75
3522.764	218.75
3525.629	202.75
3528.492	205.75
3531.352	185.75
3534.211	174.75
3537.067	158.75
3539.921	143.75
3542.773	137.75
3545.622	131.75
3548.469	124.75
3551.315	117.75
3554.157	113.75
3556.998	106.75
3559.837	100.75
3562.673	98.75
3565.507	85.75
3568.339	80.75
3571.169	82.75
3573.996	65.75
3576.822	63.75
3579.645	51.75
3582.466	44.75
3585.285	42.75
3588.101	44.75
3590.916	33.75
3593.728	24.75
3596.538	20.75
3599.346	19.75
3602.152	14.75
3604.956	12.75
3607.757	1.75
3610.556	-1.25
3613.354	-5.25
3616.149	-6.25
3618.942	-10.25
3621.732	-12.25
3624.521	-14.25
3627.307	-17.25
3630.092	-22.25
3632.874	-25.25
3635.654	-27.25
3638.432	-31.25
3641.208	-35.25
3643.982	-39.25
3646.753	-37.25
3649.523	-49.25
3652.29	-43.25
3655.055	-47.25
3657.818	-44.25
3660.579	-48.25
3663.338	-56.25
3666.095	-55.25
3668.849	-55.25
3671.602	-63.25
3674.352	-63.25
3677.101	-68.25
3679.847	-68.25
3682.591	-72.25
3685.333	-72.25
3688.073	-72.25
3690.811	-74.25
3693.547	-71.25
3696.281	-75.25
3699.013	-80.25
3701.742	-84.25
3704.47	-84.25
3707.195	-82.25
3709.919	-83.25
3712.64	-85.25
3715.359	-85.25
3718.076	-84.25
3720.792	-83.25
3723.505	-86.25
3726.216	-86.25
3728.925	-88.25
3731.632	-91.25
3734.336	-91.25
3737.039	-94.25
3739.74	-95.25
3742.439	-94.25
3745.136	-93.25
3747.83	-96.25
3750.523	-92.25
3753.213	-100.25
3755.902	-94.25
3758.589	-90.25
3761.273	-97.25
3763.956	-96.25
3766.636	-95.25
3769.315	-96.25
3771.991	-100.25
3774.665	-97.25
3777.338	-99.25
3780.008	-100.25
3782.677	-97.25
3785.343	-102.25
3788.007	-102.25
3790.67	-100.25
3793.33	-103.25
3795.989	-101.25
3798.645	-102.25
3801.299	-101.25
3803.952	-102.25
3806.602	-106.25
3809.251	-105.25
3811.897	-99.25
3814.542	-101.25
3817.184	-102.25
3819.825	-102.25
3822.463	-105.25
3825.1	-105.25
3827.735	-107.25
3830.367	-107.25
3832.998	-109.25
3835.627	-109.25
3838.253	-107.25
3840.878	-106.25
3843.501	-104.25
3846.122	-104.25
3848.741	-108.25
3851.358	-109.25
3853.973	-107.25
3856.586	-106.25
3859.197	-108.25
3861.806	-107.25
3864.414	-110.25
3867.019	-109.25
3869.622	-103.25
3872.224	-106.25
3874.823	-105.25
3877.421	-101.25
3880.016	-98.25
3882.61	-104.25
3885.202	-100.25
3887.792	-101.25
3890.38	-107.25
3892.966	-107.25
3895.55	-107.25
3898.132	-109.25
3900.713	-110.25
3903.291	-105.25
3905.868	-106.25
3908.442	-108.25
3911.015	-108.25
3913.586	-110.25
3916.155	-112.25
3918.722	-112.25
3921.287	-111.25
3923.85	-111.25
3926.411	-113.25
3928.971	-108.25
3931.528	-111.25
3934.084	-111.25
3936.638	-115.25
3939.19	-114.25
3941.74	-111.25
3944.288	-113.25
3946.834	-113.25
3949.378	-112.25
3951.921	-112.25
3954.462	-113.25
3957	-110.25
3959.537	-109.25
3962.072	-109.25
3964.606	-106.25
3967.137	-112.25
3969.667	-114.25
3972.194	-114.25
3974.72	-114.25
3977.244	-114.25
3979.766	-115.25
3982.286	-112.25
3984.805	-110.25
3987.321	-106.25
3989.836	-106.25
3992.349	-106.25
3994.86	-109.25
3997.369	-105.25
3999.877	-110.25
4002.382	-108.25
4004.886	-108.25
4007.388	-108.25
4009.888	-111.25
4012.386	-110.25
4014.883	-106.25
4017.377	-106.25
4019.87	-108.25
4022.361	-109.25
4024.85	-109.25
4027.338	-112.25
4029.823	-109.25
4032.307	-110.25
4034.789	-111.25
4037.269	-109.25
4039.747	-111.25
4042.224	-110.25
4044.699	-109.25
4047.172	-109.25
4049.643	-107.25
4052.112	-107.25
4054.58	-109.25
4057.046	-109.25
4059.51	-111.25
4061.972	-113.25
4064.432	-113.25
4066.891	-114.25
4069.348	-109.25
4071.803	-112.25
4074.256	-110.25
4076.708	-109.25
4079.158	-108.25
4081.606	-107.25
4084.052	-108.25
4086.497	-108.25
4088.939	-112.25
4091.38	-109.25
4093.819	-111.25
4096.257	-111.25
4098.693	-112.25
4101.127	-116.25
4103.559	-114.25
4105.989	-71.25
4108.418	-70.25
4110.845	-65.25
4113.27	-60.25
4115.694	-53.25
4118.115	-46.25
4120.535	-112.25
4122.954	-114.25
4125.37	-111.25
4127.785	-112.25
4130.198	-112.25
4132.609	-113.25
4135.019	-115.25
4137.427	-113.25
4139.833	-117.25
4142.237	-118.25
