Data from 1CFU2_A_RamanShift_1.txt Node
Date: Tue Jan 24 17:11:06 IST 2017
User: aro
Spectrometer: QEPB0276
Trigger mode: 0
Integration Time (sec): 5.000000E0
Scans to average: 1
Electric dark correction enabled: true
Nonlinearity correction enabled: false
Boxcar width: 0
XAxis mode: Raman Shifts
Number of Pixels in Spectrum: 1044
>>>>>Begin Spectral Data<<<<<
160.701	-34.12
166.742	-5.12
172.777	98.88
178.805	395.88
184.826	1088.88
190.841	2240.88
196.849	3499.88
202.85	4349.88
208.845	4529.88
214.833	4379.88
220.815	4230.88
226.789	4111.88
232.758	4006.88
238.719	3894.88
244.674	3748.88
250.623	3597.88
256.565	3421.88
262.5	3264.88
268.429	3159.88
274.351	3040.88
280.267	2906.88
286.176	2821.88
292.079	2719.88
297.975	2656.88
303.865	2556.88
309.748	2519.88
315.625	2451.88
321.495	2413.88
327.359	2347.88
333.217	2335.88
339.068	2329.88
344.912	2325.88
350.751	2306.88
356.583	2304.88
362.408	2314.88
368.227	2312.88
374.04	2313.88
379.847	2300.88
385.647	2324.88
391.44	2343.88
397.228	2352.88
403.009	2363.88
408.784	2356.88
414.553	2405.88
420.315	2394.88
426.071	2382.88
431.821	2388.88
437.565	2377.88
443.302	2371.88
449.033	2378.88
454.758	2362.88
460.477	2347.88
466.189	2358.88
471.896	2336.88
477.596	2341.88
483.29	2322.88
488.978	2310.88
494.66	2296.88
500.335	2262.88
506.005	2216.88
511.668	2187.88
517.325	2155.88
522.977	2121.88
528.622	2101.88
534.261	2068.88
539.894	2049.88
545.521	2015.88
551.141	2032.88
556.756	2022.88
562.365	2015.88
567.968	1982.88
573.565	1989.88
579.155	1970.88
584.74	1949.88
590.319	1962.88
595.892	1936.88
601.459	1926.88
607.02	1902.88
612.575	1892.88
618.124	1865.88
623.667	1877.88
629.204	1844.88
634.735	1836.88
640.261	1826.88
645.781	1791.88
651.294	1791.88
656.802	1790.88
662.304	1782.88
667.8	1757.88
673.29	1783.88
678.775	1768.88
684.254	1783.88
689.726	1767.88
695.193	1740.88
700.655	1720.88
706.11	1734.88
711.56	1712.88
717.004	1681.88
722.442	1695.88
727.874	1664.88
733.301	1671.88
738.722	1672.88
744.137	1649.88
749.547	1659.88
754.951	1649.88
760.349	1657.88
765.741	1632.88
771.128	1649.88
776.509	1652.88
781.885	1654.88
787.254	1635.88
792.618	1625.88
797.977	1629.88
803.33	1610.88
808.677	1591.88
814.019	1590.88
819.355	1566.88
824.686	1556.88
830.011	1533.88
835.33	1540.88
840.644	1536.88
845.952	1541.88
851.255	1521.88
856.552	1516.88
861.844	1506.88
867.13	1493.88
872.41	1492.88
877.686	1468.88
882.955	1459.88
888.219	1435.88
893.478	1402.88
898.731	1389.88
903.979	1372.88
909.221	1359.88
914.458	1360.88
919.69	1347.88
924.916	1341.88
930.136	1349.88
935.351	1349.88
940.561	1340.88
945.766	1329.88
950.965	1337.88
956.158	1317.88
961.347	1304.88
966.529	1291.88
971.707	1265.88
976.879	1252.88
982.046	1255.88
987.208	1252.88
992.364	1241.88
997.515	1258.88
1002.66	1261.88
1007.801	1267.88
1012.936	1269.88
1018.066	1286.88
1023.19	1293.88
1028.309	1308.88
1033.423	1303.88
1038.532	1276.88
1043.636	1279.88
1048.734	1273.88
1053.827	1248.88
1058.915	1227.88
1063.998	1243.88
1069.075	1218.88
1074.147	1226.88
1079.214	1246.88
1084.276	1243.88
1089.333	1247.88
1094.385	1258.88
1099.431	1267.88
1104.472	1256.88
1109.509	1261.88
1114.54	1255.88
1119.565	1233.88
1124.586	1219.88
1129.602	1212.88
1134.613	1194.88
1139.618	1186.88
1144.619	1190.88
1149.614	1206.88
1154.604	1224.88
1159.589	1223.88
1164.57	1216.88
1169.545	1210.88
1174.515	1203.88
1179.48	1226.88
1184.44	1208.88
1189.395	1209.88
1194.345	1201.88
1199.29	1189.88
1204.23	1189.88
1209.165	1204.88
1214.095	1220.88
1219.021	1207.88
1223.941	1242.88
1228.856	1255.88
1233.766	1248.88
1238.672	1237.88
1243.572	1249.88
1248.467	1230.88
1253.358	1223.88
1258.244	1201.88
1263.124	1176.88
1268	1174.88
1272.871	1152.88
1277.737	1144.88
1282.599	1154.88
1287.455	1151.88
1292.306	1150.88
1297.153	1155.88
1301.995	1151.88
1306.832	1168.88
1311.664	1181.88
1316.491	1179.88
1321.314	1188.88
1326.132	1162.88
1330.945	1171.88
1335.753	1135.88
1340.556	1137.88
1345.354	1116.88
1350.148	1117.88
1354.937	1115.88
1359.722	1109.88
1364.501	1080.88
1369.276	1090.88
1374.046	1076.88
1378.811	1058.88
1383.572	1072.88
1388.327	1062.88
1393.079	1065.88
1397.825	1061.88
1402.567	1041.88
1407.304	1043.88
1412.036	1025.88
1416.764	1027.88
1421.487	1027.88
1426.205	1039.88
1430.919	1040.88
1435.628	1070.88
1440.333	1087.88
1445.032	1082.88
1449.727	1084.88
1454.418	1086.88
1459.104	1080.88
1463.785	1084.88
1468.462	1065.88
1473.134	1049.88
1477.802	1062.88
1482.465	1035.88
1487.123	1040.88
1491.777	1060.88
1496.426	1050.88
1501.071	1051.88
1505.711	1072.88
1510.347	1081.88
1514.978	1071.88
1519.604	1086.88
1524.226	1098.88
1528.844	1105.88
1533.457	1112.88
1538.065	1093.88
1542.669	1091.88
1547.269	1096.88
1551.864	1098.88
1556.454	1102.88
1561.041	1104.88
1565.622	1110.88
1570.199	1137.88
1574.772	1148.88
1579.34	1167.88
1583.904	1193.88
1588.464	1199.88
1593.019	1208.88
1597.569	1236.88
1602.115	1239.88
1606.657	1247.88
1611.195	1272.88
1615.728	1273.88
1620.256	1277.88
1624.78	1314.88
1629.3	1323.88
1633.816	1337.88
1638.327	1361.88
1642.834	1376.88
1647.336	1384.88
1651.834	1392.88
1656.328	1393.88
1660.817	1372.88
1665.302	1361.88
1669.783	1326.88
1674.259	1293.88
1678.732	1251.88
1683.199	1225.88
1687.663	1189.88
1692.122	1131.88
1696.577	1097.88
1701.028	1059.88
1705.474	1016.88
1709.917	986.88
1714.355	974.88
1718.788	966.88
1723.218	948.88
1727.643	918.88
1732.064	899.88
1736.481	873.88
1740.893	867.88
1745.301	846.88
1749.705	818.88
1754.105	794.88
1758.501	775.88
1762.893	773.88
1767.28	764.88
1771.663	752.88
1776.042	758.88
1780.417	760.88
1784.787	755.88
1789.154	748.88
1793.516	751.88
1797.874	744.88
1802.228	733.88
1806.578	726.88
1810.924	729.88
1815.266	700.88
1819.603	710.88
1823.937	694.88
1828.266	693.88
1832.591	679.88
1836.913	682.88
1841.23	671.88
1845.543	674.88
1849.852	683.88
1854.156	684.88
1858.457	675.88
1862.754	685.88
1867.047	696.88
1871.335	697.88
1875.62	695.88
1879.9	683.88
1884.177	683.88
1888.449	691.88
1892.718	692.88
1896.982	671.88
1901.243	677.88
1905.499	674.88
1909.752	674.88
1914	670.88
1918.245	673.88
1922.485	679.88
1926.722	692.88
1930.954	679.88
1935.183	679.88
1939.408	695.88
1943.628	694.88
1947.845	682.88
1952.058	673.88
1956.267	676.88
1960.472	674.88
1964.673	662.88
1968.87	658.88
1973.063	650.88
1977.252	648.88
1981.438	645.88
1985.619	645.88
1989.797	641.88
1993.971	636.88
1998.14	651.88
2002.306	646.88
2006.469	660.88
2010.627	644.88
2014.781	663.88
2018.932	654.88
2023.078	647.88
2027.221	653.88
2031.36	658.88
2035.495	652.88
2039.627	636.88
2043.754	638.88
2047.878	628.88
2051.998	637.88
2056.114	637.88
2060.226	635.88
2064.334	645.88
2068.439	642.88
2072.54	644.88
2076.637	661.88
2080.73	650.88
2084.82	657.88
2088.906	650.88
2092.988	646.88
2097.066	651.88
2101.14	640.88
2105.211	631.88
2109.278	636.88
2113.342	640.88
2117.401	634.88
2121.457	628.88
2125.509	625.88
2129.558	613.88
2133.602	613.88
2137.643	617.88
2141.681	611.88
2145.714	597.88
2149.744	609.88
2153.77	605.88
2157.793	593.88
2161.812	592.88
2165.827	599.88
2169.838	573.88
2173.846	571.88
2177.851	566.88
2181.851	549.88
2185.848	552.88
2189.841	553.88
2193.831	530.88
2197.817	531.88
2201.799	527.88
2205.778	527.88
2209.753	529.88
2213.725	531.88
2217.693	530.88
2221.657	522.88
2225.618	523.88
2229.575	511.88
2233.529	516.88
2237.479	513.88
2241.425	505.88
2245.368	502.88
2249.307	500.88
2253.243	492.88
2257.175	488.88
2261.104	480.88
2265.029	469.88
2268.95	475.88
2272.868	466.88
2276.783	447.88
2280.694	445.88
2284.601	447.88
2288.505	428.88
2292.405	427.88
2296.302	418.88
2300.195	419.88
2304.085	406.88
2307.971	408.88
2311.854	404.88
2315.734	389.88
2319.609	388.88
2323.482	379.88
2327.351	382.88
2331.216	388.88
2335.078	371.88
2338.937	371.88
2342.792	364.88
2346.643	373.88
2350.492	362.88
2354.336	362.88
2358.178	371.88
2362.015	366.88
2365.85	362.88
2369.681	373.88
2373.508	367.88
2377.333	355.88
2381.153	363.88
2384.971	378.88
2388.785	372.88
2392.595	362.88
2396.402	353.88
2400.206	365.88
2404.007	355.88
2407.804	348.88
2411.597	354.88
2415.388	349.88
2419.174	357.88
2422.958	339.88
2426.738	347.88
2430.515	342.88
2434.289	341.88
2438.059	342.88
2441.825	336.88
2445.589	336.88
2449.349	339.88
2453.106	338.88
2456.859	327.88
2460.61	325.88
2464.356	319.88
2468.1	318.88
2471.84	321.88
2475.577	326.88
2479.311	321.88
2483.041	320.88
2486.768	321.88
2490.492	326.88
2494.213	320.88
2497.93	316.88
2501.644	313.88
2505.355	308.88
2509.062	308.88
2512.766	306.88
2516.467	314.88
2520.165	305.88
2523.859	310.88
2527.551	302.88
2531.239	302.88
2534.923	305.88
2538.605	300.88
2542.283	301.88
2545.958	292.88
2549.63	294.88
2553.299	278.88
2556.964	286.88
2560.626	280.88
2564.285	289.88
2567.941	281.88
2571.594	274.88
2575.243	278.88
2578.89	276.88
2582.533	284.88
2586.173	277.88
2589.809	266.88
2593.443	267.88
2597.073	266.88
2600.701	265.88
2604.325	258.88
2607.946	261.88
2611.564	260.88
2615.178	261.88
2618.79	262.88
2622.398	265.88
2626.004	254.88
2629.606	253.88
2633.205	248.88
2636.801	240.88
2640.394	250.88
2643.983	251.88
2647.57	242.88
2651.153	241.88
2654.734	242.88
2658.311	232.88
2661.885	236.88
2665.456	227.88
2669.025	227.88
2672.589	214.88
2676.151	227.88
2679.71	219.88
2683.266	217.88
2686.819	220.88
2690.368	209.88
2693.915	214.88
2697.458	208.88
2700.999	206.88
2704.536	207.88
2708.071	204.88
2711.602	203.88
2715.13	198.88
2718.656	194.88
2722.178	194.88
2725.697	196.88
2729.214	201.88
2732.727	204.88
2736.237	203.88
2739.744	207.88
2743.249	201.88
2746.75	196.88
2750.248	199.88
2753.743	206.88
2757.236	197.88
2760.725	203.88
2764.211	195.88
2767.695	196.88
2771.175	196.88
2774.652	204.88
2778.127	192.88
2781.598	197.88
2785.067	188.88
2788.532	184.88
2791.995	188.88
2795.455	193.88
2798.911	191.88
2802.365	195.88
2805.816	199.88
2809.264	189.88
2812.709	203.88
2816.151	200.88
2819.59	201.88
2823.026	198.88
2826.46	199.88
2829.89	206.88
2833.318	199.88
2836.742	200.88
2840.164	198.88
2843.583	205.88
2846.999	203.88
2850.412	206.88
2853.822	208.88
2857.229	213.88
2860.634	222.88
2864.035	220.88
2867.434	221.88
2870.83	226.88
2874.223	213.88
2877.613	224.88
2881	227.88
2884.385	229.88
2887.766	230.88
2891.145	220.88
2894.521	225.88
2897.894	235.88
2901.264	233.88
2904.631	225.88
2907.996	235.88
2911.358	244.88
2914.717	235.88
2918.073	243.88
2921.426	249.88
2924.777	248.88
2928.124	248.88
2931.469	257.88
2934.811	268.88
2938.15	257.88
2941.487	273.88
2944.821	268.88
2948.152	285.88
2951.48	280.88
2954.805	280.88
2958.128	289.88
2961.447	299.88
2964.765	299.88
2968.079	306.88
2971.39	314.88
2974.699	321.88
2978.005	325.88
2981.308	333.88
2984.609	354.88
2987.907	364.88
2991.202	369.88
2994.494	379.88
2997.784	384.88
3001.07	395.88
3004.355	407.88
3007.636	417.88
3010.915	420.88
3014.191	431.88
3017.464	440.88
3020.734	440.88
3024.002	452.88
3027.267	460.88
3030.53	474.88
3033.789	478.88
3037.046	492.88
3040.301	505.88
3043.552	508.88
3046.801	519.88
3050.048	542.88
3053.291	554.88
3056.532	575.88
3059.771	590.88
3063.006	613.88
3066.239	629.88
3069.469	654.88
3072.697	669.88
3075.922	677.88
3079.144	698.88
3082.364	726.88
3085.581	727.88
3088.795	749.88
3092.007	773.88
3095.216	795.88
3098.423	792.88
3101.627	814.88
3104.828	835.88
3108.026	845.88
3111.222	858.88
3114.416	892.88
3117.607	916.88
3120.795	925.88
3123.98	961.88
3127.163	979.88
3130.344	981.88
3133.521	1018.88
3136.696	1034.88
3139.869	1067.88
3143.039	1077.88
3146.206	1097.88
3149.371	1115.88
3152.533	1112.88
3155.693	1120.88
3158.85	1141.88
3162.005	1149.88
3165.157	1152.88
3168.306	1151.88
3171.453	1158.88
3174.597	1165.88
3177.739	1174.88
3180.878	1165.88
3184.014	1166.88
3187.149	1164.88
3190.28	1169.88
3193.409	1169.88
3196.536	1183.88
3199.659	1184.88
3202.781	1209.88
3205.9	1189.88
3209.016	1185.88
3212.13	1193.88
3215.241	1187.88
3218.35	1189.88
3221.456	1176.88
3224.56	1156.88
3227.661	1147.88
3230.76	1153.88
3233.856	1124.88
3236.95	1112.88
3240.041	1112.88
3243.13	1099.88
3246.216	1098.88
3249.3	1069.88
3252.382	1062.88
3255.46	1060.88
3258.537	1053.88
3261.611	1059.88
3264.682	1050.88
3267.751	1053.88
3270.818	1040.88
3273.882	1040.88
3276.943	1028.88
3280.002	1040.88
3283.059	1010.88
3286.113	1005.88
3289.165	981.88
3292.214	973.88
3295.261	972.88
3298.306	936.88
3301.348	923.88
3304.387	931.88
3307.425	918.88
3310.459	889.88
3313.492	887.88
3316.521	887.88
3319.549	860.88
3322.574	862.88
3325.597	854.88
3328.617	853.88
3331.635	829.88
3334.65	829.88
3337.663	829.88
3340.674	821.88
3343.682	824.88
3346.688	814.88
3349.691	812.88
3352.692	811.88
3355.691	801.88
3358.687	801.88
3361.681	789.88
3364.673	764.88
3367.662	775.88
3370.649	748.88
3373.633	746.88
3376.615	737.88
3379.595	744.88
3382.572	714.88
3385.547	717.88
3388.52	712.88
3391.49	680.88
3394.458	681.88
3397.424	676.88
3400.387	672.88
3403.348	652.88
3406.307	652.88
3409.263	651.88
3412.217	639.88
3415.168	625.88
3418.118	621.88
3421.065	616.88
3424.009	598.88
3426.951	599.88
3429.891	589.88
3432.829	575.88
3435.764	559.88
3438.697	540.88
3441.628	533.88
3444.557	515.88
3447.483	514.88
3450.407	486.88
3453.328	468.88
3456.247	465.88
3459.164	460.88
3462.079	442.88
3464.991	427.88
3467.902	413.88
3470.809	402.88
3473.715	384.88
3476.618	377.88
3479.519	364.88
3482.418	349.88
3485.315	340.88
3488.209	330.88
3491.101	331.88
3493.99	308.88
3496.878	301.88
3499.763	296.88
3502.646	282.88
3505.527	276.88
3508.405	259.88
3511.281	240.88
3514.155	238.88
3517.027	226.88
3519.897	212.88
3522.764	204.88
3525.629	192.88
3528.492	184.88
3531.352	177.88
3534.211	163.88
3537.067	152.88
3539.921	140.88
3542.773	126.88
3545.622	126.88
3548.469	112.88
3551.315	104.88
3554.157	99.88
3556.998	102.88
3559.837	90.88
3562.673	83.88
3565.507	73.88
3568.339	64.88
3571.169	58.88
3573.996	53.88
3576.822	44.88
3579.645	42.88
3582.466	37.88
3585.285	34.88
3588.101	27.88
3590.916	20.88
3593.728	24.88
3596.538	19.88
3599.346	13.88
3602.152	6.88
3604.956	4.88
3607.757	-3.12
3610.556	-11.12
3613.354	-8.12
3616.149	-11.12
3618.942	-19.12
3621.732	-23.12
3624.521	-23.12
3627.307	-24.12
3630.092	-31.12
3632.874	-32.12
3635.654	-30.12
3638.432	-36.12
3641.208	-41.12
3643.982	-37.12
3646.753	-38.12
3649.523	-44.12
3652.29	-49.12
3655.055	-44.12
3657.818	-50.12
3660.579	-51.12
3663.338	-61.12
3666.095	-62.12
3668.849	-60.12
3671.602	-63.12
3674.352	-72.12
3677.101	-73.12
3679.847	-72.12
3682.591	-76.12
3685.333	-71.12
3688.073	-79.12
3690.811	-72.12
3693.547	-72.12
3696.281	-77.12
3699.013	-79.12
3701.742	-83.12
3704.47	-83.12
3707.195	-85.12
3709.919	-84.12
3712.64	-86.12
3715.359	-87.12
3718.076	-89.12
3720.792	-86.12
3723.505	-86.12
3726.216	-90.12
3728.925	-89.12
3731.632	-91.12
3734.336	-94.12
3737.039	-96.12
3739.74	-94.12
3742.439	-94.12
3745.136	-97.12
3747.83	-93.12
3750.523	-90.12
3753.213	-97.12
3755.902	-96.12
3758.589	-96.12
3761.273	-95.12
3763.956	-98.12
3766.636	-99.12
3769.315	-100.12
3771.991	-103.12
3774.665	-102.12
3777.338	-101.12
3780.008	-102.12
3782.677	-98.12
3785.343	-98.12
3788.007	-104.12
3790.67	-99.12
3793.33	-104.12
3795.989	-97.12
3798.645	-102.12
3801.299	-103.12
3803.952	-102.12
3806.602	-109.12
3809.251	-106.12
3811.897	-103.12
3814.542	-103.12
3817.184	-103.12
3819.825	-104.12
3822.463	-107.12
3825.1	-108.12
3827.735	-107.12
3830.367	-110.12
3832.998	-110.12
3835.627	-105.12
3838.253	-105.12
3840.878	-102.12
3843.501	-105.12
3846.122	-103.12
3848.741	-107.12
3851.358	-109.12
3853.973	-107.12
3856.586	-107.12
3859.197	-107.12
3861.806	-106.12
3864.414	-111.12
3867.019	-109.12
3869.622	-108.12
3872.224	-107.12
3874.823	-108.12
3877.421	-99.12
3880.016	-97.12
3882.61	-99.12
3885.202	-97.12
3887.792	-95.12
3890.38	-102.12
3892.966	-106.12
3895.55	-108.12
3898.132	-108.12
3900.713	-107.12
3903.291	-106.12
3905.868	-109.12
3908.442	-111.12
3911.015	-115.12
3913.586	-112.12
3916.155	-113.12
3918.722	-115.12
3921.287	-113.12
3923.85	-113.12
3926.411	-116.12
3928.971	-109.12
3931.528	-109.12
3934.084	-108.12
3936.638	-112.12
3939.19	-111.12
3941.74	-112.12
3944.288	-113.12
3946.834	-113.12
3949.378	-114.12
3951.921	-118.12
3954.462	-114.12
3957	-113.12
3959.537	-111.12
3962.072	-107.12
3964.606	-110.12
3967.137	-113.12
3969.667	-112.12
3972.194	-112.12
3974.72	-111.12
3977.244	-113.12
3979.766	-112.12
3982.286	-110.12
3984.805	-110.12
3987.321	-107.12
3989.836	-107.12
3992.349	-106.12
3994.86	-111.12
3997.369	-109.12
3999.877	-112.12
4002.382	-108.12
4004.886	-111.12
4007.388	-110.12
4009.888	-111.12
4012.386	-114.12
4014.883	-109.12
4017.377	-107.12
4019.87	-106.12
4022.361	-108.12
4024.85	-110.12
4027.338	-108.12
4029.823	-112.12
4032.307	-111.12
4034.789	-109.12
4037.269	-109.12
4039.747	-113.12
4042.224	-115.12
4044.699	-112.12
4047.172	-114.12
4049.643	-108.12
4052.112	-112.12
4054.58	-112.12
4057.046	-110.12
4059.51	-111.12
4061.972	-113.12
4064.432	-113.12
4066.891	-111.12
4069.348	-109.12
4071.803	-111.12
4074.256	-112.12
4076.708	-108.12
4079.158	-112.12
4081.606	-109.12
4084.052	-110.12
4086.497	-112.12
4088.939	-116.12
4091.38	-112.12
4093.819	-116.12
4096.257	-111.12
4098.693	-111.12
4101.127	-116.12
4103.559	-116.12
4105.989	-76.12
4108.418	-69.12
4110.845	-66.12
4113.27	-66.12
4115.694	-57.12
4118.115	-47.12
4120.535	-115.12
4122.954	-112.12
4125.37	-112.12
4127.785	-110.12
4130.198	-112.12
4132.609	-107.12
4135.019	-116.12
4137.427	-110.12
4139.833	-115.12
4142.237	-114.12
