Data from 1CFU2_B_RamanShift_1.txt Node
Date: Tue Jan 24 17:51:51 IST 2017
User: aro
Spectrometer: QEPB0276
Trigger mode: 0
Integration Time (sec): 5.000000E0
Scans to average: 1
Electric dark correction enabled: true
Nonlinearity correction enabled: false
Boxcar width: 0
XAxis mode: Raman Shifts
Number of Pixels in Spectrum: 1044
>>>>>Begin Spectral Data<<<<<
160.701	-37.12
166.742	-1.12
172.777	95.88
178.805	397.88
184.826	1078.88
190.841	2261.88
196.849	3546.88
202.85	4376.88
208.845	4568.88
214.833	4438.88
220.815	4267.88
226.789	4153.88
232.758	4028.88
238.719	3897.88
244.674	3755.88
250.623	3592.88
256.565	3411.88
262.5	3252.88
268.429	3116.88
274.351	3000.88
280.267	2880.88
286.176	2759.88
292.079	2678.88
297.975	2598.88
303.865	2513.88
309.748	2460.88
315.625	2392.88
321.495	2338.88
327.359	2313.88
333.217	2287.88
339.068	2266.88
344.912	2258.88
350.751	2233.88
356.583	2230.88
362.408	2215.88
368.227	2223.88
374.04	2233.88
379.847	2239.88
385.647	2266.88
391.44	2263.88
397.228	2286.88
403.009	2301.88
408.784	2293.88
414.553	2314.88
420.315	2308.88
426.071	2305.88
431.821	2313.88
437.565	2296.88
443.302	2296.88
449.033	2284.88
454.758	2275.88
460.477	2269.88
466.189	2255.88
471.896	2263.88
477.596	2251.88
483.29	2232.88
488.978	2217.88
494.66	2206.88
500.335	2184.88
506.005	2150.88
511.668	2085.88
517.325	2066.88
522.977	2012.88
528.622	2004.88
534.261	1996.88
539.894	1972.88
545.521	1958.88
551.141	1948.88
556.756	1939.88
562.365	1895.88
567.968	1930.88
573.565	1897.88
579.155	1879.88
584.74	1878.88
590.319	1861.88
595.892	1834.88
601.459	1830.88
607.02	1814.88
612.575	1799.88
618.124	1790.88
623.667	1767.88
629.204	1754.88
634.735	1730.88
640.261	1720.88
645.781	1722.88
651.294	1699.88
656.802	1703.88
662.304	1674.88
667.8	1694.88
673.29	1679.88
678.775	1679.88
684.254	1689.88
689.726	1658.88
695.193	1651.88
700.655	1639.88
706.11	1627.88
711.56	1613.88
717.004	1611.88
722.442	1602.88
727.874	1586.88
733.301	1582.88
738.722	1561.88
744.137	1570.88
749.547	1555.88
754.951	1569.88
760.349	1564.88
765.741	1559.88
771.128	1544.88
776.509	1543.88
781.885	1542.88
787.254	1554.88
792.618	1547.88
797.977	1536.88
803.33	1517.88
808.677	1504.88
814.019	1481.88
819.355	1479.88
824.686	1471.88
830.011	1438.88
835.33	1440.88
840.644	1443.88
845.952	1423.88
851.255	1440.88
856.552	1422.88
861.844	1405.88
867.13	1397.88
872.41	1387.88
877.686	1384.88
882.955	1358.88
888.219	1351.88
893.478	1332.88
898.731	1298.88
903.979	1286.88
909.221	1276.88
914.458	1274.88
919.69	1253.88
924.916	1256.88
930.136	1253.88
935.351	1256.88
940.561	1250.88
945.766	1250.88
950.965	1243.88
956.158	1238.88
961.347	1214.88
966.529	1203.88
971.707	1185.88
976.879	1162.88
982.046	1163.88
987.208	1151.88
992.364	1147.88
997.515	1164.88
1002.66	1153.88
1007.801	1173.88
1012.936	1175.88
1018.066	1196.88
1023.19	1206.88
1028.309	1197.88
1033.423	1191.88
1038.532	1199.88
1043.636	1196.88
1048.734	1169.88
1053.827	1157.88
1058.915	1158.88
1063.998	1130.88
1069.075	1123.88
1074.147	1141.88
1079.214	1140.88
1084.276	1150.88
1089.333	1166.88
1094.385	1190.88
1099.431	1180.88
1104.472	1183.88
1109.509	1184.88
1114.54	1150.88
1119.565	1153.88
1124.586	1141.88
1129.602	1127.88
1134.613	1124.88
1139.618	1121.88
1144.619	1127.88
1149.614	1133.88
1154.604	1136.88
1159.589	1124.88
1164.57	1146.88
1169.545	1149.88
1174.515	1137.88
1179.48	1140.88
1184.44	1139.88
1189.395	1122.88
1194.345	1105.88
1199.29	1109.88
1204.23	1125.88
1209.165	1144.88
1214.095	1143.88
1219.021	1140.88
1223.941	1148.88
1228.856	1151.88
1233.766	1166.88
1238.672	1169.88
1243.572	1141.88
1248.467	1146.88
1253.358	1130.88
1258.244	1129.88
1263.124	1098.88
1268	1079.88
1272.871	1069.88
1277.737	1082.88
1282.599	1071.88
1287.455	1064.88
1292.306	1068.88
1297.153	1088.88
1301.995	1099.88
1306.832	1103.88
1311.664	1104.88
1316.491	1120.88
1321.314	1094.88
1326.132	1097.88
1330.945	1082.88
1335.753	1070.88
1340.556	1051.88
1345.354	1039.88
1350.148	1028.88
1354.937	1035.88
1359.722	1026.88
1364.501	1012.88
1369.276	1014.88
1374.046	1002.88
1378.811	991.88
1383.572	1012.88
1388.327	1000.88
1393.079	993.88
1397.825	975.88
1402.567	972.88
1407.304	970.88
1412.036	967.88
1416.764	959.88
1421.487	958.88
1426.205	975.88
1430.919	977.88
1435.628	995.88
1440.333	997.88
1445.032	1002.88
1449.727	1012.88
1454.418	1016.88
1459.104	1008.88
1463.785	995.88
1468.462	996.88
1473.134	992.88
1477.802	997.88
1482.465	966.88
1487.123	981.88
1491.777	979.88
1496.426	973.88
1501.071	996.88
1505.711	996.88
1510.347	1012.88
1514.978	1018.88
1519.604	1029.88
1524.226	1038.88
1528.844	1041.88
1533.457	1037.88
1538.065	1032.88
1542.669	1048.88
1547.269	1027.88
1551.864	1032.88
1556.454	1042.88
1561.041	1045.88
1565.622	1063.88
1570.199	1073.88
1574.772	1102.88
1579.34	1115.88
1583.904	1127.88
1588.464	1151.88
1593.019	1163.88
1597.569	1180.88
1602.115	1186.88
1606.657	1195.88
1611.195	1232.88
1615.728	1226.88
1620.256	1249.88
1624.78	1278.88
1629.3	1277.88
1633.816	1304.88
1638.327	1326.88
1642.834	1349.88
1647.336	1336.88
1651.834	1347.88
1656.328	1337.88
1660.817	1341.88
1665.302	1309.88
1669.783	1274.88
1674.259	1266.88
1678.732	1218.88
1683.199	1185.88
1687.663	1153.88
1692.122	1105.88
1696.577	1062.88
1701.028	1025.88
1705.474	967.88
1709.917	935.88
1714.355	927.88
1718.788	910.88
1723.218	896.88
1727.643	867.88
1732.064	844.88
1736.481	829.88
1740.893	806.88
1745.301	774.88
1749.705	763.88
1754.105	741.88
1758.501	735.88
1762.893	726.88
1767.28	721.88
1771.663	696.88
1776.042	694.88
1780.417	700.88
1784.787	700.88
1789.154	696.88
1793.516	698.88
1797.874	696.88
1802.228	692.88
1806.578	680.88
1810.924	668.88
1815.266	672.88
1819.603	659.88
1823.937	640.88
1828.266	626.88
1832.591	638.88
1836.913	636.88
1841.23	626.88
1845.543	619.88
1849.852	617.88
1854.156	630.88
1858.457	619.88
1862.754	625.88
1867.047	627.88
1871.335	639.88
1875.62	648.88
1879.9	644.88
1884.177	639.88
1888.449	644.88
1892.718	637.88
1896.982	631.88
1901.243	631.88
1905.499	635.88
1909.752	628.88
1914	639.88
1918.245	639.88
1922.485	619.88
1926.722	639.88
1930.954	640.88
1935.183	638.88
1939.408	645.88
1943.628	650.88
1947.845	654.88
1952.058	638.88
1956.267	638.88
1960.472	633.88
1964.673	623.88
1968.87	624.88
1973.063	620.88
1977.252	607.88
1981.438	609.88
1985.619	608.88
1989.797	596.88
1993.971	599.88
1998.14	607.88
2002.306	601.88
2006.469	605.88
2010.627	606.88
2014.781	625.88
2018.932	614.88
2023.078	618.88
2027.221	616.88
2031.36	609.88
2035.495	595.88
2039.627	594.88
2043.754	599.88
2047.878	589.88
2051.998	584.88
2056.114	595.88
2060.226	606.88
2064.334	608.88
2068.439	605.88
2072.54	610.88
2076.637	604.88
2080.73	616.88
2084.82	618.88
2088.906	617.88
2092.988	616.88
2097.066	620.88
2101.14	606.88
2105.211	615.88
2109.278	604.88
2113.342	612.88
2117.401	593.88
2121.457	593.88
2125.509	600.88
2129.558	587.88
2133.602	588.88
2137.643	584.88
2141.681	584.88
2145.714	576.88
2149.744	579.88
2153.77	580.88
2157.793	573.88
2161.812	566.88
2165.827	563.88
2169.838	551.88
2173.846	542.88
2177.851	526.88
2181.851	527.88
2185.848	519.88
2189.841	513.88
2193.831	505.88
2197.817	511.88
2201.799	502.88
2205.778	504.88
2209.753	495.88
2213.725	497.88
2217.693	497.88
2221.657	497.88
2225.618	495.88
2229.575	493.88
2233.529	490.88
2237.479	480.88
2241.425	487.88
2245.368	472.88
2249.307	462.88
2253.243	457.88
2257.175	454.88
2261.104	450.88
2265.029	447.88
2268.95	435.88
2272.868	438.88
2276.783	426.88
2280.694	410.88
2284.601	416.88
2288.505	406.88
2292.405	405.88
2296.302	400.88
2300.195	395.88
2304.085	392.88
2307.971	388.88
2311.854	385.88
2315.734	375.88
2319.609	359.88
2323.482	355.88
2327.351	345.88
2331.216	347.88
2335.078	356.88
2338.937	341.88
2342.792	337.88
2346.643	335.88
2350.492	336.88
2354.336	334.88
2358.178	346.88
2362.015	337.88
2365.85	348.88
2369.681	348.88
2373.508	349.88
2377.333	338.88
2381.153	338.88
2384.971	341.88
2388.785	336.88
2392.595	330.88
2396.402	335.88
2400.206	328.88
2404.007	330.88
2407.804	322.88
2411.597	322.88
2415.388	321.88
2419.174	323.88
2422.958	323.88
2426.738	320.88
2430.515	316.88
2434.289	322.88
2438.059	321.88
2441.825	323.88
2445.589	317.88
2449.349	302.88
2453.106	309.88
2456.859	298.88
2460.61	302.88
2464.356	300.88
2468.1	308.88
2471.84	299.88
2475.577	295.88
2479.311	295.88
2483.041	303.88
2486.768	293.88
2490.492	300.88
2494.213	298.88
2497.93	286.88
2501.644	286.88
2505.355	296.88
2509.062	285.88
2512.766	288.88
2516.467	284.88
2520.165	284.88
2523.859	284.88
2527.551	278.88
2531.239	282.88
2534.923	280.88
2538.605	269.88
2542.283	266.88
2545.958	272.88
2549.63	271.88
2553.299	262.88
2556.964	268.88
2560.626	265.88
2564.285	266.88
2567.941	269.88
2571.594	261.88
2575.243	262.88
2578.89	260.88
2582.533	248.88
2586.173	248.88
2589.809	248.88
2593.443	251.88
2597.073	255.88
2600.701	244.88
2604.325	250.88
2607.946	249.88
2611.564	246.88
2615.178	239.88
2618.79	240.88
2622.398	236.88
2626.004	229.88
2629.606	232.88
2633.205	229.88
2636.801	219.88
2640.394	225.88
2643.983	226.88
2647.57	229.88
2651.153	222.88
2654.734	219.88
2658.311	209.88
2661.885	215.88
2665.456	218.88
2669.025	218.88
2672.589	208.88
2676.151	208.88
2679.71	207.88
2683.266	204.88
2686.819	202.88
2690.368	189.88
2693.915	196.88
2697.458	192.88
2700.999	194.88
2704.536	193.88
2708.071	185.88
2711.602	185.88
2715.13	185.88
2718.656	179.88
2722.178	191.88
2725.697	194.88
2729.214	189.88
2732.727	192.88
2736.237	185.88
2739.744	188.88
2743.249	186.88
2746.75	187.88
2750.248	197.88
2753.743	185.88
2757.236	177.88
2760.725	184.88
2764.211	186.88
2767.695	181.88
2771.175	185.88
2774.652	178.88
2778.127	181.88
2781.598	183.88
2785.067	186.88
2788.532	183.88
2791.995	184.88
2795.455	189.88
2798.911	182.88
2802.365	184.88
2805.816	182.88
2809.264	188.88
2812.709	188.88
2816.151	179.88
2819.59	187.88
2823.026	184.88
2826.46	194.88
2829.89	194.88
2833.318	188.88
2836.742	192.88
2840.164	190.88
2843.583	192.88
2846.999	197.88
2850.412	201.88
2853.822	205.88
2857.229	199.88
2860.634	207.88
2864.035	215.88
2867.434	215.88
2870.83	218.88
2874.223	222.88
2877.613	208.88
2881	219.88
2884.385	219.88
2887.766	227.88
2891.145	223.88
2894.521	229.88
2897.894	231.88
2901.264	228.88
2904.631	229.88
2907.996	221.88
2911.358	240.88
2914.717	237.88
2918.073	241.88
2921.426	243.88
2924.777	247.88
2928.124	242.88
2931.469	259.88
2934.811	262.88
2938.15	267.88
2941.487	278.88
2944.821	276.88
2948.152	279.88
2951.48	290.88
2954.805	285.88
2958.128	294.88
2961.447	304.88
2964.765	313.88
2968.079	311.88
2971.39	320.88
2974.699	324.88
2978.005	334.88
2981.308	342.88
2984.609	357.88
2987.907	362.88
2991.202	368.88
2994.494	392.88
2997.784	398.88
3001.07	405.88
3004.355	415.88
3007.636	437.88
3010.915	431.88
3014.191	444.88
3017.464	453.88
3020.734	458.88
3024.002	476.88
3027.267	453.88
3030.53	483.88
3033.789	489.88
3037.046	495.88
3040.301	513.88
3043.552	522.88
3046.801	541.88
3050.048	555.88
3053.291	572.88
3056.532	586.88
3059.771	602.88
3063.006	625.88
3066.239	647.88
3069.469	668.88
3072.697	683.88
3075.922	704.88
3079.144	729.88
3082.364	750.88
3085.581	762.88
3088.795	780.88
3092.007	785.88
3095.216	810.88
3098.423	836.88
3101.627	854.88
3104.828	861.88
3108.026	884.88
3111.222	904.88
3114.416	933.88
3117.607	939.88
3120.795	976.88
3123.98	999.88
3127.163	1012.88
3130.344	1028.88
3133.521	1070.88
3136.696	1099.88
3139.869	1123.88
3143.039	1140.88
3146.206	1145.88
3149.371	1169.88
3152.533	1177.88
3155.693	1182.88
3158.85	1192.88
3162.005	1198.88
3165.157	1199.88
3168.306	1196.88
3171.453	1211.88
3174.597	1213.88
3177.739	1221.88
3180.878	1233.88
3184.014	1234.88
3187.149	1217.88
3190.28	1225.88
3193.409	1243.88
3196.536	1246.88
3199.659	1242.88
3202.781	1252.88
3205.9	1239.88
3209.016	1225.88
3212.13	1249.88
3215.241	1254.88
3218.35	1228.88
3221.456	1212.88
3224.56	1213.88
3227.661	1192.88
3230.76	1179.88
3233.856	1187.88
3236.95	1169.88
3240.041	1151.88
3243.13	1140.88
3246.216	1143.88
3249.3	1134.88
3252.382	1123.88
3255.46	1116.88
3258.537	1106.88
3261.611	1102.88
3264.682	1095.88
3267.751	1108.88
3270.818	1102.88
3273.882	1087.88
3276.943	1078.88
3280.002	1073.88
3283.059	1070.88
3286.113	1056.88
3289.165	1032.88
3292.214	1032.88
3295.261	1010.88
3298.306	986.88
3301.348	984.88
3304.387	972.88
3307.425	951.88
3310.459	939.88
3313.492	918.88
3316.521	908.88
3319.549	900.88
3322.574	892.88
3325.597	896.88
3328.617	886.88
3331.635	887.88
3334.65	859.88
3337.663	863.88
3340.674	869.88
3343.682	856.88
3346.688	861.88
3349.691	862.88
3352.692	845.88
3355.691	836.88
3358.687	827.88
3361.681	832.88
3364.673	817.88
3367.662	818.88
3370.649	800.88
3373.633	786.88
3376.615	770.88
3379.595	765.88
3382.572	748.88
3385.547	742.88
3388.52	739.88
3391.49	715.88
3394.458	719.88
3397.424	709.88
3400.387	681.88
3403.348	699.88
3406.307	688.88
3409.263	663.88
3412.217	661.88
3415.168	662.88
3418.118	658.88
3421.065	651.88
3424.009	633.88
3426.951	626.88
3429.891	614.88
3432.829	610.88
3435.764	586.88
3438.697	582.88
3441.628	558.88
3444.557	549.88
3447.483	540.88
3450.407	516.88
3453.328	504.88
3456.247	494.88
3459.164	482.88
3462.079	472.88
3464.991	446.88
3467.902	441.88
3470.809	424.88
3473.715	407.88
3476.618	401.88
3479.519	373.88
3482.418	370.88
3485.315	359.88
3488.209	350.88
3491.101	334.88
3493.99	333.88
3496.878	317.88
3499.763	309.88
3502.646	302.88
3505.527	293.88
3508.405	281.88
3511.281	261.88
3514.155	257.88
3517.027	237.88
3519.897	230.88
3522.764	220.88
3525.629	209.88
3528.492	197.88
3531.352	183.88
3534.211	176.88
3537.067	161.88
3539.921	150.88
3542.773	144.88
3545.622	130.88
3548.469	129.88
3551.315	121.88
3554.157	109.88
3556.998	100.88
3559.837	104.88
3562.673	91.88
3565.507	92.88
3568.339	74.88
3571.169	69.88
3573.996	67.88
3576.822	53.88
3579.645	49.88
3582.466	47.88
3585.285	38.88
3588.101	35.88
3590.916	37.88
3593.728	28.88
3596.538	22.88
3599.346	18.88
3602.152	9.88
3604.956	7.88
3607.757	3.88
3610.556	-2.12
3613.354	-6.12
3616.149	-10.12
3618.942	-13.12
3621.732	-16.12
3624.521	-20.12
3627.307	-22.12
3630.092	-27.12
3632.874	-31.12
3635.654	-30.12
3638.432	-30.12
3641.208	-34.12
3643.982	-37.12
3646.753	-36.12
3649.523	-41.12
3652.29	-46.12
3655.055	-51.12
3657.818	-47.12
3660.579	-50.12
3663.338	-57.12
3666.095	-57.12
3668.849	-58.12
3671.602	-63.12
3674.352	-69.12
3677.101	-70.12
3679.847	-72.12
3682.591	-72.12
3685.333	-72.12
3688.073	-78.12
3690.811	-76.12
3693.547	-69.12
3696.281	-75.12
3699.013	-81.12
3701.742	-83.12
3704.47	-81.12
3707.195	-84.12
3709.919	-84.12
3712.64	-86.12
3715.359	-88.12
3718.076	-90.12
3720.792	-88.12
3723.505	-88.12
3726.216	-88.12
3728.925	-94.12
3731.632	-91.12
3734.336	-91.12
3737.039	-97.12
3739.74	-91.12
3742.439	-93.12
3745.136	-95.12
3747.83	-96.12
3750.523	-91.12
3753.213	-95.12
3755.902	-98.12
3758.589	-97.12
3761.273	-100.12
3763.956	-100.12
3766.636	-101.12
3769.315	-101.12
3771.991	-106.12
3774.665	-103.12
3777.338	-102.12
3780.008	-100.12
3782.677	-99.12
3785.343	-98.12
3788.007	-102.12
3790.67	-98.12
3793.33	-105.12
3795.989	-105.12
3798.645	-104.12
3801.299	-103.12
3803.952	-104.12
3806.602	-106.12
3809.251	-108.12
3811.897	-106.12
3814.542	-107.12
3817.184	-103.12
3819.825	-105.12
3822.463	-107.12
3825.1	-107.12
3827.735	-103.12
3830.367	-110.12
3832.998	-107.12
3835.627	-106.12
3838.253	-107.12
3840.878	-105.12
3843.501	-105.12
3846.122	-105.12
3848.741	-112.12
3851.358	-113.12
3853.973	-109.12
3856.586	-108.12
3859.197	-111.12
3861.806	-109.12
3864.414	-110.12
3867.019	-108.12
3869.622	-105.12
3872.224	-104.12
3874.823	-106.12
3877.421	-101.12
3880.016	-100.12
3882.61	-101.12
3885.202	-98.12
3887.792	-104.12
3890.38	-109.12
3892.966	-111.12
3895.55	-112.12
3898.132	-112.12
3900.713	-110.12
3903.291	-109.12
3905.868	-110.12
3908.442	-107.12
3911.015	-112.12
3913.586	-110.12
3916.155	-112.12
3918.722	-112.12
3921.287	-110.12
3923.85	-112.12
3926.411	-116.12
3928.971	-109.12
3931.528	-112.12
3934.084	-115.12
3936.638	-117.12
3939.19	-114.12
3941.74	-116.12
3944.288	-111.12
3946.834	-112.12
3949.378	-113.12
3951.921	-115.12
3954.462	-116.12
3957	-111.12
3959.537	-110.12
3962.072	-108.12
3964.606	-108.12
3967.137	-110.12
3969.667	-113.12
3972.194	-115.12
3974.72	-113.12
3977.244	-115.12
3979.766	-115.12
3982.286	-111.12
3984.805	-110.12
3987.321	-109.12
3989.836	-110.12
3992.349	-108.12
3994.86	-109.12
3997.369	-108.12
3999.877	-110.12
4002.382	-108.12
4004.886	-110.12
4007.388	-108.12
4009.888	-115.12
4012.386	-114.12
4014.883	-109.12
4017.377	-109.12
4019.87	-110.12
4022.361	-108.12
4024.85	-110.12
4027.338	-111.12
4029.823	-114.12
4032.307	-111.12
4034.789	-111.12
4037.269	-110.12
4039.747	-111.12
4042.224	-108.12
4044.699	-109.12
4047.172	-108.12
4049.643	-110.12
4052.112	-111.12
4054.58	-109.12
4057.046	-111.12
4059.51	-114.12
4061.972	-116.12
4064.432	-114.12
4066.891	-114.12
4069.348	-111.12
4071.803	-113.12
4074.256	-110.12
4076.708	-110.12
4079.158	-113.12
4081.606	-107.12
4084.052	-109.12
4086.497	-111.12
4088.939	-114.12
4091.38	-112.12
4093.819	-114.12
4096.257	-117.12
4098.693	-113.12
4101.127	-115.12
4103.559	-116.12
4105.989	-77.12
4108.418	-75.12
4110.845	-68.12
4113.27	-59.12
4115.694	-53.12
4118.115	-47.12
4120.535	-113.12
4122.954	-116.12
4125.37	-113.12
4127.785	-114.12
4130.198	-113.12
4132.609	-113.12
4135.019	-114.12
4137.427	-113.12
4139.833	-115.12
4142.237	-113.12
