Data from 1CFU1_B_RamanShift_1.txt Node
Date: Tue Jan 24 17:50:36 IST 2017
User: aro
Spectrometer: QEPB0276
Trigger mode: 0
Integration Time (sec): 5.000000E0
Scans to average: 1
Electric dark correction enabled: true
Nonlinearity correction enabled: false
Boxcar width: 0
XAxis mode: Raman Shifts
Number of Pixels in Spectrum: 1044
>>>>>Begin Spectral Data<<<<<
160.701	-34.25
166.742	0.75
172.777	103.75
178.805	419.75
184.826	1126.75
190.841	2294.75
196.849	3554.75
202.85	4376.75
208.845	4542.75
214.833	4414.75
220.815	4253.75
226.789	4158.75
232.758	4034.75
238.719	3916.75
244.674	3817.75
250.623	3650.75
256.565	3493.75
262.5	3322.75
268.429	3211.75
274.351	3075.75
280.267	2998.75
286.176	2901.75
292.079	2783.75
297.975	2723.75
303.865	2652.75
309.748	2586.75
315.625	2517.75
321.495	2490.75
327.359	2450.75
333.217	2424.75
339.068	2382.75
344.912	2386.75
350.751	2381.75
356.583	2347.75
362.408	2349.75
368.227	2379.75
374.04	2375.75
379.847	2378.75
385.647	2379.75
391.44	2417.75
397.228	2415.75
403.009	2427.75
408.784	2428.75
414.553	2474.75
420.315	2478.75
426.071	2467.75
431.821	2459.75
437.565	2460.75
443.302	2461.75
449.033	2466.75
454.758	2449.75
460.477	2426.75
466.189	2433.75
471.896	2418.75
477.596	2388.75
483.29	2377.75
488.978	2366.75
494.66	2369.75
500.335	2363.75
506.005	2300.75
511.668	2229.75
517.325	2203.75
522.977	2173.75
528.622	2129.75
534.261	2126.75
539.894	2093.75
545.521	2066.75
551.141	2075.75
556.756	2072.75
562.365	2043.75
567.968	2027.75
573.565	2024.75
579.155	1996.75
584.74	2012.75
590.319	1994.75
595.892	1965.75
601.459	1961.75
607.02	1936.75
612.575	1955.75
618.124	1906.75
623.667	1902.75
629.204	1888.75
634.735	1878.75
640.261	1847.75
645.781	1836.75
651.294	1836.75
656.802	1829.75
662.304	1820.75
667.8	1805.75
673.29	1825.75
678.775	1814.75
684.254	1805.75
689.726	1802.75
695.193	1776.75
700.655	1765.75
706.11	1766.75
711.56	1739.75
717.004	1733.75
722.442	1733.75
727.874	1734.75
733.301	1740.75
738.722	1705.75
744.137	1721.75
749.547	1711.75
754.951	1705.75
760.349	1696.75
765.741	1716.75
771.128	1696.75
776.509	1703.75
781.885	1713.75
787.254	1711.75
792.618	1709.75
797.977	1688.75
803.33	1683.75
808.677	1672.75
814.019	1658.75
819.355	1651.75
824.686	1609.75
830.011	1605.75
835.33	1607.75
840.644	1604.75
845.952	1591.75
851.255	1597.75
856.552	1581.75
861.844	1601.75
867.13	1565.75
872.41	1569.75
877.686	1541.75
882.955	1526.75
888.219	1520.75
893.478	1489.75
898.731	1479.75
903.979	1468.75
909.221	1442.75
914.458	1432.75
919.69	1424.75
924.916	1440.75
930.136	1431.75
935.351	1431.75
940.561	1438.75
945.766	1422.75
950.965	1427.75
956.158	1406.75
961.347	1396.75
966.529	1376.75
971.707	1365.75
976.879	1348.75
982.046	1324.75
987.208	1340.75
992.364	1339.75
997.515	1338.75
1002.66	1355.75
1007.801	1356.75
1012.936	1376.75
1018.066	1382.75
1023.19	1374.75
1028.309	1392.75
1033.423	1391.75
1038.532	1386.75
1043.636	1376.75
1048.734	1360.75
1053.827	1352.75
1058.915	1345.75
1063.998	1325.75
1069.075	1326.75
1074.147	1328.75
1079.214	1339.75
1084.276	1342.75
1089.333	1350.75
1094.385	1389.75
1099.431	1379.75
1104.472	1383.75
1109.509	1373.75
1114.54	1361.75
1119.565	1350.75
1124.586	1324.75
1129.602	1310.75
1134.613	1287.75
1139.618	1296.75
1144.619	1317.75
1149.614	1328.75
1154.604	1317.75
1159.589	1329.75
1164.57	1336.75
1169.545	1326.75
1174.515	1346.75
1179.48	1355.75
1184.44	1335.75
1189.395	1314.75
1194.345	1309.75
1199.29	1314.75
1204.23	1283.75
1209.165	1307.75
1214.095	1338.75
1219.021	1341.75
1223.941	1354.75
1228.856	1353.75
1233.766	1369.75
1238.672	1379.75
1243.572	1360.75
1248.467	1352.75
1253.358	1337.75
1258.244	1313.75
1263.124	1299.75
1268	1270.75
1272.871	1265.75
1277.737	1260.75
1282.599	1246.75
1287.455	1252.75
1292.306	1268.75
1297.153	1275.75
1301.995	1296.75
1306.832	1266.75
1311.664	1276.75
1316.491	1301.75
1321.314	1261.75
1326.132	1256.75
1330.945	1205.75
1335.753	1180.75
1340.556	1153.75
1345.354	1108.75
1350.148	1080.75
1354.937	1070.75
1359.722	1089.75
1364.501	1112.75
1369.276	1159.75
1374.046	1196.75
1378.811	1234.75
1383.572	1247.75
1388.327	1264.75
1393.079	1240.75
1397.825	1215.75
1402.567	1194.75
1407.304	1162.75
1412.036	1149.75
1416.764	1134.75
1421.487	1137.75
1426.205	1136.75
1430.919	1128.75
1435.628	1135.75
1440.333	1135.75
1445.032	1150.75
1449.727	1144.75
1454.418	1135.75
1459.104	1116.75
1463.785	1119.75
1468.462	1091.75
1473.134	1083.75
1477.802	1057.75
1482.465	1062.75
1487.123	1058.75
1491.777	1059.75
1496.426	1084.75
1501.071	1101.75
1505.711	1135.75
1510.347	1158.75
1514.978	1172.75
1519.604	1204.75
1524.226	1216.75
1528.844	1227.75
1533.457	1227.75
1538.065	1238.75
1542.669	1230.75
1547.269	1225.75
1551.864	1229.75
1556.454	1225.75
1561.041	1236.75
1565.622	1229.75
1570.199	1236.75
1574.772	1253.75
1579.34	1281.75
1583.904	1296.75
1588.464	1309.75
1593.019	1304.75
1597.569	1323.75
1602.115	1317.75
1606.657	1328.75
1611.195	1331.75
1615.728	1332.75
1620.256	1344.75
1624.78	1355.75
1629.3	1377.75
1633.816	1382.75
1638.327	1391.75
1642.834	1418.75
1647.336	1420.75
1651.834	1411.75
1656.328	1416.75
1660.817	1396.75
1665.302	1389.75
1669.783	1353.75
1674.259	1317.75
1678.732	1269.75
1683.199	1212.75
1687.663	1168.75
1692.122	1130.75
1696.577	1098.75
1701.028	1098.75
1705.474	1119.75
1709.917	1115.75
1714.355	1141.75
1718.788	1109.75
1723.218	1071.75
1727.643	1039.75
1732.064	1008.75
1736.481	978.75
1740.893	952.75
1745.301	941.75
1749.705	902.75
1754.105	875.75
1758.501	847.75
1762.893	809.75
1767.28	797.75
1771.663	773.75
1776.042	766.75
1780.417	764.75
1784.787	775.75
1789.154	798.75
1793.516	796.75
1797.874	833.75
1802.228	843.75
1806.578	844.75
1810.924	843.75
1815.266	832.75
1819.603	836.75
1823.937	818.75
1828.266	791.75
1832.591	776.75
1836.913	785.75
1841.23	767.75
1845.543	759.75
1849.852	759.75
1854.156	762.75
1858.457	759.75
1862.754	758.75
1867.047	763.75
1871.335	765.75
1875.62	758.75
1879.9	752.75
1884.177	763.75
1888.449	738.75
1892.718	746.75
1896.982	732.75
1901.243	736.75
1905.499	712.75
1909.752	732.75
1914	732.75
1918.245	731.75
1922.485	737.75
1926.722	760.75
1930.954	769.75
1935.183	760.75
1939.408	773.75
1943.628	791.75
1947.845	786.75
1952.058	782.75
1956.267	774.75
1960.472	777.75
1964.673	768.75
1968.87	755.75
1973.063	754.75
1977.252	748.75
1981.438	755.75
1985.619	736.75
1989.797	737.75
1993.971	741.75
1998.14	736.75
2002.306	746.75
2006.469	740.75
2010.627	731.75
2014.781	725.75
2018.932	722.75
2023.078	725.75
2027.221	721.75
2031.36	710.75
2035.495	696.75
2039.627	688.75
2043.754	693.75
2047.878	678.75
2051.998	679.75
2056.114	671.75
2060.226	677.75
2064.334	693.75
2068.439	695.75
2072.54	702.75
2076.637	702.75
2080.73	714.75
2084.82	709.75
2088.906	719.75
2092.988	710.75
2097.066	700.75
2101.14	711.75
2105.211	701.75
2109.278	702.75
2113.342	708.75
2117.401	711.75
2121.457	693.75
2125.509	696.75
2129.558	700.75
2133.602	703.75
2137.643	693.75
2141.681	689.75
2145.714	686.75
2149.744	679.75
2153.77	683.75
2157.793	679.75
2161.812	660.75
2165.827	663.75
2169.838	669.75
2173.846	653.75
2177.851	624.75
2181.851	623.75
2185.848	617.75
2189.841	623.75
2193.831	592.75
2197.817	607.75
2201.799	594.75
2205.778	593.75
2209.753	587.75
2213.725	590.75
2217.693	600.75
2221.657	595.75
2225.618	588.75
2229.575	583.75
2233.529	577.75
2237.479	579.75
2241.425	560.75
2245.368	568.75
2249.307	566.75
2253.243	552.75
2257.175	537.75
2261.104	543.75
2265.029	532.75
2268.95	520.75
2272.868	525.75
2276.783	513.75
2280.694	510.75
2284.601	496.75
2288.505	500.75
2292.405	500.75
2296.302	492.75
2300.195	481.75
2304.085	481.75
2307.971	476.75
2311.854	462.75
2315.734	473.75
2319.609	460.75
2323.482	449.75
2327.351	444.75
2331.216	443.75
2335.078	448.75
2338.937	427.75
2342.792	426.75
2346.643	431.75
2350.492	427.75
2354.336	431.75
2358.178	427.75
2362.015	428.75
2365.85	444.75
2369.681	439.75
2373.508	435.75
2377.333	429.75
2381.153	433.75
2384.971	432.75
2388.785	420.75
2392.595	421.75
2396.402	424.75
2400.206	420.75
2404.007	419.75
2407.804	410.75
2411.597	409.75
2415.388	410.75
2419.174	396.75
2422.958	406.75
2426.738	399.75
2430.515	406.75
2434.289	397.75
2438.059	390.75
2441.825	395.75
2445.589	396.75
2449.349	385.75
2453.106	377.75
2456.859	381.75
2460.61	369.75
2464.356	362.75
2468.1	361.75
2471.84	363.75
2475.577	360.75
2479.311	347.75
2483.041	362.75
2486.768	357.75
2490.492	365.75
2494.213	362.75
2497.93	364.75
2501.644	354.75
2505.355	354.75
2509.062	352.75
2512.766	351.75
2516.467	345.75
2520.165	350.75
2523.859	343.75
2527.551	347.75
2531.239	343.75
2534.923	340.75
2538.605	335.75
2542.283	341.75
2545.958	330.75
2549.63	342.75
2553.299	334.75
2556.964	327.75
2560.626	341.75
2564.285	339.75
2567.941	340.75
2571.594	340.75
2575.243	329.75
2578.89	318.75
2582.533	320.75
2586.173	314.75
2589.809	321.75
2593.443	316.75
2597.073	316.75
2600.701	307.75
2604.325	311.75
2607.946	316.75
2611.564	308.75
2615.178	313.75
2618.79	310.75
2622.398	310.75
2626.004	297.75
2629.606	301.75
2633.205	297.75
2636.801	295.75
2640.394	293.75
2643.983	296.75
2647.57	294.75
2651.153	289.75
2654.734	285.75
2658.311	271.75
2661.885	270.75
2665.456	278.75
2669.025	265.75
2672.589	260.75
2676.151	267.75
2679.71	257.75
2683.266	261.75
2686.819	257.75
2690.368	245.75
2693.915	252.75
2697.458	246.75
2700.999	241.75
2704.536	234.75
2708.071	228.75
2711.602	226.75
2715.13	217.75
2718.656	212.75
2722.178	216.75
2725.697	209.75
2729.214	217.75
2732.727	202.75
2736.237	212.75
2739.744	220.75
2743.249	212.75
2746.75	208.75
2750.248	216.75
2753.743	223.75
2757.236	225.75
2760.725	230.75
2764.211	227.75
2767.695	232.75
2771.175	234.75
2774.652	226.75
2778.127	227.75
2781.598	236.75
2785.067	234.75
2788.532	226.75
2791.995	233.75
2795.455	225.75
2798.911	231.75
2802.365	227.75
2805.816	233.75
2809.264	236.75
2812.709	227.75
2816.151	231.75
2819.59	228.75
2823.026	230.75
2826.46	232.75
2829.89	227.75
2833.318	225.75
2836.742	234.75
2840.164	230.75
2843.583	233.75
2846.999	235.75
2850.412	227.75
2853.822	243.75
2857.229	242.75
2860.634	243.75
2864.035	247.75
2867.434	255.75
2870.83	257.75
2874.223	248.75
2877.613	254.75
2881	255.75
2884.385	249.75
2887.766	244.75
2891.145	249.75
2894.521	245.75
2897.894	254.75
2901.264	254.75
2904.631	253.75
2907.996	253.75
2911.358	257.75
2914.717	258.75
2918.073	253.75
2921.426	262.75
2924.777	266.75
2928.124	262.75
2931.469	258.75
2934.811	275.75
2938.15	276.75
2941.487	278.75
2944.821	274.75
2948.152	289.75
2951.48	287.75
2954.805	284.75
2958.128	278.75
2961.447	301.75
2964.765	298.75
2968.079	299.75
2971.39	310.75
2974.699	325.75
2978.005	319.75
2981.308	322.75
2984.609	336.75
2987.907	350.75
2991.202	372.75
2994.494	373.75
2997.784	384.75
3001.07	392.75
3004.355	399.75
3007.636	411.75
3010.915	430.75
3014.191	426.75
3017.464	440.75
3020.734	443.75
3024.002	449.75
3027.267	469.75
3030.53	467.75
3033.789	478.75
3037.046	484.75
3040.301	492.75
3043.552	506.75
3046.801	511.75
3050.048	521.75
3053.291	537.75
3056.532	553.75
3059.771	559.75
3063.006	585.75
3066.239	603.75
3069.469	618.75
3072.697	635.75
3075.922	653.75
3079.144	680.75
3082.364	695.75
3085.581	697.75
3088.795	730.75
3092.007	727.75
3095.216	738.75
3098.423	739.75
3101.627	786.75
3104.828	800.75
3108.026	825.75
3111.222	837.75
3114.416	851.75
3117.607	871.75
3120.795	876.75
3123.98	915.75
3127.163	921.75
3130.344	956.75
3133.521	989.75
3136.696	991.75
3139.869	1021.75
3143.039	1027.75
3146.206	1049.75
3149.371	1069.75
3152.533	1072.75
3155.693	1064.75
3158.85	1076.75
3162.005	1097.75
3165.157	1101.75
3168.306	1099.75
3171.453	1093.75
3174.597	1090.75
3177.739	1107.75
3180.878	1091.75
3184.014	1089.75
3187.149	1108.75
3190.28	1114.75
3193.409	1103.75
3196.536	1119.75
3199.659	1112.75
3202.781	1113.75
3205.9	1113.75
3209.016	1104.75
3212.13	1107.75
3215.241	1098.75
3218.35	1098.75
3221.456	1090.75
3224.56	1079.75
3227.661	1059.75
3230.76	1053.75
3233.856	1040.75
3236.95	1022.75
3240.041	1009.75
3243.13	1022.75
3246.216	1001.75
3249.3	995.75
3252.382	996.75
3255.46	993.75
3258.537	988.75
3261.611	974.75
3264.682	980.75
3267.751	978.75
3270.818	974.75
3273.882	977.75
3276.943	964.75
3280.002	968.75
3283.059	949.75
3286.113	945.75
3289.165	928.75
3292.214	913.75
3295.261	910.75
3298.306	890.75
3301.348	873.75
3304.387	868.75
3307.425	852.75
3310.459	840.75
3313.492	831.75
3316.521	807.75
3319.549	813.75
3322.574	794.75
3325.597	797.75
3328.617	797.75
3331.635	775.75
3334.65	773.75
3337.663	766.75
3340.674	762.75
3343.682	766.75
3346.688	784.75
3349.691	753.75
3352.692	758.75
3355.691	741.75
3358.687	736.75
3361.681	729.75
3364.673	721.75
3367.662	709.75
3370.649	705.75
3373.633	694.75
3376.615	680.75
3379.595	677.75
3382.572	670.75
3385.547	655.75
3388.52	647.75
3391.49	631.75
3394.458	623.75
3397.424	618.75
3400.387	609.75
3403.348	610.75
3406.307	600.75
3409.263	591.75
3412.217	585.75
3415.168	578.75
3418.118	568.75
3421.065	565.75
3424.009	559.75
3426.951	552.75
3429.891	540.75
3432.829	528.75
3435.764	517.75
3438.697	496.75
3441.628	500.75
3444.557	477.75
3447.483	465.75
3450.407	457.75
3453.328	432.75
3456.247	424.75
3459.164	412.75
3462.079	395.75
3464.991	382.75
3467.902	368.75
3470.809	362.75
3473.715	352.75
3476.618	340.75
3479.519	317.75
3482.418	324.75
3485.315	314.75
3488.209	303.75
3491.101	291.75
3493.99	280.75
3496.878	275.75
3499.763	258.75
3502.646	257.75
3505.527	243.75
3508.405	228.75
3511.281	223.75
3514.155	212.75
3517.027	206.75
3519.897	184.75
3522.764	187.75
3525.629	167.75
3528.492	166.75
3531.352	150.75
3534.211	145.75
3537.067	126.75
3539.921	121.75
3542.773	111.75
3545.622	99.75
3548.469	95.75
3551.315	94.75
3554.157	82.75
3556.998	81.75
3559.837	69.75
3562.673	66.75
3565.507	60.75
3568.339	53.75
3571.169	48.75
3573.996	39.75
3576.822	40.75
3579.645	30.75
3582.466	30.75
3585.285	21.75
3588.101	15.75
3590.916	16.75
3593.728	5.75
3596.538	4.75
3599.346	2.75
3602.152	-0.25
3604.956	-9.25
3607.757	-11.25
3610.556	-11.25
3613.354	-13.25
3616.149	-23.25
3618.942	-23.25
3621.732	-23.25
3624.521	-29.25
3627.307	-30.25
3630.092	-33.25
3632.874	-40.25
3635.654	-38.25
3638.432	-41.25
3641.208	-44.25
3643.982	-44.25
3646.753	-47.25
3649.523	-51.25
3652.29	-56.25
3655.055	-56.25
3657.818	-54.25
3660.579	-61.25
3663.338	-66.25
3666.095	-63.25
3668.849	-64.25
3671.602	-67.25
3674.352	-75.25
3677.101	-76.25
3679.847	-80.25
3682.591	-82.25
3685.333	-77.25
3688.073	-80.25
3690.811	-81.25
3693.547	-77.25
3696.281	-82.25
3699.013	-85.25
3701.742	-86.25
3704.47	-91.25
3707.195	-92.25
3709.919	-90.25
3712.64	-92.25
3715.359	-92.25
3718.076	-93.25
3720.792	-94.25
3723.505	-95.25
3726.216	-96.25
3728.925	-95.25
3731.632	-92.25
3734.336	-101.25
3737.039	-99.25
3739.74	-100.25
3742.439	-99.25
3745.136	-99.25
3747.83	-101.25
3750.523	-97.25
3753.213	-100.25
3755.902	-102.25
3758.589	-100.25
3761.273	-105.25
3763.956	-104.25
3766.636	-103.25
3769.315	-105.25
3771.991	-112.25
3774.665	-105.25
3777.338	-108.25
3780.008	-107.25
3782.677	-103.25
3785.343	-106.25
3788.007	-107.25
3790.67	-106.25
3793.33	-105.25
3795.989	-108.25
3798.645	-108.25
3801.299	-110.25
3803.952	-107.25
3806.602	-109.25
3809.251	-112.25
3811.897	-110.25
3814.542	-109.25
3817.184	-108.25
3819.825	-109.25
3822.463	-109.25
3825.1	-109.25
3827.735	-110.25
3830.367	-111.25
3832.998	-113.25
3835.627	-111.25
3838.253	-111.25
3840.878	-110.25
3843.501	-111.25
3846.122	-115.25
3848.741	-114.25
3851.358	-117.25
3853.973	-113.25
3856.586	-113.25
3859.197	-113.25
3861.806	-114.25
3864.414	-114.25
3867.019	-111.25
3869.622	-112.25
3872.224	-109.25
3874.823	-112.25
3877.421	-105.25
3880.016	-103.25
3882.61	-104.25
3885.202	-102.25
3887.792	-102.25
3890.38	-111.25
3892.966	-116.25
3895.55	-115.25
3898.132	-114.25
3900.713	-116.25
3903.291	-112.25
3905.868	-116.25
3908.442	-112.25
3911.015	-115.25
3913.586	-115.25
3916.155	-115.25
3918.722	-119.25
3921.287	-118.25
3923.85	-117.25
3926.411	-118.25
3928.971	-113.25
3931.528	-117.25
3934.084	-117.25
3936.638	-122.25
3939.19	-118.25
3941.74	-118.25
3944.288	-118.25
3946.834	-120.25
3949.378	-120.25
3951.921	-122.25
3954.462	-119.25
3957	-114.25
3959.537	-114.25
3962.072	-111.25
3964.606	-113.25
3967.137	-115.25
3969.667	-117.25
3972.194	-116.25
3974.72	-117.25
3977.244	-118.25
3979.766	-117.25
3982.286	-115.25
3984.805	-117.25
3987.321	-112.25
3989.836	-115.25
3992.349	-112.25
3994.86	-116.25
3997.369	-118.25
3999.877	-116.25
4002.382	-116.25
4004.886	-114.25
4007.388	-114.25
4009.888	-118.25
4012.386	-116.25
4014.883	-111.25
4017.377	-112.25
4019.87	-112.25
4022.361	-114.25
4024.85	-118.25
4027.338	-115.25
4029.823	-117.25
4032.307	-120.25
4034.789	-118.25
4037.269	-117.25
4039.747	-117.25
4042.224	-119.25
4044.699	-113.25
4047.172	-115.25
4049.643	-114.25
4052.112	-115.25
4054.58	-112.25
4057.046	-113.25
4059.51	-112.25
4061.972	-117.25
4064.432	-119.25
4066.891	-119.25
4069.348	-116.25
4071.803	-118.25
4074.256	-117.25
4076.708	-116.25
4079.158	-116.25
4081.606	-115.25
4084.052	-112.25
4086.497	-115.25
4088.939	-118.25
4091.38	-117.25
4093.819	-118.25
4096.257	-118.25
4098.693	-117.25
4101.127	-120.25
4103.559	-123.25
4105.989	-82.25
4108.418	-76.25
4110.845	-71.25
4113.27	-69.25
4115.694	-59.25
4118.115	-54.25
4120.535	-118.25
4122.954	-115.25
4125.37	-119.25
4127.785	-117.25
4130.198	-120.25
4132.609	-118.25
4135.019	-123.25
4137.427	-118.25
4139.833	-125.25
4142.237	-123.25
