Data from etoh_RamanShift_2.txt Node
Date: Tue Oct 17 15:49:43 IDT 2017
User: aro
Spectrometer: QEPB0276
Trigger mode: 0
Integration Time (sec): 1.000000E1
Scans to average: 1
Electric dark correction enabled: true
Nonlinearity correction enabled: false
Boxcar width: 0
XAxis mode: Raman Shifts
Number of Pixels in Spectrum: 1044
>>>>>Begin Spectral Data<<<<<
160.701	6.88
166.742	15.88
172.777	33.88
178.805	101.88
184.826	263.88
190.841	570.88
196.849	950.88
202.85	1231.88
208.845	1315.88
214.833	1332.88
220.815	1319.88
226.789	1297.88
232.758	1304.88
238.719	1307.88
244.674	1332.88
250.623	1323.88
256.565	1329.88
262.5	1337.88
268.429	1330.88
274.351	1336.88
280.267	1319.88
286.176	1295.88
292.079	1294.88
297.975	1272.88
303.865	1252.88
309.748	1226.88
315.625	1213.88
321.495	1190.88
327.359	1185.88
333.217	1168.88
339.068	1166.88
344.912	1160.88
350.751	1166.88
356.583	1182.88
362.408	1187.88
368.227	1201.88
374.04	1241.88
379.847	1269.88
385.647	1317.88
391.44	1338.88
397.228	1349.88
403.009	1428.88
408.784	1525.88
414.553	1761.88
420.315	2112.88
426.071	2429.88
431.821	2667.88
437.565	2781.88
443.302	2751.88
449.033	2499.88
454.758	2175.88
460.477	1884.88
466.189	1671.88
471.896	1496.88
477.596	1402.88
483.29	1317.88
488.978	1253.88
494.66	1213.88
500.335	1177.88
506.005	1118.88
511.668	1056.88
517.325	1010.88
522.977	966.88
528.622	931.88
534.261	903.88
539.894	899.88
545.521	886.88
551.141	872.88
556.756	872.88
562.365	849.88
567.968	845.88
573.565	850.88
579.155	851.88
584.74	851.88
590.319	863.88
595.892	837.88
601.459	833.88
607.02	844.88
612.575	835.88
618.124	833.88
623.667	819.88
629.204	817.88
634.735	839.88
640.261	857.88
645.781	887.88
651.294	906.88
656.802	874.88
662.304	832.88
667.8	813.88
673.29	804.88
678.775	791.88
684.254	780.88
689.726	790.88
695.193	785.88
700.655	779.88
706.11	778.88
711.56	773.88
717.004	759.88
722.442	759.88
727.874	756.88
733.301	762.88
738.722	770.88
744.137	781.88
749.547	792.88
754.951	809.88
760.349	808.88
765.741	805.88
771.128	815.88
776.509	826.88
781.885	842.88
787.254	868.88
792.618	881.88
797.977	915.88
803.33	933.88
808.677	959.88
814.019	1005.88
819.355	1003.88
824.686	1015.88
830.011	1028.88
835.33	1056.88
840.644	1118.88
845.952	1201.88
851.255	1336.88
856.552	1523.88
861.844	1851.88
867.13	2515.88
872.41	3917.88
877.686	6690.88
882.955	10573.88
888.219	13184.88
893.478	11805.88
898.731	7577.88
903.979	4129.88
909.221	2482.88
914.458	1782.88
919.69	1453.88
924.916	1263.88
930.136	1140.88
935.351	1056.88
940.561	988.88
945.766	965.88
950.965	908.88
956.158	893.88
961.347	869.88
966.529	846.88
971.707	851.88
976.879	854.88
982.046	856.88
987.208	871.88
992.364	900.88
997.515	952.88
1002.66	1012.88
1007.801	1105.88
1012.936	1223.88
1018.066	1389.88
1023.19	1614.88
1028.309	1941.88
1033.423	2352.88
1038.532	2855.88
1043.636	3526.88
1048.734	4311.88
1053.827	4951.88
1058.915	5069.88
1063.998	4497.88
1069.075	3715.88
1074.147	3235.88
1079.214	3176.88
1084.276	3495.88
1089.333	4077.88
1094.385	4764.88
1099.431	5236.88
1104.472	5041.88
1109.509	4187.88
1114.54	3286.88
1119.565	2676.88
1124.586	2372.88
1129.602	2111.88
1134.613	1842.88
1139.618	1587.88
1144.619	1376.88
1149.614	1269.88
1154.604	1158.88
1159.589	1091.88
1164.57	1022.88
1169.545	970.88
1174.515	903.88
1179.48	864.88
1184.44	830.88
1189.395	813.88
1194.345	801.88
1199.29	784.88
1204.23	777.88
1209.165	791.88
1214.095	794.88
1219.021	811.88
1223.941	845.88
1228.856	889.88
1233.766	908.88
1238.672	962.88
1243.572	1018.88
1248.467	1074.88
1253.358	1153.88
1258.244	1225.88
1263.124	1399.88
1268	1655.88
1272.871	2036.88
1277.737	2423.88
1282.599	2579.88
1287.455	2400.88
1292.306	1999.88
1297.153	1650.88
1301.995	1439.88
1306.832	1289.88
1311.664	1221.88
1316.491	1170.88
1321.314	1128.88
1326.132	1108.88
1330.945	1090.88
1335.753	1076.88
1340.556	1083.88
1345.354	1073.88
1350.148	1087.88
1354.937	1087.88
1359.722	1094.88
1364.501	1106.88
1369.276	1148.88
1374.046	1191.88
1378.811	1266.88
1383.572	1337.88
1388.327	1407.88
1393.079	1476.88
1397.825	1497.88
1402.567	1560.88
1407.304	1635.88
1412.036	1770.88
1416.764	1890.88
1421.487	2029.88
1426.205	2227.88
1430.919	2461.88
1435.628	2763.88
1440.333	3219.88
1445.032	3887.88
1449.727	4849.88
1454.418	5849.88
1459.104	6424.88
1463.785	6142.88
1468.462	5197.88
1473.134	4187.88
1477.802	3582.88
1482.465	3310.88
1487.123	3183.88
1491.777	2991.88
1496.426	2602.88
1501.071	2223.88
1505.711	1904.88
1510.347	1680.88
1514.978	1502.88
1519.604	1380.88
1524.226	1261.88
1528.844	1159.88
1533.457	1062.88
1538.065	1005.88
1542.669	921.88
1547.269	885.88
1551.864	808.88
1556.454	797.88
1561.041	766.88
1565.622	735.88
1570.199	697.88
1574.772	675.88
1579.34	649.88
1583.904	641.88
1588.464	615.88
1593.019	599.88
1597.569	579.88
1602.115	577.88
1606.657	567.88
1611.195	556.88
1615.728	555.88
1620.256	552.88
1624.78	547.88
1629.3	536.88
1633.816	515.88
1638.327	513.88
1642.834	496.88
1647.336	498.88
1651.834	483.88
1656.328	483.88
1660.817	482.88
1665.302	482.88
1669.783	480.88
1674.259	472.88
1678.732	472.88
1683.199	472.88
1687.663	467.88
1692.122	468.88
1696.577	454.88
1701.028	450.88
1705.474	422.88
1709.917	421.88
1714.355	412.88
1718.788	403.88
1723.218	398.88
1727.643	395.88
1732.064	391.88
1736.481	375.88
1740.893	375.88
1745.301	355.88
1749.705	343.88
1754.105	339.88
1758.501	330.88
1762.893	321.88
1767.28	315.88
1771.663	314.88
1776.042	315.88
1780.417	325.88
1784.787	322.88
1789.154	314.88
1793.516	301.88
1797.874	306.88
1802.228	295.88
1806.578	287.88
1810.924	280.88
1815.266	275.88
1819.603	264.88
1823.937	265.88
1828.266	263.88
1832.591	266.88
1836.913	257.88
1841.23	260.88
1845.543	257.88
1849.852	259.88
1854.156	266.88
1858.457	262.88
1862.754	271.88
1867.047	280.88
1871.335	271.88
1875.62	279.88
1879.9	278.88
1884.177	274.88
1888.449	280.88
1892.718	279.88
1896.982	280.88
1901.243	279.88
1905.499	277.88
1909.752	275.88
1914	273.88
1918.245	276.88
1922.485	272.88
1926.722	271.88
1930.954	278.88
1935.183	271.88
1939.408	271.88
1943.628	266.88
1947.845	266.88
1952.058	257.88
1956.267	253.88
1960.472	245.88
1964.673	237.88
1968.87	236.88
1973.063	231.88
1977.252	236.88
1981.438	234.88
1985.619	223.88
1989.797	225.88
1993.971	220.88
1998.14	211.88
2002.306	214.88
2006.469	219.88
2010.627	219.88
2014.781	213.88
2018.932	211.88
2023.078	212.88
2027.221	216.88
2031.36	213.88
2035.495	206.88
2039.627	203.88
2043.754	201.88
2047.878	204.88
2051.998	205.88
2056.114	208.88
2060.226	203.88
2064.334	214.88
2068.439	216.88
2072.54	214.88
2076.637	216.88
2080.73	224.88
2084.82	234.88
2088.906	239.88
2092.988	241.88
2097.066	236.88
2101.14	236.88
2105.211	224.88
2109.278	222.88
2113.342	219.88
2117.401	216.88
2121.457	203.88
2125.509	196.88
2129.558	198.88
2133.602	199.88
2137.643	194.88
2141.681	194.88
2145.714	195.88
2149.744	202.88
2153.77	188.88
2157.793	196.88
2161.812	192.88
2165.827	192.88
2169.838	189.88
2173.846	192.88
2177.851	190.88
2181.851	189.88
2185.848	189.88
2189.841	189.88
2193.831	186.88
2197.817	182.88
2201.799	185.88
2205.778	183.88
2209.753	181.88
2213.725	182.88
2217.693	186.88
2221.657	187.88
2225.618	188.88
2229.575	188.88
2233.529	189.88
2237.479	187.88
2241.425	194.88
2245.368	193.88
2249.307	201.88
2253.243	198.88
2257.175	198.88
2261.104	200.88
2265.029	200.88
2268.95	189.88
2272.868	186.88
2276.783	193.88
2280.694	193.88
2284.601	193.88
2288.505	191.88
2292.405	192.88
2296.302	194.88
2300.195	180.88
2304.085	176.88
2307.971	174.88
2311.854	169.88
2315.734	167.88
2319.609	159.88
2323.482	160.88
2327.351	167.88
2331.216	184.88
2335.078	183.88
2338.937	174.88
2342.792	161.88
2346.643	147.88
2350.492	160.88
2354.336	152.88
2358.178	150.88
2362.015	150.88
2365.85	154.88
2369.681	148.88
2373.508	144.88
2377.333	153.88
2381.153	154.88
2384.971	153.88
2388.785	148.88
2392.595	152.88
2396.402	149.88
2400.206	148.88
2404.007	147.88
2407.804	149.88
2411.597	150.88
2415.388	150.88
2419.174	152.88
2422.958	156.88
2426.738	162.88
2430.515	149.88
2434.289	163.88
2438.059	160.88
2441.825	162.88
2445.589	165.88
2449.349	170.88
2453.106	162.88
2456.859	168.88
2460.61	162.88
2464.356	163.88
2468.1	167.88
2471.84	164.88
2475.577	167.88
2479.311	170.88
2483.041	172.88
2486.768	168.88
2490.492	168.88
2494.213	176.88
2497.93	171.88
2501.644	169.88
2505.355	170.88
2509.062	172.88
2512.766	183.88
2516.467	188.88
2520.165	190.88
2523.859	193.88
2527.551	201.88
2531.239	202.88
2534.923	217.88
2538.605	224.88
2542.283	239.88
2545.958	244.88
2549.63	252.88
2553.299	256.88
2556.964	252.88
2560.626	236.88
2564.285	234.88
2567.941	234.88
2571.594	229.88
2575.243	228.88
2578.89	226.88
2582.533	227.88
2586.173	221.88
2589.809	224.88
2593.443	221.88
2597.073	217.88
2600.701	228.88
2604.325	222.88
2607.946	217.88
2611.564	216.88
2615.178	224.88
2618.79	216.88
2622.398	220.88
2626.004	221.88
2629.606	217.88
2633.205	219.88
2636.801	225.88
2640.394	218.88
2643.983	226.88
2647.57	236.88
2651.153	227.88
2654.734	240.88
2658.311	243.88
2661.885	249.88
2665.456	251.88
2669.025	267.88
2672.589	273.88
2676.151	279.88
2679.71	293.88
2683.266	309.88
2686.819	330.88
2690.368	355.88
2693.915	392.88
2697.458	429.88
2700.999	472.88
2704.536	524.88
2708.071	594.88
2711.602	648.88
2715.13	686.88
2718.656	735.88
2722.178	748.88
2725.697	739.88
2729.214	737.88
2732.727	722.88
2736.237	692.88
2739.744	693.88
2743.249	676.88
2746.75	679.88
2750.248	694.88
2753.743	684.88
2757.236	687.88
2760.725	669.88
2764.211	628.88
2767.695	592.88
2771.175	581.88
2774.652	560.88
2778.127	567.88
2781.598	562.88
2785.067	576.88
2788.532	593.88
2791.995	608.88
2795.455	646.88
2798.911	681.88
2802.365	721.88
2805.816	771.88
2809.264	834.88
2812.709	900.88
2816.151	982.88
2819.59	1066.88
2823.026	1186.88
2826.46	1299.88
2829.89	1435.88
2833.318	1560.88
2836.742	1695.88
2840.164	1783.88
2843.583	1890.88
2846.999	1994.88
2850.412	2086.88
2853.822	2205.88
2857.229	2364.88
2860.634	2580.88
2864.035	2863.88
2867.434	3171.88
2870.83	3573.88
2874.223	4077.88
2877.613	4500.88
2881	4755.88
2884.385	4847.88
2887.766	4787.88
2891.145	4612.88
2894.521	4476.88
2897.894	4319.88
2901.264	4134.88
2904.631	3970.88
2907.996	3871.88
2911.358	3861.88
2914.717	3892.88
2918.073	4074.88
2921.426	4401.88
2924.777	4854.88
2928.124	5387.88
2931.469	5846.88
2934.811	5916.88
2938.15	5617.88
2941.487	5045.88
2944.821	4474.88
2948.152	3936.88
2951.48	3483.88
2954.805	3140.88
2958.128	2881.88
2961.447	2734.88
2964.765	2680.88
2968.079	2715.88
2971.39	2783.88
2974.699	2854.88
2978.005	2847.88
2981.308	2720.88
2984.609	2514.88
2987.907	2227.88
2991.202	1942.88
2994.494	1684.88
2997.784	1480.88
3001.07	1287.88
3004.355	1126.88
3007.636	1011.88
3010.915	907.88
3014.191	819.88
3017.464	740.88
3020.734	677.88
3024.002	618.88
3027.267	563.88
3030.53	518.88
3033.789	495.88
3037.046	436.88
3040.301	426.88
3043.552	397.88
3046.801	369.88
3050.048	350.88
3053.291	330.88
3056.532	321.88
3059.771	308.88
3063.006	292.88
3066.239	269.88
3069.469	265.88
3072.697	248.88
3075.922	246.88
3079.144	231.88
3082.364	223.88
3085.581	215.88
3088.795	202.88
3092.007	198.88
3095.216	183.88
3098.423	179.88
3101.627	175.88
3104.828	167.88
3108.026	166.88
3111.222	161.88
3114.416	161.88
3117.607	148.88
3120.795	158.88
3123.98	142.88
3127.163	146.88
3130.344	144.88
3133.521	145.88
3136.696	140.88
3139.869	137.88
3143.039	131.88
3146.206	134.88
3149.371	134.88
3152.533	131.88
3155.693	131.88
3158.85	131.88
3162.005	121.88
3165.157	126.88
3168.306	116.88
3171.453	126.88
3174.597	120.88
3177.739	120.88
3180.878	123.88
3184.014	126.88
3187.149	119.88
3190.28	117.88
3193.409	124.88
3196.536	120.88
3199.659	119.88
3202.781	115.88
3205.9	121.88
3209.016	122.88
3212.13	122.88
3215.241	123.88
3218.35	125.88
3221.456	127.88
3224.56	128.88
3227.661	125.88
3230.76	119.88
3233.856	124.88
3236.95	125.88
3240.041	122.88
3243.13	121.88
3246.216	119.88
3249.3	112.88
3252.382	116.88
3255.46	118.88
3258.537	113.88
3261.611	115.88
3264.682	118.88
3267.751	111.88
3270.818	112.88
3273.882	114.88
3276.943	109.88
3280.002	108.88
3283.059	106.88
3286.113	106.88
3289.165	106.88
3292.214	103.88
3295.261	101.88
3298.306	98.88
3301.348	96.88
3304.387	92.88
3307.425	90.88
3310.459	89.88
3313.492	95.88
3316.521	84.88
3319.549	88.88
3322.574	87.88
3325.597	90.88
3328.617	83.88
3331.635	85.88
3334.65	91.88
3337.663	80.88
3340.674	86.88
3343.682	87.88
3346.688	84.88
3349.691	82.88
3352.692	83.88
3355.691	81.88
3358.687	82.88
3361.681	80.88
3364.673	80.88
3367.662	75.88
3370.649	73.88
3373.633	74.88
3376.615	72.88
3379.595	72.88
3382.572	74.88
3385.547	67.88
3388.52	59.88
3391.49	64.88
3394.458	70.88
3397.424	57.88
3400.387	57.88
3403.348	57.88
3406.307	56.88
3409.263	57.88
3412.217	54.88
3415.168	56.88
3418.118	54.88
3421.065	53.88
3424.009	51.88
3426.951	48.88
3429.891	48.88
3432.829	49.88
3435.764	43.88
3438.697	39.88
3441.628	38.88
3444.557	38.88
3447.483	35.88
3450.407	36.88
3453.328	30.88
3456.247	30.88
3459.164	26.88
3462.079	25.88
3464.991	31.88
3467.902	20.88
3470.809	28.88
3473.715	19.88
3476.618	24.88
3479.519	21.88
3482.418	29.88
3485.315	24.88
3488.209	24.88
3491.101	25.88
3493.99	22.88
3496.878	18.88
3499.763	17.88
3502.646	18.88
3505.527	15.88
3508.405	17.88
3511.281	15.88
3514.155	11.88
3517.027	8.88
3519.897	4.88
3522.764	4.88
3525.629	4.88
3528.492	2.88
3531.352	1.88
3534.211	5.88
3537.067	4.88
3539.921	8.88
3542.773	8.88
3545.622	3.88
3548.469	-0.12
3551.315	5.88
3554.157	0.88
3556.998	-4.12
3559.837	-1.12
3562.673	-12.12
3565.507	-15.12
3568.339	-11.12
3571.169	-12.12
3573.996	-16.12
3576.822	-12.12
3579.645	-16.12
3582.466	-7.12
3585.285	7.88
3588.101	-2.12
3590.916	-8.12
3593.728	-11.12
3596.538	-16.12
3599.346	-12.12
3602.152	-11.12
3604.956	-12.12
3607.757	-8.12
3610.556	-15.12
3613.354	-18.12
3616.149	-15.12
3618.942	-16.12
3621.732	-21.12
3624.521	-19.12
3627.307	-21.12
3630.092	-21.12
3632.874	-24.12
3635.654	-23.12
3638.432	-26.12
3641.208	-23.12
3643.982	-25.12
3646.753	-26.12
3649.523	-24.12
3652.29	-24.12
3655.055	-23.12
3657.818	-28.12
3660.579	-21.12
3663.338	-20.12
3666.095	-23.12
3668.849	-26.12
3671.602	-27.12
3674.352	-30.12
3677.101	-32.12
3679.847	-25.12
3682.591	-34.12
3685.333	-33.12
3688.073	-30.12
3690.811	-29.12
3693.547	-35.12
3696.281	-30.12
3699.013	-31.12
3701.742	-33.12
3704.47	-34.12
3707.195	-34.12
3709.919	-32.12
3712.64	-31.12
3715.359	-33.12
3718.076	-34.12
3720.792	-36.12
3723.505	-28.12
3726.216	-34.12
3728.925	-35.12
3731.632	-34.12
3734.336	-37.12
3737.039	-32.12
3739.74	-33.12
3742.439	-36.12
3745.136	-31.12
3747.83	-33.12
3750.523	-35.12
3753.213	-36.12
3755.902	-32.12
3758.589	-35.12
3761.273	-35.12
3763.956	-37.12
3766.636	-30.12
3769.315	-32.12
3771.991	-33.12
3774.665	-36.12
3777.338	-34.12
3780.008	-37.12
3782.677	-34.12
3785.343	-31.12
3788.007	-33.12
3790.67	-34.12
3793.33	-31.12
3795.989	-39.12
3798.645	-31.12
3801.299	-32.12
3803.952	-33.12
3806.602	-34.12
3809.251	-33.12
3811.897	-36.12
3814.542	-32.12
3817.184	-32.12
3819.825	-36.12
3822.463	-31.12
3825.1	-34.12
3827.735	-33.12
3830.367	-33.12
3832.998	-37.12
3835.627	-29.12
3838.253	-33.12
3840.878	-33.12
3843.501	-35.12
3846.122	-32.12
3848.741	-29.12
3851.358	-31.12
3853.973	-31.12
3856.586	-33.12
3859.197	-35.12
3861.806	-33.12
3864.414	-33.12
3867.019	-35.12
3869.622	-34.12
3872.224	-28.12
3874.823	-21.12
3877.421	-23.12
3880.016	-16.12
3882.61	-5.12
3885.202	-3.12
3887.792	-14.12
3890.38	-21.12
3892.966	-26.12
3895.55	-26.12
3898.132	-36.12
3900.713	-33.12
3903.291	-31.12
3905.868	-37.12
3908.442	-37.12
3911.015	-32.12
3913.586	-35.12
3916.155	-34.12
3918.722	-34.12
3921.287	-36.12
3923.85	-31.12
3926.411	-39.12
3928.971	-37.12
3931.528	-38.12
3934.084	-36.12
3936.638	-37.12
3939.19	-32.12
3941.74	-38.12
3944.288	-36.12
3946.834	-30.12
3949.378	-31.12
3951.921	-37.12
3954.462	-32.12
3957	-36.12
3959.537	-35.12
3962.072	-35.12
3964.606	-34.12
3967.137	-33.12
3969.667	-36.12
3972.194	-36.12
3974.72	-39.12
3977.244	-38.12
3979.766	-35.12
3982.286	-34.12
3984.805	-31.12
3987.321	-37.12
3989.836	-34.12
3992.349	-38.12
3994.86	-34.12
3997.369	-40.12
3999.877	-34.12
4002.382	-38.12
4004.886	-36.12
4007.388	-33.12
4009.888	-38.12
4012.386	-33.12
4014.883	-42.12
4017.377	-35.12
4019.87	-37.12
4022.361	-37.12
4024.85	-33.12
4027.338	-32.12
4029.823	-39.12
4032.307	-37.12
4034.789	-32.12
4037.269	-29.12
4039.747	-36.12
4042.224	-38.12
4044.699	-34.12
4047.172	-37.12
4049.643	-38.12
4052.112	-33.12
4054.58	-33.12
4057.046	-33.12
4059.51	-35.12
4061.972	-38.12
4064.432	-35.12
4066.891	-36.12
4069.348	-32.12
4071.803	-35.12
4074.256	-38.12
4076.708	-31.12
4079.158	-39.12
4081.606	-29.12
4084.052	-33.12
4086.497	-33.12
4088.939	-34.12
4091.38	-32.12
4093.819	-34.12
4096.257	-44.12
4098.693	-42.12
4101.127	-37.12
4103.559	-41.12
4105.989	1.88
4108.418	-4.12
4110.845	-3.12
4113.27	-0.12
4115.694	-1.12
4118.115	0.88
4120.535	-30.12
4122.954	-35.12
4125.37	-36.12
4127.785	-37.12
4130.198	-30.12
4132.609	-32.12
4135.019	-39.12
4137.427	-39.12
4139.833	-38.12
4142.237	-42.12
