Data from 171017-reg-dw_RamanShift_1.txt Node
Date: Tue Oct 17 12:41:37 IDT 2017
User: aro
Spectrometer: QEPB0276
Trigger mode: 0
Integration Time (sec): 5.000000E0
Scans to average: 1
Electric dark correction enabled: true
Nonlinearity correction enabled: false
Boxcar width: 0
XAxis mode: Raman Shifts
Number of Pixels in Spectrum: 1044
>>>>>Begin Spectral Data<<<<<
160.701	0.88
166.742	1.88
172.777	8.88
178.805	21.88
184.826	55.88
190.841	114.88
196.849	198.88
202.85	270.88
208.845	305.88
214.833	306.88
220.815	319.88
226.789	325.88
232.758	335.88
238.719	346.88
244.674	352.88
250.623	355.88
256.565	354.88
262.5	350.88
268.429	343.88
274.351	349.88
280.267	350.88
286.176	349.88
292.079	342.88
297.975	349.88
303.865	350.88
309.748	344.88
315.625	345.88
321.495	337.88
327.359	328.88
333.217	328.88
339.068	322.88
344.912	323.88
350.751	325.88
356.583	317.88
362.408	315.88
368.227	314.88
374.04	316.88
379.847	318.88
385.647	320.88
391.44	317.88
397.228	310.88
403.009	306.88
408.784	310.88
414.553	324.88
420.315	342.88
426.071	349.88
431.821	323.88
437.565	300.88
443.302	287.88
449.033	266.88
454.758	263.88
460.477	250.88
466.189	246.88
471.896	235.88
477.596	224.88
483.29	202.88
488.978	205.88
494.66	189.88
500.335	175.88
506.005	148.88
511.668	144.88
517.325	158.88
522.977	210.88
528.622	256.88
534.261	270.88
539.894	279.88
545.521	277.88
551.141	263.88
556.756	252.88
562.365	251.88
567.968	241.88
573.565	243.88
579.155	238.88
584.74	235.88
590.319	227.88
595.892	217.88
601.459	225.88
607.02	210.88
612.575	201.88
618.124	199.88
623.667	209.88
629.204	209.88
634.735	213.88
640.261	211.88
645.781	223.88
651.294	225.88
656.802	226.88
662.304	207.88
667.8	210.88
673.29	203.88
678.775	198.88
684.254	196.88
689.726	193.88
695.193	193.88
700.655	187.88
706.11	187.88
711.56	188.88
717.004	177.88
722.442	183.88
727.874	182.88
733.301	179.88
738.722	180.88
744.137	179.88
749.547	186.88
754.951	176.88
760.349	181.88
765.741	179.88
771.128	183.88
776.509	178.88
781.885	173.88
787.254	177.88
792.618	180.88
797.977	173.88
803.33	183.88
808.677	177.88
814.019	175.88
819.355	170.88
824.686	169.88
830.011	167.88
835.33	171.88
840.644	169.88
845.952	167.88
851.255	160.88
856.552	162.88
861.844	165.88
867.13	162.88
872.41	156.88
877.686	153.88
882.955	157.88
888.219	160.88
893.478	159.88
898.731	151.88
903.979	147.88
909.221	151.88
914.458	151.88
919.69	157.88
924.916	152.88
930.136	151.88
935.351	157.88
940.561	168.88
945.766	171.88
950.965	172.88
956.158	169.88
961.347	168.88
966.529	160.88
971.707	152.88
976.879	156.88
982.046	147.88
987.208	148.88
992.364	152.88
997.515	150.88
1002.66	141.88
1007.801	139.88
1012.936	146.88
1018.066	144.88
1023.19	140.88
1028.309	136.88
1033.423	143.88
1038.532	137.88
1043.636	143.88
1048.734	133.88
1053.827	134.88
1058.915	133.88
1063.998	136.88
1069.075	130.88
1074.147	132.88
1079.214	124.88
1084.276	134.88
1089.333	129.88
1094.385	133.88
1099.431	132.88
1104.472	133.88
1109.509	126.88
1114.54	129.88
1119.565	131.88
1124.586	128.88
1129.602	118.88
1134.613	119.88
1139.618	119.88
1144.619	113.88
1149.614	119.88
1154.604	120.88
1159.589	126.88
1164.57	121.88
1169.545	121.88
1174.515	123.88
1179.48	124.88
1184.44	114.88
1189.395	113.88
1194.345	116.88
1199.29	115.88
1204.23	116.88
1209.165	115.88
1214.095	109.88
1219.021	119.88
1223.941	113.88
1228.856	121.88
1233.766	117.88
1238.672	118.88
1243.572	114.88
1248.467	113.88
1253.358	114.88
1258.244	114.88
1263.124	113.88
1268	113.88
1272.871	103.88
1277.737	105.88
1282.599	103.88
1287.455	100.88
1292.306	104.88
1297.153	104.88
1301.995	108.88
1306.832	108.88
1311.664	101.88
1316.491	106.88
1321.314	110.88
1326.132	106.88
1330.945	105.88
1335.753	105.88
1340.556	105.88
1345.354	101.88
1350.148	101.88
1354.937	98.88
1359.722	97.88
1364.501	96.88
1369.276	98.88
1374.046	95.88
1378.811	89.88
1383.572	95.88
1388.327	89.88
1393.079	98.88
1397.825	91.88
1402.567	87.88
1407.304	91.88
1412.036	92.88
1416.764	93.88
1421.487	93.88
1426.205	93.88
1430.919	92.88
1435.628	93.88
1440.333	96.88
1445.032	93.88
1449.727	98.88
1454.418	99.88
1459.104	91.88
1463.785	93.88
1468.462	93.88
1473.134	93.88
1477.802	98.88
1482.465	91.88
1487.123	92.88
1491.777	95.88
1496.426	91.88
1501.071	93.88
1505.711	95.88
1510.347	96.88
1514.978	89.88
1519.604	97.88
1524.226	95.88
1528.844	94.88
1533.457	90.88
1538.065	85.88
1542.669	92.88
1547.269	87.88
1551.864	93.88
1556.454	91.88
1561.041	93.88
1565.622	91.88
1570.199	90.88
1574.772	93.88
1579.34	96.88
1583.904	89.88
1588.464	93.88
1593.019	91.88
1597.569	94.88
1602.115	94.88
1606.657	92.88
1611.195	92.88
1615.728	91.88
1620.256	89.88
1624.78	87.88
1629.3	87.88
1633.816	89.88
1638.327	90.88
1642.834	88.88
1647.336	90.88
1651.834	97.88
1656.328	93.88
1660.817	97.88
1665.302	97.88
1669.783	98.88
1674.259	95.88
1678.732	104.88
1683.199	98.88
1687.663	95.88
1692.122	102.88
1696.577	96.88
1701.028	94.88
1705.474	89.88
1709.917	93.88
1714.355	91.88
1718.788	90.88
1723.218	86.88
1727.643	88.88
1732.064	90.88
1736.481	90.88
1740.893	97.88
1745.301	87.88
1749.705	92.88
1754.105	88.88
1758.501	94.88
1762.893	84.88
1767.28	91.88
1771.663	87.88
1776.042	90.88
1780.417	95.88
1784.787	88.88
1789.154	96.88
1793.516	96.88
1797.874	92.88
1802.228	89.88
1806.578	88.88
1810.924	89.88
1815.266	88.88
1819.603	83.88
1823.937	89.88
1828.266	82.88
1832.591	84.88
1836.913	84.88
1841.23	84.88
1845.543	89.88
1849.852	86.88
1854.156	89.88
1858.457	93.88
1862.754	91.88
1867.047	100.88
1871.335	95.88
1875.62	95.88
1879.9	103.88
1884.177	103.88
1888.449	101.88
1892.718	105.88
1896.982	105.88
1901.243	104.88
1905.499	112.88
1909.752	106.88
1914	114.88
1918.245	106.88
1922.485	109.88
1926.722	106.88
1930.954	118.88
1935.183	112.88
1939.408	114.88
1943.628	116.88
1947.845	112.88
1952.058	108.88
1956.267	112.88
1960.472	105.88
1964.673	108.88
1968.87	111.88
1973.063	108.88
1977.252	105.88
1981.438	103.88
1985.619	104.88
1989.797	104.88
1993.971	104.88
1998.14	111.88
2002.306	108.88
2006.469	110.88
2010.627	113.88
2014.781	113.88
2018.932	110.88
2023.078	112.88
2027.221	108.88
2031.36	108.88
2035.495	112.88
2039.627	110.88
2043.754	112.88
2047.878	118.88
2051.998	109.88
2056.114	120.88
2060.226	117.88
2064.334	120.88
2068.439	125.88
2072.54	124.88
2076.637	124.88
2080.73	128.88
2084.82	125.88
2088.906	129.88
2092.988	132.88
2097.066	128.88
2101.14	131.88
2105.211	125.88
2109.278	127.88
2113.342	130.88
2117.401	128.88
2121.457	129.88
2125.509	130.88
2129.558	129.88
2133.602	131.88
2137.643	134.88
2141.681	131.88
2145.714	130.88
2149.744	136.88
2153.77	134.88
2157.793	130.88
2161.812	133.88
2165.827	132.88
2169.838	137.88
2173.846	134.88
2177.851	132.88
2181.851	133.88
2185.848	132.88
2189.841	134.88
2193.831	142.88
2197.817	136.88
2201.799	138.88
2205.778	141.88
2209.753	143.88
2213.725	144.88
2217.693	147.88
2221.657	148.88
2225.618	150.88
2229.575	152.88
2233.529	157.88
2237.479	150.88
2241.425	156.88
2245.368	155.88
2249.307	156.88
2253.243	152.88
2257.175	156.88
2261.104	158.88
2265.029	159.88
2268.95	161.88
2272.868	166.88
2276.783	164.88
2280.694	160.88
2284.601	163.88
2288.505	167.88
2292.405	160.88
2296.302	171.88
2300.195	163.88
2304.085	165.88
2307.971	169.88
2311.854	164.88
2315.734	166.88
2319.609	164.88
2323.482	166.88
2327.351	169.88
2331.216	171.88
2335.078	178.88
2338.937	172.88
2342.792	173.88
2346.643	170.88
2350.492	181.88
2354.336	181.88
2358.178	184.88
2362.015	178.88
2365.85	189.88
2369.681	193.88
2373.508	190.88
2377.333	198.88
2381.153	198.88
2384.971	200.88
2388.785	202.88
2392.595	200.88
2396.402	205.88
2400.206	210.88
2404.007	202.88
2407.804	205.88
2411.597	210.88
2415.388	215.88
2419.174	216.88
2422.958	214.88
2426.738	222.88
2430.515	221.88
2434.289	229.88
2438.059	224.88
2441.825	226.88
2445.589	226.88
2449.349	233.88
2453.106	234.88
2456.859	234.88
2460.61	239.88
2464.356	235.88
2468.1	238.88
2471.84	235.88
2475.577	237.88
2479.311	241.88
2483.041	247.88
2486.768	251.88
2490.492	248.88
2494.213	250.88
2497.93	260.88
2501.644	267.88
2505.355	260.88
2509.062	265.88
2512.766	274.88
2516.467	271.88
2520.165	279.88
2523.859	285.88
2527.551	277.88
2531.239	280.88
2534.923	290.88
2538.605	290.88
2542.283	286.88
2545.958	291.88
2549.63	292.88
2553.299	293.88
2556.964	291.88
2560.626	297.88
2564.285	295.88
2567.941	289.88
2571.594	292.88
2575.243	299.88
2578.89	304.88
2582.533	303.88
2586.173	294.88
2589.809	302.88
2593.443	302.88
2597.073	300.88
2600.701	298.88
2604.325	300.88
2607.946	302.88
2611.564	305.88
2615.178	305.88
2618.79	315.88
2622.398	303.88
2626.004	312.88
2629.606	314.88
2633.205	318.88
2636.801	313.88
2640.394	316.88
2643.983	307.88
2647.57	306.88
2651.153	315.88
2654.734	307.88
2658.311	321.88
2661.885	317.88
2665.456	306.88
2669.025	314.88
2672.589	312.88
2676.151	312.88
2679.71	324.88
2683.266	317.88
2686.819	323.88
2690.368	322.88
2693.915	325.88
2697.458	321.88
2700.999	324.88
2704.536	328.88
2708.071	330.88
2711.602	324.88
2715.13	326.88
2718.656	322.88
2722.178	321.88
2725.697	332.88
2729.214	338.88
2732.727	343.88
2736.237	346.88
2739.744	356.88
2743.249	351.88
2746.75	359.88
2750.248	361.88
2753.743	356.88
2757.236	342.88
2760.725	340.88
2764.211	345.88
2767.695	333.88
2771.175	331.88
2774.652	332.88
2778.127	333.88
2781.598	332.88
2785.067	331.88
2788.532	336.88
2791.995	339.88
2795.455	345.88
2798.911	360.88
2802.365	356.88
2805.816	362.88
2809.264	365.88
2812.709	374.88
2816.151	377.88
2819.59	373.88
2823.026	375.88
2826.46	373.88
2829.89	383.88
2833.318	370.88
2836.742	384.88
2840.164	380.88
2843.583	385.88
2846.999	375.88
2850.412	377.88
2853.822	378.88
2857.229	374.88
2860.634	391.88
2864.035	393.88
2867.434	393.88
2870.83	386.88
2874.223	385.88
2877.613	378.88
2881	383.88
2884.385	388.88
2887.766	367.88
2891.145	377.88
2894.521	367.88
2897.894	371.88
2901.264	361.88
2904.631	364.88
2907.996	366.88
2911.358	370.88
2914.717	358.88
2918.073	362.88
2921.426	364.88
2924.777	363.88
2928.124	369.88
2931.469	363.88
2934.811	374.88
2938.15	363.88
2941.487	369.88
2944.821	362.88
2948.152	371.88
2951.48	365.88
2954.805	370.88
2958.128	369.88
2961.447	359.88
2964.765	361.88
2968.079	369.88
2971.39	377.88
2974.699	370.88
2978.005	369.88
2981.308	376.88
2984.609	369.88
2987.907	373.88
2991.202	375.88
2994.494	368.88
2997.784	366.88
3001.07	362.88
3004.355	360.88
3007.636	359.88
3010.915	365.88
3014.191	348.88
3017.464	351.88
3020.734	345.88
3024.002	345.88
3027.267	342.88
3030.53	327.88
3033.789	342.88
3037.046	339.88
3040.301	333.88
3043.552	341.88
3046.801	339.88
3050.048	332.88
3053.291	342.88
3056.532	351.88
3059.771	351.88
3063.006	343.88
3066.239	347.88
3069.469	353.88
3072.697	353.88
3075.922	364.88
3079.144	355.88
3082.364	364.88
3085.581	359.88
3088.795	357.88
3092.007	363.88
3095.216	359.88
3098.423	358.88
3101.627	365.88
3104.828	358.88
3108.026	362.88
3111.222	359.88
3114.416	357.88
3117.607	354.88
3120.795	364.88
3123.98	357.88
3127.163	361.88
3130.344	356.88
3133.521	351.88
3136.696	353.88
3139.869	350.88
3143.039	357.88
3146.206	346.88
3149.371	349.88
3152.533	342.88
3155.693	338.88
3158.85	338.88
3162.005	326.88
3165.157	334.88
3168.306	319.88
3171.453	318.88
3174.597	319.88
3177.739	306.88
3180.878	312.88
3184.014	299.88
3187.149	300.88
3190.28	295.88
3193.409	301.88
3196.536	291.88
3199.659	296.88
3202.781	287.88
3205.9	290.88
3209.016	297.88
3212.13	289.88
3215.241	280.88
3218.35	281.88
3221.456	279.88
3224.56	276.88
3227.661	285.88
3230.76	271.88
3233.856	271.88
3236.95	270.88
3240.041	257.88
3243.13	257.88
3246.216	259.88
3249.3	259.88
3252.382	254.88
3255.46	258.88
3258.537	252.88
3261.611	256.88
3264.682	246.88
3267.751	249.88
3270.818	254.88
3273.882	244.88
3276.943	235.88
3280.002	247.88
3283.059	231.88
3286.113	229.88
3289.165	231.88
3292.214	228.88
3295.261	231.88
3298.306	225.88
3301.348	220.88
3304.387	216.88
3307.425	218.88
3310.459	215.88
3313.492	215.88
3316.521	211.88
3319.549	208.88
3322.574	218.88
3325.597	211.88
3328.617	215.88
3331.635	212.88
3334.65	210.88
3337.663	219.88
3340.674	212.88
3343.682	212.88
3346.688	219.88
3349.691	216.88
3352.692	213.88
3355.691	213.88
3358.687	212.88
3361.681	208.88
3364.673	207.88
3367.662	209.88
3370.649	208.88
3373.633	205.88
3376.615	201.88
3379.595	201.88
3382.572	194.88
3385.547	196.88
3388.52	203.88
3391.49	194.88
3394.458	192.88
3397.424	189.88
3400.387	188.88
3403.348	181.88
3406.307	183.88
3409.263	182.88
3412.217	187.88
3415.168	178.88
3418.118	186.88
3421.065	180.88
3424.009	176.88
3426.951	175.88
3429.891	168.88
3432.829	174.88
3435.764	169.88
3438.697	169.88
3441.628	164.88
3444.557	165.88
3447.483	162.88
3450.407	153.88
3453.328	157.88
3456.247	160.88
3459.164	149.88
3462.079	154.88
3464.991	148.88
3467.902	145.88
3470.809	149.88
3473.715	145.88
3476.618	146.88
3479.519	136.88
3482.418	133.88
3485.315	129.88
3488.209	135.88
3491.101	137.88
3493.99	128.88
3496.878	128.88
3499.763	129.88
3502.646	131.88
3505.527	124.88
3508.405	125.88
3511.281	125.88
3514.155	117.88
3517.027	117.88
3519.897	117.88
3522.764	114.88
3525.629	111.88
3528.492	106.88
3531.352	106.88
3534.211	104.88
3537.067	98.88
3539.921	96.88
3542.773	97.88
3545.622	90.88
3548.469	90.88
3551.315	92.88
3554.157	88.88
3556.998	86.88
3559.837	90.88
3562.673	83.88
3565.507	89.88
3568.339	82.88
3571.169	83.88
3573.996	84.88
3576.822	81.88
3579.645	80.88
3582.466	81.88
3585.285	78.88
3588.101	73.88
3590.916	77.88
3593.728	76.88
3596.538	75.88
3599.346	70.88
3602.152	73.88
3604.956	67.88
3607.757	67.88
3610.556	66.88
3613.354	67.88
3616.149	68.88
3618.942	61.88
3621.732	64.88
3624.521	61.88
3627.307	59.88
3630.092	57.88
3632.874	57.88
3635.654	60.88
3638.432	59.88
3641.208	58.88
3643.982	58.88
3646.753	57.88
3649.523	54.88
3652.29	54.88
3655.055	56.88
3657.818	53.88
3660.579	53.88
3663.338	46.88
3666.095	52.88
3668.849	53.88
3671.602	51.88
3674.352	50.88
3677.101	49.88
3679.847	47.88
3682.591	46.88
3685.333	46.88
3688.073	47.88
3690.811	50.88
3693.547	49.88
3696.281	43.88
3699.013	51.88
3701.742	51.88
3704.47	50.88
3707.195	54.88
3709.919	51.88
3712.64	52.88
3715.359	52.88
3718.076	51.88
3720.792	49.88
3723.505	49.88
3726.216	53.88
3728.925	47.88
3731.632	45.88
3734.336	46.88
3737.039	48.88
3739.74	44.88
3742.439	46.88
3745.136	47.88
3747.83	45.88
3750.523	50.88
3753.213	47.88
3755.902	45.88
3758.589	50.88
3761.273	45.88
3763.956	44.88
3766.636	42.88
3769.315	45.88
3771.991	43.88
3774.665	42.88
3777.338	38.88
3780.008	39.88
3782.677	42.88
3785.343	34.88
3788.007	33.88
3790.67	32.88
3793.33	35.88
3795.989	28.88
3798.645	31.88
3801.299	32.88
3803.952	34.88
3806.602	32.88
3809.251	29.88
3811.897	33.88
3814.542	25.88
3817.184	34.88
3819.825	27.88
3822.463	33.88
3825.1	31.88
3827.735	29.88
3830.367	25.88
3832.998	27.88
3835.627	30.88
3838.253	28.88
3840.878	26.88
3843.501	24.88
3846.122	26.88
3848.741	21.88
3851.358	23.88
3853.973	20.88
3856.586	24.88
3859.197	24.88
3861.806	23.88
3864.414	20.88
3867.019	20.88
3869.622	19.88
3872.224	18.88
3874.823	18.88
3877.421	20.88
3880.016	22.88
3882.61	19.88
3885.202	22.88
3887.792	19.88
3890.38	12.88
3892.966	10.88
3895.55	8.88
3898.132	7.88
3900.713	8.88
3903.291	6.88
3905.868	9.88
3908.442	9.88
3911.015	7.88
3913.586	6.88
3916.155	8.88
3918.722	1.88
3921.287	6.88
3923.85	7.88
3926.411	9.88
3928.971	6.88
3931.528	10.88
3934.084	7.88
3936.638	3.88
3939.19	5.88
3941.74	7.88
3944.288	5.88
3946.834	6.88
3949.378	7.88
3951.921	4.88
3954.462	1.88
3957	2.88
3959.537	2.88
3962.072	5.88
3964.606	1.88
3967.137	2.88
3969.667	3.88
3972.194	0.88
3974.72	0.88
3977.244	4.88
3979.766	-2.12
3982.286	0.88
3984.805	1.88
3987.321	-0.12
3989.836	2.88
3992.349	-1.12
3994.86	-4.12
3997.369	-1.12
3999.877	-3.12
4002.382	-3.12
4004.886	-1.12
4007.388	-3.12
4009.888	-0.12
4012.386	-5.12
4014.883	-5.12
4017.377	-2.12
4019.87	-0.12
4022.361	1.88
4024.85	-1.12
4027.338	-6.12
4029.823	-3.12
4032.307	3.88
4034.789	-0.12
4037.269	-4.12
4039.747	-1.12
4042.224	0.88
4044.699	-0.12
4047.172	-0.12
4049.643	-3.12
4052.112	-2.12
4054.58	-0.12
4057.046	-6.12
4059.51	-3.12
4061.972	-4.12
4064.432	-4.12
4066.891	-7.12
4069.348	-3.12
4071.803	-2.12
4074.256	-7.12
4076.708	-6.12
4079.158	-5.12
4081.606	-4.12
4084.052	-6.12
4086.497	-6.12
4088.939	-5.12
4091.38	-3.12
4093.819	-10.12
4096.257	-5.12
4098.693	-6.12
4101.127	-8.12
4103.559	-9.12
4105.989	-0.12
4108.418	3.88
4110.845	-6.12
4113.27	0.88
4115.694	0.88
4118.115	0.88
4120.535	-4.12
4122.954	-7.12
4125.37	-5.12
4127.785	-6.12
4130.198	-6.12
4132.609	-7.12
4135.019	-7.12
4137.427	-10.12
4139.833	-7.12
4142.237	-9.12
