Data from 171017-reg-ec2_File7_1.txt Node
Date: Tue Oct 17 12:19:42 IDT 2017
User: aro
Spectrometer: QEPB0276
Trigger mode: 0
Integration Time (sec): 5.000000E0
Scans to average: 1
Electric dark correction enabled: true
Nonlinearity correction enabled: false
Boxcar width: 0
XAxis mode: Raman Shifts
Number of Pixels in Spectrum: 1044
>>>>>Begin Spectral Data<<<<<
160.701	3.62
166.742	3.62
172.777	9.62
178.805	28.62
184.826	77.62
190.841	174.62
196.849	297.62
202.85	412.62
208.845	457.62
214.833	474.62
220.815	472.62
226.789	482.62
232.758	499.62
238.719	509.62
244.674	508.62
250.623	529.62
256.565	524.62
262.5	519.62
268.429	516.62
274.351	528.62
280.267	528.62
286.176	526.62
292.079	535.62
297.975	540.62
303.865	541.62
309.748	553.62
315.625	542.62
321.495	540.62
327.359	538.62
333.217	531.62
339.068	534.62
344.912	530.62
350.751	532.62
356.583	532.62
362.408	524.62
368.227	519.62
374.04	515.62
379.847	533.62
385.647	528.62
391.44	517.62
397.228	514.62
403.009	513.62
408.784	513.62
414.553	542.62
420.315	555.62
426.071	567.62
431.821	545.62
437.565	517.62
443.302	497.62
449.033	493.62
454.758	481.62
460.477	478.62
466.189	484.62
471.896	472.62
477.596	471.62
483.29	453.62
488.978	440.62
494.66	433.62
500.335	415.62
506.005	390.62
511.668	388.62
517.325	405.62
522.977	456.62
528.622	494.62
534.261	515.62
539.894	515.62
545.521	497.62
551.141	504.62
556.756	486.62
562.365	477.62
567.968	483.62
573.565	481.62
579.155	473.62
584.74	459.62
590.319	466.62
595.892	448.62
601.459	452.62
607.02	448.62
612.575	444.62
618.124	430.62
623.667	441.62
629.204	445.62
634.735	449.62
640.261	456.62
645.781	460.62
651.294	464.62
656.802	465.62
662.304	453.62
667.8	448.62
673.29	457.62
678.775	444.62
684.254	439.62
689.726	435.62
695.193	439.62
700.655	440.62
706.11	440.62
711.56	433.62
717.004	436.62
722.442	429.62
727.874	435.62
733.301	437.62
738.722	430.62
744.137	429.62
749.547	430.62
754.951	438.62
760.349	443.62
765.741	430.62
771.128	438.62
776.509	440.62
781.885	456.62
787.254	441.62
792.618	437.62
797.977	436.62
803.33	443.62
808.677	434.62
814.019	445.62
819.355	440.62
824.686	439.62
830.011	429.62
835.33	435.62
840.644	440.62
845.952	432.62
851.255	437.62
856.552	438.62
861.844	447.62
867.13	446.62
872.41	445.62
877.686	444.62
882.955	439.62
888.219	443.62
893.478	441.62
898.731	432.62
903.979	435.62
909.221	429.62
914.458	442.62
919.69	443.62
924.916	442.62
930.136	447.62
935.351	456.62
940.561	466.62
945.766	462.62
950.965	479.62
956.158	474.62
961.347	454.62
966.529	456.62
971.707	453.62
976.879	446.62
982.046	444.62
987.208	443.62
992.364	435.62
997.515	434.62
1002.66	440.62
1007.801	443.62
1012.936	439.62
1018.066	445.62
1023.19	449.62
1028.309	454.62
1033.423	440.62
1038.532	450.62
1043.636	441.62
1048.734	439.62
1053.827	434.62
1058.915	434.62
1063.998	428.62
1069.075	435.62
1074.147	434.62
1079.214	439.62
1084.276	435.62
1089.333	438.62
1094.385	447.62
1099.431	442.62
1104.472	447.62
1109.509	446.62
1114.54	442.62
1119.565	438.62
1124.586	437.62
1129.602	430.62
1134.613	435.62
1139.618	427.62
1144.619	428.62
1149.614	434.62
1154.604	423.62
1159.589	432.62
1164.57	441.62
1169.545	444.62
1174.515	439.62
1179.48	438.62
1184.44	435.62
1189.395	440.62
1194.345	431.62
1199.29	430.62
1204.23	419.62
1209.165	438.62
1214.095	435.62
1219.021	441.62
1223.941	437.62
1228.856	449.62
1233.766	456.62
1238.672	441.62
1243.572	447.62
1248.467	456.62
1253.358	441.62
1258.244	445.62
1263.124	441.62
1268	433.62
1272.871	430.62
1277.737	429.62
1282.599	424.62
1287.455	422.62
1292.306	425.62
1297.153	428.62
1301.995	428.62
1306.832	443.62
1311.664	438.62
1316.491	440.62
1321.314	447.62
1326.132	440.62
1330.945	446.62
1335.753	442.62
1340.556	432.62
1345.354	440.62
1350.148	428.62
1354.937	432.62
1359.722	423.62
1364.501	413.62
1369.276	415.62
1374.046	415.62
1378.811	414.62
1383.572	398.62
1388.327	409.62
1393.079	403.62
1397.825	400.62
1402.567	407.62
1407.304	395.62
1412.036	407.62
1416.764	399.62
1421.487	396.62
1426.205	418.62
1430.919	418.62
1435.628	425.62
1440.333	433.62
1445.032	426.62
1449.727	430.62
1454.418	441.62
1459.104	435.62
1463.785	447.62
1468.462	434.62
1473.134	434.62
1477.802	434.62
1482.465	436.62
1487.123	430.62
1491.777	430.62
1496.426	435.62
1501.071	451.62
1505.711	442.62
1510.347	441.62
1514.978	451.62
1519.604	439.62
1524.226	441.62
1528.844	440.62
1533.457	433.62
1538.065	431.62
1542.669	428.62
1547.269	413.62
1551.864	427.62
1556.454	422.62
1561.041	429.62
1565.622	418.62
1570.199	422.62
1574.772	425.62
1579.34	419.62
1583.904	423.62
1588.464	423.62
1593.019	432.62
1597.569	427.62
1602.115	423.62
1606.657	422.62
1611.195	413.62
1615.728	411.62
1620.256	408.62
1624.78	409.62
1629.3	417.62
1633.816	424.62
1638.327	418.62
1642.834	423.62
1647.336	436.62
1651.834	438.62
1656.328	440.62
1660.817	451.62
1665.302	451.62
1669.783	450.62
1674.259	447.62
1678.732	449.62
1683.199	461.62
1687.663	457.62
1692.122	452.62
1696.577	432.62
1701.028	435.62
1705.474	433.62
1709.917	428.62
1714.355	416.62
1718.788	422.62
1723.218	426.62
1727.643	431.62
1732.064	427.62
1736.481	431.62
1740.893	426.62
1745.301	423.62
1749.705	412.62
1754.105	403.62
1758.501	402.62
1762.893	408.62
1767.28	404.62
1771.663	394.62
1776.042	402.62
1780.417	413.62
1784.787	415.62
1789.154	414.62
1793.516	427.62
1797.874	421.62
1802.228	417.62
1806.578	403.62
1810.924	414.62
1815.266	400.62
1819.603	397.62
1823.937	386.62
1828.266	390.62
1832.591	400.62
1836.913	400.62
1841.23	403.62
1845.543	399.62
1849.852	400.62
1854.156	402.62
1858.457	404.62
1862.754	414.62
1867.047	411.62
1871.335	419.62
1875.62	423.62
1879.9	424.62
1884.177	422.62
1888.449	443.62
1892.718	447.62
1896.982	439.62
1901.243	442.62
1905.499	446.62
1909.752	451.62
1914	445.62
1918.245	447.62
1922.485	454.62
1926.722	454.62
1930.954	465.62
1935.183	451.62
1939.408	453.62
1943.628	469.62
1947.845	460.62
1952.058	450.62
1956.267	450.62
1960.472	436.62
1964.673	434.62
1968.87	417.62
1973.063	417.62
1977.252	410.62
1981.438	412.62
1985.619	408.62
1989.797	413.62
1993.971	409.62
1998.14	409.62
2002.306	412.62
2006.469	418.62
2010.627	422.62
2014.781	418.62
2018.932	425.62
2023.078	421.62
2027.221	406.62
2031.36	417.62
2035.495	412.62
2039.627	411.62
2043.754	417.62
2047.878	412.62
2051.998	415.62
2056.114	420.62
2060.226	427.62
2064.334	423.62
2068.439	428.62
2072.54	434.62
2076.637	443.62
2080.73	443.62
2084.82	440.62
2088.906	447.62
2092.988	456.62
2097.066	446.62
2101.14	448.62
2105.211	442.62
2109.278	440.62
2113.342	442.62
2117.401	432.62
2121.457	424.62
2125.509	425.62
2129.558	422.62
2133.602	426.62
2137.643	425.62
2141.681	426.62
2145.714	430.62
2149.744	425.62
2153.77	422.62
2157.793	424.62
2161.812	420.62
2165.827	426.62
2169.838	423.62
2173.846	411.62
2177.851	420.62
2181.851	414.62
2185.848	416.62
2189.841	418.62
2193.831	411.62
2197.817	413.62
2201.799	422.62
2205.778	423.62
2209.753	425.62
2213.725	431.62
2217.693	435.62
2221.657	432.62
2225.618	432.62
2229.575	439.62
2233.529	445.62
2237.479	435.62
2241.425	438.62
2245.368	442.62
2249.307	435.62
2253.243	430.62
2257.175	434.62
2261.104	430.62
2265.029	421.62
2268.95	422.62
2272.868	428.62
2276.783	436.62
2280.694	436.62
2284.601	419.62
2288.505	424.62
2292.405	421.62
2296.302	419.62
2300.195	417.62
2304.085	424.62
2307.971	414.62
2311.854	407.62
2315.734	408.62
2319.609	405.62
2323.482	411.62
2327.351	402.62
2331.216	410.62
2335.078	414.62
2338.937	407.62
2342.792	410.62
2346.643	410.62
2350.492	418.62
2354.336	417.62
2358.178	418.62
2362.015	424.62
2365.85	433.62
2369.681	438.62
2373.508	439.62
2377.333	450.62
2381.153	451.62
2384.971	452.62
2388.785	450.62
2392.595	442.62
2396.402	462.62
2400.206	464.62
2404.007	460.62
2407.804	467.62
2411.597	471.62
2415.388	470.62
2419.174	467.62
2422.958	469.62
2426.738	471.62
2430.515	474.62
2434.289	480.62
2438.059	480.62
2441.825	486.62
2445.589	480.62
2449.349	494.62
2453.106	480.62
2456.859	475.62
2460.61	480.62
2464.356	484.62
2468.1	486.62
2471.84	478.62
2475.577	488.62
2479.311	494.62
2483.041	491.62
2486.768	487.62
2490.492	482.62
2494.213	498.62
2497.93	507.62
2501.644	502.62
2505.355	507.62
2509.062	517.62
2512.766	509.62
2516.467	515.62
2520.165	518.62
2523.859	524.62
2527.551	526.62
2531.239	523.62
2534.923	530.62
2538.605	524.62
2542.283	529.62
2545.958	527.62
2549.63	538.62
2553.299	532.62
2556.964	541.62
2560.626	548.62
2564.285	544.62
2567.941	535.62
2571.594	547.62
2575.243	536.62
2578.89	539.62
2582.533	538.62
2586.173	536.62
2589.809	538.62
2593.443	538.62
2597.073	538.62
2600.701	528.62
2604.325	529.62
2607.946	526.62
2611.564	529.62
2615.178	538.62
2618.79	524.62
2622.398	525.62
2626.004	521.62
2629.606	524.62
2633.205	527.62
2636.801	519.62
2640.394	530.62
2643.983	512.62
2647.57	523.62
2651.153	512.62
2654.734	512.62
2658.311	509.62
2661.885	519.62
2665.456	514.62
2669.025	516.62
2672.589	510.62
2676.151	506.62
2679.71	511.62
2683.266	511.62
2686.819	513.62
2690.368	515.62
2693.915	510.62
2697.458	503.62
2700.999	497.62
2704.536	513.62
2708.071	495.62
2711.602	501.62
2715.13	495.62
2718.656	505.62
2722.178	501.62
2725.697	515.62
2729.214	509.62
2732.727	521.62
2736.237	520.62
2739.744	532.62
2743.249	538.62
2746.75	530.62
2750.248	529.62
2753.743	513.62
2757.236	513.62
2760.725	513.62
2764.211	506.62
2767.695	499.62
2771.175	498.62
2774.652	491.62
2778.127	495.62
2781.598	477.62
2785.067	489.62
2788.532	490.62
2791.995	498.62
2795.455	506.62
2798.911	530.62
2802.365	517.62
2805.816	519.62
2809.264	529.62
2812.709	531.62
2816.151	514.62
2819.59	530.62
2823.026	527.62
2826.46	539.62
2829.89	529.62
2833.318	534.62
2836.742	526.62
2840.164	531.62
2843.583	530.62
2846.999	532.62
2850.412	536.62
2853.822	529.62
2857.229	529.62
2860.634	532.62
2864.035	537.62
2867.434	533.62
2870.83	526.62
2874.223	526.62
2877.613	517.62
2881	514.62
2884.385	516.62
2887.766	505.62
2891.145	507.62
2894.521	493.62
2897.894	490.62
2901.264	491.62
2904.631	486.62
2907.996	477.62
2911.358	484.62
2914.717	484.62
2918.073	484.62
2921.426	478.62
2924.777	474.62
2928.124	477.62
2931.469	481.62
2934.811	486.62
2938.15	484.62
2941.487	480.62
2944.821	485.62
2948.152	479.62
2951.48	476.62
2954.805	486.62
2958.128	472.62
2961.447	474.62
2964.765	478.62
2968.079	475.62
2971.39	471.62
2974.699	466.62
2978.005	476.62
2981.308	476.62
2984.609	467.62
2987.907	470.62
2991.202	478.62
2994.494	477.62
2997.784	467.62
3001.07	460.62
3004.355	456.62
3007.636	455.62
3010.915	450.62
3014.191	445.62
3017.464	431.62
3020.734	442.62
3024.002	429.62
3027.267	426.62
3030.53	426.62
3033.789	427.62
3037.046	419.62
3040.301	419.62
3043.552	421.62
3046.801	424.62
3050.048	418.62
3053.291	421.62
3056.532	424.62
3059.771	426.62
3063.006	419.62
3066.239	434.62
3069.469	429.62
3072.697	432.62
3075.922	433.62
3079.144	435.62
3082.364	425.62
3085.581	442.62
3088.795	439.62
3092.007	436.62
3095.216	424.62
3098.423	429.62
3101.627	429.62
3104.828	431.62
3108.026	424.62
3111.222	423.62
3114.416	425.62
3117.607	422.62
3120.795	425.62
3123.98	421.62
3127.163	422.62
3130.344	423.62
3133.521	422.62
3136.696	419.62
3139.869	420.62
3143.039	418.62
3146.206	411.62
3149.371	408.62
3152.533	407.62
3155.693	397.62
3158.85	396.62
3162.005	389.62
3165.157	385.62
3168.306	382.62
3171.453	371.62
3174.597	374.62
3177.739	366.62
3180.878	358.62
3184.014	357.62
3187.149	358.62
3190.28	345.62
3193.409	346.62
3196.536	338.62
3199.659	346.62
3202.781	332.62
3205.9	334.62
3209.016	330.62
3212.13	330.62
3215.241	320.62
3218.35	323.62
3221.456	318.62
3224.56	320.62
3227.661	312.62
3230.76	306.62
3233.856	310.62
3236.95	309.62
3240.041	301.62
3243.13	302.62
3246.216	302.62
3249.3	293.62
3252.382	293.62
3255.46	288.62
3258.537	291.62
3261.611	292.62
3264.682	285.62
3267.751	280.62
3270.818	281.62
3273.882	283.62
3276.943	276.62
3280.002	271.62
3283.059	277.62
3286.113	270.62
3289.165	264.62
3292.214	257.62
3295.261	257.62
3298.306	264.62
3301.348	256.62
3304.387	250.62
3307.425	247.62
3310.459	244.62
3313.492	246.62
3316.521	248.62
3319.549	248.62
3322.574	237.62
3325.597	235.62
3328.617	239.62
3331.635	242.62
3334.65	237.62
3337.663	230.62
3340.674	237.62
3343.682	234.62
3346.688	239.62
3349.691	234.62
3352.692	241.62
3355.691	232.62
3358.687	231.62
3361.681	230.62
3364.673	230.62
3367.662	230.62
3370.649	227.62
3373.633	222.62
3376.615	215.62
3379.595	225.62
3382.572	221.62
3385.547	215.62
3388.52	209.62
3391.49	212.62
3394.458	208.62
3397.424	207.62
3400.387	209.62
3403.348	201.62
3406.307	206.62
3409.263	201.62
3412.217	204.62
3415.168	207.62
3418.118	203.62
3421.065	198.62
3424.009	197.62
3426.951	198.62
3429.891	202.62
3432.829	193.62
3435.764	193.62
3438.697	187.62
3441.628	186.62
3444.557	182.62
3447.483	182.62
3450.407	167.62
3453.328	168.62
3456.247	171.62
3459.164	171.62
3462.079	166.62
3464.991	158.62
3467.902	160.62
3470.809	158.62
3473.715	158.62
3476.618	157.62
3479.519	149.62
3482.418	146.62
3485.315	148.62
3488.209	138.62
3491.101	144.62
3493.99	141.62
3496.878	135.62
3499.763	136.62
3502.646	135.62
3505.527	132.62
3508.405	125.62
3511.281	133.62
3514.155	126.62
3517.027	123.62
3519.897	122.62
3522.764	121.62
3525.629	118.62
3528.492	111.62
3531.352	117.62
3534.211	112.62
3537.067	109.62
3539.921	101.62
3542.773	107.62
3545.622	101.62
3548.469	101.62
3551.315	101.62
3554.157	95.62
3556.998	94.62
3559.837	97.62
3562.673	90.62
3565.507	93.62
3568.339	94.62
3571.169	87.62
3573.996	83.62
3576.822	85.62
3579.645	85.62
3582.466	84.62
3585.285	87.62
3588.101	80.62
3590.916	78.62
3593.728	78.62
3596.538	71.62
3599.346	74.62
3602.152	76.62
3604.956	66.62
3607.757	67.62
3610.556	67.62
3613.354	65.62
3616.149	64.62
3618.942	62.62
3621.732	64.62
3624.521	59.62
3627.307	58.62
3630.092	56.62
3632.874	59.62
3635.654	61.62
3638.432	58.62
3641.208	63.62
3643.982	57.62
3646.753	58.62
3649.523	56.62
3652.29	56.62
3655.055	55.62
3657.818	55.62
3660.579	51.62
3663.338	54.62
3666.095	56.62
3668.849	57.62
3671.602	53.62
3674.352	54.62
3677.101	54.62
3679.847	54.62
3682.591	50.62
3685.333	52.62
3688.073	49.62
3690.811	52.62
3693.547	49.62
3696.281	51.62
3699.013	53.62
3701.742	54.62
3704.47	52.62
3707.195	54.62
3709.919	53.62
3712.64	55.62
3715.359	51.62
3718.076	51.62
3720.792	48.62
3723.505	54.62
3726.216	47.62
3728.925	44.62
3731.632	43.62
3734.336	47.62
3737.039	43.62
3739.74	40.62
3742.439	43.62
3745.136	43.62
3747.83	42.62
3750.523	46.62
3753.213	44.62
3755.902	42.62
3758.589	46.62
3761.273	42.62
3763.956	41.62
3766.636	38.62
3769.315	41.62
3771.991	41.62
3774.665	36.62
3777.338	39.62
3780.008	44.62
3782.677	40.62
3785.343	33.62
3788.007	39.62
3790.67	35.62
3793.33	37.62
3795.989	36.62
3798.645	31.62
3801.299	37.62
3803.952	34.62
3806.602	36.62
3809.251	33.62
3811.897	38.62
3814.542	32.62
3817.184	31.62
3819.825	30.62
3822.463	31.62
3825.1	26.62
3827.735	29.62
3830.367	23.62
3832.998	26.62
3835.627	31.62
3838.253	26.62
3840.878	20.62
3843.501	20.62
3846.122	23.62
3848.741	22.62
3851.358	18.62
3853.973	19.62
3856.586	21.62
3859.197	18.62
3861.806	16.62
3864.414	19.62
3867.019	17.62
3869.622	12.62
3872.224	13.62
3874.823	17.62
3877.421	17.62
3880.016	17.62
3882.61	19.62
3885.202	17.62
3887.792	16.62
3890.38	15.62
3892.966	11.62
3895.55	6.62
3898.132	7.62
3900.713	2.62
3903.291	7.62
3905.868	8.62
3908.442	6.62
3911.015	6.62
3913.586	5.62
3916.155	3.62
3918.722	-0.38
3921.287	4.62
3923.85	4.62
3926.411	6.62
3928.971	4.62
3931.528	7.62
3934.084	2.62
3936.638	1.62
3939.19	4.62
3941.74	3.62
3944.288	2.62
3946.834	4.62
3949.378	1.62
3951.921	-0.38
3954.462	-4.38
3957	-2.38
3959.537	2.62
3962.072	5.62
3964.606	-1.38
3967.137	-2.38
3969.667	1.62
3972.194	-0.38
3974.72	1.62
3977.244	1.62
3979.766	-4.38
3982.286	-3.38
3984.805	-0.38
3987.321	-1.38
3989.836	-1.38
3992.349	-4.38
3994.86	-0.38
3997.369	-1.38
3999.877	-5.38
4002.382	-5.38
4004.886	0.62
4007.388	-5.38
4009.888	-2.38
4012.386	-6.38
4014.883	-5.38
4017.377	-8.38
4019.87	-2.38
4022.361	-5.38
4024.85	-8.38
4027.338	-9.38
4029.823	-10.38
4032.307	-4.38
4034.789	-7.38
4037.269	-8.38
4039.747	-6.38
4042.224	-5.38
4044.699	-6.38
4047.172	-3.38
4049.643	-6.38
4052.112	-4.38
4054.58	-3.38
4057.046	-8.38
4059.51	-6.38
4061.972	-6.38
4064.432	-9.38
4066.891	-8.38
4069.348	-7.38
4071.803	-5.38
4074.256	-9.38
4076.708	-4.38
4079.158	-4.38
4081.606	-11.38
4084.052	-6.38
4086.497	-5.38
4088.939	-8.38
4091.38	-3.38
4093.819	-7.38
4096.257	-13.38
4098.693	-11.38
4101.127	-12.38
4103.559	-10.38
4105.989	-3.38
4108.418	-0.38
4110.845	-6.38
4113.27	0.62
4115.694	-0.38
4118.115	5.62
4120.535	-7.38
4122.954	-7.38
4125.37	-6.38
4127.785	-8.38
4130.198	-8.38
4132.609	-7.38
4135.019	-10.38
4137.427	-11.38
4139.833	-11.38
4142.237	-12.38
