Data from 171017-reg-ec1_RamanShift_5.txt Node
Date: Tue Oct 17 12:16:14 IDT 2017
User: aro
Spectrometer: QEPB0276
Trigger mode: 0
Integration Time (sec): 5.000000E0
Scans to average: 1
Electric dark correction enabled: true
Nonlinearity correction enabled: false
Boxcar width: 0
XAxis mode: Raman Shifts
Number of Pixels in Spectrum: 1044
>>>>>Begin Spectral Data<<<<<
160.701	-0.5
166.742	7.5
172.777	11.5
178.805	44.5
184.826	126.5
190.841	269.5
196.849	461.5
202.85	623.5
208.845	709.5
214.833	727.5
220.815	753.5
226.789	766.5
232.758	808.5
238.719	818.5
244.674	816.5
250.623	813.5
256.565	790.5
262.5	762.5
268.429	743.5
274.351	723.5
280.267	706.5
286.176	704.5
292.079	700.5
297.975	691.5
303.865	696.5
309.748	690.5
315.625	687.5
321.495	674.5
327.359	676.5
333.217	670.5
339.068	655.5
344.912	653.5
350.751	633.5
356.583	634.5
362.408	635.5
368.227	636.5
374.04	626.5
379.847	631.5
385.647	640.5
391.44	625.5
397.228	627.5
403.009	625.5
408.784	621.5
414.553	635.5
420.315	666.5
426.071	678.5
431.821	645.5
437.565	625.5
443.302	605.5
449.033	595.5
454.758	603.5
460.477	581.5
466.189	576.5
471.896	576.5
477.596	560.5
483.29	562.5
488.978	553.5
494.66	542.5
500.335	523.5
506.005	504.5
511.668	501.5
517.325	528.5
522.977	574.5
528.622	596.5
534.261	626.5
539.894	635.5
545.521	619.5
551.141	607.5
556.756	599.5
562.365	595.5
567.968	600.5
573.565	589.5
579.155	587.5
584.74	577.5
590.319	573.5
595.892	563.5
601.459	573.5
607.02	562.5
612.575	546.5
618.124	549.5
623.667	555.5
629.204	561.5
634.735	567.5
640.261	579.5
645.781	578.5
651.294	596.5
656.802	592.5
662.304	583.5
667.8	582.5
673.29	573.5
678.775	572.5
684.254	566.5
689.726	565.5
695.193	576.5
700.655	561.5
706.11	568.5
711.56	565.5
717.004	558.5
722.442	560.5
727.874	567.5
733.301	578.5
738.722	575.5
744.137	567.5
749.547	568.5
754.951	566.5
760.349	565.5
765.741	578.5
771.128	573.5
776.509	568.5
781.885	581.5
787.254	569.5
792.618	574.5
797.977	575.5
803.33	585.5
808.677	579.5
814.019	573.5
819.355	568.5
824.686	578.5
830.011	564.5
835.33	564.5
840.644	570.5
845.952	571.5
851.255	568.5
856.552	577.5
861.844	582.5
867.13	580.5
872.41	582.5
877.686	581.5
882.955	575.5
888.219	581.5
893.478	579.5
898.731	574.5
903.979	566.5
909.221	561.5
914.458	571.5
919.69	575.5
924.916	577.5
930.136	577.5
935.351	596.5
940.561	603.5
945.766	602.5
950.965	608.5
956.158	618.5
961.347	613.5
966.529	607.5
971.707	588.5
976.879	587.5
982.046	571.5
987.208	571.5
992.364	571.5
997.515	575.5
1002.66	573.5
1007.801	569.5
1012.936	585.5
1018.066	597.5
1023.19	600.5
1028.309	589.5
1033.423	595.5
1038.532	604.5
1043.636	615.5
1048.734	592.5
1053.827	592.5
1058.915	581.5
1063.998	566.5
1069.075	563.5
1074.147	568.5
1079.214	569.5
1084.276	578.5
1089.333	575.5
1094.385	582.5
1099.431	570.5
1104.472	586.5
1109.509	580.5
1114.54	578.5
1119.565	571.5
1124.586	569.5
1129.602	559.5
1134.613	548.5
1139.618	554.5
1144.619	551.5
1149.614	547.5
1154.604	570.5
1159.589	574.5
1164.57	567.5
1169.545	565.5
1174.515	575.5
1179.48	579.5
1184.44	565.5
1189.395	561.5
1194.345	560.5
1199.29	561.5
1204.23	566.5
1209.165	560.5
1214.095	566.5
1219.021	579.5
1223.941	574.5
1228.856	583.5
1233.766	583.5
1238.672	588.5
1243.572	597.5
1248.467	592.5
1253.358	581.5
1258.244	579.5
1263.124	575.5
1268	556.5
1272.871	567.5
1277.737	561.5
1282.599	550.5
1287.455	560.5
1292.306	563.5
1297.153	570.5
1301.995	579.5
1306.832	589.5
1311.664	580.5
1316.491	593.5
1321.314	605.5
1326.132	589.5
1330.945	601.5
1335.753	598.5
1340.556	591.5
1345.354	582.5
1350.148	584.5
1354.937	585.5
1359.722	578.5
1364.501	557.5
1369.276	553.5
1374.046	540.5
1378.811	536.5
1383.572	538.5
1388.327	525.5
1393.079	530.5
1397.825	527.5
1402.567	531.5
1407.304	521.5
1412.036	541.5
1416.764	536.5
1421.487	528.5
1426.205	548.5
1430.919	541.5
1435.628	548.5
1440.333	551.5
1445.032	574.5
1449.727	574.5
1454.418	583.5
1459.104	585.5
1463.785	578.5
1468.462	581.5
1473.134	580.5
1477.802	572.5
1482.465	575.5
1487.123	564.5
1491.777	570.5
1496.426	576.5
1501.071	579.5
1505.711	583.5
1510.347	581.5
1514.978	571.5
1519.604	586.5
1524.226	574.5
1528.844	566.5
1533.457	567.5
1538.065	565.5
1542.669	556.5
1547.269	541.5
1551.864	553.5
1556.454	549.5
1561.041	543.5
1565.622	546.5
1570.199	539.5
1574.772	559.5
1579.34	554.5
1583.904	560.5
1588.464	566.5
1593.019	564.5
1597.569	564.5
1602.115	554.5
1606.657	546.5
1611.195	555.5
1615.728	547.5
1620.256	544.5
1624.78	544.5
1629.3	544.5
1633.816	550.5
1638.327	539.5
1642.834	546.5
1647.336	555.5
1651.834	573.5
1656.328	572.5
1660.817	567.5
1665.302	579.5
1669.783	582.5
1674.259	579.5
1678.732	584.5
1683.199	583.5
1687.663	584.5
1692.122	575.5
1696.577	568.5
1701.028	548.5
1705.474	550.5
1709.917	538.5
1714.355	524.5
1718.788	527.5
1723.218	524.5
1727.643	534.5
1732.064	538.5
1736.481	539.5
1740.893	532.5
1745.301	533.5
1749.705	523.5
1754.105	518.5
1758.501	499.5
1762.893	504.5
1767.28	519.5
1771.663	504.5
1776.042	516.5
1780.417	533.5
1784.787	534.5
1789.154	542.5
1793.516	533.5
1797.874	528.5
1802.228	533.5
1806.578	498.5
1810.924	505.5
1815.266	503.5
1819.603	484.5
1823.937	486.5
1828.266	480.5
1832.591	488.5
1836.913	495.5
1841.23	501.5
1845.543	509.5
1849.852	501.5
1854.156	509.5
1858.457	516.5
1862.754	520.5
1867.047	530.5
1871.335	529.5
1875.62	535.5
1879.9	544.5
1884.177	543.5
1888.449	542.5
1892.718	557.5
1896.982	560.5
1901.243	550.5
1905.499	558.5
1909.752	555.5
1914	566.5
1918.245	559.5
1922.485	580.5
1926.722	568.5
1930.954	577.5
1935.183	581.5
1939.408	577.5
1943.628	576.5
1947.845	576.5
1952.058	559.5
1956.267	557.5
1960.472	548.5
1964.673	531.5
1968.87	527.5
1973.063	513.5
1977.252	513.5
1981.438	513.5
1985.619	508.5
1989.797	509.5
1993.971	513.5
1998.14	517.5
2002.306	510.5
2006.469	512.5
2010.627	521.5
2014.781	517.5
2018.932	515.5
2023.078	518.5
2027.221	526.5
2031.36	511.5
2035.495	512.5
2039.627	503.5
2043.754	514.5
2047.878	512.5
2051.998	521.5
2056.114	526.5
2060.226	527.5
2064.334	528.5
2068.439	527.5
2072.54	536.5
2076.637	546.5
2080.73	546.5
2084.82	561.5
2088.906	560.5
2092.988	555.5
2097.066	555.5
2101.14	547.5
2105.211	542.5
2109.278	542.5
2113.342	534.5
2117.401	532.5
2121.457	527.5
2125.509	520.5
2129.558	517.5
2133.602	519.5
2137.643	514.5
2141.681	519.5
2145.714	516.5
2149.744	516.5
2153.77	507.5
2157.793	516.5
2161.812	512.5
2165.827	508.5
2169.838	498.5
2173.846	517.5
2177.851	509.5
2181.851	499.5
2185.848	500.5
2189.841	507.5
2193.831	508.5
2197.817	504.5
2201.799	496.5
2205.778	508.5
2209.753	504.5
2213.725	514.5
2217.693	517.5
2221.657	520.5
2225.618	522.5
2229.575	517.5
2233.529	521.5
2237.479	509.5
2241.425	514.5
2245.368	523.5
2249.307	508.5
2253.243	520.5
2257.175	508.5
2261.104	502.5
2265.029	504.5
2268.95	494.5
2272.868	494.5
2276.783	498.5
2280.694	497.5
2284.601	499.5
2288.505	506.5
2292.405	487.5
2296.302	482.5
2300.195	483.5
2304.085	481.5
2307.971	479.5
2311.854	475.5
2315.734	475.5
2319.609	472.5
2323.482	468.5
2327.351	480.5
2331.216	481.5
2335.078	475.5
2338.937	468.5
2342.792	475.5
2346.643	470.5
2350.492	477.5
2354.336	481.5
2358.178	493.5
2362.015	501.5
2365.85	505.5
2369.681	498.5
2373.508	512.5
2377.333	515.5
2381.153	515.5
2384.971	519.5
2388.785	529.5
2392.595	520.5
2396.402	532.5
2400.206	514.5
2404.007	527.5
2407.804	522.5
2411.597	532.5
2415.388	532.5
2419.174	537.5
2422.958	538.5
2426.738	523.5
2430.515	538.5
2434.289	541.5
2438.059	544.5
2441.825	552.5
2445.589	549.5
2449.349	554.5
2453.106	543.5
2456.859	547.5
2460.61	549.5
2464.356	548.5
2468.1	538.5
2471.84	545.5
2475.577	547.5
2479.311	550.5
2483.041	563.5
2486.768	570.5
2490.492	559.5
2494.213	567.5
2497.93	572.5
2501.644	571.5
2505.355	585.5
2509.062	587.5
2512.766	588.5
2516.467	586.5
2520.165	592.5
2523.859	588.5
2527.551	588.5
2531.239	584.5
2534.923	596.5
2538.605	590.5
2542.283	596.5
2545.958	598.5
2549.63	600.5
2553.299	615.5
2556.964	605.5
2560.626	612.5
2564.285	611.5
2567.941	602.5
2571.594	600.5
2575.243	610.5
2578.89	599.5
2582.533	605.5
2586.173	594.5
2589.809	598.5
2593.443	592.5
2597.073	597.5
2600.701	586.5
2604.325	585.5
2607.946	587.5
2611.564	579.5
2615.178	581.5
2618.79	578.5
2622.398	576.5
2626.004	576.5
2629.606	573.5
2633.205	572.5
2636.801	563.5
2640.394	574.5
2643.983	570.5
2647.57	560.5
2651.153	566.5
2654.734	555.5
2658.311	564.5
2661.885	555.5
2665.456	558.5
2669.025	553.5
2672.589	558.5
2676.151	554.5
2679.71	561.5
2683.266	563.5
2686.819	564.5
2690.368	552.5
2693.915	552.5
2697.458	543.5
2700.999	554.5
2704.536	550.5
2708.071	545.5
2711.602	541.5
2715.13	536.5
2718.656	553.5
2722.178	551.5
2725.697	559.5
2729.214	558.5
2732.727	563.5
2736.237	572.5
2739.744	578.5
2743.249	582.5
2746.75	581.5
2750.248	580.5
2753.743	577.5
2757.236	575.5
2760.725	558.5
2764.211	548.5
2767.695	547.5
2771.175	535.5
2774.652	525.5
2778.127	529.5
2781.598	528.5
2785.067	522.5
2788.532	531.5
2791.995	536.5
2795.455	542.5
2798.911	551.5
2802.365	557.5
2805.816	548.5
2809.264	551.5
2812.709	566.5
2816.151	565.5
2819.59	558.5
2823.026	555.5
2826.46	567.5
2829.89	567.5
2833.318	563.5
2836.742	563.5
2840.164	568.5
2843.583	567.5
2846.999	558.5
2850.412	558.5
2853.822	564.5
2857.229	558.5
2860.634	564.5
2864.035	572.5
2867.434	560.5
2870.83	559.5
2874.223	558.5
2877.613	547.5
2881	543.5
2884.385	542.5
2887.766	535.5
2891.145	534.5
2894.521	524.5
2897.894	526.5
2901.264	513.5
2904.631	510.5
2907.996	508.5
2911.358	505.5
2914.717	507.5
2918.073	509.5
2921.426	498.5
2924.777	502.5
2928.124	506.5
2931.469	496.5
2934.811	516.5
2938.15	509.5
2941.487	508.5
2944.821	503.5
2948.152	498.5
2951.48	494.5
2954.805	496.5
2958.128	496.5
2961.447	497.5
2964.765	501.5
2968.079	488.5
2971.39	493.5
2974.699	493.5
2978.005	487.5
2981.308	505.5
2984.609	491.5
2987.907	492.5
2991.202	504.5
2994.494	481.5
2997.784	487.5
3001.07	492.5
3004.355	479.5
3007.636	474.5
3010.915	470.5
3014.191	457.5
3017.464	451.5
3020.734	449.5
3024.002	440.5
3027.267	436.5
3030.53	426.5
3033.789	434.5
3037.046	434.5
3040.301	435.5
3043.552	428.5
3046.801	431.5
3050.048	433.5
3053.291	428.5
3056.532	435.5
3059.771	431.5
3063.006	436.5
3066.239	437.5
3069.469	435.5
3072.697	445.5
3075.922	449.5
3079.144	441.5
3082.364	436.5
3085.581	441.5
3088.795	444.5
3092.007	442.5
3095.216	437.5
3098.423	437.5
3101.627	451.5
3104.828	434.5
3108.026	433.5
3111.222	434.5
3114.416	437.5
3117.607	437.5
3120.795	432.5
3123.98	433.5
3127.163	432.5
3130.344	432.5
3133.521	421.5
3136.696	427.5
3139.869	436.5
3143.039	430.5
3146.206	422.5
3149.371	413.5
3152.533	410.5
3155.693	401.5
3158.85	401.5
3162.005	397.5
3165.157	390.5
3168.306	382.5
3171.453	378.5
3174.597	370.5
3177.739	371.5
3180.878	363.5
3184.014	356.5
3187.149	363.5
3190.28	360.5
3193.409	350.5
3196.536	341.5
3199.659	351.5
3202.781	343.5
3205.9	338.5
3209.016	342.5
3212.13	331.5
3215.241	331.5
3218.35	324.5
3221.456	320.5
3224.56	320.5
3227.661	317.5
3230.76	310.5
3233.856	317.5
3236.95	306.5
3240.041	302.5
3243.13	311.5
3246.216	302.5
3249.3	299.5
3252.382	291.5
3255.46	298.5
3258.537	292.5
3261.611	300.5
3264.682	292.5
3267.751	284.5
3270.818	288.5
3273.882	291.5
3276.943	281.5
3280.002	265.5
3283.059	274.5
3286.113	268.5
3289.165	271.5
3292.214	258.5
3295.261	261.5
3298.306	263.5
3301.348	257.5
3304.387	255.5
3307.425	250.5
3310.459	252.5
3313.492	243.5
3316.521	237.5
3319.549	240.5
3322.574	239.5
3325.597	231.5
3328.617	241.5
3331.635	236.5
3334.65	240.5
3337.663	235.5
3340.674	233.5
3343.682	241.5
3346.688	237.5
3349.691	236.5
3352.692	237.5
3355.691	236.5
3358.687	231.5
3361.681	233.5
3364.673	231.5
3367.662	233.5
3370.649	225.5
3373.633	220.5
3376.615	215.5
3379.595	211.5
3382.572	218.5
3385.547	212.5
3388.52	215.5
3391.49	209.5
3394.458	211.5
3397.424	208.5
3400.387	207.5
3403.348	202.5
3406.307	200.5
3409.263	206.5
3412.217	204.5
3415.168	197.5
3418.118	197.5
3421.065	194.5
3424.009	197.5
3426.951	192.5
3429.891	189.5
3432.829	190.5
3435.764	183.5
3438.697	180.5
3441.628	191.5
3444.557	182.5
3447.483	181.5
3450.407	172.5
3453.328	171.5
3456.247	165.5
3459.164	166.5
3462.079	162.5
3464.991	155.5
3467.902	155.5
3470.809	151.5
3473.715	151.5
3476.618	145.5
3479.519	148.5
3482.418	147.5
3485.315	145.5
3488.209	144.5
3491.101	142.5
3493.99	140.5
3496.878	137.5
3499.763	128.5
3502.646	130.5
3505.527	130.5
3508.405	123.5
3511.281	129.5
3514.155	124.5
3517.027	124.5
3519.897	112.5
3522.764	115.5
3525.629	115.5
3528.492	106.5
3531.352	110.5
3534.211	110.5
3537.067	100.5
3539.921	102.5
3542.773	106.5
3545.622	96.5
3548.469	94.5
3551.315	90.5
3554.157	90.5
3556.998	95.5
3559.837	91.5
3562.673	91.5
3565.507	89.5
3568.339	89.5
3571.169	82.5
3573.996	82.5
3576.822	87.5
3579.645	84.5
3582.466	82.5
3585.285	78.5
3588.101	78.5
3590.916	77.5
3593.728	72.5
3596.538	72.5
3599.346	71.5
3602.152	69.5
3604.956	66.5
3607.757	66.5
3610.556	62.5
3613.354	64.5
3616.149	65.5
3618.942	59.5
3621.732	57.5
3624.521	59.5
3627.307	61.5
3630.092	53.5
3632.874	53.5
3635.654	56.5
3638.432	58.5
3641.208	53.5
3643.982	50.5
3646.753	49.5
3649.523	52.5
3652.29	50.5
3655.055	48.5
3657.818	52.5
3660.579	45.5
3663.338	44.5
3666.095	51.5
3668.849	53.5
3671.602	48.5
3674.352	49.5
3677.101	46.5
3679.847	48.5
3682.591	46.5
3685.333	47.5
3688.073	43.5
3690.811	52.5
3693.547	45.5
3696.281	47.5
3699.013	49.5
3701.742	47.5
3704.47	49.5
3707.195	45.5
3709.919	47.5
3712.64	43.5
3715.359	47.5
3718.076	45.5
3720.792	41.5
3723.505	49.5
3726.216	46.5
3728.925	41.5
3731.632	40.5
3734.336	44.5
3737.039	40.5
3739.74	42.5
3742.439	36.5
3745.136	40.5
3747.83	42.5
3750.523	38.5
3753.213	41.5
3755.902	38.5
3758.589	38.5
3761.273	40.5
3763.956	32.5
3766.636	33.5
3769.315	32.5
3771.991	34.5
3774.665	31.5
3777.338	34.5
3780.008	35.5
3782.677	33.5
3785.343	27.5
3788.007	26.5
3790.67	27.5
3793.33	30.5
3795.989	26.5
3798.645	22.5
3801.299	27.5
3803.952	25.5
3806.602	23.5
3809.251	26.5
3811.897	31.5
3814.542	22.5
3817.184	26.5
3819.825	21.5
3822.463	23.5
3825.1	24.5
3827.735	23.5
3830.367	19.5
3832.998	23.5
3835.627	23.5
3838.253	18.5
3840.878	19.5
3843.501	16.5
3846.122	18.5
3848.741	20.5
3851.358	17.5
3853.973	13.5
3856.586	17.5
3859.197	14.5
3861.806	13.5
3864.414	13.5
3867.019	17.5
3869.622	14.5
3872.224	14.5
3874.823	14.5
3877.421	14.5
3880.016	15.5
3882.61	14.5
3885.202	13.5
3887.792	11.5
3890.38	6.5
3892.966	10.5
3895.55	3.5
3898.132	4.5
3900.713	2.5
3903.291	5.5
3905.868	5.5
3908.442	3.5
3911.015	1.5
3913.586	2.5
3916.155	3.5
3918.722	-2.5
3921.287	-1.5
3923.85	-2.5
3926.411	-3.5
3928.971	-3.5
3931.528	-3.5
3934.084	-4.5
3936.638	-6.5
3939.19	-5.5
3941.74	-5.5
3944.288	-5.5
3946.834	-5.5
3949.378	-5.5
3951.921	-7.5
3954.462	-4.5
3957	-8.5
3959.537	-5.5
3962.072	-3.5
3964.606	-4.5
3967.137	-6.5
3969.667	-2.5
3972.194	-3.5
3974.72	-5.5
3977.244	-3.5
3979.766	-5.5
3982.286	-3.5
3984.805	-5.5
3987.321	-5.5
3989.836	-1.5
3992.349	-9.5
3994.86	-4.5
3997.369	-4.5
3999.877	-7.5
4002.382	-4.5
4004.886	-4.5
4007.388	-7.5
4009.888	-6.5
4012.386	-6.5
4014.883	-9.5
4017.377	-12.5
4019.87	-3.5
4022.361	-4.5
4024.85	-11.5
4027.338	-12.5
4029.823	-11.5
4032.307	-9.5
4034.789	-6.5
4037.269	-12.5
4039.747	-11.5
4042.224	-10.5
4044.699	-9.5
4047.172	-7.5
4049.643	-12.5
4052.112	-11.5
4054.58	-10.5
4057.046	-14.5
4059.51	-13.5
4061.972	-14.5
4064.432	-12.5
4066.891	-13.5
4069.348	-10.5
4071.803	-11.5
4074.256	-17.5
4076.708	-17.5
4079.158	-12.5
4081.606	-17.5
4084.052	-12.5
4086.497	-14.5
4088.939	-14.5
4091.38	-10.5
4093.819	-15.5
4096.257	-17.5
4098.693	-17.5
4101.127	-17.5
4103.559	-14.5
4105.989	-7.5
4108.418	-5.5
4110.845	-6.5
4113.27	-1.5
4115.694	-5.5
4118.115	0.5
4120.535	-16.5
4122.954	-15.5
4125.37	-15.5
4127.785	-14.5
4130.198	-15.5
4132.609	-13.5
4135.019	-15.5
4137.427	-15.5
4139.833	-16.5
4142.237	-15.5
