Data from 171017-reg-ec2_RamanShift_1.txt Node
Date: Tue Oct 17 12:24:55 IDT 2017
User: aro
Spectrometer: QEPB0276
Trigger mode: 0
Integration Time (sec): 5.000000E0
Scans to average: 1
Electric dark correction enabled: true
Nonlinearity correction enabled: false
Boxcar width: 0
XAxis mode: Raman Shifts
Number of Pixels in Spectrum: 1044
>>>>>Begin Spectral Data<<<<<
160.701	2.38
166.742	6.38
172.777	9.38
178.805	24.38
184.826	68.38
190.841	148.38
196.849	251.38
202.85	335.38
208.845	383.38
214.833	388.38
220.815	399.38
226.789	404.38
232.758	414.38
238.719	421.38
244.674	431.38
250.623	438.38
256.565	436.38
262.5	442.38
268.429	433.38
274.351	447.38
280.267	449.38
286.176	449.38
292.079	452.38
297.975	463.38
303.865	476.38
309.748	460.38
315.625	483.38
321.495	470.38
327.359	471.38
333.217	466.38
339.068	466.38
344.912	459.38
350.751	462.38
356.583	460.38
362.408	460.38
368.227	460.38
374.04	463.38
379.847	460.38
385.647	460.38
391.44	460.38
397.228	466.38
403.009	468.38
408.784	457.38
414.553	485.38
420.315	508.38
426.071	506.38
431.821	485.38
437.565	461.38
443.302	446.38
449.033	440.38
454.758	436.38
460.477	427.38
466.189	417.38
471.896	416.38
477.596	415.38
483.29	400.38
488.978	396.38
494.66	386.38
500.335	371.38
506.005	351.38
511.668	364.38
517.325	367.38
522.977	424.38
528.622	450.38
534.261	463.38
539.894	456.38
545.521	443.38
551.141	440.38
556.756	441.38
562.365	423.38
567.968	428.38
573.565	425.38
579.155	412.38
584.74	411.38
590.319	410.38
595.892	400.38
601.459	407.38
607.02	389.38
612.575	385.38
618.124	389.38
623.667	393.38
629.204	387.38
634.735	398.38
640.261	400.38
645.781	412.38
651.294	419.38
656.802	419.38
662.304	412.38
667.8	398.38
673.29	401.38
678.775	403.38
684.254	401.38
689.726	398.38
695.193	408.38
700.655	383.38
706.11	389.38
711.56	396.38
717.004	389.38
722.442	391.38
727.874	393.38
733.301	394.38
738.722	383.38
744.137	397.38
749.547	397.38
754.951	392.38
760.349	404.38
765.741	399.38
771.128	401.38
776.509	416.38
781.885	414.38
787.254	411.38
792.618	408.38
797.977	403.38
803.33	409.38
808.677	410.38
814.019	405.38
819.355	413.38
824.686	417.38
830.011	412.38
835.33	414.38
840.644	412.38
845.952	415.38
851.255	421.38
856.552	416.38
861.844	421.38
867.13	419.38
872.41	434.38
877.686	429.38
882.955	433.38
888.219	424.38
893.478	424.38
898.731	424.38
903.979	417.38
909.221	427.38
914.458	423.38
919.69	431.38
924.916	433.38
930.136	442.38
935.351	454.38
940.561	454.38
945.766	462.38
950.965	467.38
956.158	461.38
961.347	458.38
966.529	451.38
971.707	458.38
976.879	453.38
982.046	445.38
987.208	441.38
992.364	456.38
997.515	444.38
1002.66	455.38
1007.801	460.38
1012.936	453.38
1018.066	462.38
1023.19	471.38
1028.309	470.38
1033.423	465.38
1038.532	473.38
1043.636	463.38
1048.734	455.38
1053.827	450.38
1058.915	448.38
1063.998	445.38
1069.075	452.38
1074.147	447.38
1079.214	455.38
1084.276	463.38
1089.333	454.38
1094.385	465.38
1099.431	473.38
1104.472	469.38
1109.509	476.38
1114.54	472.38
1119.565	471.38
1124.586	465.38
1129.602	458.38
1134.613	442.38
1139.618	458.38
1144.619	447.38
1149.614	451.38
1154.604	456.38
1159.589	466.38
1164.57	465.38
1169.545	464.38
1174.515	466.38
1179.48	469.38
1184.44	452.38
1189.395	461.38
1194.345	457.38
1199.29	442.38
1204.23	449.38
1209.165	467.38
1214.095	458.38
1219.021	461.38
1223.941	471.38
1228.856	473.38
1233.766	460.38
1238.672	469.38
1243.572	481.38
1248.467	470.38
1253.358	469.38
1258.244	461.38
1263.124	461.38
1268	457.38
1272.871	446.38
1277.737	440.38
1282.599	447.38
1287.455	445.38
1292.306	451.38
1297.153	445.38
1301.995	454.38
1306.832	465.38
1311.664	460.38
1316.491	468.38
1321.314	464.38
1326.132	468.38
1330.945	464.38
1335.753	466.38
1340.556	460.38
1345.354	458.38
1350.148	460.38
1354.937	446.38
1359.722	436.38
1364.501	437.38
1369.276	427.38
1374.046	420.38
1378.811	412.38
1383.572	407.38
1388.327	406.38
1393.079	404.38
1397.825	407.38
1402.567	415.38
1407.304	412.38
1412.036	411.38
1416.764	413.38
1421.487	419.38
1426.205	422.38
1430.919	431.38
1435.628	435.38
1440.333	441.38
1445.032	443.38
1449.727	446.38
1454.418	471.38
1459.104	452.38
1463.785	460.38
1468.462	447.38
1473.134	457.38
1477.802	454.38
1482.465	459.38
1487.123	460.38
1491.777	463.38
1496.426	457.38
1501.071	458.38
1505.711	470.38
1510.347	472.38
1514.978	466.38
1519.604	466.38
1524.226	456.38
1528.844	459.38
1533.457	448.38
1538.065	447.38
1542.669	439.38
1547.269	439.38
1551.864	440.38
1556.454	435.38
1561.041	437.38
1565.622	439.38
1570.199	441.38
1574.772	452.38
1579.34	457.38
1583.904	452.38
1588.464	458.38
1593.019	461.38
1597.569	454.38
1602.115	459.38
1606.657	459.38
1611.195	457.38
1615.728	449.38
1620.256	459.38
1624.78	446.38
1629.3	452.38
1633.816	454.38
1638.327	462.38
1642.834	470.38
1647.336	469.38
1651.834	483.38
1656.328	493.38
1660.817	497.38
1665.302	484.38
1669.783	498.38
1674.259	503.38
1678.732	508.38
1683.199	509.38
1687.663	509.38
1692.122	504.38
1696.577	497.38
1701.028	492.38
1705.474	479.38
1709.917	465.38
1714.355	455.38
1718.788	457.38
1723.218	460.38
1727.643	472.38
1732.064	475.38
1736.481	469.38
1740.893	466.38
1745.301	464.38
1749.705	468.38
1754.105	453.38
1758.501	453.38
1762.893	451.38
1767.28	460.38
1771.663	451.38
1776.042	464.38
1780.417	467.38
1784.787	466.38
1789.154	470.38
1793.516	470.38
1797.874	472.38
1802.228	455.38
1806.578	443.38
1810.924	441.38
1815.266	432.38
1819.603	435.38
1823.937	433.38
1828.266	433.38
1832.591	436.38
1836.913	437.38
1841.23	449.38
1845.543	444.38
1849.852	454.38
1854.156	455.38
1858.457	460.38
1862.754	462.38
1867.047	473.38
1871.335	486.38
1875.62	488.38
1879.9	490.38
1884.177	483.38
1888.449	491.38
1892.718	489.38
1896.982	486.38
1901.243	491.38
1905.499	497.38
1909.752	487.38
1914	512.38
1918.245	497.38
1922.485	513.38
1926.722	504.38
1930.954	502.38
1935.183	500.38
1939.408	503.38
1943.628	506.38
1947.845	495.38
1952.058	484.38
1956.267	483.38
1960.472	467.38
1964.673	460.38
1968.87	453.38
1973.063	439.38
1977.252	451.38
1981.438	446.38
1985.619	444.38
1989.797	442.38
1993.971	446.38
1998.14	446.38
2002.306	447.38
2006.469	454.38
2010.627	456.38
2014.781	455.38
2018.932	452.38
2023.078	454.38
2027.221	460.38
2031.36	452.38
2035.495	447.38
2039.627	445.38
2043.754	447.38
2047.878	453.38
2051.998	441.38
2056.114	452.38
2060.226	448.38
2064.334	460.38
2068.439	455.38
2072.54	460.38
2076.637	465.38
2080.73	461.38
2084.82	472.38
2088.906	467.38
2092.988	471.38
2097.066	470.38
2101.14	475.38
2105.211	461.38
2109.278	462.38
2113.342	460.38
2117.401	451.38
2121.457	446.38
2125.509	451.38
2129.558	444.38
2133.602	446.38
2137.643	452.38
2141.681	447.38
2145.714	448.38
2149.744	457.38
2153.77	444.38
2157.793	446.38
2161.812	442.38
2165.827	442.38
2169.838	442.38
2173.846	447.38
2177.851	441.38
2181.851	439.38
2185.848	437.38
2189.841	446.38
2193.831	437.38
2197.817	440.38
2201.799	441.38
2205.778	437.38
2209.753	438.38
2213.725	452.38
2217.693	452.38
2221.657	456.38
2225.618	458.38
2229.575	461.38
2233.529	460.38
2237.479	458.38
2241.425	458.38
2245.368	458.38
2249.307	451.38
2253.243	455.38
2257.175	455.38
2261.104	450.38
2265.029	442.38
2268.95	450.38
2272.868	452.38
2276.783	451.38
2280.694	446.38
2284.601	444.38
2288.505	448.38
2292.405	453.38
2296.302	446.38
2300.195	439.38
2304.085	443.38
2307.971	443.38
2311.854	439.38
2315.734	441.38
2319.609	430.38
2323.482	435.38
2327.351	429.38
2331.216	441.38
2335.078	438.38
2338.937	440.38
2342.792	433.38
2346.643	441.38
2350.492	448.38
2354.336	448.38
2358.178	454.38
2362.015	457.38
2365.85	471.38
2369.681	480.38
2373.508	471.38
2377.333	478.38
2381.153	489.38
2384.971	482.38
2388.785	485.38
2392.595	488.38
2396.402	490.38
2400.206	492.38
2404.007	496.38
2407.804	500.38
2411.597	501.38
2415.388	507.38
2419.174	506.38
2422.958	511.38
2426.738	512.38
2430.515	512.38
2434.289	509.38
2438.059	529.38
2441.825	521.38
2445.589	526.38
2449.349	524.38
2453.106	520.38
2456.859	523.38
2460.61	532.38
2464.356	522.38
2468.1	529.38
2471.84	526.38
2475.577	524.38
2479.311	523.38
2483.041	544.38
2486.768	545.38
2490.492	551.38
2494.213	549.38
2497.93	557.38
2501.644	557.38
2505.355	566.38
2509.062	569.38
2512.766	575.38
2516.467	562.38
2520.165	564.38
2523.859	576.38
2527.551	580.38
2531.239	570.38
2534.923	585.38
2538.605	580.38
2542.283	581.38
2545.958	576.38
2549.63	582.38
2553.299	596.38
2556.964	602.38
2560.626	593.38
2564.285	585.38
2567.941	580.38
2571.594	583.38
2575.243	590.38
2578.89	584.38
2582.533	578.38
2586.173	582.38
2589.809	580.38
2593.443	558.38
2597.073	575.38
2600.701	571.38
2604.325	563.38
2607.946	572.38
2611.564	567.38
2615.178	562.38
2618.79	566.38
2622.398	563.38
2626.004	563.38
2629.606	570.38
2633.205	567.38
2636.801	570.38
2640.394	565.38
2643.983	561.38
2647.57	561.38
2651.153	549.38
2654.734	552.38
2658.311	550.38
2661.885	559.38
2665.456	550.38
2669.025	545.38
2672.589	543.38
2676.151	552.38
2679.71	551.38
2683.266	550.38
2686.819	550.38
2690.368	546.38
2693.915	542.38
2697.458	544.38
2700.999	541.38
2704.536	536.38
2708.071	538.38
2711.602	541.38
2715.13	535.38
2718.656	545.38
2722.178	540.38
2725.697	538.38
2729.214	552.38
2732.727	546.38
2736.237	547.38
2739.744	570.38
2743.249	567.38
2746.75	555.38
2750.248	553.38
2753.743	555.38
2757.236	536.38
2760.725	530.38
2764.211	526.38
2767.695	522.38
2771.175	499.38
2774.652	499.38
2778.127	501.38
2781.598	500.38
2785.067	501.38
2788.532	509.38
2791.995	511.38
2795.455	522.38
2798.911	535.38
2802.365	545.38
2805.816	534.38
2809.264	542.38
2812.709	533.38
2816.151	535.38
2819.59	544.38
2823.026	546.38
2826.46	540.38
2829.89	552.38
2833.318	539.38
2836.742	553.38
2840.164	535.38
2843.583	545.38
2846.999	544.38
2850.412	543.38
2853.822	539.38
2857.229	551.38
2860.634	539.38
2864.035	537.38
2867.434	543.38
2870.83	537.38
2874.223	528.38
2877.613	535.38
2881	523.38
2884.385	514.38
2887.766	516.38
2891.145	519.38
2894.521	511.38
2897.894	505.38
2901.264	498.38
2904.631	496.38
2907.996	496.38
2911.358	502.38
2914.717	486.38
2918.073	483.38
2921.426	487.38
2924.777	490.38
2928.124	483.38
2931.469	484.38
2934.811	483.38
2938.15	482.38
2941.487	484.38
2944.821	488.38
2948.152	479.38
2951.48	477.38
2954.805	479.38
2958.128	475.38
2961.447	478.38
2964.765	478.38
2968.079	467.38
2971.39	470.38
2974.699	477.38
2978.005	466.38
2981.308	477.38
2984.609	471.38
2987.907	463.38
2991.202	473.38
2994.494	463.38
2997.784	465.38
3001.07	460.38
3004.355	451.38
3007.636	437.38
3010.915	437.38
3014.191	444.38
3017.464	435.38
3020.734	428.38
3024.002	426.38
3027.267	420.38
3030.53	419.38
3033.789	409.38
3037.046	417.38
3040.301	421.38
3043.552	415.38
3046.801	414.38
3050.048	419.38
3053.291	429.38
3056.532	417.38
3059.771	434.38
3063.006	433.38
3066.239	431.38
3069.469	423.38
3072.697	438.38
3075.922	434.38
3079.144	437.38
3082.364	438.38
3085.581	436.38
3088.795	441.38
3092.007	446.38
3095.216	440.38
3098.423	430.38
3101.627	433.38
3104.828	439.38
3108.026	428.38
3111.222	433.38
3114.416	431.38
3117.607	417.38
3120.795	421.38
3123.98	421.38
3127.163	424.38
3130.344	427.38
3133.521	426.38
3136.696	432.38
3139.869	418.38
3143.039	419.38
3146.206	416.38
3149.371	421.38
3152.533	408.38
3155.693	395.38
3158.85	400.38
3162.005	396.38
3165.157	388.38
3168.306	386.38
3171.453	376.38
3174.597	364.38
3177.739	364.38
3180.878	354.38
3184.014	356.38
3187.149	351.38
3190.28	351.38
3193.409	354.38
3196.536	348.38
3199.659	345.38
3202.781	344.38
3205.9	337.38
3209.016	347.38
3212.13	339.38
3215.241	329.38
3218.35	331.38
3221.456	329.38
3224.56	334.38
3227.661	325.38
3230.76	312.38
3233.856	312.38
3236.95	317.38
3240.041	305.38
3243.13	311.38
3246.216	304.38
3249.3	298.38
3252.382	303.38
3255.46	298.38
3258.537	300.38
3261.611	293.38
3264.682	296.38
3267.751	288.38
3270.818	287.38
3273.882	286.38
3276.943	277.38
3280.002	280.38
3283.059	281.38
3286.113	266.38
3289.165	270.38
3292.214	273.38
3295.261	258.38
3298.306	257.38
3301.348	257.38
3304.387	254.38
3307.425	249.38
3310.459	252.38
3313.492	249.38
3316.521	252.38
3319.549	246.38
3322.574	249.38
3325.597	247.38
3328.617	243.38
3331.635	234.38
3334.65	238.38
3337.663	241.38
3340.674	250.38
3343.682	242.38
3346.688	245.38
3349.691	237.38
3352.692	240.38
3355.691	241.38
3358.687	236.38
3361.681	233.38
3364.673	239.38
3367.662	238.38
3370.649	234.38
3373.633	230.38
3376.615	222.38
3379.595	226.38
3382.572	226.38
3385.547	226.38
3388.52	224.38
3391.49	223.38
3394.458	215.38
3397.424	210.38
3400.387	215.38
3403.348	205.38
3406.307	213.38
3409.263	208.38
3412.217	210.38
3415.168	207.38
3418.118	210.38
3421.065	204.38
3424.009	199.38
3426.951	205.38
3429.891	202.38
3432.829	190.38
3435.764	193.38
3438.697	187.38
3441.628	189.38
3444.557	184.38
3447.483	183.38
3450.407	172.38
3453.328	176.38
3456.247	166.38
3459.164	168.38
3462.079	163.38
3464.991	161.38
3467.902	160.38
3470.809	160.38
3473.715	154.38
3476.618	157.38
3479.519	151.38
3482.418	145.38
3485.315	148.38
3488.209	146.38
3491.101	153.38
3493.99	139.38
3496.878	139.38
3499.763	142.38
3502.646	142.38
3505.527	137.38
3508.405	129.38
3511.281	133.38
3514.155	128.38
3517.027	132.38
3519.897	123.38
3522.764	122.38
3525.629	120.38
3528.492	116.38
3531.352	115.38
3534.211	111.38
3537.067	108.38
3539.921	104.38
3542.773	101.38
3545.622	99.38
3548.469	97.38
3551.315	95.38
3554.157	95.38
3556.998	93.38
3559.837	92.38
3562.673	92.38
3565.507	92.38
3568.339	95.38
3571.169	92.38
3573.996	89.38
3576.822	91.38
3579.645	81.38
3582.466	81.38
3585.285	83.38
3588.101	81.38
3590.916	81.38
3593.728	80.38
3596.538	75.38
3599.346	72.38
3602.152	76.38
3604.956	70.38
3607.757	70.38
3610.556	75.38
3613.354	69.38
3616.149	69.38
3618.942	61.38
3621.732	66.38
3624.521	64.38
3627.307	61.38
3630.092	63.38
3632.874	63.38
3635.654	63.38
3638.432	65.38
3641.208	62.38
3643.982	61.38
3646.753	60.38
3649.523	64.38
3652.29	58.38
3655.055	62.38
3657.818	61.38
3660.579	57.38
3663.338	51.38
3666.095	53.38
3668.849	57.38
3671.602	51.38
3674.352	53.38
3677.101	53.38
3679.847	51.38
3682.591	51.38
3685.333	52.38
3688.073	47.38
3690.811	47.38
3693.547	49.38
3696.281	51.38
3699.013	49.38
3701.742	54.38
3704.47	53.38
3707.195	52.38
3709.919	51.38
3712.64	45.38
3715.359	52.38
3718.076	49.38
3720.792	50.38
3723.505	45.38
3726.216	47.38
3728.925	46.38
3731.632	47.38
3734.336	45.38
3737.039	51.38
3739.74	47.38
3742.439	44.38
3745.136	49.38
3747.83	47.38
3750.523	43.38
3753.213	47.38
3755.902	48.38
3758.589	47.38
3761.273	49.38
3763.956	44.38
3766.636	45.38
3769.315	41.38
3771.991	44.38
3774.665	42.38
3777.338	42.38
3780.008	43.38
3782.677	42.38
3785.343	37.38
3788.007	36.38
3790.67	36.38
3793.33	39.38
3795.989	34.38
3798.645	31.38
3801.299	38.38
3803.952	32.38
3806.602	36.38
3809.251	35.38
3811.897	36.38
3814.542	29.38
3817.184	31.38
3819.825	28.38
3822.463	34.38
3825.1	34.38
3827.735	32.38
3830.367	24.38
3832.998	24.38
3835.627	25.38
3838.253	24.38
3840.878	21.38
3843.501	22.38
3846.122	21.38
3848.741	20.38
3851.358	18.38
3853.973	16.38
3856.586	21.38
3859.197	21.38
3861.806	19.38
3864.414	17.38
3867.019	17.38
3869.622	16.38
3872.224	14.38
3874.823	20.38
3877.421	21.38
3880.016	20.38
3882.61	18.38
3885.202	18.38
3887.792	21.38
3890.38	17.38
3892.966	13.38
3895.55	9.38
3898.132	11.38
3900.713	8.38
3903.291	7.38
3905.868	12.38
3908.442	9.38
3911.015	10.38
3913.586	8.38
3916.155	7.38
3918.722	6.38
3921.287	8.38
3923.85	8.38
3926.411	4.38
3928.971	6.38
3931.528	7.38
3934.084	6.38
3936.638	4.38
3939.19	4.38
3941.74	5.38
3944.288	3.38
3946.834	4.38
3949.378	4.38
3951.921	2.38
3954.462	0.38
3957	0.38
3959.537	-0.62
3962.072	6.38
3964.606	-1.62
3967.137	1.38
3969.667	-1.62
3972.194	-0.62
3974.72	2.38
3977.244	-0.62
3979.766	-1.62
3982.286	-1.62
3984.805	-0.62
3987.321	-0.62
3989.836	-0.62
3992.349	-5.62
3994.86	0.38
3997.369	-1.62
3999.877	-3.62
4002.382	-0.62
4004.886	0.38
4007.388	-6.62
4009.888	-0.62
4012.386	-4.62
4014.883	-4.62
4017.377	-6.62
4019.87	0.38
4022.361	-1.62
4024.85	-3.62
4027.338	-5.62
4029.823	-2.62
4032.307	-4.62
4034.789	-3.62
4037.269	-6.62
4039.747	-2.62
4042.224	-2.62
4044.699	-1.62
4047.172	-1.62
4049.643	-0.62
4052.112	-3.62
4054.58	-2.62
4057.046	-4.62
4059.51	-5.62
4061.972	-5.62
4064.432	-6.62
4066.891	-4.62
4069.348	-0.62
4071.803	-2.62
4074.256	-7.62
4076.708	-4.62
4079.158	-5.62
4081.606	-6.62
4084.052	-2.62
4086.497	-3.62
4088.939	-6.62
4091.38	-1.62
4093.819	-7.62
4096.257	-9.62
4098.693	-4.62
4101.127	-9.62
4103.559	-7.62
4105.989	-1.62
4108.418	4.38
4110.845	-2.62
4113.27	-1.62
4115.694	-0.62
4118.115	5.38
4120.535	-4.62
4122.954	-6.62
4125.37	-6.62
4127.785	-5.62
4130.198	-5.62
4132.609	-8.62
4135.019	-11.62
4137.427	-10.62
4139.833	-9.62
4142.237	-10.62
