Data from 171017-reg-ec1_RamanShift_1.txt Node
Date: Tue Oct 17 12:09:16 IDT 2017
User: aro
Spectrometer: QEPB0276
Trigger mode: 0
Integration Time (sec): 5.000000E0
Scans to average: 1
Electric dark correction enabled: true
Nonlinearity correction enabled: false
Boxcar width: 0
XAxis mode: Raman Shifts
Number of Pixels in Spectrum: 1044
>>>>>Begin Spectral Data<<<<<
160.701	3.5
166.742	5.5
172.777	11.5
178.805	32.5
184.826	92.5
190.841	192.5
196.849	350.5
202.85	464.5
208.845	533.5
214.833	537.5
220.815	553.5
226.789	573.5
232.758	579.5
238.719	590.5
244.674	607.5
250.623	612.5
256.565	602.5
262.5	613.5
268.429	591.5
274.351	613.5
280.267	606.5
286.176	622.5
292.079	629.5
297.975	617.5
303.865	637.5
309.748	637.5
315.625	643.5
321.495	630.5
327.359	629.5
333.217	620.5
339.068	615.5
344.912	613.5
350.751	608.5
356.583	615.5
362.408	604.5
368.227	608.5
374.04	598.5
379.847	616.5
385.647	611.5
391.44	598.5
397.228	606.5
403.009	607.5
408.784	603.5
414.553	624.5
420.315	653.5
426.071	652.5
431.821	630.5
437.565	598.5
443.302	593.5
449.033	582.5
454.758	575.5
460.477	564.5
466.189	563.5
471.896	557.5
477.596	541.5
483.29	541.5
488.978	535.5
494.66	518.5
500.335	499.5
506.005	486.5
511.668	491.5
517.325	513.5
522.977	554.5
528.622	595.5
534.261	605.5
539.894	601.5
545.521	592.5
551.141	578.5
556.756	583.5
562.365	577.5
567.968	576.5
573.565	570.5
579.155	567.5
584.74	567.5
590.319	570.5
595.892	538.5
601.459	557.5
607.02	554.5
612.575	542.5
618.124	548.5
623.667	552.5
629.204	556.5
634.735	559.5
640.261	557.5
645.781	569.5
651.294	590.5
656.802	576.5
662.304	591.5
667.8	576.5
673.29	587.5
678.775	590.5
684.254	572.5
689.726	581.5
695.193	588.5
700.655	585.5
706.11	585.5
711.56	585.5
717.004	580.5
722.442	592.5
727.874	585.5
733.301	591.5
738.722	594.5
744.137	587.5
749.547	614.5
754.951	606.5
760.349	614.5
765.741	620.5
771.128	629.5
776.509	614.5
781.885	627.5
787.254	633.5
792.618	646.5
797.977	638.5
803.33	644.5
808.677	630.5
814.019	640.5
819.355	645.5
824.686	636.5
830.011	647.5
835.33	640.5
840.644	657.5
845.952	660.5
851.255	659.5
856.552	667.5
861.844	676.5
867.13	683.5
872.41	691.5
877.686	691.5
882.955	680.5
888.219	683.5
893.478	691.5
898.731	675.5
903.979	672.5
909.221	680.5
914.458	688.5
919.69	705.5
924.916	711.5
930.136	715.5
935.351	724.5
940.561	739.5
945.766	740.5
950.965	745.5
956.158	749.5
961.347	735.5
966.529	731.5
971.707	729.5
976.879	717.5
982.046	714.5
987.208	706.5
992.364	705.5
997.515	714.5
1002.66	731.5
1007.801	711.5
1012.936	734.5
1018.066	740.5
1023.19	740.5
1028.309	738.5
1033.423	737.5
1038.532	731.5
1043.636	732.5
1048.734	718.5
1053.827	720.5
1058.915	715.5
1063.998	702.5
1069.075	705.5
1074.147	707.5
1079.214	721.5
1084.276	706.5
1089.333	727.5
1094.385	729.5
1099.431	722.5
1104.472	729.5
1109.509	726.5
1114.54	726.5
1119.565	708.5
1124.586	711.5
1129.602	692.5
1134.613	685.5
1139.618	681.5
1144.619	688.5
1149.614	687.5
1154.604	688.5
1159.589	699.5
1164.57	687.5
1169.545	697.5
1174.515	689.5
1179.48	688.5
1184.44	687.5
1189.395	677.5
1194.345	681.5
1199.29	683.5
1204.23	677.5
1209.165	681.5
1214.095	683.5
1219.021	683.5
1223.941	681.5
1228.856	697.5
1233.766	685.5
1238.672	693.5
1243.572	704.5
1248.467	691.5
1253.358	695.5
1258.244	680.5
1263.124	671.5
1268	659.5
1272.871	659.5
1277.737	660.5
1282.599	660.5
1287.455	648.5
1292.306	658.5
1297.153	664.5
1301.995	666.5
1306.832	674.5
1311.664	680.5
1316.491	677.5
1321.314	686.5
1326.132	680.5
1330.945	681.5
1335.753	693.5
1340.556	684.5
1345.354	678.5
1350.148	669.5
1354.937	677.5
1359.722	663.5
1364.501	651.5
1369.276	632.5
1374.046	632.5
1378.811	610.5
1383.572	602.5
1388.327	593.5
1393.079	594.5
1397.825	598.5
1402.567	601.5
1407.304	618.5
1412.036	619.5
1416.764	630.5
1421.487	632.5
1426.205	638.5
1430.919	652.5
1435.628	663.5
1440.333	673.5
1445.032	688.5
1449.727	687.5
1454.418	703.5
1459.104	696.5
1463.785	720.5
1468.462	710.5
1473.134	703.5
1477.802	701.5
1482.465	702.5
1487.123	710.5
1491.777	708.5
1496.426	714.5
1501.071	714.5
1505.711	718.5
1510.347	717.5
1514.978	717.5
1519.604	713.5
1524.226	693.5
1528.844	688.5
1533.457	681.5
1538.065	681.5
1542.669	674.5
1547.269	667.5
1551.864	666.5
1556.454	658.5
1561.041	677.5
1565.622	683.5
1570.199	677.5
1574.772	699.5
1579.34	710.5
1583.904	722.5
1588.464	716.5
1593.019	710.5
1597.569	722.5
1602.115	722.5
1606.657	711.5
1611.195	717.5
1615.728	713.5
1620.256	707.5
1624.78	704.5
1629.3	712.5
1633.816	717.5
1638.327	727.5
1642.834	738.5
1647.336	735.5
1651.834	760.5
1656.328	757.5
1660.817	774.5
1665.302	784.5
1669.783	786.5
1674.259	779.5
1678.732	780.5
1683.199	781.5
1687.663	791.5
1692.122	781.5
1696.577	765.5
1701.028	739.5
1705.474	721.5
1709.917	696.5
1714.355	687.5
1718.788	684.5
1723.218	694.5
1727.643	709.5
1732.064	722.5
1736.481	716.5
1740.893	717.5
1745.301	698.5
1749.705	690.5
1754.105	690.5
1758.501	679.5
1762.893	680.5
1767.28	679.5
1771.663	688.5
1776.042	684.5
1780.417	703.5
1784.787	713.5
1789.154	704.5
1793.516	702.5
1797.874	696.5
1802.228	683.5
1806.578	645.5
1810.924	648.5
1815.266	636.5
1819.603	626.5
1823.937	625.5
1828.266	638.5
1832.591	636.5
1836.913	637.5
1841.23	657.5
1845.543	663.5
1849.852	670.5
1854.156	676.5
1858.457	678.5
1862.754	696.5
1867.047	691.5
1871.335	698.5
1875.62	704.5
1879.9	717.5
1884.177	722.5
1888.449	710.5
1892.718	714.5
1896.982	708.5
1901.243	713.5
1905.499	721.5
1909.752	713.5
1914	709.5
1918.245	711.5
1922.485	720.5
1926.722	711.5
1930.954	721.5
1935.183	718.5
1939.408	716.5
1943.628	691.5
1947.845	693.5
1952.058	683.5
1956.267	654.5
1960.472	642.5
1964.673	631.5
1968.87	609.5
1973.063	617.5
1977.252	604.5
1981.438	602.5
1985.619	603.5
1989.797	602.5
1993.971	599.5
1998.14	616.5
2002.306	609.5
2006.469	624.5
2010.627	625.5
2014.781	614.5
2018.932	630.5
2023.078	626.5
2027.221	616.5
2031.36	612.5
2035.495	614.5
2039.627	598.5
2043.754	603.5
2047.878	601.5
2051.998	615.5
2056.114	614.5
2060.226	621.5
2064.334	624.5
2068.439	626.5
2072.54	635.5
2076.637	635.5
2080.73	654.5
2084.82	637.5
2088.906	651.5
2092.988	641.5
2097.066	638.5
2101.14	621.5
2105.211	625.5
2109.278	622.5
2113.342	605.5
2117.401	596.5
2121.457	589.5
2125.509	592.5
2129.558	596.5
2133.602	593.5
2137.643	601.5
2141.681	601.5
2145.714	592.5
2149.744	597.5
2153.77	597.5
2157.793	610.5
2161.812	594.5
2165.827	599.5
2169.838	586.5
2173.846	585.5
2177.851	596.5
2181.851	582.5
2185.848	587.5
2189.841	587.5
2193.831	593.5
2197.817	584.5
2201.799	595.5
2205.778	600.5
2209.753	607.5
2213.725	598.5
2217.693	610.5
2221.657	607.5
2225.618	618.5
2229.575	616.5
2233.529	620.5
2237.479	623.5
2241.425	610.5
2245.368	597.5
2249.307	608.5
2253.243	607.5
2257.175	592.5
2261.104	602.5
2265.029	598.5
2268.95	595.5
2272.868	602.5
2276.783	587.5
2280.694	586.5
2284.601	595.5
2288.505	589.5
2292.405	585.5
2296.302	590.5
2300.195	582.5
2304.085	585.5
2307.971	580.5
2311.854	583.5
2315.734	583.5
2319.609	577.5
2323.482	572.5
2327.351	570.5
2331.216	572.5
2335.078	575.5
2338.937	590.5
2342.792	589.5
2346.643	587.5
2350.492	599.5
2354.336	601.5
2358.178	609.5
2362.015	614.5
2365.85	635.5
2369.681	630.5
2373.508	641.5
2377.333	643.5
2381.153	647.5
2384.971	648.5
2388.785	649.5
2392.595	652.5
2396.402	666.5
2400.206	652.5
2404.007	667.5
2407.804	664.5
2411.597	668.5
2415.388	670.5
2419.174	669.5
2422.958	686.5
2426.738	676.5
2430.515	682.5
2434.289	683.5
2438.059	695.5
2441.825	693.5
2445.589	692.5
2449.349	698.5
2453.106	684.5
2456.859	695.5
2460.61	684.5
2464.356	690.5
2468.1	692.5
2471.84	674.5
2475.577	691.5
2479.311	687.5
2483.041	698.5
2486.768	704.5
2490.492	690.5
2494.213	709.5
2497.93	708.5
2501.644	712.5
2505.355	722.5
2509.062	736.5
2512.766	718.5
2516.467	733.5
2520.165	730.5
2523.859	736.5
2527.551	734.5
2531.239	715.5
2534.923	727.5
2538.605	726.5
2542.283	726.5
2545.958	734.5
2549.63	726.5
2553.299	739.5
2556.964	738.5
2560.626	733.5
2564.285	737.5
2567.941	730.5
2571.594	722.5
2575.243	725.5
2578.89	719.5
2582.533	721.5
2586.173	708.5
2589.809	710.5
2593.443	705.5
2597.073	698.5
2600.701	695.5
2604.325	691.5
2607.946	695.5
2611.564	686.5
2615.178	698.5
2618.79	691.5
2622.398	686.5
2626.004	688.5
2629.606	691.5
2633.205	688.5
2636.801	678.5
2640.394	674.5
2643.983	683.5
2647.57	674.5
2651.153	678.5
2654.734	669.5
2658.311	668.5
2661.885	651.5
2665.456	655.5
2669.025	661.5
2672.589	657.5
2676.151	660.5
2679.71	653.5
2683.266	669.5
2686.819	653.5
2690.368	646.5
2693.915	647.5
2697.458	645.5
2700.999	641.5
2704.536	638.5
2708.071	647.5
2711.602	638.5
2715.13	639.5
2718.656	633.5
2722.178	646.5
2725.697	639.5
2729.214	637.5
2732.727	651.5
2736.237	651.5
2739.744	660.5
2743.249	659.5
2746.75	655.5
2750.248	637.5
2753.743	631.5
2757.236	629.5
2760.725	613.5
2764.211	610.5
2767.695	598.5
2771.175	588.5
2774.652	581.5
2778.127	585.5
2781.598	575.5
2785.067	583.5
2788.532	591.5
2791.995	601.5
2795.455	599.5
2798.911	614.5
2802.365	616.5
2805.816	622.5
2809.264	618.5
2812.709	632.5
2816.151	625.5
2819.59	634.5
2823.026	622.5
2826.46	618.5
2829.89	627.5
2833.318	632.5
2836.742	624.5
2840.164	620.5
2843.583	620.5
2846.999	622.5
2850.412	623.5
2853.822	620.5
2857.229	619.5
2860.634	616.5
2864.035	621.5
2867.434	610.5
2870.83	610.5
2874.223	603.5
2877.613	602.5
2881	589.5
2884.385	580.5
2887.766	586.5
2891.145	586.5
2894.521	570.5
2897.894	571.5
2901.264	557.5
2904.631	552.5
2907.996	559.5
2911.358	567.5
2914.717	549.5
2918.073	541.5
2921.426	543.5
2924.777	555.5
2928.124	544.5
2931.469	540.5
2934.811	547.5
2938.15	552.5
2941.487	549.5
2944.821	542.5
2948.152	550.5
2951.48	538.5
2954.805	537.5
2958.128	534.5
2961.447	536.5
2964.765	540.5
2968.079	539.5
2971.39	525.5
2974.699	528.5
2978.005	533.5
2981.308	541.5
2984.609	528.5
2987.907	528.5
2991.202	532.5
2994.494	518.5
2997.784	517.5
3001.07	504.5
3004.355	513.5
3007.636	487.5
3010.915	498.5
3014.191	481.5
3017.464	474.5
3020.734	477.5
3024.002	471.5
3027.267	457.5
3030.53	467.5
3033.789	463.5
3037.046	450.5
3040.301	458.5
3043.552	454.5
3046.801	458.5
3050.048	462.5
3053.291	476.5
3056.532	459.5
3059.771	466.5
3063.006	468.5
3066.239	469.5
3069.469	472.5
3072.697	478.5
3075.922	479.5
3079.144	473.5
3082.364	478.5
3085.581	468.5
3088.795	473.5
3092.007	472.5
3095.216	480.5
3098.423	473.5
3101.627	464.5
3104.828	454.5
3108.026	464.5
3111.222	460.5
3114.416	466.5
3117.607	462.5
3120.795	464.5
3123.98	461.5
3127.163	460.5
3130.344	460.5
3133.521	450.5
3136.696	457.5
3139.869	454.5
3143.039	449.5
3146.206	439.5
3149.371	437.5
3152.533	430.5
3155.693	428.5
3158.85	423.5
3162.005	416.5
3165.157	417.5
3168.306	401.5
3171.453	403.5
3174.597	399.5
3177.739	385.5
3180.878	387.5
3184.014	383.5
3187.149	383.5
3190.28	384.5
3193.409	370.5
3196.536	367.5
3199.659	366.5
3202.781	365.5
3205.9	363.5
3209.016	360.5
3212.13	354.5
3215.241	346.5
3218.35	348.5
3221.456	349.5
3224.56	335.5
3227.661	331.5
3230.76	327.5
3233.856	329.5
3236.95	318.5
3240.041	324.5
3243.13	318.5
3246.216	322.5
3249.3	312.5
3252.382	319.5
3255.46	308.5
3258.537	310.5
3261.611	302.5
3264.682	297.5
3267.751	303.5
3270.818	299.5
3273.882	296.5
3276.943	289.5
3280.002	286.5
3283.059	294.5
3286.113	280.5
3289.165	278.5
3292.214	278.5
3295.261	276.5
3298.306	263.5
3301.348	274.5
3304.387	267.5
3307.425	264.5
3310.459	260.5
3313.492	256.5
3316.521	257.5
3319.549	256.5
3322.574	247.5
3325.597	257.5
3328.617	258.5
3331.635	252.5
3334.65	247.5
3337.663	252.5
3340.674	253.5
3343.682	255.5
3346.688	252.5
3349.691	248.5
3352.692	257.5
3355.691	254.5
3358.687	254.5
3361.681	242.5
3364.673	246.5
3367.662	250.5
3370.649	237.5
3373.633	243.5
3376.615	236.5
3379.595	232.5
3382.572	233.5
3385.547	234.5
3388.52	235.5
3391.49	232.5
3394.458	223.5
3397.424	223.5
3400.387	221.5
3403.348	215.5
3406.307	210.5
3409.263	212.5
3412.217	213.5
3415.168	217.5
3418.118	214.5
3421.065	213.5
3424.009	207.5
3426.951	206.5
3429.891	208.5
3432.829	207.5
3435.764	206.5
3438.697	197.5
3441.628	194.5
3444.557	198.5
3447.483	194.5
3450.407	185.5
3453.328	187.5
3456.247	179.5
3459.164	176.5
3462.079	175.5
3464.991	176.5
3467.902	160.5
3470.809	166.5
3473.715	168.5
3476.618	162.5
3479.519	157.5
3482.418	154.5
3485.315	153.5
3488.209	147.5
3491.101	153.5
3493.99	151.5
3496.878	147.5
3499.763	142.5
3502.646	142.5
3505.527	142.5
3508.405	132.5
3511.281	137.5
3514.155	137.5
3517.027	139.5
3519.897	128.5
3522.764	128.5
3525.629	122.5
3528.492	116.5
3531.352	116.5
3534.211	113.5
3537.067	111.5
3539.921	106.5
3542.773	108.5
3545.622	106.5
3548.469	101.5
3551.315	105.5
3554.157	100.5
3556.998	99.5
3559.837	101.5
3562.673	97.5
3565.507	99.5
3568.339	98.5
3571.169	95.5
3573.996	93.5
3576.822	93.5
3579.645	89.5
3582.466	82.5
3585.285	89.5
3588.101	87.5
3590.916	84.5
3593.728	84.5
3596.538	84.5
3599.346	80.5
3602.152	78.5
3604.956	75.5
3607.757	75.5
3610.556	77.5
3613.354	72.5
3616.149	70.5
3618.942	69.5
3621.732	71.5
3624.521	63.5
3627.307	62.5
3630.092	63.5
3632.874	65.5
3635.654	65.5
3638.432	64.5
3641.208	64.5
3643.982	60.5
3646.753	58.5
3649.523	62.5
3652.29	52.5
3655.055	57.5
3657.818	58.5
3660.579	58.5
3663.338	55.5
3666.095	55.5
3668.849	56.5
3671.602	55.5
3674.352	55.5
3677.101	51.5
3679.847	53.5
3682.591	53.5
3685.333	55.5
3688.073	49.5
3690.811	52.5
3693.547	53.5
3696.281	51.5
3699.013	53.5
3701.742	50.5
3704.47	50.5
3707.195	55.5
3709.919	56.5
3712.64	52.5
3715.359	48.5
3718.076	53.5
3720.792	47.5
3723.505	53.5
3726.216	50.5
3728.925	47.5
3731.632	46.5
3734.336	49.5
3737.039	51.5
3739.74	47.5
3742.439	42.5
3745.136	49.5
3747.83	48.5
3750.523	46.5
3753.213	48.5
3755.902	44.5
3758.589	48.5
3761.273	50.5
3763.956	47.5
3766.636	41.5
3769.315	44.5
3771.991	43.5
3774.665	43.5
3777.338	39.5
3780.008	44.5
3782.677	40.5
3785.343	38.5
3788.007	39.5
3790.67	36.5
3793.33	38.5
3795.989	33.5
3798.645	34.5
3801.299	38.5
3803.952	32.5
3806.602	32.5
3809.251	30.5
3811.897	33.5
3814.542	29.5
3817.184	32.5
3819.825	25.5
3822.463	30.5
3825.1	25.5
3827.735	27.5
3830.367	21.5
3832.998	27.5
3835.627	23.5
3838.253	24.5
3840.878	20.5
3843.501	18.5
3846.122	20.5
3848.741	22.5
3851.358	21.5
3853.973	16.5
3856.586	19.5
3859.197	16.5
3861.806	17.5
3864.414	18.5
3867.019	16.5
3869.622	15.5
3872.224	17.5
3874.823	17.5
3877.421	17.5
3880.016	16.5
3882.61	17.5
3885.202	18.5
3887.792	20.5
3890.38	16.5
3892.966	15.5
3895.55	6.5
3898.132	7.5
3900.713	9.5
3903.291	6.5
3905.868	9.5
3908.442	7.5
3911.015	9.5
3913.586	8.5
3916.155	5.5
3918.722	0.5
3921.287	5.5
3923.85	2.5
3926.411	3.5
3928.971	1.5
3931.528	3.5
3934.084	2.5
3936.638	-2.5
3939.19	0.5
3941.74	0.5
3944.288	-0.5
3946.834	2.5
3949.378	-3.5
3951.921	-2.5
3954.462	-4.5
3957	-4.5
3959.537	-3.5
3962.072	1.5
3964.606	-2.5
3967.137	-3.5
3969.667	-4.5
3972.194	-1.5
3974.72	-4.5
3977.244	-3.5
3979.766	-5.5
3982.286	-2.5
3984.805	-4.5
3987.321	-4.5
3989.836	-2.5
3992.349	-5.5
3994.86	-1.5
3997.369	-0.5
3999.877	-3.5
4002.382	-2.5
4004.886	1.5
4007.388	-2.5
4009.888	-1.5
4012.386	-3.5
4014.883	-3.5
4017.377	-3.5
4019.87	-1.5
4022.361	-3.5
4024.85	-6.5
4027.338	-5.5
4029.823	-2.5
4032.307	-2.5
4034.789	-5.5
4037.269	-7.5
4039.747	-7.5
4042.224	-1.5
4044.699	-0.5
4047.172	-4.5
4049.643	-5.5
4052.112	-6.5
4054.58	-5.5
4057.046	-9.5
4059.51	-6.5
4061.972	-7.5
4064.432	-11.5
4066.891	-7.5
4069.348	-6.5
4071.803	-6.5
4074.256	-10.5
4076.708	-9.5
4079.158	-12.5
4081.606	-10.5
4084.052	-9.5
4086.497	-9.5
4088.939	-12.5
4091.38	-9.5
4093.819	-11.5
4096.257	-10.5
4098.693	-8.5
4101.127	-9.5
4103.559	-9.5
4105.989	-0.5
4108.418	1.5
4110.845	-4.5
4113.27	-0.5
4115.694	1.5
4118.115	1.5
4120.535	-11.5
4122.954	-8.5
4125.37	-11.5
4127.785	-12.5
4130.198	-9.5
4132.609	-10.5
4135.019	-12.5
4137.427	-14.5
4139.833	-12.5
4142.237	-13.5
