Data from 171017-reg-ec10_RamanShift_5.txt Node
Date: Tue Oct 17 12:39:07 IDT 2017
User: aro
Spectrometer: QEPB0276
Trigger mode: 0
Integration Time (sec): 5.000000E0
Scans to average: 1
Electric dark correction enabled: true
Nonlinearity correction enabled: false
Boxcar width: 0
XAxis mode: Raman Shifts
Number of Pixels in Spectrum: 1044
>>>>>Begin Spectral Data<<<<<
160.701	0.75
166.742	5.75
172.777	13.75
178.805	30.75
184.826	91.75
190.841	188.75
196.849	332.75
202.85	459.75
208.845	518.75
214.833	507.75
220.815	536.75
226.789	552.75
232.758	571.75
238.719	583.75
244.674	587.75
250.623	588.75
256.565	579.75
262.5	587.75
268.429	563.75
274.351	555.75
280.267	552.75
286.176	547.75
292.079	539.75
297.975	532.75
303.865	546.75
309.748	536.75
315.625	539.75
321.495	534.75
327.359	518.75
333.217	514.75
339.068	506.75
344.912	497.75
350.751	494.75
356.583	491.75
362.408	496.75
368.227	484.75
374.04	486.75
379.847	495.75
385.647	492.75
391.44	488.75
397.228	477.75
403.009	474.75
408.784	477.75
414.553	498.75
420.315	520.75
426.071	523.75
431.821	494.75
437.565	479.75
443.302	469.75
449.033	468.75
454.758	460.75
460.477	453.75
466.189	450.75
471.896	436.75
477.596	432.75
483.29	431.75
488.978	421.75
494.66	420.75
500.335	408.75
506.005	387.75
511.668	386.75
517.325	403.75
522.977	442.75
528.622	485.75
534.261	497.75
539.894	497.75
545.521	479.75
551.141	482.75
556.756	483.75
562.365	478.75
567.968	473.75
573.565	473.75
579.155	481.75
584.74	480.75
590.319	476.75
595.892	467.75
601.459	478.75
607.02	460.75
612.575	469.75
618.124	468.75
623.667	473.75
629.204	486.75
634.735	482.75
640.261	493.75
645.781	508.75
651.294	515.75
656.802	513.75
662.304	515.75
667.8	512.75
673.29	510.75
678.775	517.75
684.254	514.75
689.726	523.75
695.193	515.75
700.655	516.75
706.11	518.75
711.56	524.75
717.004	530.75
722.442	530.75
727.874	535.75
733.301	546.75
738.722	542.75
744.137	551.75
749.547	558.75
754.951	563.75
760.349	568.75
765.741	568.75
771.128	578.75
776.509	573.75
781.885	588.75
787.254	585.75
792.618	588.75
797.977	593.75
803.33	595.75
808.677	593.75
814.019	593.75
819.355	599.75
824.686	588.75
830.011	578.75
835.33	600.75
840.644	598.75
845.952	594.75
851.255	605.75
856.552	610.75
861.844	604.75
867.13	605.75
872.41	605.75
877.686	608.75
882.955	605.75
888.219	606.75
893.478	620.75
898.731	610.75
903.979	595.75
909.221	596.75
914.458	593.75
919.69	611.75
924.916	609.75
930.136	608.75
935.351	621.75
940.561	633.75
945.766	628.75
950.965	630.75
956.158	626.75
961.347	614.75
966.529	608.75
971.707	604.75
976.879	591.75
982.046	584.75
987.208	584.75
992.364	581.75
997.515	578.75
1002.66	576.75
1007.801	577.75
1012.936	589.75
1018.066	588.75
1023.19	590.75
1028.309	584.75
1033.423	584.75
1038.532	581.75
1043.636	573.75
1048.734	565.75
1053.827	555.75
1058.915	557.75
1063.998	554.75
1069.075	550.75
1074.147	542.75
1079.214	541.75
1084.276	544.75
1089.333	548.75
1094.385	552.75
1099.431	548.75
1104.472	546.75
1109.509	541.75
1114.54	535.75
1119.565	531.75
1124.586	540.75
1129.602	515.75
1134.613	513.75
1139.618	509.75
1144.619	512.75
1149.614	510.75
1154.604	512.75
1159.589	509.75
1164.57	511.75
1169.545	514.75
1174.515	518.75
1179.48	508.75
1184.44	508.75
1189.395	508.75
1194.345	505.75
1199.29	507.75
1204.23	506.75
1209.165	500.75
1214.095	511.75
1219.021	519.75
1223.941	515.75
1228.856	525.75
1233.766	523.75
1238.672	530.75
1243.572	528.75
1248.467	520.75
1253.358	521.75
1258.244	521.75
1263.124	520.75
1268	508.75
1272.871	503.75
1277.737	500.75
1282.599	498.75
1287.455	509.75
1292.306	509.75
1297.153	512.75
1301.995	528.75
1306.832	529.75
1311.664	538.75
1316.491	536.75
1321.314	554.75
1326.132	543.75
1330.945	555.75
1335.753	559.75
1340.556	566.75
1345.354	561.75
1350.148	563.75
1354.937	554.75
1359.722	543.75
1364.501	530.75
1369.276	531.75
1374.046	523.75
1378.811	509.75
1383.572	504.75
1388.327	509.75
1393.079	505.75
1397.825	530.75
1402.567	529.75
1407.304	539.75
1412.036	542.75
1416.764	545.75
1421.487	556.75
1426.205	559.75
1430.919	569.75
1435.628	573.75
1440.333	589.75
1445.032	600.75
1449.727	615.75
1454.418	628.75
1459.104	611.75
1463.785	630.75
1468.462	629.75
1473.134	628.75
1477.802	647.75
1482.465	632.75
1487.123	635.75
1491.777	639.75
1496.426	657.75
1501.071	655.75
1505.711	653.75
1510.347	647.75
1514.978	644.75
1519.604	657.75
1524.226	643.75
1528.844	643.75
1533.457	630.75
1538.065	621.75
1542.669	622.75
1547.269	611.75
1551.864	626.75
1556.454	620.75
1561.041	625.75
1565.622	645.75
1570.199	636.75
1574.772	643.75
1579.34	653.75
1583.904	658.75
1588.464	662.75
1593.019	653.75
1597.569	668.75
1602.115	668.75
1606.657	659.75
1611.195	653.75
1615.728	655.75
1620.256	646.75
1624.78	655.75
1629.3	662.75
1633.816	665.75
1638.327	668.75
1642.834	680.75
1647.336	676.75
1651.834	698.75
1656.328	697.75
1660.817	714.75
1665.302	703.75
1669.783	702.75
1674.259	707.75
1678.732	721.75
1683.199	717.75
1687.663	718.75
1692.122	722.75
1696.577	698.75
1701.028	679.75
1705.474	661.75
1709.917	633.75
1714.355	619.75
1718.788	624.75
1723.218	623.75
1727.643	630.75
1732.064	637.75
1736.481	642.75
1740.893	640.75
1745.301	619.75
1749.705	614.75
1754.105	611.75
1758.501	600.75
1762.893	593.75
1767.28	601.75
1771.663	588.75
1776.042	602.75
1780.417	616.75
1784.787	612.75
1789.154	613.75
1793.516	619.75
1797.874	611.75
1802.228	601.75
1806.578	579.75
1810.924	557.75
1815.266	540.75
1819.603	528.75
1823.937	536.75
1828.266	528.75
1832.591	547.75
1836.913	535.75
1841.23	539.75
1845.543	549.75
1849.852	545.75
1854.156	558.75
1858.457	557.75
1862.754	564.75
1867.047	567.75
1871.335	574.75
1875.62	562.75
1879.9	581.75
1884.177	573.75
1888.449	588.75
1892.718	580.75
1896.982	582.75
1901.243	577.75
1905.499	587.75
1909.752	582.75
1914	584.75
1918.245	574.75
1922.485	586.75
1926.722	584.75
1930.954	591.75
1935.183	584.75
1939.408	572.75
1943.628	579.75
1947.845	556.75
1952.058	552.75
1956.267	536.75
1960.472	524.75
1964.673	527.75
1968.87	511.75
1973.063	507.75
1977.252	493.75
1981.438	494.75
1985.619	487.75
1989.797	487.75
1993.971	492.75
1998.14	486.75
2002.306	495.75
2006.469	502.75
2010.627	499.75
2014.781	498.75
2018.932	502.75
2023.078	512.75
2027.221	505.75
2031.36	492.75
2035.495	502.75
2039.627	488.75
2043.754	497.75
2047.878	499.75
2051.998	501.75
2056.114	515.75
2060.226	509.75
2064.334	507.75
2068.439	530.75
2072.54	535.75
2076.637	542.75
2080.73	548.75
2084.82	547.75
2088.906	547.75
2092.988	543.75
2097.066	539.75
2101.14	528.75
2105.211	535.75
2109.278	522.75
2113.342	528.75
2117.401	515.75
2121.457	514.75
2125.509	512.75
2129.558	518.75
2133.602	512.75
2137.643	518.75
2141.681	526.75
2145.714	517.75
2149.744	526.75
2153.77	524.75
2157.793	523.75
2161.812	526.75
2165.827	526.75
2169.838	540.75
2173.846	523.75
2177.851	532.75
2181.851	529.75
2185.848	531.75
2189.841	530.75
2193.831	535.75
2197.817	534.75
2201.799	538.75
2205.778	539.75
2209.753	558.75
2213.725	561.75
2217.693	563.75
2221.657	567.75
2225.618	569.75
2229.575	585.75
2233.529	574.75
2237.479	582.75
2241.425	575.75
2245.368	570.75
2249.307	570.75
2253.243	578.75
2257.175	571.75
2261.104	575.75
2265.029	581.75
2268.95	578.75
2272.868	583.75
2276.783	574.75
2280.694	578.75
2284.601	574.75
2288.505	573.75
2292.405	570.75
2296.302	573.75
2300.195	570.75
2304.085	575.75
2307.971	563.75
2311.854	569.75
2315.734	569.75
2319.609	556.75
2323.482	558.75
2327.351	568.75
2331.216	568.75
2335.078	564.75
2338.937	568.75
2342.792	579.75
2346.643	578.75
2350.492	586.75
2354.336	592.75
2358.178	607.75
2362.015	606.75
2365.85	622.75
2369.681	615.75
2373.508	626.75
2377.333	627.75
2381.153	643.75
2384.971	646.75
2388.785	641.75
2392.595	651.75
2396.402	645.75
2400.206	652.75
2404.007	653.75
2407.804	651.75
2411.597	677.75
2415.388	657.75
2419.174	671.75
2422.958	668.75
2426.738	671.75
2430.515	679.75
2434.289	678.75
2438.059	669.75
2441.825	688.75
2445.589	674.75
2449.349	689.75
2453.106	690.75
2456.859	680.75
2460.61	680.75
2464.356	688.75
2468.1	687.75
2471.84	680.75
2475.577	681.75
2479.311	679.75
2483.041	691.75
2486.768	684.75
2490.492	697.75
2494.213	691.75
2497.93	692.75
2501.644	707.75
2505.355	702.75
2509.062	713.75
2512.766	705.75
2516.467	704.75
2520.165	715.75
2523.859	725.75
2527.551	705.75
2531.239	714.75
2534.923	719.75
2538.605	720.75
2542.283	723.75
2545.958	718.75
2549.63	716.75
2553.299	719.75
2556.964	727.75
2560.626	722.75
2564.285	714.75
2567.941	714.75
2571.594	714.75
2575.243	708.75
2578.89	697.75
2582.533	702.75
2586.173	708.75
2589.809	683.75
2593.443	683.75
2597.073	683.75
2600.701	678.75
2604.325	674.75
2607.946	661.75
2611.564	661.75
2615.178	659.75
2618.79	661.75
2622.398	665.75
2626.004	657.75
2629.606	644.75
2633.205	643.75
2636.801	647.75
2640.394	637.75
2643.983	643.75
2647.57	646.75
2651.153	638.75
2654.734	617.75
2658.311	621.75
2661.885	621.75
2665.456	623.75
2669.025	621.75
2672.589	619.75
2676.151	611.75
2679.71	618.75
2683.266	620.75
2686.819	608.75
2690.368	614.75
2693.915	599.75
2697.458	610.75
2700.999	597.75
2704.536	600.75
2708.071	599.75
2711.602	599.75
2715.13	598.75
2718.656	597.75
2722.178	593.75
2725.697	603.75
2729.214	607.75
2732.727	605.75
2736.237	615.75
2739.744	609.75
2743.249	617.75
2746.75	619.75
2750.248	622.75
2753.743	602.75
2757.236	595.75
2760.725	579.75
2764.211	575.75
2767.695	563.75
2771.175	554.75
2774.652	546.75
2778.127	551.75
2781.598	539.75
2785.067	548.75
2788.532	558.75
2791.995	554.75
2795.455	569.75
2798.911	569.75
2802.365	578.75
2805.816	581.75
2809.264	583.75
2812.709	585.75
2816.151	592.75
2819.59	580.75
2823.026	598.75
2826.46	588.75
2829.89	586.75
2833.318	594.75
2836.742	596.75
2840.164	592.75
2843.583	587.75
2846.999	579.75
2850.412	581.75
2853.822	594.75
2857.229	590.75
2860.634	588.75
2864.035	591.75
2867.434	579.75
2870.83	573.75
2874.223	575.75
2877.613	567.75
2881	572.75
2884.385	560.75
2887.766	553.75
2891.145	560.75
2894.521	542.75
2897.894	546.75
2901.264	545.75
2904.631	540.75
2907.996	541.75
2911.358	539.75
2914.717	528.75
2918.073	529.75
2921.426	530.75
2924.777	530.75
2928.124	519.75
2931.469	537.75
2934.811	537.75
2938.15	526.75
2941.487	537.75
2944.821	529.75
2948.152	536.75
2951.48	515.75
2954.805	525.75
2958.128	529.75
2961.447	523.75
2964.765	521.75
2968.079	520.75
2971.39	520.75
2974.699	519.75
2978.005	524.75
2981.308	520.75
2984.609	521.75
2987.907	520.75
2991.202	529.75
2994.494	518.75
2997.784	507.75
3001.07	509.75
3004.355	505.75
3007.636	492.75
3010.915	493.75
3014.191	487.75
3017.464	483.75
3020.734	478.75
3024.002	475.75
3027.267	469.75
3030.53	468.75
3033.789	469.75
3037.046	464.75
3040.301	477.75
3043.552	464.75
3046.801	477.75
3050.048	474.75
3053.291	481.75
3056.532	479.75
3059.771	475.75
3063.006	490.75
3066.239	480.75
3069.469	487.75
3072.697	490.75
3075.922	491.75
3079.144	492.75
3082.364	493.75
3085.581	495.75
3088.795	500.75
3092.007	497.75
3095.216	482.75
3098.423	488.75
3101.627	492.75
3104.828	493.75
3108.026	476.75
3111.222	497.75
3114.416	479.75
3117.607	479.75
3120.795	482.75
3123.98	483.75
3127.163	482.75
3130.344	486.75
3133.521	480.75
3136.696	472.75
3139.869	480.75
3143.039	485.75
3146.206	479.75
3149.371	470.75
3152.533	462.75
3155.693	457.75
3158.85	460.75
3162.005	448.75
3165.157	453.75
3168.306	434.75
3171.453	432.75
3174.597	435.75
3177.739	416.75
3180.878	423.75
3184.014	412.75
3187.149	402.75
3190.28	403.75
3193.409	398.75
3196.536	393.75
3199.659	395.75
3202.781	392.75
3205.9	389.75
3209.016	397.75
3212.13	382.75
3215.241	380.75
3218.35	370.75
3221.456	369.75
3224.56	375.75
3227.661	365.75
3230.76	367.75
3233.856	358.75
3236.95	358.75
3240.041	355.75
3243.13	351.75
3246.216	348.75
3249.3	346.75
3252.382	341.75
3255.46	343.75
3258.537	336.75
3261.611	340.75
3264.682	323.75
3267.751	328.75
3270.818	326.75
3273.882	327.75
3276.943	319.75
3280.002	309.75
3283.059	314.75
3286.113	312.75
3289.165	309.75
3292.214	299.75
3295.261	303.75
3298.306	289.75
3301.348	291.75
3304.387	285.75
3307.425	291.75
3310.459	274.75
3313.492	283.75
3316.521	284.75
3319.549	282.75
3322.574	277.75
3325.597	273.75
3328.617	276.75
3331.635	278.75
3334.65	276.75
3337.663	271.75
3340.674	273.75
3343.682	277.75
3346.688	272.75
3349.691	282.75
3352.692	275.75
3355.691	271.75
3358.687	268.75
3361.681	269.75
3364.673	270.75
3367.662	264.75
3370.649	264.75
3373.633	257.75
3376.615	248.75
3379.595	250.75
3382.572	254.75
3385.547	247.75
3388.52	252.75
3391.49	234.75
3394.458	241.75
3397.424	238.75
3400.387	242.75
3403.348	234.75
3406.307	228.75
3409.263	230.75
3412.217	233.75
3415.168	225.75
3418.118	231.75
3421.065	226.75
3424.009	220.75
3426.951	220.75
3429.891	218.75
3432.829	218.75
3435.764	208.75
3438.697	206.75
3441.628	205.75
3444.557	201.75
3447.483	199.75
3450.407	198.75
3453.328	192.75
3456.247	190.75
3459.164	188.75
3462.079	186.75
3464.991	187.75
3467.902	176.75
3470.809	174.75
3473.715	175.75
3476.618	172.75
3479.519	169.75
3482.418	160.75
3485.315	168.75
3488.209	162.75
3491.101	168.75
3493.99	165.75
3496.878	158.75
3499.763	150.75
3502.646	153.75
3505.527	149.75
3508.405	148.75
3511.281	142.75
3514.155	141.75
3517.027	139.75
3519.897	138.75
3522.764	134.75
3525.629	131.75
3528.492	125.75
3531.352	123.75
3534.211	118.75
3537.067	113.75
3539.921	115.75
3542.773	113.75
3545.622	109.75
3548.469	104.75
3551.315	106.75
3554.157	99.75
3556.998	98.75
3559.837	102.75
3562.673	102.75
3565.507	98.75
3568.339	105.75
3571.169	95.75
3573.996	93.75
3576.822	94.75
3579.645	92.75
3582.466	88.75
3585.285	89.75
3588.101	91.75
3590.916	85.75
3593.728	88.75
3596.538	89.75
3599.346	80.75
3602.152	80.75
3604.956	78.75
3607.757	77.75
3610.556	77.75
3613.354	77.75
3616.149	74.75
3618.942	72.75
3621.732	74.75
3624.521	66.75
3627.307	70.75
3630.092	64.75
3632.874	69.75
3635.654	66.75
3638.432	65.75
3641.208	63.75
3643.982	64.75
3646.753	60.75
3649.523	62.75
3652.29	55.75
3655.055	61.75
3657.818	58.75
3660.579	54.75
3663.338	49.75
3666.095	55.75
3668.849	59.75
3671.602	58.75
3674.352	59.75
3677.101	50.75
3679.847	55.75
3682.591	52.75
3685.333	52.75
3688.073	48.75
3690.811	55.75
3693.547	56.75
3696.281	50.75
3699.013	59.75
3701.742	58.75
3704.47	56.75
3707.195	54.75
3709.919	53.75
3712.64	58.75
3715.359	55.75
3718.076	55.75
3720.792	55.75
3723.505	55.75
3726.216	51.75
3728.925	51.75
3731.632	51.75
3734.336	53.75
3737.039	51.75
3739.74	53.75
3742.439	47.75
3745.136	50.75
3747.83	52.75
3750.523	46.75
3753.213	49.75
3755.902	48.75
3758.589	46.75
3761.273	53.75
3763.956	49.75
3766.636	46.75
3769.315	45.75
3771.991	42.75
3774.665	42.75
3777.338	42.75
3780.008	40.75
3782.677	41.75
3785.343	40.75
3788.007	37.75
3790.67	33.75
3793.33	41.75
3795.989	36.75
3798.645	35.75
3801.299	37.75
3803.952	35.75
3806.602	34.75
3809.251	36.75
3811.897	38.75
3814.542	32.75
3817.184	34.75
3819.825	31.75
3822.463	34.75
3825.1	33.75
3827.735	32.75
3830.367	29.75
3832.998	32.75
3835.627	31.75
3838.253	32.75
3840.878	27.75
3843.501	29.75
3846.122	24.75
3848.741	29.75
3851.358	24.75
3853.973	22.75
3856.586	24.75
3859.197	28.75
3861.806	21.75
3864.414	21.75
3867.019	23.75
3869.622	22.75
3872.224	16.75
3874.823	19.75
3877.421	19.75
3880.016	22.75
3882.61	19.75
3885.202	21.75
3887.792	19.75
3890.38	16.75
3892.966	12.75
3895.55	10.75
3898.132	11.75
3900.713	7.75
3903.291	7.75
3905.868	9.75
3908.442	6.75
3911.015	7.75
3913.586	7.75
3916.155	6.75
3918.722	3.75
3921.287	8.75
3923.85	7.75
3926.411	7.75
3928.971	3.75
3931.528	4.75
3934.084	5.75
3936.638	1.75
3939.19	2.75
3941.74	5.75
3944.288	4.75
3946.834	6.75
3949.378	5.75
3951.921	-0.25
3954.462	1.75
3957	-0.25
3959.537	2.75
3962.072	7.75
3964.606	0.75
3967.137	1.75
3969.667	-0.25
3972.194	2.75
3974.72	3.75
3977.244	-1.25
3979.766	-1.25
3982.286	-0.25
3984.805	0.75
3987.321	-2.25
3989.836	-0.25
3992.349	-3.25
3994.86	-2.25
3997.369	-1.25
3999.877	-2.25
4002.382	-2.25
4004.886	-0.25
4007.388	-3.25
4009.888	-3.25
4012.386	-6.25
4014.883	-7.25
4017.377	-5.25
4019.87	-0.25
4022.361	-2.25
4024.85	-5.25
4027.338	-6.25
4029.823	-3.25
4032.307	-3.25
4034.789	-3.25
4037.269	-8.25
4039.747	-4.25
4042.224	-3.25
4044.699	-4.25
4047.172	-5.25
4049.643	-3.25
4052.112	-1.25
4054.58	-2.25
4057.046	-7.25
4059.51	-5.25
4061.972	-6.25
4064.432	-5.25
4066.891	-5.25
4069.348	-0.25
4071.803	-5.25
4074.256	-8.25
4076.708	-7.25
4079.158	-6.25
4081.606	-8.25
4084.052	-6.25
4086.497	-7.25
4088.939	-7.25
4091.38	-4.25
4093.819	-10.25
4096.257	-7.25
4098.693	-8.25
4101.127	-9.25
4103.559	-9.25
4105.989	0.75
4108.418	3.75
4110.845	-1.25
4113.27	-2.25
4115.694	1.75
4118.115	4.75
4120.535	-8.25
4122.954	-8.25
4125.37	-9.25
4127.785	-9.25
4130.198	-10.25
4132.609	-9.25
4135.019	-10.25
4137.427	-12.25
4139.833	-14.25
4142.237	-14.25
