Data from 171017-reg-ec2_File6_3.txt Node
Date: Tue Oct 17 12:26:32 IDT 2017
User: aro
Spectrometer: QEPB0276
Trigger mode: 0
Integration Time (sec): 5.000000E0
Scans to average: 1
Electric dark correction enabled: true
Nonlinearity correction enabled: false
Boxcar width: 0
XAxis mode: Raman Shifts
Number of Pixels in Spectrum: 1044
>>>>>Begin Spectral Data<<<<<
160.701	2.88
166.742	2.88
172.777	8.88
178.805	24.88
184.826	64.88
190.841	137.88
196.849	241.88
202.85	325.88
208.845	362.88
214.833	370.88
220.815	374.88
226.789	391.88
232.758	401.88
238.719	407.88
244.674	406.88
250.623	424.88
256.565	416.88
262.5	418.88
268.429	417.88
274.351	422.88
280.267	422.88
286.176	420.88
292.079	424.88
297.975	437.88
303.865	442.88
309.748	443.88
315.625	445.88
321.495	434.88
327.359	432.88
333.217	417.88
339.068	418.88
344.912	423.88
350.751	419.88
356.583	411.88
362.408	416.88
368.227	410.88
374.04	412.88
379.847	423.88
385.647	423.88
391.44	403.88
397.228	405.88
403.009	409.88
408.784	417.88
414.553	423.88
420.315	450.88
426.071	455.88
431.821	424.88
437.565	401.88
443.302	380.88
449.033	378.88
454.758	364.88
460.477	362.88
466.189	351.88
471.896	345.88
477.596	342.88
483.29	329.88
488.978	322.88
494.66	303.88
500.335	286.88
506.005	267.88
511.668	267.88
517.325	278.88
522.977	332.88
528.622	362.88
534.261	393.88
539.894	382.88
545.521	393.88
551.141	384.88
556.756	385.88
562.365	362.88
567.968	363.88
573.565	354.88
579.155	355.88
584.74	348.88
590.319	337.88
595.892	340.88
601.459	344.88
607.02	329.88
612.575	327.88
618.124	323.88
623.667	322.88
629.204	329.88
634.735	329.88
640.261	326.88
645.781	340.88
651.294	349.88
656.802	343.88
662.304	329.88
667.8	326.88
673.29	329.88
678.775	321.88
684.254	324.88
689.726	324.88
695.193	316.88
700.655	311.88
706.11	313.88
711.56	317.88
717.004	310.88
722.442	308.88
727.874	309.88
733.301	297.88
738.722	305.88
744.137	313.88
749.547	308.88
754.951	315.88
760.349	313.88
765.741	312.88
771.128	310.88
776.509	312.88
781.885	314.88
787.254	313.88
792.618	316.88
797.977	307.88
803.33	304.88
808.677	308.88
814.019	308.88
819.355	309.88
824.686	305.88
830.011	299.88
835.33	308.88
840.644	304.88
845.952	304.88
851.255	298.88
856.552	303.88
861.844	303.88
867.13	296.88
872.41	308.88
877.686	306.88
882.955	309.88
888.219	302.88
893.478	295.88
898.731	296.88
903.979	293.88
909.221	300.88
914.458	297.88
919.69	303.88
924.916	303.88
930.136	305.88
935.351	313.88
940.561	321.88
945.766	329.88
950.965	324.88
956.158	328.88
961.347	317.88
966.529	314.88
971.707	313.88
976.879	305.88
982.046	304.88
987.208	302.88
992.364	305.88
997.515	302.88
1002.66	291.88
1007.801	288.88
1012.936	297.88
1018.066	295.88
1023.19	310.88
1028.309	293.88
1033.423	305.88
1038.532	304.88
1043.636	304.88
1048.734	296.88
1053.827	291.88
1058.915	288.88
1063.998	283.88
1069.075	286.88
1074.147	289.88
1079.214	288.88
1084.276	296.88
1089.333	301.88
1094.385	304.88
1099.431	300.88
1104.472	301.88
1109.509	302.88
1114.54	295.88
1119.565	297.88
1124.586	291.88
1129.602	292.88
1134.613	286.88
1139.618	283.88
1144.619	284.88
1149.614	291.88
1154.604	282.88
1159.589	291.88
1164.57	289.88
1169.545	289.88
1174.515	292.88
1179.48	294.88
1184.44	284.88
1189.395	289.88
1194.345	289.88
1199.29	288.88
1204.23	287.88
1209.165	291.88
1214.095	296.88
1219.021	293.88
1223.941	290.88
1228.856	292.88
1233.766	298.88
1238.672	295.88
1243.572	291.88
1248.467	292.88
1253.358	300.88
1258.244	292.88
1263.124	285.88
1268	284.88
1272.871	278.88
1277.737	276.88
1282.599	278.88
1287.455	279.88
1292.306	281.88
1297.153	277.88
1301.995	285.88
1306.832	290.88
1311.664	291.88
1316.491	299.88
1321.314	285.88
1326.132	286.88
1330.945	294.88
1335.753	282.88
1340.556	274.88
1345.354	268.88
1350.148	266.88
1354.937	266.88
1359.722	255.88
1364.501	250.88
1369.276	242.88
1374.046	240.88
1378.811	242.88
1383.572	259.88
1388.327	249.88
1393.079	245.88
1397.825	255.88
1402.567	254.88
1407.304	260.88
1412.036	261.88
1416.764	259.88
1421.487	252.88
1426.205	260.88
1430.919	266.88
1435.628	268.88
1440.333	276.88
1445.032	273.88
1449.727	274.88
1454.418	274.88
1459.104	274.88
1463.785	264.88
1468.462	269.88
1473.134	262.88
1477.802	267.88
1482.465	259.88
1487.123	250.88
1491.777	254.88
1496.426	247.88
1501.071	250.88
1505.711	245.88
1510.347	237.88
1514.978	234.88
1519.604	239.88
1524.226	236.88
1528.844	243.88
1533.457	236.88
1538.065	238.88
1542.669	238.88
1547.269	235.88
1551.864	237.88
1556.454	240.88
1561.041	249.88
1565.622	239.88
1570.199	244.88
1574.772	256.88
1579.34	254.88
1583.904	259.88
1588.464	259.88
1593.019	257.88
1597.569	251.88
1602.115	252.88
1606.657	258.88
1611.195	258.88
1615.728	250.88
1620.256	255.88
1624.78	249.88
1629.3	246.88
1633.816	248.88
1638.327	249.88
1642.834	247.88
1647.336	250.88
1651.834	256.88
1656.328	256.88
1660.817	256.88
1665.302	258.88
1669.783	254.88
1674.259	246.88
1678.732	245.88
1683.199	242.88
1687.663	230.88
1692.122	229.88
1696.577	211.88
1701.028	210.88
1705.474	199.88
1709.917	199.88
1714.355	201.88
1718.788	209.88
1723.218	215.88
1727.643	215.88
1732.064	218.88
1736.481	212.88
1740.893	217.88
1745.301	211.88
1749.705	215.88
1754.105	211.88
1758.501	202.88
1762.893	201.88
1767.28	198.88
1771.663	199.88
1776.042	192.88
1780.417	196.88
1784.787	194.88
1789.154	193.88
1793.516	184.88
1797.874	184.88
1802.228	174.88
1806.578	171.88
1810.924	178.88
1815.266	178.88
1819.603	184.88
1823.937	190.88
1828.266	195.88
1832.591	196.88
1836.913	201.88
1841.23	201.88
1845.543	205.88
1849.852	205.88
1854.156	212.88
1858.457	216.88
1862.754	213.88
1867.047	212.88
1871.335	215.88
1875.62	212.88
1879.9	225.88
1884.177	219.88
1888.449	213.88
1892.718	214.88
1896.982	209.88
1901.243	209.88
1905.499	207.88
1909.752	202.88
1914	201.88
1918.245	200.88
1922.485	202.88
1926.722	200.88
1930.954	195.88
1935.183	192.88
1939.408	197.88
1943.628	198.88
1947.845	186.88
1952.058	188.88
1956.267	189.88
1960.472	189.88
1964.673	191.88
1968.87	187.88
1973.063	189.88
1977.252	191.88
1981.438	195.88
1985.619	198.88
1989.797	198.88
1993.971	202.88
1998.14	206.88
2002.306	204.88
2006.469	208.88
2010.627	211.88
2014.781	212.88
2018.932	219.88
2023.078	218.88
2027.221	211.88
2031.36	214.88
2035.495	211.88
2039.627	210.88
2043.754	213.88
2047.878	213.88
2051.998	211.88
2056.114	212.88
2060.226	212.88
2064.334	209.88
2068.439	206.88
2072.54	213.88
2076.637	206.88
2080.73	211.88
2084.82	213.88
2088.906	216.88
2092.988	218.88
2097.066	209.88
2101.14	208.88
2105.211	206.88
2109.278	202.88
2113.342	207.88
2117.401	207.88
2121.457	204.88
2125.509	210.88
2129.558	208.88
2133.602	213.88
2137.643	214.88
2141.681	216.88
2145.714	216.88
2149.744	216.88
2153.77	217.88
2157.793	223.88
2161.812	222.88
2165.827	227.88
2169.838	225.88
2173.846	228.88
2177.851	226.88
2181.851	231.88
2185.848	224.88
2189.841	233.88
2193.831	231.88
2197.817	232.88
2201.799	237.88
2205.778	233.88
2209.753	242.88
2213.725	244.88
2217.693	248.88
2221.657	243.88
2225.618	248.88
2229.575	255.88
2233.529	254.88
2237.479	245.88
2241.425	248.88
2245.368	256.88
2249.307	247.88
2253.243	259.88
2257.175	253.88
2261.104	253.88
2265.029	247.88
2268.95	255.88
2272.868	250.88
2276.783	255.88
2280.694	254.88
2284.601	251.88
2288.505	257.88
2292.405	256.88
2296.302	257.88
2300.195	258.88
2304.085	265.88
2307.971	259.88
2311.854	254.88
2315.734	266.88
2319.609	258.88
2323.482	265.88
2327.351	263.88
2331.216	272.88
2335.078	269.88
2338.937	273.88
2342.792	278.88
2346.643	275.88
2350.492	282.88
2354.336	288.88
2358.178	289.88
2362.015	298.88
2365.85	305.88
2369.681	301.88
2373.508	303.88
2377.333	311.88
2381.153	313.88
2384.971	318.88
2388.785	321.88
2392.595	325.88
2396.402	323.88
2400.206	323.88
2404.007	330.88
2407.804	331.88
2411.597	335.88
2415.388	335.88
2419.174	342.88
2422.958	344.88
2426.738	346.88
2430.515	346.88
2434.289	346.88
2438.059	348.88
2441.825	347.88
2445.589	346.88
2449.349	349.88
2453.106	358.88
2456.859	350.88
2460.61	357.88
2464.356	347.88
2468.1	350.88
2471.84	348.88
2475.577	344.88
2479.311	355.88
2483.041	356.88
2486.768	356.88
2490.492	366.88
2494.213	369.88
2497.93	361.88
2501.644	374.88
2505.355	367.88
2509.062	371.88
2512.766	371.88
2516.467	372.88
2520.165	371.88
2523.859	378.88
2527.551	375.88
2531.239	380.88
2534.923	375.88
2538.605	381.88
2542.283	377.88
2545.958	384.88
2549.63	383.88
2553.299	384.88
2556.964	385.88
2560.626	388.88
2564.285	385.88
2567.941	383.88
2571.594	384.88
2575.243	387.88
2578.89	394.88
2582.533	394.88
2586.173	388.88
2589.809	381.88
2593.443	384.88
2597.073	391.88
2600.701	384.88
2604.325	387.88
2607.946	393.88
2611.564	387.88
2615.178	388.88
2618.79	389.88
2622.398	398.88
2626.004	392.88
2629.606	390.88
2633.205	406.88
2636.801	394.88
2640.394	409.88
2643.983	396.88
2647.57	396.88
2651.153	399.88
2654.734	395.88
2658.311	400.88
2661.885	399.88
2665.456	394.88
2669.025	414.88
2672.589	398.88
2676.151	392.88
2679.71	410.88
2683.266	405.88
2686.819	411.88
2690.368	402.88
2693.915	399.88
2697.458	395.88
2700.999	394.88
2704.536	394.88
2708.071	395.88
2711.602	398.88
2715.13	392.88
2718.656	394.88
2722.178	396.88
2725.697	395.88
2729.214	394.88
2732.727	401.88
2736.237	406.88
2739.744	402.88
2743.249	405.88
2746.75	411.88
2750.248	400.88
2753.743	396.88
2757.236	392.88
2760.725	388.88
2764.211	375.88
2767.695	378.88
2771.175	374.88
2774.652	371.88
2778.127	372.88
2781.598	370.88
2785.067	383.88
2788.532	384.88
2791.995	386.88
2795.455	401.88
2798.911	409.88
2802.365	411.88
2805.816	407.88
2809.264	411.88
2812.709	416.88
2816.151	416.88
2819.59	422.88
2823.026	421.88
2826.46	426.88
2829.89	428.88
2833.318	428.88
2836.742	427.88
2840.164	430.88
2843.583	427.88
2846.999	434.88
2850.412	425.88
2853.822	430.88
2857.229	424.88
2860.634	428.88
2864.035	433.88
2867.434	432.88
2870.83	437.88
2874.223	433.88
2877.613	438.88
2881	421.88
2884.385	415.88
2887.766	420.88
2891.145	418.88
2894.521	405.88
2897.894	413.88
2901.264	407.88
2904.631	409.88
2907.996	406.88
2911.358	406.88
2914.717	408.88
2918.073	407.88
2921.426	404.88
2924.777	405.88
2928.124	405.88
2931.469	403.88
2934.811	398.88
2938.15	408.88
2941.487	402.88
2944.821	410.88
2948.152	406.88
2951.48	399.88
2954.805	403.88
2958.128	400.88
2961.447	397.88
2964.765	398.88
2968.079	389.88
2971.39	405.88
2974.699	399.88
2978.005	394.88
2981.308	401.88
2984.609	396.88
2987.907	393.88
2991.202	400.88
2994.494	396.88
2997.784	395.88
3001.07	380.88
3004.355	376.88
3007.636	381.88
3010.915	381.88
3014.191	386.88
3017.464	365.88
3020.734	377.88
3024.002	362.88
3027.267	370.88
3030.53	363.88
3033.789	362.88
3037.046	354.88
3040.301	359.88
3043.552	368.88
3046.801	363.88
3050.048	375.88
3053.291	371.88
3056.532	363.88
3059.771	372.88
3063.006	380.88
3066.239	373.88
3069.469	376.88
3072.697	375.88
3075.922	383.88
3079.144	384.88
3082.364	376.88
3085.581	385.88
3088.795	379.88
3092.007	381.88
3095.216	379.88
3098.423	371.88
3101.627	379.88
3104.828	376.88
3108.026	374.88
3111.222	377.88
3114.416	371.88
3117.607	365.88
3120.795	365.88
3123.98	364.88
3127.163	370.88
3130.344	373.88
3133.521	366.88
3136.696	376.88
3139.869	369.88
3143.039	369.88
3146.206	356.88
3149.371	356.88
3152.533	358.88
3155.693	352.88
3158.85	349.88
3162.005	339.88
3165.157	341.88
3168.306	329.88
3171.453	326.88
3174.597	323.88
3177.739	321.88
3180.878	319.88
3184.014	315.88
3187.149	311.88
3190.28	304.88
3193.409	314.88
3196.536	311.88
3199.659	307.88
3202.781	310.88
3205.9	303.88
3209.016	300.88
3212.13	296.88
3215.241	295.88
3218.35	289.88
3221.456	290.88
3224.56	288.88
3227.661	285.88
3230.76	276.88
3233.856	277.88
3236.95	275.88
3240.041	267.88
3243.13	267.88
3246.216	271.88
3249.3	267.88
3252.382	270.88
3255.46	254.88
3258.537	252.88
3261.611	251.88
3264.682	250.88
3267.751	253.88
3270.818	241.88
3273.882	248.88
3276.943	247.88
3280.002	242.88
3283.059	242.88
3286.113	238.88
3289.165	239.88
3292.214	235.88
3295.261	233.88
3298.306	233.88
3301.348	225.88
3304.387	221.88
3307.425	220.88
3310.459	226.88
3313.492	220.88
3316.521	218.88
3319.549	218.88
3322.574	219.88
3325.597	217.88
3328.617	224.88
3331.635	215.88
3334.65	214.88
3337.663	218.88
3340.674	214.88
3343.682	215.88
3346.688	216.88
3349.691	217.88
3352.692	216.88
3355.691	213.88
3358.687	217.88
3361.681	206.88
3364.673	212.88
3367.662	206.88
3370.649	208.88
3373.633	206.88
3376.615	202.88
3379.595	198.88
3382.572	200.88
3385.547	196.88
3388.52	199.88
3391.49	196.88
3394.458	188.88
3397.424	184.88
3400.387	193.88
3403.348	187.88
3406.307	185.88
3409.263	184.88
3412.217	183.88
3415.168	181.88
3418.118	185.88
3421.065	184.88
3424.009	180.88
3426.951	181.88
3429.891	176.88
3432.829	175.88
3435.764	169.88
3438.697	174.88
3441.628	174.88
3444.557	171.88
3447.483	160.88
3450.407	160.88
3453.328	155.88
3456.247	158.88
3459.164	152.88
3462.079	148.88
3464.991	140.88
3467.902	141.88
3470.809	143.88
3473.715	150.88
3476.618	139.88
3479.519	138.88
3482.418	136.88
3485.315	133.88
3488.209	136.88
3491.101	139.88
3493.99	131.88
3496.878	125.88
3499.763	119.88
3502.646	123.88
3505.527	125.88
3508.405	114.88
3511.281	116.88
3514.155	116.88
3517.027	119.88
3519.897	114.88
3522.764	108.88
3525.629	103.88
3528.492	106.88
3531.352	102.88
3534.211	96.88
3537.067	93.88
3539.921	92.88
3542.773	97.88
3545.622	89.88
3548.469	89.88
3551.315	88.88
3554.157	91.88
3556.998	86.88
3559.837	85.88
3562.673	88.88
3565.507	86.88
3568.339	87.88
3571.169	83.88
3573.996	79.88
3576.822	79.88
3579.645	78.88
3582.466	80.88
3585.285	80.88
3588.101	72.88
3590.916	75.88
3593.728	71.88
3596.538	69.88
3599.346	73.88
3602.152	69.88
3604.956	65.88
3607.757	66.88
3610.556	64.88
3613.354	68.88
3616.149	67.88
3618.942	62.88
3621.732	59.88
3624.521	56.88
3627.307	57.88
3630.092	56.88
3632.874	52.88
3635.654	56.88
3638.432	53.88
3641.208	57.88
3643.982	56.88
3646.753	52.88
3649.523	55.88
3652.29	48.88
3655.055	55.88
3657.818	52.88
3660.579	52.88
3663.338	44.88
3666.095	48.88
3668.849	52.88
3671.602	51.88
3674.352	51.88
3677.101	51.88
3679.847	47.88
3682.591	49.88
3685.333	52.88
3688.073	43.88
3690.811	48.88
3693.547	55.88
3696.281	50.88
3699.013	52.88
3701.742	50.88
3704.47	48.88
3707.195	48.88
3709.919	48.88
3712.64	45.88
3715.359	51.88
3718.076	53.88
3720.792	48.88
3723.505	49.88
3726.216	44.88
3728.925	44.88
3731.632	46.88
3734.336	50.88
3737.039	47.88
3739.74	49.88
3742.439	37.88
3745.136	42.88
3747.83	43.88
3750.523	43.88
3753.213	46.88
3755.902	42.88
3758.589	44.88
3761.273	43.88
3763.956	41.88
3766.636	41.88
3769.315	37.88
3771.991	39.88
3774.665	36.88
3777.338	41.88
3780.008	38.88
3782.677	38.88
3785.343	31.88
3788.007	32.88
3790.67	28.88
3793.33	36.88
3795.989	30.88
3798.645	30.88
3801.299	36.88
3803.952	30.88
3806.602	33.88
3809.251	32.88
3811.897	34.88
3814.542	28.88
3817.184	28.88
3819.825	26.88
3822.463	27.88
3825.1	28.88
3827.735	30.88
3830.367	25.88
3832.998	27.88
3835.627	30.88
3838.253	27.88
3840.878	23.88
3843.501	25.88
3846.122	21.88
3848.741	23.88
3851.358	20.88
3853.973	18.88
3856.586	26.88
3859.197	19.88
3861.806	19.88
3864.414	23.88
3867.019	17.88
3869.622	19.88
3872.224	19.88
3874.823	15.88
3877.421	16.88
3880.016	19.88
3882.61	16.88
3885.202	20.88
3887.792	16.88
3890.38	12.88
3892.966	13.88
3895.55	7.88
3898.132	10.88
3900.713	5.88
3903.291	4.88
3905.868	8.88
3908.442	6.88
3911.015	10.88
3913.586	4.88
3916.155	5.88
3918.722	2.88
3921.287	5.88
3923.85	6.88
3926.411	3.88
3928.971	4.88
3931.528	4.88
3934.084	1.88
3936.638	-1.12
3939.19	2.88
3941.74	1.88
3944.288	-1.12
3946.834	2.88
3949.378	-0.12
3951.921	-1.12
3954.462	-4.12
3957	-1.12
3959.537	0.88
3962.072	3.88
3964.606	-2.12
3967.137	-2.12
3969.667	0.88
3972.194	1.88
3974.72	0.88
3977.244	0.88
3979.766	-2.12
3982.286	-2.12
3984.805	-1.12
3987.321	-1.12
3989.836	2.88
3992.349	-3.12
3994.86	-1.12
3997.369	-1.12
3999.877	-0.12
4002.382	-1.12
4004.886	-0.12
4007.388	-3.12
4009.888	-1.12
4012.386	-2.12
4014.883	-2.12
4017.377	-2.12
4019.87	-0.12
4022.361	-3.12
4024.85	-5.12
4027.338	-6.12
4029.823	-8.12
4032.307	-1.12
4034.789	-6.12
4037.269	-8.12
4039.747	-8.12
4042.224	-6.12
4044.699	-5.12
4047.172	-2.12
4049.643	-8.12
4052.112	-9.12
4054.58	-6.12
4057.046	-7.12
4059.51	-5.12
4061.972	-6.12
4064.432	-9.12
4066.891	-6.12
4069.348	-8.12
4071.803	-8.12
4074.256	-13.12
4076.708	-8.12
4079.158	-7.12
4081.606	-10.12
4084.052	-7.12
4086.497	-6.12
4088.939	-7.12
4091.38	-6.12
4093.819	-8.12
4096.257	-10.12
4098.693	-8.12
4101.127	-8.12
4103.559	-8.12
4105.989	-0.12
4108.418	-1.12
4110.845	-3.12
4113.27	-3.12
4115.694	-2.12
4118.115	-0.12
4120.535	-6.12
4122.954	-6.12
4125.37	-5.12
4127.785	-5.12
4130.198	-6.12
4132.609	-6.12
4135.019	-11.12
4137.427	-9.12
4139.833	-10.12
4142.237	-9.12
