Data from 171017-reg-dw_RamanShift_2.txt Node
Date: Tue Oct 17 12:42:52 IDT 2017
User: aro
Spectrometer: QEPB0276
Trigger mode: 0
Integration Time (sec): 5.000000E0
Scans to average: 1
Electric dark correction enabled: true
Nonlinearity correction enabled: false
Boxcar width: 0
XAxis mode: Raman Shifts
Number of Pixels in Spectrum: 1044
>>>>>Begin Spectral Data<<<<<
160.701	0.5
166.742	-0.5
172.777	12.5
178.805	29.5
184.826	81.5
190.841	183.5
196.849	303.5
202.85	419.5
208.845	479.5
214.833	494.5
220.815	489.5
226.789	502.5
232.758	529.5
238.719	534.5
244.674	550.5
250.623	556.5
256.565	550.5
262.5	553.5
268.429	543.5
274.351	548.5
280.267	554.5
286.176	551.5
292.079	548.5
297.975	555.5
303.865	552.5
309.748	551.5
315.625	554.5
321.495	552.5
327.359	549.5
333.217	535.5
339.068	530.5
344.912	526.5
350.751	529.5
356.583	528.5
362.408	528.5
368.227	521.5
374.04	523.5
379.847	522.5
385.647	522.5
391.44	523.5
397.228	517.5
403.009	514.5
408.784	517.5
414.553	543.5
420.315	555.5
426.071	558.5
431.821	539.5
437.565	514.5
443.302	504.5
449.033	493.5
454.758	485.5
460.477	489.5
466.189	479.5
471.896	475.5
477.596	457.5
483.29	456.5
488.978	443.5
494.66	432.5
500.335	410.5
506.005	389.5
511.668	382.5
517.325	409.5
522.977	449.5
528.622	479.5
534.261	495.5
539.894	494.5
545.521	477.5
551.141	471.5
556.756	458.5
562.365	447.5
567.968	443.5
573.565	439.5
579.155	438.5
584.74	428.5
590.319	430.5
595.892	431.5
601.459	418.5
607.02	410.5
612.575	400.5
618.124	396.5
623.667	396.5
629.204	402.5
634.735	414.5
640.261	417.5
645.781	426.5
651.294	430.5
656.802	434.5
662.304	415.5
667.8	416.5
673.29	410.5
678.775	402.5
684.254	399.5
689.726	385.5
695.193	378.5
700.655	382.5
706.11	381.5
711.56	367.5
717.004	372.5
722.442	365.5
727.874	362.5
733.301	357.5
738.722	364.5
744.137	365.5
749.547	368.5
754.951	364.5
760.349	364.5
765.741	365.5
771.128	359.5
776.509	360.5
781.885	361.5
787.254	365.5
792.618	359.5
797.977	355.5
803.33	358.5
808.677	348.5
814.019	365.5
819.355	351.5
824.686	350.5
830.011	353.5
835.33	348.5
840.644	352.5
845.952	346.5
851.255	342.5
856.552	354.5
861.844	345.5
867.13	340.5
872.41	344.5
877.686	344.5
882.955	346.5
888.219	344.5
893.478	339.5
898.731	330.5
903.979	332.5
909.221	334.5
914.458	332.5
919.69	340.5
924.916	333.5
930.136	339.5
935.351	356.5
940.561	355.5
945.766	360.5
950.965	355.5
956.158	359.5
961.347	352.5
966.529	348.5
971.707	341.5
976.879	338.5
982.046	332.5
987.208	332.5
992.364	323.5
997.515	317.5
1002.66	321.5
1007.801	317.5
1012.936	327.5
1018.066	325.5
1023.19	331.5
1028.309	323.5
1033.423	332.5
1038.532	328.5
1043.636	326.5
1048.734	321.5
1053.827	318.5
1058.915	311.5
1063.998	310.5
1069.075	309.5
1074.147	313.5
1079.214	304.5
1084.276	312.5
1089.333	319.5
1094.385	317.5
1099.431	318.5
1104.472	310.5
1109.509	311.5
1114.54	306.5
1119.565	300.5
1124.586	305.5
1129.602	300.5
1134.613	295.5
1139.618	299.5
1144.619	303.5
1149.614	299.5
1154.604	298.5
1159.589	298.5
1164.57	303.5
1169.545	300.5
1174.515	305.5
1179.48	306.5
1184.44	295.5
1189.395	280.5
1194.345	290.5
1199.29	291.5
1204.23	293.5
1209.165	288.5
1214.095	292.5
1219.021	298.5
1223.941	292.5
1228.856	302.5
1233.766	292.5
1238.672	302.5
1243.572	302.5
1248.467	294.5
1253.358	300.5
1258.244	286.5
1263.124	286.5
1268	284.5
1272.871	284.5
1277.737	279.5
1282.599	281.5
1287.455	287.5
1292.306	286.5
1297.153	284.5
1301.995	284.5
1306.832	296.5
1311.664	298.5
1316.491	298.5
1321.314	295.5
1326.132	297.5
1330.945	291.5
1335.753	297.5
1340.556	290.5
1345.354	290.5
1350.148	290.5
1354.937	295.5
1359.722	288.5
1364.501	270.5
1369.276	265.5
1374.046	261.5
1378.811	244.5
1383.572	258.5
1388.327	259.5
1393.079	255.5
1397.825	246.5
1402.567	250.5
1407.304	251.5
1412.036	253.5
1416.764	250.5
1421.487	253.5
1426.205	258.5
1430.919	255.5
1435.628	260.5
1440.333	264.5
1445.032	267.5
1449.727	276.5
1454.418	276.5
1459.104	273.5
1463.785	271.5
1468.462	268.5
1473.134	275.5
1477.802	276.5
1482.465	275.5
1487.123	276.5
1491.777	277.5
1496.426	279.5
1501.071	282.5
1505.711	281.5
1510.347	285.5
1514.978	271.5
1519.604	280.5
1524.226	278.5
1528.844	271.5
1533.457	258.5
1538.065	255.5
1542.669	246.5
1547.269	245.5
1551.864	241.5
1556.454	249.5
1561.041	258.5
1565.622	249.5
1570.199	260.5
1574.772	255.5
1579.34	261.5
1583.904	255.5
1588.464	252.5
1593.019	256.5
1597.569	263.5
1602.115	254.5
1606.657	252.5
1611.195	251.5
1615.728	247.5
1620.256	253.5
1624.78	252.5
1629.3	246.5
1633.816	246.5
1638.327	255.5
1642.834	254.5
1647.336	264.5
1651.834	266.5
1656.328	259.5
1660.817	272.5
1665.302	271.5
1669.783	267.5
1674.259	270.5
1678.732	272.5
1683.199	281.5
1687.663	283.5
1692.122	273.5
1696.577	273.5
1701.028	260.5
1705.474	257.5
1709.917	249.5
1714.355	251.5
1718.788	246.5
1723.218	243.5
1727.643	245.5
1732.064	248.5
1736.481	241.5
1740.893	253.5
1745.301	239.5
1749.705	239.5
1754.105	242.5
1758.501	239.5
1762.893	236.5
1767.28	241.5
1771.663	239.5
1776.042	240.5
1780.417	253.5
1784.787	249.5
1789.154	253.5
1793.516	254.5
1797.874	251.5
1802.228	245.5
1806.578	236.5
1810.924	231.5
1815.266	228.5
1819.603	226.5
1823.937	230.5
1828.266	224.5
1832.591	234.5
1836.913	234.5
1841.23	233.5
1845.543	241.5
1849.852	242.5
1854.156	244.5
1858.457	245.5
1862.754	255.5
1867.047	259.5
1871.335	260.5
1875.62	258.5
1879.9	264.5
1884.177	265.5
1888.449	267.5
1892.718	268.5
1896.982	273.5
1901.243	267.5
1905.499	277.5
1909.752	280.5
1914	280.5
1918.245	277.5
1922.485	277.5
1926.722	286.5
1930.954	286.5
1935.183	291.5
1939.408	289.5
1943.628	273.5
1947.845	273.5
1952.058	270.5
1956.267	267.5
1960.472	264.5
1964.673	259.5
1968.87	258.5
1973.063	248.5
1977.252	251.5
1981.438	257.5
1985.619	247.5
1989.797	248.5
1993.971	249.5
1998.14	253.5
2002.306	257.5
2006.469	250.5
2010.627	254.5
2014.781	258.5
2018.932	259.5
2023.078	269.5
2027.221	264.5
2031.36	259.5
2035.495	260.5
2039.627	261.5
2043.754	263.5
2047.878	260.5
2051.998	259.5
2056.114	261.5
2060.226	267.5
2064.334	268.5
2068.439	273.5
2072.54	276.5
2076.637	275.5
2080.73	283.5
2084.82	293.5
2088.906	284.5
2092.988	283.5
2097.066	290.5
2101.14	282.5
2105.211	275.5
2109.278	278.5
2113.342	279.5
2117.401	278.5
2121.457	272.5
2125.509	278.5
2129.558	273.5
2133.602	273.5
2137.643	273.5
2141.681	267.5
2145.714	267.5
2149.744	274.5
2153.77	268.5
2157.793	275.5
2161.812	272.5
2165.827	271.5
2169.838	275.5
2173.846	275.5
2177.851	270.5
2181.851	271.5
2185.848	272.5
2189.841	266.5
2193.831	275.5
2197.817	262.5
2201.799	276.5
2205.778	276.5
2209.753	279.5
2213.725	283.5
2217.693	286.5
2221.657	287.5
2225.618	284.5
2229.575	287.5
2233.529	293.5
2237.479	289.5
2241.425	284.5
2245.368	291.5
2249.307	288.5
2253.243	287.5
2257.175	283.5
2261.104	289.5
2265.029	285.5
2268.95	279.5
2272.868	290.5
2276.783	284.5
2280.694	285.5
2284.601	288.5
2288.505	291.5
2292.405	285.5
2296.302	281.5
2300.195	286.5
2304.085	286.5
2307.971	284.5
2311.854	277.5
2315.734	291.5
2319.609	287.5
2323.482	274.5
2327.351	281.5
2331.216	279.5
2335.078	285.5
2338.937	286.5
2342.792	285.5
2346.643	284.5
2350.492	292.5
2354.336	290.5
2358.178	301.5
2362.015	301.5
2365.85	306.5
2369.681	304.5
2373.508	304.5
2377.333	320.5
2381.153	312.5
2384.971	326.5
2388.785	324.5
2392.595	325.5
2396.402	327.5
2400.206	331.5
2404.007	332.5
2407.804	335.5
2411.597	335.5
2415.388	336.5
2419.174	342.5
2422.958	339.5
2426.738	343.5
2430.515	349.5
2434.289	343.5
2438.059	346.5
2441.825	356.5
2445.589	355.5
2449.349	355.5
2453.106	354.5
2456.859	356.5
2460.61	349.5
2464.356	358.5
2468.1	364.5
2471.84	354.5
2475.577	363.5
2479.311	358.5
2483.041	369.5
2486.768	361.5
2490.492	365.5
2494.213	378.5
2497.93	384.5
2501.644	384.5
2505.355	384.5
2509.062	388.5
2512.766	386.5
2516.467	395.5
2520.165	399.5
2523.859	398.5
2527.551	403.5
2531.239	404.5
2534.923	405.5
2538.605	408.5
2542.283	406.5
2545.958	407.5
2549.63	403.5
2553.299	407.5
2556.964	424.5
2560.626	417.5
2564.285	417.5
2567.941	414.5
2571.594	422.5
2575.243	412.5
2578.89	417.5
2582.533	418.5
2586.173	421.5
2589.809	419.5
2593.443	417.5
2597.073	412.5
2600.701	414.5
2604.325	412.5
2607.946	406.5
2611.564	405.5
2615.178	408.5
2618.79	420.5
2622.398	406.5
2626.004	416.5
2629.606	416.5
2633.205	418.5
2636.801	409.5
2640.394	413.5
2643.983	407.5
2647.57	411.5
2651.153	417.5
2654.734	418.5
2658.311	405.5
2661.885	410.5
2665.456	417.5
2669.025	412.5
2672.589	415.5
2676.151	413.5
2679.71	415.5
2683.266	409.5
2686.819	423.5
2690.368	415.5
2693.915	412.5
2697.458	414.5
2700.999	412.5
2704.536	411.5
2708.071	417.5
2711.602	415.5
2715.13	415.5
2718.656	419.5
2722.178	417.5
2725.697	419.5
2729.214	424.5
2732.727	438.5
2736.237	440.5
2739.744	453.5
2743.249	439.5
2746.75	451.5
2750.248	438.5
2753.743	435.5
2757.236	432.5
2760.725	422.5
2764.211	415.5
2767.695	406.5
2771.175	407.5
2774.652	402.5
2778.127	406.5
2781.598	404.5
2785.067	413.5
2788.532	420.5
2791.995	422.5
2795.455	416.5
2798.911	434.5
2802.365	432.5
2805.816	442.5
2809.264	440.5
2812.709	444.5
2816.151	444.5
2819.59	448.5
2823.026	447.5
2826.46	452.5
2829.89	450.5
2833.318	462.5
2836.742	458.5
2840.164	456.5
2843.583	441.5
2846.999	449.5
2850.412	459.5
2853.822	461.5
2857.229	458.5
2860.634	454.5
2864.035	471.5
2867.434	452.5
2870.83	460.5
2874.223	452.5
2877.613	458.5
2881	449.5
2884.385	447.5
2887.766	453.5
2891.145	447.5
2894.521	428.5
2897.894	433.5
2901.264	427.5
2904.631	431.5
2907.996	424.5
2911.358	433.5
2914.717	417.5
2918.073	426.5
2921.426	419.5
2924.777	423.5
2928.124	416.5
2931.469	431.5
2934.811	428.5
2938.15	431.5
2941.487	428.5
2944.821	427.5
2948.152	435.5
2951.48	422.5
2954.805	424.5
2958.128	419.5
2961.447	420.5
2964.765	426.5
2968.079	424.5
2971.39	422.5
2974.699	420.5
2978.005	423.5
2981.308	423.5
2984.609	426.5
2987.907	422.5
2991.202	429.5
2994.494	418.5
2997.784	423.5
3001.07	421.5
3004.355	406.5
3007.636	413.5
3010.915	396.5
3014.191	402.5
3017.464	392.5
3020.734	388.5
3024.002	404.5
3027.267	380.5
3030.53	386.5
3033.789	382.5
3037.046	382.5
3040.301	385.5
3043.552	386.5
3046.801	380.5
3050.048	377.5
3053.291	392.5
3056.532	391.5
3059.771	393.5
3063.006	393.5
3066.239	392.5
3069.469	398.5
3072.697	396.5
3075.922	397.5
3079.144	406.5
3082.364	400.5
3085.581	404.5
3088.795	408.5
3092.007	402.5
3095.216	401.5
3098.423	402.5
3101.627	398.5
3104.828	389.5
3108.026	388.5
3111.222	399.5
3114.416	397.5
3117.607	399.5
3120.795	389.5
3123.98	386.5
3127.163	396.5
3130.344	395.5
3133.521	393.5
3136.696	396.5
3139.869	388.5
3143.039	390.5
3146.206	389.5
3149.371	377.5
3152.533	389.5
3155.693	371.5
3158.85	372.5
3162.005	360.5
3165.157	359.5
3168.306	351.5
3171.453	344.5
3174.597	341.5
3177.739	339.5
3180.878	329.5
3184.014	344.5
3187.149	330.5
3190.28	328.5
3193.409	320.5
3196.536	325.5
3199.659	316.5
3202.781	320.5
3205.9	310.5
3209.016	311.5
3212.13	312.5
3215.241	309.5
3218.35	304.5
3221.456	303.5
3224.56	301.5
3227.661	305.5
3230.76	293.5
3233.856	286.5
3236.95	294.5
3240.041	281.5
3243.13	284.5
3246.216	280.5
3249.3	284.5
3252.382	283.5
3255.46	277.5
3258.537	274.5
3261.611	271.5
3264.682	279.5
3267.751	268.5
3270.818	269.5
3273.882	273.5
3276.943	265.5
3280.002	256.5
3283.059	266.5
3286.113	251.5
3289.165	245.5
3292.214	244.5
3295.261	249.5
3298.306	243.5
3301.348	239.5
3304.387	232.5
3307.425	239.5
3310.459	230.5
3313.492	229.5
3316.521	231.5
3319.549	230.5
3322.574	228.5
3325.597	226.5
3328.617	227.5
3331.635	233.5
3334.65	228.5
3337.663	231.5
3340.674	219.5
3343.682	223.5
3346.688	230.5
3349.691	220.5
3352.692	229.5
3355.691	226.5
3358.687	227.5
3361.681	226.5
3364.673	227.5
3367.662	225.5
3370.649	221.5
3373.633	223.5
3376.615	216.5
3379.595	211.5
3382.572	214.5
3385.547	209.5
3388.52	207.5
3391.49	207.5
3394.458	207.5
3397.424	204.5
3400.387	203.5
3403.348	198.5
3406.307	193.5
3409.263	193.5
3412.217	199.5
3415.168	195.5
3418.118	197.5
3421.065	188.5
3424.009	195.5
3426.951	185.5
3429.891	185.5
3432.829	175.5
3435.764	182.5
3438.697	180.5
3441.628	179.5
3444.557	181.5
3447.483	171.5
3450.407	165.5
3453.328	169.5
3456.247	169.5
3459.164	163.5
3462.079	157.5
3464.991	156.5
3467.902	154.5
3470.809	154.5
3473.715	154.5
3476.618	146.5
3479.519	151.5
3482.418	142.5
3485.315	147.5
3488.209	139.5
3491.101	143.5
3493.99	139.5
3496.878	133.5
3499.763	131.5
3502.646	132.5
3505.527	135.5
3508.405	130.5
3511.281	126.5
3514.155	120.5
3517.027	121.5
3519.897	120.5
3522.764	119.5
3525.629	115.5
3528.492	108.5
3531.352	113.5
3534.211	99.5
3537.067	100.5
3539.921	103.5
3542.773	102.5
3545.622	96.5
3548.469	95.5
3551.315	98.5
3554.157	96.5
3556.998	89.5
3559.837	94.5
3562.673	96.5
3565.507	99.5
3568.339	90.5
3571.169	87.5
3573.996	87.5
3576.822	87.5
3579.645	86.5
3582.466	81.5
3585.285	83.5
3588.101	81.5
3590.916	78.5
3593.728	75.5
3596.538	75.5
3599.346	73.5
3602.152	70.5
3604.956	75.5
3607.757	66.5
3610.556	69.5
3613.354	64.5
3616.149	68.5
3618.942	63.5
3621.732	65.5
3624.521	60.5
3627.307	56.5
3630.092	59.5
3632.874	58.5
3635.654	59.5
3638.432	54.5
3641.208	59.5
3643.982	56.5
3646.753	58.5
3649.523	56.5
3652.29	52.5
3655.055	60.5
3657.818	56.5
3660.579	54.5
3663.338	51.5
3666.095	52.5
3668.849	53.5
3671.602	54.5
3674.352	55.5
3677.101	54.5
3679.847	49.5
3682.591	50.5
3685.333	56.5
3688.073	46.5
3690.811	55.5
3693.547	54.5
3696.281	48.5
3699.013	51.5
3701.742	54.5
3704.47	51.5
3707.195	52.5
3709.919	54.5
3712.64	51.5
3715.359	51.5
3718.076	50.5
3720.792	52.5
3723.505	49.5
3726.216	44.5
3728.925	41.5
3731.632	41.5
3734.336	44.5
3737.039	43.5
3739.74	45.5
3742.439	42.5
3745.136	44.5
3747.83	44.5
3750.523	43.5
3753.213	45.5
3755.902	43.5
3758.589	42.5
3761.273	49.5
3763.956	42.5
3766.636	45.5
3769.315	39.5
3771.991	38.5
3774.665	45.5
3777.338	44.5
3780.008	44.5
3782.677	41.5
3785.343	37.5
3788.007	38.5
3790.67	34.5
3793.33	42.5
3795.989	33.5
3798.645	32.5
3801.299	36.5
3803.952	35.5
3806.602	37.5
3809.251	34.5
3811.897	35.5
3814.542	30.5
3817.184	30.5
3819.825	27.5
3822.463	31.5
3825.1	31.5
3827.735	29.5
3830.367	25.5
3832.998	26.5
3835.627	27.5
3838.253	27.5
3840.878	22.5
3843.501	20.5
3846.122	21.5
3848.741	24.5
3851.358	19.5
3853.973	18.5
3856.586	20.5
3859.197	21.5
3861.806	18.5
3864.414	18.5
3867.019	15.5
3869.622	15.5
3872.224	16.5
3874.823	16.5
3877.421	19.5
3880.016	20.5
3882.61	21.5
3885.202	20.5
3887.792	20.5
3890.38	15.5
3892.966	12.5
3895.55	9.5
3898.132	13.5
3900.713	12.5
3903.291	11.5
3905.868	10.5
3908.442	10.5
3911.015	8.5
3913.586	8.5
3916.155	7.5
3918.722	4.5
3921.287	5.5
3923.85	5.5
3926.411	4.5
3928.971	1.5
3931.528	9.5
3934.084	4.5
3936.638	1.5
3939.19	3.5
3941.74	0.5
3944.288	2.5
3946.834	1.5
3949.378	0.5
3951.921	0.5
3954.462	-3.5
3957	-2.5
3959.537	-2.5
3962.072	-0.5
3964.606	-3.5
3967.137	-0.5
3969.667	-0.5
3972.194	-0.5
3974.72	0.5
3977.244	0.5
3979.766	-4.5
3982.286	-3.5
3984.805	0.5
3987.321	-2.5
3989.836	0.5
3992.349	-1.5
3994.86	1.5
3997.369	1.5
3999.877	-0.5
4002.382	-1.5
4004.886	0.5
4007.388	-0.5
4009.888	-1.5
4012.386	-4.5
4014.883	-4.5
4017.377	-5.5
4019.87	0.5
4022.361	-2.5
4024.85	-4.5
4027.338	-3.5
4029.823	-4.5
4032.307	-3.5
4034.789	-4.5
4037.269	-7.5
4039.747	-4.5
4042.224	-2.5
4044.699	-4.5
4047.172	-4.5
4049.643	-7.5
4052.112	-4.5
4054.58	-4.5
4057.046	-10.5
4059.51	-8.5
4061.972	-7.5
4064.432	-10.5
4066.891	-8.5
4069.348	-6.5
4071.803	-11.5
4074.256	-10.5
4076.708	-9.5
4079.158	-7.5
4081.606	-11.5
4084.052	-7.5
4086.497	-6.5
4088.939	-6.5
4091.38	-7.5
4093.819	-10.5
4096.257	-8.5
4098.693	-11.5
4101.127	-12.5
4103.559	-7.5
4105.989	-0.5
4108.418	0.5
4110.845	-3.5
4113.27	1.5
4115.694	-1.5
4118.115	1.5
4120.535	-6.5
4122.954	-9.5
4125.37	-9.5
4127.785	-8.5
4130.198	-9.5
4132.609	-6.5
4135.019	-9.5
4137.427	-11.5
4139.833	-10.5
4142.237	-10.5
