Data from h250_RamanShift_02.txt Node
Date: Mon Mar 19 12:39:53 IST 2018
User: aro
Spectrometer: QEPB0276
Trigger mode: 0
Integration Time (sec): 5.000000E0
Scans to average: 1
Electric dark correction enabled: true
Nonlinearity correction enabled: false
Boxcar width: 0
XAxis mode: Raman Shifts
Number of Pixels in Spectrum: 1044
>>>>>Begin Spectral Data<<<<<
160.701	-2.6
166.742	1.4
172.777	9.4
178.805	36.4
184.826	88.4
190.841	186.4
196.849	295.4
202.85	387.4
208.845	411.4
214.833	413.4
220.815	395.4
226.789	397.4
232.758	372.4
238.719	376.4
244.674	374.4
250.623	354.4
256.565	349.4
262.5	326.4
268.429	320.4
274.351	307.4
280.267	300.4
286.176	296.4
292.079	286.4
297.975	284.4
303.865	272.4
309.748	271.4
315.625	274.4
321.495	271.4
327.359	277.4
333.217	267.4
339.068	262.4
344.912	261.4
350.751	262.4
356.583	257.4
362.408	257.4
368.227	260.4
374.04	259.4
379.847	264.4
385.647	274.4
391.44	291.4
397.228	306.4
403.009	322.4
408.784	329.4
414.553	316.4
420.315	316.4
426.071	313.4
431.821	292.4
437.565	279.4
443.302	262.4
449.033	271.4
454.758	278.4
460.477	272.4
466.189	282.4
471.896	262.4
477.596	257.4
483.29	255.4
488.978	250.4
494.66	247.4
500.335	245.4
506.005	240.4
511.668	235.4
517.325	223.4
522.977	218.4
528.622	222.4
534.261	221.4
539.894	209.4
545.521	203.4
551.141	198.4
556.756	199.4
562.365	192.4
567.968	192.4
573.565	189.4
579.155	173.4
584.74	183.4
590.319	178.4
595.892	178.4
601.459	173.4
607.02	176.4
612.575	174.4
618.124	172.4
623.667	175.4
629.204	170.4
634.735	167.4
640.261	162.4
645.781	168.4
651.294	172.4
656.802	172.4
662.304	160.4
667.8	157.4
673.29	158.4
678.775	163.4
684.254	152.4
689.726	151.4
695.193	151.4
700.655	152.4
706.11	152.4
711.56	151.4
717.004	145.4
722.442	146.4
727.874	145.4
733.301	142.4
738.722	147.4
744.137	145.4
749.547	143.4
754.951	145.4
760.349	144.4
765.741	154.4
771.128	151.4
776.509	151.4
781.885	152.4
787.254	156.4
792.618	151.4
797.977	168.4
803.33	181.4
808.677	221.4
814.019	243.4
819.355	234.4
824.686	198.4
830.011	178.4
835.33	179.4
840.644	206.4
845.952	216.4
851.255	207.4
856.552	183.4
861.844	152.4
867.13	144.4
872.41	133.4
877.686	128.4
882.955	125.4
888.219	127.4
893.478	132.4
898.731	125.4
903.979	128.4
909.221	134.4
914.458	125.4
919.69	116.4
924.916	114.4
930.136	113.4
935.351	121.4
940.561	126.4
945.766	134.4
950.965	125.4
956.158	124.4
961.347	121.4
966.529	125.4
971.707	128.4
976.879	148.4
982.046	141.4
987.208	131.4
992.364	128.4
997.515	129.4
1002.66	136.4
1007.801	135.4
1012.936	124.4
1018.066	117.4
1023.19	107.4
1028.309	113.4
1033.423	120.4
1038.532	132.4
1043.636	143.4
1048.734	136.4
1053.827	123.4
1058.915	112.4
1063.998	106.4
1069.075	99.4
1074.147	93.4
1079.214	99.4
1084.276	103.4
1089.333	104.4
1094.385	104.4
1099.431	111.4
1104.472	109.4
1109.509	107.4
1114.54	101.4
1119.565	97.4
1124.586	99.4
1129.602	96.4
1134.613	100.4
1139.618	105.4
1144.619	122.4
1149.614	133.4
1154.604	165.4
1159.589	178.4
1164.57	169.4
1169.545	158.4
1174.515	155.4
1179.48	133.4
1184.44	108.4
1189.395	100.4
1194.345	95.4
1199.29	94.4
1204.23	99.4
1209.165	98.4
1214.095	97.4
1219.021	108.4
1223.941	128.4
1228.856	126.4
1233.766	116.4
1238.672	103.4
1243.572	97.4
1248.467	97.4
1253.358	90.4
1258.244	99.4
1263.124	91.4
1268	90.4
1272.871	89.4
1277.737	87.4
1282.599	93.4
1287.455	89.4
1292.306	94.4
1297.153	93.4
1301.995	95.4
1306.832	97.4
1311.664	98.4
1316.491	103.4
1321.314	113.4
1326.132	126.4
1330.945	158.4
1335.753	175.4
1340.556	164.4
1345.354	128.4
1350.148	105.4
1354.937	102.4
1359.722	104.4
1364.501	115.4
1369.276	109.4
1374.046	103.4
1378.811	91.4
1383.572	87.4
1388.327	80.4
1393.079	73.4
1397.825	73.4
1402.567	69.4
1407.304	74.4
1412.036	74.4
1416.764	65.4
1421.487	72.4
1426.205	70.4
1430.919	81.4
1435.628	92.4
1440.333	113.4
1445.032	125.4
1449.727	125.4
1454.418	154.4
1459.104	185.4
1463.785	199.4
1468.462	198.4
1473.134	151.4
1477.802	110.4
1482.465	86.4
1487.123	76.4
1491.777	68.4
1496.426	69.4
1501.071	66.4
1505.711	75.4
1510.347	67.4
1514.978	63.4
1519.604	63.4
1524.226	55.4
1528.844	66.4
1533.457	62.4
1538.065	64.4
1542.669	63.4
1547.269	67.4
1551.864	63.4
1556.454	68.4
1561.041	62.4
1565.622	60.4
1570.199	60.4
1574.772	57.4
1579.34	65.4
1583.904	69.4
1588.464	71.4
1593.019	65.4
1597.569	69.4
1602.115	74.4
1606.657	68.4
1611.195	72.4
1615.728	70.4
1620.256	73.4
1624.78	72.4
1629.3	77.4
1633.816	78.4
1638.327	76.4
1642.834	78.4
1647.336	72.4
1651.834	75.4
1656.328	71.4
1660.817	72.4
1665.302	76.4
1669.783	73.4
1674.259	71.4
1678.732	71.4
1683.199	68.4
1687.663	59.4
1692.122	56.4
1696.577	55.4
1701.028	56.4
1705.474	52.4
1709.917	53.4
1714.355	49.4
1718.788	50.4
1723.218	49.4
1727.643	39.4
1732.064	39.4
1736.481	38.4
1740.893	41.4
1745.301	40.4
1749.705	39.4
1754.105	40.4
1758.501	38.4
1762.893	33.4
1767.28	28.4
1771.663	32.4
1776.042	27.4
1780.417	28.4
1784.787	35.4
1789.154	28.4
1793.516	35.4
1797.874	28.4
1802.228	29.4
1806.578	24.4
1810.924	30.4
1815.266	25.4
1819.603	26.4
1823.937	25.4
1828.266	26.4
1832.591	28.4
1836.913	25.4
1841.23	24.4
1845.543	25.4
1849.852	23.4
1854.156	20.4
1858.457	20.4
1862.754	27.4
1867.047	20.4
1871.335	32.4
1875.62	27.4
1879.9	22.4
1884.177	24.4
1888.449	21.4
1892.718	21.4
1896.982	21.4
1901.243	24.4
1905.499	23.4
1909.752	22.4
1914	23.4
1918.245	22.4
1922.485	20.4
1926.722	25.4
1930.954	22.4
1935.183	20.4
1939.408	23.4
1943.628	28.4
1947.845	25.4
1952.058	28.4
1956.267	24.4
1960.472	17.4
1964.673	21.4
1968.87	20.4
1973.063	23.4
1977.252	19.4
1981.438	18.4
1985.619	23.4
1989.797	20.4
1993.971	18.4
1998.14	20.4
2002.306	15.4
2006.469	18.4
2010.627	17.4
2014.781	20.4
2018.932	23.4
2023.078	20.4
2027.221	21.4
2031.36	20.4
2035.495	22.4
2039.627	15.4
2043.754	16.4
2047.878	18.4
2051.998	20.4
2056.114	18.4
2060.226	25.4
2064.334	18.4
2068.439	15.4
2072.54	18.4
2076.637	20.4
2080.73	19.4
2084.82	19.4
2088.906	17.4
2092.988	18.4
2097.066	16.4
2101.14	18.4
2105.211	19.4
2109.278	17.4
2113.342	18.4
2117.401	20.4
2121.457	18.4
2125.509	15.4
2129.558	13.4
2133.602	17.4
2137.643	14.4
2141.681	15.4
2145.714	13.4
2149.744	18.4
2153.77	15.4
2157.793	20.4
2161.812	14.4
2165.827	19.4
2169.838	8.4
2173.846	7.4
2177.851	12.4
2181.851	11.4
2185.848	15.4
2189.841	13.4
2193.831	12.4
2197.817	15.4
2201.799	13.4
2205.778	10.4
2209.753	7.4
2213.725	6.4
2217.693	8.4
2221.657	10.4
2225.618	13.4
2229.575	12.4
2233.529	12.4
2237.479	11.4
2241.425	8.4
2245.368	10.4
2249.307	5.4
2253.243	4.4
2257.175	6.4
2261.104	12.4
2265.029	10.4
2268.95	5.4
2272.868	9.4
2276.783	6.4
2280.694	7.4
2284.601	7.4
2288.505	8.4
2292.405	6.4
2296.302	3.4
2300.195	6.4
2304.085	5.4
2307.971	7.4
2311.854	3.4
2315.734	8.4
2319.609	6.4
2323.482	4.4
2327.351	4.4
2331.216	6.4
2335.078	3.4
2338.937	2.4
2342.792	-0.6
2346.643	-0.6
2350.492	3.4
2354.336	3.4
2358.178	3.4
2362.015	4.4
2365.85	6.4
2369.681	2.4
2373.508	-2.6
2377.333	-1.6
2381.153	0.4
2384.971	3.4
2388.785	2.4
2392.595	7.4
2396.402	6.4
2400.206	4.4
2404.007	0.4
2407.804	-0.6
2411.597	-2.6
2415.388	0.4
2419.174	3.4
2422.958	5.4
2426.738	-1.6
2430.515	9.4
2434.289	3.4
2438.059	-0.6
2441.825	-3.6
2445.589	1.4
2449.349	-1.6
2453.106	3.4
2456.859	1.4
2460.61	2.4
2464.356	6.4
2468.1	3.4
2471.84	-1.6
2475.577	-0.6
2479.311	-6.6
2483.041	0.4
2486.768	-1.6
2490.492	-0.6
2494.213	1.4
2497.93	1.4
2501.644	0.4
2505.355	-0.6
2509.062	-2.6
2512.766	-3.6
2516.467	-3.6
2520.165	-1.6
2523.859	-0.6
2527.551	0.4
2531.239	1.4
2534.923	-1.6
2538.605	-0.6
2542.283	-4.6
2545.958	3.4
2549.63	-0.6
2553.299	0.4
2556.964	0.4
2560.626	-3.6
2564.285	-4.6
2567.941	-0.6
2571.594	-2.6
2575.243	-2.6
2578.89	-0.6
2582.533	-2.6
2586.173	-3.6
2589.809	0.4
2593.443	-1.6
2597.073	-0.6
2600.701	-5.6
2604.325	-0.6
2607.946	0.4
2611.564	7.4
2615.178	2.4
2618.79	1.4
2622.398	-0.6
2626.004	-1.6
2629.606	0.4
2633.205	-1.6
2636.801	1.4
2640.394	-2.6
2643.983	0.4
2647.57	0.4
2651.153	5.4
2654.734	1.4
2658.311	-3.6
2661.885	0.4
2665.456	-0.6
2669.025	2.4
2672.589	2.4
2676.151	2.4
2679.71	4.4
2683.266	0.4
2686.819	4.4
2690.368	-1.6
2693.915	-1.6
2697.458	-2.6
2700.999	3.4
2704.536	1.4
2708.071	6.4
2711.602	5.4
2715.13	7.4
2718.656	4.4
2722.178	2.4
2725.697	-0.6
2729.214	2.4
2732.727	3.4
2736.237	6.4
2739.744	5.4
2743.249	9.4
2746.75	7.4
2750.248	1.4
2753.743	-1.6
2757.236	-0.6
2760.725	0.4
2764.211	-0.6
2767.695	1.4
2771.175	1.4
2774.652	3.4
2778.127	2.4
2781.598	0.4
2785.067	-0.6
2788.532	-2.6
2791.995	-1.6
2795.455	1.4
2798.911	1.4
2802.365	5.4
2805.816	4.4
2809.264	8.4
2812.709	8.4
2816.151	8.4
2819.59	4.4
2823.026	8.4
2826.46	6.4
2829.89	12.4
2833.318	14.4
2836.742	24.4
2840.164	30.4
2843.583	39.4
2846.999	36.4
2850.412	35.4
2853.822	32.4
2857.229	29.4
2860.634	29.4
2864.035	36.4
2867.434	46.4
2870.83	58.4
2874.223	68.4
2877.613	71.4
2881	64.4
2884.385	73.4
2887.766	79.4
2891.145	79.4
2894.521	78.4
2897.894	77.4
2901.264	71.4
2904.631	71.4
2907.996	70.4
2911.358	65.4
2914.717	59.4
2918.073	50.4
2921.426	52.4
2924.777	47.4
2928.124	48.4
2931.469	50.4
2934.811	47.4
2938.15	45.4
2941.487	38.4
2944.821	37.4
2948.152	36.4
2951.48	40.4
2954.805	44.4
2958.128	46.4
2961.447	43.4
2964.765	45.4
2968.079	47.4
2971.39	42.4
2974.699	39.4
2978.005	24.4
2981.308	27.4
2984.609	23.4
2987.907	23.4
2991.202	18.4
2994.494	21.4
2997.784	22.4
3001.07	24.4
3004.355	21.4
3007.636	21.4
3010.915	18.4
3014.191	23.4
3017.464	18.4
3020.734	21.4
3024.002	19.4
3027.267	26.4
3030.53	24.4
3033.789	24.4
3037.046	23.4
3040.301	26.4
3043.552	24.4
3046.801	27.4
3050.048	27.4
3053.291	28.4
3056.532	31.4
3059.771	37.4
3063.006	31.4
3066.239	31.4
3069.469	32.4
3072.697	35.4
3075.922	33.4
3079.144	34.4
3082.364	40.4
3085.581	39.4
3088.795	49.4
3092.007	44.4
3095.216	45.4
3098.423	39.4
3101.627	39.4
3104.828	45.4
3108.026	45.4
3111.222	45.4
3114.416	52.4
3117.607	55.4
3120.795	51.4
3123.98	54.4
3127.163	57.4
3130.344	54.4
3133.521	55.4
3136.696	57.4
3139.869	60.4
3143.039	60.4
3146.206	62.4
3149.371	60.4
3152.533	63.4
3155.693	65.4
3158.85	61.4
3162.005	65.4
3165.157	59.4
3168.306	62.4
3171.453	61.4
3174.597	65.4
3177.739	68.4
3180.878	67.4
3184.014	70.4
3187.149	62.4
3190.28	65.4
3193.409	64.4
3196.536	65.4
3199.659	66.4
3202.781	72.4
3205.9	70.4
3209.016	69.4
3212.13	68.4
3215.241	68.4
3218.35	68.4
3221.456	68.4
3224.56	64.4
3227.661	63.4
3230.76	67.4
3233.856	63.4
3236.95	70.4
3240.041	58.4
3243.13	54.4
3246.216	60.4
3249.3	59.4
3252.382	56.4
3255.46	58.4
3258.537	62.4
3261.611	62.4
3264.682	56.4
3267.751	57.4
3270.818	56.4
3273.882	55.4
3276.943	57.4
3280.002	55.4
3283.059	50.4
3286.113	53.4
3289.165	51.4
3292.214	52.4
3295.261	50.4
3298.306	52.4
3301.348	50.4
3304.387	48.4
3307.425	49.4
3310.459	51.4
3313.492	44.4
3316.521	51.4
3319.549	46.4
3322.574	46.4
3325.597	47.4
3328.617	47.4
3331.635	51.4
3334.65	44.4
3337.663	44.4
3340.674	44.4
3343.682	50.4
3346.688	48.4
3349.691	50.4
3352.692	45.4
3355.691	48.4
3358.687	40.4
3361.681	45.4
3364.673	46.4
3367.662	41.4
3370.649	51.4
3373.633	41.4
3376.615	46.4
3379.595	38.4
3382.572	43.4
3385.547	38.4
3388.52	39.4
3391.49	42.4
3394.458	37.4
3397.424	36.4
3400.387	43.4
3403.348	37.4
3406.307	37.4
3409.263	38.4
3412.217	35.4
3415.168	36.4
3418.118	35.4
3421.065	38.4
3424.009	34.4
3426.951	33.4
3429.891	31.4
3432.829	30.4
3435.764	30.4
3438.697	29.4
3441.628	32.4
3444.557	29.4
3447.483	27.4
3450.407	31.4
3453.328	27.4
3456.247	21.4
3459.164	24.4
3462.079	25.4
3464.991	23.4
3467.902	22.4
3470.809	18.4
3473.715	22.4
3476.618	17.4
3479.519	16.4
3482.418	15.4
3485.315	14.4
3488.209	15.4
3491.101	17.4
3493.99	11.4
3496.878	15.4
3499.763	10.4
3502.646	12.4
3505.527	8.4
3508.405	10.4
3511.281	11.4
3514.155	8.4
3517.027	14.4
3519.897	10.4
3522.764	9.4
3525.629	4.4
3528.492	7.4
3531.352	4.4
3534.211	4.4
3537.067	2.4
3539.921	1.4
3542.773	4.4
3545.622	7.4
3548.469	3.4
3551.315	10.4
3554.157	4.4
3556.998	1.4
3559.837	-3.6
3562.673	-3.6
3565.507	-3.6
3568.339	1.4
3571.169	0.4
3573.996	3.4
3576.822	0.4
3579.645	1.4
3582.466	-0.6
3585.285	0.4
3588.101	-3.6
3590.916	-1.6
3593.728	-2.6
3596.538	-1.6
3599.346	-1.6
3602.152	-1.6
3604.956	-3.6
3607.757	-2.6
3610.556	-4.6
3613.354	-0.6
3616.149	-5.6
3618.942	-5.6
3621.732	-1.6
3624.521	-3.6
3627.307	-5.6
3630.092	-4.6
3632.874	-3.6
3635.654	-2.6
3638.432	-5.6
3641.208	-6.6
3643.982	-3.6
3646.753	-5.6
3649.523	-7.6
3652.29	-5.6
3655.055	-6.6
3657.818	-5.6
3660.579	-2.6
3663.338	-3.6
3666.095	-3.6
3668.849	-2.6
3671.602	-6.6
3674.352	-5.6
3677.101	-5.6
3679.847	-7.6
3682.591	-4.6
3685.333	-7.6
3688.073	-6.6
3690.811	-3.6
3693.547	-7.6
3696.281	-10.6
3699.013	-9.6
3701.742	-8.6
3704.47	-8.6
3707.195	-6.6
3709.919	-10.6
3712.64	-8.6
3715.359	-5.6
3718.076	-5.6
3720.792	-6.6
3723.505	-8.6
3726.216	-11.6
3728.925	-10.6
3731.632	-7.6
3734.336	-8.6
3737.039	-3.6
3739.74	-7.6
3742.439	-7.6
3745.136	-5.6
3747.83	-9.6
3750.523	-8.6
3753.213	-9.6
3755.902	-8.6
3758.589	-8.6
3761.273	-4.6
3763.956	-7.6
3766.636	-7.6
3769.315	-9.6
3771.991	-9.6
3774.665	-10.6
3777.338	-10.6
3780.008	-9.6
3782.677	-11.6
3785.343	-9.6
3788.007	-9.6
3790.67	-5.6
3793.33	-4.6
3795.989	-9.6
3798.645	-10.6
3801.299	-7.6
3803.952	-10.6
3806.602	-9.6
3809.251	-6.6
3811.897	-8.6
3814.542	-5.6
3817.184	-6.6
3819.825	-11.6
3822.463	-12.6
3825.1	-9.6
3827.735	-11.6
3830.367	-7.6
3832.998	-9.6
3835.627	-5.6
3838.253	-8.6
3840.878	-9.6
3843.501	-8.6
3846.122	-11.6
3848.741	-7.6
3851.358	-6.6
3853.973	-5.6
3856.586	-9.6
3859.197	-8.6
3861.806	-10.6
3864.414	-11.6
3867.019	-8.6
3869.622	-10.6
3872.224	-7.6
3874.823	-6.6
3877.421	-7.6
3880.016	-6.6
3882.61	-5.6
3885.202	-3.6
3887.792	-5.6
3890.38	-6.6
3892.966	-7.6
3895.55	-6.6
3898.132	-8.6
3900.713	-6.6
3903.291	-7.6
3905.868	-7.6
3908.442	-8.6
3911.015	-13.6
3913.586	-10.6
3916.155	-7.6
3918.722	-6.6
3921.287	-6.6
3923.85	-4.6
3926.411	-6.6
3928.971	-13.6
3931.528	-9.6
3934.084	-9.6
3936.638	-11.6
3939.19	-10.6
3941.74	-6.6
3944.288	-9.6
3946.834	-7.6
3949.378	-3.6
3951.921	-10.6
3954.462	-10.6
3957	-13.6
3959.537	-9.6
3962.072	-9.6
3964.606	-8.6
3967.137	-6.6
3969.667	-5.6
3972.194	-10.6
3974.72	-4.6
3977.244	-12.6
3979.766	-10.6
3982.286	-12.6
3984.805	-10.6
3987.321	-9.6
3989.836	-8.6
3992.349	-5.6
3994.86	-7.6
3997.369	-9.6
3999.877	-10.6
4002.382	-12.6
4004.886	-14.6
4007.388	-12.6
4009.888	-13.6
4012.386	-7.6
4014.883	-7.6
4017.377	-3.6
4019.87	-6.6
4022.361	-8.6
4024.85	-9.6
4027.338	-9.6
4029.823	-11.6
4032.307	-8.6
4034.789	-6.6
4037.269	-7.6
4039.747	-4.6
4042.224	-7.6
4044.699	-7.6
4047.172	-8.6
4049.643	-13.6
4052.112	-13.6
4054.58	-10.6
4057.046	-9.6
4059.51	-7.6
4061.972	-5.6
4064.432	-9.6
4066.891	-6.6
4069.348	-9.6
4071.803	-12.6
4074.256	-13.6
4076.708	-9.6
4079.158	-8.6
4081.606	-8.6
4084.052	-3.6
4086.497	-7.6
4088.939	-5.6
4091.38	-6.6
4093.819	-8.6
4096.257	-11.6
4098.693	-10.6
4101.127	-8.6
4103.559	-4.6
4105.989	3.4
4108.418	1.4
4110.845	2.4
4113.27	0.4
4115.694	-1.6
4118.115	-0.6
4120.535	-13.6
4122.954	-12.6
4125.37	-13.6
4127.785	-11.6
4130.198	-6.6
4132.609	-6.6
4135.019	-6.6
4137.427	-9.6
4139.833	-11.6
4142.237	-16.6
