Data from h300_RamanShift_03.txt Node
Date: Mon Mar 19 12:40:48 IST 2018
User: aro
Spectrometer: QEPB0276
Trigger mode: 0
Integration Time (sec): 5.000000E0
Scans to average: 1
Electric dark correction enabled: true
Nonlinearity correction enabled: false
Boxcar width: 0
XAxis mode: Raman Shifts
Number of Pixels in Spectrum: 1044
>>>>>Begin Spectral Data<<<<<
160.701	-7.6
166.742	0.4
172.777	9.4
178.805	42.4
184.826	107.4
190.841	226.4
196.849	381.4
202.85	478.4
208.845	501.4
214.833	500.4
220.815	487.4
226.789	474.4
232.758	451.4
238.719	449.4
244.674	438.4
250.623	427.4
256.565	409.4
262.5	392.4
268.429	382.4
274.351	368.4
280.267	353.4
286.176	338.4
292.079	331.4
297.975	323.4
303.865	314.4
309.748	312.4
315.625	310.4
321.495	309.4
327.359	313.4
333.217	305.4
339.068	300.4
344.912	303.4
350.751	289.4
356.583	296.4
362.408	303.4
368.227	288.4
374.04	292.4
379.847	297.4
385.647	312.4
391.44	325.4
397.228	328.4
403.009	355.4
408.784	358.4
414.553	350.4
420.315	350.4
426.071	349.4
431.821	336.4
437.565	311.4
443.302	306.4
449.033	314.4
454.758	313.4
460.477	309.4
466.189	302.4
471.896	293.4
477.596	292.4
483.29	283.4
488.978	283.4
494.66	273.4
500.335	276.4
506.005	265.4
511.668	258.4
517.325	249.4
522.977	254.4
528.622	254.4
534.261	256.4
539.894	242.4
545.521	236.4
551.141	222.4
556.756	227.4
562.365	215.4
567.968	215.4
573.565	220.4
579.155	211.4
584.74	212.4
590.319	201.4
595.892	212.4
601.459	201.4
607.02	208.4
612.575	200.4
618.124	198.4
623.667	187.4
629.204	191.4
634.735	188.4
640.261	188.4
645.781	195.4
651.294	198.4
656.802	203.4
662.304	185.4
667.8	184.4
673.29	178.4
678.775	178.4
684.254	183.4
689.726	172.4
695.193	172.4
700.655	179.4
706.11	175.4
711.56	166.4
717.004	167.4
722.442	171.4
727.874	165.4
733.301	169.4
738.722	163.4
744.137	166.4
749.547	166.4
754.951	167.4
760.349	166.4
765.741	169.4
771.128	168.4
776.509	169.4
781.885	170.4
787.254	172.4
792.618	173.4
797.977	181.4
803.33	204.4
808.677	233.4
814.019	259.4
819.355	255.4
824.686	220.4
830.011	190.4
835.33	196.4
840.644	217.4
845.952	231.4
851.255	223.4
856.552	198.4
861.844	170.4
867.13	159.4
872.41	154.4
877.686	147.4
882.955	142.4
888.219	141.4
893.478	141.4
898.731	144.4
903.979	142.4
909.221	148.4
914.458	130.4
919.69	135.4
924.916	126.4
930.136	123.4
935.351	133.4
940.561	133.4
945.766	137.4
950.965	133.4
956.158	132.4
961.347	127.4
966.529	138.4
971.707	142.4
976.879	153.4
982.046	158.4
987.208	135.4
992.364	130.4
997.515	130.4
1002.66	139.4
1007.801	145.4
1012.936	132.4
1018.066	127.4
1023.19	123.4
1028.309	121.4
1033.423	134.4
1038.532	141.4
1043.636	149.4
1048.734	143.4
1053.827	131.4
1058.915	120.4
1063.998	110.4
1069.075	107.4
1074.147	108.4
1079.214	104.4
1084.276	110.4
1089.333	116.4
1094.385	116.4
1099.431	113.4
1104.472	107.4
1109.509	112.4
1114.54	109.4
1119.565	107.4
1124.586	112.4
1129.602	106.4
1134.613	106.4
1139.618	118.4
1144.619	126.4
1149.614	138.4
1154.604	171.4
1159.589	186.4
1164.57	181.4
1169.545	170.4
1174.515	163.4
1179.48	137.4
1184.44	120.4
1189.395	106.4
1194.345	105.4
1199.29	101.4
1204.23	105.4
1209.165	101.4
1214.095	112.4
1219.021	120.4
1223.941	134.4
1228.856	126.4
1233.766	121.4
1238.672	110.4
1243.572	111.4
1248.467	104.4
1253.358	102.4
1258.244	102.4
1263.124	106.4
1268	90.4
1272.871	94.4
1277.737	93.4
1282.599	99.4
1287.455	102.4
1292.306	103.4
1297.153	99.4
1301.995	102.4
1306.832	106.4
1311.664	101.4
1316.491	109.4
1321.314	113.4
1326.132	136.4
1330.945	164.4
1335.753	177.4
1340.556	164.4
1345.354	126.4
1350.148	109.4
1354.937	103.4
1359.722	110.4
1364.501	117.4
1369.276	118.4
1374.046	108.4
1378.811	97.4
1383.572	87.4
1388.327	88.4
1393.079	77.4
1397.825	78.4
1402.567	73.4
1407.304	77.4
1412.036	73.4
1416.764	75.4
1421.487	78.4
1426.205	74.4
1430.919	82.4
1435.628	98.4
1440.333	117.4
1445.032	130.4
1449.727	133.4
1454.418	151.4
1459.104	178.4
1463.785	201.4
1468.462	184.4
1473.134	148.4
1477.802	107.4
1482.465	83.4
1487.123	76.4
1491.777	69.4
1496.426	72.4
1501.071	69.4
1505.711	70.4
1510.347	69.4
1514.978	67.4
1519.604	70.4
1524.226	58.4
1528.844	70.4
1533.457	63.4
1538.065	65.4
1542.669	66.4
1547.269	70.4
1551.864	64.4
1556.454	66.4
1561.041	63.4
1565.622	65.4
1570.199	69.4
1574.772	69.4
1579.34	74.4
1583.904	76.4
1588.464	73.4
1593.019	74.4
1597.569	79.4
1602.115	83.4
1606.657	84.4
1611.195	83.4
1615.728	83.4
1620.256	80.4
1624.78	84.4
1629.3	84.4
1633.816	83.4
1638.327	94.4
1642.834	85.4
1647.336	89.4
1651.834	90.4
1656.328	90.4
1660.817	87.4
1665.302	83.4
1669.783	78.4
1674.259	74.4
1678.732	76.4
1683.199	67.4
1687.663	67.4
1692.122	62.4
1696.577	58.4
1701.028	64.4
1705.474	56.4
1709.917	57.4
1714.355	50.4
1718.788	47.4
1723.218	45.4
1727.643	40.4
1732.064	44.4
1736.481	45.4
1740.893	38.4
1745.301	45.4
1749.705	36.4
1754.105	37.4
1758.501	32.4
1762.893	30.4
1767.28	28.4
1771.663	34.4
1776.042	22.4
1780.417	36.4
1784.787	33.4
1789.154	27.4
1793.516	30.4
1797.874	28.4
1802.228	26.4
1806.578	21.4
1810.924	28.4
1815.266	27.4
1819.603	22.4
1823.937	33.4
1828.266	29.4
1832.591	24.4
1836.913	23.4
1841.23	23.4
1845.543	19.4
1849.852	23.4
1854.156	22.4
1858.457	23.4
1862.754	32.4
1867.047	26.4
1871.335	25.4
1875.62	21.4
1879.9	20.4
1884.177	22.4
1888.449	15.4
1892.718	23.4
1896.982	20.4
1901.243	25.4
1905.499	24.4
1909.752	24.4
1914	20.4
1918.245	16.4
1922.485	17.4
1926.722	20.4
1930.954	17.4
1935.183	19.4
1939.408	22.4
1943.628	26.4
1947.845	22.4
1952.058	20.4
1956.267	19.4
1960.472	15.4
1964.673	20.4
1968.87	14.4
1973.063	21.4
1977.252	17.4
1981.438	18.4
1985.619	21.4
1989.797	17.4
1993.971	16.4
1998.14	19.4
2002.306	16.4
2006.469	17.4
2010.627	22.4
2014.781	19.4
2018.932	23.4
2023.078	20.4
2027.221	17.4
2031.36	18.4
2035.495	19.4
2039.627	17.4
2043.754	17.4
2047.878	20.4
2051.998	20.4
2056.114	20.4
2060.226	24.4
2064.334	17.4
2068.439	16.4
2072.54	14.4
2076.637	19.4
2080.73	16.4
2084.82	20.4
2088.906	19.4
2092.988	19.4
2097.066	17.4
2101.14	22.4
2105.211	17.4
2109.278	15.4
2113.342	16.4
2117.401	15.4
2121.457	11.4
2125.509	18.4
2129.558	17.4
2133.602	17.4
2137.643	15.4
2141.681	15.4
2145.714	13.4
2149.744	16.4
2153.77	6.4
2157.793	16.4
2161.812	15.4
2165.827	18.4
2169.838	13.4
2173.846	12.4
2177.851	11.4
2181.851	10.4
2185.848	13.4
2189.841	10.4
2193.831	8.4
2197.817	11.4
2201.799	10.4
2205.778	9.4
2209.753	11.4
2213.725	8.4
2217.693	9.4
2221.657	8.4
2225.618	10.4
2229.575	9.4
2233.529	6.4
2237.479	5.4
2241.425	4.4
2245.368	11.4
2249.307	4.4
2253.243	8.4
2257.175	6.4
2261.104	6.4
2265.029	2.4
2268.95	4.4
2272.868	5.4
2276.783	3.4
2280.694	7.4
2284.601	4.4
2288.505	7.4
2292.405	7.4
2296.302	3.4
2300.195	4.4
2304.085	0.4
2307.971	2.4
2311.854	0.4
2315.734	5.4
2319.609	4.4
2323.482	2.4
2327.351	0.4
2331.216	3.4
2335.078	1.4
2338.937	1.4
2342.792	-1.6
2346.643	1.4
2350.492	2.4
2354.336	1.4
2358.178	1.4
2362.015	1.4
2365.85	0.4
2369.681	0.4
2373.508	-2.6
2377.333	-0.6
2381.153	-1.6
2384.971	2.4
2388.785	2.4
2392.595	3.4
2396.402	0.4
2400.206	2.4
2404.007	-1.6
2407.804	-1.6
2411.597	2.4
2415.388	-3.6
2419.174	1.4
2422.958	3.4
2426.738	-2.6
2430.515	4.4
2434.289	-0.6
2438.059	-4.6
2441.825	-6.6
2445.589	-3.6
2449.349	-2.6
2453.106	1.4
2456.859	1.4
2460.61	0.4
2464.356	1.4
2468.1	-2.6
2471.84	-4.6
2475.577	-3.6
2479.311	-4.6
2483.041	-0.6
2486.768	0.4
2490.492	1.4
2494.213	1.4
2497.93	-2.6
2501.644	-1.6
2505.355	-0.6
2509.062	-8.6
2512.766	-0.6
2516.467	-7.6
2520.165	-2.6
2523.859	-2.6
2527.551	-3.6
2531.239	-2.6
2534.923	-5.6
2538.605	-5.6
2542.283	-10.6
2545.958	-2.6
2549.63	-1.6
2553.299	-1.6
2556.964	-1.6
2560.626	-0.6
2564.285	-5.6
2567.941	-5.6
2571.594	-7.6
2575.243	-7.6
2578.89	-3.6
2582.533	-4.6
2586.173	-3.6
2589.809	-0.6
2593.443	2.4
2597.073	-1.6
2600.701	-7.6
2604.325	-7.6
2607.946	-3.6
2611.564	0.4
2615.178	-1.6
2618.79	-2.6
2622.398	-2.6
2626.004	1.4
2629.606	-0.6
2633.205	-2.6
2636.801	-1.6
2640.394	-5.6
2643.983	-3.6
2647.57	0.4
2651.153	-0.6
2654.734	1.4
2658.311	-2.6
2661.885	-0.6
2665.456	-2.6
2669.025	-3.6
2672.589	-1.6
2676.151	-1.6
2679.71	-1.6
2683.266	-3.6
2686.819	-1.6
2690.368	-0.6
2693.915	-0.6
2697.458	-1.6
2700.999	0.4
2704.536	-1.6
2708.071	1.4
2711.602	-2.6
2715.13	3.4
2718.656	0.4
2722.178	-1.6
2725.697	-1.6
2729.214	2.4
2732.727	1.4
2736.237	4.4
2739.744	2.4
2743.249	5.4
2746.75	0.4
2750.248	-1.6
2753.743	-2.6
2757.236	2.4
2760.725	-2.6
2764.211	2.4
2767.695	-0.6
2771.175	-2.6
2774.652	1.4
2778.127	-3.6
2781.598	-0.6
2785.067	-4.6
2788.532	-2.6
2791.995	0.4
2795.455	-4.6
2798.911	1.4
2802.365	2.4
2805.816	3.4
2809.264	1.4
2812.709	2.4
2816.151	4.4
2819.59	4.4
2823.026	4.4
2826.46	5.4
2829.89	11.4
2833.318	14.4
2836.742	17.4
2840.164	30.4
2843.583	29.4
2846.999	30.4
2850.412	28.4
2853.822	25.4
2857.229	28.4
2860.634	27.4
2864.035	31.4
2867.434	43.4
2870.83	51.4
2874.223	59.4
2877.613	62.4
2881	62.4
2884.385	64.4
2887.766	71.4
2891.145	69.4
2894.521	70.4
2897.894	66.4
2901.264	68.4
2904.631	64.4
2907.996	58.4
2911.358	59.4
2914.717	57.4
2918.073	49.4
2921.426	46.4
2924.777	44.4
2928.124	47.4
2931.469	42.4
2934.811	42.4
2938.15	45.4
2941.487	37.4
2944.821	40.4
2948.152	36.4
2951.48	37.4
2954.805	40.4
2958.128	45.4
2961.447	46.4
2964.765	42.4
2968.079	46.4
2971.39	38.4
2974.699	32.4
2978.005	26.4
2981.308	27.4
2984.609	21.4
2987.907	23.4
2991.202	24.4
2994.494	25.4
2997.784	25.4
3001.07	25.4
3004.355	23.4
3007.636	26.4
3010.915	23.4
3014.191	25.4
3017.464	24.4
3020.734	29.4
3024.002	23.4
3027.267	27.4
3030.53	26.4
3033.789	30.4
3037.046	26.4
3040.301	30.4
3043.552	30.4
3046.801	30.4
3050.048	33.4
3053.291	36.4
3056.532	36.4
3059.771	42.4
3063.006	36.4
3066.239	37.4
3069.469	39.4
3072.697	42.4
3075.922	40.4
3079.144	46.4
3082.364	47.4
3085.581	53.4
3088.795	54.4
3092.007	52.4
3095.216	52.4
3098.423	52.4
3101.627	51.4
3104.828	57.4
3108.026	59.4
3111.222	56.4
3114.416	67.4
3117.607	65.4
3120.795	67.4
3123.98	66.4
3127.163	69.4
3130.344	65.4
3133.521	70.4
3136.696	74.4
3139.869	72.4
3143.039	79.4
3146.206	80.4
3149.371	81.4
3152.533	81.4
3155.693	83.4
3158.85	84.4
3162.005	80.4
3165.157	80.4
3168.306	82.4
3171.453	80.4
3174.597	87.4
3177.739	79.4
3180.878	85.4
3184.014	84.4
3187.149	82.4
3190.28	81.4
3193.409	79.4
3196.536	84.4
3199.659	84.4
3202.781	86.4
3205.9	91.4
3209.016	85.4
3212.13	87.4
3215.241	85.4
3218.35	87.4
3221.456	82.4
3224.56	85.4
3227.661	75.4
3230.76	82.4
3233.856	79.4
3236.95	81.4
3240.041	74.4
3243.13	78.4
3246.216	76.4
3249.3	72.4
3252.382	67.4
3255.46	76.4
3258.537	69.4
3261.611	73.4
3264.682	72.4
3267.751	70.4
3270.818	71.4
3273.882	69.4
3276.943	71.4
3280.002	70.4
3283.059	61.4
3286.113	71.4
3289.165	60.4
3292.214	65.4
3295.261	65.4
3298.306	68.4
3301.348	64.4
3304.387	67.4
3307.425	64.4
3310.459	61.4
3313.492	59.4
3316.521	65.4
3319.549	60.4
3322.574	59.4
3325.597	59.4
3328.617	61.4
3331.635	62.4
3334.65	61.4
3337.663	60.4
3340.674	65.4
3343.682	63.4
3346.688	62.4
3349.691	61.4
3352.692	59.4
3355.691	56.4
3358.687	54.4
3361.681	61.4
3364.673	65.4
3367.662	55.4
3370.649	63.4
3373.633	54.4
3376.615	56.4
3379.595	48.4
3382.572	54.4
3385.547	48.4
3388.52	47.4
3391.49	53.4
3394.458	53.4
3397.424	49.4
3400.387	45.4
3403.348	46.4
3406.307	43.4
3409.263	44.4
3412.217	47.4
3415.168	48.4
3418.118	49.4
3421.065	47.4
3424.009	44.4
3426.951	42.4
3429.891	38.4
3432.829	38.4
3435.764	36.4
3438.697	32.4
3441.628	36.4
3444.557	38.4
3447.483	35.4
3450.407	36.4
3453.328	33.4
3456.247	24.4
3459.164	28.4
3462.079	28.4
3464.991	27.4
3467.902	28.4
3470.809	29.4
3473.715	27.4
3476.618	25.4
3479.519	21.4
3482.418	22.4
3485.315	16.4
3488.209	16.4
3491.101	16.4
3493.99	16.4
3496.878	18.4
3499.763	23.4
3502.646	21.4
3505.527	12.4
3508.405	17.4
3511.281	11.4
3514.155	8.4
3517.027	12.4
3519.897	13.4
3522.764	15.4
3525.629	9.4
3528.492	10.4
3531.352	6.4
3534.211	6.4
3537.067	-0.6
3539.921	3.4
3542.773	2.4
3545.622	7.4
3548.469	4.4
3551.315	6.4
3554.157	6.4
3556.998	4.4
3559.837	-2.6
3562.673	1.4
3565.507	-1.6
3568.339	2.4
3571.169	0.4
3573.996	3.4
3576.822	0.4
3579.645	0.4
3582.466	-3.6
3585.285	-1.6
3588.101	-5.6
3590.916	-2.6
3593.728	-0.6
3596.538	0.4
3599.346	-1.6
3602.152	0.4
3604.956	-6.6
3607.757	-2.6
3610.556	-5.6
3613.354	-4.6
3616.149	-7.6
3618.942	-4.6
3621.732	-3.6
3624.521	-1.6
3627.307	-5.6
3630.092	-3.6
3632.874	-6.6
3635.654	-4.6
3638.432	-7.6
3641.208	-4.6
3643.982	-3.6
3646.753	-3.6
3649.523	-8.6
3652.29	-4.6
3655.055	-9.6
3657.818	-5.6
3660.579	-5.6
3663.338	-6.6
3666.095	-9.6
3668.849	-4.6
3671.602	-6.6
3674.352	-1.6
3677.101	-7.6
3679.847	-6.6
3682.591	-9.6
3685.333	-5.6
3688.073	-8.6
3690.811	-6.6
3693.547	-7.6
3696.281	-10.6
3699.013	-8.6
3701.742	-7.6
3704.47	-10.6
3707.195	-7.6
3709.919	-10.6
3712.64	-8.6
3715.359	-10.6
3718.076	-9.6
3720.792	-10.6
3723.505	-10.6
3726.216	-11.6
3728.925	-7.6
3731.632	-10.6
3734.336	-9.6
3737.039	-8.6
3739.74	-9.6
3742.439	-10.6
3745.136	-11.6
3747.83	-8.6
3750.523	-10.6
3753.213	-9.6
3755.902	-6.6
3758.589	-8.6
3761.273	-5.6
3763.956	-11.6
3766.636	-13.6
3769.315	-13.6
3771.991	-11.6
3774.665	-7.6
3777.338	-6.6
3780.008	-6.6
3782.677	-9.6
3785.343	-9.6
3788.007	-10.6
3790.67	-11.6
3793.33	-9.6
3795.989	-13.6
3798.645	-9.6
3801.299	-8.6
3803.952	-11.6
3806.602	-7.6
3809.251	-10.6
3811.897	-13.6
3814.542	-12.6
3817.184	-13.6
3819.825	-14.6
3822.463	-14.6
3825.1	-11.6
3827.735	-9.6
3830.367	-10.6
3832.998	-9.6
3835.627	-8.6
3838.253	-9.6
3840.878	-13.6
3843.501	-14.6
3846.122	-12.6
3848.741	-10.6
3851.358	-12.6
3853.973	-8.6
3856.586	-12.6
3859.197	-9.6
3861.806	-14.6
3864.414	-12.6
3867.019	-15.6
3869.622	-13.6
3872.224	-10.6
3874.823	-7.6
3877.421	-6.6
3880.016	-7.6
3882.61	-6.6
3885.202	-5.6
3887.792	-9.6
3890.38	-12.6
3892.966	-12.6
3895.55	-11.6
3898.132	-6.6
3900.713	-4.6
3903.291	-6.6
3905.868	-10.6
3908.442	-11.6
3911.015	-17.6
3913.586	-11.6
3916.155	-12.6
3918.722	-9.6
3921.287	-7.6
3923.85	-7.6
3926.411	-9.6
3928.971	-10.6
3931.528	-10.6
3934.084	-13.6
3936.638	-11.6
3939.19	-10.6
3941.74	-11.6
3944.288	-13.6
3946.834	-8.6
3949.378	-6.6
3951.921	-9.6
3954.462	-11.6
3957	-12.6
3959.537	-10.6
3962.072	-11.6
3964.606	-9.6
3967.137	-9.6
3969.667	-9.6
3972.194	-9.6
3974.72	-8.6
3977.244	-11.6
3979.766	-9.6
3982.286	-14.6
3984.805	-9.6
3987.321	-12.6
3989.836	-11.6
3992.349	-6.6
3994.86	-8.6
3997.369	-8.6
3999.877	-9.6
4002.382	-12.6
4004.886	-9.6
4007.388	-9.6
4009.888	-14.6
4012.386	-12.6
4014.883	-10.6
4017.377	-11.6
4019.87	-10.6
4022.361	-8.6
4024.85	-12.6
4027.338	-13.6
4029.823	-10.6
4032.307	-9.6
4034.789	-9.6
4037.269	-9.6
4039.747	-9.6
4042.224	-13.6
4044.699	-12.6
4047.172	-10.6
4049.643	-11.6
4052.112	-11.6
4054.58	-11.6
4057.046	-11.6
4059.51	-8.6
4061.972	-7.6
4064.432	-11.6
4066.891	-12.6
4069.348	-7.6
4071.803	-12.6
4074.256	-12.6
4076.708	-9.6
4079.158	-8.6
4081.606	-13.6
4084.052	-11.6
4086.497	-12.6
4088.939	-8.6
4091.38	-11.6
4093.819	-11.6
4096.257	-13.6
4098.693	-14.6
4101.127	-14.6
4103.559	-10.6
4105.989	0.4
4108.418	0.4
4110.845	0.4
4113.27	-2.6
4115.694	-3.6
4118.115	1.4
4120.535	-11.6
4122.954	-10.6
4125.37	-14.6
4127.785	-14.6
4130.198	-8.6
4132.609	-12.6
4135.019	-11.6
4137.427	-8.6
4139.833	-12.6
4142.237	-11.6
