Data from 2018-2-14_conc=6_n=7_RamanShift_05.txt Node
Date: Wed Feb 14 15:06:55 IST 2018
User: aro
Spectrometer: QEPB0276
Trigger mode: 0
Integration Time (sec): 3.000000E1
Scans to average: 1
Electric dark correction enabled: true
Nonlinearity correction enabled: false
Boxcar width: 0
XAxis mode: Raman Shifts
Number of Pixels in Spectrum: 1044
>>>>>Begin Spectral Data<<<<<
160.701	-136.2
166.742	53.8
172.777	585.8
178.805	2237.8
184.826	6211.8
190.841	13041.8
196.849	21035.8
202.85	26761.8
208.845	28657.8
214.833	28398.8
220.815	27939.8
226.789	27837.8
232.758	27745.8
238.719	27571.8
244.674	27303.8
250.623	26847.8
256.565	26276.8
262.5	25758.8
268.429	25271.8
274.351	24983.8
280.267	24711.8
286.176	24444.8
292.079	24192.8
297.975	24077.8
303.865	23858.8
309.748	23686.8
315.625	23530.8
321.495	23463.8
327.359	23400.8
333.217	23338.8
339.068	23373.8
344.912	23261.8
350.751	23277.8
356.583	23240.8
362.408	23319.8
368.227	23228.8
374.04	23207.8
379.847	23341.8
385.647	23459.8
391.44	23471.8
397.228	23608.8
403.009	23644.8
408.784	23711.8
414.553	23876.8
420.315	23937.8
426.071	23929.8
431.821	23885.8
437.565	23872.8
443.302	23797.8
449.033	23765.8
454.758	23742.8
460.477	23616.8
466.189	23705.8
471.896	23571.8
477.596	23519.8
483.29	23439.8
488.978	23412.8
494.66	23334.8
500.335	23140.8
506.005	22927.8
511.668	22689.8
517.325	22346.8
522.977	22195.8
528.622	22017.8
534.261	21837.8
539.894	21734.8
545.521	21685.8
551.141	21640.8
556.756	21559.8
562.365	21471.8
567.968	21394.8
573.565	21228.8
579.155	21128.8
584.74	21143.8
590.319	21035.8
595.892	20958.8
601.459	20909.8
607.02	20833.8
612.575	20632.8
618.124	20563.8
623.667	20444.8
629.204	20355.8
634.735	20228.8
640.261	20106.8
645.781	20085.8
651.294	20057.8
656.802	20032.8
662.304	19949.8
667.8	19947.8
673.29	19925.8
678.775	19909.8
684.254	19788.8
689.726	19756.8
695.193	19645.8
700.655	19588.8
706.11	19498.8
711.56	19408.8
717.004	19253.8
722.442	19187.8
727.874	19089.8
733.301	19058.8
738.722	18998.8
744.137	19032.8
749.547	18949.8
754.951	18987.8
760.349	18959.8
765.741	18993.8
771.128	19007.8
776.509	18976.8
781.885	18974.8
787.254	18987.8
792.618	18878.8
797.977	18746.8
803.33	18702.8
808.677	18550.8
814.019	18446.8
819.355	18303.8
824.686	18266.8
830.011	18246.8
835.33	18194.8
840.644	18192.8
845.952	18230.8
851.255	18286.8
856.552	18285.8
861.844	18267.8
867.13	18150.8
872.41	18127.8
877.686	18012.8
882.955	17883.8
888.219	17791.8
893.478	17607.8
898.731	17396.8
903.979	17145.8
909.221	17105.8
914.458	16995.8
919.69	16980.8
924.916	17043.8
930.136	17126.8
935.351	17144.8
940.561	17092.8
945.766	17012.8
950.965	16974.8
956.158	16864.8
961.347	16709.8
966.529	16473.8
971.707	16259.8
976.879	16050.8
982.046	15937.8
987.208	15912.8
992.364	15910.8
997.515	15959.8
1002.66	16103.8
1007.801	16326.8
1012.936	16425.8
1018.066	16495.8
1023.19	16428.8
1028.309	16490.8
1033.423	16418.8
1038.532	16283.8
1043.636	16191.8
1048.734	15950.8
1053.827	15741.8
1058.915	15603.8
1063.998	15512.8
1069.075	15487.8
1074.147	15484.8
1079.214	15525.8
1084.276	15592.8
1089.333	15678.8
1094.385	15743.8
1099.431	15819.8
1104.472	15833.8
1109.509	15734.8
1114.54	15500.8
1119.565	15395.8
1124.586	15132.8
1129.602	14958.8
1134.613	14864.8
1139.618	14826.8
1144.619	14753.8
1149.614	14730.8
1154.604	14738.8
1159.589	14871.8
1164.57	14875.8
1169.545	14857.8
1174.515	14888.8
1179.48	14778.8
1184.44	14684.8
1189.395	14587.8
1194.345	14501.8
1199.29	14442.8
1204.23	14394.8
1209.165	14435.8
1214.095	14524.8
1219.021	14606.8
1223.941	14660.8
1228.856	14733.8
1233.766	14777.8
1238.672	14827.8
1243.572	14791.8
1248.467	14634.8
1253.358	14532.8
1258.244	14294.8
1263.124	14085.8
1268	13898.8
1272.871	13746.8
1277.737	13618.8
1282.599	13564.8
1287.455	13569.8
1292.306	13562.8
1297.153	13629.8
1301.995	13667.8
1306.832	13700.8
1311.664	13686.8
1316.491	13658.8
1321.314	13576.8
1326.132	13339.8
1330.945	13088.8
1335.753	12741.8
1340.556	12379.8
1345.354	12138.8
1350.148	11873.8
1354.937	11817.8
1359.722	11758.8
1364.501	11828.8
1369.276	11917.8
1374.046	12117.8
1378.811	12251.8
1383.572	12431.8
1388.327	12419.8
1393.079	12429.8
1397.825	12279.8
1402.567	12098.8
1407.304	11977.8
1412.036	11862.8
1416.764	11768.8
1421.487	11719.8
1426.205	11640.8
1430.919	11571.8
1435.628	11621.8
1440.333	11610.8
1445.032	11658.8
1449.727	11648.8
1454.418	11618.8
1459.104	11445.8
1463.785	11284.8
1468.462	11011.8
1473.134	10726.8
1477.802	10516.8
1482.465	10341.8
1487.123	10175.8
1491.777	10106.8
1496.426	10137.8
1501.071	10232.8
1505.711	10379.8
1510.347	10547.8
1514.978	10744.8
1519.604	10948.8
1524.226	11045.8
1528.844	11044.8
1533.457	11061.8
1538.065	11024.8
1542.669	10961.8
1547.269	10913.8
1551.864	10844.8
1556.454	10798.8
1561.041	10827.8
1565.622	10797.8
1570.199	10827.8
1574.772	10881.8
1579.34	10933.8
1583.904	10983.8
1588.464	11013.8
1593.019	11001.8
1597.569	10995.8
1602.115	10931.8
1606.657	10826.8
1611.195	10762.8
1615.728	10693.8
1620.256	10618.8
1624.78	10624.8
1629.3	10592.8
1633.816	10597.8
1638.327	10692.8
1642.834	10715.8
1647.336	10692.8
1651.834	10746.8
1656.328	10690.8
1660.817	10616.8
1665.302	10501.8
1669.783	10328.8
1674.259	10065.8
1678.732	9768.8
1683.199	9463.8
1687.663	9108.8
1692.122	8798.8
1696.577	8618.8
1701.028	8605.8
1705.474	8612.8
1709.917	8734.8
1714.355	8827.8
1718.788	8788.8
1723.218	8679.8
1727.643	8560.8
1732.064	8372.8
1736.481	8231.8
1740.893	8044.8
1745.301	7829.8
1749.705	7628.8
1754.105	7476.8
1758.501	7193.8
1762.893	6941.8
1767.28	6828.8
1771.663	6622.8
1776.042	6505.8
1780.417	6382.8
1784.787	6344.8
1789.154	6425.8
1793.516	6475.8
1797.874	6621.8
1802.228	6772.8
1806.578	6871.8
1810.924	6904.8
1815.266	6817.8
1819.603	6740.8
1823.937	6626.8
1828.266	6516.8
1832.591	6471.8
1836.913	6346.8
1841.23	6298.8
1845.543	6272.8
1849.852	6234.8
1854.156	6214.8
1858.457	6193.8
1862.754	6208.8
1867.047	6134.8
1871.335	6137.8
1875.62	6133.8
1879.9	6105.8
1884.177	6037.8
1888.449	5984.8
1892.718	5892.8
1896.982	5837.8
1901.243	5754.8
1905.499	5736.8
1909.752	5675.8
1914	5682.8
1918.245	5641.8
1922.485	5688.8
1926.722	5761.8
1930.954	5807.8
1935.183	5885.8
1939.408	5978.8
1943.628	6020.8
1947.845	6027.8
1952.058	6050.8
1956.267	5984.8
1960.472	5916.8
1964.673	5823.8
1968.87	5786.8
1973.063	5628.8
1977.252	5565.8
1981.438	5545.8
1985.619	5484.8
1989.797	5459.8
1993.971	5409.8
1998.14	5400.8
2002.306	5390.8
2006.469	5350.8
2010.627	5282.8
2014.781	5275.8
2018.932	5251.8
2023.078	5183.8
2027.221	5092.8
2031.36	5014.8
2035.495	4939.8
2039.627	4850.8
2043.754	4783.8
2047.878	4774.8
2051.998	4705.8
2056.114	4693.8
2060.226	4650.8
2064.334	4671.8
2068.439	4650.8
2072.54	4686.8
2076.637	4720.8
2080.73	4741.8
2084.82	4785.8
2088.906	4753.8
2092.988	4779.8
2097.066	4764.8
2101.14	4721.8
2105.211	4737.8
2109.278	4687.8
2113.342	4668.8
2117.401	4660.8
2121.457	4641.8
2125.509	4647.8
2129.558	4623.8
2133.602	4563.8
2137.643	4573.8
2141.681	4562.8
2145.714	4490.8
2149.744	4489.8
2153.77	4463.8
2157.793	4407.8
2161.812	4348.8
2165.827	4267.8
2169.838	4216.8
2173.846	4177.8
2177.851	4108.8
2181.851	4045.8
2185.848	3987.8
2189.841	3934.8
2193.831	3891.8
2197.817	3881.8
2201.799	3849.8
2205.778	3815.8
2209.753	3831.8
2213.725	3821.8
2217.693	3824.8
2221.657	3778.8
2225.618	3772.8
2229.575	3752.8
2233.529	3742.8
2237.479	3709.8
2241.425	3640.8
2245.368	3599.8
2249.307	3546.8
2253.243	3507.8
2257.175	3444.8
2261.104	3400.8
2265.029	3362.8
2268.95	3366.8
2272.868	3296.8
2276.783	3256.8
2280.694	3242.8
2284.601	3207.8
2288.505	3187.8
2292.405	3125.8
2296.302	3131.8
2300.195	3095.8
2304.085	3047.8
2307.971	3020.8
2311.854	2972.8
2315.734	2941.8
2319.609	2879.8
2323.482	2838.8
2327.351	2825.8
2331.216	2808.8
2335.078	2828.8
2338.937	2784.8
2342.792	2768.8
2346.643	2759.8
2350.492	2766.8
2354.336	2784.8
2358.178	2808.8
2362.015	2791.8
2365.85	2813.8
2369.681	2805.8
2373.508	2808.8
2377.333	2808.8
2381.153	2787.8
2384.971	2792.8
2388.785	2788.8
2392.595	2747.8
2396.402	2717.8
2400.206	2695.8
2404.007	2666.8
2407.804	2676.8
2411.597	2657.8
2415.388	2646.8
2419.174	2603.8
2422.958	2589.8
2426.738	2567.8
2430.515	2546.8
2434.289	2542.8
2438.059	2515.8
2441.825	2473.8
2445.589	2465.8
2449.349	2441.8
2453.106	2421.8
2456.859	2377.8
2460.61	2359.8
2464.356	2313.8
2468.1	2295.8
2471.84	2271.8
2475.577	2220.8
2479.311	2223.8
2483.041	2211.8
2486.768	2167.8
2490.492	2210.8
2494.213	2174.8
2497.93	2178.8
2501.644	2154.8
2505.355	2145.8
2509.062	2122.8
2512.766	2129.8
2516.467	2098.8
2520.165	2070.8
2523.859	2067.8
2527.551	2069.8
2531.239	2052.8
2534.923	2032.8
2538.605	2015.8
2542.283	2007.8
2545.958	2007.8
2549.63	2014.8
2553.299	1996.8
2556.964	2013.8
2560.626	1982.8
2564.285	1974.8
2567.941	1984.8
2571.594	1961.8
2575.243	1943.8
2578.89	1950.8
2582.533	1922.8
2586.173	1910.8
2589.809	1887.8
2593.443	1875.8
2597.073	1862.8
2600.701	1847.8
2604.325	1847.8
2607.946	1822.8
2611.564	1810.8
2615.178	1780.8
2618.79	1776.8
2622.398	1787.8
2626.004	1753.8
2629.606	1744.8
2633.205	1703.8
2636.801	1677.8
2640.394	1650.8
2643.983	1619.8
2647.57	1618.8
2651.153	1593.8
2654.734	1560.8
2658.311	1541.8
2661.885	1519.8
2665.456	1497.8
2669.025	1485.8
2672.589	1469.8
2676.151	1455.8
2679.71	1434.8
2683.266	1401.8
2686.819	1383.8
2690.368	1347.8
2693.915	1341.8
2697.458	1298.8
2700.999	1249.8
2704.536	1229.8
2708.071	1201.8
2711.602	1187.8
2715.13	1138.8
2718.656	1123.8
2722.178	1095.8
2725.697	1075.8
2729.214	1063.8
2732.727	1063.8
2736.237	1043.8
2739.744	1026.8
2743.249	1030.8
2746.75	1025.8
2750.248	1051.8
2753.743	1042.8
2757.236	1070.8
2760.725	1082.8
2764.211	1082.8
2767.695	1097.8
2771.175	1073.8
2774.652	1065.8
2778.127	1081.8
2781.598	1061.8
2785.067	1059.8
2788.532	1078.8
2791.995	1059.8
2795.455	1058.8
2798.911	1046.8
2802.365	1043.8
2805.816	1053.8
2809.264	1068.8
2812.709	1080.8
2816.151	1064.8
2819.59	1063.8
2823.026	1064.8
2826.46	1056.8
2829.89	1065.8
2833.318	1063.8
2836.742	1074.8
2840.164	1089.8
2843.583	1090.8
2846.999	1105.8
2850.412	1101.8
2853.822	1105.8
2857.229	1155.8
2860.634	1150.8
2864.035	1181.8
2867.434	1187.8
2870.83	1205.8
2874.223	1225.8
2877.613	1262.8
2881	1254.8
2884.385	1271.8
2887.766	1258.8
2891.145	1269.8
2894.521	1254.8
2897.894	1293.8
2901.264	1276.8
2904.631	1277.8
2907.996	1264.8
2911.358	1276.8
2914.717	1268.8
2918.073	1284.8
2921.426	1303.8
2924.777	1308.8
2928.124	1341.8
2931.469	1364.8
2934.811	1387.8
2938.15	1392.8
2941.487	1391.8
2944.821	1398.8
2948.152	1401.8
2951.48	1404.8
2954.805	1383.8
2958.128	1356.8
2961.447	1357.8
2964.765	1331.8
2968.079	1334.8
2971.39	1348.8
2974.699	1359.8
2978.005	1386.8
2981.308	1418.8
2984.609	1434.8
2987.907	1455.8
2991.202	1484.8
2994.494	1515.8
2997.784	1545.8
3001.07	1581.8
3004.355	1591.8
3007.636	1623.8
3010.915	1638.8
3014.191	1654.8
3017.464	1673.8
3020.734	1702.8
3024.002	1701.8
3027.267	1700.8
3030.53	1722.8
3033.789	1718.8
3037.046	1753.8
3040.301	1770.8
3043.552	1802.8
3046.801	1854.8
3050.048	1893.8
3053.291	1953.8
3056.532	1992.8
3059.771	2051.8
3063.006	2113.8
3066.239	2172.8
3069.469	2244.8
3072.697	2274.8
3075.922	2359.8
3079.144	2375.8
3082.364	2450.8
3085.581	2490.8
3088.795	2568.8
3092.007	2614.8
3095.216	2696.8
3098.423	2719.8
3101.627	2805.8
3104.828	2834.8
3108.026	2892.8
3111.222	2956.8
3114.416	3056.8
3117.607	3102.8
3120.795	3152.8
3123.98	3271.8
3127.163	3338.8
3130.344	3432.8
3133.521	3478.8
3136.696	3549.8
3139.869	3641.8
3143.039	3696.8
3146.206	3743.8
3149.371	3767.8
3152.533	3821.8
3155.693	3850.8
3158.85	3870.8
3162.005	3886.8
3165.157	3910.8
3168.306	3898.8
3171.453	3911.8
3174.597	3959.8
3177.739	3946.8
3180.878	3968.8
3184.014	3959.8
3187.149	3976.8
3190.28	3965.8
3193.409	3937.8
3196.536	3939.8
3199.659	3989.8
3202.781	3988.8
3205.9	3956.8
3209.016	3973.8
3212.13	3947.8
3215.241	3920.8
3218.35	3908.8
3221.456	3836.8
3224.56	3798.8
3227.661	3762.8
3230.76	3716.8
3233.856	3687.8
3236.95	3648.8
3240.041	3596.8
3243.13	3583.8
3246.216	3574.8
3249.3	3538.8
3252.382	3536.8
3255.46	3530.8
3258.537	3474.8
3261.611	3521.8
3264.682	3518.8
3267.751	3497.8
3270.818	3497.8
3273.882	3445.8
3276.943	3446.8
3280.002	3427.8
3283.059	3410.8
3286.113	3397.8
3289.165	3360.8
3292.214	3275.8
3295.261	3210.8
3298.306	3172.8
3301.348	3101.8
3304.387	3080.8
3307.425	3026.8
3310.459	2973.8
3313.492	2946.8
3316.521	2895.8
3319.549	2898.8
3322.574	2830.8
3325.597	2821.8
3328.617	2796.8
3331.635	2772.8
3334.65	2778.8
3337.663	2754.8
3340.674	2735.8
3343.682	2702.8
3346.688	2719.8
3349.691	2696.8
3352.692	2694.8
3355.691	2660.8
3358.687	2643.8
3361.681	2605.8
3364.673	2574.8
3367.662	2544.8
3370.649	2497.8
3373.633	2472.8
3376.615	2437.8
3379.595	2359.8
3382.572	2361.8
3385.547	2335.8
3388.52	2326.8
3391.49	2259.8
3394.458	2214.8
3397.424	2217.8
3400.387	2155.8
3403.348	2140.8
3406.307	2097.8
3409.263	2072.8
3412.217	2061.8
3415.168	2036.8
3418.118	2013.8
3421.065	1990.8
3424.009	1972.8
3426.951	1914.8
3429.891	1902.8
3432.829	1862.8
3435.764	1792.8
3438.697	1755.8
3441.628	1712.8
3444.557	1651.8
3447.483	1612.8
3450.407	1555.8
3453.328	1498.8
3456.247	1451.8
3459.164	1408.8
3462.079	1350.8
3464.991	1286.8
3467.902	1258.8
3470.809	1192.8
3473.715	1149.8
3476.618	1111.8
3479.519	1066.8
3482.418	1035.8
3485.315	1001.8
3488.209	969.8
3491.101	923.8
3493.99	894.8
3496.878	861.8
3499.763	828.8
3502.646	784.8
3505.527	768.8
3508.405	712.8
3511.281	674.8
3514.155	643.8
3517.027	599.8
3519.897	554.8
3522.764	505.8
3525.629	471.8
3528.492	427.8
3531.352	401.8
3534.211	354.8
3537.067	323.8
3539.921	287.8
3542.773	246.8
3545.622	228.8
3548.469	185.8
3551.315	161.8
3554.157	142.8
3556.998	113.8
3559.837	99.8
3562.673	76.8
3565.507	26.8
3568.339	8.8
3571.169	2.8
3573.996	-22.2
3576.822	-33.2
3579.645	-65.2
3582.466	-74.2
3585.285	-106.2
3588.101	-124.2
3590.916	-147.2
3593.728	-174.2
3596.538	-171.2
3599.346	-198.2
3602.152	-211.2
3604.956	-229.2
3607.757	-241.2
3610.556	-261.2
3613.354	-274.2
3616.149	-287.2
3618.942	-303.2
3621.732	-303.2
3624.521	-325.2
3627.307	-331.2
3630.092	-342.2
3632.874	-350.2
3635.654	-362.2
3638.432	-368.2
3641.208	-378.2
3643.982	-390.2
3646.753	-394.2
3649.523	-397.2
3652.29	-408.2
3655.055	-415.2
3657.818	-434.2
3660.579	-442.2
3663.338	-457.2
3666.095	-451.2
3668.849	-478.2
3671.602	-481.2
3674.352	-486.2
3677.101	-488.2
3679.847	-498.2
3682.591	-508.2
3685.333	-513.2
3688.073	-519.2
3690.811	-523.2
3693.547	-522.2
3696.281	-533.2
3699.013	-528.2
3701.742	-539.2
3704.47	-540.2
3707.195	-550.2
3709.919	-548.2
3712.64	-554.2
3715.359	-559.2
3718.076	-565.2
3720.792	-564.2
3723.505	-565.2
3726.216	-572.2
3728.925	-576.2
3731.632	-581.2
3734.336	-583.2
3737.039	-585.2
3739.74	-589.2
3742.439	-586.2
3745.136	-594.2
3747.83	-600.2
3750.523	-598.2
3753.213	-602.2
3755.902	-604.2
3758.589	-605.2
3761.273	-602.2
3763.956	-604.2
3766.636	-613.2
3769.315	-610.2
3771.991	-611.2
3774.665	-619.2
3777.338	-614.2
3780.008	-616.2
3782.677	-617.2
3785.343	-614.2
3788.007	-617.2
3790.67	-617.2
3793.33	-623.2
3795.989	-623.2
3798.645	-620.2
3801.299	-617.2
3803.952	-631.2
3806.602	-637.2
3809.251	-633.2
3811.897	-632.2
3814.542	-632.2
3817.184	-631.2
3819.825	-629.2
3822.463	-628.2
3825.1	-637.2
3827.735	-630.2
3830.367	-629.2
3832.998	-640.2
3835.627	-639.2
3838.253	-643.2
3840.878	-641.2
3843.501	-643.2
3846.122	-643.2
3848.741	-641.2
3851.358	-639.2
3853.973	-638.2
3856.586	-643.2
3859.197	-641.2
3861.806	-648.2
3864.414	-640.2
3867.019	-644.2
3869.622	-642.2
3872.224	-637.2
3874.823	-625.2
3877.421	-609.2
3880.016	-596.2
3882.61	-570.2
3885.202	-567.2
3887.792	-583.2
3890.38	-619.2
3892.966	-634.2
3895.55	-642.2
3898.132	-657.2
3900.713	-660.2
3903.291	-655.2
3905.868	-655.2
3908.442	-657.2
3911.015	-658.2
3913.586	-648.2
3916.155	-654.2
3918.722	-657.2
3921.287	-656.2
3923.85	-658.2
3926.411	-665.2
3928.971	-670.2
3931.528	-664.2
3934.084	-659.2
3936.638	-664.2
3939.19	-663.2
3941.74	-664.2
3944.288	-663.2
3946.834	-657.2
3949.378	-661.2
3951.921	-656.2
3954.462	-663.2
3957	-657.2
3959.537	-658.2
3962.072	-663.2
3964.606	-661.2
3967.137	-655.2
3969.667	-662.2
3972.194	-653.2
3974.72	-659.2
3977.244	-647.2
3979.766	-651.2
3982.286	-646.2
3984.805	-651.2
3987.321	-652.2
3989.836	-648.2
3992.349	-648.2
3994.86	-647.2
3997.369	-657.2
3999.877	-647.2
4002.382	-646.2
4004.886	-640.2
4007.388	-638.2
4009.888	-641.2
4012.386	-640.2
4014.883	-643.2
4017.377	-640.2
4019.87	-640.2
4022.361	-645.2
4024.85	-644.2
4027.338	-647.2
4029.823	-647.2
4032.307	-653.2
4034.789	-644.2
4037.269	-648.2
4039.747	-647.2
4042.224	-650.2
4044.699	-652.2
4047.172	-642.2
4049.643	-646.2
4052.112	-659.2
4054.58	-650.2
4057.046	-657.2
4059.51	-649.2
4061.972	-651.2
4064.432	-650.2
4066.891	-650.2
4069.348	-648.2
4071.803	-641.2
4074.256	-649.2
4076.708	-647.2
4079.158	-646.2
4081.606	-649.2
4084.052	-653.2
4086.497	-649.2
4088.939	-645.2
4091.38	-647.2
4093.819	-646.2
4096.257	-679.2
4098.693	-681.2
4101.127	-683.2
4103.559	-679.2
4105.989	-387.2
4108.418	-373.2
4110.845	-347.2
4113.27	-328.2
4115.694	-286.2
4118.115	-227.2
4120.535	-645.2
4122.954	-648.2
4125.37	-639.2
4127.785	-653.2
4130.198	-653.2
4132.609	-656.2
4135.019	-685.2
4137.427	-688.2
4139.833	-684.2
4142.237	-683.2
