Data from 2018-2-14_conc=5_n=3_RamanShift_02.txt Node
Date: Wed Feb 14 14:11:25 IST 2018
User: aro
Spectrometer: QEPB0276
Trigger mode: 0
Integration Time (sec): 3.000000E1
Scans to average: 1
Electric dark correction enabled: true
Nonlinearity correction enabled: false
Boxcar width: 0
XAxis mode: Raman Shifts
Number of Pixels in Spectrum: 1044
>>>>>Begin Spectral Data<<<<<
160.701	-145.4
166.742	46.6
172.777	595.6
178.805	2336.6
184.826	6438.6
190.841	13483.6
196.849	21688.6
202.85	27508.6
208.845	29439.6
214.833	29157.6
220.815	28540.6
226.789	28511.6
232.758	28357.6
238.719	28085.6
244.674	27759.6
250.623	27205.6
256.565	26719.6
262.5	26124.6
268.429	25678.6
274.351	25273.6
280.267	24949.6
286.176	24695.6
292.079	24480.6
297.975	24242.6
303.865	23993.6
309.748	23798.6
315.625	23733.6
321.495	23553.6
327.359	23525.6
333.217	23487.6
339.068	23459.6
344.912	23430.6
350.751	23388.6
356.583	23430.6
362.408	23375.6
368.227	23394.6
374.04	23426.6
379.847	23451.6
385.647	23561.6
391.44	23617.6
397.228	23763.6
403.009	23825.6
408.784	23926.6
414.553	23989.6
420.315	24086.6
426.071	24082.6
431.821	24063.6
437.565	23987.6
443.302	23950.6
449.033	23963.6
454.758	23882.6
460.477	23900.6
466.189	23872.6
471.896	23668.6
477.596	23694.6
483.29	23643.6
488.978	23603.6
494.66	23411.6
500.335	23347.6
506.005	23084.6
511.668	22801.6
517.325	22537.6
522.977	22292.6
528.622	22078.6
534.261	21973.6
539.894	21864.6
545.521	21832.6
551.141	21728.6
556.756	21690.6
562.365	21580.6
567.968	21490.6
573.565	21366.6
579.155	21378.6
584.74	21215.6
590.319	21121.6
595.892	21070.6
601.459	20928.6
607.02	20943.6
612.575	20702.6
618.124	20598.6
623.667	20434.6
629.204	20497.6
634.735	20289.6
640.261	20236.6
645.781	20206.6
651.294	20087.6
656.802	20065.6
662.304	20039.6
667.8	19954.6
673.29	19946.6
678.775	19866.6
684.254	19811.6
689.726	19798.6
695.193	19764.6
700.655	19683.6
706.11	19562.6
711.56	19446.6
717.004	19282.6
722.442	19257.6
727.874	19133.6
733.301	19098.6
738.722	19030.6
744.137	19057.6
749.547	19021.6
754.951	19018.6
760.349	19015.6
765.741	19090.6
771.128	19029.6
776.509	19045.6
781.885	19020.6
787.254	18933.6
792.618	18954.6
797.977	18775.6
803.33	18678.6
808.677	18536.6
814.019	18473.6
819.355	18345.6
824.686	18212.6
830.011	18182.6
835.33	18177.6
840.644	18242.6
845.952	18251.6
851.255	18341.6
856.552	18339.6
861.844	18303.6
867.13	18277.6
872.41	18128.6
877.686	18084.6
882.955	17906.6
888.219	17756.6
893.478	17598.6
898.731	17348.6
903.979	17211.6
909.221	17047.6
914.458	17035.6
919.69	16956.6
924.916	16972.6
930.136	17076.6
935.351	17102.6
940.561	17052.6
945.766	17044.6
950.965	16922.6
956.158	16801.6
961.347	16706.6
966.529	16498.6
971.707	16263.6
976.879	16015.6
982.046	15872.6
987.208	15886.6
992.364	15844.6
997.515	15967.6
1002.66	16087.6
1007.801	16277.6
1012.936	16404.6
1018.066	16400.6
1023.19	16397.6
1028.309	16398.6
1033.423	16381.6
1038.532	16264.6
1043.636	16127.6
1048.734	15937.6
1053.827	15715.6
1058.915	15563.6
1063.998	15436.6
1069.075	15431.6
1074.147	15396.6
1079.214	15432.6
1084.276	15520.6
1089.333	15673.6
1094.385	15717.6
1099.431	15794.6
1104.472	15723.6
1109.509	15655.6
1114.54	15513.6
1119.565	15297.6
1124.586	15056.6
1129.602	14935.6
1134.613	14875.6
1139.618	14760.6
1144.619	14727.6
1149.614	14740.6
1154.604	14741.6
1159.589	14803.6
1164.57	14792.6
1169.545	14835.6
1174.515	14778.6
1179.48	14713.6
1184.44	14621.6
1189.395	14467.6
1194.345	14438.6
1199.29	14362.6
1204.23	14343.6
1209.165	14366.6
1214.095	14440.6
1219.021	14522.6
1223.941	14571.6
1228.856	14636.6
1233.766	14740.6
1238.672	14760.6
1243.572	14757.6
1248.467	14624.6
1253.358	14458.6
1258.244	14281.6
1263.124	14066.6
1268	13857.6
1272.871	13701.6
1277.737	13557.6
1282.599	13475.6
1287.455	13515.6
1292.306	13535.6
1297.153	13563.6
1301.995	13557.6
1306.832	13659.6
1311.664	13702.6
1316.491	13683.6
1321.314	13578.6
1326.132	13374.6
1330.945	13058.6
1335.753	12744.6
1340.556	12406.6
1345.354	12188.6
1350.148	11977.6
1354.937	11884.6
1359.722	11811.6
1364.501	11809.6
1369.276	11925.6
1374.046	12145.6
1378.811	12326.6
1383.572	12430.6
1388.327	12495.6
1393.079	12506.6
1397.825	12322.6
1402.567	12172.6
1407.304	11975.6
1412.036	11904.6
1416.764	11791.6
1421.487	11719.6
1426.205	11662.6
1430.919	11591.6
1435.628	11597.6
1440.333	11620.6
1445.032	11641.6
1449.727	11708.6
1454.418	11637.6
1459.104	11559.6
1463.785	11314.6
1468.462	11105.6
1473.134	10889.6
1477.802	10690.6
1482.465	10431.6
1487.123	10287.6
1491.777	10289.6
1496.426	10326.6
1501.071	10432.6
1505.711	10568.6
1510.347	10753.6
1514.978	10958.6
1519.604	11122.6
1524.226	11214.6
1528.844	11262.6
1533.457	11215.6
1538.065	11169.6
1542.669	11150.6
1547.269	11050.6
1551.864	10935.6
1556.454	10908.6
1561.041	10897.6
1565.622	10907.6
1570.199	10881.6
1574.772	10945.6
1579.34	10994.6
1583.904	11137.6
1588.464	11164.6
1593.019	11145.6
1597.569	11091.6
1602.115	11038.6
1606.657	10956.6
1611.195	10873.6
1615.728	10856.6
1620.256	10780.6
1624.78	10788.6
1629.3	10770.6
1633.816	10787.6
1638.327	10844.6
1642.834	10932.6
1647.336	10945.6
1651.834	10951.6
1656.328	10976.6
1660.817	10865.6
1665.302	10745.6
1669.783	10622.6
1674.259	10366.6
1678.732	10092.6
1683.199	9760.6
1687.663	9417.6
1692.122	9132.6
1696.577	8952.6
1701.028	8907.6
1705.474	8922.6
1709.917	9018.6
1714.355	9070.6
1718.788	9027.6
1723.218	8857.6
1727.643	8752.6
1732.064	8573.6
1736.481	8409.6
1740.893	8197.6
1745.301	7981.6
1749.705	7736.6
1754.105	7516.6
1758.501	7347.6
1762.893	7118.6
1767.28	6930.6
1771.663	6812.6
1776.042	6665.6
1780.417	6587.6
1784.787	6556.6
1789.154	6617.6
1793.516	6711.6
1797.874	6824.6
1802.228	6993.6
1806.578	7060.6
1810.924	7043.6
1815.266	7027.6
1819.603	6875.6
1823.937	6795.6
1828.266	6688.6
1832.591	6573.6
1836.913	6481.6
1841.23	6418.6
1845.543	6399.6
1849.852	6375.6
1854.156	6357.6
1858.457	6310.6
1862.754	6348.6
1867.047	6328.6
1871.335	6326.6
1875.62	6266.6
1879.9	6258.6
1884.177	6216.6
1888.449	6152.6
1892.718	6093.6
1896.982	6039.6
1901.243	5971.6
1905.499	5911.6
1909.752	5930.6
1914	5896.6
1918.245	5883.6
1922.485	5954.6
1926.722	6015.6
1930.954	6062.6
1935.183	6160.6
1939.408	6200.6
1943.628	6229.6
1947.845	6260.6
1952.058	6212.6
1956.267	6170.6
1960.472	6118.6
1964.673	6034.6
1968.87	5950.6
1973.063	5862.6
1977.252	5746.6
1981.438	5706.6
1985.619	5612.6
1989.797	5603.6
1993.971	5592.6
1998.14	5530.6
2002.306	5510.6
2006.469	5509.6
2010.627	5492.6
2014.781	5431.6
2018.932	5378.6
2023.078	5348.6
2027.221	5272.6
2031.36	5202.6
2035.495	5078.6
2039.627	5030.6
2043.754	4978.6
2047.878	4869.6
2051.998	4899.6
2056.114	4888.6
2060.226	4850.6
2064.334	4867.6
2068.439	4854.6
2072.54	4895.6
2076.637	4962.6
2080.73	4975.6
2084.82	5018.6
2088.906	4992.6
2092.988	5034.6
2097.066	4976.6
2101.14	4952.6
2105.211	4942.6
2109.278	4921.6
2113.342	4869.6
2117.401	4826.6
2121.457	4799.6
2125.509	4769.6
2129.558	4778.6
2133.602	4737.6
2137.643	4714.6
2141.681	4653.6
2145.714	4669.6
2149.744	4621.6
2153.77	4591.6
2157.793	4574.6
2161.812	4493.6
2165.827	4432.6
2169.838	4343.6
2173.846	4273.6
2177.851	4203.6
2181.851	4165.6
2185.848	4099.6
2189.841	4039.6
2193.831	4010.6
2197.817	3991.6
2201.799	3964.6
2205.778	3928.6
2209.753	3901.6
2213.725	3936.6
2217.693	3897.6
2221.657	3899.6
2225.618	3871.6
2229.575	3843.6
2233.529	3805.6
2237.479	3775.6
2241.425	3738.6
2245.368	3692.6
2249.307	3614.6
2253.243	3592.6
2257.175	3505.6
2261.104	3470.6
2265.029	3445.6
2268.95	3416.6
2272.868	3368.6
2276.783	3323.6
2280.694	3309.6
2284.601	3255.6
2288.505	3225.6
2292.405	3224.6
2296.302	3166.6
2300.195	3146.6
2304.085	3088.6
2307.971	3037.6
2311.854	3023.6
2315.734	2964.6
2319.609	2960.6
2323.482	2879.6
2327.351	2854.6
2331.216	2822.6
2335.078	2836.6
2338.937	2808.6
2342.792	2789.6
2346.643	2777.6
2350.492	2777.6
2354.336	2757.6
2358.178	2779.6
2362.015	2790.6
2365.85	2792.6
2369.681	2805.6
2373.508	2824.6
2377.333	2808.6
2381.153	2742.6
2384.971	2759.6
2388.785	2751.6
2392.595	2716.6
2396.402	2692.6
2400.206	2674.6
2404.007	2655.6
2407.804	2627.6
2411.597	2609.6
2415.388	2620.6
2419.174	2586.6
2422.958	2570.6
2426.738	2562.6
2430.515	2530.6
2434.289	2514.6
2438.059	2505.6
2441.825	2494.6
2445.589	2444.6
2449.349	2442.6
2453.106	2353.6
2456.859	2363.6
2460.61	2328.6
2464.356	2301.6
2468.1	2264.6
2471.84	2231.6
2475.577	2228.6
2479.311	2198.6
2483.041	2193.6
2486.768	2188.6
2490.492	2164.6
2494.213	2163.6
2497.93	2169.6
2501.644	2156.6
2505.355	2139.6
2509.062	2118.6
2512.766	2126.6
2516.467	2115.6
2520.165	2099.6
2523.859	2053.6
2527.551	2074.6
2531.239	2030.6
2534.923	2033.6
2538.605	2034.6
2542.283	2029.6
2545.958	1997.6
2549.63	2026.6
2553.299	2029.6
2556.964	2008.6
2560.626	1985.6
2564.285	1971.6
2567.941	1972.6
2571.594	1987.6
2575.243	1940.6
2578.89	1944.6
2582.533	1903.6
2586.173	1902.6
2589.809	1893.6
2593.443	1877.6
2597.073	1853.6
2600.701	1832.6
2604.325	1820.6
2607.946	1809.6
2611.564	1801.6
2615.178	1783.6
2618.79	1782.6
2622.398	1761.6
2626.004	1733.6
2629.606	1715.6
2633.205	1677.6
2636.801	1689.6
2640.394	1653.6
2643.983	1624.6
2647.57	1604.6
2651.153	1577.6
2654.734	1541.6
2658.311	1522.6
2661.885	1493.6
2665.456	1479.6
2669.025	1476.6
2672.589	1444.6
2676.151	1424.6
2679.71	1420.6
2683.266	1389.6
2686.819	1357.6
2690.368	1360.6
2693.915	1320.6
2697.458	1290.6
2700.999	1237.6
2704.536	1218.6
2708.071	1196.6
2711.602	1180.6
2715.13	1140.6
2718.656	1123.6
2722.178	1110.6
2725.697	1076.6
2729.214	1055.6
2732.727	1060.6
2736.237	1064.6
2739.744	1049.6
2743.249	1063.6
2746.75	1067.6
2750.248	1060.6
2753.743	1068.6
2757.236	1088.6
2760.725	1071.6
2764.211	1102.6
2767.695	1125.6
2771.175	1102.6
2774.652	1098.6
2778.127	1086.6
2781.598	1082.6
2785.067	1067.6
2788.532	1075.6
2791.995	1072.6
2795.455	1084.6
2798.911	1080.6
2802.365	1087.6
2805.816	1086.6
2809.264	1074.6
2812.709	1096.6
2816.151	1071.6
2819.59	1074.6
2823.026	1082.6
2826.46	1093.6
2829.89	1077.6
2833.318	1098.6
2836.742	1093.6
2840.164	1104.6
2843.583	1106.6
2846.999	1116.6
2850.412	1138.6
2853.822	1135.6
2857.229	1153.6
2860.634	1177.6
2864.035	1198.6
2867.434	1215.6
2870.83	1234.6
2874.223	1241.6
2877.613	1296.6
2881	1311.6
2884.385	1320.6
2887.766	1307.6
2891.145	1314.6
2894.521	1297.6
2897.894	1295.6
2901.264	1311.6
2904.631	1303.6
2907.996	1300.6
2911.358	1308.6
2914.717	1334.6
2918.073	1329.6
2921.426	1343.6
2924.777	1352.6
2928.124	1345.6
2931.469	1418.6
2934.811	1420.6
2938.15	1449.6
2941.487	1450.6
2944.821	1472.6
2948.152	1452.6
2951.48	1452.6
2954.805	1448.6
2958.128	1427.6
2961.447	1423.6
2964.765	1431.6
2968.079	1438.6
2971.39	1431.6
2974.699	1488.6
2978.005	1489.6
2981.308	1512.6
2984.609	1535.6
2987.907	1554.6
2991.202	1583.6
2994.494	1611.6
2997.784	1653.6
3001.07	1692.6
3004.355	1714.6
3007.636	1742.6
3010.915	1759.6
3014.191	1766.6
3017.464	1782.6
3020.734	1799.6
3024.002	1813.6
3027.267	1827.6
3030.53	1825.6
3033.789	1880.6
3037.046	1884.6
3040.301	1876.6
3043.552	1963.6
3046.801	1980.6
3050.048	2025.6
3053.291	2088.6
3056.532	2123.6
3059.771	2194.6
3063.006	2265.6
3066.239	2354.6
3069.469	2412.6
3072.697	2473.6
3075.922	2505.6
3079.144	2589.6
3082.364	2648.6
3085.581	2719.6
3088.795	2785.6
3092.007	2835.6
3095.216	2909.6
3098.423	2957.6
3101.627	3014.6
3104.828	3080.6
3108.026	3149.6
3111.222	3249.6
3114.416	3299.6
3117.607	3361.6
3120.795	3462.6
3123.98	3515.6
3127.163	3624.6
3130.344	3708.6
3133.521	3793.6
3136.696	3889.6
3139.869	3956.6
3143.039	4047.6
3146.206	4082.6
3149.371	4124.6
3152.533	4156.6
3155.693	4216.6
3158.85	4226.6
3162.005	4233.6
3165.157	4209.6
3168.306	4268.6
3171.453	4279.6
3174.597	4281.6
3177.739	4298.6
3180.878	4312.6
3184.014	4302.6
3187.149	4301.6
3190.28	4301.6
3193.409	4302.6
3196.536	4306.6
3199.659	4346.6
3202.781	4332.6
3205.9	4298.6
3209.016	4347.6
3212.13	4292.6
3215.241	4278.6
3218.35	4242.6
3221.456	4221.6
3224.56	4152.6
3227.661	4123.6
3230.76	4091.6
3233.856	4046.6
3236.95	3995.6
3240.041	3955.6
3243.13	3928.6
3246.216	3908.6
3249.3	3867.6
3252.382	3892.6
3255.46	3875.6
3258.537	3844.6
3261.611	3879.6
3264.682	3858.6
3267.751	3863.6
3270.818	3848.6
3273.882	3805.6
3276.943	3784.6
3280.002	3775.6
3283.059	3728.6
3286.113	3686.6
3289.165	3667.6
3292.214	3600.6
3295.261	3534.6
3298.306	3462.6
3301.348	3436.6
3304.387	3373.6
3307.425	3328.6
3310.459	3279.6
3313.492	3221.6
3316.521	3160.6
3319.549	3128.6
3322.574	3117.6
3325.597	3091.6
3328.617	3048.6
3331.635	3002.6
3334.65	3024.6
3337.663	2996.6
3340.674	2976.6
3343.682	2947.6
3346.688	2960.6
3349.691	2963.6
3352.692	2937.6
3355.691	2895.6
3358.687	2886.6
3361.681	2852.6
3364.673	2805.6
3367.662	2779.6
3370.649	2720.6
3373.633	2704.6
3376.615	2653.6
3379.595	2606.6
3382.572	2596.6
3385.547	2540.6
3388.52	2540.6
3391.49	2480.6
3394.458	2413.6
3397.424	2390.6
3400.387	2359.6
3403.348	2323.6
3406.307	2326.6
3409.263	2280.6
3412.217	2262.6
3415.168	2230.6
3418.118	2217.6
3421.065	2193.6
3424.009	2143.6
3426.951	2104.6
3429.891	2086.6
3432.829	2040.6
3435.764	1972.6
3438.697	1937.6
3441.628	1882.6
3444.557	1833.6
3447.483	1770.6
3450.407	1702.6
3453.328	1684.6
3456.247	1598.6
3459.164	1539.6
3462.079	1516.6
3464.991	1427.6
3467.902	1401.6
3470.809	1345.6
3473.715	1277.6
3476.618	1256.6
3479.519	1188.6
3482.418	1169.6
3485.315	1115.6
3488.209	1078.6
3491.101	1050.6
3493.99	1039.6
3496.878	975.6
3499.763	943.6
3502.646	902.6
3505.527	855.6
3508.405	837.6
3511.281	768.6
3514.155	724.6
3517.027	686.6
3519.897	659.6
3522.764	605.6
3525.629	574.6
3528.492	511.6
3531.352	478.6
3534.211	437.6
3537.067	394.6
3539.921	361.6
3542.773	314.6
3545.622	279.6
3548.469	260.6
3551.315	222.6
3554.157	194.6
3556.998	150.6
3559.837	137.6
3562.673	104.6
3565.507	79.6
3568.339	62.6
3571.169	43.6
3573.996	12.6
3576.822	-14.4
3579.645	-27.4
3582.466	-38.4
3585.285	-79.4
3588.101	-98.4
3590.916	-120.4
3593.728	-141.4
3596.538	-152.4
3599.346	-184.4
3602.152	-199.4
3604.956	-201.4
3607.757	-232.4
3610.556	-247.4
3613.354	-261.4
3616.149	-272.4
3618.942	-278.4
3621.732	-303.4
3624.521	-311.4
3627.307	-317.4
3630.092	-332.4
3632.874	-347.4
3635.654	-360.4
3638.432	-355.4
3641.208	-360.4
3643.982	-395.4
3646.753	-396.4
3649.523	-404.4
3652.29	-415.4
3655.055	-422.4
3657.818	-436.4
3660.579	-446.4
3663.338	-466.4
3666.095	-471.4
3668.849	-477.4
3671.602	-481.4
3674.352	-500.4
3677.101	-510.4
3679.847	-522.4
3682.591	-519.4
3685.333	-524.4
3688.073	-531.4
3690.811	-537.4
3693.547	-536.4
3696.281	-547.4
3699.013	-550.4
3701.742	-556.4
3704.47	-554.4
3707.195	-567.4
3709.919	-565.4
3712.64	-573.4
3715.359	-579.4
3718.076	-582.4
3720.792	-584.4
3723.505	-588.4
3726.216	-587.4
3728.925	-590.4
3731.632	-602.4
3734.336	-600.4
3737.039	-607.4
3739.74	-607.4
3742.439	-609.4
3745.136	-609.4
3747.83	-619.4
3750.523	-617.4
3753.213	-616.4
3755.902	-628.4
3758.589	-618.4
3761.273	-622.4
3763.956	-628.4
3766.636	-626.4
3769.315	-632.4
3771.991	-634.4
3774.665	-634.4
3777.338	-634.4
3780.008	-642.4
3782.677	-642.4
3785.343	-633.4
3788.007	-637.4
3790.67	-638.4
3793.33	-645.4
3795.989	-642.4
3798.645	-644.4
3801.299	-646.4
3803.952	-653.4
3806.602	-661.4
3809.251	-660.4
3811.897	-652.4
3814.542	-660.4
3817.184	-657.4
3819.825	-648.4
3822.463	-652.4
3825.1	-661.4
3827.735	-654.4
3830.367	-659.4
3832.998	-667.4
3835.627	-661.4
3838.253	-665.4
3840.878	-669.4
3843.501	-662.4
3846.122	-657.4
3848.741	-662.4
3851.358	-664.4
3853.973	-660.4
3856.586	-669.4
3859.197	-667.4
3861.806	-668.4
3864.414	-665.4
3867.019	-665.4
3869.622	-664.4
3872.224	-664.4
3874.823	-642.4
3877.421	-632.4
3880.016	-613.4
3882.61	-593.4
3885.202	-587.4
3887.792	-611.4
3890.38	-632.4
3892.966	-660.4
3895.55	-663.4
3898.132	-682.4
3900.713	-682.4
3903.291	-674.4
3905.868	-679.4
3908.442	-680.4
3911.015	-687.4
3913.586	-675.4
3916.155	-675.4
3918.722	-683.4
3921.287	-679.4
3923.85	-684.4
3926.411	-680.4
3928.971	-692.4
3931.528	-683.4
3934.084	-680.4
3936.638	-685.4
3939.19	-687.4
3941.74	-678.4
3944.288	-686.4
3946.834	-682.4
3949.378	-686.4
3951.921	-684.4
3954.462	-694.4
3957	-681.4
3959.537	-682.4
3962.072	-684.4
3964.606	-683.4
3967.137	-679.4
3969.667	-689.4
3972.194	-676.4
3974.72	-685.4
3977.244	-667.4
3979.766	-668.4
3982.286	-673.4
3984.805	-671.4
3987.321	-668.4
3989.836	-676.4
3992.349	-666.4
3994.86	-670.4
3997.369	-678.4
3999.877	-668.4
4002.382	-662.4
4004.886	-668.4
4007.388	-668.4
4009.888	-662.4
4012.386	-679.4
4014.883	-668.4
4017.377	-668.4
4019.87	-662.4
4022.361	-661.4
4024.85	-673.4
4027.338	-672.4
4029.823	-670.4
4032.307	-668.4
4034.789	-665.4
4037.269	-666.4
4039.747	-670.4
4042.224	-670.4
4044.699	-672.4
4047.172	-671.4
4049.643	-666.4
4052.112	-677.4
4054.58	-672.4
4057.046	-677.4
4059.51	-677.4
4061.972	-676.4
4064.432	-678.4
4066.891	-670.4
4069.348	-671.4
4071.803	-668.4
4074.256	-668.4
4076.708	-670.4
4079.158	-672.4
4081.606	-670.4
4084.052	-672.4
4086.497	-677.4
4088.939	-672.4
4091.38	-671.4
4093.819	-667.4
4096.257	-703.4
4098.693	-708.4
4101.127	-709.4
4103.559	-705.4
4105.989	-401.4
4108.418	-386.4
4110.845	-357.4
4113.27	-333.4
4115.694	-298.4
4118.115	-242.4
4120.535	-662.4
4122.954	-668.4
4125.37	-662.4
4127.785	-671.4
4130.198	-669.4
4132.609	-668.4
4135.019	-708.4
4137.427	-708.4
4139.833	-710.4
4142.237	-706.4
