Data from 2018-2-14_conc=3_n=9_RamanShift_05.txt Node
Date: Wed Feb 14 12:10:56 IST 2018
User: aro
Spectrometer: QEPB0276
Trigger mode: 0
Integration Time (sec): 3.000000E1
Scans to average: 1
Electric dark correction enabled: true
Nonlinearity correction enabled: false
Boxcar width: 0
XAxis mode: Raman Shifts
Number of Pixels in Spectrum: 1044
>>>>>Begin Spectral Data<<<<<
160.701	-141.8
166.742	49.2
172.777	592.2
178.805	2248.2
184.826	6247.2
190.841	13112.2
196.849	21077.2
202.85	26746.2
208.845	28779.2
214.833	28465.2
220.815	27935.2
226.789	27725.2
232.758	27638.2
238.719	27531.2
244.674	27159.2
250.623	26713.2
256.565	26189.2
262.5	25592.2
268.429	25131.2
274.351	24831.2
280.267	24384.2
286.176	24200.2
292.079	24025.2
297.975	23795.2
303.865	23598.2
309.748	23462.2
315.625	23264.2
321.495	23199.2
327.359	23064.2
333.217	23074.2
339.068	22945.2
344.912	22959.2
350.751	22965.2
356.583	22951.2
362.408	22873.2
368.227	22958.2
374.04	22954.2
379.847	23017.2
385.647	23074.2
391.44	23135.2
397.228	23250.2
403.009	23329.2
408.784	23417.2
414.553	23446.2
420.315	23513.2
426.071	23545.2
431.821	23549.2
437.565	23514.2
443.302	23545.2
449.033	23452.2
454.758	23395.2
460.477	23340.2
466.189	23314.2
471.896	23251.2
477.596	23133.2
483.29	23138.2
488.978	23072.2
494.66	23055.2
500.335	22894.2
506.005	22647.2
511.668	22384.2
517.325	22079.2
522.977	21866.2
528.622	21753.2
534.261	21629.2
539.894	21514.2
545.521	21420.2
551.141	21322.2
556.756	21247.2
562.365	21240.2
567.968	21051.2
573.565	21071.2
579.155	20944.2
584.74	20829.2
590.319	20741.2
595.892	20686.2
601.459	20655.2
607.02	20557.2
612.575	20404.2
618.124	20283.2
623.667	20206.2
629.204	20047.2
634.735	19931.2
640.261	19877.2
645.781	19836.2
651.294	19841.2
656.802	19787.2
662.304	19707.2
667.8	19725.2
673.29	19661.2
678.775	19613.2
684.254	19507.2
689.726	19517.2
695.193	19431.2
700.655	19367.2
706.11	19219.2
711.56	19121.2
717.004	19086.2
722.442	18991.2
727.874	18914.2
733.301	18874.2
738.722	18779.2
744.137	18765.2
749.547	18758.2
754.951	18760.2
760.349	18769.2
765.741	18764.2
771.128	18792.2
776.509	18755.2
781.885	18727.2
787.254	18706.2
792.618	18665.2
797.977	18577.2
803.33	18426.2
808.677	18338.2
814.019	18266.2
819.355	18075.2
824.686	18012.2
830.011	18033.2
835.33	17994.2
840.644	18010.2
845.952	18029.2
851.255	18063.2
856.552	18060.2
861.844	18029.2
867.13	17974.2
872.41	17938.2
877.686	17830.2
882.955	17651.2
888.219	17581.2
893.478	17358.2
898.731	17126.2
903.979	16942.2
909.221	16826.2
914.458	16840.2
919.69	16772.2
924.916	16840.2
930.136	16898.2
935.351	16935.2
940.561	16884.2
945.766	16909.2
950.965	16800.2
956.158	16643.2
961.347	16502.2
966.529	16313.2
971.707	16048.2
976.879	15867.2
982.046	15763.2
987.208	15689.2
992.364	15719.2
997.515	15807.2
1002.66	15951.2
1007.801	16084.2
1012.936	16252.2
1018.066	16239.2
1023.19	16272.2
1028.309	16252.2
1033.423	16246.2
1038.532	16096.2
1043.636	15979.2
1048.734	15804.2
1053.827	15584.2
1058.915	15452.2
1063.998	15291.2
1069.075	15218.2
1074.147	15279.2
1079.214	15347.2
1084.276	15395.2
1089.333	15491.2
1094.385	15577.2
1099.431	15638.2
1104.472	15652.2
1109.509	15555.2
1114.54	15362.2
1119.565	15145.2
1124.586	14974.2
1129.602	14861.2
1134.613	14710.2
1139.618	14649.2
1144.619	14575.2
1149.614	14595.2
1154.604	14621.2
1159.589	14661.2
1164.57	14649.2
1169.545	14748.2
1174.515	14724.2
1179.48	14650.2
1184.44	14503.2
1189.395	14373.2
1194.345	14309.2
1199.29	14225.2
1204.23	14229.2
1209.165	14271.2
1214.095	14403.2
1219.021	14441.2
1223.941	14520.2
1228.856	14576.2
1233.766	14673.2
1238.672	14645.2
1243.572	14618.2
1248.467	14548.2
1253.358	14358.2
1258.244	14152.2
1263.124	13964.2
1268	13736.2
1272.871	13599.2
1277.737	13478.2
1282.599	13388.2
1287.455	13386.2
1292.306	13400.2
1297.153	13458.2
1301.995	13561.2
1306.832	13599.2
1311.664	13633.2
1316.491	13604.2
1321.314	13485.2
1326.132	13288.2
1330.945	12970.2
1335.753	12647.2
1340.556	12348.2
1345.354	12122.2
1350.148	11875.2
1354.937	11745.2
1359.722	11735.2
1364.501	11799.2
1369.276	11961.2
1374.046	12128.2
1378.811	12304.2
1383.572	12483.2
1388.327	12535.2
1393.079	12445.2
1397.825	12282.2
1402.567	12104.2
1407.304	11966.2
1412.036	11842.2
1416.764	11755.2
1421.487	11680.2
1426.205	11604.2
1430.919	11565.2
1435.628	11544.2
1440.333	11568.2
1445.032	11605.2
1449.727	11681.2
1454.418	11674.2
1459.104	11514.2
1463.785	11309.2
1468.462	11050.2
1473.134	10840.2
1477.802	10601.2
1482.465	10410.2
1487.123	10310.2
1491.777	10311.2
1496.426	10331.2
1501.071	10505.2
1505.711	10622.2
1510.347	10783.2
1514.978	10983.2
1519.604	11196.2
1524.226	11263.2
1528.844	11283.2
1533.457	11276.2
1538.065	11245.2
1542.669	11137.2
1547.269	11079.2
1551.864	11048.2
1556.454	10980.2
1561.041	10906.2
1565.622	10931.2
1570.199	10947.2
1574.772	10941.2
1579.34	11026.2
1583.904	11101.2
1588.464	11134.2
1593.019	11127.2
1597.569	11123.2
1602.115	10994.2
1606.657	10941.2
1611.195	10882.2
1615.728	10759.2
1620.256	10738.2
1624.78	10782.2
1629.3	10764.2
1633.816	10778.2
1638.327	10811.2
1642.834	10885.2
1647.336	10951.2
1651.834	10929.2
1656.328	10956.2
1660.817	10915.2
1665.302	10758.2
1669.783	10587.2
1674.259	10348.2
1678.732	10125.2
1683.199	9752.2
1687.663	9426.2
1692.122	9158.2
1696.577	9041.2
1701.028	8989.2
1705.474	9050.2
1709.917	9163.2
1714.355	9193.2
1718.788	9176.2
1723.218	9082.2
1727.643	8896.2
1732.064	8729.2
1736.481	8511.2
1740.893	8310.2
1745.301	8086.2
1749.705	7857.2
1754.105	7649.2
1758.501	7442.2
1762.893	7221.2
1767.28	7081.2
1771.663	6926.2
1776.042	6741.2
1780.417	6753.2
1784.787	6728.2
1789.154	6800.2
1793.516	6945.2
1797.874	7035.2
1802.228	7158.2
1806.578	7225.2
1810.924	7219.2
1815.266	7211.2
1819.603	7065.2
1823.937	6976.2
1828.266	6876.2
1832.591	6733.2
1836.913	6658.2
1841.23	6604.2
1845.543	6492.2
1849.852	6518.2
1854.156	6494.2
1858.457	6454.2
1862.754	6475.2
1867.047	6459.2
1871.335	6457.2
1875.62	6429.2
1879.9	6418.2
1884.177	6346.2
1888.449	6314.2
1892.718	6265.2
1896.982	6212.2
1901.243	6122.2
1905.499	6105.2
1909.752	6049.2
1914	6112.2
1918.245	6118.2
1922.485	6102.2
1926.722	6220.2
1930.954	6313.2
1935.183	6381.2
1939.408	6428.2
1943.628	6451.2
1947.845	6475.2
1952.058	6441.2
1956.267	6465.2
1960.472	6331.2
1964.673	6203.2
1968.87	6138.2
1973.063	6076.2
1977.252	5940.2
1981.438	5909.2
1985.619	5791.2
1989.797	5754.2
1993.971	5734.2
1998.14	5718.2
2002.306	5639.2
2006.469	5650.2
2010.627	5653.2
2014.781	5606.2
2018.932	5555.2
2023.078	5514.2
2027.221	5419.2
2031.36	5342.2
2035.495	5258.2
2039.627	5195.2
2043.754	5135.2
2047.878	5071.2
2051.998	5052.2
2056.114	5018.2
2060.226	5022.2
2064.334	5057.2
2068.439	5068.2
2072.54	5054.2
2076.637	5104.2
2080.73	5142.2
2084.82	5155.2
2088.906	5169.2
2092.988	5204.2
2097.066	5183.2
2101.14	5159.2
2105.211	5124.2
2109.278	5081.2
2113.342	5061.2
2117.401	5024.2
2121.457	4994.2
2125.509	4962.2
2129.558	4951.2
2133.602	4925.2
2137.643	4870.2
2141.681	4866.2
2145.714	4845.2
2149.744	4836.2
2153.77	4756.2
2157.793	4743.2
2161.812	4657.2
2165.827	4597.2
2169.838	4527.2
2173.846	4459.2
2177.851	4363.2
2181.851	4298.2
2185.848	4243.2
2189.841	4206.2
2193.831	4165.2
2197.817	4096.2
2201.799	4090.2
2205.778	4075.2
2209.753	4059.2
2213.725	4040.2
2217.693	4035.2
2221.657	4079.2
2225.618	4035.2
2229.575	4020.2
2233.529	3958.2
2237.479	3946.2
2241.425	3901.2
2245.368	3823.2
2249.307	3769.2
2253.243	3748.2
2257.175	3670.2
2261.104	3628.2
2265.029	3585.2
2268.95	3558.2
2272.868	3526.2
2276.783	3468.2
2280.694	3458.2
2284.601	3399.2
2288.505	3387.2
2292.405	3368.2
2296.302	3309.2
2300.195	3276.2
2304.085	3262.2
2307.971	3205.2
2311.854	3163.2
2315.734	3100.2
2319.609	3047.2
2323.482	2999.2
2327.351	2974.2
2331.216	2987.2
2335.078	2952.2
2338.937	2922.2
2342.792	2907.2
2346.643	2879.2
2350.492	2870.2
2354.336	2914.2
2358.178	2896.2
2362.015	2898.2
2365.85	2926.2
2369.681	2942.2
2373.508	2910.2
2377.333	2910.2
2381.153	2887.2
2384.971	2881.2
2388.785	2876.2
2392.595	2818.2
2396.402	2813.2
2400.206	2777.2
2404.007	2748.2
2407.804	2728.2
2411.597	2710.2
2415.388	2701.2
2419.174	2694.2
2422.958	2676.2
2426.738	2645.2
2430.515	2613.2
2434.289	2605.2
2438.059	2571.2
2441.825	2571.2
2445.589	2542.2
2449.349	2492.2
2453.106	2503.2
2456.859	2428.2
2460.61	2460.2
2464.356	2404.2
2468.1	2369.2
2471.84	2344.2
2475.577	2328.2
2479.311	2316.2
2483.041	2296.2
2486.768	2302.2
2490.492	2296.2
2494.213	2263.2
2497.93	2268.2
2501.644	2255.2
2505.355	2253.2
2509.062	2234.2
2512.766	2214.2
2516.467	2195.2
2520.165	2202.2
2523.859	2175.2
2527.551	2172.2
2531.239	2163.2
2534.923	2135.2
2538.605	2140.2
2542.283	2111.2
2545.958	2135.2
2549.63	2129.2
2553.299	2138.2
2556.964	2125.2
2560.626	2088.2
2564.285	2095.2
2567.941	2094.2
2571.594	2099.2
2575.243	2073.2
2578.89	2038.2
2582.533	2027.2
2586.173	2022.2
2589.809	2013.2
2593.443	1970.2
2597.073	1972.2
2600.701	1938.2
2604.325	1958.2
2607.946	1924.2
2611.564	1911.2
2615.178	1903.2
2618.79	1880.2
2622.398	1859.2
2626.004	1846.2
2629.606	1823.2
2633.205	1810.2
2636.801	1786.2
2640.394	1768.2
2643.983	1720.2
2647.57	1704.2
2651.153	1658.2
2654.734	1637.2
2658.311	1620.2
2661.885	1602.2
2665.456	1590.2
2669.025	1555.2
2672.589	1542.2
2676.151	1521.2
2679.71	1516.2
2683.266	1480.2
2686.819	1455.2
2690.368	1416.2
2693.915	1415.2
2697.458	1374.2
2700.999	1330.2
2704.536	1314.2
2708.071	1284.2
2711.602	1241.2
2715.13	1236.2
2718.656	1195.2
2722.178	1201.2
2725.697	1166.2
2729.214	1143.2
2732.727	1138.2
2736.237	1135.2
2739.744	1126.2
2743.249	1128.2
2746.75	1170.2
2750.248	1171.2
2753.743	1175.2
2757.236	1194.2
2760.725	1195.2
2764.211	1201.2
2767.695	1207.2
2771.175	1194.2
2774.652	1203.2
2778.127	1192.2
2781.598	1198.2
2785.067	1168.2
2788.532	1158.2
2791.995	1159.2
2795.455	1152.2
2798.911	1161.2
2802.365	1157.2
2805.816	1154.2
2809.264	1144.2
2812.709	1155.2
2816.151	1176.2
2819.59	1158.2
2823.026	1159.2
2826.46	1161.2
2829.89	1165.2
2833.318	1163.2
2836.742	1167.2
2840.164	1197.2
2843.583	1195.2
2846.999	1199.2
2850.412	1209.2
2853.822	1222.2
2857.229	1256.2
2860.634	1263.2
2864.035	1265.2
2867.434	1289.2
2870.83	1314.2
2874.223	1317.2
2877.613	1373.2
2881	1357.2
2884.385	1370.2
2887.766	1364.2
2891.145	1365.2
2894.521	1354.2
2897.894	1366.2
2901.264	1372.2
2904.631	1360.2
2907.996	1359.2
2911.358	1381.2
2914.717	1384.2
2918.073	1380.2
2921.426	1404.2
2924.777	1419.2
2928.124	1436.2
2931.469	1475.2
2934.811	1476.2
2938.15	1487.2
2941.487	1485.2
2944.821	1518.2
2948.152	1507.2
2951.48	1521.2
2954.805	1477.2
2958.128	1489.2
2961.447	1483.2
2964.765	1451.2
2968.079	1462.2
2971.39	1485.2
2974.699	1496.2
2978.005	1513.2
2981.308	1557.2
2984.609	1587.2
2987.907	1597.2
2991.202	1643.2
2994.494	1666.2
2997.784	1708.2
3001.07	1730.2
3004.355	1761.2
3007.636	1775.2
3010.915	1789.2
3014.191	1824.2
3017.464	1804.2
3020.734	1842.2
3024.002	1843.2
3027.267	1878.2
3030.53	1859.2
3033.789	1874.2
3037.046	1905.2
3040.301	1930.2
3043.552	1983.2
3046.801	1989.2
3050.048	2049.2
3053.291	2090.2
3056.532	2155.2
3059.771	2212.2
3063.006	2272.2
3066.239	2358.2
3069.469	2404.2
3072.697	2457.2
3075.922	2506.2
3079.144	2575.2
3082.364	2645.2
3085.581	2683.2
3088.795	2745.2
3092.007	2804.2
3095.216	2877.2
3098.423	2939.2
3101.627	3021.2
3104.828	3053.2
3108.026	3146.2
3111.222	3215.2
3114.416	3267.2
3117.607	3324.2
3120.795	3417.2
3123.98	3497.2
3127.163	3600.2
3130.344	3669.2
3133.521	3736.2
3136.696	3839.2
3139.869	3906.2
3143.039	3956.2
3146.206	4026.2
3149.371	4076.2
3152.533	4089.2
3155.693	4152.2
3158.85	4179.2
3162.005	4170.2
3165.157	4179.2
3168.306	4228.2
3171.453	4228.2
3174.597	4217.2
3177.739	4229.2
3180.878	4259.2
3184.014	4254.2
3187.149	4245.2
3190.28	4237.2
3193.409	4242.2
3196.536	4254.2
3199.659	4284.2
3202.781	4264.2
3205.9	4248.2
3209.016	4303.2
3212.13	4239.2
3215.241	4206.2
3218.35	4201.2
3221.456	4167.2
3224.56	4151.2
3227.661	4075.2
3230.76	4026.2
3233.856	3981.2
3236.95	3959.2
3240.041	3932.2
3243.13	3897.2
3246.216	3877.2
3249.3	3864.2
3252.382	3869.2
3255.46	3824.2
3258.537	3828.2
3261.611	3802.2
3264.682	3774.2
3267.751	3823.2
3270.818	3803.2
3273.882	3781.2
3276.943	3743.2
3280.002	3738.2
3283.059	3720.2
3286.113	3674.2
3289.165	3618.2
3292.214	3551.2
3295.261	3496.2
3298.306	3412.2
3301.348	3389.2
3304.387	3308.2
3307.425	3260.2
3310.459	3228.2
3313.492	3160.2
3316.521	3136.2
3319.549	3069.2
3322.574	3050.2
3325.597	2993.2
3328.617	3010.2
3331.635	2976.2
3334.65	2960.2
3337.663	2951.2
3340.674	2937.2
3343.682	2932.2
3346.688	2890.2
3349.691	2920.2
3352.692	2900.2
3355.691	2850.2
3358.687	2839.2
3361.681	2808.2
3364.673	2768.2
3367.662	2738.2
3370.649	2678.2
3373.633	2677.2
3376.615	2610.2
3379.595	2539.2
3382.572	2545.2
3385.547	2526.2
3388.52	2467.2
3391.49	2438.2
3394.458	2392.2
3397.424	2349.2
3400.387	2323.2
3403.348	2292.2
3406.307	2288.2
3409.263	2246.2
3412.217	2230.2
3415.168	2193.2
3418.118	2184.2
3421.065	2138.2
3424.009	2127.2
3426.951	2080.2
3429.891	2072.2
3432.829	2002.2
3435.764	1945.2
3438.697	1907.2
3441.628	1852.2
3444.557	1798.2
3447.483	1746.2
3450.407	1716.2
3453.328	1645.2
3456.247	1607.2
3459.164	1539.2
3462.079	1479.2
3464.991	1435.2
3467.902	1378.2
3470.809	1328.2
3473.715	1266.2
3476.618	1241.2
3479.519	1197.2
3482.418	1161.2
3485.315	1108.2
3488.209	1069.2
3491.101	1044.2
3493.99	1001.2
3496.878	947.2
3499.763	933.2
3502.646	898.2
3505.527	864.2
3508.405	829.2
3511.281	769.2
3514.155	735.2
3517.027	694.2
3519.897	645.2
3522.764	605.2
3525.629	574.2
3528.492	515.2
3531.352	469.2
3534.211	427.2
3537.067	402.2
3539.921	354.2
3542.773	315.2
3545.622	273.2
3548.469	259.2
3551.315	230.2
3554.157	197.2
3556.998	161.2
3559.837	153.2
3562.673	116.2
3565.507	88.2
3568.339	75.2
3571.169	41.2
3573.996	24.2
3576.822	10.2
3579.645	-17.8
3582.466	-48.8
3585.285	-53.8
3588.101	-82.8
3590.916	-100.8
3593.728	-125.8
3596.538	-140.8
3599.346	-166.8
3602.152	-178.8
3604.956	-202.8
3607.757	-217.8
3610.556	-237.8
3613.354	-245.8
3616.149	-262.8
3618.942	-274.8
3621.732	-285.8
3624.521	-296.8
3627.307	-303.8
3630.092	-323.8
3632.874	-331.8
3635.654	-346.8
3638.432	-348.8
3641.208	-355.8
3643.982	-372.8
3646.753	-368.8
3649.523	-391.8
3652.29	-401.8
3655.055	-411.8
3657.818	-424.8
3660.579	-433.8
3663.338	-442.8
3666.095	-450.8
3668.849	-466.8
3671.602	-468.8
3674.352	-481.8
3677.101	-477.8
3679.847	-494.8
3682.591	-500.8
3685.333	-510.8
3688.073	-504.8
3690.811	-514.8
3693.547	-521.8
3696.281	-527.8
3699.013	-532.8
3701.742	-535.8
3704.47	-541.8
3707.195	-551.8
3709.919	-544.8
3712.64	-555.8
3715.359	-565.8
3718.076	-568.8
3720.792	-563.8
3723.505	-568.8
3726.216	-571.8
3728.925	-573.8
3731.632	-572.8
3734.336	-586.8
3737.039	-581.8
3739.74	-581.8
3742.439	-590.8
3745.136	-588.8
3747.83	-599.8
3750.523	-597.8
3753.213	-581.8
3755.902	-602.8
3758.589	-603.8
3761.273	-610.8
3763.956	-611.8
3766.636	-611.8
3769.315	-617.8
3771.991	-613.8
3774.665	-624.8
3777.338	-616.8
3780.008	-619.8
3782.677	-622.8
3785.343	-613.8
3788.007	-615.8
3790.67	-622.8
3793.33	-624.8
3795.989	-625.8
3798.645	-623.8
3801.299	-619.8
3803.952	-636.8
3806.602	-632.8
3809.251	-637.8
3811.897	-631.8
3814.542	-635.8
3817.184	-635.8
3819.825	-633.8
3822.463	-628.8
3825.1	-643.8
3827.735	-634.8
3830.367	-643.8
3832.998	-647.8
3835.627	-643.8
3838.253	-635.8
3840.878	-644.8
3843.501	-644.8
3846.122	-639.8
3848.741	-637.8
3851.358	-637.8
3853.973	-639.8
3856.586	-646.8
3859.197	-647.8
3861.806	-651.8
3864.414	-644.8
3867.019	-644.8
3869.622	-640.8
3872.224	-641.8
3874.823	-627.8
3877.421	-610.8
3880.016	-599.8
3882.61	-576.8
3885.202	-570.8
3887.792	-583.8
3890.38	-615.8
3892.966	-632.8
3895.55	-645.8
3898.132	-657.8
3900.713	-660.8
3903.291	-656.8
3905.868	-656.8
3908.442	-655.8
3911.015	-653.8
3913.586	-650.8
3916.155	-654.8
3918.722	-660.8
3921.287	-662.8
3923.85	-660.8
3926.411	-660.8
3928.971	-669.8
3931.528	-663.8
3934.084	-665.8
3936.638	-667.8
3939.19	-667.8
3941.74	-667.8
3944.288	-667.8
3946.834	-659.8
3949.378	-666.8
3951.921	-662.8
3954.462	-669.8
3957	-658.8
3959.537	-657.8
3962.072	-664.8
3964.606	-663.8
3967.137	-656.8
3969.667	-658.8
3972.194	-660.8
3974.72	-663.8
3977.244	-648.8
3979.766	-653.8
3982.286	-651.8
3984.805	-652.8
3987.321	-650.8
3989.836	-653.8
3992.349	-647.8
3994.86	-644.8
3997.369	-650.8
3999.877	-647.8
4002.382	-643.8
4004.886	-642.8
4007.388	-641.8
4009.888	-644.8
4012.386	-649.8
4014.883	-644.8
4017.377	-643.8
4019.87	-645.8
4022.361	-646.8
4024.85	-648.8
4027.338	-650.8
4029.823	-654.8
4032.307	-657.8
4034.789	-649.8
4037.269	-651.8
4039.747	-649.8
4042.224	-647.8
4044.699	-648.8
4047.172	-650.8
4049.643	-648.8
4052.112	-656.8
4054.58	-653.8
4057.046	-652.8
4059.51	-657.8
4061.972	-655.8
4064.432	-656.8
4066.891	-651.8
4069.348	-650.8
4071.803	-646.8
4074.256	-654.8
4076.708	-650.8
4079.158	-652.8
4081.606	-653.8
4084.052	-660.8
4086.497	-657.8
4088.939	-652.8
4091.38	-650.8
4093.819	-648.8
4096.257	-684.8
4098.693	-685.8
4101.127	-688.8
4103.559	-684.8
4105.989	-378.8
4108.418	-367.8
4110.845	-339.8
4113.27	-324.8
4115.694	-279.8
4118.115	-239.8
4120.535	-650.8
4122.954	-648.8
4125.37	-641.8
4127.785	-646.8
4130.198	-649.8
4132.609	-655.8
4135.019	-685.8
4137.427	-690.8
4139.833	-688.8
4142.237	-682.8
