Data from 2018-2-14_conc=2_n=8_RamanShift_06.txt Node
Date: Wed Feb 14 11:27:56 IST 2018
User: aro
Spectrometer: QEPB0276
Trigger mode: 0
Integration Time (sec): 3.000000E1
Scans to average: 1
Electric dark correction enabled: true
Nonlinearity correction enabled: false
Boxcar width: 0
XAxis mode: Raman Shifts
Number of Pixels in Spectrum: 1044
>>>>>Begin Spectral Data<<<<<
160.701	-141.4
166.742	40.6
172.777	550.6
178.805	2081.6
184.826	5769.6
190.841	12010.6
196.849	19284.6
202.85	24419.6
208.845	26075.6
214.833	25780.6
220.815	25299.6
226.789	25066.6
232.758	24986.6
238.719	24687.6
244.674	24331.6
250.623	23892.6
256.565	23367.6
262.5	22823.6
268.429	22410.6
274.351	22052.6
280.267	21776.6
286.176	21475.6
292.079	21290.6
297.975	21067.6
303.865	20857.6
309.748	20704.6
315.625	20542.6
321.495	20371.6
327.359	20374.6
333.217	20301.6
339.068	20228.6
344.912	20262.6
350.751	20212.6
356.583	20160.6
362.408	20237.6
368.227	20162.6
374.04	20246.6
379.847	20274.6
385.647	20358.6
391.44	20415.6
397.228	20555.6
403.009	20527.6
408.784	20639.6
414.553	20745.6
420.315	20708.6
426.071	20757.6
431.821	20730.6
437.565	20727.6
443.302	20728.6
449.033	20632.6
454.758	20651.6
460.477	20603.6
466.189	20555.6
471.896	20458.6
477.596	20412.6
483.29	20355.6
488.978	20381.6
494.66	20294.6
500.335	20137.6
506.005	19894.6
511.668	19655.6
517.325	19367.6
522.977	19239.6
528.622	19086.6
534.261	18913.6
539.894	18758.6
545.521	18734.6
551.141	18755.6
556.756	18623.6
562.365	18565.6
567.968	18511.6
573.565	18375.6
579.155	18252.6
584.74	18267.6
590.319	18122.6
595.892	18071.6
601.459	18054.6
607.02	17992.6
612.575	17865.6
618.124	17731.6
623.667	17598.6
629.204	17554.6
634.735	17495.6
640.261	17387.6
645.781	17323.6
651.294	17315.6
656.802	17312.6
662.304	17292.6
667.8	17218.6
673.29	17193.6
678.775	17150.6
684.254	17043.6
689.726	17031.6
695.193	16982.6
700.655	16899.6
706.11	16878.6
711.56	16785.6
717.004	16603.6
722.442	16581.6
727.874	16534.6
733.301	16471.6
738.722	16404.6
744.137	16395.6
749.547	16359.6
754.951	16403.6
760.349	16375.6
765.741	16397.6
771.128	16403.6
776.509	16458.6
781.885	16415.6
787.254	16397.6
792.618	16316.6
797.977	16220.6
803.33	16144.6
808.677	16068.6
814.019	15921.6
819.355	15917.6
824.686	15835.6
830.011	15755.6
835.33	15782.6
840.644	15758.6
845.952	15758.6
851.255	15822.6
856.552	15886.6
861.844	15737.6
867.13	15718.6
872.41	15702.6
877.686	15582.6
882.955	15512.6
888.219	15364.6
893.478	15233.6
898.731	14986.6
903.979	14844.6
909.221	14689.6
914.458	14712.6
919.69	14684.6
924.916	14712.6
930.136	14788.6
935.351	14802.6
940.561	14794.6
945.766	14745.6
950.965	14706.6
956.158	14594.6
961.347	14446.6
966.529	14256.6
971.707	14110.6
976.879	13896.6
982.046	13773.6
987.208	13763.6
992.364	13805.6
997.515	13871.6
1002.66	13986.6
1007.801	14154.6
1012.936	14249.6
1018.066	14237.6
1023.19	14246.6
1028.309	14210.6
1033.423	14226.6
1038.532	14128.6
1043.636	13990.6
1048.734	13835.6
1053.827	13706.6
1058.915	13591.6
1063.998	13429.6
1069.075	13403.6
1074.147	13423.6
1079.214	13456.6
1084.276	13579.6
1089.333	13661.6
1094.385	13673.6
1099.431	13753.6
1104.472	13763.6
1109.509	13656.6
1114.54	13515.6
1119.565	13337.6
1124.586	13142.6
1129.602	13059.6
1134.613	12930.6
1139.618	12875.6
1144.619	12892.6
1149.614	12807.6
1154.604	12845.6
1159.589	12955.6
1164.57	12919.6
1169.545	12963.6
1174.515	12956.6
1179.48	12862.6
1184.44	12792.6
1189.395	12763.6
1194.345	12594.6
1199.29	12548.6
1204.23	12550.6
1209.165	12625.6
1214.095	12649.6
1219.021	12763.6
1223.941	12780.6
1228.856	12900.6
1233.766	12946.6
1238.672	12902.6
1243.572	12971.6
1248.467	12863.6
1253.358	12702.6
1258.244	12527.6
1263.124	12339.6
1268	12154.6
1272.871	12034.6
1277.737	11934.6
1282.599	11888.6
1287.455	11841.6
1292.306	11885.6
1297.153	11958.6
1301.995	12000.6
1306.832	11997.6
1311.664	12062.6
1316.491	12008.6
1321.314	11929.6
1326.132	11738.6
1330.945	11506.6
1335.753	11230.6
1340.556	10931.6
1345.354	10742.6
1350.148	10580.6
1354.937	10440.6
1359.722	10420.6
1364.501	10517.6
1369.276	10630.6
1374.046	10769.6
1378.811	10891.6
1383.572	11025.6
1388.327	11071.6
1393.079	11056.6
1397.825	10895.6
1402.567	10760.6
1407.304	10628.6
1412.036	10503.6
1416.764	10421.6
1421.487	10335.6
1426.205	10280.6
1430.919	10256.6
1435.628	10260.6
1440.333	10312.6
1445.032	10340.6
1449.727	10339.6
1454.418	10345.6
1459.104	10225.6
1463.785	10041.6
1468.462	9826.6
1473.134	9615.6
1477.802	9436.6
1482.465	9256.6
1487.123	9165.6
1491.777	9171.6
1496.426	9221.6
1501.071	9332.6
1505.711	9470.6
1510.347	9601.6
1514.978	9820.6
1519.604	9936.6
1524.226	10004.6
1528.844	10074.6
1533.457	10035.6
1538.065	10015.6
1542.669	9919.6
1547.269	9855.6
1551.864	9795.6
1556.454	9770.6
1561.041	9749.6
1565.622	9743.6
1570.199	9738.6
1574.772	9810.6
1579.34	9857.6
1583.904	9927.6
1588.464	9917.6
1593.019	9918.6
1597.569	9949.6
1602.115	9854.6
1606.657	9798.6
1611.195	9734.6
1615.728	9682.6
1620.256	9640.6
1624.78	9640.6
1629.3	9612.6
1633.816	9685.6
1638.327	9769.6
1642.834	9778.6
1647.336	9843.6
1651.834	9831.6
1656.328	9833.6
1660.817	9765.6
1665.302	9678.6
1669.783	9543.6
1674.259	9293.6
1678.732	9055.6
1683.199	8755.6
1687.663	8422.6
1692.122	8227.6
1696.577	8061.6
1701.028	7999.6
1705.474	8091.6
1709.917	8165.6
1714.355	8232.6
1718.788	8176.6
1723.218	8073.6
1727.643	7911.6
1732.064	7763.6
1736.481	7579.6
1740.893	7429.6
1745.301	7184.6
1749.705	6975.6
1754.105	6811.6
1758.501	6581.6
1762.893	6427.6
1767.28	6260.6
1771.663	6104.6
1776.042	6028.6
1780.417	5960.6
1784.787	5967.6
1789.154	6013.6
1793.516	6116.6
1797.874	6201.6
1802.228	6382.6
1806.578	6446.6
1810.924	6430.6
1815.266	6412.6
1819.603	6277.6
1823.937	6178.6
1828.266	6067.6
1832.591	5987.6
1836.913	5877.6
1841.23	5812.6
1845.543	5821.6
1849.852	5785.6
1854.156	5774.6
1858.457	5745.6
1862.754	5733.6
1867.047	5750.6
1871.335	5726.6
1875.62	5709.6
1879.9	5684.6
1884.177	5651.6
1888.449	5617.6
1892.718	5560.6
1896.982	5505.6
1901.243	5455.6
1905.499	5371.6
1909.752	5382.6
1914	5408.6
1918.245	5392.6
1922.485	5469.6
1926.722	5515.6
1930.954	5577.6
1935.183	5612.6
1939.408	5699.6
1943.628	5721.6
1947.845	5775.6
1952.058	5740.6
1956.267	5694.6
1960.472	5610.6
1964.673	5522.6
1968.87	5467.6
1973.063	5363.6
1977.252	5287.6
1981.438	5219.6
1985.619	5201.6
1989.797	5114.6
1993.971	5085.6
1998.14	5049.6
2002.306	5080.6
2006.469	5046.6
2010.627	5030.6
2014.781	4963.6
2018.932	4942.6
2023.078	4902.6
2027.221	4828.6
2031.36	4756.6
2035.495	4669.6
2039.627	4613.6
2043.754	4595.6
2047.878	4524.6
2051.998	4497.6
2056.114	4463.6
2060.226	4491.6
2064.334	4484.6
2068.439	4504.6
2072.54	4536.6
2076.637	4562.6
2080.73	4563.6
2084.82	4627.6
2088.906	4611.6
2092.988	4641.6
2097.066	4612.6
2101.14	4619.6
2105.211	4541.6
2109.278	4531.6
2113.342	4499.6
2117.401	4484.6
2121.457	4471.6
2125.509	4441.6
2129.558	4423.6
2133.602	4387.6
2137.643	4340.6
2141.681	4310.6
2145.714	4317.6
2149.744	4284.6
2153.77	4267.6
2157.793	4232.6
2161.812	4154.6
2165.827	4116.6
2169.838	4058.6
2173.846	3978.6
2177.851	3900.6
2181.851	3834.6
2185.848	3786.6
2189.841	3737.6
2193.831	3735.6
2197.817	3718.6
2201.799	3712.6
2205.778	3649.6
2209.753	3632.6
2213.725	3637.6
2217.693	3639.6
2221.657	3614.6
2225.618	3628.6
2229.575	3584.6
2233.529	3554.6
2237.479	3537.6
2241.425	3479.6
2245.368	3425.6
2249.307	3398.6
2253.243	3360.6
2257.175	3295.6
2261.104	3239.6
2265.029	3230.6
2268.95	3191.6
2272.868	3135.6
2276.783	3121.6
2280.694	3091.6
2284.601	3055.6
2288.505	3041.6
2292.405	2997.6
2296.302	2987.6
2300.195	2935.6
2304.085	2909.6
2307.971	2865.6
2311.854	2822.6
2315.734	2793.6
2319.609	2756.6
2323.482	2701.6
2327.351	2677.6
2331.216	2670.6
2335.078	2661.6
2338.937	2635.6
2342.792	2626.6
2346.643	2616.6
2350.492	2609.6
2354.336	2618.6
2358.178	2620.6
2362.015	2634.6
2365.85	2616.6
2369.681	2614.6
2373.508	2626.6
2377.333	2600.6
2381.153	2608.6
2384.971	2582.6
2388.785	2587.6
2392.595	2553.6
2396.402	2528.6
2400.206	2504.6
2404.007	2520.6
2407.804	2500.6
2411.597	2489.6
2415.388	2468.6
2419.174	2457.6
2422.958	2422.6
2426.738	2393.6
2430.515	2393.6
2434.289	2337.6
2438.059	2356.6
2441.825	2318.6
2445.589	2293.6
2449.349	2292.6
2453.106	2254.6
2456.859	2226.6
2460.61	2200.6
2464.356	2198.6
2468.1	2143.6
2471.84	2124.6
2475.577	2122.6
2479.311	2116.6
2483.041	2089.6
2486.768	2079.6
2490.492	2071.6
2494.213	2049.6
2497.93	2055.6
2501.644	2070.6
2505.355	2024.6
2509.062	2031.6
2512.766	2009.6
2516.467	2008.6
2520.165	2001.6
2523.859	1975.6
2527.551	1950.6
2531.239	1963.6
2534.923	1948.6
2538.605	1930.6
2542.283	1932.6
2545.958	1930.6
2549.63	1924.6
2553.299	1922.6
2556.964	1911.6
2560.626	1923.6
2564.285	1896.6
2567.941	1889.6
2571.594	1885.6
2575.243	1867.6
2578.89	1859.6
2582.533	1833.6
2586.173	1854.6
2589.809	1845.6
2593.443	1797.6
2597.073	1781.6
2600.701	1777.6
2604.325	1759.6
2607.946	1747.6
2611.564	1720.6
2615.178	1731.6
2618.79	1697.6
2622.398	1685.6
2626.004	1695.6
2629.606	1666.6
2633.205	1646.6
2636.801	1601.6
2640.394	1611.6
2643.983	1580.6
2647.57	1570.6
2651.153	1513.6
2654.734	1491.6
2658.311	1459.6
2661.885	1450.6
2665.456	1461.6
2669.025	1420.6
2672.589	1410.6
2676.151	1401.6
2679.71	1378.6
2683.266	1355.6
2686.819	1330.6
2690.368	1323.6
2693.915	1288.6
2697.458	1257.6
2700.999	1216.6
2704.536	1192.6
2708.071	1168.6
2711.602	1163.6
2715.13	1127.6
2718.656	1106.6
2722.178	1078.6
2725.697	1054.6
2729.214	1054.6
2732.727	1055.6
2736.237	1040.6
2739.744	1033.6
2743.249	1054.6
2746.75	1071.6
2750.248	1037.6
2753.743	1051.6
2757.236	1069.6
2760.725	1067.6
2764.211	1086.6
2767.695	1100.6
2771.175	1093.6
2774.652	1095.6
2778.127	1075.6
2781.598	1080.6
2785.067	1081.6
2788.532	1070.6
2791.995	1065.6
2795.455	1074.6
2798.911	1066.6
2802.365	1072.6
2805.816	1066.6
2809.264	1066.6
2812.709	1066.6
2816.151	1061.6
2819.59	1074.6
2823.026	1080.6
2826.46	1074.6
2829.89	1068.6
2833.318	1076.6
2836.742	1088.6
2840.164	1095.6
2843.583	1084.6
2846.999	1109.6
2850.412	1102.6
2853.822	1134.6
2857.229	1128.6
2860.634	1168.6
2864.035	1193.6
2867.434	1184.6
2870.83	1216.6
2874.223	1233.6
2877.613	1240.6
2881	1244.6
2884.385	1261.6
2887.766	1239.6
2891.145	1259.6
2894.521	1242.6
2897.894	1253.6
2901.264	1260.6
2904.631	1240.6
2907.996	1255.6
2911.358	1281.6
2914.717	1281.6
2918.073	1282.6
2921.426	1291.6
2924.777	1302.6
2928.124	1328.6
2931.469	1351.6
2934.811	1359.6
2938.15	1382.6
2941.487	1391.6
2944.821	1396.6
2948.152	1400.6
2951.48	1381.6
2954.805	1369.6
2958.128	1359.6
2961.447	1348.6
2964.765	1350.6
2968.079	1368.6
2971.39	1361.6
2974.699	1393.6
2978.005	1403.6
2981.308	1435.6
2984.609	1465.6
2987.907	1471.6
2991.202	1498.6
2994.494	1537.6
2997.784	1587.6
3001.07	1591.6
3004.355	1598.6
3007.636	1650.6
3010.915	1654.6
3014.191	1674.6
3017.464	1677.6
3020.734	1692.6
3024.002	1699.6
3027.267	1724.6
3030.53	1715.6
3033.789	1751.6
3037.046	1773.6
3040.301	1786.6
3043.552	1830.6
3046.801	1871.6
3050.048	1887.6
3053.291	1952.6
3056.532	1995.6
3059.771	2054.6
3063.006	2105.6
3066.239	2172.6
3069.469	2247.6
3072.697	2293.6
3075.922	2339.6
3079.144	2401.6
3082.364	2434.6
3085.581	2506.6
3088.795	2564.6
3092.007	2616.6
3095.216	2671.6
3098.423	2715.6
3101.627	2799.6
3104.828	2839.6
3108.026	2910.6
3111.222	2944.6
3114.416	3037.6
3117.607	3087.6
3120.795	3184.6
3123.98	3240.6
3127.163	3319.6
3130.344	3396.6
3133.521	3470.6
3136.696	3563.6
3139.869	3643.6
3143.039	3692.6
3146.206	3715.6
3149.371	3770.6
3152.533	3835.6
3155.693	3837.6
3158.85	3856.6
3162.005	3876.6
3165.157	3907.6
3168.306	3900.6
3171.453	3910.6
3174.597	3906.6
3177.739	3936.6
3180.878	3933.6
3184.014	3933.6
3187.149	3945.6
3190.28	3922.6
3193.409	3939.6
3196.536	3951.6
3199.659	3947.6
3202.781	3965.6
3205.9	3966.6
3209.016	3940.6
3212.13	3932.6
3215.241	3896.6
3218.35	3876.6
3221.456	3824.6
3224.56	3817.6
3227.661	3770.6
3230.76	3708.6
3233.856	3669.6
3236.95	3635.6
3240.041	3591.6
3243.13	3606.6
3246.216	3568.6
3249.3	3584.6
3252.382	3547.6
3255.46	3529.6
3258.537	3532.6
3261.611	3532.6
3264.682	3558.6
3267.751	3522.6
3270.818	3521.6
3273.882	3499.6
3276.943	3467.6
3280.002	3463.6
3283.059	3422.6
3286.113	3388.6
3289.165	3340.6
3292.214	3292.6
3295.261	3261.6
3298.306	3204.6
3301.348	3154.6
3304.387	3081.6
3307.425	3032.6
3310.459	2982.6
3313.492	2950.6
3316.521	2899.6
3319.549	2856.6
3322.574	2846.6
3325.597	2808.6
3328.617	2799.6
3331.635	2773.6
3334.65	2760.6
3337.663	2745.6
3340.674	2723.6
3343.682	2693.6
3346.688	2714.6
3349.691	2701.6
3352.692	2702.6
3355.691	2672.6
3358.687	2657.6
3361.681	2624.6
3364.673	2599.6
3367.662	2530.6
3370.649	2511.6
3373.633	2471.6
3376.615	2435.6
3379.595	2404.6
3382.572	2345.6
3385.547	2332.6
3388.52	2293.6
3391.49	2260.6
3394.458	2240.6
3397.424	2183.6
3400.387	2173.6
3403.348	2147.6
3406.307	2117.6
3409.263	2124.6
3412.217	2061.6
3415.168	2045.6
3418.118	2012.6
3421.065	1991.6
3424.009	1983.6
3426.951	1946.6
3429.891	1921.6
3432.829	1843.6
3435.764	1820.6
3438.697	1763.6
3441.628	1733.6
3444.557	1661.6
3447.483	1633.6
3450.407	1588.6
3453.328	1514.6
3456.247	1475.6
3459.164	1430.6
3462.079	1374.6
3464.991	1332.6
3467.902	1281.6
3470.809	1234.6
3473.715	1187.6
3476.618	1146.6
3479.519	1095.6
3482.418	1067.6
3485.315	1033.6
3488.209	1010.6
3491.101	972.6
3493.99	941.6
3496.878	883.6
3499.763	870.6
3502.646	842.6
3505.527	789.6
3508.405	767.6
3511.281	712.6
3514.155	674.6
3517.027	645.6
3519.897	605.6
3522.764	559.6
3525.629	514.6
3528.492	482.6
3531.352	453.6
3534.211	413.6
3537.067	372.6
3539.921	346.6
3542.773	305.6
3545.622	273.6
3548.469	234.6
3551.315	210.6
3554.157	187.6
3556.998	166.6
3559.837	140.6
3562.673	109.6
3565.507	85.6
3568.339	64.6
3571.169	42.6
3573.996	22.6
3576.822	9.6
3579.645	-7.4
3582.466	-33.4
3585.285	-50.4
3588.101	-68.4
3590.916	-90.4
3593.728	-102.4
3596.538	-120.4
3599.346	-153.4
3602.152	-159.4
3604.956	-175.4
3607.757	-191.4
3610.556	-215.4
3613.354	-222.4
3616.149	-243.4
3618.942	-249.4
3621.732	-254.4
3624.521	-272.4
3627.307	-280.4
3630.092	-285.4
3632.874	-302.4
3635.654	-313.4
3638.432	-309.4
3641.208	-329.4
3643.982	-340.4
3646.753	-341.4
3649.523	-353.4
3652.29	-366.4
3655.055	-362.4
3657.818	-389.4
3660.579	-390.4
3663.338	-403.4
3666.095	-415.4
3668.849	-430.4
3671.602	-432.4
3674.352	-434.4
3677.101	-437.4
3679.847	-447.4
3682.591	-459.4
3685.333	-468.4
3688.073	-465.4
3690.811	-469.4
3693.547	-474.4
3696.281	-484.4
3699.013	-487.4
3701.742	-498.4
3704.47	-501.4
3707.195	-506.4
3709.919	-504.4
3712.64	-503.4
3715.359	-512.4
3718.076	-514.4
3720.792	-509.4
3723.505	-515.4
3726.216	-529.4
3728.925	-516.4
3731.632	-532.4
3734.336	-533.4
3737.039	-537.4
3739.74	-535.4
3742.439	-540.4
3745.136	-546.4
3747.83	-543.4
3750.523	-544.4
3753.213	-536.4
3755.902	-547.4
3758.589	-553.4
3761.273	-554.4
3763.956	-559.4
3766.636	-557.4
3769.315	-557.4
3771.991	-562.4
3774.665	-567.4
3777.338	-560.4
3780.008	-562.4
3782.677	-568.4
3785.343	-562.4
3788.007	-570.4
3790.67	-571.4
3793.33	-576.4
3795.989	-575.4
3798.645	-578.4
3801.299	-573.4
3803.952	-579.4
3806.602	-586.4
3809.251	-585.4
3811.897	-584.4
3814.542	-584.4
3817.184	-575.4
3819.825	-583.4
3822.463	-580.4
3825.1	-585.4
3827.735	-581.4
3830.367	-581.4
3832.998	-593.4
3835.627	-598.4
3838.253	-588.4
3840.878	-598.4
3843.501	-592.4
3846.122	-587.4
3848.741	-586.4
3851.358	-588.4
3853.973	-585.4
3856.586	-591.4
3859.197	-593.4
3861.806	-595.4
3864.414	-595.4
3867.019	-592.4
3869.622	-590.4
3872.224	-591.4
3874.823	-573.4
3877.421	-559.4
3880.016	-547.4
3882.61	-521.4
3885.202	-521.4
3887.792	-531.4
3890.38	-558.4
3892.966	-577.4
3895.55	-590.4
3898.132	-607.4
3900.713	-605.4
3903.291	-603.4
3905.868	-599.4
3908.442	-608.4
3911.015	-606.4
3913.586	-596.4
3916.155	-603.4
3918.722	-607.4
3921.287	-610.4
3923.85	-610.4
3926.411	-608.4
3928.971	-611.4
3931.528	-611.4
3934.084	-609.4
3936.638	-607.4
3939.19	-613.4
3941.74	-609.4
3944.288	-604.4
3946.834	-606.4
3949.378	-614.4
3951.921	-607.4
3954.462	-611.4
3957	-605.4
3959.537	-610.4
3962.072	-609.4
3964.606	-606.4
3967.137	-609.4
3969.667	-614.4
3972.194	-606.4
3974.72	-611.4
3977.244	-600.4
3979.766	-602.4
3982.286	-603.4
3984.805	-599.4
3987.321	-601.4
3989.836	-600.4
3992.349	-588.4
3994.86	-589.4
3997.369	-601.4
3999.877	-596.4
4002.382	-594.4
4004.886	-593.4
4007.388	-593.4
4009.888	-592.4
4012.386	-595.4
4014.883	-594.4
4017.377	-594.4
4019.87	-593.4
4022.361	-595.4
4024.85	-594.4
4027.338	-602.4
4029.823	-598.4
4032.307	-598.4
4034.789	-594.4
4037.269	-595.4
4039.747	-597.4
4042.224	-598.4
4044.699	-596.4
4047.172	-602.4
4049.643	-592.4
4052.112	-599.4
4054.58	-599.4
4057.046	-600.4
4059.51	-606.4
4061.972	-598.4
4064.432	-605.4
4066.891	-602.4
4069.348	-599.4
4071.803	-594.4
4074.256	-600.4
4076.708	-594.4
4079.158	-596.4
4081.606	-596.4
4084.052	-600.4
4086.497	-595.4
4088.939	-594.4
4091.38	-601.4
4093.819	-597.4
4096.257	-630.4
4098.693	-630.4
4101.127	-633.4
4103.559	-629.4
4105.989	-347.4
4108.418	-331.4
4110.845	-307.4
4113.27	-295.4
4115.694	-261.4
4118.115	-213.4
4120.535	-598.4
4122.954	-599.4
4125.37	-591.4
4127.785	-597.4
4130.198	-601.4
4132.609	-602.4
4135.019	-637.4
4137.427	-633.4
4139.833	-633.4
4142.237	-627.4
