Data from 2018-2-14_conc=0_n=9_RamanShift_05.txt Node
Date: Wed Feb 14 10:54:56 IST 2018
User: aro
Spectrometer: QEPB0276
Trigger mode: 0
Integration Time (sec): 3.000000E1
Scans to average: 1
Electric dark correction enabled: true
Nonlinearity correction enabled: false
Boxcar width: 0
XAxis mode: Raman Shifts
Number of Pixels in Spectrum: 1044
>>>>>Begin Spectral Data<<<<<
160.701	-86.4
166.742	43.6
172.777	387.6
178.805	1490.6
184.826	4066.6
190.841	8466.6
196.849	13606.6
202.85	17246.6
208.845	18539.6
214.833	18440.6
220.815	18199.6
226.789	18095.6
232.758	18075.6
238.719	17992.6
244.674	17824.6
250.623	17601.6
256.565	17285.6
262.5	16966.6
268.429	16673.6
274.351	16473.6
280.267	16337.6
286.176	16191.6
292.079	16161.6
297.975	15993.6
303.865	15882.6
309.748	15861.6
315.625	15742.6
321.495	15703.6
327.359	15704.6
333.217	15657.6
339.068	15659.6
344.912	15643.6
350.751	15590.6
356.583	15618.6
362.408	15643.6
368.227	15577.6
374.04	15744.6
379.847	15687.6
385.647	15728.6
391.44	15772.6
397.228	15844.6
403.009	15979.6
408.784	16031.6
414.553	16052.6
420.315	16057.6
426.071	16074.6
431.821	16111.6
437.565	16096.6
443.302	16055.6
449.033	16031.6
454.758	15983.6
460.477	15913.6
466.189	15900.6
471.896	15876.6
477.596	15771.6
483.29	15775.6
488.978	15786.6
494.66	15694.6
500.335	15565.6
506.005	15396.6
511.668	15106.6
517.325	14937.6
522.977	14761.6
528.622	14558.6
534.261	14441.6
539.894	14367.6
545.521	14279.6
551.141	14264.6
556.756	14161.6
562.365	14133.6
567.968	14045.6
573.565	14056.6
579.155	13972.6
584.74	13892.6
590.319	13847.6
595.892	13813.6
601.459	13770.6
607.02	13693.6
612.575	13679.6
618.124	13536.6
623.667	13439.6
629.204	13386.6
634.735	13307.6
640.261	13275.6
645.781	13211.6
651.294	13153.6
656.802	13151.6
662.304	13081.6
667.8	13130.6
673.29	13071.6
678.775	13008.6
684.254	12971.6
689.726	12947.6
695.193	12939.6
700.655	12816.6
706.11	12798.6
711.56	12747.6
717.004	12682.6
722.442	12600.6
727.874	12566.6
733.301	12521.6
738.722	12489.6
744.137	12452.6
749.547	12467.6
754.951	12485.6
760.349	12468.6
765.741	12408.6
771.128	12492.6
776.509	12477.6
781.885	12505.6
787.254	12460.6
792.618	12387.6
797.977	12341.6
803.33	12253.6
808.677	12267.6
814.019	12129.6
819.355	12037.6
824.686	12032.6
830.011	11959.6
835.33	11972.6
840.644	11965.6
845.952	11952.6
851.255	11998.6
856.552	12006.6
861.844	11969.6
867.13	11882.6
872.41	11873.6
877.686	11816.6
882.955	11688.6
888.219	11624.6
893.478	11463.6
898.731	11339.6
903.979	11202.6
909.221	11144.6
914.458	11111.6
919.69	11125.6
924.916	11114.6
930.136	11163.6
935.351	11221.6
940.561	11137.6
945.766	11150.6
950.965	11134.6
956.158	11013.6
961.347	10903.6
966.529	10752.6
971.707	10610.6
976.879	10515.6
982.046	10428.6
987.208	10373.6
992.364	10378.6
997.515	10429.6
1002.66	10556.6
1007.801	10617.6
1012.936	10720.6
1018.066	10756.6
1023.19	10715.6
1028.309	10752.6
1033.423	10711.6
1038.532	10660.6
1043.636	10590.6
1048.734	10432.6
1053.827	10290.6
1058.915	10198.6
1063.998	10103.6
1069.075	10091.6
1074.147	10117.6
1079.214	10162.6
1084.276	10186.6
1089.333	10263.6
1094.385	10256.6
1099.431	10352.6
1104.472	10313.6
1109.509	10258.6
1114.54	10131.6
1119.565	10010.6
1124.586	9866.6
1129.602	9721.6
1134.613	9693.6
1139.618	9631.6
1144.619	9611.6
1149.614	9618.6
1154.604	9662.6
1159.589	9622.6
1164.57	9669.6
1169.545	9658.6
1174.515	9665.6
1179.48	9652.6
1184.44	9558.6
1189.395	9521.6
1194.345	9431.6
1199.29	9392.6
1204.23	9391.6
1209.165	9392.6
1214.095	9456.6
1219.021	9515.6
1223.941	9546.6
1228.856	9617.6
1233.766	9664.6
1238.672	9636.6
1243.572	9615.6
1248.467	9553.6
1253.358	9454.6
1258.244	9290.6
1263.124	9113.6
1268	9019.6
1272.871	8896.6
1277.737	8863.6
1282.599	8801.6
1287.455	8792.6
1292.306	8799.6
1297.153	8798.6
1301.995	8815.6
1306.832	8899.6
1311.664	8907.6
1316.491	8894.6
1321.314	8806.6
1326.132	8708.6
1330.945	8544.6
1335.753	8325.6
1340.556	8176.6
1345.354	7986.6
1350.148	7850.6
1354.937	7782.6
1359.722	7758.6
1364.501	7696.6
1369.276	7732.6
1374.046	7782.6
1378.811	7851.6
1383.572	7910.6
1388.327	7921.6
1393.079	7881.6
1397.825	7852.6
1402.567	7762.6
1407.304	7674.6
1412.036	7629.6
1416.764	7587.6
1421.487	7559.6
1426.205	7545.6
1430.919	7501.6
1435.628	7508.6
1440.333	7539.6
1445.032	7551.6
1449.727	7599.6
1454.418	7569.6
1459.104	7498.6
1463.785	7361.6
1468.462	7213.6
1473.134	7067.6
1477.802	6925.6
1482.465	6799.6
1487.123	6704.6
1491.777	6664.6
1496.426	6667.6
1501.071	6710.6
1505.711	6743.6
1510.347	6849.6
1514.978	6924.6
1519.604	7006.6
1524.226	7034.6
1528.844	7032.6
1533.457	7043.6
1538.065	7032.6
1542.669	6972.6
1547.269	6960.6
1551.864	6884.6
1556.454	6902.6
1561.041	6857.6
1565.622	6880.6
1570.199	6904.6
1574.772	6977.6
1579.34	6978.6
1583.904	7027.6
1588.464	7043.6
1593.019	7068.6
1597.569	7041.6
1602.115	7012.6
1606.657	6965.6
1611.195	6916.6
1615.728	6880.6
1620.256	6833.6
1624.78	6809.6
1629.3	6827.6
1633.816	6826.6
1638.327	6914.6
1642.834	6915.6
1647.336	6959.6
1651.834	6944.6
1656.328	6940.6
1660.817	6921.6
1665.302	6794.6
1669.783	6678.6
1674.259	6574.6
1678.732	6370.6
1683.199	6160.6
1687.663	5944.6
1692.122	5759.6
1696.577	5653.6
1701.028	5557.6
1705.474	5524.6
1709.917	5591.6
1714.355	5577.6
1718.788	5525.6
1723.218	5513.6
1727.643	5424.6
1732.064	5349.6
1736.481	5240.6
1740.893	5140.6
1745.301	4975.6
1749.705	4875.6
1754.105	4737.6
1758.501	4620.6
1762.893	4494.6
1767.28	4391.6
1771.663	4313.6
1776.042	4243.6
1780.417	4186.6
1784.787	4154.6
1789.154	4181.6
1793.516	4203.6
1797.874	4240.6
1802.228	4297.6
1806.578	4358.6
1810.924	4351.6
1815.266	4348.6
1819.603	4267.6
1823.937	4195.6
1828.266	4157.6
1832.591	4096.6
1836.913	4077.6
1841.23	4022.6
1845.543	4013.6
1849.852	4007.6
1854.156	3972.6
1858.457	3966.6
1862.754	3961.6
1867.047	3950.6
1871.335	3972.6
1875.62	3940.6
1879.9	3955.6
1884.177	3929.6
1888.449	3870.6
1892.718	3810.6
1896.982	3780.6
1901.243	3745.6
1905.499	3693.6
1909.752	3708.6
1914	3682.6
1918.245	3695.6
1922.485	3689.6
1926.722	3725.6
1930.954	3751.6
1935.183	3800.6
1939.408	3805.6
1943.628	3833.6
1947.845	3808.6
1952.058	3810.6
1956.267	3751.6
1960.472	3730.6
1964.673	3691.6
1968.87	3607.6
1973.063	3545.6
1977.252	3530.6
1981.438	3489.6
1985.619	3462.6
1989.797	3401.6
1993.971	3421.6
1998.14	3404.6
2002.306	3382.6
2006.469	3373.6
2010.627	3364.6
2014.781	3350.6
2018.932	3339.6
2023.078	3298.6
2027.221	3240.6
2031.36	3187.6
2035.495	3147.6
2039.627	3105.6
2043.754	3065.6
2047.878	3017.6
2051.998	3006.6
2056.114	3007.6
2060.226	2998.6
2064.334	2989.6
2068.439	3010.6
2072.54	3038.6
2076.637	3014.6
2080.73	3037.6
2084.82	3063.6
2088.906	3046.6
2092.988	3060.6
2097.066	3037.6
2101.14	2992.6
2105.211	2977.6
2109.278	2974.6
2113.342	2925.6
2117.401	2928.6
2121.457	2917.6
2125.509	2899.6
2129.558	2882.6
2133.602	2873.6
2137.643	2869.6
2141.681	2808.6
2145.714	2829.6
2149.744	2826.6
2153.77	2790.6
2157.793	2756.6
2161.812	2714.6
2165.827	2702.6
2169.838	2680.6
2173.846	2616.6
2177.851	2565.6
2181.851	2569.6
2185.848	2498.6
2189.841	2466.6
2193.831	2446.6
2197.817	2433.6
2201.799	2405.6
2205.778	2415.6
2209.753	2412.6
2213.725	2374.6
2217.693	2366.6
2221.657	2356.6
2225.618	2368.6
2229.575	2375.6
2233.529	2337.6
2237.479	2327.6
2241.425	2280.6
2245.368	2273.6
2249.307	2230.6
2253.243	2180.6
2257.175	2168.6
2261.104	2125.6
2265.029	2115.6
2268.95	2082.6
2272.868	2055.6
2276.783	2065.6
2280.694	2004.6
2284.601	1993.6
2288.505	1960.6
2292.405	1961.6
2296.302	1930.6
2300.195	1907.6
2304.085	1886.6
2307.971	1858.6
2311.854	1855.6
2315.734	1808.6
2319.609	1783.6
2323.482	1771.6
2327.351	1743.6
2331.216	1740.6
2335.078	1744.6
2338.937	1714.6
2342.792	1728.6
2346.643	1716.6
2350.492	1702.6
2354.336	1713.6
2358.178	1712.6
2362.015	1736.6
2365.85	1744.6
2369.681	1741.6
2373.508	1752.6
2377.333	1752.6
2381.153	1731.6
2384.971	1744.6
2388.785	1702.6
2392.595	1690.6
2396.402	1671.6
2400.206	1664.6
2404.007	1667.6
2407.804	1657.6
2411.597	1658.6
2415.388	1641.6
2419.174	1624.6
2422.958	1613.6
2426.738	1586.6
2430.515	1574.6
2434.289	1561.6
2438.059	1559.6
2441.825	1553.6
2445.589	1543.6
2449.349	1518.6
2453.106	1499.6
2456.859	1466.6
2460.61	1452.6
2464.356	1436.6
2468.1	1427.6
2471.84	1415.6
2475.577	1406.6
2479.311	1381.6
2483.041	1374.6
2486.768	1370.6
2490.492	1370.6
2494.213	1348.6
2497.93	1335.6
2501.644	1342.6
2505.355	1345.6
2509.062	1339.6
2512.766	1326.6
2516.467	1326.6
2520.165	1296.6
2523.859	1289.6
2527.551	1294.6
2531.239	1283.6
2534.923	1285.6
2538.605	1256.6
2542.283	1278.6
2545.958	1233.6
2549.63	1265.6
2553.299	1237.6
2556.964	1239.6
2560.626	1223.6
2564.285	1226.6
2567.941	1217.6
2571.594	1196.6
2575.243	1191.6
2578.89	1182.6
2582.533	1167.6
2586.173	1169.6
2589.809	1144.6
2593.443	1142.6
2597.073	1148.6
2600.701	1121.6
2604.325	1102.6
2607.946	1100.6
2611.564	1106.6
2615.178	1095.6
2618.79	1087.6
2622.398	1071.6
2626.004	1064.6
2629.606	1041.6
2633.205	1046.6
2636.801	1016.6
2640.394	1011.6
2643.983	998.6
2647.57	978.6
2651.153	950.6
2654.734	942.6
2658.311	929.6
2661.885	917.6
2665.456	897.6
2669.025	894.6
2672.589	886.6
2676.151	877.6
2679.71	861.6
2683.266	849.6
2686.819	826.6
2690.368	819.6
2693.915	804.6
2697.458	787.6
2700.999	775.6
2704.536	736.6
2708.071	717.6
2711.602	719.6
2715.13	707.6
2718.656	690.6
2722.178	671.6
2725.697	659.6
2729.214	649.6
2732.727	656.6
2736.237	638.6
2739.744	618.6
2743.249	645.6
2746.75	638.6
2750.248	624.6
2753.743	649.6
2757.236	646.6
2760.725	644.6
2764.211	633.6
2767.695	628.6
2771.175	642.6
2774.652	653.6
2778.127	642.6
2781.598	637.6
2785.067	626.6
2788.532	642.6
2791.995	635.6
2795.455	631.6
2798.911	622.6
2802.365	635.6
2805.816	635.6
2809.264	634.6
2812.709	648.6
2816.151	642.6
2819.59	642.6
2823.026	633.6
2826.46	631.6
2829.89	646.6
2833.318	643.6
2836.742	651.6
2840.164	644.6
2843.583	652.6
2846.999	664.6
2850.412	670.6
2853.822	662.6
2857.229	669.6
2860.634	688.6
2864.035	697.6
2867.434	693.6
2870.83	706.6
2874.223	726.6
2877.613	725.6
2881	762.6
2884.385	754.6
2887.766	747.6
2891.145	752.6
2894.521	756.6
2897.894	746.6
2901.264	743.6
2904.631	743.6
2907.996	758.6
2911.358	752.6
2914.717	738.6
2918.073	763.6
2921.426	757.6
2924.777	771.6
2928.124	786.6
2931.469	810.6
2934.811	823.6
2938.15	826.6
2941.487	843.6
2944.821	840.6
2948.152	851.6
2951.48	837.6
2954.805	810.6
2958.128	803.6
2961.447	799.6
2964.765	791.6
2968.079	799.6
2971.39	810.6
2974.699	812.6
2978.005	826.6
2981.308	841.6
2984.609	853.6
2987.907	858.6
2991.202	895.6
2994.494	907.6
2997.784	917.6
3001.07	936.6
3004.355	932.6
3007.636	962.6
3010.915	960.6
3014.191	978.6
3017.464	986.6
3020.734	1007.6
3024.002	1012.6
3027.267	1017.6
3030.53	1001.6
3033.789	1022.6
3037.046	1045.6
3040.301	1055.6
3043.552	1076.6
3046.801	1097.6
3050.048	1129.6
3053.291	1158.6
3056.532	1189.6
3059.771	1206.6
3063.006	1255.6
3066.239	1316.6
3069.469	1332.6
3072.697	1362.6
3075.922	1423.6
3079.144	1444.6
3082.364	1489.6
3085.581	1507.6
3088.795	1557.6
3092.007	1574.6
3095.216	1601.6
3098.423	1647.6
3101.627	1694.6
3104.828	1722.6
3108.026	1767.6
3111.222	1807.6
3114.416	1832.6
3117.607	1894.6
3120.795	1921.6
3123.98	1983.6
3127.163	2004.6
3130.344	2062.6
3133.521	2099.6
3136.696	2155.6
3139.869	2206.6
3143.039	2267.6
3146.206	2292.6
3149.371	2289.6
3152.533	2311.6
3155.693	2336.6
3158.85	2330.6
3162.005	2356.6
3165.157	2372.6
3168.306	2364.6
3171.453	2390.6
3174.597	2378.6
3177.739	2391.6
3180.878	2405.6
3184.014	2371.6
3187.149	2392.6
3190.28	2369.6
3193.409	2406.6
3196.536	2387.6
3199.659	2390.6
3202.781	2381.6
3205.9	2396.6
3209.016	2380.6
3212.13	2361.6
3215.241	2356.6
3218.35	2334.6
3221.456	2329.6
3224.56	2281.6
3227.661	2267.6
3230.76	2250.6
3233.856	2219.6
3236.95	2211.6
3240.041	2157.6
3243.13	2156.6
3246.216	2146.6
3249.3	2119.6
3252.382	2121.6
3255.46	2113.6
3258.537	2103.6
3261.611	2116.6
3264.682	2119.6
3267.751	2089.6
3270.818	2091.6
3273.882	2092.6
3276.943	2082.6
3280.002	2070.6
3283.059	2059.6
3286.113	2031.6
3289.165	1985.6
3292.214	1966.6
3295.261	1931.6
3298.306	1896.6
3301.348	1867.6
3304.387	1837.6
3307.425	1811.6
3310.459	1782.6
3313.492	1759.6
3316.521	1722.6
3319.549	1723.6
3322.574	1686.6
3325.597	1695.6
3328.617	1670.6
3331.635	1646.6
3334.65	1665.6
3337.663	1652.6
3340.674	1621.6
3343.682	1624.6
3346.688	1629.6
3349.691	1613.6
3352.692	1604.6
3355.691	1600.6
3358.687	1584.6
3361.681	1568.6
3364.673	1534.6
3367.662	1515.6
3370.649	1482.6
3373.633	1467.6
3376.615	1466.6
3379.595	1429.6
3382.572	1426.6
3385.547	1387.6
3388.52	1369.6
3391.49	1363.6
3394.458	1322.6
3397.424	1326.6
3400.387	1300.6
3403.348	1270.6
3406.307	1266.6
3409.263	1237.6
3412.217	1223.6
3415.168	1217.6
3418.118	1196.6
3421.065	1168.6
3424.009	1178.6
3426.951	1148.6
3429.891	1132.6
3432.829	1099.6
3435.764	1064.6
3438.697	1028.6
3441.628	1017.6
3444.557	976.6
3447.483	947.6
3450.407	922.6
3453.328	879.6
3456.247	849.6
3459.164	820.6
3462.079	790.6
3464.991	750.6
3467.902	736.6
3470.809	705.6
3473.715	682.6
3476.618	646.6
3479.519	626.6
3482.418	599.6
3485.315	586.6
3488.209	558.6
3491.101	526.6
3493.99	500.6
3496.878	482.6
3499.763	458.6
3502.646	457.6
3505.527	410.6
3508.405	405.6
3511.281	368.6
3514.155	351.6
3517.027	325.6
3519.897	310.6
3522.764	281.6
3525.629	258.6
3528.492	210.6
3531.352	212.6
3534.211	183.6
3537.067	156.6
3539.921	139.6
3542.773	111.6
3545.622	97.6
3548.469	74.6
3551.315	59.6
3554.157	41.6
3556.998	20.6
3559.837	13.6
3562.673	-4.4
3565.507	-20.4
3568.339	-23.4
3571.169	-36.4
3573.996	-51.4
3576.822	-60.4
3579.645	-80.4
3582.466	-92.4
3585.285	-99.4
3588.101	-113.4
3590.916	-119.4
3593.728	-140.4
3596.538	-137.4
3599.346	-151.4
3602.152	-167.4
3604.956	-181.4
3607.757	-181.4
3610.556	-198.4
3613.354	-201.4
3616.149	-217.4
3618.942	-218.4
3621.732	-227.4
3624.521	-233.4
3627.307	-237.4
3630.092	-239.4
3632.874	-249.4
3635.654	-258.4
3638.432	-265.4
3641.208	-273.4
3643.982	-277.4
3646.753	-275.4
3649.523	-283.4
3652.29	-292.4
3655.055	-295.4
3657.818	-299.4
3660.579	-307.4
3663.338	-317.4
3666.095	-319.4
3668.849	-333.4
3671.602	-331.4
3674.352	-331.4
3677.101	-340.4
3679.847	-347.4
3682.591	-349.4
3685.333	-358.4
3688.073	-353.4
3690.811	-358.4
3693.547	-360.4
3696.281	-361.4
3699.013	-364.4
3701.742	-364.4
3704.47	-366.4
3707.195	-375.4
3709.919	-380.4
3712.64	-376.4
3715.359	-378.4
3718.076	-388.4
3720.792	-387.4
3723.505	-390.4
3726.216	-394.4
3728.925	-388.4
3731.632	-396.4
3734.336	-398.4
3737.039	-402.4
3739.74	-398.4
3742.439	-395.4
3745.136	-401.4
3747.83	-406.4
3750.523	-399.4
3753.213	-378.4
3755.902	-405.4
3758.589	-407.4
3761.273	-405.4
3763.956	-411.4
3766.636	-409.4
3769.315	-415.4
3771.991	-409.4
3774.665	-420.4
3777.338	-410.4
3780.008	-419.4
3782.677	-416.4
3785.343	-415.4
3788.007	-422.4
3790.67	-423.4
3793.33	-422.4
3795.989	-426.4
3798.645	-420.4
3801.299	-416.4
3803.952	-427.4
3806.602	-430.4
3809.251	-429.4
3811.897	-428.4
3814.542	-429.4
3817.184	-422.4
3819.825	-422.4
3822.463	-426.4
3825.1	-432.4
3827.735	-424.4
3830.367	-428.4
3832.998	-434.4
3835.627	-436.4
3838.253	-439.4
3840.878	-437.4
3843.501	-434.4
3846.122	-427.4
3848.741	-424.4
3851.358	-429.4
3853.973	-427.4
3856.586	-432.4
3859.197	-433.4
3861.806	-436.4
3864.414	-428.4
3867.019	-427.4
3869.622	-429.4
3872.224	-424.4
3874.823	-416.4
3877.421	-400.4
3880.016	-388.4
3882.61	-360.4
3885.202	-352.4
3887.792	-368.4
3890.38	-394.4
3892.966	-419.4
3895.55	-429.4
3898.132	-443.4
3900.713	-439.4
3903.291	-435.4
3905.868	-442.4
3908.442	-444.4
3911.015	-444.4
3913.586	-438.4
3916.155	-441.4
3918.722	-443.4
3921.287	-439.4
3923.85	-445.4
3926.411	-442.4
3928.971	-450.4
3931.528	-440.4
3934.084	-443.4
3936.638	-442.4
3939.19	-444.4
3941.74	-439.4
3944.288	-446.4
3946.834	-440.4
3949.378	-444.4
3951.921	-438.4
3954.462	-448.4
3957	-444.4
3959.537	-445.4
3962.072	-440.4
3964.606	-444.4
3967.137	-443.4
3969.667	-448.4
3972.194	-433.4
3974.72	-445.4
3977.244	-434.4
3979.766	-435.4
3982.286	-436.4
3984.805	-433.4
3987.321	-434.4
3989.836	-433.4
3992.349	-430.4
3994.86	-432.4
3997.369	-443.4
3999.877	-431.4
4002.382	-435.4
4004.886	-433.4
4007.388	-422.4
4009.888	-428.4
4012.386	-428.4
4014.883	-431.4
4017.377	-433.4
4019.87	-426.4
4022.361	-433.4
4024.85	-432.4
4027.338	-435.4
4029.823	-432.4
4032.307	-441.4
4034.789	-435.4
4037.269	-430.4
4039.747	-437.4
4042.224	-439.4
4044.699	-431.4
4047.172	-430.4
4049.643	-432.4
4052.112	-437.4
4054.58	-441.4
4057.046	-428.4
4059.51	-434.4
4061.972	-434.4
4064.432	-439.4
4066.891	-438.4
4069.348	-434.4
4071.803	-436.4
4074.256	-431.4
4076.708	-435.4
4079.158	-437.4
4081.606	-438.4
4084.052	-440.4
4086.497	-435.4
4088.939	-430.4
4091.38	-434.4
4093.819	-429.4
4096.257	-460.4
4098.693	-459.4
4101.127	-461.4
4103.559	-461.4
4105.989	-232.4
4108.418	-223.4
4110.845	-211.4
4113.27	-189.4
4115.694	-162.4
4118.115	-140.4
4120.535	-434.4
4122.954	-434.4
4125.37	-422.4
4127.785	-434.4
4130.198	-437.4
4132.609	-434.4
4135.019	-459.4
4137.427	-459.4
4139.833	-459.4
4142.237	-457.4
