Data from 2018-2-14_conc=6_n=3_RamanShift_05.txt Node
Date: Wed Feb 14 14:50:55 IST 2018
User: aro
Spectrometer: QEPB0276
Trigger mode: 0
Integration Time (sec): 3.000000E1
Scans to average: 1
Electric dark correction enabled: true
Nonlinearity correction enabled: false
Boxcar width: 0
XAxis mode: Raman Shifts
Number of Pixels in Spectrum: 1044
>>>>>Begin Spectral Data<<<<<
160.701	-130.4
166.742	53.6
172.777	552.6
178.805	2080.6
184.826	5815.6
190.841	12074.6
196.849	19430.6
202.85	24744.6
208.845	26498.6
214.833	26293.6
220.815	25872.6
226.789	25801.6
232.758	25671.6
238.719	25507.6
244.674	25242.6
250.623	24822.6
256.565	24353.6
262.5	23931.6
268.429	23495.6
274.351	23183.6
280.267	22884.6
286.176	22700.6
292.079	22530.6
297.975	22349.6
303.865	22131.6
309.748	22037.6
315.625	21928.6
321.495	21778.6
327.359	21771.6
333.217	21738.6
339.068	21750.6
344.912	21720.6
350.751	21641.6
356.583	21621.6
362.408	21637.6
368.227	21617.6
374.04	21661.6
379.847	21753.6
385.647	21755.6
391.44	21897.6
397.228	22024.6
403.009	22002.6
408.784	22132.6
414.553	22153.6
420.315	22242.6
426.071	22245.6
431.821	22193.6
437.565	22247.6
443.302	22167.6
449.033	22161.6
454.758	22085.6
460.477	22098.6
466.189	22023.6
471.896	21944.6
477.596	21898.6
483.29	21802.6
488.978	21771.6
494.66	21787.6
500.335	21522.6
506.005	21346.6
511.668	21122.6
517.325	20783.6
522.977	20624.6
528.622	20418.6
534.261	20288.6
539.894	20185.6
545.521	20125.6
551.141	20002.6
556.756	20018.6
562.365	19857.6
567.968	19839.6
573.565	19707.6
579.155	19667.6
584.74	19543.6
590.319	19501.6
595.892	19423.6
601.459	19419.6
607.02	19251.6
612.575	19134.6
618.124	18997.6
623.667	18881.6
629.204	18817.6
634.735	18712.6
640.261	18663.6
645.781	18572.6
651.294	18504.6
656.802	18509.6
662.304	18439.6
667.8	18412.6
673.29	18409.6
678.775	18406.6
684.254	18307.6
689.726	18266.6
695.193	18201.6
700.655	18105.6
706.11	18006.6
711.56	17943.6
717.004	17834.6
722.442	17738.6
727.874	17662.6
733.301	17631.6
738.722	17543.6
744.137	17515.6
749.547	17536.6
754.951	17528.6
760.349	17545.6
765.741	17572.6
771.128	17525.6
776.509	17579.6
781.885	17640.6
787.254	17534.6
792.618	17521.6
797.977	17349.6
803.33	17286.6
808.677	17133.6
814.019	17055.6
819.355	16869.6
824.686	16843.6
830.011	16756.6
835.33	16844.6
840.644	16794.6
845.952	16851.6
851.255	16855.6
856.552	16880.6
861.844	16837.6
867.13	16752.6
872.41	16745.6
877.686	16661.6
882.955	16513.6
888.219	16372.6
893.478	16199.6
898.731	15998.6
903.979	15818.6
909.221	15701.6
914.458	15711.6
919.69	15642.6
924.916	15648.6
930.136	15753.6
935.351	15795.6
940.561	15779.6
945.766	15682.6
950.965	15638.6
956.158	15536.6
961.347	15368.6
966.529	15189.6
971.707	14965.6
976.879	14807.6
982.046	14681.6
987.208	14616.6
992.364	14651.6
997.515	14706.6
1002.66	14815.6
1007.801	15028.6
1012.936	15083.6
1018.066	15102.6
1023.19	15132.6
1028.309	15114.6
1033.423	15109.6
1038.532	15052.6
1043.636	14862.6
1048.734	14659.6
1053.827	14498.6
1058.915	14369.6
1063.998	14258.6
1069.075	14222.6
1074.147	14149.6
1079.214	14263.6
1084.276	14345.6
1089.333	14389.6
1094.385	14512.6
1099.431	14479.6
1104.472	14530.6
1109.509	14476.6
1114.54	14308.6
1119.565	14128.6
1124.586	13906.6
1129.602	13803.6
1134.613	13658.6
1139.618	13588.6
1144.619	13553.6
1149.614	13549.6
1154.604	13540.6
1159.589	13613.6
1164.57	13627.6
1169.545	13723.6
1174.515	13650.6
1179.48	13567.6
1184.44	13436.6
1189.395	13410.6
1194.345	13310.6
1199.29	13166.6
1204.23	13211.6
1209.165	13251.6
1214.095	13343.6
1219.021	13400.6
1223.941	13455.6
1228.856	13550.6
1233.766	13575.6
1238.672	13599.6
1243.572	13547.6
1248.467	13464.6
1253.358	13320.6
1258.244	13109.6
1263.124	12900.6
1268	12733.6
1272.871	12587.6
1277.737	12478.6
1282.599	12338.6
1287.455	12455.6
1292.306	12430.6
1297.153	12467.6
1301.995	12491.6
1306.832	12571.6
1311.664	12583.6
1316.491	12537.6
1321.314	12403.6
1326.132	12205.6
1330.945	11984.6
1335.753	11715.6
1340.556	11387.6
1345.354	11216.6
1350.148	11040.6
1354.937	10933.6
1359.722	10904.6
1364.501	10898.6
1369.276	11005.6
1374.046	11086.6
1378.811	11202.6
1383.572	11363.6
1388.327	11341.6
1393.079	11358.6
1397.825	11246.6
1402.567	11063.6
1407.304	10909.6
1412.036	10844.6
1416.764	10759.6
1421.487	10714.6
1426.205	10651.6
1430.919	10613.6
1435.628	10648.6
1440.333	10618.6
1445.032	10652.6
1449.727	10676.6
1454.418	10659.6
1459.104	10555.6
1463.785	10358.6
1468.462	10170.6
1473.134	9884.6
1477.802	9757.6
1482.465	9561.6
1487.123	9437.6
1491.777	9410.6
1496.426	9386.6
1501.071	9439.6
1505.711	9638.6
1510.347	9777.6
1514.978	9905.6
1519.604	10038.6
1524.226	10156.6
1528.844	10191.6
1533.457	10147.6
1538.065	10136.6
1542.669	10081.6
1547.269	9956.6
1551.864	9905.6
1556.454	9936.6
1561.041	9884.6
1565.622	9865.6
1570.199	9876.6
1574.772	9951.6
1579.34	10013.6
1583.904	10056.6
1588.464	10106.6
1593.019	10097.6
1597.569	10021.6
1602.115	10009.6
1606.657	9880.6
1611.195	9887.6
1615.728	9764.6
1620.256	9718.6
1624.78	9691.6
1629.3	9695.6
1633.816	9771.6
1638.327	9800.6
1642.834	9823.6
1647.336	9839.6
1651.834	9905.6
1656.328	9837.6
1660.817	9771.6
1665.302	9690.6
1669.783	9487.6
1674.259	9287.6
1678.732	9008.6
1683.199	8739.6
1687.663	8423.6
1692.122	8205.6
1696.577	8025.6
1701.028	7985.6
1705.474	7970.6
1709.917	8065.6
1714.355	8089.6
1718.788	8079.6
1723.218	7948.6
1727.643	7855.6
1732.064	7727.6
1736.481	7567.6
1740.893	7382.6
1745.301	7163.6
1749.705	6977.6
1754.105	6784.6
1758.501	6594.6
1762.893	6440.6
1767.28	6230.6
1771.663	6098.6
1776.042	6007.6
1780.417	5938.6
1784.787	5937.6
1789.154	5958.6
1793.516	6043.6
1797.874	6142.6
1802.228	6222.6
1806.578	6296.6
1810.924	6334.6
1815.266	6263.6
1819.603	6232.6
1823.937	6119.6
1828.266	6016.6
1832.591	5936.6
1836.913	5841.6
1841.23	5824.6
1845.543	5772.6
1849.852	5733.6
1854.156	5691.6
1858.457	5711.6
1862.754	5678.6
1867.047	5678.6
1871.335	5639.6
1875.62	5651.6
1879.9	5663.6
1884.177	5588.6
1888.449	5512.6
1892.718	5452.6
1896.982	5405.6
1901.243	5372.6
1905.499	5281.6
1909.752	5282.6
1914	5254.6
1918.245	5252.6
1922.485	5331.6
1926.722	5366.6
1930.954	5418.6
1935.183	5476.6
1939.408	5528.6
1943.628	5574.6
1947.845	5562.6
1952.058	5521.6
1956.267	5493.6
1960.472	5448.6
1964.673	5386.6
1968.87	5283.6
1973.063	5251.6
1977.252	5144.6
1981.438	5074.6
1985.619	5048.6
1989.797	4995.6
1993.971	4980.6
1998.14	4954.6
2002.306	4899.6
2006.469	4888.6
2010.627	4876.6
2014.781	4817.6
2018.932	4805.6
2023.078	4760.6
2027.221	4678.6
2031.36	4590.6
2035.495	4566.6
2039.627	4448.6
2043.754	4388.6
2047.878	4340.6
2051.998	4337.6
2056.114	4331.6
2060.226	4289.6
2064.334	4304.6
2068.439	4337.6
2072.54	4355.6
2076.637	4377.6
2080.73	4399.6
2084.82	4396.6
2088.906	4421.6
2092.988	4457.6
2097.066	4405.6
2101.14	4387.6
2105.211	4385.6
2109.278	4352.6
2113.342	4286.6
2117.401	4242.6
2121.457	4256.6
2125.509	4226.6
2129.558	4209.6
2133.602	4175.6
2137.643	4166.6
2141.681	4134.6
2145.714	4138.6
2149.744	4108.6
2153.77	4036.6
2157.793	4013.6
2161.812	3949.6
2165.827	3906.6
2169.838	3869.6
2173.846	3772.6
2177.851	3746.6
2181.851	3682.6
2185.848	3626.6
2189.841	3612.6
2193.831	3576.6
2197.817	3536.6
2201.799	3518.6
2205.778	3492.6
2209.753	3492.6
2213.725	3467.6
2217.693	3473.6
2221.657	3438.6
2225.618	3447.6
2229.575	3420.6
2233.529	3420.6
2237.479	3350.6
2241.425	3341.6
2245.368	3272.6
2249.307	3222.6
2253.243	3189.6
2257.175	3130.6
2261.104	3083.6
2265.029	3068.6
2268.95	3031.6
2272.868	2973.6
2276.783	2959.6
2280.694	2949.6
2284.601	2920.6
2288.505	2867.6
2292.405	2853.6
2296.302	2828.6
2300.195	2766.6
2304.085	2755.6
2307.971	2734.6
2311.854	2688.6
2315.734	2633.6
2319.609	2596.6
2323.482	2590.6
2327.351	2537.6
2331.216	2540.6
2335.078	2531.6
2338.937	2509.6
2342.792	2504.6
2346.643	2454.6
2350.492	2460.6
2354.336	2502.6
2358.178	2488.6
2362.015	2510.6
2365.85	2504.6
2369.681	2501.6
2373.508	2507.6
2377.333	2513.6
2381.153	2492.6
2384.971	2478.6
2388.785	2470.6
2392.595	2442.6
2396.402	2430.6
2400.206	2375.6
2404.007	2381.6
2407.804	2373.6
2411.597	2340.6
2415.388	2369.6
2419.174	2340.6
2422.958	2323.6
2426.738	2302.6
2430.515	2278.6
2434.289	2254.6
2438.059	2249.6
2441.825	2221.6
2445.589	2201.6
2449.349	2172.6
2453.106	2138.6
2456.859	2103.6
2460.61	2074.6
2464.356	2078.6
2468.1	2035.6
2471.84	2020.6
2475.577	1986.6
2479.311	1970.6
2483.041	1977.6
2486.768	1966.6
2490.492	1962.6
2494.213	1973.6
2497.93	1948.6
2501.644	1942.6
2505.355	1912.6
2509.062	1918.6
2512.766	1907.6
2516.467	1903.6
2520.165	1882.6
2523.859	1857.6
2527.551	1840.6
2531.239	1843.6
2534.923	1797.6
2538.605	1794.6
2542.283	1819.6
2545.958	1810.6
2549.63	1804.6
2553.299	1794.6
2556.964	1807.6
2560.626	1779.6
2564.285	1778.6
2567.941	1756.6
2571.594	1754.6
2575.243	1748.6
2578.89	1721.6
2582.533	1715.6
2586.173	1696.6
2589.809	1678.6
2593.443	1654.6
2597.073	1638.6
2600.701	1622.6
2604.325	1626.6
2607.946	1605.6
2611.564	1606.6
2615.178	1581.6
2618.79	1578.6
2622.398	1562.6
2626.004	1548.6
2629.606	1523.6
2633.205	1520.6
2636.801	1493.6
2640.394	1469.6
2643.983	1437.6
2647.57	1435.6
2651.153	1417.6
2654.734	1371.6
2658.311	1334.6
2661.885	1333.6
2665.456	1330.6
2669.025	1301.6
2672.589	1292.6
2676.151	1263.6
2679.71	1257.6
2683.266	1236.6
2686.819	1208.6
2690.368	1196.6
2693.915	1168.6
2697.458	1125.6
2700.999	1093.6
2704.536	1088.6
2708.071	1072.6
2711.602	1034.6
2715.13	1010.6
2718.656	996.6
2722.178	978.6
2725.697	973.6
2729.214	951.6
2732.727	928.6
2736.237	938.6
2739.744	931.6
2743.249	929.6
2746.75	912.6
2750.248	926.6
2753.743	925.6
2757.236	947.6
2760.725	941.6
2764.211	948.6
2767.695	972.6
2771.175	950.6
2774.652	968.6
2778.127	947.6
2781.598	931.6
2785.067	938.6
2788.532	944.6
2791.995	929.6
2795.455	936.6
2798.911	948.6
2802.365	949.6
2805.816	948.6
2809.264	944.6
2812.709	929.6
2816.151	919.6
2819.59	945.6
2823.026	951.6
2826.46	955.6
2829.89	940.6
2833.318	953.6
2836.742	950.6
2840.164	957.6
2843.583	941.6
2846.999	974.6
2850.412	990.6
2853.822	995.6
2857.229	1007.6
2860.634	1036.6
2864.035	1039.6
2867.434	1037.6
2870.83	1058.6
2874.223	1093.6
2877.613	1102.6
2881	1117.6
2884.385	1133.6
2887.766	1121.6
2891.145	1116.6
2894.521	1106.6
2897.894	1121.6
2901.264	1128.6
2904.631	1122.6
2907.996	1114.6
2911.358	1125.6
2914.717	1138.6
2918.073	1141.6
2921.426	1146.6
2924.777	1166.6
2928.124	1163.6
2931.469	1206.6
2934.811	1223.6
2938.15	1224.6
2941.487	1247.6
2944.821	1245.6
2948.152	1257.6
2951.48	1234.6
2954.805	1225.6
2958.128	1213.6
2961.447	1193.6
2964.765	1193.6
2968.079	1193.6
2971.39	1201.6
2974.699	1226.6
2978.005	1252.6
2981.308	1267.6
2984.609	1288.6
2987.907	1301.6
2991.202	1330.6
2994.494	1351.6
2997.784	1383.6
3001.07	1409.6
3004.355	1427.6
3007.636	1450.6
3010.915	1474.6
3014.191	1487.6
3017.464	1475.6
3020.734	1537.6
3024.002	1507.6
3027.267	1504.6
3030.53	1520.6
3033.789	1545.6
3037.046	1580.6
3040.301	1581.6
3043.552	1640.6
3046.801	1659.6
3050.048	1705.6
3053.291	1743.6
3056.532	1794.6
3059.771	1841.6
3063.006	1898.6
3066.239	1936.6
3069.469	2005.6
3072.697	2077.6
3075.922	2141.6
3079.144	2151.6
3082.364	2222.6
3085.581	2275.6
3088.795	2280.6
3092.007	2361.6
3095.216	2430.6
3098.423	2455.6
3101.627	2534.6
3104.828	2605.6
3108.026	2611.6
3111.222	2687.6
3114.416	2769.6
3117.607	2834.6
3120.795	2877.6
3123.98	2957.6
3127.163	3046.6
3130.344	3092.6
3133.521	3199.6
3136.696	3231.6
3139.869	3325.6
3143.039	3359.6
3146.206	3419.6
3149.371	3449.6
3152.533	3517.6
3155.693	3504.6
3158.85	3550.6
3162.005	3559.6
3165.157	3551.6
3168.306	3568.6
3171.453	3566.6
3174.597	3588.6
3177.739	3557.6
3180.878	3589.6
3184.014	3590.6
3187.149	3597.6
3190.28	3599.6
3193.409	3603.6
3196.536	3602.6
3199.659	3623.6
3202.781	3607.6
3205.9	3594.6
3209.016	3620.6
3212.13	3570.6
3215.241	3553.6
3218.35	3514.6
3221.456	3486.6
3224.56	3478.6
3227.661	3387.6
3230.76	3358.6
3233.856	3353.6
3236.95	3289.6
3240.041	3247.6
3243.13	3245.6
3246.216	3220.6
3249.3	3210.6
3252.382	3191.6
3255.46	3168.6
3258.537	3132.6
3261.611	3167.6
3264.682	3170.6
3267.751	3191.6
3270.818	3136.6
3273.882	3145.6
3276.943	3138.6
3280.002	3109.6
3283.059	3096.6
3286.113	3041.6
3289.165	2998.6
3292.214	2953.6
3295.261	2924.6
3298.306	2872.6
3301.348	2800.6
3304.387	2769.6
3307.425	2739.6
3310.459	2709.6
3313.492	2676.6
3316.521	2625.6
3319.549	2584.6
3322.574	2558.6
3325.597	2528.6
3328.617	2525.6
3331.635	2498.6
3334.65	2510.6
3337.663	2474.6
3340.674	2467.6
3343.682	2451.6
3346.688	2435.6
3349.691	2434.6
3352.692	2433.6
3355.691	2412.6
3358.687	2397.6
3361.681	2383.6
3364.673	2316.6
3367.662	2289.6
3370.649	2251.6
3373.633	2216.6
3376.615	2192.6
3379.595	2149.6
3382.572	2147.6
3385.547	2084.6
3388.52	2074.6
3391.49	2031.6
3394.458	2002.6
3397.424	1994.6
3400.387	1942.6
3403.348	1919.6
3406.307	1908.6
3409.263	1875.6
3412.217	1831.6
3415.168	1837.6
3418.118	1798.6
3421.065	1781.6
3424.009	1774.6
3426.951	1703.6
3429.891	1707.6
3432.829	1668.6
3435.764	1604.6
3438.697	1558.6
3441.628	1540.6
3444.557	1491.6
3447.483	1429.6
3450.407	1401.6
3453.328	1353.6
3456.247	1311.6
3459.164	1242.6
3462.079	1221.6
3464.991	1171.6
3467.902	1124.6
3470.809	1056.6
3473.715	1033.6
3476.618	1000.6
3479.519	955.6
3482.418	929.6
3485.315	892.6
3488.209	870.6
3491.101	825.6
3493.99	793.6
3496.878	744.6
3499.763	724.6
3502.646	696.6
3505.527	660.6
3508.405	627.6
3511.281	575.6
3514.155	546.6
3517.027	518.6
3519.897	490.6
3522.764	453.6
3525.629	409.6
3528.492	372.6
3531.352	330.6
3534.211	293.6
3537.067	281.6
3539.921	230.6
3542.773	202.6
3545.622	162.6
3548.469	163.6
3551.315	128.6
3554.157	100.6
3556.998	68.6
3559.837	61.6
3562.673	43.6
3565.507	12.6
3568.339	5.6
3571.169	-17.4
3573.996	-38.4
3576.822	-64.4
3579.645	-75.4
3582.466	-96.4
3585.285	-112.4
3588.101	-124.4
3590.916	-147.4
3593.728	-168.4
3596.538	-173.4
3599.346	-194.4
3602.152	-220.4
3604.956	-232.4
3607.757	-239.4
3610.556	-244.4
3613.354	-266.4
3616.149	-284.4
3618.942	-288.4
3621.732	-304.4
3624.521	-310.4
3627.307	-316.4
3630.092	-333.4
3632.874	-328.4
3635.654	-346.4
3638.432	-351.4
3641.208	-356.4
3643.982	-378.4
3646.753	-377.4
3649.523	-386.4
3652.29	-391.4
3655.055	-394.4
3657.818	-404.4
3660.579	-419.4
3663.338	-439.4
3666.095	-434.4
3668.849	-447.4
3671.602	-454.4
3674.352	-451.4
3677.101	-466.4
3679.847	-474.4
3682.591	-477.4
3685.333	-490.4
3688.073	-490.4
3690.811	-502.4
3693.547	-492.4
3696.281	-504.4
3699.013	-504.4
3701.742	-509.4
3704.47	-517.4
3707.195	-525.4
3709.919	-516.4
3712.64	-526.4
3715.359	-527.4
3718.076	-541.4
3720.792	-533.4
3723.505	-533.4
3726.216	-539.4
3728.925	-543.4
3731.632	-547.4
3734.336	-550.4
3737.039	-549.4
3739.74	-547.4
3742.439	-556.4
3745.136	-558.4
3747.83	-559.4
3750.523	-557.4
3753.213	-560.4
3755.902	-563.4
3758.589	-569.4
3761.273	-567.4
3763.956	-569.4
3766.636	-578.4
3769.315	-572.4
3771.991	-575.4
3774.665	-577.4
3777.338	-577.4
3780.008	-580.4
3782.677	-582.4
3785.343	-576.4
3788.007	-587.4
3790.67	-584.4
3793.33	-586.4
3795.989	-585.4
3798.645	-579.4
3801.299	-583.4
3803.952	-592.4
3806.602	-595.4
3809.251	-597.4
3811.897	-594.4
3814.542	-593.4
3817.184	-591.4
3819.825	-588.4
3822.463	-589.4
3825.1	-594.4
3827.735	-586.4
3830.367	-590.4
3832.998	-600.4
3835.627	-600.4
3838.253	-604.4
3840.878	-603.4
3843.501	-602.4
3846.122	-598.4
3848.741	-600.4
3851.358	-610.4
3853.973	-600.4
3856.586	-606.4
3859.197	-607.4
3861.806	-607.4
3864.414	-602.4
3867.019	-598.4
3869.622	-600.4
3872.224	-595.4
3874.823	-584.4
3877.421	-566.4
3880.016	-550.4
3882.61	-529.4
3885.202	-525.4
3887.792	-541.4
3890.38	-570.4
3892.966	-592.4
3895.55	-602.4
3898.132	-615.4
3900.713	-618.4
3903.291	-615.4
3905.868	-616.4
3908.442	-619.4
3911.015	-619.4
3913.586	-615.4
3916.155	-614.4
3918.722	-623.4
3921.287	-616.4
3923.85	-624.4
3926.411	-621.4
3928.971	-628.4
3931.528	-621.4
3934.084	-619.4
3936.638	-620.4
3939.19	-617.4
3941.74	-614.4
3944.288	-619.4
3946.834	-614.4
3949.378	-614.4
3951.921	-620.4
3954.462	-627.4
3957	-616.4
3959.537	-619.4
3962.072	-612.4
3964.606	-617.4
3967.137	-620.4
3969.667	-621.4
3972.194	-618.4
3974.72	-619.4
3977.244	-609.4
3979.766	-605.4
3982.286	-616.4
3984.805	-610.4
3987.321	-607.4
3989.836	-609.4
3992.349	-602.4
3994.86	-607.4
3997.369	-616.4
3999.877	-604.4
4002.382	-603.4
4004.886	-598.4
4007.388	-594.4
4009.888	-598.4
4012.386	-605.4
4014.883	-603.4
4017.377	-597.4
4019.87	-597.4
4022.361	-603.4
4024.85	-604.4
4027.338	-605.4
4029.823	-606.4
4032.307	-610.4
4034.789	-606.4
4037.269	-603.4
4039.747	-603.4
4042.224	-609.4
4044.699	-606.4
4047.172	-606.4
4049.643	-602.4
4052.112	-611.4
4054.58	-614.4
4057.046	-607.4
4059.51	-611.4
4061.972	-607.4
4064.432	-607.4
4066.891	-607.4
4069.348	-602.4
4071.803	-605.4
4074.256	-600.4
4076.708	-605.4
4079.158	-608.4
4081.606	-608.4
4084.052	-613.4
4086.497	-605.4
4088.939	-607.4
4091.38	-610.4
4093.819	-606.4
4096.257	-639.4
4098.693	-641.4
4101.127	-644.4
4103.559	-639.4
4105.989	-357.4
4108.418	-336.4
4110.845	-316.4
4113.27	-295.4
4115.694	-256.4
4118.115	-217.4
4120.535	-610.4
4122.954	-607.4
4125.37	-599.4
4127.785	-609.4
4130.198	-604.4
4132.609	-610.4
4135.019	-638.4
4137.427	-639.4
4139.833	-642.4
4142.237	-636.4
