Data from 2018-2-14_conc=4_n=7_RamanShift_02.txt Node
Date: Wed Feb 14 13:52:25 IST 2018
User: aro
Spectrometer: QEPB0276
Trigger mode: 0
Integration Time (sec): 3.000000E1
Scans to average: 1
Electric dark correction enabled: true
Nonlinearity correction enabled: false
Boxcar width: 0
XAxis mode: Raman Shifts
Number of Pixels in Spectrum: 1044
>>>>>Begin Spectral Data<<<<<
160.701	-134.5
166.742	40.5
172.777	533.5
178.805	2048.5
184.826	5601.5
190.841	11667.5
196.849	18698.5
202.85	23720.5
208.845	25371.5
214.833	25090.5
220.815	24669.5
226.789	24500.5
232.758	24323.5
238.719	24143.5
244.674	23794.5
250.623	23363.5
256.565	22902.5
262.5	22421.5
268.429	21964.5
274.351	21638.5
280.267	21393.5
286.176	21084.5
292.079	20928.5
297.975	20691.5
303.865	20545.5
309.748	20345.5
315.625	20247.5
321.495	20166.5
327.359	20097.5
333.217	20007.5
339.068	20072.5
344.912	19965.5
350.751	19955.5
356.583	19945.5
362.408	19975.5
368.227	19944.5
374.04	19956.5
379.847	20013.5
385.647	20078.5
391.44	20170.5
397.228	20261.5
403.009	20325.5
408.784	20362.5
414.553	20497.5
420.315	20513.5
426.071	20543.5
431.821	20481.5
437.565	20484.5
443.302	20448.5
449.033	20465.5
454.758	20359.5
460.477	20343.5
466.189	20282.5
471.896	20187.5
477.596	20119.5
483.29	20170.5
488.978	20100.5
494.66	19982.5
500.335	19900.5
506.005	19596.5
511.668	19315.5
517.325	19076.5
522.977	18915.5
528.622	18724.5
534.261	18580.5
539.894	18491.5
545.521	18420.5
551.141	18347.5
556.756	18235.5
562.365	18185.5
567.968	18131.5
573.565	18065.5
579.155	17945.5
584.74	17982.5
590.319	17852.5
595.892	17790.5
601.459	17682.5
607.02	17614.5
612.575	17483.5
618.124	17384.5
623.667	17274.5
629.204	17182.5
634.735	17104.5
640.261	17070.5
645.781	17049.5
651.294	16949.5
656.802	16942.5
662.304	16891.5
667.8	16883.5
673.29	16842.5
678.775	16787.5
684.254	16779.5
689.726	16686.5
695.193	16631.5
700.655	16524.5
706.11	16451.5
711.56	16386.5
717.004	16328.5
722.442	16206.5
727.874	16184.5
733.301	16123.5
738.722	16064.5
744.137	16073.5
749.547	16015.5
754.951	15982.5
760.349	16013.5
765.741	16034.5
771.128	16067.5
776.509	16029.5
781.885	16011.5
787.254	16009.5
792.618	15934.5
797.977	15857.5
803.33	15754.5
808.677	15664.5
814.019	15557.5
819.355	15494.5
824.686	15391.5
830.011	15345.5
835.33	15367.5
840.644	15345.5
845.952	15404.5
851.255	15368.5
856.552	15439.5
861.844	15405.5
867.13	15372.5
872.41	15257.5
877.686	15186.5
882.955	15036.5
888.219	14965.5
893.478	14801.5
898.731	14642.5
903.979	14442.5
909.221	14319.5
914.458	14307.5
919.69	14270.5
924.916	14338.5
930.136	14341.5
935.351	14412.5
940.561	14378.5
945.766	14321.5
950.965	14264.5
956.158	14168.5
961.347	14031.5
966.529	13840.5
971.707	13671.5
976.879	13496.5
982.046	13431.5
987.208	13332.5
992.364	13352.5
997.515	13395.5
1002.66	13536.5
1007.801	13657.5
1012.936	13802.5
1018.066	13775.5
1023.19	13813.5
1028.309	13784.5
1033.423	13783.5
1038.532	13712.5
1043.636	13584.5
1048.734	13405.5
1053.827	13210.5
1058.915	13109.5
1063.998	12964.5
1069.075	12925.5
1074.147	12891.5
1079.214	13032.5
1084.276	13094.5
1089.333	13181.5
1094.385	13213.5
1099.431	13283.5
1104.472	13252.5
1109.509	13152.5
1114.54	13039.5
1119.565	12853.5
1124.586	12692.5
1129.602	12556.5
1134.613	12458.5
1139.618	12401.5
1144.619	12368.5
1149.614	12342.5
1154.604	12333.5
1159.589	12396.5
1164.57	12442.5
1169.545	12464.5
1174.515	12423.5
1179.48	12412.5
1184.44	12311.5
1189.395	12203.5
1194.345	12114.5
1199.29	12067.5
1204.23	12031.5
1209.165	12134.5
1214.095	12185.5
1219.021	12243.5
1223.941	12282.5
1228.856	12322.5
1233.766	12381.5
1238.672	12433.5
1243.572	12361.5
1248.467	12325.5
1253.358	12105.5
1258.244	12011.5
1263.124	11831.5
1268	11621.5
1272.871	11450.5
1277.737	11408.5
1282.599	11351.5
1287.455	11333.5
1292.306	11322.5
1297.153	11396.5
1301.995	11451.5
1306.832	11480.5
1311.664	11486.5
1316.491	11445.5
1321.314	11298.5
1326.132	11116.5
1330.945	10894.5
1335.753	10647.5
1340.556	10376.5
1345.354	10154.5
1350.148	10035.5
1354.937	9918.5
1359.722	9940.5
1364.501	9969.5
1369.276	10049.5
1374.046	10116.5
1378.811	10236.5
1383.572	10339.5
1388.327	10353.5
1393.079	10356.5
1397.825	10222.5
1402.567	10051.5
1407.304	10012.5
1412.036	9884.5
1416.764	9816.5
1421.487	9792.5
1426.205	9724.5
1430.919	9687.5
1435.628	9660.5
1440.333	9702.5
1445.032	9717.5
1449.727	9725.5
1454.418	9729.5
1459.104	9601.5
1463.785	9401.5
1468.462	9227.5
1473.134	9001.5
1477.802	8842.5
1482.465	8643.5
1487.123	8557.5
1491.777	8495.5
1496.426	8554.5
1501.071	8621.5
1505.711	8751.5
1510.347	8880.5
1514.978	9046.5
1519.604	9106.5
1524.226	9230.5
1528.844	9312.5
1533.457	9228.5
1538.065	9153.5
1542.669	9122.5
1547.269	9104.5
1551.864	9078.5
1556.454	8989.5
1561.041	9044.5
1565.622	9028.5
1570.199	9054.5
1574.772	9109.5
1579.34	9163.5
1583.904	9222.5
1588.464	9258.5
1593.019	9279.5
1597.569	9269.5
1602.115	9196.5
1606.657	9116.5
1611.195	9103.5
1615.728	9024.5
1620.256	8967.5
1624.78	8956.5
1629.3	8982.5
1633.816	9004.5
1638.327	9033.5
1642.834	9044.5
1647.336	9090.5
1651.834	9083.5
1656.328	9066.5
1660.817	9043.5
1665.302	8921.5
1669.783	8727.5
1674.259	8553.5
1678.732	8268.5
1683.199	8006.5
1687.663	7702.5
1692.122	7474.5
1696.577	7366.5
1701.028	7303.5
1705.474	7309.5
1709.917	7320.5
1714.355	7380.5
1718.788	7339.5
1723.218	7286.5
1727.643	7124.5
1732.064	7013.5
1736.481	6872.5
1740.893	6711.5
1745.301	6512.5
1749.705	6304.5
1754.105	6175.5
1758.501	5989.5
1762.893	5783.5
1767.28	5622.5
1771.663	5525.5
1776.042	5413.5
1780.417	5364.5
1784.787	5327.5
1789.154	5351.5
1793.516	5452.5
1797.874	5543.5
1802.228	5627.5
1806.578	5687.5
1810.924	5707.5
1815.266	5637.5
1819.603	5579.5
1823.937	5509.5
1828.266	5397.5
1832.591	5334.5
1836.913	5272.5
1841.23	5201.5
1845.543	5188.5
1849.852	5162.5
1854.156	5158.5
1858.457	5132.5
1862.754	5160.5
1867.047	5081.5
1871.335	5106.5
1875.62	5098.5
1879.9	5068.5
1884.177	5019.5
1888.449	4977.5
1892.718	4931.5
1896.982	4871.5
1901.243	4819.5
1905.499	4754.5
1909.752	4730.5
1914	4715.5
1918.245	4743.5
1922.485	4788.5
1926.722	4822.5
1930.954	4881.5
1935.183	4943.5
1939.408	4991.5
1943.628	4996.5
1947.845	5031.5
1952.058	5027.5
1956.267	4992.5
1960.472	4922.5
1964.673	4890.5
1968.87	4783.5
1973.063	4692.5
1977.252	4667.5
1981.438	4609.5
1985.619	4541.5
1989.797	4525.5
1993.971	4509.5
1998.14	4497.5
2002.306	4475.5
2006.469	4466.5
2010.627	4418.5
2014.781	4417.5
2018.932	4363.5
2023.078	4347.5
2027.221	4254.5
2031.36	4191.5
2035.495	4124.5
2039.627	4055.5
2043.754	4032.5
2047.878	3982.5
2051.998	3938.5
2056.114	3948.5
2060.226	3907.5
2064.334	3917.5
2068.439	3924.5
2072.54	3946.5
2076.637	3959.5
2080.73	4001.5
2084.82	4006.5
2088.906	4033.5
2092.988	4027.5
2097.066	4044.5
2101.14	3971.5
2105.211	3975.5
2109.278	3966.5
2113.342	3903.5
2117.401	3901.5
2121.457	3901.5
2125.509	3856.5
2129.558	3884.5
2133.602	3808.5
2137.643	3806.5
2141.681	3785.5
2145.714	3766.5
2149.744	3739.5
2153.77	3727.5
2157.793	3683.5
2161.812	3649.5
2165.827	3580.5
2169.838	3539.5
2173.846	3473.5
2177.851	3411.5
2181.851	3366.5
2185.848	3317.5
2189.841	3306.5
2193.831	3262.5
2197.817	3236.5
2201.799	3214.5
2205.778	3210.5
2209.753	3198.5
2213.725	3188.5
2217.693	3179.5
2221.657	3167.5
2225.618	3141.5
2229.575	3140.5
2233.529	3097.5
2237.479	3074.5
2241.425	3045.5
2245.368	3017.5
2249.307	2956.5
2253.243	2925.5
2257.175	2865.5
2261.104	2822.5
2265.029	2820.5
2268.95	2771.5
2272.868	2734.5
2276.783	2696.5
2280.694	2666.5
2284.601	2664.5
2288.505	2660.5
2292.405	2616.5
2296.302	2586.5
2300.195	2550.5
2304.085	2526.5
2307.971	2488.5
2311.854	2456.5
2315.734	2417.5
2319.609	2393.5
2323.482	2378.5
2327.351	2332.5
2331.216	2329.5
2335.078	2326.5
2338.937	2298.5
2342.792	2307.5
2346.643	2267.5
2350.492	2301.5
2354.336	2308.5
2358.178	2308.5
2362.015	2312.5
2365.85	2326.5
2369.681	2315.5
2373.508	2327.5
2377.333	2313.5
2381.153	2283.5
2384.971	2302.5
2388.785	2276.5
2392.595	2250.5
2396.402	2249.5
2400.206	2217.5
2404.007	2198.5
2407.804	2179.5
2411.597	2163.5
2415.388	2153.5
2419.174	2150.5
2422.958	2135.5
2426.738	2114.5
2430.515	2104.5
2434.289	2092.5
2438.059	2065.5
2441.825	2045.5
2445.589	2025.5
2449.349	2003.5
2453.106	1966.5
2456.859	1961.5
2460.61	1915.5
2464.356	1904.5
2468.1	1876.5
2471.84	1855.5
2475.577	1856.5
2479.311	1837.5
2483.041	1811.5
2486.768	1806.5
2490.492	1820.5
2494.213	1792.5
2497.93	1773.5
2501.644	1761.5
2505.355	1773.5
2509.062	1758.5
2512.766	1721.5
2516.467	1717.5
2520.165	1730.5
2523.859	1703.5
2527.551	1681.5
2531.239	1695.5
2534.923	1679.5
2538.605	1648.5
2542.283	1667.5
2545.958	1649.5
2549.63	1666.5
2553.299	1634.5
2556.964	1633.5
2560.626	1654.5
2564.285	1627.5
2567.941	1626.5
2571.594	1591.5
2575.243	1610.5
2578.89	1587.5
2582.533	1587.5
2586.173	1577.5
2589.809	1560.5
2593.443	1534.5
2597.073	1507.5
2600.701	1504.5
2604.325	1497.5
2607.946	1478.5
2611.564	1464.5
2615.178	1465.5
2618.79	1471.5
2622.398	1453.5
2626.004	1440.5
2629.606	1393.5
2633.205	1389.5
2636.801	1372.5
2640.394	1359.5
2643.983	1338.5
2647.57	1322.5
2651.153	1317.5
2654.734	1282.5
2658.311	1239.5
2661.885	1220.5
2665.456	1198.5
2669.025	1184.5
2672.589	1192.5
2676.151	1182.5
2679.71	1166.5
2683.266	1138.5
2686.819	1120.5
2690.368	1095.5
2693.915	1071.5
2697.458	1047.5
2700.999	1020.5
2704.536	981.5
2708.071	984.5
2711.602	954.5
2715.13	945.5
2718.656	912.5
2722.178	876.5
2725.697	880.5
2729.214	866.5
2732.727	847.5
2736.237	862.5
2739.744	828.5
2743.249	854.5
2746.75	848.5
2750.248	854.5
2753.743	866.5
2757.236	871.5
2760.725	876.5
2764.211	883.5
2767.695	910.5
2771.175	883.5
2774.652	883.5
2778.127	881.5
2781.598	873.5
2785.067	858.5
2788.532	872.5
2791.995	860.5
2795.455	876.5
2798.911	883.5
2802.365	879.5
2805.816	865.5
2809.264	870.5
2812.709	874.5
2816.151	868.5
2819.59	882.5
2823.026	872.5
2826.46	875.5
2829.89	883.5
2833.318	889.5
2836.742	895.5
2840.164	898.5
2843.583	884.5
2846.999	901.5
2850.412	925.5
2853.822	927.5
2857.229	948.5
2860.634	960.5
2864.035	985.5
2867.434	997.5
2870.83	1014.5
2874.223	1037.5
2877.613	1044.5
2881	1062.5
2884.385	1091.5
2887.766	1079.5
2891.145	1066.5
2894.521	1086.5
2897.894	1086.5
2901.264	1066.5
2904.631	1053.5
2907.996	1070.5
2911.358	1104.5
2914.717	1083.5
2918.073	1099.5
2921.426	1114.5
2924.777	1117.5
2928.124	1149.5
2931.469	1160.5
2934.811	1175.5
2938.15	1201.5
2941.487	1218.5
2944.821	1221.5
2948.152	1222.5
2951.48	1202.5
2954.805	1195.5
2958.128	1166.5
2961.447	1173.5
2964.765	1172.5
2968.079	1158.5
2971.39	1181.5
2974.699	1199.5
2978.005	1207.5
2981.308	1247.5
2984.609	1270.5
2987.907	1278.5
2991.202	1299.5
2994.494	1330.5
2997.784	1355.5
3001.07	1394.5
3004.355	1413.5
3007.636	1451.5
3010.915	1455.5
3014.191	1457.5
3017.464	1460.5
3020.734	1486.5
3024.002	1485.5
3027.267	1484.5
3030.53	1518.5
3033.789	1539.5
3037.046	1556.5
3040.301	1582.5
3043.552	1602.5
3046.801	1652.5
3050.048	1687.5
3053.291	1720.5
3056.532	1767.5
3059.771	1832.5
3063.006	1882.5
3066.239	1965.5
3069.469	1997.5
3072.697	2045.5
3075.922	2116.5
3079.144	2155.5
3082.364	2194.5
3085.581	2258.5
3088.795	2286.5
3092.007	2355.5
3095.216	2408.5
3098.423	2445.5
3101.627	2537.5
3104.828	2574.5
3108.026	2616.5
3111.222	2694.5
3114.416	2753.5
3117.607	2789.5
3120.795	2889.5
3123.98	2964.5
3127.163	3028.5
3130.344	3093.5
3133.521	3169.5
3136.696	3246.5
3139.869	3285.5
3143.039	3369.5
3146.206	3408.5
3149.371	3425.5
3152.533	3487.5
3155.693	3476.5
3158.85	3539.5
3162.005	3555.5
3165.157	3521.5
3168.306	3591.5
3171.453	3573.5
3174.597	3556.5
3177.739	3576.5
3180.878	3590.5
3184.014	3582.5
3187.149	3598.5
3190.28	3606.5
3193.409	3594.5
3196.536	3586.5
3199.659	3625.5
3202.781	3612.5
3205.9	3614.5
3209.016	3594.5
3212.13	3601.5
3215.241	3570.5
3218.35	3534.5
3221.456	3498.5
3224.56	3478.5
3227.661	3427.5
3230.76	3383.5
3233.856	3351.5
3236.95	3308.5
3240.041	3271.5
3243.13	3252.5
3246.216	3241.5
3249.3	3234.5
3252.382	3186.5
3255.46	3205.5
3258.537	3145.5
3261.611	3180.5
3264.682	3155.5
3267.751	3190.5
3270.818	3167.5
3273.882	3140.5
3276.943	3125.5
3280.002	3105.5
3283.059	3079.5
3286.113	3061.5
3289.165	2989.5
3292.214	2983.5
3295.261	2922.5
3298.306	2867.5
3301.348	2841.5
3304.387	2796.5
3307.425	2713.5
3310.459	2703.5
3313.492	2687.5
3316.521	2622.5
3319.549	2606.5
3322.574	2587.5
3325.597	2558.5
3328.617	2540.5
3331.635	2513.5
3334.65	2513.5
3337.663	2504.5
3340.674	2460.5
3343.682	2460.5
3346.688	2460.5
3349.691	2466.5
3352.692	2415.5
3355.691	2392.5
3358.687	2405.5
3361.681	2384.5
3364.673	2343.5
3367.662	2309.5
3370.649	2246.5
3373.633	2252.5
3376.615	2212.5
3379.595	2178.5
3382.572	2155.5
3385.547	2121.5
3388.52	2114.5
3391.49	2070.5
3394.458	2032.5
3397.424	2006.5
3400.387	1968.5
3403.348	1929.5
3406.307	1921.5
3409.263	1918.5
3412.217	1883.5
3415.168	1862.5
3418.118	1825.5
3421.065	1808.5
3424.009	1807.5
3426.951	1765.5
3429.891	1707.5
3432.829	1688.5
3435.764	1636.5
3438.697	1596.5
3441.628	1541.5
3444.557	1515.5
3447.483	1444.5
3450.407	1426.5
3453.328	1373.5
3456.247	1321.5
3459.164	1262.5
3462.079	1221.5
3464.991	1183.5
3467.902	1125.5
3470.809	1087.5
3473.715	1053.5
3476.618	1011.5
3479.519	956.5
3482.418	933.5
3485.315	907.5
3488.209	868.5
3491.101	856.5
3493.99	801.5
3496.878	768.5
3499.763	748.5
3502.646	711.5
3505.527	668.5
3508.405	635.5
3511.281	607.5
3514.155	577.5
3517.027	534.5
3519.897	517.5
3522.764	453.5
3525.629	427.5
3528.492	396.5
3531.352	353.5
3534.211	328.5
3537.067	287.5
3539.921	252.5
3542.773	219.5
3545.622	190.5
3548.469	157.5
3551.315	141.5
3554.157	125.5
3556.998	91.5
3559.837	75.5
3562.673	64.5
3565.507	32.5
3568.339	11.5
3571.169	-3.5
3573.996	-25.5
3576.822	-46.5
3579.645	-63.5
3582.466	-69.5
3585.285	-97.5
3588.101	-112.5
3590.916	-129.5
3593.728	-153.5
3596.538	-154.5
3599.346	-181.5
3602.152	-194.5
3604.956	-209.5
3607.757	-231.5
3610.556	-237.5
3613.354	-251.5
3616.149	-264.5
3618.942	-277.5
3621.732	-280.5
3624.521	-289.5
3627.307	-309.5
3630.092	-305.5
3632.874	-330.5
3635.654	-325.5
3638.432	-329.5
3641.208	-343.5
3643.982	-360.5
3646.753	-368.5
3649.523	-370.5
3652.29	-377.5
3655.055	-382.5
3657.818	-399.5
3660.579	-397.5
3663.338	-418.5
3666.095	-416.5
3668.849	-432.5
3671.602	-440.5
3674.352	-446.5
3677.101	-446.5
3679.847	-458.5
3682.591	-466.5
3685.333	-466.5
3688.073	-467.5
3690.811	-472.5
3693.547	-479.5
3696.281	-478.5
3699.013	-491.5
3701.742	-492.5
3704.47	-499.5
3707.195	-505.5
3709.919	-504.5
3712.64	-506.5
3715.359	-510.5
3718.076	-510.5
3720.792	-515.5
3723.505	-514.5
3726.216	-526.5
3728.925	-520.5
3731.632	-528.5
3734.336	-532.5
3737.039	-534.5
3739.74	-533.5
3742.439	-538.5
3745.136	-539.5
3747.83	-549.5
3750.523	-545.5
3753.213	-541.5
3755.902	-549.5
3758.589	-546.5
3761.273	-547.5
3763.956	-557.5
3766.636	-555.5
3769.315	-560.5
3771.991	-554.5
3774.665	-567.5
3777.338	-559.5
3780.008	-561.5
3782.677	-566.5
3785.343	-559.5
3788.007	-565.5
3790.67	-566.5
3793.33	-567.5
3795.989	-573.5
3798.645	-570.5
3801.299	-575.5
3803.952	-575.5
3806.602	-585.5
3809.251	-583.5
3811.897	-575.5
3814.542	-578.5
3817.184	-577.5
3819.825	-575.5
3822.463	-573.5
3825.1	-577.5
3827.735	-575.5
3830.367	-574.5
3832.998	-585.5
3835.627	-579.5
3838.253	-583.5
3840.878	-592.5
3843.501	-580.5
3846.122	-583.5
3848.741	-581.5
3851.358	-584.5
3853.973	-582.5
3856.586	-588.5
3859.197	-588.5
3861.806	-597.5
3864.414	-588.5
3867.019	-584.5
3869.622	-583.5
3872.224	-583.5
3874.823	-567.5
3877.421	-557.5
3880.016	-543.5
3882.61	-521.5
3885.202	-517.5
3887.792	-532.5
3890.38	-564.5
3892.966	-579.5
3895.55	-585.5
3898.132	-599.5
3900.713	-604.5
3903.291	-596.5
3905.868	-601.5
3908.442	-596.5
3911.015	-603.5
3913.586	-596.5
3916.155	-595.5
3918.722	-604.5
3921.287	-598.5
3923.85	-602.5
3926.411	-603.5
3928.971	-611.5
3931.528	-605.5
3934.084	-600.5
3936.638	-597.5
3939.19	-602.5
3941.74	-599.5
3944.288	-603.5
3946.834	-596.5
3949.378	-600.5
3951.921	-600.5
3954.462	-603.5
3957	-596.5
3959.537	-601.5
3962.072	-597.5
3964.606	-599.5
3967.137	-600.5
3969.667	-605.5
3972.194	-598.5
3974.72	-603.5
3977.244	-587.5
3979.766	-590.5
3982.286	-596.5
3984.805	-589.5
3987.321	-587.5
3989.836	-589.5
3992.349	-585.5
3994.86	-583.5
3997.369	-597.5
3999.877	-587.5
4002.382	-587.5
4004.886	-583.5
4007.388	-586.5
4009.888	-579.5
4012.386	-590.5
4014.883	-583.5
4017.377	-585.5
4019.87	-584.5
4022.361	-585.5
4024.85	-581.5
4027.338	-587.5
4029.823	-586.5
4032.307	-589.5
4034.789	-588.5
4037.269	-588.5
4039.747	-590.5
4042.224	-598.5
4044.699	-591.5
4047.172	-590.5
4049.643	-586.5
4052.112	-597.5
4054.58	-590.5
4057.046	-596.5
4059.51	-591.5
4061.972	-591.5
4064.432	-595.5
4066.891	-588.5
4069.348	-591.5
4071.803	-580.5
4074.256	-592.5
4076.708	-584.5
4079.158	-595.5
4081.606	-594.5
4084.052	-599.5
4086.497	-594.5
4088.939	-587.5
4091.38	-587.5
4093.819	-585.5
4096.257	-620.5
4098.693	-619.5
4101.127	-621.5
4103.559	-620.5
4105.989	-358.5
4108.418	-337.5
4110.845	-310.5
4113.27	-290.5
4115.694	-267.5
4118.115	-218.5
4120.535	-588.5
4122.954	-590.5
4125.37	-583.5
4127.785	-588.5
4130.198	-591.5
4132.609	-594.5
4135.019	-620.5
4137.427	-625.5
4139.833	-626.5
4142.237	-615.5
