Data from 2018-2-14_conc=2_n=5_RamanShift_05.txt Node
Date: Wed Feb 14 11:16:26 IST 2018
User: aro
Spectrometer: QEPB0276
Trigger mode: 0
Integration Time (sec): 3.000000E1
Scans to average: 1
Electric dark correction enabled: true
Nonlinearity correction enabled: false
Boxcar width: 0
XAxis mode: Raman Shifts
Number of Pixels in Spectrum: 1044
>>>>>Begin Spectral Data<<<<<
160.701	-150.6
166.742	62.4
172.777	607.4
178.805	2313.4
184.826	6384.4
190.841	13381.4
196.849	21523.4
202.85	27351.4
208.845	29324.4
214.833	29093.4
220.815	28499.4
226.789	28397.4
232.758	28274.4
238.719	28154.4
244.674	27803.4
250.623	27226.4
256.565	26722.4
262.5	26231.4
268.429	25736.4
274.351	25387.4
280.267	25074.4
286.176	24873.4
292.079	24560.4
297.975	24426.4
303.865	24162.4
309.748	24035.4
315.625	23881.4
321.495	23743.4
327.359	23661.4
333.217	23591.4
339.068	23606.4
344.912	23636.4
350.751	23555.4
356.583	23543.4
362.408	23539.4
368.227	23476.4
374.04	23500.4
379.847	23606.4
385.647	23725.4
391.44	23772.4
397.228	23874.4
403.009	23891.4
408.784	24017.4
414.553	24106.4
420.315	24184.4
426.071	24213.4
431.821	24185.4
437.565	24089.4
443.302	24137.4
449.033	24072.4
454.758	23998.4
460.477	24034.4
466.189	23946.4
471.896	23846.4
477.596	23813.4
483.29	23714.4
488.978	23719.4
494.66	23595.4
500.335	23486.4
506.005	23242.4
511.668	22984.4
517.325	22712.4
522.977	22540.4
528.622	22350.4
534.261	22186.4
539.894	22068.4
545.521	22049.4
551.141	21989.4
556.756	21882.4
562.365	21800.4
567.968	21666.4
573.565	21534.4
579.155	21558.4
584.74	21471.4
590.319	21398.4
595.892	21274.4
601.459	21186.4
607.02	21079.4
612.575	20980.4
618.124	20833.4
623.667	20758.4
629.204	20660.4
634.735	20539.4
640.261	20416.4
645.781	20370.4
651.294	20319.4
656.802	20321.4
662.304	20286.4
667.8	20326.4
673.29	20192.4
678.775	20156.4
684.254	20108.4
689.726	20043.4
695.193	19942.4
700.655	19870.4
706.11	19803.4
711.56	19636.4
717.004	19579.4
722.442	19508.4
727.874	19472.4
733.301	19389.4
738.722	19321.4
744.137	19254.4
749.547	19239.4
754.951	19228.4
760.349	19243.4
765.741	19255.4
771.128	19331.4
776.509	19276.4
781.885	19285.4
787.254	19194.4
792.618	19122.4
797.977	19046.4
803.33	18869.4
808.677	18808.4
814.019	18662.4
819.355	18622.4
824.686	18517.4
830.011	18452.4
835.33	18451.4
840.644	18479.4
845.952	18494.4
851.255	18551.4
856.552	18547.4
861.844	18501.4
867.13	18502.4
872.41	18452.4
877.686	18320.4
882.955	18201.4
888.219	18031.4
893.478	17828.4
898.731	17587.4
903.979	17377.4
909.221	17305.4
914.458	17240.4
919.69	17274.4
924.916	17286.4
930.136	17307.4
935.351	17342.4
940.561	17393.4
945.766	17291.4
950.965	17214.4
956.158	17096.4
961.347	16927.4
966.529	16735.4
971.707	16500.4
976.879	16277.4
982.046	16156.4
987.208	16203.4
992.364	16176.4
997.515	16244.4
1002.66	16401.4
1007.801	16544.4
1012.936	16644.4
1018.066	16644.4
1023.19	16652.4
1028.309	16691.4
1033.423	16636.4
1038.532	16567.4
1043.636	16410.4
1048.734	16163.4
1053.827	15967.4
1058.915	15804.4
1063.998	15744.4
1069.075	15678.4
1074.147	15641.4
1079.214	15758.4
1084.276	15850.4
1089.333	15982.4
1094.385	15961.4
1099.431	16029.4
1104.472	16032.4
1109.509	15994.4
1114.54	15760.4
1119.565	15525.4
1124.586	15354.4
1129.602	15199.4
1134.613	15105.4
1139.618	14975.4
1144.619	14922.4
1149.614	14982.4
1154.604	14967.4
1159.589	15010.4
1164.57	15020.4
1169.545	15094.4
1174.515	15092.4
1179.48	15018.4
1184.44	14895.4
1189.395	14780.4
1194.345	14653.4
1199.29	14631.4
1204.23	14621.4
1209.165	14667.4
1214.095	14740.4
1219.021	14778.4
1223.941	14921.4
1228.856	14917.4
1233.766	15022.4
1238.672	15013.4
1243.572	15050.4
1248.467	14842.4
1253.358	14736.4
1258.244	14540.4
1263.124	14292.4
1268	14105.4
1272.871	13951.4
1277.737	13818.4
1282.599	13759.4
1287.455	13759.4
1292.306	13768.4
1297.153	13828.4
1301.995	13881.4
1306.832	13904.4
1311.664	13952.4
1316.491	13873.4
1321.314	13814.4
1326.132	13604.4
1330.945	13282.4
1335.753	12943.4
1340.556	12671.4
1345.354	12401.4
1350.148	12235.4
1354.937	12075.4
1359.722	12033.4
1364.501	12089.4
1369.276	12211.4
1374.046	12348.4
1378.811	12507.4
1383.572	12686.4
1388.327	12770.4
1393.079	12712.4
1397.825	12527.4
1402.567	12401.4
1407.304	12234.4
1412.036	12078.4
1416.764	11997.4
1421.487	11914.4
1426.205	11860.4
1430.919	11799.4
1435.628	11833.4
1440.333	11871.4
1445.032	11864.4
1449.727	11967.4
1454.418	11905.4
1459.104	11743.4
1463.785	11541.4
1468.462	11318.4
1473.134	11112.4
1477.802	10857.4
1482.465	10663.4
1487.123	10526.4
1491.777	10527.4
1496.426	10557.4
1501.071	10641.4
1505.711	10810.4
1510.347	10974.4
1514.978	11147.4
1519.604	11322.4
1524.226	11421.4
1528.844	11446.4
1533.457	11412.4
1538.065	11408.4
1542.669	11305.4
1547.269	11241.4
1551.864	11151.4
1556.454	11122.4
1561.041	11080.4
1565.622	11128.4
1570.199	11136.4
1574.772	11190.4
1579.34	11285.4
1583.904	11283.4
1588.464	11329.4
1593.019	11321.4
1597.569	11318.4
1602.115	11237.4
1606.657	11148.4
1611.195	11098.4
1615.728	11027.4
1620.256	10985.4
1624.78	10931.4
1629.3	10945.4
1633.816	10982.4
1638.327	11032.4
1642.834	11143.4
1647.336	11147.4
1651.834	11126.4
1656.328	11147.4
1660.817	11061.4
1665.302	10948.4
1669.783	10742.4
1674.259	10601.4
1678.732	10282.4
1683.199	9882.4
1687.663	9576.4
1692.122	9310.4
1696.577	9142.4
1701.028	9087.4
1705.474	9062.4
1709.917	9203.4
1714.355	9241.4
1718.788	9215.4
1723.218	9028.4
1727.643	8910.4
1732.064	8743.4
1736.481	8574.4
1740.893	8376.4
1745.301	8159.4
1749.705	7961.4
1754.105	7703.4
1758.501	7479.4
1762.893	7313.4
1767.28	7134.4
1771.663	7003.4
1776.042	6866.4
1780.417	6807.4
1784.787	6779.4
1789.154	6815.4
1793.516	6934.4
1797.874	7008.4
1802.228	7138.4
1806.578	7184.4
1810.924	7231.4
1815.266	7184.4
1819.603	7063.4
1823.937	6971.4
1828.266	6875.4
1832.591	6778.4
1836.913	6718.4
1841.23	6629.4
1845.543	6564.4
1849.852	6552.4
1854.156	6523.4
1858.457	6528.4
1862.754	6523.4
1867.047	6518.4
1871.335	6487.4
1875.62	6444.4
1879.9	6424.4
1884.177	6374.4
1888.449	6337.4
1892.718	6257.4
1896.982	6189.4
1901.243	6111.4
1905.499	6095.4
1909.752	6068.4
1914	6026.4
1918.245	6068.4
1922.485	6117.4
1926.722	6142.4
1930.954	6237.4
1935.183	6296.4
1939.408	6347.4
1943.628	6353.4
1947.845	6409.4
1952.058	6399.4
1956.267	6327.4
1960.472	6277.4
1964.673	6167.4
1968.87	6070.4
1973.063	5989.4
1977.252	5891.4
1981.438	5845.4
1985.619	5817.4
1989.797	5739.4
1993.971	5741.4
1998.14	5703.4
2002.306	5665.4
2006.469	5689.4
2010.627	5624.4
2014.781	5611.4
2018.932	5539.4
2023.078	5483.4
2027.221	5414.4
2031.36	5325.4
2035.495	5259.4
2039.627	5155.4
2043.754	5111.4
2047.878	5048.4
2051.998	5026.4
2056.114	5029.4
2060.226	5021.4
2064.334	4987.4
2068.439	5019.4
2072.54	4996.4
2076.637	5036.4
2080.73	5079.4
2084.82	5082.4
2088.906	5113.4
2092.988	5120.4
2097.066	5092.4
2101.14	5083.4
2105.211	4993.4
2109.278	5011.4
2113.342	4947.4
2117.401	4958.4
2121.457	4969.4
2125.509	4913.4
2129.558	4870.4
2133.602	4874.4
2137.643	4840.4
2141.681	4821.4
2145.714	4787.4
2149.744	4758.4
2153.77	4717.4
2157.793	4686.4
2161.812	4592.4
2165.827	4561.4
2169.838	4452.4
2173.846	4414.4
2177.851	4318.4
2181.851	4255.4
2185.848	4227.4
2189.841	4186.4
2193.831	4154.4
2197.817	4103.4
2201.799	4064.4
2205.778	4075.4
2209.753	4055.4
2213.725	4026.4
2217.693	4010.4
2221.657	3990.4
2225.618	3990.4
2229.575	3987.4
2233.529	3928.4
2237.479	3898.4
2241.425	3854.4
2245.368	3798.4
2249.307	3750.4
2253.243	3692.4
2257.175	3624.4
2261.104	3572.4
2265.029	3553.4
2268.95	3517.4
2272.868	3471.4
2276.783	3426.4
2280.694	3417.4
2284.601	3359.4
2288.505	3360.4
2292.405	3293.4
2296.302	3292.4
2300.195	3252.4
2304.085	3210.4
2307.971	3173.4
2311.854	3098.4
2315.734	3063.4
2319.609	3002.4
2323.482	2980.4
2327.351	2940.4
2331.216	2935.4
2335.078	2917.4
2338.937	2909.4
2342.792	2874.4
2346.643	2864.4
2350.492	2853.4
2354.336	2864.4
2358.178	2868.4
2362.015	2887.4
2365.85	2860.4
2369.681	2898.4
2373.508	2872.4
2377.333	2895.4
2381.153	2865.4
2384.971	2864.4
2388.785	2839.4
2392.595	2793.4
2396.402	2773.4
2400.206	2771.4
2404.007	2738.4
2407.804	2730.4
2411.597	2719.4
2415.388	2695.4
2419.174	2687.4
2422.958	2654.4
2426.738	2617.4
2430.515	2611.4
2434.289	2596.4
2438.059	2575.4
2441.825	2572.4
2445.589	2522.4
2449.349	2517.4
2453.106	2477.4
2456.859	2414.4
2460.61	2413.4
2464.356	2376.4
2468.1	2337.4
2471.84	2316.4
2475.577	2299.4
2479.311	2300.4
2483.041	2267.4
2486.768	2253.4
2490.492	2238.4
2494.213	2252.4
2497.93	2251.4
2501.644	2210.4
2505.355	2199.4
2509.062	2193.4
2512.766	2182.4
2516.467	2169.4
2520.165	2151.4
2523.859	2125.4
2527.551	2134.4
2531.239	2135.4
2534.923	2110.4
2538.605	2085.4
2542.283	2085.4
2545.958	2067.4
2549.63	2069.4
2553.299	2071.4
2556.964	2074.4
2560.626	2057.4
2564.285	2037.4
2567.941	2061.4
2571.594	2010.4
2575.243	2002.4
2578.89	2001.4
2582.533	1979.4
2586.173	1998.4
2589.809	1952.4
2593.443	1931.4
2597.073	1903.4
2600.701	1898.4
2604.325	1885.4
2607.946	1877.4
2611.564	1881.4
2615.178	1869.4
2618.79	1848.4
2622.398	1828.4
2626.004	1807.4
2629.606	1779.4
2633.205	1753.4
2636.801	1724.4
2640.394	1702.4
2643.983	1682.4
2647.57	1672.4
2651.153	1621.4
2654.734	1602.4
2658.311	1599.4
2661.885	1556.4
2665.456	1543.4
2669.025	1518.4
2672.589	1472.4
2676.151	1492.4
2679.71	1475.4
2683.266	1447.4
2686.819	1432.4
2690.368	1397.4
2693.915	1366.4
2697.458	1352.4
2700.999	1300.4
2704.536	1282.4
2708.071	1250.4
2711.602	1228.4
2715.13	1190.4
2718.656	1179.4
2722.178	1155.4
2725.697	1138.4
2729.214	1124.4
2732.727	1110.4
2736.237	1099.4
2739.744	1089.4
2743.249	1097.4
2746.75	1106.4
2750.248	1108.4
2753.743	1124.4
2757.236	1140.4
2760.725	1153.4
2764.211	1140.4
2767.695	1154.4
2771.175	1144.4
2774.652	1137.4
2778.127	1138.4
2781.598	1143.4
2785.067	1132.4
2788.532	1118.4
2791.995	1105.4
2795.455	1140.4
2798.911	1109.4
2802.365	1123.4
2805.816	1128.4
2809.264	1136.4
2812.709	1125.4
2816.151	1126.4
2819.59	1138.4
2823.026	1108.4
2826.46	1126.4
2829.89	1122.4
2833.318	1132.4
2836.742	1138.4
2840.164	1138.4
2843.583	1143.4
2846.999	1156.4
2850.412	1179.4
2853.822	1170.4
2857.229	1179.4
2860.634	1218.4
2864.035	1236.4
2867.434	1251.4
2870.83	1281.4
2874.223	1301.4
2877.613	1310.4
2881	1336.4
2884.385	1346.4
2887.766	1325.4
2891.145	1316.4
2894.521	1334.4
2897.894	1324.4
2901.264	1345.4
2904.631	1337.4
2907.996	1317.4
2911.358	1341.4
2914.717	1348.4
2918.073	1362.4
2921.426	1383.4
2924.777	1395.4
2928.124	1422.4
2931.469	1430.4
2934.811	1459.4
2938.15	1464.4
2941.487	1489.4
2944.821	1502.4
2948.152	1495.4
2951.48	1495.4
2954.805	1448.4
2958.128	1445.4
2961.447	1442.4
2964.765	1441.4
2968.079	1476.4
2971.39	1478.4
2974.699	1503.4
2978.005	1480.4
2981.308	1532.4
2984.609	1554.4
2987.907	1586.4
2991.202	1611.4
2994.494	1645.4
2997.784	1668.4
3001.07	1709.4
3004.355	1725.4
3007.636	1742.4
3010.915	1772.4
3014.191	1809.4
3017.464	1800.4
3020.734	1812.4
3024.002	1828.4
3027.267	1849.4
3030.53	1855.4
3033.789	1861.4
3037.046	1894.4
3040.301	1909.4
3043.552	1962.4
3046.801	1996.4
3050.048	2040.4
3053.291	2098.4
3056.532	2129.4
3059.771	2204.4
3063.006	2275.4
3066.239	2327.4
3069.469	2390.4
3072.697	2458.4
3075.922	2539.4
3079.144	2602.4
3082.364	2631.4
3085.581	2726.4
3088.795	2754.4
3092.007	2835.4
3095.216	2899.4
3098.423	2924.4
3101.627	2989.4
3104.828	3081.4
3108.026	3134.4
3111.222	3191.4
3114.416	3263.4
3117.607	3324.4
3120.795	3446.4
3123.98	3508.4
3127.163	3626.4
3130.344	3665.4
3133.521	3768.4
3136.696	3851.4
3139.869	3915.4
3143.039	4021.4
3146.206	4044.4
3149.371	4092.4
3152.533	4135.4
3155.693	4161.4
3158.85	4177.4
3162.005	4232.4
3165.157	4213.4
3168.306	4220.4
3171.453	4234.4
3174.597	4257.4
3177.739	4277.4
3180.878	4286.4
3184.014	4252.4
3187.149	4286.4
3190.28	4245.4
3193.409	4286.4
3196.536	4271.4
3199.659	4341.4
3202.781	4291.4
3205.9	4313.4
3209.016	4294.4
3212.13	4298.4
3215.241	4251.4
3218.35	4241.4
3221.456	4179.4
3224.56	4152.4
3227.661	4096.4
3230.76	4046.4
3233.856	4031.4
3236.95	3987.4
3240.041	3921.4
3243.13	3913.4
3246.216	3928.4
3249.3	3865.4
3252.382	3842.4
3255.46	3826.4
3258.537	3845.4
3261.611	3849.4
3264.682	3827.4
3267.751	3813.4
3270.818	3814.4
3273.882	3799.4
3276.943	3808.4
3280.002	3725.4
3283.059	3704.4
3286.113	3664.4
3289.165	3623.4
3292.214	3566.4
3295.261	3505.4
3298.306	3456.4
3301.348	3376.4
3304.387	3336.4
3307.425	3277.4
3310.459	3235.4
3313.492	3187.4
3316.521	3175.4
3319.549	3128.4
3322.574	3098.4
3325.597	3042.4
3328.617	3038.4
3331.635	2989.4
3334.65	2998.4
3337.663	2972.4
3340.674	2943.4
3343.682	2971.4
3346.688	2936.4
3349.691	2929.4
3352.692	2907.4
3355.691	2882.4
3358.687	2854.4
3361.681	2833.4
3364.673	2806.4
3367.662	2741.4
3370.649	2724.4
3373.633	2685.4
3376.615	2623.4
3379.595	2600.4
3382.572	2572.4
3385.547	2533.4
3388.52	2470.4
3391.49	2445.4
3394.458	2411.4
3397.424	2367.4
3400.387	2348.4
3403.348	2318.4
3406.307	2295.4
3409.263	2280.4
3412.217	2252.4
3415.168	2213.4
3418.118	2194.4
3421.065	2158.4
3424.009	2145.4
3426.951	2106.4
3429.891	2054.4
3432.829	2011.4
3435.764	1963.4
3438.697	1921.4
3441.628	1877.4
3444.557	1811.4
3447.483	1749.4
3450.407	1700.4
3453.328	1660.4
3456.247	1588.4
3459.164	1550.4
3462.079	1490.4
3464.991	1423.4
3467.902	1382.4
3470.809	1345.4
3473.715	1289.4
3476.618	1245.4
3479.519	1174.4
3482.418	1163.4
3485.315	1103.4
3488.209	1062.4
3491.101	1023.4
3493.99	1009.4
3496.878	964.4
3499.763	939.4
3502.646	882.4
3505.527	868.4
3508.405	806.4
3511.281	756.4
3514.155	721.4
3517.027	685.4
3519.897	625.4
3522.764	593.4
3525.629	557.4
3528.492	500.4
3531.352	461.4
3534.211	410.4
3537.067	384.4
3539.921	351.4
3542.773	305.4
3545.622	266.4
3548.469	234.4
3551.315	206.4
3554.157	194.4
3556.998	149.4
3559.837	129.4
3562.673	94.4
3565.507	84.4
3568.339	48.4
3571.169	29.4
3573.996	11.4
3576.822	-5.6
3579.645	-43.6
3582.466	-56.6
3585.285	-77.6
3588.101	-107.6
3590.916	-125.6
3593.728	-138.6
3596.538	-153.6
3599.346	-182.6
3602.152	-203.6
3604.956	-209.6
3607.757	-229.6
3610.556	-246.6
3613.354	-258.6
3616.149	-277.6
3618.942	-288.6
3621.732	-299.6
3624.521	-325.6
3627.307	-324.6
3630.092	-332.6
3632.874	-357.6
3635.654	-354.6
3638.432	-357.6
3641.208	-378.6
3643.982	-390.6
3646.753	-391.6
3649.523	-412.6
3652.29	-416.6
3655.055	-416.6
3657.818	-432.6
3660.579	-444.6
3663.338	-454.6
3666.095	-463.6
3668.849	-477.6
3671.602	-491.6
3674.352	-500.6
3677.101	-502.6
3679.847	-508.6
3682.591	-516.6
3685.333	-518.6
3688.073	-520.6
3690.811	-534.6
3693.547	-536.6
3696.281	-541.6
3699.013	-546.6
3701.742	-552.6
3704.47	-560.6
3707.195	-565.6
3709.919	-569.6
3712.64	-573.6
3715.359	-573.6
3718.076	-586.6
3720.792	-578.6
3723.505	-591.6
3726.216	-594.6
3728.925	-593.6
3731.632	-598.6
3734.336	-602.6
3737.039	-606.6
3739.74	-599.6
3742.439	-605.6
3745.136	-610.6
3747.83	-616.6
3750.523	-614.6
3753.213	-603.6
3755.902	-622.6
3758.589	-621.6
3761.273	-623.6
3763.956	-624.6
3766.636	-627.6
3769.315	-628.6
3771.991	-628.6
3774.665	-634.6
3777.338	-632.6
3780.008	-638.6
3782.677	-638.6
3785.343	-637.6
3788.007	-646.6
3790.67	-641.6
3793.33	-638.6
3795.989	-643.6
3798.645	-643.6
3801.299	-641.6
3803.952	-650.6
3806.602	-656.6
3809.251	-653.6
3811.897	-650.6
3814.542	-654.6
3817.184	-652.6
3819.825	-646.6
3822.463	-647.6
3825.1	-663.6
3827.735	-653.6
3830.367	-656.6
3832.998	-660.6
3835.627	-659.6
3838.253	-666.6
3840.878	-664.6
3843.501	-664.6
3846.122	-660.6
3848.741	-660.6
3851.358	-661.6
3853.973	-659.6
3856.586	-667.6
3859.197	-667.6
3861.806	-670.6
3864.414	-662.6
3867.019	-659.6
3869.622	-663.6
3872.224	-655.6
3874.823	-637.6
3877.421	-628.6
3880.016	-609.6
3882.61	-588.6
3885.202	-579.6
3887.792	-594.6
3890.38	-630.6
3892.966	-654.6
3895.55	-662.6
3898.132	-677.6
3900.713	-679.6
3903.291	-675.6
3905.868	-678.6
3908.442	-676.6
3911.015	-676.6
3913.586	-675.6
3916.155	-678.6
3918.722	-674.6
3921.287	-674.6
3923.85	-682.6
3926.411	-678.6
3928.971	-687.6
3931.528	-681.6
3934.084	-682.6
3936.638	-681.6
3939.19	-681.6
3941.74	-680.6
3944.288	-684.6
3946.834	-682.6
3949.378	-687.6
3951.921	-684.6
3954.462	-688.6
3957	-679.6
3959.537	-682.6
3962.072	-673.6
3964.606	-680.6
3967.137	-682.6
3969.667	-685.6
3972.194	-673.6
3974.72	-681.6
3977.244	-673.6
3979.766	-662.6
3982.286	-672.6
3984.805	-675.6
3987.321	-670.6
3989.836	-673.6
3992.349	-668.6
3994.86	-659.6
3997.369	-675.6
3999.877	-663.6
4002.382	-662.6
4004.886	-660.6
4007.388	-665.6
4009.888	-661.6
4012.386	-667.6
4014.883	-663.6
4017.377	-665.6
4019.87	-662.6
4022.361	-663.6
4024.85	-666.6
4027.338	-668.6
4029.823	-669.6
4032.307	-674.6
4034.789	-664.6
4037.269	-662.6
4039.747	-665.6
4042.224	-670.6
4044.699	-671.6
4047.172	-665.6
4049.643	-665.6
4052.112	-673.6
4054.58	-674.6
4057.046	-671.6
4059.51	-668.6
4061.972	-673.6
4064.432	-675.6
4066.891	-670.6
4069.348	-671.6
4071.803	-667.6
4074.256	-673.6
4076.708	-667.6
4079.158	-670.6
4081.606	-672.6
4084.052	-675.6
4086.497	-663.6
4088.939	-659.6
4091.38	-662.6
4093.819	-664.6
4096.257	-706.6
4098.693	-706.6
4101.127	-709.6
4103.559	-704.6
4105.989	-403.6
4108.418	-371.6
4110.845	-352.6
4113.27	-325.6
4115.694	-282.6
4118.115	-231.6
4120.535	-666.6
4122.954	-665.6
4125.37	-663.6
4127.785	-670.6
4130.198	-670.6
4132.609	-672.6
4135.019	-707.6
4137.427	-707.6
4139.833	-710.6
4142.237	-706.6
