Data from 2018-2-14_conc=3_n=2_RamanShift_01.txt Node
Date: Wed Feb 14 11:45:26 IST 2018
User: aro
Spectrometer: QEPB0276
Trigger mode: 0
Integration Time (sec): 3.000000E1
Scans to average: 1
Electric dark correction enabled: true
Nonlinearity correction enabled: false
Boxcar width: 0
XAxis mode: Raman Shifts
Number of Pixels in Spectrum: 1044
>>>>>Begin Spectral Data<<<<<
160.701	-137.1
166.742	46.9
172.777	565.9
178.805	2110.9
184.826	5887.9
190.841	12273.9
196.849	19811.9
202.85	25054.9
208.845	26784.9
214.833	26441.9
220.815	26008.9
226.789	25761.9
232.758	25678.9
238.719	25381.9
244.674	25089.9
250.623	24591.9
256.565	24026.9
262.5	23482.9
268.429	23057.9
274.351	22700.9
280.267	22403.9
286.176	22082.9
292.079	21821.9
297.975	21597.9
303.865	21358.9
309.748	21210.9
315.625	21091.9
321.495	21018.9
327.359	20950.9
333.217	20842.9
339.068	20874.9
344.912	20779.9
350.751	20774.9
356.583	20805.9
362.408	20730.9
368.227	20767.9
374.04	20798.9
379.847	20852.9
385.647	20921.9
391.44	20992.9
397.228	21097.9
403.009	21127.9
408.784	21173.9
414.553	21277.9
420.315	21300.9
426.071	21448.9
431.821	21326.9
437.565	21300.9
443.302	21258.9
449.033	21223.9
454.758	21198.9
460.477	21144.9
466.189	21126.9
471.896	21057.9
477.596	21002.9
483.29	20948.9
488.978	20955.9
494.66	20832.9
500.335	20706.9
506.005	20525.9
511.668	20191.9
517.325	19961.9
522.977	19786.9
528.622	19689.9
534.261	19505.9
539.894	19375.9
545.521	19311.9
551.141	19256.9
556.756	19214.9
562.365	19063.9
567.968	18976.9
573.565	19003.9
579.155	18866.9
584.74	18833.9
590.319	18741.9
595.892	18657.9
601.459	18579.9
607.02	18508.9
612.575	18380.9
618.124	18282.9
623.667	18155.9
629.204	18056.9
634.735	17990.9
640.261	17840.9
645.781	17846.9
651.294	17796.9
656.802	17783.9
662.304	17746.9
667.8	17688.9
673.29	17663.9
678.775	17640.9
684.254	17577.9
689.726	17510.9
695.193	17417.9
700.655	17361.9
706.11	17267.9
711.56	17113.9
717.004	17076.9
722.442	17017.9
727.874	16976.9
733.301	16860.9
738.722	16829.9
744.137	16808.9
749.547	16763.9
754.951	16816.9
760.349	16834.9
765.741	16794.9
771.128	16809.9
776.509	16771.9
781.885	16809.9
787.254	16795.9
792.618	16710.9
797.977	16578.9
803.33	16462.9
808.677	16381.9
814.019	16339.9
819.355	16243.9
824.686	16100.9
830.011	16120.9
835.33	16087.9
840.644	16132.9
845.952	16121.9
851.255	16123.9
856.552	16170.9
861.844	16110.9
867.13	16068.9
872.41	16028.9
877.686	15902.9
882.955	15831.9
888.219	15650.9
893.478	15483.9
898.731	15282.9
903.979	15123.9
909.221	15024.9
914.458	14925.9
919.69	14983.9
924.916	14995.9
930.136	15005.9
935.351	15013.9
940.561	15020.9
945.766	15020.9
950.965	14943.9
956.158	14810.9
961.347	14635.9
966.529	14491.9
971.707	14317.9
976.879	14158.9
982.046	13996.9
987.208	13937.9
992.364	13965.9
997.515	14041.9
1002.66	14189.9
1007.801	14327.9
1012.936	14389.9
1018.066	14423.9
1023.19	14440.9
1028.309	14421.9
1033.423	14343.9
1038.532	14347.9
1043.636	14168.9
1048.734	13953.9
1053.827	13796.9
1058.915	13659.9
1063.998	13584.9
1069.075	13530.9
1074.147	13539.9
1079.214	13587.9
1084.276	13674.9
1089.333	13718.9
1094.385	13791.9
1099.431	13868.9
1104.472	13812.9
1109.509	13775.9
1114.54	13543.9
1119.565	13430.9
1124.586	13271.9
1129.602	13104.9
1134.613	13015.9
1139.618	12930.9
1144.619	12855.9
1149.614	12892.9
1154.604	12914.9
1159.589	12998.9
1164.57	12965.9
1169.545	13016.9
1174.515	13023.9
1179.48	12940.9
1184.44	12791.9
1189.395	12751.9
1194.345	12633.9
1199.29	12573.9
1204.23	12577.9
1209.165	12607.9
1214.095	12685.9
1219.021	12745.9
1223.941	12800.9
1228.856	12869.9
1233.766	12901.9
1238.672	12883.9
1243.572	12907.9
1248.467	12818.9
1253.358	12660.9
1258.244	12526.9
1263.124	12330.9
1268	12172.9
1272.871	12009.9
1277.737	11856.9
1282.599	11819.9
1287.455	11810.9
1292.306	11872.9
1297.153	11845.9
1301.995	11945.9
1306.832	12004.9
1311.664	11949.9
1316.491	11967.9
1321.314	11849.9
1326.132	11663.9
1330.945	11423.9
1335.753	11177.9
1340.556	10952.9
1345.354	10705.9
1350.148	10499.9
1354.937	10459.9
1359.722	10435.9
1364.501	10473.9
1369.276	10561.9
1374.046	10713.9
1378.811	10797.9
1383.572	10967.9
1388.327	10979.9
1393.079	10937.9
1397.825	10837.9
1402.567	10651.9
1407.304	10472.9
1412.036	10405.9
1416.764	10309.9
1421.487	10248.9
1426.205	10183.9
1430.919	10165.9
1435.628	10146.9
1440.333	10208.9
1445.032	10255.9
1449.727	10266.9
1454.418	10224.9
1459.104	10166.9
1463.785	9918.9
1468.462	9750.9
1473.134	9554.9
1477.802	9351.9
1482.465	9197.9
1487.123	9112.9
1491.777	9055.9
1496.426	9126.9
1501.071	9203.9
1505.711	9324.9
1510.347	9490.9
1514.978	9712.9
1519.604	9801.9
1524.226	9908.9
1528.844	9916.9
1533.457	9856.9
1538.065	9801.9
1542.669	9757.9
1547.269	9695.9
1551.864	9633.9
1556.454	9576.9
1561.041	9550.9
1565.622	9608.9
1570.199	9596.9
1574.772	9673.9
1579.34	9661.9
1583.904	9751.9
1588.464	9809.9
1593.019	9791.9
1597.569	9746.9
1602.115	9721.9
1606.657	9645.9
1611.195	9579.9
1615.728	9579.9
1620.256	9497.9
1624.78	9491.9
1629.3	9499.9
1633.816	9546.9
1638.327	9618.9
1642.834	9678.9
1647.336	9709.9
1651.834	9682.9
1656.328	9723.9
1660.817	9667.9
1665.302	9589.9
1669.783	9369.9
1674.259	9216.9
1678.732	8902.9
1683.199	8669.9
1687.663	8365.9
1692.122	8079.9
1696.577	8018.9
1701.028	7909.9
1705.474	7956.9
1709.917	8028.9
1714.355	8041.9
1718.788	7974.9
1723.218	7877.9
1727.643	7731.9
1732.064	7566.9
1736.481	7426.9
1740.893	7164.9
1745.301	6999.9
1749.705	6869.9
1754.105	6648.9
1758.501	6445.9
1762.893	6283.9
1767.28	6117.9
1771.663	6020.9
1776.042	5917.9
1780.417	5848.9
1784.787	5849.9
1789.154	5924.9
1793.516	6013.9
1797.874	6085.9
1802.228	6187.9
1806.578	6227.9
1810.924	6233.9
1815.266	6205.9
1819.603	6097.9
1823.937	5982.9
1828.266	5913.9
1832.591	5834.9
1836.913	5739.9
1841.23	5662.9
1845.543	5629.9
1849.852	5620.9
1854.156	5607.9
1858.457	5601.9
1862.754	5624.9
1867.047	5566.9
1871.335	5560.9
1875.62	5527.9
1879.9	5532.9
1884.177	5503.9
1888.449	5465.9
1892.718	5384.9
1896.982	5322.9
1901.243	5310.9
1905.499	5242.9
1909.752	5236.9
1914	5239.9
1918.245	5247.9
1922.485	5296.9
1926.722	5362.9
1930.954	5410.9
1935.183	5482.9
1939.408	5546.9
1943.628	5540.9
1947.845	5557.9
1952.058	5518.9
1956.267	5485.9
1960.472	5415.9
1964.673	5341.9
1968.87	5260.9
1973.063	5150.9
1977.252	5096.9
1981.438	5034.9
1985.619	4979.9
1989.797	4960.9
1993.971	4908.9
1998.14	4918.9
2002.306	4878.9
2006.469	4857.9
2010.627	4826.9
2014.781	4847.9
2018.932	4796.9
2023.078	4769.9
2027.221	4691.9
2031.36	4595.9
2035.495	4518.9
2039.627	4467.9
2043.754	4397.9
2047.878	4404.9
2051.998	4364.9
2056.114	4325.9
2060.226	4335.9
2064.334	4338.9
2068.439	4350.9
2072.54	4396.9
2076.637	4419.9
2080.73	4449.9
2084.82	4465.9
2088.906	4474.9
2092.988	4467.9
2097.066	4468.9
2101.14	4437.9
2105.211	4377.9
2109.278	4356.9
2113.342	4335.9
2117.401	4309.9
2121.457	4270.9
2125.509	4247.9
2129.558	4240.9
2133.602	4218.9
2137.643	4178.9
2141.681	4152.9
2145.714	4141.9
2149.744	4127.9
2153.77	4079.9
2157.793	4034.9
2161.812	3983.9
2165.827	3924.9
2169.838	3862.9
2173.846	3836.9
2177.851	3758.9
2181.851	3709.9
2185.848	3648.9
2189.841	3608.9
2193.831	3551.9
2197.817	3544.9
2201.799	3509.9
2205.778	3495.9
2209.753	3466.9
2213.725	3473.9
2217.693	3453.9
2221.657	3463.9
2225.618	3467.9
2229.575	3403.9
2233.529	3386.9
2237.479	3356.9
2241.425	3318.9
2245.368	3244.9
2249.307	3228.9
2253.243	3182.9
2257.175	3153.9
2261.104	3071.9
2265.029	3032.9
2268.95	3043.9
2272.868	2991.9
2276.783	2949.9
2280.694	2899.9
2284.601	2910.9
2288.505	2857.9
2292.405	2838.9
2296.302	2818.9
2300.195	2785.9
2304.085	2735.9
2307.971	2669.9
2311.854	2644.9
2315.734	2617.9
2319.609	2580.9
2323.482	2541.9
2327.351	2511.9
2331.216	2502.9
2335.078	2483.9
2338.937	2463.9
2342.792	2434.9
2346.643	2419.9
2350.492	2432.9
2354.336	2452.9
2358.178	2457.9
2362.015	2445.9
2365.85	2465.9
2369.681	2452.9
2373.508	2441.9
2377.333	2433.9
2381.153	2439.9
2384.971	2408.9
2388.785	2389.9
2392.595	2375.9
2396.402	2360.9
2400.206	2341.9
2404.007	2315.9
2407.804	2304.9
2411.597	2290.9
2415.388	2276.9
2419.174	2260.9
2422.958	2233.9
2426.738	2222.9
2430.515	2202.9
2434.289	2186.9
2438.059	2158.9
2441.825	2144.9
2445.589	2122.9
2449.349	2091.9
2453.106	2075.9
2456.859	2066.9
2460.61	2010.9
2464.356	2008.9
2468.1	1968.9
2471.84	1967.9
2475.577	1936.9
2479.311	1938.9
2483.041	1907.9
2486.768	1923.9
2490.492	1901.9
2494.213	1894.9
2497.93	1897.9
2501.644	1867.9
2505.355	1870.9
2509.062	1853.9
2512.766	1833.9
2516.467	1846.9
2520.165	1832.9
2523.859	1819.9
2527.551	1804.9
2531.239	1811.9
2534.923	1779.9
2538.605	1754.9
2542.283	1795.9
2545.958	1773.9
2549.63	1763.9
2553.299	1786.9
2556.964	1755.9
2560.626	1734.9
2564.285	1748.9
2567.941	1742.9
2571.594	1721.9
2575.243	1703.9
2578.89	1710.9
2582.533	1671.9
2586.173	1670.9
2589.809	1661.9
2593.443	1635.9
2597.073	1598.9
2600.701	1600.9
2604.325	1584.9
2607.946	1578.9
2611.564	1563.9
2615.178	1551.9
2618.79	1528.9
2622.398	1542.9
2626.004	1523.9
2629.606	1496.9
2633.205	1467.9
2636.801	1468.9
2640.394	1437.9
2643.983	1412.9
2647.57	1398.9
2651.153	1365.9
2654.734	1336.9
2658.311	1298.9
2661.885	1306.9
2665.456	1295.9
2669.025	1269.9
2672.589	1253.9
2676.151	1243.9
2679.71	1218.9
2683.266	1205.9
2686.819	1184.9
2690.368	1163.9
2693.915	1144.9
2697.458	1114.9
2700.999	1069.9
2704.536	1060.9
2708.071	1054.9
2711.602	1026.9
2715.13	992.9
2718.656	968.9
2722.178	958.9
2725.697	951.9
2729.214	945.9
2732.727	936.9
2736.237	916.9
2739.744	930.9
2743.249	933.9
2746.75	935.9
2750.248	931.9
2753.743	934.9
2757.236	961.9
2760.725	971.9
2764.211	982.9
2767.695	968.9
2771.175	969.9
2774.652	984.9
2778.127	962.9
2781.598	957.9
2785.067	954.9
2788.532	945.9
2791.995	936.9
2795.455	971.9
2798.911	954.9
2802.365	942.9
2805.816	958.9
2809.264	948.9
2812.709	949.9
2816.151	948.9
2819.59	958.9
2823.026	955.9
2826.46	948.9
2829.89	957.9
2833.318	950.9
2836.742	950.9
2840.164	967.9
2843.583	992.9
2846.999	985.9
2850.412	998.9
2853.822	998.9
2857.229	1035.9
2860.634	1057.9
2864.035	1081.9
2867.434	1073.9
2870.83	1121.9
2874.223	1128.9
2877.613	1152.9
2881	1179.9
2884.385	1182.9
2887.766	1179.9
2891.145	1171.9
2894.521	1154.9
2897.894	1170.9
2901.264	1161.9
2904.631	1178.9
2907.996	1182.9
2911.358	1184.9
2914.717	1191.9
2918.073	1206.9
2921.426	1216.9
2924.777	1243.9
2928.124	1237.9
2931.469	1296.9
2934.811	1303.9
2938.15	1329.9
2941.487	1331.9
2944.821	1344.9
2948.152	1333.9
2951.48	1338.9
2954.805	1323.9
2958.128	1290.9
2961.447	1309.9
2964.765	1305.9
2968.079	1307.9
2971.39	1322.9
2974.699	1340.9
2978.005	1378.9
2981.308	1385.9
2984.609	1396.9
2987.907	1443.9
2991.202	1446.9
2994.494	1500.9
2997.784	1535.9
3001.07	1556.9
3004.355	1590.9
3007.636	1620.9
3010.915	1640.9
3014.191	1649.9
3017.464	1664.9
3020.734	1679.9
3024.002	1684.9
3027.267	1726.9
3030.53	1707.9
3033.789	1750.9
3037.046	1755.9
3040.301	1766.9
3043.552	1819.9
3046.801	1837.9
3050.048	1903.9
3053.291	1935.9
3056.532	1993.9
3059.771	2047.9
3063.006	2110.9
3066.239	2177.9
3069.469	2254.9
3072.697	2314.9
3075.922	2372.9
3079.144	2419.9
3082.364	2475.9
3085.581	2529.9
3088.795	2586.9
3092.007	2648.9
3095.216	2693.9
3098.423	2769.9
3101.627	2824.9
3104.828	2889.9
3108.026	2936.9
3111.222	3009.9
3114.416	3066.9
3117.607	3154.9
3120.795	3238.9
3123.98	3310.9
3127.163	3398.9
3130.344	3478.9
3133.521	3545.9
3136.696	3625.9
3139.869	3718.9
3143.039	3769.9
3146.206	3814.9
3149.371	3870.9
3152.533	3915.9
3155.693	3924.9
3158.85	3957.9
3162.005	3956.9
3165.157	4005.9
3168.306	4005.9
3171.453	4008.9
3174.597	4019.9
3177.739	4049.9
3180.878	4035.9
3184.014	4018.9
3187.149	4033.9
3190.28	4042.9
3193.409	4024.9
3196.536	4037.9
3199.659	4061.9
3202.781	4071.9
3205.9	4085.9
3209.016	4053.9
3212.13	4048.9
3215.241	3985.9
3218.35	3983.9
3221.456	3928.9
3224.56	3920.9
3227.661	3870.9
3230.76	3800.9
3233.856	3772.9
3236.95	3728.9
3240.041	3715.9
3243.13	3682.9
3246.216	3651.9
3249.3	3626.9
3252.382	3622.9
3255.46	3603.9
3258.537	3609.9
3261.611	3586.9
3264.682	3603.9
3267.751	3585.9
3270.818	3599.9
3273.882	3590.9
3276.943	3561.9
3280.002	3519.9
3283.059	3479.9
3286.113	3442.9
3289.165	3399.9
3292.214	3345.9
3295.261	3302.9
3298.306	3233.9
3301.348	3180.9
3304.387	3145.9
3307.425	3099.9
3310.459	3046.9
3313.492	2980.9
3316.521	2965.9
3319.549	2929.9
3322.574	2900.9
3325.597	2864.9
3328.617	2832.9
3331.635	2838.9
3334.65	2816.9
3337.663	2772.9
3340.674	2755.9
3343.682	2743.9
3346.688	2760.9
3349.691	2754.9
3352.692	2738.9
3355.691	2719.9
3358.687	2666.9
3361.681	2651.9
3364.673	2607.9
3367.662	2583.9
3370.649	2564.9
3373.633	2502.9
3376.615	2479.9
3379.595	2435.9
3382.572	2408.9
3385.547	2401.9
3388.52	2344.9
3391.49	2295.9
3394.458	2255.9
3397.424	2243.9
3400.387	2191.9
3403.348	2176.9
3406.307	2146.9
3409.263	2113.9
3412.217	2093.9
3415.168	2076.9
3418.118	2068.9
3421.065	2011.9
3424.009	2004.9
3426.951	1982.9
3429.891	1945.9
3432.829	1894.9
3435.764	1848.9
3438.697	1795.9
3441.628	1767.9
3444.557	1679.9
3447.483	1624.9
3450.407	1586.9
3453.328	1538.9
3456.247	1490.9
3459.164	1416.9
3462.079	1401.9
3464.991	1340.9
3467.902	1280.9
3470.809	1243.9
3473.715	1187.9
3476.618	1168.9
3479.519	1126.9
3482.418	1072.9
3485.315	1043.9
3488.209	1006.9
3491.101	962.9
3493.99	943.9
3496.878	883.9
3499.763	874.9
3502.646	831.9
3505.527	779.9
3508.405	758.9
3511.281	715.9
3514.155	672.9
3517.027	638.9
3519.897	606.9
3522.764	546.9
3525.629	503.9
3528.492	478.9
3531.352	436.9
3534.211	388.9
3537.067	349.9
3539.921	321.9
3542.773	282.9
3545.622	242.9
3548.469	232.9
3551.315	207.9
3554.157	171.9
3556.998	142.9
3559.837	119.9
3562.673	88.9
3565.507	74.9
3568.339	55.9
3571.169	40.9
3573.996	13.9
3576.822	-0.1
3579.645	-24.1
3582.466	-48.1
3585.285	-75.1
3588.101	-101.1
3590.916	-109.1
3593.728	-130.1
3596.538	-140.1
3599.346	-160.1
3602.152	-176.1
3604.956	-192.1
3607.757	-205.1
3610.556	-221.1
3613.354	-230.1
3616.149	-254.1
3618.942	-256.1
3621.732	-272.1
3624.521	-291.1
3627.307	-297.1
3630.092	-299.1
3632.874	-321.1
3635.654	-327.1
3638.432	-342.1
3641.208	-338.1
3643.982	-353.1
3646.753	-359.1
3649.523	-372.1
3652.29	-379.1
3655.055	-381.1
3657.818	-399.1
3660.579	-404.1
3663.338	-420.1
3666.095	-423.1
3668.849	-434.1
3671.602	-443.1
3674.352	-448.1
3677.101	-453.1
3679.847	-464.1
3682.591	-475.1
3685.333	-478.1
3688.073	-480.1
3690.811	-490.1
3693.547	-498.1
3696.281	-500.1
3699.013	-501.1
3701.742	-508.1
3704.47	-511.1
3707.195	-522.1
3709.919	-522.1
3712.64	-527.1
3715.359	-530.1
3718.076	-531.1
3720.792	-536.1
3723.505	-532.1
3726.216	-540.1
3728.925	-546.1
3731.632	-553.1
3734.336	-554.1
3737.039	-555.1
3739.74	-553.1
3742.439	-556.1
3745.136	-559.1
3747.83	-566.1
3750.523	-567.1
3753.213	-547.1
3755.902	-572.1
3758.589	-570.1
3761.273	-578.1
3763.956	-578.1
3766.636	-575.1
3769.315	-580.1
3771.991	-582.1
3774.665	-584.1
3777.338	-587.1
3780.008	-586.1
3782.677	-585.1
3785.343	-577.1
3788.007	-582.1
3790.67	-588.1
3793.33	-593.1
3795.989	-591.1
3798.645	-591.1
3801.299	-597.1
3803.952	-597.1
3806.602	-606.1
3809.251	-602.1
3811.897	-600.1
3814.542	-599.1
3817.184	-598.1
3819.825	-592.1
3822.463	-592.1
3825.1	-603.1
3827.735	-595.1
3830.367	-594.1
3832.998	-609.1
3835.627	-609.1
3838.253	-608.1
3840.878	-612.1
3843.501	-613.1
3846.122	-604.1
3848.741	-610.1
3851.358	-607.1
3853.973	-608.1
3856.586	-612.1
3859.197	-616.1
3861.806	-617.1
3864.414	-608.1
3867.019	-613.1
3869.622	-607.1
3872.224	-605.1
3874.823	-592.1
3877.421	-578.1
3880.016	-570.1
3882.61	-551.1
3885.202	-539.1
3887.792	-550.1
3890.38	-579.1
3892.966	-599.1
3895.55	-610.1
3898.132	-625.1
3900.713	-623.1
3903.291	-620.1
3905.868	-621.1
3908.442	-623.1
3911.015	-627.1
3913.586	-621.1
3916.155	-619.1
3918.722	-632.1
3921.287	-618.1
3923.85	-626.1
3926.411	-626.1
3928.971	-630.1
3931.528	-620.1
3934.084	-626.1
3936.638	-626.1
3939.19	-626.1
3941.74	-623.1
3944.288	-626.1
3946.834	-622.1
3949.378	-626.1
3951.921	-623.1
3954.462	-627.1
3957	-626.1
3959.537	-628.1
3962.072	-624.1
3964.606	-627.1
3967.137	-627.1
3969.667	-632.1
3972.194	-619.1
3974.72	-625.1
3977.244	-610.1
3979.766	-613.1
3982.286	-618.1
3984.805	-618.1
3987.321	-613.1
3989.836	-614.1
3992.349	-608.1
3994.86	-605.1
3997.369	-614.1
3999.877	-607.1
4002.382	-611.1
4004.886	-611.1
4007.388	-605.1
4009.888	-611.1
4012.386	-613.1
4014.883	-611.1
4017.377	-613.1
4019.87	-608.1
4022.361	-612.1
4024.85	-617.1
4027.338	-617.1
4029.823	-611.1
4032.307	-617.1
4034.789	-612.1
4037.269	-609.1
4039.747	-620.1
4042.224	-615.1
4044.699	-615.1
4047.172	-615.1
4049.643	-613.1
4052.112	-621.1
4054.58	-621.1
4057.046	-618.1
4059.51	-618.1
4061.972	-618.1
4064.432	-622.1
4066.891	-616.1
4069.348	-615.1
4071.803	-610.1
4074.256	-608.1
4076.708	-612.1
4079.158	-614.1
4081.606	-614.1
4084.052	-622.1
4086.497	-616.1
4088.939	-618.1
4091.38	-616.1
4093.819	-616.1
4096.257	-644.1
4098.693	-646.1
4101.127	-648.1
4103.559	-645.1
4105.989	-372.1
4108.418	-355.1
4110.845	-326.1
4113.27	-301.1
4115.694	-268.1
4118.115	-219.1
4120.535	-615.1
4122.954	-615.1
4125.37	-607.1
4127.785	-614.1
4130.198	-619.1
4132.609	-615.1
4135.019	-646.1
4137.427	-647.1
4139.833	-648.1
4142.237	-645.1
