Data from 2018-2-14_conc=2_n=10_RamanShift_01.txt Node
Date: Wed Feb 14 11:32:56 IST 2018
User: aro
Spectrometer: QEPB0276
Trigger mode: 0
Integration Time (sec): 3.000000E1
Scans to average: 1
Electric dark correction enabled: true
Nonlinearity correction enabled: false
Boxcar width: 0
XAxis mode: Raman Shifts
Number of Pixels in Spectrum: 1044
>>>>>Begin Spectral Data<<<<<
160.701	-139.4
166.742	38.6
172.777	552.6
178.805	2159.6
184.826	5935.6
190.841	12354.6
196.849	19915.6
202.85	25269.6
208.845	27040.6
214.833	26666.6
220.815	26177.6
226.789	26051.6
232.758	25861.6
238.719	25640.6
244.674	25346.6
250.623	24853.6
256.565	24393.6
262.5	23860.6
268.429	23420.6
274.351	23049.6
280.267	22797.6
286.176	22524.6
292.079	22312.6
297.975	22013.6
303.865	21872.6
309.748	21708.6
315.625	21549.6
321.495	21413.6
327.359	21306.6
333.217	21261.6
339.068	21323.6
344.912	21327.6
350.751	21163.6
356.583	21187.6
362.408	21177.6
368.227	21219.6
374.04	21211.6
379.847	21312.6
385.647	21339.6
391.44	21355.6
397.228	21503.6
403.009	21684.6
408.784	21636.6
414.553	21718.6
420.315	21682.6
426.071	21823.6
431.821	21710.6
437.565	21778.6
443.302	21739.6
449.033	21618.6
454.758	21676.6
460.477	21596.6
466.189	21560.6
471.896	21459.6
477.596	21424.6
483.29	21372.6
488.978	21290.6
494.66	21251.6
500.335	21145.6
506.005	20901.6
511.668	20668.6
517.325	20431.6
522.977	20197.6
528.622	20088.6
534.261	19951.6
539.894	19816.6
545.521	19718.6
551.141	19651.6
556.756	19609.6
562.365	19542.6
567.968	19497.6
573.565	19389.6
579.155	19313.6
584.74	19235.6
590.319	19169.6
595.892	19095.6
601.459	19014.6
607.02	18913.6
612.575	18847.6
618.124	18744.6
623.667	18621.6
629.204	18566.6
634.735	18429.6
640.261	18366.6
645.781	18320.6
651.294	18263.6
656.802	18208.6
662.304	18182.6
667.8	18128.6
673.29	18118.6
678.775	18142.6
684.254	17979.6
689.726	18014.6
695.193	17866.6
700.655	17809.6
706.11	17758.6
711.56	17630.6
717.004	17567.6
722.442	17464.6
727.874	17393.6
733.301	17383.6
738.722	17319.6
744.137	17303.6
749.547	17291.6
754.951	17288.6
760.349	17249.6
765.741	17255.6
771.128	17273.6
776.509	17334.6
781.885	17352.6
787.254	17249.6
792.618	17120.6
797.977	17110.6
803.33	16961.6
808.677	16867.6
814.019	16749.6
819.355	16734.6
824.686	16623.6
830.011	16573.6
835.33	16551.6
840.644	16624.6
845.952	16590.6
851.255	16601.6
856.552	16661.6
861.844	16626.6
867.13	16572.6
872.41	16519.6
877.686	16404.6
882.955	16296.6
888.219	16125.6
893.478	15974.6
898.731	15819.6
903.979	15626.6
909.221	15463.6
914.458	15462.6
919.69	15462.6
924.916	15480.6
930.136	15566.6
935.351	15636.6
940.561	15567.6
945.766	15526.6
950.965	15487.6
956.158	15364.6
961.347	15174.6
966.529	14994.6
971.707	14805.6
976.879	14633.6
982.046	14536.6
987.208	14484.6
992.364	14485.6
997.515	14536.6
1002.66	14665.6
1007.801	14864.6
1012.936	14944.6
1018.066	14975.6
1023.19	14929.6
1028.309	14969.6
1033.423	14873.6
1038.532	14800.6
1043.636	14652.6
1048.734	14576.6
1053.827	14336.6
1058.915	14185.6
1063.998	14096.6
1069.075	14030.6
1074.147	14051.6
1079.214	14114.6
1084.276	14202.6
1089.333	14275.6
1094.385	14344.6
1099.431	14388.6
1104.472	14393.6
1109.509	14323.6
1114.54	14140.6
1119.565	13951.6
1124.586	13786.6
1129.602	13636.6
1134.613	13546.6
1139.618	13480.6
1144.619	13452.6
1149.614	13441.6
1154.604	13447.6
1159.589	13473.6
1164.57	13517.6
1169.545	13557.6
1174.515	13556.6
1179.48	13498.6
1184.44	13429.6
1189.395	13264.6
1194.345	13151.6
1199.29	13058.6
1204.23	13096.6
1209.165	13132.6
1214.095	13206.6
1219.021	13301.6
1223.941	13351.6
1228.856	13433.6
1233.766	13443.6
1238.672	13489.6
1243.572	13468.6
1248.467	13361.6
1253.358	13268.6
1258.244	13082.6
1263.124	12889.6
1268	12661.6
1272.871	12453.6
1277.737	12442.6
1282.599	12331.6
1287.455	12392.6
1292.306	12384.6
1297.153	12409.6
1301.995	12470.6
1306.832	12542.6
1311.664	12545.6
1316.491	12482.6
1321.314	12399.6
1326.132	12171.6
1330.945	11974.6
1335.753	11668.6
1340.556	11384.6
1345.354	11151.6
1350.148	10955.6
1354.937	10883.6
1359.722	10854.6
1364.501	10928.6
1369.276	10969.6
1374.046	11124.6
1378.811	11290.6
1383.572	11419.6
1388.327	11474.6
1393.079	11427.6
1397.825	11317.6
1402.567	11145.6
1407.304	10999.6
1412.036	10952.6
1416.764	10803.6
1421.487	10707.6
1426.205	10646.6
1430.919	10643.6
1435.628	10656.6
1440.333	10657.6
1445.032	10697.6
1449.727	10743.6
1454.418	10749.6
1459.104	10598.6
1463.785	10382.6
1468.462	10196.6
1473.134	9998.6
1477.802	9740.6
1482.465	9601.6
1487.123	9464.6
1491.777	9439.6
1496.426	9528.6
1501.071	9583.6
1505.711	9735.6
1510.347	9869.6
1514.978	10091.6
1519.604	10216.6
1524.226	10318.6
1528.844	10339.6
1533.457	10335.6
1538.065	10276.6
1542.669	10248.6
1547.269	10161.6
1551.864	10067.6
1556.454	10048.6
1561.041	10048.6
1565.622	10024.6
1570.199	10019.6
1574.772	10082.6
1579.34	10152.6
1583.904	10191.6
1588.464	10249.6
1593.019	10235.6
1597.569	10225.6
1602.115	10183.6
1606.657	10142.6
1611.195	10043.6
1615.728	9988.6
1620.256	9929.6
1624.78	9874.6
1629.3	9928.6
1633.816	9954.6
1638.327	9978.6
1642.834	10070.6
1647.336	10119.6
1651.834	10091.6
1656.328	10085.6
1660.817	10037.6
1665.302	9919.6
1669.783	9792.6
1674.259	9530.6
1678.732	9226.6
1683.199	8989.6
1687.663	8687.6
1692.122	8389.6
1696.577	8222.6
1701.028	8175.6
1705.474	8221.6
1709.917	8338.6
1714.355	8411.6
1718.788	8372.6
1723.218	8255.6
1727.643	8079.6
1732.064	7909.6
1736.481	7769.6
1740.893	7566.6
1745.301	7337.6
1749.705	7175.6
1754.105	6954.6
1758.501	6784.6
1762.893	6568.6
1767.28	6404.6
1771.663	6257.6
1776.042	6146.6
1780.417	6051.6
1784.787	5996.6
1789.154	6082.6
1793.516	6174.6
1797.874	6303.6
1802.228	6417.6
1806.578	6536.6
1810.924	6558.6
1815.266	6524.6
1819.603	6398.6
1823.937	6315.6
1828.266	6235.6
1832.591	6105.6
1836.913	6000.6
1841.23	5956.6
1845.543	5929.6
1849.852	5874.6
1854.156	5892.6
1858.457	5835.6
1862.754	5858.6
1867.047	5834.6
1871.335	5794.6
1875.62	5837.6
1879.9	5779.6
1884.177	5740.6
1888.449	5714.6
1892.718	5628.6
1896.982	5589.6
1901.243	5517.6
1905.499	5471.6
1909.752	5408.6
1914	5430.6
1918.245	5458.6
1922.485	5495.6
1926.722	5557.6
1930.954	5610.6
1935.183	5687.6
1939.408	5762.6
1943.628	5784.6
1947.845	5844.6
1952.058	5805.6
1956.267	5767.6
1960.472	5671.6
1964.673	5616.6
1968.87	5520.6
1973.063	5430.6
1977.252	5367.6
1981.438	5306.6
1985.619	5289.6
1989.797	5217.6
1993.971	5169.6
1998.14	5182.6
2002.306	5151.6
2006.469	5103.6
2010.627	5063.6
2014.781	5074.6
2018.932	5029.6
2023.078	4968.6
2027.221	4914.6
2031.36	4794.6
2035.495	4745.6
2039.627	4676.6
2043.754	4607.6
2047.878	4580.6
2051.998	4504.6
2056.114	4470.6
2060.226	4525.6
2064.334	4497.6
2068.439	4535.6
2072.54	4545.6
2076.637	4560.6
2080.73	4607.6
2084.82	4639.6
2088.906	4658.6
2092.988	4678.6
2097.066	4650.6
2101.14	4629.6
2105.211	4614.6
2109.278	4585.6
2113.342	4546.6
2117.401	4548.6
2121.457	4496.6
2125.509	4471.6
2129.558	4447.6
2133.602	4447.6
2137.643	4406.6
2141.681	4394.6
2145.714	4362.6
2149.744	4315.6
2153.77	4300.6
2157.793	4257.6
2161.812	4195.6
2165.827	4153.6
2169.838	4069.6
2173.846	4037.6
2177.851	3939.6
2181.851	3897.6
2185.848	3857.6
2189.841	3788.6
2193.831	3773.6
2197.817	3742.6
2201.799	3743.6
2205.778	3702.6
2209.753	3689.6
2213.725	3648.6
2217.693	3672.6
2221.657	3660.6
2225.618	3649.6
2229.575	3642.6
2233.529	3606.6
2237.479	3573.6
2241.425	3532.6
2245.368	3451.6
2249.307	3427.6
2253.243	3386.6
2257.175	3331.6
2261.104	3273.6
2265.029	3257.6
2268.95	3233.6
2272.868	3180.6
2276.783	3141.6
2280.694	3091.6
2284.601	3078.6
2288.505	3070.6
2292.405	3027.6
2296.302	2985.6
2300.195	2967.6
2304.085	2938.6
2307.971	2912.6
2311.854	2846.6
2315.734	2796.6
2319.609	2761.6
2323.482	2715.6
2327.351	2714.6
2331.216	2683.6
2335.078	2664.6
2338.937	2659.6
2342.792	2664.6
2346.643	2647.6
2350.492	2637.6
2354.336	2645.6
2358.178	2646.6
2362.015	2655.6
2365.85	2646.6
2369.681	2676.6
2373.508	2692.6
2377.333	2663.6
2381.153	2660.6
2384.971	2658.6
2388.785	2639.6
2392.595	2609.6
2396.402	2586.6
2400.206	2561.6
2404.007	2548.6
2407.804	2537.6
2411.597	2516.6
2415.388	2486.6
2419.174	2470.6
2422.958	2475.6
2426.738	2440.6
2430.515	2428.6
2434.289	2403.6
2438.059	2399.6
2441.825	2387.6
2445.589	2360.6
2449.349	2323.6
2453.106	2295.6
2456.859	2278.6
2460.61	2256.6
2464.356	2214.6
2468.1	2214.6
2471.84	2178.6
2475.577	2155.6
2479.311	2152.6
2483.041	2128.6
2486.768	2099.6
2490.492	2098.6
2494.213	2100.6
2497.93	2084.6
2501.644	2068.6
2505.355	2062.6
2509.062	2057.6
2512.766	2043.6
2516.467	2034.6
2520.165	2029.6
2523.859	2008.6
2527.551	1995.6
2531.239	1992.6
2534.923	1982.6
2538.605	1964.6
2542.283	1944.6
2545.958	1939.6
2549.63	1940.6
2553.299	1924.6
2556.964	1938.6
2560.626	1941.6
2564.285	1923.6
2567.941	1937.6
2571.594	1920.6
2575.243	1898.6
2578.89	1867.6
2582.533	1865.6
2586.173	1841.6
2589.809	1833.6
2593.443	1837.6
2597.073	1805.6
2600.701	1800.6
2604.325	1773.6
2607.946	1764.6
2611.564	1760.6
2615.178	1755.6
2618.79	1731.6
2622.398	1724.6
2626.004	1705.6
2629.606	1679.6
2633.205	1663.6
2636.801	1628.6
2640.394	1604.6
2643.983	1576.6
2647.57	1567.6
2651.153	1553.6
2654.734	1508.6
2658.311	1502.6
2661.885	1463.6
2665.456	1466.6
2669.025	1449.6
2672.589	1400.6
2676.151	1401.6
2679.71	1388.6
2683.266	1359.6
2686.819	1336.6
2690.368	1335.6
2693.915	1291.6
2697.458	1266.6
2700.999	1242.6
2704.536	1207.6
2708.071	1179.6
2711.602	1149.6
2715.13	1131.6
2718.656	1087.6
2722.178	1072.6
2725.697	1072.6
2729.214	1074.6
2732.727	1029.6
2736.237	1026.6
2739.744	1024.6
2743.249	1035.6
2746.75	1052.6
2750.248	1043.6
2753.743	1062.6
2757.236	1075.6
2760.725	1079.6
2764.211	1090.6
2767.695	1087.6
2771.175	1107.6
2774.652	1078.6
2778.127	1096.6
2781.598	1090.6
2785.067	1084.6
2788.532	1075.6
2791.995	1060.6
2795.455	1070.6
2798.911	1059.6
2802.365	1074.6
2805.816	1076.6
2809.264	1061.6
2812.709	1077.6
2816.151	1061.6
2819.59	1078.6
2823.026	1067.6
2826.46	1079.6
2829.89	1078.6
2833.318	1079.6
2836.742	1081.6
2840.164	1082.6
2843.583	1087.6
2846.999	1113.6
2850.412	1126.6
2853.822	1131.6
2857.229	1149.6
2860.634	1158.6
2864.035	1174.6
2867.434	1192.6
2870.83	1220.6
2874.223	1249.6
2877.613	1261.6
2881	1279.6
2884.385	1269.6
2887.766	1288.6
2891.145	1263.6
2894.521	1272.6
2897.894	1285.6
2901.264	1272.6
2904.631	1266.6
2907.996	1270.6
2911.358	1289.6
2914.717	1271.6
2918.073	1297.6
2921.426	1320.6
2924.777	1316.6
2928.124	1353.6
2931.469	1364.6
2934.811	1372.6
2938.15	1393.6
2941.487	1427.6
2944.821	1411.6
2948.152	1430.6
2951.48	1392.6
2954.805	1392.6
2958.128	1360.6
2961.447	1376.6
2964.765	1353.6
2968.079	1380.6
2971.39	1376.6
2974.699	1401.6
2978.005	1423.6
2981.308	1441.6
2984.609	1460.6
2987.907	1489.6
2991.202	1524.6
2994.494	1547.6
2997.784	1582.6
3001.07	1610.6
3004.355	1648.6
3007.636	1658.6
3010.915	1672.6
3014.191	1677.6
3017.464	1699.6
3020.734	1705.6
3024.002	1721.6
3027.267	1766.6
3030.53	1746.6
3033.789	1768.6
3037.046	1794.6
3040.301	1825.6
3043.552	1836.6
3046.801	1889.6
3050.048	1928.6
3053.291	1991.6
3056.532	2036.6
3059.771	2086.6
3063.006	2137.6
3066.239	2200.6
3069.469	2268.6
3072.697	2327.6
3075.922	2382.6
3079.144	2434.6
3082.364	2499.6
3085.581	2561.6
3088.795	2601.6
3092.007	2662.6
3095.216	2706.6
3098.423	2766.6
3101.627	2861.6
3104.828	2888.6
3108.026	2958.6
3111.222	3031.6
3114.416	3080.6
3117.607	3146.6
3120.795	3225.6
3123.98	3318.6
3127.163	3395.6
3130.344	3482.6
3133.521	3565.6
3136.696	3619.6
3139.869	3718.6
3143.039	3768.6
3146.206	3802.6
3149.371	3887.6
3152.533	3905.6
3155.693	3904.6
3158.85	3954.6
3162.005	3979.6
3165.157	3952.6
3168.306	3996.6
3171.453	4005.6
3174.597	4006.6
3177.739	3998.6
3180.878	4013.6
3184.014	4030.6
3187.149	4024.6
3190.28	4040.6
3193.409	4023.6
3196.536	4060.6
3199.659	4050.6
3202.781	4080.6
3205.9	4055.6
3209.016	4015.6
3212.13	3991.6
3215.241	4023.6
3218.35	3960.6
3221.456	3910.6
3224.56	3850.6
3227.661	3830.6
3230.76	3768.6
3233.856	3764.6
3236.95	3711.6
3240.041	3689.6
3243.13	3658.6
3246.216	3671.6
3249.3	3595.6
3252.382	3606.6
3255.46	3598.6
3258.537	3587.6
3261.611	3600.6
3264.682	3597.6
3267.751	3570.6
3270.818	3573.6
3273.882	3563.6
3276.943	3523.6
3280.002	3502.6
3283.059	3482.6
3286.113	3471.6
3289.165	3389.6
3292.214	3351.6
3295.261	3308.6
3298.306	3243.6
3301.348	3202.6
3304.387	3119.6
3307.425	3090.6
3310.459	3029.6
3313.492	2987.6
3316.521	2980.6
3319.549	2921.6
3322.574	2913.6
3325.597	2872.6
3328.617	2854.6
3331.635	2818.6
3334.65	2830.6
3337.663	2788.6
3340.674	2792.6
3343.682	2756.6
3346.688	2774.6
3349.691	2746.6
3352.692	2748.6
3355.691	2730.6
3358.687	2685.6
3361.681	2662.6
3364.673	2605.6
3367.662	2600.6
3370.649	2540.6
3373.633	2542.6
3376.615	2485.6
3379.595	2445.6
3382.572	2404.6
3385.547	2374.6
3388.52	2360.6
3391.49	2287.6
3394.458	2262.6
3397.424	2240.6
3400.387	2217.6
3403.348	2183.6
3406.307	2172.6
3409.263	2145.6
3412.217	2121.6
3415.168	2068.6
3418.118	2055.6
3421.065	2036.6
3424.009	2003.6
3426.951	1978.6
3429.891	1968.6
3432.829	1917.6
3435.764	1859.6
3438.697	1806.6
3441.628	1771.6
3444.557	1716.6
3447.483	1644.6
3450.407	1626.6
3453.328	1566.6
3456.247	1523.6
3459.164	1460.6
3462.079	1392.6
3464.991	1349.6
3467.902	1318.6
3470.809	1252.6
3473.715	1207.6
3476.618	1184.6
3479.519	1119.6
3482.418	1094.6
3485.315	1056.6
3488.209	1004.6
3491.101	984.6
3493.99	950.6
3496.878	909.6
3499.763	875.6
3502.646	845.6
3505.527	823.6
3508.405	765.6
3511.281	717.6
3514.155	688.6
3517.027	644.6
3519.897	599.6
3522.764	558.6
3525.629	535.6
3528.492	486.6
3531.352	439.6
3534.211	393.6
3537.067	363.6
3539.921	327.6
3542.773	303.6
3545.622	269.6
3548.469	233.6
3551.315	196.6
3554.157	192.6
3556.998	140.6
3559.837	137.6
3562.673	115.6
3565.507	80.6
3568.339	67.6
3571.169	45.6
3573.996	15.6
3576.822	-6.4
3579.645	-21.4
3582.466	-43.4
3585.285	-58.4
3588.101	-81.4
3590.916	-105.4
3593.728	-120.4
3596.538	-136.4
3599.346	-153.4
3602.152	-178.4
3604.956	-186.4
3607.757	-201.4
3610.556	-220.4
3613.354	-229.4
3616.149	-251.4
3618.942	-256.4
3621.732	-274.4
3624.521	-282.4
3627.307	-295.4
3630.092	-304.4
3632.874	-318.4
3635.654	-325.4
3638.432	-325.4
3641.208	-343.4
3643.982	-350.4
3646.753	-357.4
3649.523	-371.4
3652.29	-378.4
3655.055	-384.4
3657.818	-388.4
3660.579	-398.4
3663.338	-416.4
3666.095	-417.4
3668.849	-431.4
3671.602	-442.4
3674.352	-447.4
3677.101	-453.4
3679.847	-471.4
3682.591	-477.4
3685.333	-481.4
3688.073	-476.4
3690.811	-491.4
3693.547	-494.4
3696.281	-493.4
3699.013	-501.4
3701.742	-504.4
3704.47	-508.4
3707.195	-519.4
3709.919	-520.4
3712.64	-522.4
3715.359	-521.4
3718.076	-530.4
3720.792	-531.4
3723.505	-533.4
3726.216	-550.4
3728.925	-544.4
3731.632	-549.4
3734.336	-551.4
3737.039	-552.4
3739.74	-549.4
3742.439	-553.4
3745.136	-560.4
3747.83	-564.4
3750.523	-564.4
3753.213	-542.4
3755.902	-569.4
3758.589	-568.4
3761.273	-566.4
3763.956	-579.4
3766.636	-583.4
3769.315	-581.4
3771.991	-579.4
3774.665	-585.4
3777.338	-586.4
3780.008	-584.4
3782.677	-590.4
3785.343	-587.4
3788.007	-591.4
3790.67	-586.4
3793.33	-590.4
3795.989	-590.4
3798.645	-585.4
3801.299	-587.4
3803.952	-601.4
3806.602	-604.4
3809.251	-598.4
3811.897	-601.4
3814.542	-601.4
3817.184	-602.4
3819.825	-599.4
3822.463	-599.4
3825.1	-605.4
3827.735	-595.4
3830.367	-604.4
3832.998	-608.4
3835.627	-609.4
3838.253	-608.4
3840.878	-617.4
3843.501	-613.4
3846.122	-606.4
3848.741	-603.4
3851.358	-610.4
3853.973	-608.4
3856.586	-607.4
3859.197	-612.4
3861.806	-617.4
3864.414	-613.4
3867.019	-613.4
3869.622	-609.4
3872.224	-609.4
3874.823	-599.4
3877.421	-584.4
3880.016	-569.4
3882.61	-557.4
3885.202	-539.4
3887.792	-553.4
3890.38	-584.4
3892.966	-603.4
3895.55	-611.4
3898.132	-625.4
3900.713	-629.4
3903.291	-622.4
3905.868	-626.4
3908.442	-630.4
3911.015	-632.4
3913.586	-626.4
3916.155	-622.4
3918.722	-628.4
3921.287	-627.4
3923.85	-634.4
3926.411	-630.4
3928.971	-634.4
3931.528	-631.4
3934.084	-633.4
3936.638	-628.4
3939.19	-629.4
3941.74	-626.4
3944.288	-631.4
3946.834	-624.4
3949.378	-631.4
3951.921	-631.4
3954.462	-639.4
3957	-632.4
3959.537	-631.4
3962.072	-627.4
3964.606	-628.4
3967.137	-628.4
3969.667	-633.4
3972.194	-622.4
3974.72	-621.4
3977.244	-616.4
3979.766	-613.4
3982.286	-620.4
3984.805	-619.4
3987.321	-613.4
3989.836	-621.4
3992.349	-608.4
3994.86	-613.4
3997.369	-624.4
3999.877	-614.4
4002.382	-618.4
4004.886	-615.4
4007.388	-601.4
4009.888	-597.4
4012.386	-615.4
4014.883	-608.4
4017.377	-609.4
4019.87	-608.4
4022.361	-612.4
4024.85	-616.4
4027.338	-617.4
4029.823	-619.4
4032.307	-603.4
4034.789	-540.4
4037.269	-488.4
4039.747	-530.4
4042.224	-619.4
4044.699	-615.4
4047.172	-620.4
4049.643	-616.4
4052.112	-623.4
4054.58	-623.4
4057.046	-622.4
4059.51	-628.4
4061.972	-621.4
4064.432	-625.4
4066.891	-618.4
4069.348	-614.4
4071.803	-613.4
4074.256	-620.4
4076.708	-618.4
4079.158	-620.4
4081.606	-625.4
4084.052	-625.4
4086.497	-620.4
4088.939	-613.4
4091.38	-615.4
4093.819	-608.4
4096.257	-649.4
4098.693	-651.4
4101.127	-654.4
4103.559	-651.4
4105.989	-380.4
4108.418	-356.4
4110.845	-333.4
4113.27	-305.4
4115.694	-274.4
4118.115	-224.4
4120.535	-615.4
4122.954	-618.4
4125.37	-613.4
4127.785	-614.4
4130.198	-620.4
4132.609	-620.4
4135.019	-649.4
4137.427	-656.4
4139.833	-654.4
4142.237	-651.4
