Data from 2018-2-14_conc=4_n=10_RamanShift_05.txt Node
Date: Wed Feb 14 14:01:55 IST 2018
User: aro
Spectrometer: QEPB0276
Trigger mode: 0
Integration Time (sec): 3.000000E1
Scans to average: 1
Electric dark correction enabled: true
Nonlinearity correction enabled: false
Boxcar width: 0
XAxis mode: Raman Shifts
Number of Pixels in Spectrum: 1044
>>>>>Begin Spectral Data<<<<<
160.701	-110.6
166.742	39.4
172.777	440.4
178.805	1642.4
184.826	4481.4
190.841	9340.4
196.849	14893.4
202.85	18847.4
208.845	20122.4
214.833	19985.4
220.815	19633.4
226.789	19571.4
232.758	19434.4
238.719	19358.4
244.674	19176.4
250.623	18825.4
256.565	18474.4
262.5	18137.4
268.429	17800.4
274.351	17588.4
280.267	17323.4
286.176	17253.4
292.079	17088.4
297.975	16987.4
303.865	16845.4
309.748	16737.4
315.625	16624.4
321.495	16553.4
327.359	16519.4
333.217	16499.4
339.068	16501.4
344.912	16484.4
350.751	16444.4
356.583	16459.4
362.408	16400.4
368.227	16347.4
374.04	16422.4
379.847	16505.4
385.647	16527.4
391.44	16519.4
397.228	16588.4
403.009	16719.4
408.784	16754.4
414.553	16817.4
420.315	16856.4
426.071	16889.4
431.821	16825.4
437.565	16876.4
443.302	16867.4
449.033	16790.4
454.758	16749.4
460.477	16751.4
466.189	16701.4
471.896	16656.4
477.596	16605.4
483.29	16546.4
488.978	16552.4
494.66	16447.4
500.335	16359.4
506.005	16211.4
511.668	15972.4
517.325	15759.4
522.977	15684.4
528.622	15556.4
534.261	15437.4
539.894	15369.4
545.521	15336.4
551.141	15186.4
556.756	15199.4
562.365	15125.4
567.968	15064.4
573.565	15016.4
579.155	14960.4
584.74	14910.4
590.319	14866.4
595.892	14770.4
601.459	14797.4
607.02	14668.4
612.575	14590.4
618.124	14488.4
623.667	14367.4
629.204	14320.4
634.735	14287.4
640.261	14247.4
645.781	14162.4
651.294	14182.4
656.802	14148.4
662.304	14159.4
667.8	14123.4
673.29	14076.4
678.775	14040.4
684.254	14020.4
689.726	13930.4
695.193	13915.4
700.655	13855.4
706.11	13796.4
711.56	13674.4
717.004	13642.4
722.442	13558.4
727.874	13532.4
733.301	13453.4
738.722	13439.4
744.137	13430.4
749.547	13437.4
754.951	13456.4
760.349	13425.4
765.741	13412.4
771.128	13441.4
776.509	13439.4
781.885	13455.4
787.254	13440.4
792.618	13378.4
797.977	13296.4
803.33	13214.4
808.677	13120.4
814.019	13053.4
819.355	12963.4
824.686	12936.4
830.011	12921.4
835.33	12952.4
840.644	12874.4
845.952	12931.4
851.255	12960.4
856.552	12985.4
861.844	12998.4
867.13	12930.4
872.41	12890.4
877.686	12755.4
882.955	12771.4
888.219	12646.4
893.478	12484.4
898.731	12338.4
903.979	12184.4
909.221	12111.4
914.458	12095.4
919.69	12057.4
924.916	12113.4
930.136	12152.4
935.351	12213.4
940.561	12158.4
945.766	12142.4
950.965	12096.4
956.158	11997.4
961.347	11874.4
966.529	11764.4
971.707	11573.4
976.879	11514.4
982.046	11383.4
987.208	11317.4
992.364	11344.4
997.515	11444.4
1002.66	11494.4
1007.801	11555.4
1012.936	11690.4
1018.066	11713.4
1023.19	11744.4
1028.309	11692.4
1033.423	11702.4
1038.532	11606.4
1043.636	11538.4
1048.734	11385.4
1053.827	11263.4
1058.915	11140.4
1063.998	11057.4
1069.075	11026.4
1074.147	11008.4
1079.214	11018.4
1084.276	11116.4
1089.333	11188.4
1094.385	11269.4
1099.431	11283.4
1104.472	11273.4
1109.509	11235.4
1114.54	11066.4
1119.565	10933.4
1124.586	10802.4
1129.602	10692.4
1134.613	10621.4
1139.618	10518.4
1144.619	10555.4
1149.614	10532.4
1154.604	10550.4
1159.589	10595.4
1164.57	10598.4
1169.545	10611.4
1174.515	10609.4
1179.48	10618.4
1184.44	10507.4
1189.395	10414.4
1194.345	10386.4
1199.29	10329.4
1204.23	10302.4
1209.165	10337.4
1214.095	10394.4
1219.021	10475.4
1223.941	10448.4
1228.856	10546.4
1233.766	10575.4
1238.672	10594.4
1243.572	10573.4
1248.467	10515.4
1253.358	10393.4
1258.244	10253.4
1263.124	10112.4
1268	9997.4
1272.871	9811.4
1277.737	9754.4
1282.599	9687.4
1287.455	9733.4
1292.306	9777.4
1297.153	9745.4
1301.995	9800.4
1306.832	9817.4
1311.664	9864.4
1316.491	9826.4
1321.314	9736.4
1326.132	9612.4
1330.945	9382.4
1335.753	9230.4
1340.556	8963.4
1345.354	8806.4
1350.148	8645.4
1354.937	8583.4
1359.722	8566.4
1364.501	8624.4
1369.276	8679.4
1374.046	8773.4
1378.811	8928.4
1383.572	8974.4
1388.327	8999.4
1393.079	8963.4
1397.825	8855.4
1402.567	8737.4
1407.304	8629.4
1412.036	8534.4
1416.764	8497.4
1421.487	8437.4
1426.205	8434.4
1430.919	8344.4
1435.628	8368.4
1440.333	8376.4
1445.032	8420.4
1449.727	8452.4
1454.418	8442.4
1459.104	8335.4
1463.785	8180.4
1468.462	8037.4
1473.134	7883.4
1477.802	7748.4
1482.465	7584.4
1487.123	7500.4
1491.777	7496.4
1496.426	7510.4
1501.071	7567.4
1505.711	7713.4
1510.347	7854.4
1514.978	7936.4
1519.604	8040.4
1524.226	8098.4
1528.844	8138.4
1533.457	8146.4
1538.065	8099.4
1542.669	8045.4
1547.269	7960.4
1551.864	7910.4
1556.454	7887.4
1561.041	7870.4
1565.622	7862.4
1570.199	7845.4
1574.772	7899.4
1579.34	7928.4
1583.904	8004.4
1588.464	8006.4
1593.019	8010.4
1597.569	7996.4
1602.115	7949.4
1606.657	7906.4
1611.195	7817.4
1615.728	7777.4
1620.256	7744.4
1624.78	7713.4
1629.3	7691.4
1633.816	7781.4
1638.327	7797.4
1642.834	7839.4
1647.336	7841.4
1651.834	7868.4
1656.328	7853.4
1660.817	7813.4
1665.302	7760.4
1669.783	7630.4
1674.259	7460.4
1678.732	7273.4
1683.199	7000.4
1687.663	6824.4
1692.122	6593.4
1696.577	6535.4
1701.028	6466.4
1705.474	6482.4
1709.917	6579.4
1714.355	6606.4
1718.788	6585.4
1723.218	6475.4
1727.643	6393.4
1732.064	6276.4
1736.481	6119.4
1740.893	5976.4
1745.301	5865.4
1749.705	5714.4
1754.105	5508.4
1758.501	5371.4
1762.893	5238.4
1767.28	5086.4
1771.663	4993.4
1776.042	4897.4
1780.417	4831.4
1784.787	4854.4
1789.154	4868.4
1793.516	4946.4
1797.874	5014.4
1802.228	5114.4
1806.578	5172.4
1810.924	5204.4
1815.266	5151.4
1819.603	5067.4
1823.937	5003.4
1828.266	4926.4
1832.591	4846.4
1836.913	4793.4
1841.23	4711.4
1845.543	4690.4
1849.852	4675.4
1854.156	4675.4
1858.457	4651.4
1862.754	4653.4
1867.047	4647.4
1871.335	4644.4
1875.62	4627.4
1879.9	4603.4
1884.177	4604.4
1888.449	4545.4
1892.718	4494.4
1896.982	4463.4
1901.243	4408.4
1905.499	4382.4
1909.752	4345.4
1914	4364.4
1918.245	4388.4
1922.485	4395.4
1926.722	4456.4
1930.954	4506.4
1935.183	4561.4
1939.408	4608.4
1943.628	4606.4
1947.845	4617.4
1952.058	4625.4
1956.267	4584.4
1960.472	4541.4
1964.673	4449.4
1968.87	4370.4
1973.063	4306.4
1977.252	4243.4
1981.438	4200.4
1985.619	4179.4
1989.797	4121.4
1993.971	4096.4
1998.14	4058.4
2002.306	4032.4
2006.469	3997.4
2010.627	3998.4
2014.781	3955.4
2018.932	3951.4
2023.078	3924.4
2027.221	3845.4
2031.36	3815.4
2035.495	3740.4
2039.627	3694.4
2043.754	3642.4
2047.878	3608.4
2051.998	3599.4
2056.114	3557.4
2060.226	3568.4
2064.334	3549.4
2068.439	3584.4
2072.54	3597.4
2076.637	3641.4
2080.73	3654.4
2084.82	3677.4
2088.906	3680.4
2092.988	3712.4
2097.066	3664.4
2101.14	3645.4
2105.211	3629.4
2109.278	3598.4
2113.342	3580.4
2117.401	3566.4
2121.457	3584.4
2125.509	3528.4
2129.558	3503.4
2133.602	3475.4
2137.643	3448.4
2141.681	3446.4
2145.714	3433.4
2149.744	3405.4
2153.77	3392.4
2157.793	3333.4
2161.812	3316.4
2165.827	3267.4
2169.838	3191.4
2173.846	3131.4
2177.851	3116.4
2181.851	3039.4
2185.848	3028.4
2189.841	2993.4
2193.831	2970.4
2197.817	2917.4
2201.799	2924.4
2205.778	2902.4
2209.753	2879.4
2213.725	2896.4
2217.693	2884.4
2221.657	2883.4
2225.618	2852.4
2229.575	2841.4
2233.529	2795.4
2237.479	2771.4
2241.425	2743.4
2245.368	2712.4
2249.307	2682.4
2253.243	2659.4
2257.175	2608.4
2261.104	2571.4
2265.029	2558.4
2268.95	2515.4
2272.868	2486.4
2276.783	2475.4
2280.694	2426.4
2284.601	2417.4
2288.505	2408.4
2292.405	2385.4
2296.302	2329.4
2300.195	2315.4
2304.085	2288.4
2307.971	2272.4
2311.854	2224.4
2315.734	2214.4
2319.609	2180.4
2323.482	2153.4
2327.351	2121.4
2331.216	2128.4
2335.078	2103.4
2338.937	2081.4
2342.792	2059.4
2346.643	2071.4
2350.492	2084.4
2354.336	2087.4
2358.178	2100.4
2362.015	2111.4
2365.85	2110.4
2369.681	2083.4
2373.508	2113.4
2377.333	2097.4
2381.153	2080.4
2384.971	2096.4
2388.785	2074.4
2392.595	2052.4
2396.402	2038.4
2400.206	2005.4
2404.007	2024.4
2407.804	1997.4
2411.597	1995.4
2415.388	1970.4
2419.174	1965.4
2422.958	1940.4
2426.738	1933.4
2430.515	1916.4
2434.289	1905.4
2438.059	1886.4
2441.825	1879.4
2445.589	1871.4
2449.349	1846.4
2453.106	1794.4
2456.859	1792.4
2460.61	1774.4
2464.356	1753.4
2468.1	1747.4
2471.84	1726.4
2475.577	1704.4
2479.311	1686.4
2483.041	1685.4
2486.768	1658.4
2490.492	1661.4
2494.213	1690.4
2497.93	1655.4
2501.644	1648.4
2505.355	1643.4
2509.062	1634.4
2512.766	1624.4
2516.467	1611.4
2520.165	1589.4
2523.859	1568.4
2527.551	1576.4
2531.239	1576.4
2534.923	1551.4
2538.605	1572.4
2542.283	1559.4
2545.958	1537.4
2549.63	1552.4
2553.299	1531.4
2556.964	1532.4
2560.626	1511.4
2564.285	1511.4
2567.941	1502.4
2571.594	1509.4
2575.243	1498.4
2578.89	1476.4
2582.533	1462.4
2586.173	1453.4
2589.809	1442.4
2593.443	1446.4
2597.073	1417.4
2600.701	1418.4
2604.325	1406.4
2607.946	1382.4
2611.564	1379.4
2615.178	1386.4
2618.79	1391.4
2622.398	1348.4
2626.004	1333.4
2629.606	1326.4
2633.205	1296.4
2636.801	1294.4
2640.394	1262.4
2643.983	1236.4
2647.57	1223.4
2651.153	1239.4
2654.734	1199.4
2658.311	1173.4
2661.885	1159.4
2665.456	1146.4
2669.025	1139.4
2672.589	1118.4
2676.151	1081.4
2679.71	1091.4
2683.266	1055.4
2686.819	1058.4
2690.368	1028.4
2693.915	1007.4
2697.458	1002.4
2700.999	969.4
2704.536	950.4
2708.071	935.4
2711.602	924.4
2715.13	869.4
2718.656	861.4
2722.178	846.4
2725.697	842.4
2729.214	838.4
2732.727	833.4
2736.237	810.4
2739.744	809.4
2743.249	812.4
2746.75	836.4
2750.248	813.4
2753.743	805.4
2757.236	841.4
2760.725	837.4
2764.211	848.4
2767.695	848.4
2771.175	837.4
2774.652	852.4
2778.127	838.4
2781.598	827.4
2785.067	814.4
2788.532	843.4
2791.995	819.4
2795.455	821.4
2798.911	827.4
2802.365	842.4
2805.816	834.4
2809.264	833.4
2812.709	825.4
2816.151	829.4
2819.59	833.4
2823.026	828.4
2826.46	834.4
2829.89	839.4
2833.318	832.4
2836.742	822.4
2840.164	846.4
2843.583	853.4
2846.999	852.4
2850.412	860.4
2853.822	873.4
2857.229	882.4
2860.634	897.4
2864.035	895.4
2867.434	923.4
2870.83	920.4
2874.223	930.4
2877.613	957.4
2881	988.4
2884.385	975.4
2887.766	966.4
2891.145	954.4
2894.521	953.4
2897.894	973.4
2901.264	939.4
2904.631	957.4
2907.996	954.4
2911.358	944.4
2914.717	978.4
2918.073	981.4
2921.426	980.4
2924.777	972.4
2928.124	979.4
2931.469	1000.4
2934.811	1019.4
2938.15	1022.4
2941.487	1020.4
2944.821	1045.4
2948.152	1031.4
2951.48	1040.4
2954.805	1011.4
2958.128	993.4
2961.447	1000.4
2964.765	1000.4
2968.079	998.4
2971.39	1015.4
2974.699	1028.4
2978.005	1011.4
2981.308	1043.4
2984.609	1073.4
2987.907	1089.4
2991.202	1090.4
2994.494	1129.4
2997.784	1159.4
3001.07	1174.4
3004.355	1178.4
3007.636	1209.4
3010.915	1221.4
3014.191	1224.4
3017.464	1215.4
3020.734	1234.4
3024.002	1242.4
3027.267	1236.4
3030.53	1251.4
3033.789	1255.4
3037.046	1292.4
3040.301	1305.4
3043.552	1314.4
3046.801	1357.4
3050.048	1369.4
3053.291	1409.4
3056.532	1459.4
3059.771	1471.4
3063.006	1527.4
3066.239	1588.4
3069.469	1642.4
3072.697	1656.4
3075.922	1698.4
3079.144	1745.4
3082.364	1780.4
3085.581	1801.4
3088.795	1855.4
3092.007	1896.4
3095.216	1935.4
3098.423	1974.4
3101.627	2019.4
3104.828	2044.4
3108.026	2095.4
3111.222	2156.4
3114.416	2204.4
3117.607	2241.4
3120.795	2299.4
3123.98	2357.4
3127.163	2399.4
3130.344	2446.4
3133.521	2527.4
3136.696	2577.4
3139.869	2618.4
3143.039	2665.4
3146.206	2729.4
3149.371	2741.4
3152.533	2780.4
3155.693	2789.4
3158.85	2795.4
3162.005	2799.4
3165.157	2812.4
3168.306	2831.4
3171.453	2823.4
3174.597	2824.4
3177.739	2852.4
3180.878	2846.4
3184.014	2835.4
3187.149	2835.4
3190.28	2842.4
3193.409	2823.4
3196.536	2842.4
3199.659	2871.4
3202.781	2863.4
3205.9	2854.4
3209.016	2863.4
3212.13	2843.4
3215.241	2823.4
3218.35	2803.4
3221.456	2778.4
3224.56	2737.4
3227.661	2704.4
3230.76	2693.4
3233.856	2668.4
3236.95	2631.4
3240.041	2614.4
3243.13	2616.4
3246.216	2627.4
3249.3	2566.4
3252.382	2569.4
3255.46	2553.4
3258.537	2514.4
3261.611	2550.4
3264.682	2550.4
3267.751	2546.4
3270.818	2544.4
3273.882	2551.4
3276.943	2516.4
3280.002	2506.4
3283.059	2487.4
3286.113	2442.4
3289.165	2398.4
3292.214	2390.4
3295.261	2340.4
3298.306	2278.4
3301.348	2254.4
3304.387	2206.4
3307.425	2185.4
3310.459	2130.4
3313.492	2114.4
3316.521	2060.4
3319.549	2050.4
3322.574	2043.4
3325.597	2015.4
3328.617	1994.4
3331.635	1988.4
3334.65	1983.4
3337.663	1959.4
3340.674	1948.4
3343.682	1948.4
3346.688	1954.4
3349.691	1925.4
3352.692	1926.4
3355.691	1906.4
3358.687	1901.4
3361.681	1877.4
3364.673	1836.4
3367.662	1812.4
3370.649	1768.4
3373.633	1753.4
3376.615	1728.4
3379.595	1711.4
3382.572	1703.4
3385.547	1679.4
3388.52	1641.4
3391.49	1619.4
3394.458	1581.4
3397.424	1577.4
3400.387	1556.4
3403.348	1530.4
3406.307	1519.4
3409.263	1494.4
3412.217	1487.4
3415.168	1473.4
3418.118	1454.4
3421.065	1409.4
3424.009	1393.4
3426.951	1400.4
3429.891	1359.4
3432.829	1334.4
3435.764	1299.4
3438.697	1287.4
3441.628	1239.4
3444.557	1206.4
3447.483	1160.4
3450.407	1132.4
3453.328	1081.4
3456.247	1050.4
3459.164	1018.4
3462.079	955.4
3464.991	942.4
3467.902	913.4
3470.809	875.4
3473.715	845.4
3476.618	810.4
3479.519	790.4
3482.418	752.4
3485.315	729.4
3488.209	713.4
3491.101	686.4
3493.99	654.4
3496.878	620.4
3499.763	607.4
3502.646	573.4
3505.527	562.4
3508.405	532.4
3511.281	496.4
3514.155	461.4
3517.027	443.4
3519.897	412.4
3522.764	374.4
3525.629	361.4
3528.492	311.4
3531.352	272.4
3534.211	272.4
3537.067	234.4
3539.921	207.4
3542.773	185.4
3545.622	158.4
3548.469	136.4
3551.315	123.4
3554.157	110.4
3556.998	68.4
3559.837	70.4
3562.673	44.4
3565.507	26.4
3568.339	10.4
3571.169	2.4
3573.996	-5.6
3576.822	-30.6
3579.645	-45.6
3582.466	-52.6
3585.285	-75.6
3588.101	-94.6
3590.916	-103.6
3593.728	-118.6
3596.538	-125.6
3599.346	-146.6
3602.152	-148.6
3604.956	-164.6
3607.757	-178.6
3610.556	-196.6
3613.354	-199.6
3616.149	-214.6
3618.942	-220.6
3621.732	-222.6
3624.521	-237.6
3627.307	-241.6
3630.092	-246.6
3632.874	-259.6
3635.654	-262.6
3638.432	-265.6
3641.208	-270.6
3643.982	-285.6
3646.753	-287.6
3649.523	-294.6
3652.29	-297.6
3655.055	-300.6
3657.818	-314.6
3660.579	-321.6
3663.338	-339.6
3666.095	-339.6
3668.849	-346.6
3671.602	-348.6
3674.352	-357.6
3677.101	-363.6
3679.847	-368.6
3682.591	-367.6
3685.333	-377.6
3688.073	-376.6
3690.811	-380.6
3693.547	-387.6
3696.281	-393.6
3699.013	-391.6
3701.742	-390.6
3704.47	-398.6
3707.195	-400.6
3709.919	-400.6
3712.64	-404.6
3715.359	-409.6
3718.076	-415.6
3720.792	-410.6
3723.505	-409.6
3726.216	-418.6
3728.925	-421.6
3731.632	-424.6
3734.336	-421.6
3737.039	-431.6
3739.74	-422.6
3742.439	-431.6
3745.136	-425.6
3747.83	-441.6
3750.523	-433.6
3753.213	-443.6
3755.902	-440.6
3758.589	-441.6
3761.273	-440.6
3763.956	-445.6
3766.636	-451.6
3769.315	-445.6
3771.991	-443.6
3774.665	-447.6
3777.338	-445.6
3780.008	-452.6
3782.677	-449.6
3785.343	-445.6
3788.007	-453.6
3790.67	-450.6
3793.33	-457.6
3795.989	-454.6
3798.645	-456.6
3801.299	-450.6
3803.952	-461.6
3806.602	-464.6
3809.251	-465.6
3811.897	-463.6
3814.542	-464.6
3817.184	-462.6
3819.825	-463.6
3822.463	-462.6
3825.1	-471.6
3827.735	-463.6
3830.367	-465.6
3832.998	-465.6
3835.627	-465.6
3838.253	-470.6
3840.878	-469.6
3843.501	-468.6
3846.122	-460.6
3848.741	-464.6
3851.358	-463.6
3853.973	-471.6
3856.586	-470.6
3859.197	-471.6
3861.806	-475.6
3864.414	-464.6
3867.019	-463.6
3869.622	-469.6
3872.224	-466.6
3874.823	-454.6
3877.421	-442.6
3880.016	-423.6
3882.61	-398.6
3885.202	-402.6
3887.792	-419.6
3890.38	-446.6
3892.966	-461.6
3895.55	-471.6
3898.132	-482.6
3900.713	-481.6
3903.291	-475.6
3905.868	-477.6
3908.442	-481.6
3911.015	-481.6
3913.586	-476.6
3916.155	-477.6
3918.722	-483.6
3921.287	-482.6
3923.85	-485.6
3926.411	-485.6
3928.971	-490.6
3931.528	-482.6
3934.084	-484.6
3936.638	-484.6
3939.19	-484.6
3941.74	-480.6
3944.288	-490.6
3946.834	-479.6
3949.378	-482.6
3951.921	-483.6
3954.462	-488.6
3957	-477.6
3959.537	-479.6
3962.072	-482.6
3964.606	-482.6
3967.137	-482.6
3969.667	-482.6
3972.194	-474.6
3974.72	-481.6
3977.244	-471.6
3979.766	-472.6
3982.286	-473.6
3984.805	-475.6
3987.321	-470.6
3989.836	-479.6
3992.349	-471.6
3994.86	-472.6
3997.369	-485.6
3999.877	-470.6
4002.382	-474.6
4004.886	-476.6
4007.388	-471.6
4009.888	-467.6
4012.386	-478.6
4014.883	-475.6
4017.377	-467.6
4019.87	-467.6
4022.361	-468.6
4024.85	-470.6
4027.338	-475.6
4029.823	-475.6
4032.307	-471.6
4034.789	-470.6
4037.269	-471.6
4039.747	-470.6
4042.224	-476.6
4044.699	-472.6
4047.172	-474.6
4049.643	-466.6
4052.112	-478.6
4054.58	-481.6
4057.046	-477.6
4059.51	-480.6
4061.972	-474.6
4064.432	-480.6
4066.891	-474.6
4069.348	-476.6
4071.803	-468.6
4074.256	-475.6
4076.708	-475.6
4079.158	-476.6
4081.606	-476.6
4084.052	-480.6
4086.497	-478.6
4088.939	-467.6
4091.38	-469.6
4093.819	-475.6
4096.257	-499.6
4098.693	-500.6
4101.127	-501.6
4103.559	-498.6
4105.989	-279.6
4108.418	-249.6
4110.845	-238.6
4113.27	-230.6
4115.694	-194.6
4118.115	-159.6
4120.535	-474.6
4122.954	-474.6
4125.37	-473.6
4127.785	-473.6
4130.198	-477.6
4132.609	-480.6
4135.019	-501.6
4137.427	-504.6
4139.833	-501.6
4142.237	-503.6
