Data from 2018-2-14_conc=3_n=5_RamanShift_04.txt Node
Date: Wed Feb 14 11:56:56 IST 2018
User: aro
Spectrometer: QEPB0276
Trigger mode: 0
Integration Time (sec): 3.000000E1
Scans to average: 1
Electric dark correction enabled: true
Nonlinearity correction enabled: false
Boxcar width: 0
XAxis mode: Raman Shifts
Number of Pixels in Spectrum: 1044
>>>>>Begin Spectral Data<<<<<
160.701	-138.4
166.742	43.6
172.777	575.6
178.805	2193.6
184.826	6115.6
190.841	12818.6
196.849	20645.6
202.85	26155.6
208.845	27999.6
214.833	27684.6
220.815	27172.6
226.789	26903.6
232.758	26829.6
238.719	26608.6
244.674	26238.6
250.623	25652.6
256.565	25114.6
262.5	24631.6
268.429	24126.6
274.351	23730.6
280.267	23357.6
286.176	23068.6
292.079	22851.6
297.975	22592.6
303.865	22346.6
309.748	22211.6
315.625	22057.6
321.495	21953.6
327.359	21833.6
333.217	21773.6
339.068	21789.6
344.912	21698.6
350.751	21744.6
356.583	21687.6
362.408	21645.6
368.227	21663.6
374.04	21638.6
379.847	21678.6
385.647	21769.6
391.44	21932.6
397.228	21969.6
403.009	22095.6
408.784	22179.6
414.553	22173.6
420.315	22225.6
426.071	22278.6
431.821	22225.6
437.565	22266.6
443.302	22192.6
449.033	22167.6
454.758	22102.6
460.477	22077.6
466.189	22027.6
471.896	21970.6
477.596	21872.6
483.29	21840.6
488.978	21840.6
494.66	21718.6
500.335	21585.6
506.005	21427.6
511.668	21186.6
517.325	20887.6
522.977	20678.6
528.622	20542.6
534.261	20412.6
539.894	20269.6
545.521	20231.6
551.141	20169.6
556.756	20121.6
562.365	19982.6
567.968	19871.6
573.565	19806.6
579.155	19752.6
584.74	19640.6
590.319	19567.6
595.892	19580.6
601.459	19460.6
607.02	19344.6
612.575	19213.6
618.124	19152.6
623.667	19029.6
629.204	18979.6
634.735	18868.6
640.261	18740.6
645.781	18666.6
651.294	18662.6
656.802	18646.6
662.304	18624.6
667.8	18540.6
673.29	18535.6
678.775	18491.6
684.254	18400.6
689.726	18339.6
695.193	18342.6
700.655	18165.6
706.11	18146.6
711.56	18077.6
717.004	17968.6
722.442	17871.6
727.874	17843.6
733.301	17731.6
738.722	17721.6
744.137	17613.6
749.547	17647.6
754.951	17655.6
760.349	17669.6
765.741	17656.6
771.128	17692.6
776.509	17677.6
781.885	17714.6
787.254	17665.6
792.618	17542.6
797.977	17460.6
803.33	17330.6
808.677	17257.6
814.019	17133.6
819.355	17052.6
824.686	16965.6
830.011	16943.6
835.33	16934.6
840.644	17000.6
845.952	16987.6
851.255	16984.6
856.552	17012.6
861.844	17013.6
867.13	16968.6
872.41	16862.6
877.686	16795.6
882.955	16685.6
888.219	16506.6
893.478	16281.6
898.731	16148.6
903.979	15982.6
909.221	15900.6
914.458	15783.6
919.69	15745.6
924.916	15827.6
930.136	15888.6
935.351	15885.6
940.561	15880.6
945.766	15824.6
950.965	15784.6
956.158	15620.6
961.347	15531.6
966.529	15328.6
971.707	15174.6
976.879	14938.6
982.046	14839.6
987.208	14748.6
992.364	14782.6
997.515	14865.6
1002.66	14986.6
1007.801	15143.6
1012.936	15339.6
1018.066	15223.6
1023.19	15287.6
1028.309	15246.6
1033.423	15293.6
1038.532	15142.6
1043.636	15056.6
1048.734	14831.6
1053.827	14685.6
1058.915	14538.6
1063.998	14393.6
1069.075	14360.6
1074.147	14383.6
1079.214	14430.6
1084.276	14536.6
1089.333	14634.6
1094.385	14647.6
1099.431	14654.6
1104.472	14730.6
1109.509	14592.6
1114.54	14509.6
1119.565	14230.6
1124.586	14074.6
1129.602	13964.6
1134.613	13857.6
1139.618	13807.6
1144.619	13760.6
1149.614	13746.6
1154.604	13774.6
1159.589	13849.6
1164.57	13805.6
1169.545	13856.6
1174.515	13883.6
1179.48	13773.6
1184.44	13685.6
1189.395	13626.6
1194.345	13513.6
1199.29	13425.6
1204.23	13416.6
1209.165	13446.6
1214.095	13534.6
1219.021	13612.6
1223.941	13668.6
1228.856	13737.6
1233.766	13771.6
1238.672	13824.6
1243.572	13831.6
1248.467	13744.6
1253.358	13611.6
1258.244	13406.6
1263.124	13135.6
1268	12994.6
1272.871	12807.6
1277.737	12714.6
1282.599	12653.6
1287.455	12673.6
1292.306	12657.6
1297.153	12736.6
1301.995	12830.6
1306.832	12856.6
1311.664	12843.6
1316.491	12812.6
1321.314	12688.6
1326.132	12559.6
1330.945	12275.6
1335.753	11991.6
1340.556	11677.6
1345.354	11421.6
1350.148	11224.6
1354.937	11153.6
1359.722	11092.6
1364.501	11202.6
1369.276	11236.6
1374.046	11461.6
1378.811	11679.6
1383.572	11788.6
1388.327	11856.6
1393.079	11798.6
1397.825	11653.6
1402.567	11479.6
1407.304	11306.6
1412.036	11179.6
1416.764	11093.6
1421.487	11045.6
1426.205	10981.6
1430.919	10932.6
1435.628	10955.6
1440.333	10971.6
1445.032	11003.6
1449.727	11030.6
1454.418	11025.6
1459.104	10888.6
1463.785	10695.6
1468.462	10449.6
1473.134	10304.6
1477.802	10054.6
1482.465	9855.6
1487.123	9795.6
1491.777	9719.6
1496.426	9785.6
1501.071	9909.6
1505.711	10024.6
1510.347	10211.6
1514.978	10406.6
1519.604	10577.6
1524.226	10679.6
1528.844	10708.6
1533.457	10688.6
1538.065	10625.6
1542.669	10569.6
1547.269	10492.6
1551.864	10422.6
1556.454	10394.6
1561.041	10398.6
1565.622	10349.6
1570.199	10347.6
1574.772	10447.6
1579.34	10506.6
1583.904	10562.6
1588.464	10561.6
1593.019	10567.6
1597.569	10568.6
1602.115	10511.6
1606.657	10417.6
1611.195	10361.6
1615.728	10350.6
1620.256	10240.6
1624.78	10285.6
1629.3	10248.6
1633.816	10321.6
1638.327	10391.6
1642.834	10421.6
1647.336	10432.6
1651.834	10468.6
1656.328	10499.6
1660.817	10406.6
1665.302	10369.6
1669.783	10145.6
1674.259	9946.6
1678.732	9640.6
1683.199	9323.6
1687.663	9014.6
1692.122	8722.6
1696.577	8531.6
1701.028	8504.6
1705.474	8603.6
1709.917	8705.6
1714.355	8741.6
1718.788	8664.6
1723.218	8560.6
1727.643	8379.6
1732.064	8228.6
1736.481	8055.6
1740.893	7843.6
1745.301	7666.6
1749.705	7417.6
1754.105	7212.6
1758.501	7032.6
1762.893	6850.6
1767.28	6682.6
1771.663	6555.6
1776.042	6387.6
1780.417	6326.6
1784.787	6333.6
1789.154	6403.6
1793.516	6518.6
1797.874	6631.6
1802.228	6762.6
1806.578	6817.6
1810.924	6822.6
1815.266	6829.6
1819.603	6659.6
1823.937	6563.6
1828.266	6464.6
1832.591	6346.6
1836.913	6285.6
1841.23	6181.6
1845.543	6183.6
1849.852	6112.6
1854.156	6113.6
1858.457	6104.6
1862.754	6079.6
1867.047	6080.6
1871.335	6069.6
1875.62	6034.6
1879.9	6027.6
1884.177	5997.6
1888.449	5952.6
1892.718	5882.6
1896.982	5842.6
1901.243	5767.6
1905.499	5752.6
1909.752	5708.6
1914	5707.6
1918.245	5718.6
1922.485	5790.6
1926.722	5846.6
1930.954	5918.6
1935.183	5972.6
1939.408	6042.6
1943.628	6061.6
1947.845	6103.6
1952.058	6093.6
1956.267	6035.6
1960.472	5982.6
1964.673	5881.6
1968.87	5788.6
1973.063	5689.6
1977.252	5579.6
1981.438	5572.6
1985.619	5537.6
1989.797	5454.6
1993.971	5416.6
1998.14	5372.6
2002.306	5384.6
2006.469	5361.6
2010.627	5354.6
2014.781	5290.6
2018.932	5256.6
2023.078	5228.6
2027.221	5150.6
2031.36	5047.6
2035.495	4992.6
2039.627	4920.6
2043.754	4856.6
2047.878	4819.6
2051.998	4771.6
2056.114	4766.6
2060.226	4784.6
2064.334	4787.6
2068.439	4803.6
2072.54	4802.6
2076.637	4840.6
2080.73	4887.6
2084.82	4881.6
2088.906	4908.6
2092.988	4923.6
2097.066	4912.6
2101.14	4860.6
2105.211	4840.6
2109.278	4821.6
2113.342	4770.6
2117.401	4761.6
2121.457	4759.6
2125.509	4716.6
2129.558	4691.6
2133.602	4653.6
2137.643	4673.6
2141.681	4636.6
2145.714	4608.6
2149.744	4550.6
2153.77	4521.6
2157.793	4480.6
2161.812	4437.6
2165.827	4343.6
2169.838	4297.6
2173.846	4210.6
2177.851	4162.6
2181.851	4094.6
2185.848	4043.6
2189.841	3967.6
2193.831	3971.6
2197.817	3901.6
2201.799	3895.6
2205.778	3884.6
2209.753	3886.6
2213.725	3849.6
2217.693	3873.6
2221.657	3839.6
2225.618	3818.6
2229.575	3794.6
2233.529	3771.6
2237.479	3756.6
2241.425	3708.6
2245.368	3656.6
2249.307	3591.6
2253.243	3552.6
2257.175	3511.6
2261.104	3467.6
2265.029	3384.6
2268.95	3373.6
2272.868	3322.6
2276.783	3297.6
2280.694	3287.6
2284.601	3249.6
2288.505	3227.6
2292.405	3208.6
2296.302	3140.6
2300.195	3117.6
2304.085	3074.6
2307.971	3040.6
2311.854	3000.6
2315.734	2930.6
2319.609	2894.6
2323.482	2859.6
2327.351	2822.6
2331.216	2828.6
2335.078	2802.6
2338.937	2781.6
2342.792	2765.6
2346.643	2762.6
2350.492	2749.6
2354.336	2785.6
2358.178	2761.6
2362.015	2763.6
2365.85	2788.6
2369.681	2778.6
2373.508	2780.6
2377.333	2779.6
2381.153	2752.6
2384.971	2750.6
2388.785	2712.6
2392.595	2684.6
2396.402	2669.6
2400.206	2655.6
2404.007	2639.6
2407.804	2614.6
2411.597	2608.6
2415.388	2584.6
2419.174	2564.6
2422.958	2555.6
2426.738	2537.6
2430.515	2498.6
2434.289	2469.6
2438.059	2468.6
2441.825	2442.6
2445.589	2447.6
2449.349	2394.6
2453.106	2374.6
2456.859	2324.6
2460.61	2326.6
2464.356	2304.6
2468.1	2272.6
2471.84	2244.6
2475.577	2225.6
2479.311	2216.6
2483.041	2188.6
2486.768	2199.6
2490.492	2168.6
2494.213	2195.6
2497.93	2175.6
2501.644	2156.6
2505.355	2147.6
2509.062	2138.6
2512.766	2115.6
2516.467	2102.6
2520.165	2111.6
2523.859	2099.6
2527.551	2064.6
2531.239	2068.6
2534.923	2061.6
2538.605	2055.6
2542.283	2026.6
2545.958	2026.6
2549.63	2031.6
2553.299	2023.6
2556.964	1997.6
2560.626	2009.6
2564.285	2012.6
2567.941	1996.6
2571.594	1980.6
2575.243	1960.6
2578.89	1945.6
2582.533	1966.6
2586.173	1936.6
2589.809	1907.6
2593.443	1867.6
2597.073	1874.6
2600.701	1851.6
2604.325	1830.6
2607.946	1834.6
2611.564	1819.6
2615.178	1816.6
2618.79	1797.6
2622.398	1776.6
2626.004	1744.6
2629.606	1740.6
2633.205	1732.6
2636.801	1708.6
2640.394	1690.6
2643.983	1647.6
2647.57	1623.6
2651.153	1591.6
2654.734	1569.6
2658.311	1553.6
2661.885	1539.6
2665.456	1511.6
2669.025	1483.6
2672.589	1475.6
2676.151	1451.6
2679.71	1440.6
2683.266	1429.6
2686.819	1393.6
2690.368	1376.6
2693.915	1347.6
2697.458	1293.6
2700.999	1285.6
2704.536	1245.6
2708.071	1232.6
2711.602	1185.6
2715.13	1166.6
2718.656	1143.6
2722.178	1133.6
2725.697	1116.6
2729.214	1118.6
2732.727	1105.6
2736.237	1088.6
2739.744	1086.6
2743.249	1109.6
2746.75	1104.6
2750.248	1109.6
2753.743	1124.6
2757.236	1159.6
2760.725	1149.6
2764.211	1169.6
2767.695	1151.6
2771.175	1165.6
2774.652	1164.6
2778.127	1145.6
2781.598	1152.6
2785.067	1125.6
2788.532	1138.6
2791.995	1107.6
2795.455	1125.6
2798.911	1116.6
2802.365	1140.6
2805.816	1121.6
2809.264	1118.6
2812.709	1109.6
2816.151	1142.6
2819.59	1130.6
2823.026	1134.6
2826.46	1125.6
2829.89	1147.6
2833.318	1133.6
2836.742	1126.6
2840.164	1152.6
2843.583	1158.6
2846.999	1165.6
2850.412	1179.6
2853.822	1178.6
2857.229	1185.6
2860.634	1227.6
2864.035	1226.6
2867.434	1250.6
2870.83	1279.6
2874.223	1303.6
2877.613	1338.6
2881	1341.6
2884.385	1337.6
2887.766	1342.6
2891.145	1351.6
2894.521	1349.6
2897.894	1360.6
2901.264	1333.6
2904.631	1355.6
2907.996	1357.6
2911.358	1337.6
2914.717	1346.6
2918.073	1380.6
2921.426	1394.6
2924.777	1416.6
2928.124	1427.6
2931.469	1460.6
2934.811	1479.6
2938.15	1490.6
2941.487	1502.6
2944.821	1505.6
2948.152	1526.6
2951.48	1509.6
2954.805	1471.6
2958.128	1475.6
2961.447	1484.6
2964.765	1455.6
2968.079	1486.6
2971.39	1482.6
2974.699	1495.6
2978.005	1532.6
2981.308	1546.6
2984.609	1577.6
2987.907	1600.6
2991.202	1644.6
2994.494	1688.6
2997.784	1727.6
3001.07	1745.6
3004.355	1762.6
3007.636	1779.6
3010.915	1810.6
3014.191	1831.6
3017.464	1833.6
3020.734	1851.6
3024.002	1858.6
3027.267	1871.6
3030.53	1878.6
3033.789	1894.6
3037.046	1936.6
3040.301	1959.6
3043.552	1997.6
3046.801	2030.6
3050.048	2071.6
3053.291	2153.6
3056.532	2185.6
3059.771	2248.6
3063.006	2336.6
3066.239	2373.6
3069.469	2429.6
3072.697	2492.6
3075.922	2560.6
3079.144	2620.6
3082.364	2679.6
3085.581	2755.6
3088.795	2778.6
3092.007	2854.6
3095.216	2917.6
3098.423	2963.6
3101.627	3083.6
3104.828	3118.6
3108.026	3173.6
3111.222	3274.6
3114.416	3317.6
3117.607	3427.6
3120.795	3481.6
3123.98	3559.6
3127.163	3644.6
3130.344	3720.6
3133.521	3794.6
3136.696	3903.6
3139.869	3998.6
3143.039	4071.6
3146.206	4124.6
3149.371	4138.6
3152.533	4192.6
3155.693	4198.6
3158.85	4255.6
3162.005	4274.6
3165.157	4268.6
3168.306	4316.6
3171.453	4302.6
3174.597	4298.6
3177.739	4302.6
3180.878	4336.6
3184.014	4311.6
3187.149	4360.6
3190.28	4345.6
3193.409	4356.6
3196.536	4335.6
3199.659	4354.6
3202.781	4355.6
3205.9	4380.6
3209.016	4363.6
3212.13	4344.6
3215.241	4325.6
3218.35	4284.6
3221.456	4244.6
3224.56	4157.6
3227.661	4130.6
3230.76	4090.6
3233.856	4092.6
3236.95	4060.6
3240.041	4003.6
3243.13	3951.6
3246.216	3971.6
3249.3	3939.6
3252.382	3928.6
3255.46	3916.6
3258.537	3899.6
3261.611	3896.6
3264.682	3865.6
3267.751	3878.6
3270.818	3888.6
3273.882	3850.6
3276.943	3848.6
3280.002	3800.6
3283.059	3768.6
3286.113	3737.6
3289.165	3687.6
3292.214	3616.6
3295.261	3560.6
3298.306	3499.6
3301.348	3439.6
3304.387	3378.6
3307.425	3378.6
3310.459	3295.6
3313.492	3225.6
3316.521	3223.6
3319.549	3157.6
3322.574	3119.6
3325.597	3092.6
3328.617	3094.6
3331.635	3069.6
3334.65	3012.6
3337.663	3018.6
3340.674	3008.6
3343.682	3002.6
3346.688	2984.6
3349.691	2951.6
3352.692	2958.6
3355.691	2930.6
3358.687	2917.6
3361.681	2845.6
3364.673	2834.6
3367.662	2791.6
3370.649	2745.6
3373.633	2728.6
3376.615	2692.6
3379.595	2630.6
3382.572	2620.6
3385.547	2566.6
3388.52	2509.6
3391.49	2523.6
3394.458	2455.6
3397.424	2419.6
3400.387	2397.6
3403.348	2375.6
3406.307	2319.6
3409.263	2322.6
3412.217	2255.6
3415.168	2273.6
3418.118	2209.6
3421.065	2212.6
3424.009	2183.6
3426.951	2145.6
3429.891	2120.6
3432.829	2068.6
3435.764	1984.6
3438.697	1974.6
3441.628	1918.6
3444.557	1871.6
3447.483	1797.6
3450.407	1746.6
3453.328	1716.6
3456.247	1665.6
3459.164	1588.6
3462.079	1529.6
3464.991	1487.6
3467.902	1411.6
3470.809	1365.6
3473.715	1313.6
3476.618	1288.6
3479.519	1237.6
3482.418	1214.6
3485.315	1167.6
3488.209	1120.6
3491.101	1066.6
3493.99	1033.6
3496.878	997.6
3499.763	965.6
3502.646	947.6
3505.527	888.6
3508.405	858.6
3511.281	807.6
3514.155	761.6
3517.027	720.6
3519.897	684.6
3522.764	628.6
3525.629	588.6
3528.492	536.6
3531.352	513.6
3534.211	460.6
3537.067	431.6
3539.921	390.6
3542.773	342.6
3545.622	302.6
3548.469	285.6
3551.315	258.6
3554.157	232.6
3556.998	183.6
3559.837	171.6
3562.673	152.6
3565.507	125.6
3568.339	86.6
3571.169	82.6
3573.996	48.6
3576.822	32.6
3579.645	14.6
3582.466	-3.4
3585.285	-42.4
3588.101	-57.4
3590.916	-72.4
3593.728	-104.4
3596.538	-119.4
3599.346	-139.4
3602.152	-162.4
3604.956	-171.4
3607.757	-197.4
3610.556	-211.4
3613.354	-216.4
3616.149	-240.4
3618.942	-248.4
3621.732	-263.4
3624.521	-276.4
3627.307	-292.4
3630.092	-287.4
3632.874	-302.4
3635.654	-317.4
3638.432	-324.4
3641.208	-326.4
3643.982	-348.4
3646.753	-351.4
3649.523	-371.4
3652.29	-378.4
3655.055	-380.4
3657.818	-395.4
3660.579	-409.4
3663.338	-428.4
3666.095	-422.4
3668.849	-432.4
3671.602	-453.4
3674.352	-460.4
3677.101	-455.4
3679.847	-471.4
3682.591	-473.4
3685.333	-484.4
3688.073	-481.4
3690.811	-493.4
3693.547	-502.4
3696.281	-503.4
3699.013	-505.4
3701.742	-518.4
3704.47	-523.4
3707.195	-526.4
3709.919	-529.4
3712.64	-535.4
3715.359	-538.4
3718.076	-541.4
3720.792	-542.4
3723.505	-541.4
3726.216	-556.4
3728.925	-545.4
3731.632	-561.4
3734.336	-556.4
3737.039	-563.4
3739.74	-561.4
3742.439	-566.4
3745.136	-572.4
3747.83	-574.4
3750.523	-576.4
3753.213	-550.4
3755.902	-578.4
3758.589	-584.4
3761.273	-586.4
3763.956	-587.4
3766.636	-587.4
3769.315	-591.4
3771.991	-588.4
3774.665	-599.4
3777.338	-597.4
3780.008	-597.4
3782.677	-595.4
3785.343	-586.4
3788.007	-599.4
3790.67	-593.4
3793.33	-601.4
3795.989	-602.4
3798.645	-599.4
3801.299	-606.4
3803.952	-607.4
3806.602	-616.4
3809.251	-614.4
3811.897	-616.4
3814.542	-617.4
3817.184	-615.4
3819.825	-615.4
3822.463	-612.4
3825.1	-618.4
3827.735	-615.4
3830.367	-612.4
3832.998	-624.4
3835.627	-623.4
3838.253	-622.4
3840.878	-623.4
3843.501	-618.4
3846.122	-616.4
3848.741	-621.4
3851.358	-616.4
3853.973	-625.4
3856.586	-622.4
3859.197	-629.4
3861.806	-628.4
3864.414	-629.4
3867.019	-623.4
3869.622	-629.4
3872.224	-621.4
3874.823	-607.4
3877.421	-602.4
3880.016	-586.4
3882.61	-563.4
3885.202	-555.4
3887.792	-563.4
3890.38	-596.4
3892.966	-612.4
3895.55	-622.4
3898.132	-640.4
3900.713	-635.4
3903.291	-636.4
3905.868	-641.4
3908.442	-637.4
3911.015	-645.4
3913.586	-634.4
3916.155	-633.4
3918.722	-644.4
3921.287	-641.4
3923.85	-643.4
3926.411	-643.4
3928.971	-649.4
3931.528	-641.4
3934.084	-639.4
3936.638	-636.4
3939.19	-643.4
3941.74	-638.4
3944.288	-644.4
3946.834	-637.4
3949.378	-645.4
3951.921	-645.4
3954.462	-651.4
3957	-637.4
3959.537	-641.4
3962.072	-643.4
3964.606	-640.4
3967.137	-643.4
3969.667	-644.4
3972.194	-641.4
3974.72	-646.4
3977.244	-631.4
3979.766	-632.4
3982.286	-634.4
3984.805	-632.4
3987.321	-626.4
3989.836	-628.4
3992.349	-624.4
3994.86	-623.4
3997.369	-634.4
3999.877	-628.4
4002.382	-624.4
4004.886	-625.4
4007.388	-622.4
4009.888	-626.4
4012.386	-633.4
4014.883	-625.4
4017.377	-631.4
4019.87	-628.4
4022.361	-631.4
4024.85	-628.4
4027.338	-629.4
4029.823	-631.4
4032.307	-631.4
4034.789	-631.4
4037.269	-627.4
4039.747	-632.4
4042.224	-633.4
4044.699	-629.4
4047.172	-632.4
4049.643	-629.4
4052.112	-636.4
4054.58	-636.4
4057.046	-639.4
4059.51	-640.4
4061.972	-636.4
4064.432	-636.4
4066.891	-634.4
4069.348	-630.4
4071.803	-625.4
4074.256	-628.4
4076.708	-629.4
4079.158	-634.4
4081.606	-630.4
4084.052	-639.4
4086.497	-628.4
4088.939	-625.4
4091.38	-632.4
4093.819	-628.4
4096.257	-667.4
4098.693	-661.4
4101.127	-664.4
4103.559	-662.4
4105.989	-385.4
4108.418	-352.4
4110.845	-330.4
4113.27	-303.4
4115.694	-269.4
4118.115	-231.4
4120.535	-630.4
4122.954	-629.4
4125.37	-620.4
4127.785	-634.4
4130.198	-634.4
4132.609	-635.4
4135.019	-670.4
4137.427	-670.4
4139.833	-667.4
4142.237	-666.4
