Data from 2018-2-14_conc=4_n=8_RamanShift_03.txt Node
Date: Wed Feb 14 13:53:55 IST 2018
User: aro
Spectrometer: QEPB0276
Trigger mode: 0
Integration Time (sec): 3.000000E1
Scans to average: 1
Electric dark correction enabled: true
Nonlinearity correction enabled: false
Boxcar width: 0
XAxis mode: Raman Shifts
Number of Pixels in Spectrum: 1044
>>>>>Begin Spectral Data<<<<<
160.701	-126.5
166.742	54.5
172.777	551.5
178.805	2087.5
184.826	5774.5
190.841	12060.5
196.849	19364.5
202.85	24581.5
208.845	26310.5
214.833	26139.5
220.815	25668.5
226.789	25553.5
232.758	25454.5
238.719	25306.5
244.674	25011.5
250.623	24605.5
256.565	24144.5
262.5	23617.5
268.429	23268.5
274.351	22900.5
280.267	22623.5
286.176	22427.5
292.079	22176.5
297.975	22023.5
303.865	21843.5
309.748	21746.5
315.625	21614.5
321.495	21471.5
327.359	21401.5
333.217	21413.5
339.068	21439.5
344.912	21321.5
350.751	21377.5
356.583	21312.5
362.408	21337.5
368.227	21384.5
374.04	21337.5
379.847	21348.5
385.647	21531.5
391.44	21549.5
397.228	21610.5
403.009	21752.5
408.784	21830.5
414.553	21876.5
420.315	21912.5
426.071	21978.5
431.821	21978.5
437.565	21910.5
443.302	21885.5
449.033	21889.5
454.758	21833.5
460.477	21770.5
466.189	21630.5
471.896	21627.5
477.596	21571.5
483.29	21487.5
488.978	21464.5
494.66	21398.5
500.335	21225.5
506.005	20999.5
511.668	20689.5
517.325	20426.5
522.977	20245.5
528.622	20035.5
534.261	19947.5
539.894	19821.5
545.521	19704.5
551.141	19583.5
556.756	19558.5
562.365	19413.5
567.968	19387.5
573.565	19289.5
579.155	19192.5
584.74	19093.5
590.319	19088.5
595.892	19022.5
601.459	18950.5
607.02	18851.5
612.575	18769.5
618.124	18636.5
623.667	18558.5
629.204	18455.5
634.735	18275.5
640.261	18250.5
645.781	18217.5
651.294	18134.5
656.802	18104.5
662.304	18085.5
667.8	18070.5
673.29	18018.5
678.775	17960.5
684.254	17968.5
689.726	17839.5
695.193	17802.5
700.655	17702.5
706.11	17568.5
711.56	17513.5
717.004	17417.5
722.442	17375.5
727.874	17255.5
733.301	17232.5
738.722	17158.5
744.137	17142.5
749.547	17111.5
754.951	17091.5
760.349	17123.5
765.741	17146.5
771.128	17188.5
776.509	17151.5
781.885	17136.5
787.254	17129.5
792.618	17025.5
797.977	16933.5
803.33	16854.5
808.677	16748.5
814.019	16631.5
819.355	16542.5
824.686	16485.5
830.011	16428.5
835.33	16410.5
840.644	16397.5
845.952	16484.5
851.255	16451.5
856.552	16462.5
861.844	16421.5
867.13	16348.5
872.41	16286.5
877.686	16223.5
882.955	16088.5
888.219	15944.5
893.478	15802.5
898.731	15555.5
903.979	15407.5
909.221	15289.5
914.458	15235.5
919.69	15250.5
924.916	15298.5
930.136	15349.5
935.351	15350.5
940.561	15366.5
945.766	15270.5
950.965	15236.5
956.158	15165.5
961.347	14958.5
966.529	14790.5
971.707	14510.5
976.879	14391.5
982.046	14304.5
987.208	14217.5
992.364	14195.5
997.515	14274.5
1002.66	14449.5
1007.801	14592.5
1012.936	14725.5
1018.066	14668.5
1023.19	14717.5
1028.309	14677.5
1033.423	14656.5
1038.532	14594.5
1043.636	14462.5
1048.734	14227.5
1053.827	14058.5
1058.915	13932.5
1063.998	13852.5
1069.075	13830.5
1074.147	13781.5
1079.214	13863.5
1084.276	13943.5
1089.333	14011.5
1094.385	14064.5
1099.431	14090.5
1104.472	14103.5
1109.509	14015.5
1114.54	13890.5
1119.565	13648.5
1124.586	13478.5
1129.602	13379.5
1134.613	13243.5
1139.618	13118.5
1144.619	13133.5
1149.614	13116.5
1154.604	13163.5
1159.589	13225.5
1164.57	13216.5
1169.545	13287.5
1174.515	13224.5
1179.48	13179.5
1184.44	13062.5
1189.395	12942.5
1194.345	12889.5
1199.29	12779.5
1204.23	12814.5
1209.165	12882.5
1214.095	12887.5
1219.021	13000.5
1223.941	13021.5
1228.856	13077.5
1233.766	13089.5
1238.672	13135.5
1243.572	13103.5
1248.467	13031.5
1253.358	12863.5
1258.244	12710.5
1263.124	12459.5
1268	12327.5
1272.871	12177.5
1277.737	12084.5
1282.599	11984.5
1287.455	11975.5
1292.306	11998.5
1297.153	11988.5
1301.995	12098.5
1306.832	12155.5
1311.664	12135.5
1316.491	12115.5
1321.314	11958.5
1326.132	11808.5
1330.945	11595.5
1335.753	11315.5
1340.556	11037.5
1345.354	10827.5
1350.148	10691.5
1354.937	10562.5
1359.722	10523.5
1364.501	10533.5
1369.276	10591.5
1374.046	10689.5
1378.811	10804.5
1383.572	10898.5
1388.327	10919.5
1393.079	10935.5
1397.825	10752.5
1402.567	10664.5
1407.304	10530.5
1412.036	10444.5
1416.764	10374.5
1421.487	10338.5
1426.205	10275.5
1430.919	10239.5
1435.628	10240.5
1440.333	10253.5
1445.032	10305.5
1449.727	10275.5
1454.418	10301.5
1459.104	10139.5
1463.785	9997.5
1468.462	9753.5
1473.134	9565.5
1477.802	9347.5
1482.465	9209.5
1487.123	9066.5
1491.777	9072.5
1496.426	9032.5
1501.071	9115.5
1505.711	9270.5
1510.347	9379.5
1514.978	9524.5
1519.604	9654.5
1524.226	9710.5
1528.844	9747.5
1533.457	9725.5
1538.065	9693.5
1542.669	9653.5
1547.269	9557.5
1551.864	9552.5
1556.454	9491.5
1561.041	9519.5
1565.622	9501.5
1570.199	9504.5
1574.772	9541.5
1579.34	9627.5
1583.904	9684.5
1588.464	9719.5
1593.019	9649.5
1597.569	9652.5
1602.115	9629.5
1606.657	9545.5
1611.195	9473.5
1615.728	9457.5
1620.256	9407.5
1624.78	9380.5
1629.3	9396.5
1633.816	9423.5
1638.327	9454.5
1642.834	9488.5
1647.336	9531.5
1651.834	9541.5
1656.328	9474.5
1660.817	9425.5
1665.302	9284.5
1669.783	9103.5
1674.259	8960.5
1678.732	8674.5
1683.199	8369.5
1687.663	8085.5
1692.122	7854.5
1696.577	7743.5
1701.028	7663.5
1705.474	7651.5
1709.917	7727.5
1714.355	7725.5
1718.788	7690.5
1723.218	7614.5
1727.643	7444.5
1732.064	7333.5
1736.481	7220.5
1740.893	7005.5
1745.301	6852.5
1749.705	6675.5
1754.105	6434.5
1758.501	6258.5
1762.893	6108.5
1767.28	5933.5
1771.663	5842.5
1776.042	5724.5
1780.417	5631.5
1784.787	5655.5
1789.154	5660.5
1793.516	5758.5
1797.874	5835.5
1802.228	5952.5
1806.578	6016.5
1810.924	5979.5
1815.266	5927.5
1819.603	5899.5
1823.937	5778.5
1828.266	5731.5
1832.591	5639.5
1836.913	5510.5
1841.23	5503.5
1845.543	5473.5
1849.852	5458.5
1854.156	5415.5
1858.457	5409.5
1862.754	5395.5
1867.047	5376.5
1871.335	5377.5
1875.62	5346.5
1879.9	5324.5
1884.177	5304.5
1888.449	5243.5
1892.718	5184.5
1896.982	5091.5
1901.243	5074.5
1905.499	4982.5
1909.752	4992.5
1914	5025.5
1918.245	5014.5
1922.485	5021.5
1926.722	5086.5
1930.954	5120.5
1935.183	5188.5
1939.408	5212.5
1943.628	5270.5
1947.845	5290.5
1952.058	5260.5
1956.267	5229.5
1960.472	5183.5
1964.673	5079.5
1968.87	5013.5
1973.063	4915.5
1977.252	4846.5
1981.438	4798.5
1985.619	4776.5
1989.797	4711.5
1993.971	4708.5
1998.14	4698.5
2002.306	4631.5
2006.469	4617.5
2010.627	4627.5
2014.781	4582.5
2018.932	4538.5
2023.078	4500.5
2027.221	4427.5
2031.36	4381.5
2035.495	4309.5
2039.627	4197.5
2043.754	4179.5
2047.878	4142.5
2051.998	4114.5
2056.114	4074.5
2060.226	4106.5
2064.334	4063.5
2068.439	4097.5
2072.54	4102.5
2076.637	4134.5
2080.73	4154.5
2084.82	4186.5
2088.906	4173.5
2092.988	4171.5
2097.066	4148.5
2101.14	4126.5
2105.211	4122.5
2109.278	4084.5
2113.342	4051.5
2117.401	4051.5
2121.457	4015.5
2125.509	3975.5
2129.558	3973.5
2133.602	3947.5
2137.643	3940.5
2141.681	3933.5
2145.714	3888.5
2149.744	3835.5
2153.77	3849.5
2157.793	3797.5
2161.812	3740.5
2165.827	3702.5
2169.838	3635.5
2173.846	3570.5
2177.851	3527.5
2181.851	3459.5
2185.848	3440.5
2189.841	3398.5
2193.831	3350.5
2197.817	3323.5
2201.799	3273.5
2205.778	3272.5
2209.753	3286.5
2213.725	3266.5
2217.693	3257.5
2221.657	3267.5
2225.618	3252.5
2229.575	3224.5
2233.529	3186.5
2237.479	3170.5
2241.425	3132.5
2245.368	3077.5
2249.307	3023.5
2253.243	2978.5
2257.175	2930.5
2261.104	2891.5
2265.029	2874.5
2268.95	2853.5
2272.868	2807.5
2276.783	2776.5
2280.694	2740.5
2284.601	2731.5
2288.505	2713.5
2292.405	2678.5
2296.302	2636.5
2300.195	2597.5
2304.085	2602.5
2307.971	2549.5
2311.854	2498.5
2315.734	2478.5
2319.609	2434.5
2323.482	2391.5
2327.351	2380.5
2331.216	2376.5
2335.078	2359.5
2338.937	2355.5
2342.792	2321.5
2346.643	2318.5
2350.492	2336.5
2354.336	2326.5
2358.178	2333.5
2362.015	2335.5
2365.85	2349.5
2369.681	2356.5
2373.508	2375.5
2377.333	2347.5
2381.153	2337.5
2384.971	2322.5
2388.785	2310.5
2392.595	2289.5
2396.402	2262.5
2400.206	2231.5
2404.007	2247.5
2407.804	2238.5
2411.597	2210.5
2415.388	2196.5
2419.174	2179.5
2422.958	2189.5
2426.738	2154.5
2430.515	2118.5
2434.289	2099.5
2438.059	2114.5
2441.825	2079.5
2445.589	2064.5
2449.349	2003.5
2453.106	1998.5
2456.859	1951.5
2460.61	1963.5
2464.356	1917.5
2468.1	1921.5
2471.84	1871.5
2475.577	1859.5
2479.311	1846.5
2483.041	1839.5
2486.768	1833.5
2490.492	1824.5
2494.213	1809.5
2497.93	1815.5
2501.644	1765.5
2505.355	1777.5
2509.062	1752.5
2512.766	1758.5
2516.467	1736.5
2520.165	1727.5
2523.859	1712.5
2527.551	1720.5
2531.239	1681.5
2534.923	1692.5
2538.605	1681.5
2542.283	1666.5
2545.958	1683.5
2549.63	1637.5
2553.299	1653.5
2556.964	1653.5
2560.626	1647.5
2564.285	1635.5
2567.941	1637.5
2571.594	1631.5
2575.243	1601.5
2578.89	1617.5
2582.533	1574.5
2586.173	1563.5
2589.809	1549.5
2593.443	1523.5
2597.073	1516.5
2600.701	1518.5
2604.325	1497.5
2607.946	1505.5
2611.564	1470.5
2615.178	1457.5
2618.79	1451.5
2622.398	1451.5
2626.004	1429.5
2629.606	1415.5
2633.205	1387.5
2636.801	1366.5
2640.394	1357.5
2643.983	1304.5
2647.57	1301.5
2651.153	1284.5
2654.734	1253.5
2658.311	1250.5
2661.885	1209.5
2665.456	1209.5
2669.025	1205.5
2672.589	1159.5
2676.151	1165.5
2679.71	1146.5
2683.266	1140.5
2686.819	1090.5
2690.368	1075.5
2693.915	1063.5
2697.458	1040.5
2700.999	994.5
2704.536	984.5
2708.071	965.5
2711.602	932.5
2715.13	913.5
2718.656	901.5
2722.178	871.5
2725.697	857.5
2729.214	855.5
2732.727	845.5
2736.237	853.5
2739.744	831.5
2743.249	845.5
2746.75	844.5
2750.248	849.5
2753.743	847.5
2757.236	867.5
2760.725	871.5
2764.211	864.5
2767.695	866.5
2771.175	878.5
2774.652	888.5
2778.127	857.5
2781.598	874.5
2785.067	854.5
2788.532	848.5
2791.995	848.5
2795.455	831.5
2798.911	846.5
2802.365	850.5
2805.816	842.5
2809.264	856.5
2812.709	850.5
2816.151	848.5
2819.59	851.5
2823.026	864.5
2826.46	868.5
2829.89	852.5
2833.318	869.5
2836.742	850.5
2840.164	879.5
2843.583	885.5
2846.999	891.5
2850.412	878.5
2853.822	904.5
2857.229	913.5
2860.634	938.5
2864.035	961.5
2867.434	975.5
2870.83	995.5
2874.223	1008.5
2877.613	1024.5
2881	1045.5
2884.385	1046.5
2887.766	1046.5
2891.145	1046.5
2894.521	1036.5
2897.894	1051.5
2901.264	1042.5
2904.631	1041.5
2907.996	1038.5
2911.358	1071.5
2914.717	1067.5
2918.073	1053.5
2921.426	1091.5
2924.777	1103.5
2928.124	1117.5
2931.469	1134.5
2934.811	1155.5
2938.15	1175.5
2941.487	1187.5
2944.821	1173.5
2948.152	1185.5
2951.48	1179.5
2954.805	1151.5
2958.128	1167.5
2961.447	1146.5
2964.765	1132.5
2968.079	1134.5
2971.39	1139.5
2974.699	1155.5
2978.005	1190.5
2981.308	1202.5
2984.609	1217.5
2987.907	1238.5
2991.202	1262.5
2994.494	1282.5
2997.784	1331.5
3001.07	1330.5
3004.355	1350.5
3007.636	1370.5
3010.915	1412.5
3014.191	1422.5
3017.464	1398.5
3020.734	1438.5
3024.002	1454.5
3027.267	1443.5
3030.53	1467.5
3033.789	1482.5
3037.046	1515.5
3040.301	1536.5
3043.552	1550.5
3046.801	1605.5
3050.048	1644.5
3053.291	1689.5
3056.532	1748.5
3059.771	1777.5
3063.006	1841.5
3066.239	1888.5
3069.469	1960.5
3072.697	1993.5
3075.922	2063.5
3079.144	2097.5
3082.364	2163.5
3085.581	2202.5
3088.795	2249.5
3092.007	2306.5
3095.216	2357.5
3098.423	2366.5
3101.627	2472.5
3104.828	2507.5
3108.026	2548.5
3111.222	2609.5
3114.416	2669.5
3117.607	2719.5
3120.795	2805.5
3123.98	2866.5
3127.163	2946.5
3130.344	3019.5
3133.521	3087.5
3136.696	3147.5
3139.869	3206.5
3143.039	3270.5
3146.206	3337.5
3149.371	3351.5
3152.533	3389.5
3155.693	3397.5
3158.85	3446.5
3162.005	3443.5
3165.157	3479.5
3168.306	3490.5
3171.453	3483.5
3174.597	3459.5
3177.739	3504.5
3180.878	3499.5
3184.014	3512.5
3187.149	3496.5
3190.28	3495.5
3193.409	3490.5
3196.536	3511.5
3199.659	3522.5
3202.781	3506.5
3205.9	3529.5
3209.016	3539.5
3212.13	3504.5
3215.241	3490.5
3218.35	3468.5
3221.456	3414.5
3224.56	3379.5
3227.661	3351.5
3230.76	3266.5
3233.856	3236.5
3236.95	3231.5
3240.041	3163.5
3243.13	3143.5
3246.216	3128.5
3249.3	3122.5
3252.382	3099.5
3255.46	3084.5
3258.537	3072.5
3261.611	3084.5
3264.682	3082.5
3267.751	3062.5
3270.818	3078.5
3273.882	3064.5
3276.943	3053.5
3280.002	3042.5
3283.059	3008.5
3286.113	2966.5
3289.165	2949.5
3292.214	2902.5
3295.261	2858.5
3298.306	2786.5
3301.348	2791.5
3304.387	2715.5
3307.425	2691.5
3310.459	2657.5
3313.492	2599.5
3316.521	2571.5
3319.549	2544.5
3322.574	2515.5
3325.597	2489.5
3328.617	2479.5
3331.635	2445.5
3334.65	2461.5
3337.663	2430.5
3340.674	2429.5
3343.682	2406.5
3346.688	2400.5
3349.691	2408.5
3352.692	2378.5
3355.691	2371.5
3358.687	2346.5
3361.681	2317.5
3364.673	2284.5
3367.662	2252.5
3370.649	2222.5
3373.633	2169.5
3376.615	2167.5
3379.595	2147.5
3382.572	2114.5
3385.547	2055.5
3388.52	2029.5
3391.49	1997.5
3394.458	1969.5
3397.424	1955.5
3400.387	1885.5
3403.348	1896.5
3406.307	1872.5
3409.263	1837.5
3412.217	1829.5
3415.168	1805.5
3418.118	1797.5
3421.065	1747.5
3424.009	1721.5
3426.951	1704.5
3429.891	1657.5
3432.829	1640.5
3435.764	1571.5
3438.697	1534.5
3441.628	1496.5
3444.557	1434.5
3447.483	1414.5
3450.407	1360.5
3453.328	1327.5
3456.247	1266.5
3459.164	1240.5
3462.079	1177.5
3464.991	1149.5
3467.902	1090.5
3470.809	1052.5
3473.715	1001.5
3476.618	964.5
3479.519	918.5
3482.418	900.5
3485.315	864.5
3488.209	838.5
3491.101	803.5
3493.99	759.5
3496.878	728.5
3499.763	712.5
3502.646	673.5
3505.527	641.5
3508.405	601.5
3511.281	561.5
3514.155	534.5
3517.027	492.5
3519.897	463.5
3522.764	415.5
3525.629	387.5
3528.492	349.5
3531.352	299.5
3534.211	286.5
3537.067	254.5
3539.921	228.5
3542.773	199.5
3545.622	170.5
3548.469	138.5
3551.315	118.5
3554.157	93.5
3556.998	57.5
3559.837	45.5
3562.673	23.5
3565.507	8.5
3568.339	-17.5
3571.169	-32.5
3573.996	-54.5
3576.822	-73.5
3579.645	-85.5
3582.466	-102.5
3585.285	-127.5
3588.101	-135.5
3590.916	-166.5
3593.728	-176.5
3596.538	-195.5
3599.346	-209.5
3602.152	-211.5
3604.956	-238.5
3607.757	-248.5
3610.556	-269.5
3613.354	-281.5
3616.149	-291.5
3618.942	-292.5
3621.732	-306.5
3624.521	-312.5
3627.307	-327.5
3630.092	-326.5
3632.874	-345.5
3635.654	-345.5
3638.432	-350.5
3641.208	-359.5
3643.982	-370.5
3646.753	-373.5
3649.523	-390.5
3652.29	-398.5
3655.055	-398.5
3657.818	-412.5
3660.579	-426.5
3663.338	-434.5
3666.095	-442.5
3668.849	-458.5
3671.602	-459.5
3674.352	-466.5
3677.101	-466.5
3679.847	-483.5
3682.591	-477.5
3685.333	-486.5
3688.073	-486.5
3690.811	-501.5
3693.547	-504.5
3696.281	-504.5
3699.013	-507.5
3701.742	-513.5
3704.47	-519.5
3707.195	-526.5
3709.919	-519.5
3712.64	-531.5
3715.359	-528.5
3718.076	-535.5
3720.792	-528.5
3723.505	-537.5
3726.216	-545.5
3728.925	-543.5
3731.632	-548.5
3734.336	-551.5
3737.039	-556.5
3739.74	-557.5
3742.439	-557.5
3745.136	-562.5
3747.83	-568.5
3750.523	-560.5
3753.213	-567.5
3755.902	-576.5
3758.589	-574.5
3761.273	-577.5
3763.956	-575.5
3766.636	-576.5
3769.315	-580.5
3771.991	-578.5
3774.665	-584.5
3777.338	-584.5
3780.008	-581.5
3782.677	-582.5
3785.343	-577.5
3788.007	-586.5
3790.67	-583.5
3793.33	-584.5
3795.989	-589.5
3798.645	-580.5
3801.299	-586.5
3803.952	-595.5
3806.602	-604.5
3809.251	-598.5
3811.897	-601.5
3814.542	-602.5
3817.184	-594.5
3819.825	-597.5
3822.463	-590.5
3825.1	-606.5
3827.735	-590.5
3830.367	-594.5
3832.998	-599.5
3835.627	-611.5
3838.253	-599.5
3840.878	-604.5
3843.501	-605.5
3846.122	-596.5
3848.741	-600.5
3851.358	-602.5
3853.973	-599.5
3856.586	-605.5
3859.197	-605.5
3861.806	-613.5
3864.414	-608.5
3867.019	-601.5
3869.622	-604.5
3872.224	-602.5
3874.823	-587.5
3877.421	-576.5
3880.016	-556.5
3882.61	-541.5
3885.202	-532.5
3887.792	-549.5
3890.38	-582.5
3892.966	-595.5
3895.55	-605.5
3898.132	-617.5
3900.713	-618.5
3903.291	-617.5
3905.868	-611.5
3908.442	-616.5
3911.015	-618.5
3913.586	-616.5
3916.155	-615.5
3918.722	-620.5
3921.287	-616.5
3923.85	-622.5
3926.411	-618.5
3928.971	-631.5
3931.528	-620.5
3934.084	-623.5
3936.638	-619.5
3939.19	-616.5
3941.74	-616.5
3944.288	-624.5
3946.834	-616.5
3949.378	-621.5
3951.921	-615.5
3954.462	-626.5
3957	-620.5
3959.537	-616.5
3962.072	-616.5
3964.606	-621.5
3967.137	-621.5
3969.667	-621.5
3972.194	-613.5
3974.72	-616.5
3977.244	-606.5
3979.766	-603.5
3982.286	-605.5
3984.805	-612.5
3987.321	-605.5
3989.836	-605.5
3992.349	-604.5
3994.86	-606.5
3997.369	-617.5
3999.877	-605.5
4002.382	-601.5
4004.886	-607.5
4007.388	-601.5
4009.888	-605.5
4012.386	-608.5
4014.883	-610.5
4017.377	-608.5
4019.87	-606.5
4022.361	-601.5
4024.85	-609.5
4027.338	-607.5
4029.823	-605.5
4032.307	-610.5
4034.789	-602.5
4037.269	-607.5
4039.747	-609.5
4042.224	-604.5
4044.699	-607.5
4047.172	-611.5
4049.643	-607.5
4052.112	-617.5
4054.58	-613.5
4057.046	-609.5
4059.51	-609.5
4061.972	-616.5
4064.432	-613.5
4066.891	-611.5
4069.348	-611.5
4071.803	-607.5
4074.256	-602.5
4076.708	-608.5
4079.158	-609.5
4081.606	-609.5
4084.052	-616.5
4086.497	-609.5
4088.939	-595.5
4091.38	-605.5
4093.819	-601.5
4096.257	-640.5
4098.693	-639.5
4101.127	-639.5
4103.559	-637.5
4105.989	-364.5
4108.418	-346.5
4110.845	-311.5
4113.27	-299.5
4115.694	-262.5
4118.115	-214.5
4120.535	-606.5
4122.954	-609.5
4125.37	-595.5
4127.785	-607.5
4130.198	-604.5
4132.609	-608.5
4135.019	-639.5
4137.427	-645.5
4139.833	-642.5
4142.237	-639.5
