Data from 2018-2-14_conc=3_n=1_RamanShift_02.txt Node
Date: Wed Feb 14 11:42:56 IST 2018
User: aro
Spectrometer: QEPB0276
Trigger mode: 0
Integration Time (sec): 3.000000E1
Scans to average: 1
Electric dark correction enabled: true
Nonlinearity correction enabled: false
Boxcar width: 0
XAxis mode: Raman Shifts
Number of Pixels in Spectrum: 1044
>>>>>Begin Spectral Data<<<<<
160.701	-139.5
166.742	55.5
172.777	556.5
178.805	2163.5
184.826	6018.5
190.841	12507.5
196.849	20072.5
202.85	25302.5
208.845	27035.5
214.833	26791.5
220.815	26318.5
226.789	26144.5
232.758	26064.5
238.719	25939.5
244.674	25596.5
250.623	25156.5
256.565	24753.5
262.5	24168.5
268.429	23799.5
274.351	23468.5
280.267	23147.5
286.176	22900.5
292.079	22689.5
297.975	22538.5
303.865	22337.5
309.748	22146.5
315.625	22067.5
321.495	21873.5
327.359	21835.5
333.217	21854.5
339.068	21823.5
344.912	21710.5
350.751	21738.5
356.583	21702.5
362.408	21663.5
368.227	21677.5
374.04	21652.5
379.847	21757.5
385.647	21823.5
391.44	21891.5
397.228	22019.5
403.009	22109.5
408.784	22137.5
414.553	22215.5
420.315	22291.5
426.071	22332.5
431.821	22297.5
437.565	22284.5
443.302	22241.5
449.033	22221.5
454.758	22189.5
460.477	22079.5
466.189	22010.5
471.896	21938.5
477.596	21942.5
483.29	21907.5
488.978	21857.5
494.66	21830.5
500.335	21690.5
506.005	21445.5
511.668	21182.5
517.325	20991.5
522.977	20820.5
528.622	20603.5
534.261	20516.5
539.894	20435.5
545.521	20349.5
551.141	20313.5
556.756	20255.5
562.365	20185.5
567.968	20044.5
573.565	20050.5
579.155	19916.5
584.74	19840.5
590.319	19732.5
595.892	19723.5
601.459	19650.5
607.02	19564.5
612.575	19491.5
618.124	19278.5
623.667	19170.5
629.204	19106.5
634.735	18984.5
640.261	18919.5
645.781	18894.5
651.294	18849.5
656.802	18776.5
662.304	18793.5
667.8	18753.5
673.29	18756.5
678.775	18649.5
684.254	18612.5
689.726	18626.5
695.193	18531.5
700.655	18431.5
706.11	18350.5
711.56	18253.5
717.004	18150.5
722.442	18112.5
727.874	18017.5
733.301	17974.5
738.722	17914.5
744.137	17883.5
749.547	17841.5
754.951	17867.5
760.349	17862.5
765.741	17874.5
771.128	17899.5
776.509	17903.5
781.885	17873.5
787.254	17872.5
792.618	17703.5
797.977	17653.5
803.33	17534.5
808.677	17417.5
814.019	17346.5
819.355	17298.5
824.686	17228.5
830.011	17158.5
835.33	17123.5
840.644	17173.5
845.952	17226.5
851.255	17284.5
856.552	17226.5
861.844	17211.5
867.13	17266.5
872.41	17124.5
877.686	17063.5
882.955	16903.5
888.219	16689.5
893.478	16591.5
898.731	16367.5
903.979	16135.5
909.221	16075.5
914.458	16011.5
919.69	16053.5
924.916	16095.5
930.136	16133.5
935.351	16150.5
940.561	16116.5
945.766	16143.5
950.965	15986.5
956.158	15872.5
961.347	15753.5
966.529	15607.5
971.707	15402.5
976.879	15188.5
982.046	15082.5
987.208	15050.5
992.364	15053.5
997.515	15104.5
1002.66	15256.5
1007.801	15462.5
1012.936	15594.5
1018.066	15533.5
1023.19	15512.5
1028.309	15557.5
1033.423	15454.5
1038.532	15433.5
1043.636	15245.5
1048.734	15102.5
1053.827	14849.5
1058.915	14684.5
1063.998	14633.5
1069.075	14575.5
1074.147	14615.5
1079.214	14620.5
1084.276	14702.5
1089.333	14813.5
1094.385	14906.5
1099.431	14931.5
1104.472	14903.5
1109.509	14823.5
1114.54	14719.5
1119.565	14441.5
1124.586	14288.5
1129.602	14198.5
1134.613	14069.5
1139.618	13936.5
1144.619	13956.5
1149.614	13992.5
1154.604	14015.5
1159.589	14008.5
1164.57	14061.5
1169.545	14088.5
1174.515	14110.5
1179.48	14017.5
1184.44	13858.5
1189.395	13800.5
1194.345	13718.5
1199.29	13630.5
1204.23	13596.5
1209.165	13684.5
1214.095	13747.5
1219.021	13777.5
1223.941	13902.5
1228.856	13982.5
1233.766	13963.5
1238.672	14061.5
1243.572	14001.5
1248.467	13951.5
1253.358	13707.5
1258.244	13569.5
1263.124	13344.5
1268	13131.5
1272.871	12964.5
1277.737	12907.5
1282.599	12785.5
1287.455	12818.5
1292.306	12830.5
1297.153	12928.5
1301.995	12986.5
1306.832	12983.5
1311.664	12927.5
1316.491	12969.5
1321.314	12858.5
1326.132	12650.5
1330.945	12373.5
1335.753	12090.5
1340.556	11749.5
1345.354	11512.5
1350.148	11291.5
1354.937	11211.5
1359.722	11217.5
1364.501	11285.5
1369.276	11415.5
1374.046	11563.5
1378.811	11731.5
1383.572	11924.5
1388.327	11975.5
1393.079	11914.5
1397.825	11734.5
1402.567	11627.5
1407.304	11413.5
1412.036	11288.5
1416.764	11180.5
1421.487	11118.5
1426.205	11078.5
1430.919	11052.5
1435.628	11035.5
1440.333	11070.5
1445.032	11092.5
1449.727	11112.5
1454.418	11047.5
1459.104	10963.5
1463.785	10767.5
1468.462	10470.5
1473.134	10274.5
1477.802	10061.5
1482.465	9881.5
1487.123	9771.5
1491.777	9741.5
1496.426	9840.5
1501.071	9927.5
1505.711	10094.5
1510.347	10267.5
1514.978	10481.5
1519.604	10648.5
1524.226	10755.5
1528.844	10793.5
1533.457	10779.5
1538.065	10710.5
1542.669	10589.5
1547.269	10526.5
1551.864	10485.5
1556.454	10412.5
1561.041	10439.5
1565.622	10385.5
1570.199	10405.5
1574.772	10461.5
1579.34	10479.5
1583.904	10558.5
1588.464	10566.5
1593.019	10578.5
1597.569	10516.5
1602.115	10481.5
1606.657	10390.5
1611.195	10300.5
1615.728	10240.5
1620.256	10193.5
1624.78	10153.5
1629.3	10195.5
1633.816	10196.5
1638.327	10240.5
1642.834	10273.5
1647.336	10327.5
1651.834	10341.5
1656.328	10307.5
1660.817	10265.5
1665.302	10157.5
1669.783	9988.5
1674.259	9764.5
1678.732	9505.5
1683.199	9141.5
1687.663	8851.5
1692.122	8585.5
1696.577	8459.5
1701.028	8451.5
1705.474	8591.5
1709.917	8684.5
1714.355	8787.5
1718.788	8673.5
1723.218	8571.5
1727.643	8388.5
1732.064	8245.5
1736.481	8078.5
1740.893	7883.5
1745.301	7645.5
1749.705	7453.5
1754.105	7283.5
1758.501	7022.5
1762.893	6837.5
1767.28	6677.5
1771.663	6496.5
1776.042	6359.5
1780.417	6319.5
1784.787	6312.5
1789.154	6385.5
1793.516	6517.5
1797.874	6626.5
1802.228	6787.5
1806.578	6901.5
1810.924	6861.5
1815.266	6852.5
1819.603	6744.5
1823.937	6585.5
1828.266	6488.5
1832.591	6378.5
1836.913	6297.5
1841.23	6229.5
1845.543	6186.5
1849.852	6172.5
1854.156	6115.5
1858.457	6097.5
1862.754	6134.5
1867.047	6079.5
1871.335	6076.5
1875.62	6055.5
1879.9	6072.5
1884.177	5962.5
1888.449	5942.5
1892.718	5874.5
1896.982	5834.5
1901.243	5734.5
1905.499	5708.5
1909.752	5692.5
1914	5694.5
1918.245	5696.5
1922.485	5781.5
1926.722	5828.5
1930.954	5946.5
1935.183	5977.5
1939.408	6100.5
1943.628	6110.5
1947.845	6108.5
1952.058	6096.5
1956.267	6056.5
1960.472	5973.5
1964.673	5877.5
1968.87	5813.5
1973.063	5686.5
1977.252	5635.5
1981.438	5582.5
1985.619	5518.5
1989.797	5456.5
1993.971	5398.5
1998.14	5408.5
2002.306	5361.5
2006.469	5335.5
2010.627	5294.5
2014.781	5270.5
2018.932	5245.5
2023.078	5171.5
2027.221	5115.5
2031.36	4994.5
2035.495	4934.5
2039.627	4846.5
2043.754	4795.5
2047.878	4740.5
2051.998	4694.5
2056.114	4711.5
2060.226	4682.5
2064.334	4685.5
2068.439	4727.5
2072.54	4756.5
2076.637	4787.5
2080.73	4785.5
2084.82	4866.5
2088.906	4851.5
2092.988	4873.5
2097.066	4857.5
2101.14	4853.5
2105.211	4786.5
2109.278	4785.5
2113.342	4748.5
2117.401	4717.5
2121.457	4697.5
2125.509	4690.5
2129.558	4621.5
2133.602	4627.5
2137.643	4625.5
2141.681	4594.5
2145.714	4540.5
2149.744	4482.5
2153.77	4497.5
2157.793	4444.5
2161.812	4364.5
2165.827	4297.5
2169.838	4228.5
2173.846	4174.5
2177.851	4134.5
2181.851	4030.5
2185.848	4023.5
2189.841	3958.5
2193.831	3925.5
2197.817	3857.5
2201.799	3869.5
2205.778	3830.5
2209.753	3830.5
2213.725	3813.5
2217.693	3780.5
2221.657	3777.5
2225.618	3784.5
2229.575	3739.5
2233.529	3703.5
2237.479	3705.5
2241.425	3627.5
2245.368	3612.5
2249.307	3554.5
2253.243	3503.5
2257.175	3473.5
2261.104	3392.5
2265.029	3409.5
2268.95	3340.5
2272.868	3281.5
2276.783	3249.5
2280.694	3242.5
2284.601	3236.5
2288.505	3181.5
2292.405	3143.5
2296.302	3124.5
2300.195	3100.5
2304.085	3056.5
2307.971	3007.5
2311.854	2967.5
2315.734	2908.5
2319.609	2858.5
2323.482	2847.5
2327.351	2833.5
2331.216	2806.5
2335.078	2794.5
2338.937	2765.5
2342.792	2745.5
2346.643	2730.5
2350.492	2757.5
2354.336	2755.5
2358.178	2777.5
2362.015	2758.5
2365.85	2782.5
2369.681	2762.5
2373.508	2788.5
2377.333	2788.5
2381.153	2755.5
2384.971	2745.5
2388.785	2721.5
2392.595	2709.5
2396.402	2657.5
2400.206	2664.5
2404.007	2640.5
2407.804	2629.5
2411.597	2616.5
2415.388	2583.5
2419.174	2575.5
2422.958	2538.5
2426.738	2523.5
2430.515	2518.5
2434.289	2492.5
2438.059	2474.5
2441.825	2468.5
2445.589	2428.5
2449.349	2393.5
2453.106	2363.5
2456.859	2356.5
2460.61	2303.5
2464.356	2282.5
2468.1	2246.5
2471.84	2217.5
2475.577	2206.5
2479.311	2192.5
2483.041	2193.5
2486.768	2181.5
2490.492	2175.5
2494.213	2152.5
2497.93	2146.5
2501.644	2128.5
2505.355	2134.5
2509.062	2128.5
2512.766	2118.5
2516.467	2109.5
2520.165	2095.5
2523.859	2071.5
2527.551	2074.5
2531.239	2046.5
2534.923	2023.5
2538.605	2019.5
2542.283	1997.5
2545.958	2001.5
2549.63	2024.5
2553.299	2008.5
2556.964	2008.5
2560.626	2004.5
2564.285	1988.5
2567.941	1977.5
2571.594	1965.5
2575.243	1952.5
2578.89	1946.5
2582.533	1921.5
2586.173	1923.5
2589.809	1897.5
2593.443	1886.5
2597.073	1876.5
2600.701	1845.5
2604.325	1841.5
2607.946	1817.5
2611.564	1814.5
2615.178	1813.5
2618.79	1796.5
2622.398	1775.5
2626.004	1787.5
2629.606	1739.5
2633.205	1717.5
2636.801	1679.5
2640.394	1650.5
2643.983	1659.5
2647.57	1615.5
2651.153	1585.5
2654.734	1543.5
2658.311	1524.5
2661.885	1518.5
2665.456	1487.5
2669.025	1477.5
2672.589	1450.5
2676.151	1462.5
2679.71	1429.5
2683.266	1418.5
2686.819	1382.5
2690.368	1371.5
2693.915	1292.5
2697.458	1293.5
2700.999	1254.5
2704.536	1244.5
2708.071	1205.5
2711.602	1184.5
2715.13	1146.5
2718.656	1124.5
2722.178	1099.5
2725.697	1088.5
2729.214	1070.5
2732.727	1071.5
2736.237	1056.5
2739.744	1040.5
2743.249	1051.5
2746.75	1085.5
2750.248	1071.5
2753.743	1092.5
2757.236	1101.5
2760.725	1116.5
2764.211	1131.5
2767.695	1133.5
2771.175	1122.5
2774.652	1140.5
2778.127	1111.5
2781.598	1106.5
2785.067	1084.5
2788.532	1097.5
2791.995	1085.5
2795.455	1080.5
2798.911	1084.5
2802.365	1088.5
2805.816	1106.5
2809.264	1094.5
2812.709	1089.5
2816.151	1082.5
2819.59	1090.5
2823.026	1077.5
2826.46	1086.5
2829.89	1089.5
2833.318	1090.5
2836.742	1118.5
2840.164	1099.5
2843.583	1092.5
2846.999	1134.5
2850.412	1111.5
2853.822	1141.5
2857.229	1154.5
2860.634	1168.5
2864.035	1178.5
2867.434	1220.5
2870.83	1235.5
2874.223	1248.5
2877.613	1273.5
2881	1279.5
2884.385	1268.5
2887.766	1284.5
2891.145	1264.5
2894.521	1269.5
2897.894	1264.5
2901.264	1251.5
2904.631	1260.5
2907.996	1263.5
2911.358	1275.5
2914.717	1274.5
2918.073	1292.5
2921.426	1269.5
2924.777	1305.5
2928.124	1310.5
2931.469	1350.5
2934.811	1367.5
2938.15	1392.5
2941.487	1396.5
2944.821	1386.5
2948.152	1392.5
2951.48	1401.5
2954.805	1360.5
2958.128	1338.5
2961.447	1353.5
2964.765	1337.5
2968.079	1328.5
2971.39	1342.5
2974.699	1367.5
2978.005	1392.5
2981.308	1427.5
2984.609	1448.5
2987.907	1465.5
2991.202	1499.5
2994.494	1541.5
2997.784	1563.5
3001.07	1591.5
3004.355	1613.5
3007.636	1635.5
3010.915	1653.5
3014.191	1661.5
3017.464	1676.5
3020.734	1685.5
3024.002	1701.5
3027.267	1701.5
3030.53	1714.5
3033.789	1724.5
3037.046	1753.5
3040.301	1776.5
3043.552	1810.5
3046.801	1844.5
3050.048	1902.5
3053.291	1920.5
3056.532	1977.5
3059.771	2028.5
3063.006	2101.5
3066.239	2159.5
3069.469	2213.5
3072.697	2247.5
3075.922	2331.5
3079.144	2364.5
3082.364	2434.5
3085.581	2492.5
3088.795	2545.5
3092.007	2579.5
3095.216	2668.5
3098.423	2695.5
3101.627	2769.5
3104.828	2818.5
3108.026	2868.5
3111.222	2950.5
3114.416	3007.5
3117.607	3062.5
3120.795	3133.5
3123.98	3229.5
3127.163	3289.5
3130.344	3387.5
3133.521	3445.5
3136.696	3534.5
3139.869	3590.5
3143.039	3635.5
3146.206	3715.5
3149.371	3735.5
3152.533	3790.5
3155.693	3792.5
3158.85	3823.5
3162.005	3828.5
3165.157	3853.5
3168.306	3862.5
3171.453	3876.5
3174.597	3861.5
3177.739	3857.5
3180.878	3882.5
3184.014	3881.5
3187.149	3886.5
3190.28	3922.5
3193.409	3900.5
3196.536	3921.5
3199.659	3940.5
3202.781	3924.5
3205.9	3901.5
3209.016	3924.5
3212.13	3878.5
3215.241	3862.5
3218.35	3833.5
3221.456	3788.5
3224.56	3742.5
3227.661	3693.5
3230.76	3650.5
3233.856	3637.5
3236.95	3590.5
3240.041	3567.5
3243.13	3531.5
3246.216	3507.5
3249.3	3511.5
3252.382	3509.5
3255.46	3482.5
3258.537	3466.5
3261.611	3462.5
3264.682	3454.5
3267.751	3441.5
3270.818	3452.5
3273.882	3463.5
3276.943	3431.5
3280.002	3414.5
3283.059	3360.5
3286.113	3323.5
3289.165	3278.5
3292.214	3207.5
3295.261	3180.5
3298.306	3123.5
3301.348	3049.5
3304.387	3016.5
3307.425	2936.5
3310.459	2930.5
3313.492	2891.5
3316.521	2811.5
3319.549	2791.5
3322.574	2768.5
3325.597	2766.5
3328.617	2754.5
3331.635	2697.5
3334.65	2698.5
3337.663	2692.5
3340.674	2651.5
3343.682	2654.5
3346.688	2641.5
3349.691	2644.5
3352.692	2608.5
3355.691	2581.5
3358.687	2586.5
3361.681	2570.5
3364.673	2524.5
3367.662	2466.5
3370.649	2441.5
3373.633	2398.5
3376.615	2398.5
3379.595	2323.5
3382.572	2307.5
3385.547	2275.5
3388.52	2223.5
3391.49	2202.5
3394.458	2160.5
3397.424	2127.5
3400.387	2099.5
3403.348	2073.5
3406.307	2062.5
3409.263	2035.5
3412.217	2015.5
3415.168	1989.5
3418.118	1975.5
3421.065	1932.5
3424.009	1906.5
3426.951	1866.5
3429.891	1845.5
3432.829	1802.5
3435.764	1752.5
3438.697	1714.5
3441.628	1673.5
3444.557	1634.5
3447.483	1571.5
3450.407	1518.5
3453.328	1473.5
3456.247	1439.5
3459.164	1379.5
3462.079	1320.5
3464.991	1278.5
3467.902	1221.5
3470.809	1160.5
3473.715	1136.5
3476.618	1102.5
3479.519	1063.5
3482.418	1030.5
3485.315	998.5
3488.209	956.5
3491.101	912.5
3493.99	875.5
3496.878	838.5
3499.763	826.5
3502.646	791.5
3505.527	746.5
3508.405	727.5
3511.281	670.5
3514.155	646.5
3517.027	591.5
3519.897	569.5
3522.764	520.5
3525.629	489.5
3528.492	440.5
3531.352	401.5
3534.211	364.5
3537.067	327.5
3539.921	287.5
3542.773	258.5
3545.622	226.5
3548.469	193.5
3551.315	164.5
3554.157	141.5
3556.998	123.5
3559.837	82.5
3562.673	80.5
3565.507	44.5
3568.339	33.5
3571.169	13.5
3573.996	-10.5
3576.822	-23.5
3579.645	-49.5
3582.466	-66.5
3585.285	-82.5
3588.101	-108.5
3590.916	-123.5
3593.728	-156.5
3596.538	-163.5
3599.346	-175.5
3602.152	-195.5
3604.956	-205.5
3607.757	-222.5
3610.556	-253.5
3613.354	-255.5
3616.149	-267.5
3618.942	-277.5
3621.732	-288.5
3624.521	-312.5
3627.307	-309.5
3630.092	-325.5
3632.874	-332.5
3635.654	-341.5
3638.432	-347.5
3641.208	-353.5
3643.982	-368.5
3646.753	-371.5
3649.523	-378.5
3652.29	-385.5
3655.055	-396.5
3657.818	-401.5
3660.579	-417.5
3663.338	-431.5
3666.095	-435.5
3668.849	-453.5
3671.602	-452.5
3674.352	-465.5
3677.101	-469.5
3679.847	-480.5
3682.591	-484.5
3685.333	-493.5
3688.073	-493.5
3690.811	-497.5
3693.547	-506.5
3696.281	-508.5
3699.013	-510.5
3701.742	-519.5
3704.47	-520.5
3707.195	-533.5
3709.919	-531.5
3712.64	-536.5
3715.359	-532.5
3718.076	-545.5
3720.792	-543.5
3723.505	-543.5
3726.216	-559.5
3728.925	-552.5
3731.632	-559.5
3734.336	-563.5
3737.039	-562.5
3739.74	-563.5
3742.439	-566.5
3745.136	-566.5
3747.83	-576.5
3750.523	-574.5
3753.213	-549.5
3755.902	-577.5
3758.589	-579.5
3761.273	-579.5
3763.956	-586.5
3766.636	-585.5
3769.315	-588.5
3771.991	-587.5
3774.665	-589.5
3777.338	-594.5
3780.008	-597.5
3782.677	-599.5
3785.343	-584.5
3788.007	-594.5
3790.67	-600.5
3793.33	-603.5
3795.989	-599.5
3798.645	-601.5
3801.299	-605.5
3803.952	-607.5
3806.602	-612.5
3809.251	-610.5
3811.897	-606.5
3814.542	-608.5
3817.184	-604.5
3819.825	-609.5
3822.463	-605.5
3825.1	-614.5
3827.735	-603.5
3830.367	-606.5
3832.998	-615.5
3835.627	-617.5
3838.253	-621.5
3840.878	-628.5
3843.501	-617.5
3846.122	-617.5
3848.741	-616.5
3851.358	-620.5
3853.973	-618.5
3856.586	-624.5
3859.197	-626.5
3861.806	-619.5
3864.414	-619.5
3867.019	-618.5
3869.622	-620.5
3872.224	-618.5
3874.823	-605.5
3877.421	-593.5
3880.016	-576.5
3882.61	-563.5
3885.202	-554.5
3887.792	-570.5
3890.38	-596.5
3892.966	-613.5
3895.55	-625.5
3898.132	-636.5
3900.713	-638.5
3903.291	-631.5
3905.868	-633.5
3908.442	-634.5
3911.015	-637.5
3913.586	-630.5
3916.155	-635.5
3918.722	-638.5
3921.287	-633.5
3923.85	-637.5
3926.411	-633.5
3928.971	-644.5
3931.528	-637.5
3934.084	-638.5
3936.638	-633.5
3939.19	-634.5
3941.74	-636.5
3944.288	-639.5
3946.834	-631.5
3949.378	-637.5
3951.921	-638.5
3954.462	-641.5
3957	-636.5
3959.537	-637.5
3962.072	-636.5
3964.606	-635.5
3967.137	-643.5
3969.667	-637.5
3972.194	-634.5
3974.72	-636.5
3977.244	-622.5
3979.766	-626.5
3982.286	-624.5
3984.805	-627.5
3987.321	-621.5
3989.836	-621.5
3992.349	-620.5
3994.86	-624.5
3997.369	-626.5
3999.877	-620.5
4002.382	-618.5
4004.886	-622.5
4007.388	-614.5
4009.888	-622.5
4012.386	-619.5
4014.883	-625.5
4017.377	-624.5
4019.87	-618.5
4022.361	-622.5
4024.85	-628.5
4027.338	-627.5
4029.823	-627.5
4032.307	-629.5
4034.789	-622.5
4037.269	-620.5
4039.747	-630.5
4042.224	-631.5
4044.699	-628.5
4047.172	-619.5
4049.643	-623.5
4052.112	-626.5
4054.58	-629.5
4057.046	-628.5
4059.51	-627.5
4061.972	-627.5
4064.432	-627.5
4066.891	-627.5
4069.348	-627.5
4071.803	-621.5
4074.256	-623.5
4076.708	-628.5
4079.158	-627.5
4081.606	-630.5
4084.052	-635.5
4086.497	-633.5
4088.939	-622.5
4091.38	-627.5
4093.819	-623.5
4096.257	-658.5
4098.693	-655.5
4101.127	-660.5
4103.559	-660.5
4105.989	-387.5
4108.418	-354.5
4110.845	-339.5
4113.27	-303.5
4115.694	-271.5
4118.115	-232.5
4120.535	-624.5
4122.954	-625.5
4125.37	-618.5
4127.785	-622.5
4130.198	-625.5
4132.609	-625.5
4135.019	-659.5
4137.427	-660.5
4139.833	-658.5
4142.237	-657.5
