Data from 2018-2-14_conc=2_n=3_RamanShift_03.txt Node
Date: Wed Feb 14 11:07:26 IST 2018
User: aro
Spectrometer: QEPB0276
Trigger mode: 0
Integration Time (sec): 3.000000E1
Scans to average: 1
Electric dark correction enabled: true
Nonlinearity correction enabled: false
Boxcar width: 0
XAxis mode: Raman Shifts
Number of Pixels in Spectrum: 1044
>>>>>Begin Spectral Data<<<<<
160.701	-151.4
166.742	40.6
172.777	606.6
178.805	2305.6
184.826	6364.6
190.841	13400.6
196.849	21596.6
202.85	27285.6
208.845	29230.6
214.833	28926.6
220.815	28444.6
226.789	28278.6
232.758	28135.6
238.719	27978.6
244.674	27629.6
250.623	27189.6
256.565	26611.6
262.5	26068.6
268.429	25603.6
274.351	25199.6
280.267	24834.6
286.176	24603.6
292.079	24352.6
297.975	24157.6
303.865	23929.6
309.748	23744.6
315.625	23667.6
321.495	23467.6
327.359	23424.6
333.217	23409.6
339.068	23377.6
344.912	23323.6
350.751	23310.6
356.583	23298.6
362.408	23243.6
368.227	23279.6
374.04	23365.6
379.847	23248.6
385.647	23458.6
391.44	23494.6
397.228	23603.6
403.009	23738.6
408.784	23728.6
414.553	23875.6
420.315	23876.6
426.071	23943.6
431.821	23962.6
437.565	23890.6
443.302	23882.6
449.033	23830.6
454.758	23736.6
460.477	23704.6
466.189	23650.6
471.896	23663.6
477.596	23540.6
483.29	23488.6
488.978	23490.6
494.66	23438.6
500.335	23242.6
506.005	23030.6
511.668	22759.6
517.325	22460.6
522.977	22369.6
528.622	22234.6
534.261	22046.6
539.894	21952.6
545.521	21843.6
551.141	21818.6
556.756	21760.6
562.365	21648.6
567.968	21533.6
573.565	21442.6
579.155	21429.6
584.74	21323.6
590.319	21226.6
595.892	21137.6
601.459	21109.6
607.02	20913.6
612.575	20879.6
618.124	20694.6
623.667	20674.6
629.204	20514.6
634.735	20449.6
640.261	20365.6
645.781	20278.6
651.294	20271.6
656.802	20219.6
662.304	20174.6
667.8	20197.6
673.29	20113.6
678.775	20118.6
684.254	19946.6
689.726	19956.6
695.193	19882.6
700.655	19761.6
706.11	19678.6
711.56	19582.6
717.004	19472.6
722.442	19389.6
727.874	19341.6
733.301	19220.6
738.722	19184.6
744.137	19188.6
749.547	19163.6
754.951	19150.6
760.349	19164.6
765.741	19106.6
771.128	19175.6
776.509	19225.6
781.885	19178.6
787.254	19095.6
792.618	19107.6
797.977	18950.6
803.33	18814.6
808.677	18705.6
814.019	18622.6
819.355	18493.6
824.686	18443.6
830.011	18365.6
835.33	18385.6
840.644	18355.6
845.952	18328.6
851.255	18429.6
856.552	18459.6
861.844	18439.6
867.13	18408.6
872.41	18321.6
877.686	18243.6
882.955	18082.6
888.219	17960.6
893.478	17765.6
898.731	17530.6
903.979	17375.6
909.221	17206.6
914.458	17190.6
919.69	17139.6
924.916	17152.6
930.136	17225.6
935.351	17308.6
940.561	17311.6
945.766	17291.6
950.965	17193.6
956.158	17044.6
961.347	16877.6
966.529	16657.6
971.707	16463.6
976.879	16257.6
982.046	16126.6
987.208	16090.6
992.364	16032.6
997.515	16199.6
1002.66	16281.6
1007.801	16469.6
1012.936	16606.6
1018.066	16614.6
1023.19	16584.6
1028.309	16596.6
1033.423	16583.6
1038.532	16474.6
1043.636	16349.6
1048.734	16105.6
1053.827	15924.6
1058.915	15766.6
1063.998	15631.6
1069.075	15612.6
1074.147	15599.6
1079.214	15653.6
1084.276	15763.6
1089.333	15844.6
1094.385	15961.6
1099.431	15974.6
1104.472	16012.6
1109.509	15897.6
1114.54	15715.6
1119.565	15497.6
1124.586	15303.6
1129.602	15111.6
1134.613	15052.6
1139.618	14993.6
1144.619	14922.6
1149.614	14921.6
1154.604	15005.6
1159.589	15046.6
1164.57	15016.6
1169.545	15081.6
1174.515	15054.6
1179.48	14992.6
1184.44	14870.6
1189.395	14761.6
1194.345	14652.6
1199.29	14634.6
1204.23	14551.6
1209.165	14609.6
1214.095	14691.6
1219.021	14759.6
1223.941	14817.6
1228.856	14903.6
1233.766	14989.6
1238.672	14946.6
1243.572	14971.6
1248.467	14910.6
1253.358	14674.6
1258.244	14495.6
1263.124	14322.6
1268	14101.6
1272.871	13898.6
1277.737	13810.6
1282.599	13736.6
1287.455	13745.6
1292.306	13769.6
1297.153	13825.6
1301.995	13918.6
1306.832	13941.6
1311.664	13946.6
1316.491	13871.6
1321.314	13802.6
1326.132	13589.6
1330.945	13281.6
1335.753	12987.6
1340.556	12631.6
1345.354	12370.6
1350.148	12167.6
1354.937	12086.6
1359.722	12051.6
1364.501	12142.6
1369.276	12250.6
1374.046	12461.6
1378.811	12689.6
1383.572	12802.6
1388.327	12898.6
1393.079	12761.6
1397.825	12612.6
1402.567	12358.6
1407.304	12269.6
1412.036	12187.6
1416.764	12070.6
1421.487	11969.6
1426.205	11936.6
1430.919	11835.6
1435.628	11863.6
1440.333	11908.6
1445.032	11919.6
1449.727	11942.6
1454.418	11920.6
1459.104	11788.6
1463.785	11600.6
1468.462	11364.6
1473.134	11106.6
1477.802	10833.6
1482.465	10689.6
1487.123	10557.6
1491.777	10555.6
1496.426	10576.6
1501.071	10736.6
1505.711	10911.6
1510.347	11097.6
1514.978	11279.6
1519.604	11466.6
1524.226	11564.6
1528.844	11634.6
1533.457	11598.6
1538.065	11526.6
1542.669	11493.6
1547.269	11372.6
1551.864	11250.6
1556.454	11265.6
1561.041	11183.6
1565.622	11154.6
1570.199	11264.6
1574.772	11223.6
1579.34	11316.6
1583.904	11390.6
1588.464	11416.6
1593.019	11391.6
1597.569	11335.6
1602.115	11293.6
1606.657	11183.6
1611.195	11103.6
1615.728	11046.6
1620.256	11018.6
1624.78	11007.6
1629.3	11011.6
1633.816	11034.6
1638.327	11102.6
1642.834	11169.6
1647.336	11204.6
1651.834	11275.6
1656.328	11204.6
1660.817	11191.6
1665.302	11055.6
1669.783	10841.6
1674.259	10624.6
1678.732	10313.6
1683.199	9995.6
1687.663	9644.6
1692.122	9348.6
1696.577	9170.6
1701.028	9205.6
1705.474	9262.6
1709.917	9397.6
1714.355	9456.6
1718.788	9406.6
1723.218	9262.6
1727.643	9085.6
1732.064	8909.6
1736.481	8735.6
1740.893	8465.6
1745.301	8281.6
1749.705	8044.6
1754.105	7800.6
1758.501	7603.6
1762.893	7389.6
1767.28	7161.6
1771.663	7051.6
1776.042	6903.6
1780.417	6844.6
1784.787	6813.6
1789.154	6886.6
1793.516	7024.6
1797.874	7201.6
1802.228	7287.6
1806.578	7414.6
1810.924	7425.6
1815.266	7362.6
1819.603	7284.6
1823.937	7141.6
1828.266	7007.6
1832.591	6914.6
1836.913	6807.6
1841.23	6736.6
1845.543	6684.6
1849.852	6644.6
1854.156	6603.6
1858.457	6598.6
1862.754	6575.6
1867.047	6563.6
1871.335	6546.6
1875.62	6534.6
1879.9	6518.6
1884.177	6511.6
1888.449	6427.6
1892.718	6373.6
1896.982	6282.6
1901.243	6202.6
1905.499	6183.6
1909.752	6176.6
1914	6173.6
1918.245	6195.6
1922.485	6220.6
1926.722	6287.6
1930.954	6363.6
1935.183	6455.6
1939.408	6537.6
1943.628	6583.6
1947.845	6602.6
1952.058	6564.6
1956.267	6544.6
1960.472	6439.6
1964.673	6357.6
1968.87	6262.6
1973.063	6102.6
1977.252	6072.6
1981.438	5964.6
1985.619	5917.6
1989.797	5869.6
1993.971	5829.6
1998.14	5798.6
2002.306	5741.6
2006.469	5763.6
2010.627	5741.6
2014.781	5705.6
2018.932	5640.6
2023.078	5575.6
2027.221	5484.6
2031.36	5430.6
2035.495	5318.6
2039.627	5282.6
2043.754	5189.6
2047.878	5130.6
2051.998	5078.6
2056.114	5111.6
2060.226	5089.6
2064.334	5078.6
2068.439	5087.6
2072.54	5136.6
2076.637	5173.6
2080.73	5194.6
2084.82	5197.6
2088.906	5225.6
2092.988	5265.6
2097.066	5245.6
2101.14	5209.6
2105.211	5157.6
2109.278	5130.6
2113.342	5091.6
2117.401	5066.6
2121.457	5075.6
2125.509	5043.6
2129.558	5053.6
2133.602	4950.6
2137.643	4975.6
2141.681	4931.6
2145.714	4901.6
2149.744	4864.6
2153.77	4824.6
2157.793	4795.6
2161.812	4730.6
2165.827	4628.6
2169.838	4586.6
2173.846	4501.6
2177.851	4434.6
2181.851	4327.6
2185.848	4304.6
2189.841	4250.6
2193.831	4221.6
2197.817	4153.6
2201.799	4125.6
2205.778	4123.6
2209.753	4105.6
2213.725	4086.6
2217.693	4067.6
2221.657	4058.6
2225.618	4050.6
2229.575	4022.6
2233.529	3989.6
2237.479	3972.6
2241.425	3908.6
2245.368	3858.6
2249.307	3824.6
2253.243	3749.6
2257.175	3720.6
2261.104	3629.6
2265.029	3631.6
2268.95	3558.6
2272.868	3544.6
2276.783	3510.6
2280.694	3464.6
2284.601	3437.6
2288.505	3400.6
2292.405	3354.6
2296.302	3324.6
2300.195	3310.6
2304.085	3265.6
2307.971	3214.6
2311.854	3168.6
2315.734	3101.6
2319.609	3082.6
2323.482	3038.6
2327.351	2978.6
2331.216	2994.6
2335.078	2958.6
2338.937	2973.6
2342.792	2920.6
2346.643	2923.6
2350.492	2910.6
2354.336	2952.6
2358.178	2915.6
2362.015	2926.6
2365.85	2931.6
2369.681	2952.6
2373.508	2945.6
2377.333	2929.6
2381.153	2914.6
2384.971	2887.6
2388.785	2893.6
2392.595	2839.6
2396.402	2832.6
2400.206	2825.6
2404.007	2793.6
2407.804	2768.6
2411.597	2756.6
2415.388	2744.6
2419.174	2722.6
2422.958	2703.6
2426.738	2661.6
2430.515	2660.6
2434.289	2629.6
2438.059	2596.6
2441.825	2596.6
2445.589	2565.6
2449.349	2532.6
2453.106	2536.6
2456.859	2482.6
2460.61	2452.6
2464.356	2417.6
2468.1	2369.6
2471.84	2357.6
2475.577	2355.6
2479.311	2324.6
2483.041	2317.6
2486.768	2297.6
2490.492	2303.6
2494.213	2295.6
2497.93	2284.6
2501.644	2266.6
2505.355	2241.6
2509.062	2251.6
2512.766	2218.6
2516.467	2199.6
2520.165	2205.6
2523.859	2186.6
2527.551	2177.6
2531.239	2166.6
2534.923	2149.6
2538.605	2152.6
2542.283	2124.6
2545.958	2133.6
2549.63	2135.6
2553.299	2122.6
2556.964	2120.6
2560.626	2110.6
2564.285	2112.6
2567.941	2085.6
2571.594	2091.6
2575.243	2070.6
2578.89	2021.6
2582.533	2045.6
2586.173	2020.6
2589.809	1997.6
2593.443	1986.6
2597.073	1972.6
2600.701	1954.6
2604.325	1942.6
2607.946	1915.6
2611.564	1897.6
2615.178	1899.6
2618.79	1890.6
2622.398	1864.6
2626.004	1849.6
2629.606	1827.6
2633.205	1806.6
2636.801	1762.6
2640.394	1764.6
2643.983	1722.6
2647.57	1718.6
2651.153	1667.6
2654.734	1655.6
2658.311	1614.6
2661.885	1598.6
2665.456	1562.6
2669.025	1539.6
2672.589	1513.6
2676.151	1514.6
2679.71	1518.6
2683.266	1487.6
2686.819	1440.6
2690.368	1414.6
2693.915	1404.6
2697.458	1368.6
2700.999	1331.6
2704.536	1304.6
2708.071	1271.6
2711.602	1248.6
2715.13	1223.6
2718.656	1189.6
2722.178	1177.6
2725.697	1176.6
2729.214	1151.6
2732.727	1125.6
2736.237	1133.6
2739.744	1114.6
2743.249	1117.6
2746.75	1146.6
2750.248	1149.6
2753.743	1146.6
2757.236	1174.6
2760.725	1183.6
2764.211	1202.6
2767.695	1200.6
2771.175	1199.6
2774.652	1184.6
2778.127	1177.6
2781.598	1193.6
2785.067	1166.6
2788.532	1169.6
2791.995	1142.6
2795.455	1166.6
2798.911	1158.6
2802.365	1162.6
2805.816	1163.6
2809.264	1152.6
2812.709	1164.6
2816.151	1155.6
2819.59	1159.6
2823.026	1142.6
2826.46	1151.6
2829.89	1173.6
2833.318	1149.6
2836.742	1167.6
2840.164	1162.6
2843.583	1176.6
2846.999	1186.6
2850.412	1212.6
2853.822	1226.6
2857.229	1215.6
2860.634	1266.6
2864.035	1267.6
2867.434	1289.6
2870.83	1316.6
2874.223	1329.6
2877.613	1346.6
2881	1365.6
2884.385	1353.6
2887.766	1379.6
2891.145	1369.6
2894.521	1365.6
2897.894	1365.6
2901.264	1355.6
2904.631	1347.6
2907.996	1369.6
2911.358	1361.6
2914.717	1367.6
2918.073	1377.6
2921.426	1419.6
2924.777	1432.6
2928.124	1426.6
2931.469	1457.6
2934.811	1485.6
2938.15	1498.6
2941.487	1505.6
2944.821	1519.6
2948.152	1505.6
2951.48	1508.6
2954.805	1505.6
2958.128	1481.6
2961.447	1465.6
2964.765	1474.6
2968.079	1481.6
2971.39	1478.6
2974.699	1500.6
2978.005	1517.6
2981.308	1563.6
2984.609	1580.6
2987.907	1599.6
2991.202	1615.6
2994.494	1657.6
2997.784	1712.6
3001.07	1721.6
3004.355	1771.6
3007.636	1789.6
3010.915	1794.6
3014.191	1824.6
3017.464	1824.6
3020.734	1837.6
3024.002	1852.6
3027.267	1863.6
3030.53	1862.6
3033.789	1903.6
3037.046	1940.6
3040.301	1947.6
3043.552	1981.6
3046.801	2043.6
3050.048	2089.6
3053.291	2142.6
3056.532	2173.6
3059.771	2233.6
3063.006	2273.6
3066.239	2375.6
3069.469	2427.6
3072.697	2514.6
3075.922	2558.6
3079.144	2640.6
3082.364	2670.6
3085.581	2737.6
3088.795	2812.6
3092.007	2887.6
3095.216	2904.6
3098.423	2979.6
3101.627	3043.6
3104.828	3135.6
3108.026	3165.6
3111.222	3262.6
3114.416	3310.6
3117.607	3412.6
3120.795	3476.6
3123.98	3570.6
3127.163	3627.6
3130.344	3729.6
3133.521	3815.6
3136.696	3913.6
3139.869	3978.6
3143.039	4054.6
3146.206	4116.6
3149.371	4160.6
3152.533	4182.6
3155.693	4183.6
3158.85	4260.6
3162.005	4249.6
3165.157	4263.6
3168.306	4298.6
3171.453	4294.6
3174.597	4309.6
3177.739	4320.6
3180.878	4317.6
3184.014	4333.6
3187.149	4333.6
3190.28	4349.6
3193.409	4351.6
3196.536	4358.6
3199.659	4333.6
3202.781	4345.6
3205.9	4359.6
3209.016	4332.6
3212.13	4316.6
3215.241	4308.6
3218.35	4268.6
3221.456	4205.6
3224.56	4193.6
3227.661	4098.6
3230.76	4091.6
3233.856	4055.6
3236.95	4019.6
3240.041	3986.6
3243.13	3917.6
3246.216	3939.6
3249.3	3911.6
3252.382	3881.6
3255.46	3899.6
3258.537	3864.6
3261.611	3851.6
3264.682	3862.6
3267.751	3861.6
3270.818	3865.6
3273.882	3836.6
3276.943	3822.6
3280.002	3810.6
3283.059	3749.6
3286.113	3717.6
3289.165	3678.6
3292.214	3606.6
3295.261	3529.6
3298.306	3469.6
3301.348	3425.6
3304.387	3365.6
3307.425	3314.6
3310.459	3250.6
3313.492	3220.6
3316.521	3163.6
3319.549	3131.6
3322.574	3093.6
3325.597	3086.6
3328.617	3057.6
3331.635	3045.6
3334.65	3030.6
3337.663	2998.6
3340.674	2990.6
3343.682	2975.6
3346.688	2977.6
3349.691	2977.6
3352.692	2957.6
3355.691	2906.6
3358.687	2903.6
3361.681	2859.6
3364.673	2825.6
3367.662	2780.6
3370.649	2736.6
3373.633	2702.6
3376.615	2671.6
3379.595	2621.6
3382.572	2605.6
3385.547	2540.6
3388.52	2515.6
3391.49	2476.6
3394.458	2443.6
3397.424	2426.6
3400.387	2387.6
3403.348	2331.6
3406.307	2312.6
3409.263	2314.6
3412.217	2260.6
3415.168	2259.6
3418.118	2213.6
3421.065	2187.6
3424.009	2169.6
3426.951	2132.6
3429.891	2084.6
3432.829	2033.6
3435.764	1993.6
3438.697	1963.6
3441.628	1883.6
3444.557	1839.6
3447.483	1774.6
3450.407	1721.6
3453.328	1666.6
3456.247	1617.6
3459.164	1544.6
3462.079	1501.6
3464.991	1459.6
3467.902	1387.6
3470.809	1330.6
3473.715	1275.6
3476.618	1254.6
3479.519	1219.6
3482.418	1181.6
3485.315	1113.6
3488.209	1087.6
3491.101	1057.6
3493.99	994.6
3496.878	962.6
3499.763	943.6
3502.646	906.6
3505.527	862.6
3508.405	803.6
3511.281	769.6
3514.155	739.6
3517.027	698.6
3519.897	650.6
3522.764	597.6
3525.629	558.6
3528.492	519.6
3531.352	477.6
3534.211	429.6
3537.067	392.6
3539.921	339.6
3542.773	307.6
3545.622	286.6
3548.469	246.6
3551.315	217.6
3554.157	211.6
3556.998	153.6
3559.837	134.6
3562.673	116.6
3565.507	77.6
3568.339	56.6
3571.169	33.6
3573.996	21.6
3576.822	-4.4
3579.645	-27.4
3582.466	-40.4
3585.285	-70.4
3588.101	-79.4
3590.916	-109.4
3593.728	-133.4
3596.538	-142.4
3599.346	-173.4
3602.152	-189.4
3604.956	-207.4
3607.757	-217.4
3610.556	-229.4
3613.354	-252.4
3616.149	-276.4
3618.942	-288.4
3621.732	-296.4
3624.521	-307.4
3627.307	-320.4
3630.092	-331.4
3632.874	-342.4
3635.654	-353.4
3638.432	-355.4
3641.208	-367.4
3643.982	-387.4
3646.753	-380.4
3649.523	-395.4
3652.29	-411.4
3655.055	-418.4
3657.818	-431.4
3660.579	-445.4
3663.338	-449.4
3666.095	-460.4
3668.849	-468.4
3671.602	-482.4
3674.352	-484.4
3677.101	-488.4
3679.847	-496.4
3682.591	-502.4
3685.333	-511.4
3688.073	-520.4
3690.811	-521.4
3693.547	-527.4
3696.281	-533.4
3699.013	-538.4
3701.742	-545.4
3704.47	-552.4
3707.195	-557.4
3709.919	-561.4
3712.64	-563.4
3715.359	-565.4
3718.076	-569.4
3720.792	-570.4
3723.505	-570.4
3726.216	-583.4
3728.925	-582.4
3731.632	-594.4
3734.336	-585.4
3737.039	-598.4
3739.74	-592.4
3742.439	-596.4
3745.136	-604.4
3747.83	-610.4
3750.523	-602.4
3753.213	-592.4
3755.902	-610.4
3758.589	-603.4
3761.273	-617.4
3763.956	-614.4
3766.636	-622.4
3769.315	-619.4
3771.991	-619.4
3774.665	-627.4
3777.338	-628.4
3780.008	-631.4
3782.677	-628.4
3785.343	-627.4
3788.007	-635.4
3790.67	-628.4
3793.33	-637.4
3795.989	-639.4
3798.645	-633.4
3801.299	-631.4
3803.952	-645.4
3806.602	-643.4
3809.251	-648.4
3811.897	-640.4
3814.542	-641.4
3817.184	-643.4
3819.825	-647.4
3822.463	-640.4
3825.1	-650.4
3827.735	-643.4
3830.367	-650.4
3832.998	-652.4
3835.627	-657.4
3838.253	-656.4
3840.878	-657.4
3843.501	-656.4
3846.122	-648.4
3848.741	-648.4
3851.358	-650.4
3853.973	-653.4
3856.586	-653.4
3859.197	-657.4
3861.806	-660.4
3864.414	-654.4
3867.019	-649.4
3869.622	-653.4
3872.224	-652.4
3874.823	-640.4
3877.421	-624.4
3880.016	-604.4
3882.61	-588.4
3885.202	-573.4
3887.792	-601.4
3890.38	-629.4
3892.966	-642.4
3895.55	-657.4
3898.132	-671.4
3900.713	-673.4
3903.291	-667.4
3905.868	-672.4
3908.442	-666.4
3911.015	-674.4
3913.586	-669.4
3916.155	-664.4
3918.722	-674.4
3921.287	-673.4
3923.85	-676.4
3926.411	-671.4
3928.971	-684.4
3931.528	-677.4
3934.084	-678.4
3936.638	-677.4
3939.19	-677.4
3941.74	-674.4
3944.288	-674.4
3946.834	-669.4
3949.378	-679.4
3951.921	-671.4
3954.462	-680.4
3957	-670.4
3959.537	-673.4
3962.072	-673.4
3964.606	-672.4
3967.137	-673.4
3969.667	-675.4
3972.194	-672.4
3974.72	-675.4
3977.244	-664.4
3979.766	-661.4
3982.286	-667.4
3984.805	-660.4
3987.321	-664.4
3989.836	-660.4
3992.349	-656.4
3994.86	-651.4
3997.369	-662.4
3999.877	-657.4
4002.382	-661.4
4004.886	-658.4
4007.388	-662.4
4009.888	-659.4
4012.386	-659.4
4014.883	-656.4
4017.377	-653.4
4019.87	-657.4
4022.361	-658.4
4024.85	-663.4
4027.338	-656.4
4029.823	-666.4
4032.307	-665.4
4034.789	-664.4
4037.269	-656.4
4039.747	-666.4
4042.224	-664.4
4044.699	-666.4
4047.172	-657.4
4049.643	-661.4
4052.112	-670.4
4054.58	-663.4
4057.046	-665.4
4059.51	-657.4
4061.972	-664.4
4064.432	-669.4
4066.891	-662.4
4069.348	-661.4
4071.803	-663.4
4074.256	-662.4
4076.708	-662.4
4079.158	-662.4
4081.606	-665.4
4084.052	-669.4
4086.497	-661.4
4088.939	-657.4
4091.38	-666.4
4093.819	-660.4
4096.257	-700.4
4098.693	-696.4
4101.127	-701.4
4103.559	-698.4
4105.989	-403.4
4108.418	-369.4
4110.845	-353.4
4113.27	-325.4
4115.694	-281.4
4118.115	-243.4
4120.535	-658.4
4122.954	-664.4
4125.37	-653.4
4127.785	-661.4
4130.198	-660.4
4132.609	-662.4
4135.019	-701.4
4137.427	-699.4
4139.833	-700.4
4142.237	-700.4
