Data from 2018-2-14_conc=5_n=10_RamanShift_05.txt Node
Date: Wed Feb 14 14:36:55 IST 2018
User: aro
Spectrometer: QEPB0276
Trigger mode: 0
Integration Time (sec): 3.000000E1
Scans to average: 1
Electric dark correction enabled: true
Nonlinearity correction enabled: false
Boxcar width: 0
XAxis mode: Raman Shifts
Number of Pixels in Spectrum: 1044
>>>>>Begin Spectral Data<<<<<
160.701	-137.6
166.742	38.4
172.777	545.4
178.805	2134.4
184.826	5872.4
190.841	12252.4
196.849	19828.4
202.85	25112.4
208.845	26921.4
214.833	26758.4
220.815	26147.4
226.789	26064.4
232.758	25839.4
238.719	25730.4
244.674	25350.4
250.623	24887.4
256.565	24389.4
262.5	23970.4
268.429	23470.4
274.351	23114.4
280.267	22905.4
286.176	22583.4
292.079	22357.4
297.975	22187.4
303.865	21949.4
309.748	21843.4
315.625	21740.4
321.495	21617.4
327.359	21518.4
333.217	21500.4
339.068	21536.4
344.912	21459.4
350.751	21456.4
356.583	21395.4
362.408	21396.4
368.227	21441.4
374.04	21514.4
379.847	21494.4
385.647	21557.4
391.44	21615.4
397.228	21715.4
403.009	21748.4
408.784	21867.4
414.553	21973.4
420.315	21989.4
426.071	22038.4
431.821	21968.4
437.565	21950.4
443.302	21914.4
449.033	21855.4
454.758	21866.4
460.477	21696.4
466.189	21744.4
471.896	21684.4
477.596	21575.4
483.29	21539.4
488.978	21528.4
494.66	21412.4
500.335	21314.4
506.005	21080.4
511.668	20820.4
517.325	20522.4
522.977	20291.4
528.622	20135.4
534.261	19947.4
539.894	19895.4
545.521	19784.4
551.141	19743.4
556.756	19593.4
562.365	19567.4
567.968	19462.4
573.565	19411.4
579.155	19258.4
584.74	19220.4
590.319	19144.4
595.892	19095.4
601.459	19002.4
607.02	18918.4
612.575	18807.4
618.124	18707.4
623.667	18579.4
629.204	18435.4
634.735	18313.4
640.261	18296.4
645.781	18230.4
651.294	18212.4
656.802	18163.4
662.304	18118.4
667.8	18086.4
673.29	18025.4
678.775	17981.4
684.254	17918.4
689.726	17863.4
695.193	17794.4
700.655	17645.4
706.11	17625.4
711.56	17587.4
717.004	17501.4
722.442	17379.4
727.874	17266.4
733.301	17188.4
738.722	17138.4
744.137	17115.4
749.547	17163.4
754.951	17113.4
760.349	17129.4
765.741	17116.4
771.128	17117.4
776.509	17092.4
781.885	17179.4
787.254	17068.4
792.618	16993.4
797.977	16910.4
803.33	16827.4
808.677	16712.4
814.019	16518.4
819.355	16508.4
824.686	16420.4
830.011	16388.4
835.33	16375.4
840.644	16401.4
845.952	16396.4
851.255	16400.4
856.552	16434.4
861.844	16353.4
867.13	16325.4
872.41	16239.4
877.686	16141.4
882.955	16012.4
888.219	15894.4
893.478	15730.4
898.731	15518.4
903.979	15331.4
909.221	15266.4
914.458	15200.4
919.69	15183.4
924.916	15215.4
930.136	15250.4
935.351	15283.4
940.561	15294.4
945.766	15196.4
950.965	15148.4
956.158	15008.4
961.347	14870.4
966.529	14663.4
971.707	14486.4
976.879	14313.4
982.046	14160.4
987.208	14119.4
992.364	14126.4
997.515	14219.4
1002.66	14332.4
1007.801	14482.4
1012.936	14561.4
1018.066	14638.4
1023.19	14573.4
1028.309	14538.4
1033.423	14502.4
1038.532	14433.4
1043.636	14291.4
1048.734	14100.4
1053.827	13963.4
1058.915	13842.4
1063.998	13707.4
1069.075	13668.4
1074.147	13683.4
1079.214	13746.4
1084.276	13825.4
1089.333	13894.4
1094.385	13926.4
1099.431	13947.4
1104.472	13925.4
1109.509	13861.4
1114.54	13705.4
1119.565	13544.4
1124.586	13381.4
1129.602	13186.4
1134.613	13161.4
1139.618	13074.4
1144.619	12990.4
1149.614	13022.4
1154.604	13028.4
1159.589	13024.4
1164.57	13060.4
1169.545	13099.4
1174.515	13102.4
1179.48	12993.4
1184.44	12870.4
1189.395	12822.4
1194.345	12711.4
1199.29	12676.4
1204.23	12654.4
1209.165	12716.4
1214.095	12783.4
1219.021	12817.4
1223.941	12876.4
1228.856	12932.4
1233.766	12972.4
1238.672	12999.4
1243.572	12983.4
1248.467	12857.4
1253.358	12717.4
1258.244	12557.4
1263.124	12368.4
1268	12178.4
1272.871	12032.4
1277.737	11864.4
1282.599	11857.4
1287.455	11876.4
1292.306	11830.4
1297.153	11856.4
1301.995	11949.4
1306.832	12030.4
1311.664	11996.4
1316.491	11944.4
1321.314	11820.4
1326.132	11642.4
1330.945	11403.4
1335.753	11127.4
1340.556	10897.4
1345.354	10683.4
1350.148	10461.4
1354.937	10380.4
1359.722	10342.4
1364.501	10318.4
1369.276	10403.4
1374.046	10466.4
1378.811	10589.4
1383.572	10670.4
1388.327	10729.4
1393.079	10753.4
1397.825	10589.4
1402.567	10513.4
1407.304	10369.4
1412.036	10262.4
1416.764	10173.4
1421.487	10145.4
1426.205	10144.4
1430.919	10063.4
1435.628	10018.4
1440.333	10059.4
1445.032	10115.4
1449.727	10131.4
1454.418	10127.4
1459.104	9936.4
1463.785	9839.4
1468.462	9605.4
1473.134	9404.4
1477.802	9185.4
1482.465	9002.4
1487.123	8880.4
1491.777	8870.4
1496.426	8859.4
1501.071	8949.4
1505.711	8993.4
1510.347	9140.4
1514.978	9317.4
1519.604	9380.4
1524.226	9478.4
1528.844	9468.4
1533.457	9487.4
1538.065	9448.4
1542.669	9382.4
1547.269	9297.4
1551.864	9305.4
1556.454	9297.4
1561.041	9319.4
1565.622	9273.4
1570.199	9273.4
1574.772	9381.4
1579.34	9405.4
1583.904	9506.4
1588.464	9513.4
1593.019	9516.4
1597.569	9476.4
1602.115	9456.4
1606.657	9394.4
1611.195	9335.4
1615.728	9305.4
1620.256	9263.4
1624.78	9247.4
1629.3	9282.4
1633.816	9307.4
1638.327	9312.4
1642.834	9357.4
1647.336	9420.4
1651.834	9414.4
1656.328	9335.4
1660.817	9253.4
1665.302	9169.4
1669.783	9031.4
1674.259	8786.4
1678.732	8521.4
1683.199	8244.4
1687.663	7909.4
1692.122	7652.4
1696.577	7571.4
1701.028	7504.4
1705.474	7464.4
1709.917	7502.4
1714.355	7464.4
1718.788	7431.4
1723.218	7346.4
1727.643	7239.4
1732.064	7100.4
1736.481	6953.4
1740.893	6801.4
1745.301	6576.4
1749.705	6439.4
1754.105	6233.4
1758.501	6080.4
1762.893	5894.4
1767.28	5741.4
1771.663	5638.4
1776.042	5567.4
1780.417	5477.4
1784.787	5470.4
1789.154	5519.4
1793.516	5562.4
1797.874	5660.4
1802.228	5729.4
1806.578	5796.4
1810.924	5774.4
1815.266	5709.4
1819.603	5643.4
1823.937	5583.4
1828.266	5462.4
1832.591	5403.4
1836.913	5330.4
1841.23	5272.4
1845.543	5251.4
1849.852	5228.4
1854.156	5235.4
1858.457	5199.4
1862.754	5201.4
1867.047	5190.4
1871.335	5155.4
1875.62	5179.4
1879.9	5147.4
1884.177	5110.4
1888.449	5054.4
1892.718	5000.4
1896.982	4942.4
1901.243	4875.4
1905.499	4850.4
1909.752	4845.4
1914	4807.4
1918.245	4831.4
1922.485	4816.4
1926.722	4893.4
1930.954	4923.4
1935.183	4961.4
1939.408	5002.4
1943.628	5058.4
1947.845	5035.4
1952.058	5039.4
1956.267	5004.4
1960.472	4959.4
1964.673	4849.4
1968.87	4774.4
1973.063	4707.4
1977.252	4657.4
1981.438	4590.4
1985.619	4576.4
1989.797	4537.4
1993.971	4514.4
1998.14	4478.4
2002.306	4484.4
2006.469	4474.4
2010.627	4438.4
2014.781	4400.4
2018.932	4385.4
2023.078	4301.4
2027.221	4255.4
2031.36	4193.4
2035.495	4144.4
2039.627	4113.4
2043.754	4014.4
2047.878	3970.4
2051.998	3974.4
2056.114	3947.4
2060.226	3930.4
2064.334	3922.4
2068.439	3939.4
2072.54	3958.4
2076.637	3985.4
2080.73	4000.4
2084.82	4021.4
2088.906	4047.4
2092.988	4020.4
2097.066	3987.4
2101.14	3984.4
2105.211	3951.4
2109.278	3916.4
2113.342	3928.4
2117.401	3881.4
2121.457	3855.4
2125.509	3841.4
2129.558	3829.4
2133.602	3814.4
2137.643	3778.4
2141.681	3758.4
2145.714	3716.4
2149.744	3684.4
2153.77	3697.4
2157.793	3635.4
2161.812	3620.4
2165.827	3542.4
2169.838	3500.4
2173.846	3424.4
2177.851	3368.4
2181.851	3334.4
2185.848	3286.4
2189.841	3250.4
2193.831	3182.4
2197.817	3166.4
2201.799	3152.4
2205.778	3141.4
2209.753	3134.4
2213.725	3127.4
2217.693	3124.4
2221.657	3128.4
2225.618	3110.4
2229.575	3082.4
2233.529	3054.4
2237.479	3070.4
2241.425	2965.4
2245.368	2922.4
2249.307	2932.4
2253.243	2858.4
2257.175	2843.4
2261.104	2784.4
2265.029	2737.4
2268.95	2729.4
2272.868	2672.4
2276.783	2647.4
2280.694	2618.4
2284.601	2612.4
2288.505	2584.4
2292.405	2528.4
2296.302	2518.4
2300.195	2510.4
2304.085	2474.4
2307.971	2406.4
2311.854	2381.4
2315.734	2351.4
2319.609	2342.4
2323.482	2279.4
2327.351	2274.4
2331.216	2265.4
2335.078	2270.4
2338.937	2224.4
2342.792	2216.4
2346.643	2213.4
2350.492	2217.4
2354.336	2211.4
2358.178	2218.4
2362.015	2243.4
2365.85	2239.4
2369.681	2230.4
2373.508	2247.4
2377.333	2226.4
2381.153	2233.4
2384.971	2216.4
2388.785	2194.4
2392.595	2173.4
2396.402	2154.4
2400.206	2108.4
2404.007	2118.4
2407.804	2119.4
2411.597	2103.4
2415.388	2061.4
2419.174	2067.4
2422.958	2031.4
2426.738	2028.4
2430.515	1995.4
2434.289	1998.4
2438.059	1961.4
2441.825	1944.4
2445.589	1942.4
2449.349	1899.4
2453.106	1896.4
2456.859	1855.4
2460.61	1840.4
2464.356	1817.4
2468.1	1794.4
2471.84	1777.4
2475.577	1744.4
2479.311	1759.4
2483.041	1722.4
2486.768	1734.4
2490.492	1689.4
2494.213	1687.4
2497.93	1695.4
2501.644	1675.4
2505.355	1677.4
2509.062	1647.4
2512.766	1665.4
2516.467	1644.4
2520.165	1612.4
2523.859	1601.4
2527.551	1594.4
2531.239	1584.4
2534.923	1579.4
2538.605	1567.4
2542.283	1556.4
2545.958	1561.4
2549.63	1563.4
2553.299	1539.4
2556.964	1532.4
2560.626	1536.4
2564.285	1520.4
2567.941	1508.4
2571.594	1482.4
2575.243	1486.4
2578.89	1478.4
2582.533	1460.4
2586.173	1447.4
2589.809	1446.4
2593.443	1423.4
2597.073	1406.4
2600.701	1397.4
2604.325	1396.4
2607.946	1387.4
2611.564	1363.4
2615.178	1365.4
2618.79	1339.4
2622.398	1325.4
2626.004	1314.4
2629.606	1313.4
2633.205	1268.4
2636.801	1259.4
2640.394	1249.4
2643.983	1212.4
2647.57	1216.4
2651.153	1199.4
2654.734	1163.4
2658.311	1144.4
2661.885	1129.4
2665.456	1110.4
2669.025	1093.4
2672.589	1084.4
2676.151	1083.4
2679.71	1069.4
2683.266	1052.4
2686.819	1026.4
2690.368	995.4
2693.915	991.4
2697.458	973.4
2700.999	938.4
2704.536	908.4
2708.071	881.4
2711.602	889.4
2715.13	864.4
2718.656	825.4
2722.178	813.4
2725.697	801.4
2729.214	789.4
2732.727	794.4
2736.237	767.4
2739.744	773.4
2743.249	781.4
2746.75	785.4
2750.248	779.4
2753.743	786.4
2757.236	802.4
2760.725	804.4
2764.211	802.4
2767.695	795.4
2771.175	801.4
2774.652	797.4
2778.127	790.4
2781.598	783.4
2785.067	782.4
2788.532	776.4
2791.995	786.4
2795.455	774.4
2798.911	784.4
2802.365	801.4
2805.816	788.4
2809.264	783.4
2812.709	798.4
2816.151	784.4
2819.59	793.4
2823.026	779.4
2826.46	789.4
2829.89	796.4
2833.318	793.4
2836.742	797.4
2840.164	810.4
2843.583	824.4
2846.999	823.4
2850.412	819.4
2853.822	854.4
2857.229	850.4
2860.634	888.4
2864.035	887.4
2867.434	918.4
2870.83	943.4
2874.223	956.4
2877.613	970.4
2881	996.4
2884.385	989.4
2887.766	1001.4
2891.145	1007.4
2894.521	1001.4
2897.894	1005.4
2901.264	985.4
2904.631	996.4
2907.996	1005.4
2911.358	1013.4
2914.717	1035.4
2918.073	1057.4
2921.426	1050.4
2924.777	1070.4
2928.124	1076.4
2931.469	1123.4
2934.811	1125.4
2938.15	1145.4
2941.487	1165.4
2944.821	1179.4
2948.152	1181.4
2951.48	1178.4
2954.805	1163.4
2958.128	1144.4
2961.447	1149.4
2964.765	1131.4
2968.079	1135.4
2971.39	1156.4
2974.699	1149.4
2978.005	1161.4
2981.308	1182.4
2984.609	1214.4
2987.907	1236.4
2991.202	1266.4
2994.494	1295.4
2997.784	1306.4
3001.07	1337.4
3004.355	1368.4
3007.636	1394.4
3010.915	1408.4
3014.191	1427.4
3017.464	1432.4
3020.734	1455.4
3024.002	1475.4
3027.267	1488.4
3030.53	1494.4
3033.789	1510.4
3037.046	1526.4
3040.301	1552.4
3043.552	1592.4
3046.801	1626.4
3050.048	1661.4
3053.291	1732.4
3056.532	1767.4
3059.771	1811.4
3063.006	1872.4
3066.239	1924.4
3069.469	2006.4
3072.697	2051.4
3075.922	2104.4
3079.144	2162.4
3082.364	2213.4
3085.581	2258.4
3088.795	2326.4
3092.007	2356.4
3095.216	2412.4
3098.423	2457.4
3101.627	2522.4
3104.828	2591.4
3108.026	2619.4
3111.222	2684.4
3114.416	2754.4
3117.607	2809.4
3120.795	2866.4
3123.98	2955.4
3127.163	3048.4
3130.344	3082.4
3133.521	3196.4
3136.696	3259.4
3139.869	3322.4
3143.039	3364.4
3146.206	3429.4
3149.371	3456.4
3152.533	3496.4
3155.693	3522.4
3158.85	3565.4
3162.005	3560.4
3165.157	3603.4
3168.306	3597.4
3171.453	3603.4
3174.597	3610.4
3177.739	3625.4
3180.878	3611.4
3184.014	3637.4
3187.149	3627.4
3190.28	3667.4
3193.409	3646.4
3196.536	3649.4
3199.659	3676.4
3202.781	3658.4
3205.9	3664.4
3209.016	3666.4
3212.13	3628.4
3215.241	3615.4
3218.35	3566.4
3221.456	3520.4
3224.56	3501.4
3227.661	3480.4
3230.76	3416.4
3233.856	3369.4
3236.95	3371.4
3240.041	3315.4
3243.13	3276.4
3246.216	3287.4
3249.3	3225.4
3252.382	3213.4
3255.46	3227.4
3258.537	3173.4
3261.611	3224.4
3264.682	3183.4
3267.751	3211.4
3270.818	3210.4
3273.882	3192.4
3276.943	3212.4
3280.002	3165.4
3283.059	3123.4
3286.113	3099.4
3289.165	3076.4
3292.214	2999.4
3295.261	2988.4
3298.306	2920.4
3301.348	2850.4
3304.387	2831.4
3307.425	2807.4
3310.459	2744.4
3313.492	2713.4
3316.521	2688.4
3319.549	2645.4
3322.574	2627.4
3325.597	2614.4
3328.617	2586.4
3331.635	2551.4
3334.65	2575.4
3337.663	2537.4
3340.674	2541.4
3343.682	2513.4
3346.688	2509.4
3349.691	2523.4
3352.692	2471.4
3355.691	2471.4
3358.687	2447.4
3361.681	2441.4
3364.673	2393.4
3367.662	2364.4
3370.649	2334.4
3373.633	2316.4
3376.615	2250.4
3379.595	2231.4
3382.572	2207.4
3385.547	2168.4
3388.52	2129.4
3391.49	2116.4
3394.458	2078.4
3397.424	2030.4
3400.387	2007.4
3403.348	1989.4
3406.307	1953.4
3409.263	1926.4
3412.217	1903.4
3415.168	1882.4
3418.118	1854.4
3421.065	1829.4
3424.009	1800.4
3426.951	1770.4
3429.891	1740.4
3432.829	1707.4
3435.764	1686.4
3438.697	1642.4
3441.628	1567.4
3444.557	1540.4
3447.483	1466.4
3450.407	1439.4
3453.328	1389.4
3456.247	1335.4
3459.164	1285.4
3462.079	1231.4
3464.991	1187.4
3467.902	1150.4
3470.809	1112.4
3473.715	1050.4
3476.618	1007.4
3479.519	980.4
3482.418	932.4
3485.315	910.4
3488.209	871.4
3491.101	829.4
3493.99	808.4
3496.878	771.4
3499.763	748.4
3502.646	715.4
3505.527	675.4
3508.405	618.4
3511.281	598.4
3514.155	566.4
3517.027	532.4
3519.897	494.4
3522.764	467.4
3525.629	413.4
3528.492	382.4
3531.352	346.4
3534.211	307.4
3537.067	286.4
3539.921	250.4
3542.773	213.4
3545.622	185.4
3548.469	142.4
3551.315	130.4
3554.157	105.4
3556.998	88.4
3559.837	57.4
3562.673	40.4
3565.507	11.4
3568.339	-10.6
3571.169	-11.6
3573.996	-45.6
3576.822	-58.6
3579.645	-72.6
3582.466	-91.6
3585.285	-116.6
3588.101	-125.6
3590.916	-145.6
3593.728	-169.6
3596.538	-176.6
3599.346	-187.6
3602.152	-213.6
3604.956	-221.6
3607.757	-235.6
3610.556	-256.6
3613.354	-269.6
3616.149	-271.6
3618.942	-288.6
3621.732	-302.6
3624.521	-314.6
3627.307	-312.6
3630.092	-334.6
3632.874	-335.6
3635.654	-351.6
3638.432	-359.6
3641.208	-365.6
3643.982	-380.6
3646.753	-381.6
3649.523	-395.6
3652.29	-397.6
3655.055	-402.6
3657.818	-415.6
3660.579	-427.6
3663.338	-435.6
3666.095	-436.6
3668.849	-452.6
3671.602	-458.6
3674.352	-460.6
3677.101	-464.6
3679.847	-482.6
3682.591	-484.6
3685.333	-490.6
3688.073	-484.6
3690.811	-493.6
3693.547	-494.6
3696.281	-499.6
3699.013	-499.6
3701.742	-512.6
3704.47	-515.6
3707.195	-525.6
3709.919	-521.6
3712.64	-531.6
3715.359	-532.6
3718.076	-539.6
3720.792	-540.6
3723.505	-540.6
3726.216	-547.6
3728.925	-544.6
3731.632	-552.6
3734.336	-558.6
3737.039	-558.6
3739.74	-561.6
3742.439	-568.6
3745.136	-562.6
3747.83	-570.6
3750.523	-568.6
3753.213	-570.6
3755.902	-573.6
3758.589	-568.6
3761.273	-573.6
3763.956	-574.6
3766.636	-580.6
3769.315	-578.6
3771.991	-581.6
3774.665	-585.6
3777.338	-584.6
3780.008	-589.6
3782.677	-589.6
3785.343	-581.6
3788.007	-586.6
3790.67	-592.6
3793.33	-597.6
3795.989	-595.6
3798.645	-597.6
3801.299	-586.6
3803.952	-594.6
3806.602	-599.6
3809.251	-600.6
3811.897	-599.6
3814.542	-600.6
3817.184	-597.6
3819.825	-596.6
3822.463	-591.6
3825.1	-601.6
3827.735	-593.6
3830.367	-598.6
3832.998	-605.6
3835.627	-609.6
3838.253	-608.6
3840.878	-606.6
3843.501	-607.6
3846.122	-606.6
3848.741	-605.6
3851.358	-606.6
3853.973	-607.6
3856.586	-612.6
3859.197	-616.6
3861.806	-615.6
3864.414	-610.6
3867.019	-606.6
3869.622	-612.6
3872.224	-602.6
3874.823	-595.6
3877.421	-576.6
3880.016	-563.6
3882.61	-544.6
3885.202	-527.6
3887.792	-544.6
3890.38	-575.6
3892.966	-600.6
3895.55	-609.6
3898.132	-621.6
3900.713	-621.6
3903.291	-619.6
3905.868	-621.6
3908.442	-623.6
3911.015	-623.6
3913.586	-613.6
3916.155	-617.6
3918.722	-622.6
3921.287	-618.6
3923.85	-628.6
3926.411	-626.6
3928.971	-632.6
3931.528	-622.6
3934.084	-623.6
3936.638	-620.6
3939.19	-627.6
3941.74	-621.6
3944.288	-628.6
3946.834	-617.6
3949.378	-625.6
3951.921	-622.6
3954.462	-625.6
3957	-621.6
3959.537	-621.6
3962.072	-618.6
3964.606	-616.6
3967.137	-618.6
3969.667	-630.6
3972.194	-618.6
3974.72	-622.6
3977.244	-607.6
3979.766	-611.6
3982.286	-616.6
3984.805	-613.6
3987.321	-612.6
3989.836	-617.6
3992.349	-611.6
3994.86	-604.6
3997.369	-618.6
3999.877	-610.6
4002.382	-606.6
4004.886	-605.6
4007.388	-602.6
4009.888	-605.6
4012.386	-611.6
4014.883	-606.6
4017.377	-610.6
4019.87	-604.6
4022.361	-603.6
4024.85	-608.6
4027.338	-607.6
4029.823	-608.6
4032.307	-611.6
4034.789	-606.6
4037.269	-606.6
4039.747	-608.6
4042.224	-615.6
4044.699	-613.6
4047.172	-609.6
4049.643	-603.6
4052.112	-614.6
4054.58	-614.6
4057.046	-612.6
4059.51	-616.6
4061.972	-617.6
4064.432	-613.6
4066.891	-608.6
4069.348	-606.6
4071.803	-606.6
4074.256	-606.6
4076.708	-604.6
4079.158	-614.6
4081.606	-617.6
4084.052	-607.6
4086.497	-612.6
4088.939	-606.6
4091.38	-609.6
4093.819	-606.6
4096.257	-642.6
4098.693	-646.6
4101.127	-641.6
4103.559	-641.6
4105.989	-374.6
4108.418	-341.6
4110.845	-336.6
4113.27	-301.6
4115.694	-262.6
4118.115	-225.6
4120.535	-612.6
4122.954	-611.6
4125.37	-603.6
4127.785	-615.6
4130.198	-612.6
4132.609	-617.6
4135.019	-645.6
4137.427	-645.6
4139.833	-646.6
4142.237	-642.6
