Data from 2018-2-14_conc=0_n=1_RamanShift_08.txt Node
Date: Wed Feb 14 10:30:26 IST 2018
User: aro
Spectrometer: QEPB0276
Trigger mode: 0
Integration Time (sec): 3.000000E1
Scans to average: 1
Electric dark correction enabled: true
Nonlinearity correction enabled: false
Boxcar width: 0
XAxis mode: Raman Shifts
Number of Pixels in Spectrum: 1044
>>>>>Begin Spectral Data<<<<<
160.701	-161.6
166.742	46.4
172.777	622.4
178.805	2416.4
184.826	6712.4
190.841	13926.4
196.849	22270.4
202.85	28025.4
208.845	29932.4
214.833	29531.4
220.815	29041.4
226.789	28804.4
232.758	28705.4
238.719	28476.4
244.674	28127.4
250.623	27593.4
256.565	26968.4
262.5	26355.4
268.429	25898.4
274.351	25513.4
280.267	25214.4
286.176	24895.4
292.079	24653.4
297.975	24404.4
303.865	24155.4
309.748	24035.4
315.625	23892.4
321.495	23719.4
327.359	23598.4
333.217	23585.4
339.068	23578.4
344.912	23522.4
350.751	23463.4
356.583	23470.4
362.408	23422.4
368.227	23405.4
374.04	23508.4
379.847	23509.4
385.647	23558.4
391.44	23668.4
397.228	23780.4
403.009	23898.4
408.784	23912.4
414.553	24026.4
420.315	24066.4
426.071	24109.4
431.821	24097.4
437.565	24073.4
443.302	23994.4
449.033	24047.4
454.758	23928.4
460.477	23887.4
466.189	23771.4
471.896	23715.4
477.596	23773.4
483.29	23681.4
488.978	23597.4
494.66	23569.4
500.335	23456.4
506.005	23199.4
511.668	22891.4
517.325	22673.4
522.977	22460.4
528.622	22311.4
534.261	22154.4
539.894	22056.4
545.521	21947.4
551.141	21898.4
556.756	21800.4
562.365	21736.4
567.968	21631.4
573.565	21569.4
579.155	21453.4
584.74	21424.4
590.319	21287.4
595.892	21230.4
601.459	21204.4
607.02	21041.4
612.575	20928.4
618.124	20804.4
623.667	20710.4
629.204	20588.4
634.735	20516.4
640.261	20382.4
645.781	20357.4
651.294	20325.4
656.802	20280.4
662.304	20239.4
667.8	20179.4
673.29	20155.4
678.775	20163.4
684.254	20047.4
689.726	19978.4
695.193	19962.4
700.655	19825.4
706.11	19768.4
711.56	19631.4
717.004	19539.4
722.442	19421.4
727.874	19334.4
733.301	19332.4
738.722	19259.4
744.137	19239.4
749.547	19273.4
754.951	19233.4
760.349	19210.4
765.741	19215.4
771.128	19216.4
776.509	19269.4
781.885	19233.4
787.254	19131.4
792.618	19127.4
797.977	18944.4
803.33	18821.4
808.677	18706.4
814.019	18682.4
819.355	18520.4
824.686	18428.4
830.011	18387.4
835.33	18456.4
840.644	18422.4
845.952	18385.4
851.255	18521.4
856.552	18499.4
861.844	18506.4
867.13	18485.4
872.41	18390.4
877.686	18239.4
882.955	18106.4
888.219	17895.4
893.478	17780.4
898.731	17507.4
903.979	17385.4
909.221	17264.4
914.458	17189.4
919.69	17124.4
924.916	17211.4
930.136	17312.4
935.351	17230.4
940.561	17305.4
945.766	17259.4
950.965	17189.4
956.158	17022.4
961.347	16868.4
966.529	16624.4
971.707	16454.4
976.879	16277.4
982.046	16156.4
987.208	16052.4
992.364	16121.4
997.515	16175.4
1002.66	16356.4
1007.801	16486.4
1012.936	16633.4
1018.066	16608.4
1023.19	16631.4
1028.309	16580.4
1033.423	16568.4
1038.532	16513.4
1043.636	16340.4
1048.734	16115.4
1053.827	15893.4
1058.915	15728.4
1063.998	15624.4
1069.075	15592.4
1074.147	15612.4
1079.214	15703.4
1084.276	15766.4
1089.333	15855.4
1094.385	15953.4
1099.431	15960.4
1104.472	16015.4
1109.509	15863.4
1114.54	15683.4
1119.565	15459.4
1124.586	15297.4
1129.602	15105.4
1134.613	15040.4
1139.618	14929.4
1144.619	14919.4
1149.614	14887.4
1154.604	15002.4
1159.589	14954.4
1164.57	15012.4
1169.545	15006.4
1174.515	15015.4
1179.48	14940.4
1184.44	14844.4
1189.395	14722.4
1194.345	14631.4
1199.29	14552.4
1204.23	14538.4
1209.165	14621.4
1214.095	14618.4
1219.021	14757.4
1223.941	14828.4
1228.856	14935.4
1233.766	14969.4
1238.672	14950.4
1243.572	14923.4
1248.467	14830.4
1253.358	14698.4
1258.244	14523.4
1263.124	14273.4
1268	14081.4
1272.871	13927.4
1277.737	13811.4
1282.599	13707.4
1287.455	13699.4
1292.306	13721.4
1297.153	13792.4
1301.995	13817.4
1306.832	13957.4
1311.664	14026.4
1316.491	13899.4
1321.314	13799.4
1326.132	13545.4
1330.945	13294.4
1335.753	12949.4
1340.556	12664.4
1345.354	12347.4
1350.148	12135.4
1354.937	12059.4
1359.722	12062.4
1364.501	12178.4
1369.276	12310.4
1374.046	12502.4
1378.811	12692.4
1383.572	12841.4
1388.327	12877.4
1393.079	12813.4
1397.825	12644.4
1402.567	12420.4
1407.304	12248.4
1412.036	12142.4
1416.764	12070.4
1421.487	11985.4
1426.205	11886.4
1430.919	11861.4
1435.628	11839.4
1440.333	11886.4
1445.032	11935.4
1449.727	11941.4
1454.418	11951.4
1459.104	11831.4
1463.785	11590.4
1468.462	11346.4
1473.134	11104.4
1477.802	10904.4
1482.465	10722.4
1487.123	10629.4
1491.777	10609.4
1496.426	10640.4
1501.071	10787.4
1505.711	10975.4
1510.347	11139.4
1514.978	11400.4
1519.604	11564.4
1524.226	11646.4
1528.844	11654.4
1533.457	11690.4
1538.065	11602.4
1542.669	11479.4
1547.269	11381.4
1551.864	11285.4
1556.454	11262.4
1561.041	11213.4
1565.622	11266.4
1570.199	11252.4
1574.772	11285.4
1579.34	11319.4
1583.904	11402.4
1588.464	11435.4
1593.019	11427.4
1597.569	11393.4
1602.115	11321.4
1606.657	11227.4
1611.195	11234.4
1615.728	11138.4
1620.256	11034.4
1624.78	11078.4
1629.3	11054.4
1633.816	11096.4
1638.327	11174.4
1642.834	11204.4
1647.336	11259.4
1651.834	11238.4
1656.328	11257.4
1660.817	11222.4
1665.302	11137.4
1669.783	10968.4
1674.259	10759.4
1678.732	10437.4
1683.199	10026.4
1687.663	9692.4
1692.122	9427.4
1696.577	9301.4
1701.028	9306.4
1705.474	9367.4
1709.917	9548.4
1714.355	9598.4
1718.788	9454.4
1723.218	9283.4
1727.643	9139.4
1732.064	8927.4
1736.481	8747.4
1740.893	8503.4
1745.301	8279.4
1749.705	8052.4
1754.105	7832.4
1758.501	7591.4
1762.893	7389.4
1767.28	7218.4
1771.663	7067.4
1776.042	6957.4
1780.417	6857.4
1784.787	6874.4
1789.154	7001.4
1793.516	7136.4
1797.874	7252.4
1802.228	7416.4
1806.578	7501.4
1810.924	7475.4
1815.266	7422.4
1819.603	7264.4
1823.937	7139.4
1828.266	7037.4
1832.591	6900.4
1836.913	6824.4
1841.23	6721.4
1845.543	6660.4
1849.852	6635.4
1854.156	6619.4
1858.457	6633.4
1862.754	6607.4
1867.047	6625.4
1871.335	6591.4
1875.62	6605.4
1879.9	6568.4
1884.177	6531.4
1888.449	6496.4
1892.718	6392.4
1896.982	6340.4
1901.243	6284.4
1905.499	6258.4
1909.752	6233.4
1914	6234.4
1918.245	6254.4
1922.485	6310.4
1926.722	6395.4
1930.954	6465.4
1935.183	6530.4
1939.408	6610.4
1943.628	6642.4
1947.845	6671.4
1952.058	6640.4
1956.267	6616.4
1960.472	6473.4
1964.673	6397.4
1968.87	6263.4
1973.063	6193.4
1977.252	6067.4
1981.438	6018.4
1985.619	5950.4
1989.797	5916.4
1993.971	5851.4
1998.14	5852.4
2002.306	5820.4
2006.469	5810.4
2010.627	5717.4
2014.781	5706.4
2018.932	5676.4
2023.078	5622.4
2027.221	5522.4
2031.36	5443.4
2035.495	5344.4
2039.627	5291.4
2043.754	5203.4
2047.878	5168.4
2051.998	5128.4
2056.114	5116.4
2060.226	5115.4
2064.334	5124.4
2068.439	5158.4
2072.54	5186.4
2076.637	5207.4
2080.73	5261.4
2084.82	5278.4
2088.906	5314.4
2092.988	5308.4
2097.066	5301.4
2101.14	5284.4
2105.211	5223.4
2109.278	5199.4
2113.342	5128.4
2117.401	5154.4
2121.457	5094.4
2125.509	5098.4
2129.558	5043.4
2133.602	4998.4
2137.643	4954.4
2141.681	4963.4
2145.714	4925.4
2149.744	4899.4
2153.77	4853.4
2157.793	4796.4
2161.812	4726.4
2165.827	4671.4
2169.838	4609.4
2173.846	4521.4
2177.851	4425.4
2181.851	4360.4
2185.848	4314.4
2189.841	4260.4
2193.831	4204.4
2197.817	4192.4
2201.799	4183.4
2205.778	4122.4
2209.753	4121.4
2213.725	4095.4
2217.693	4098.4
2221.657	4090.4
2225.618	4098.4
2229.575	4062.4
2233.529	4023.4
2237.479	3980.4
2241.425	3932.4
2245.368	3856.4
2249.307	3803.4
2253.243	3769.4
2257.175	3690.4
2261.104	3652.4
2265.029	3615.4
2268.95	3582.4
2272.868	3532.4
2276.783	3516.4
2280.694	3421.4
2284.601	3416.4
2288.505	3400.4
2292.405	3359.4
2296.302	3332.4
2300.195	3289.4
2304.085	3271.4
2307.971	3206.4
2311.854	3177.4
2315.734	3092.4
2319.609	3035.4
2323.482	3021.4
2327.351	2972.4
2331.216	2965.4
2335.078	2978.4
2338.937	2914.4
2342.792	2898.4
2346.643	2883.4
2350.492	2883.4
2354.336	2896.4
2358.178	2914.4
2362.015	2914.4
2365.85	2915.4
2369.681	2915.4
2373.508	2924.4
2377.333	2934.4
2381.153	2890.4
2384.971	2872.4
2388.785	2820.4
2392.595	2807.4
2396.402	2795.4
2400.206	2777.4
2404.007	2750.4
2407.804	2757.4
2411.597	2722.4
2415.388	2703.4
2419.174	2688.4
2422.958	2680.4
2426.738	2614.4
2430.515	2617.4
2434.289	2596.4
2438.059	2575.4
2441.825	2561.4
2445.589	2550.4
2449.349	2508.4
2453.106	2478.4
2456.859	2427.4
2460.61	2409.4
2464.356	2381.4
2468.1	2371.4
2471.84	2356.4
2475.577	2319.4
2479.311	2302.4
2483.041	2302.4
2486.768	2287.4
2490.492	2261.4
2494.213	2250.4
2497.93	2273.4
2501.644	2245.4
2505.355	2255.4
2509.062	2240.4
2512.766	2237.4
2516.467	2235.4
2520.165	2174.4
2523.859	2175.4
2527.551	2153.4
2531.239	2138.4
2534.923	2131.4
2538.605	2128.4
2542.283	2116.4
2545.958	2106.4
2549.63	2105.4
2553.299	2099.4
2556.964	2111.4
2560.626	2073.4
2564.285	2088.4
2567.941	2081.4
2571.594	2064.4
2575.243	2048.4
2578.89	2027.4
2582.533	2010.4
2586.173	1999.4
2589.809	1972.4
2593.443	1961.4
2597.073	1933.4
2600.701	1923.4
2604.325	1908.4
2607.946	1890.4
2611.564	1891.4
2615.178	1884.4
2618.79	1847.4
2622.398	1819.4
2626.004	1834.4
2629.606	1787.4
2633.205	1781.4
2636.801	1763.4
2640.394	1721.4
2643.983	1703.4
2647.57	1684.4
2651.153	1643.4
2654.734	1622.4
2658.311	1597.4
2661.885	1565.4
2665.456	1552.4
2669.025	1532.4
2672.589	1522.4
2676.151	1502.4
2679.71	1478.4
2683.266	1434.4
2686.819	1408.4
2690.368	1394.4
2693.915	1341.4
2697.458	1329.4
2700.999	1302.4
2704.536	1279.4
2708.071	1247.4
2711.602	1231.4
2715.13	1187.4
2718.656	1190.4
2722.178	1135.4
2725.697	1116.4
2729.214	1114.4
2732.727	1118.4
2736.237	1113.4
2739.744	1117.4
2743.249	1122.4
2746.75	1134.4
2750.248	1139.4
2753.743	1150.4
2757.236	1170.4
2760.725	1185.4
2764.211	1173.4
2767.695	1181.4
2771.175	1192.4
2774.652	1190.4
2778.127	1165.4
2781.598	1163.4
2785.067	1168.4
2788.532	1148.4
2791.995	1154.4
2795.455	1152.4
2798.911	1145.4
2802.365	1149.4
2805.816	1142.4
2809.264	1146.4
2812.709	1156.4
2816.151	1136.4
2819.59	1139.4
2823.026	1140.4
2826.46	1135.4
2829.89	1161.4
2833.318	1151.4
2836.742	1175.4
2840.164	1162.4
2843.583	1179.4
2846.999	1189.4
2850.412	1179.4
2853.822	1202.4
2857.229	1221.4
2860.634	1248.4
2864.035	1267.4
2867.434	1306.4
2870.83	1279.4
2874.223	1330.4
2877.613	1356.4
2881	1372.4
2884.385	1385.4
2887.766	1354.4
2891.145	1381.4
2894.521	1374.4
2897.894	1345.4
2901.264	1358.4
2904.631	1359.4
2907.996	1355.4
2911.358	1382.4
2914.717	1383.4
2918.073	1404.4
2921.426	1419.4
2924.777	1421.4
2928.124	1458.4
2931.469	1491.4
2934.811	1514.4
2938.15	1531.4
2941.487	1530.4
2944.821	1549.4
2948.152	1519.4
2951.48	1535.4
2954.805	1523.4
2958.128	1505.4
2961.447	1495.4
2964.765	1482.4
2968.079	1500.4
2971.39	1508.4
2974.699	1515.4
2978.005	1567.4
2981.308	1583.4
2984.609	1638.4
2987.907	1652.4
2991.202	1660.4
2994.494	1703.4
2997.784	1742.4
3001.07	1790.4
3004.355	1794.4
3007.636	1837.4
3010.915	1855.4
3014.191	1861.4
3017.464	1880.4
3020.734	1895.4
3024.002	1879.4
3027.267	1907.4
3030.53	1925.4
3033.789	1943.4
3037.046	1962.4
3040.301	2015.4
3043.552	2036.4
3046.801	2095.4
3050.048	2151.4
3053.291	2177.4
3056.532	2253.4
3059.771	2302.4
3063.006	2383.4
3066.239	2430.4
3069.469	2516.4
3072.697	2576.4
3075.922	2629.4
3079.144	2715.4
3082.364	2764.4
3085.581	2805.4
3088.795	2889.4
3092.007	2947.4
3095.216	3010.4
3098.423	3053.4
3101.627	3154.4
3104.828	3207.4
3108.026	3268.4
3111.222	3364.4
3114.416	3430.4
3117.607	3512.4
3120.795	3619.4
3123.98	3658.4
3127.163	3759.4
3130.344	3850.4
3133.521	3946.4
3136.696	4027.4
3139.869	4111.4
3143.039	4192.4
3146.206	4233.4
3149.371	4299.4
3152.533	4338.4
3155.693	4340.4
3158.85	4395.4
3162.005	4427.4
3165.157	4438.4
3168.306	4442.4
3171.453	4435.4
3174.597	4449.4
3177.739	4492.4
3180.878	4469.4
3184.014	4474.4
3187.149	4481.4
3190.28	4499.4
3193.409	4484.4
3196.536	4507.4
3199.659	4493.4
3202.781	4486.4
3205.9	4508.4
3209.016	4495.4
3212.13	4484.4
3215.241	4442.4
3218.35	4420.4
3221.456	4346.4
3224.56	4351.4
3227.661	4269.4
3230.76	4227.4
3233.856	4175.4
3236.95	4149.4
3240.041	4104.4
3243.13	4050.4
3246.216	4065.4
3249.3	4017.4
3252.382	4024.4
3255.46	4026.4
3258.537	4006.4
3261.611	4015.4
3264.682	3998.4
3267.751	3993.4
3270.818	3992.4
3273.882	3994.4
3276.943	3954.4
3280.002	3919.4
3283.059	3871.4
3286.113	3847.4
3289.165	3774.4
3292.214	3725.4
3295.261	3649.4
3298.306	3592.4
3301.348	3534.4
3304.387	3469.4
3307.425	3405.4
3310.459	3369.4
3313.492	3304.4
3316.521	3295.4
3319.549	3231.4
3322.574	3203.4
3325.597	3162.4
3328.617	3155.4
3331.635	3140.4
3334.65	3124.4
3337.663	3113.4
3340.674	3065.4
3343.682	3066.4
3346.688	3060.4
3349.691	3065.4
3352.692	3033.4
3355.691	3014.4
3358.687	2974.4
3361.681	2952.4
3364.673	2897.4
3367.662	2858.4
3370.649	2831.4
3373.633	2760.4
3376.615	2728.4
3379.595	2677.4
3382.572	2677.4
3385.547	2627.4
3388.52	2582.4
3391.49	2574.4
3394.458	2508.4
3397.424	2490.4
3400.387	2447.4
3403.348	2422.4
3406.307	2388.4
3409.263	2349.4
3412.217	2347.4
3415.168	2304.4
3418.118	2272.4
3421.065	2267.4
3424.009	2219.4
3426.951	2184.4
3429.891	2130.4
3432.829	2112.4
3435.764	2045.4
3438.697	1995.4
3441.628	1953.4
3444.557	1893.4
3447.483	1824.4
3450.407	1778.4
3453.328	1713.4
3456.247	1667.4
3459.164	1592.4
3462.079	1536.4
3464.991	1491.4
3467.902	1440.4
3470.809	1372.4
3473.715	1335.4
3476.618	1285.4
3479.519	1254.4
3482.418	1196.4
3485.315	1149.4
3488.209	1135.4
3491.101	1081.4
3493.99	1033.4
3496.878	998.4
3499.763	949.4
3502.646	916.4
3505.527	873.4
3508.405	833.4
3511.281	787.4
3514.155	738.4
3517.027	708.4
3519.897	668.4
3522.764	594.4
3525.629	574.4
3528.492	507.4
3531.352	476.4
3534.211	434.4
3537.067	397.4
3539.921	352.4
3542.773	310.4
3545.622	274.4
3548.469	238.4
3551.315	228.4
3554.157	189.4
3556.998	162.4
3559.837	125.4
3562.673	108.4
3565.507	82.4
3568.339	54.4
3571.169	34.4
3573.996	0.4
3576.822	-8.6
3579.645	-46.6
3582.466	-66.6
3585.285	-74.6
3588.101	-109.6
3590.916	-132.6
3593.728	-144.6
3596.538	-153.6
3599.346	-185.6
3602.152	-187.6
3604.956	-225.6
3607.757	-232.6
3610.556	-251.6
3613.354	-269.6
3616.149	-286.6
3618.942	-301.6
3621.732	-310.6
3624.521	-325.6
3627.307	-334.6
3630.092	-340.6
3632.874	-362.6
3635.654	-365.6
3638.432	-374.6
3641.208	-386.6
3643.982	-397.6
3646.753	-411.6
3649.523	-421.6
3652.29	-433.6
3655.055	-437.6
3657.818	-456.6
3660.579	-459.6
3663.338	-468.6
3666.095	-483.6
3668.849	-485.6
3671.602	-503.6
3674.352	-512.6
3677.101	-512.6
3679.847	-523.6
3682.591	-536.6
3685.333	-543.6
3688.073	-545.6
3690.811	-556.6
3693.547	-555.6
3696.281	-561.6
3699.013	-567.6
3701.742	-567.6
3704.47	-579.6
3707.195	-591.6
3709.919	-589.6
3712.64	-596.6
3715.359	-593.6
3718.076	-600.6
3720.792	-613.6
3723.505	-604.6
3726.216	-615.6
3728.925	-607.6
3731.632	-618.6
3734.336	-619.6
3737.039	-622.6
3739.74	-623.6
3742.439	-622.6
3745.136	-632.6
3747.83	-636.6
3750.523	-636.6
3753.213	-627.6
3755.902	-636.6
3758.589	-646.6
3761.273	-649.6
3763.956	-650.6
3766.636	-644.6
3769.315	-647.6
3771.991	-651.6
3774.665	-654.6
3777.338	-650.6
3780.008	-662.6
3782.677	-661.6
3785.343	-659.6
3788.007	-660.6
3790.67	-661.6
3793.33	-668.6
3795.989	-668.6
3798.645	-666.6
3801.299	-658.6
3803.952	-672.6
3806.602	-680.6
3809.251	-676.6
3811.897	-671.6
3814.542	-673.6
3817.184	-673.6
3819.825	-670.6
3822.463	-669.6
3825.1	-684.6
3827.735	-677.6
3830.367	-679.6
3832.998	-682.6
3835.627	-686.6
3838.253	-686.6
3840.878	-686.6
3843.501	-683.6
3846.122	-680.6
3848.741	-684.6
3851.358	-688.6
3853.973	-686.6
3856.586	-689.6
3859.197	-688.6
3861.806	-688.6
3864.414	-685.6
3867.019	-684.6
3869.622	-684.6
3872.224	-684.6
3874.823	-667.6
3877.421	-662.6
3880.016	-653.6
3882.61	-637.6
3885.202	-615.6
3887.792	-639.6
3890.38	-665.6
3892.966	-676.6
3895.55	-690.6
3898.132	-698.6
3900.713	-699.6
3903.291	-698.6
3905.868	-702.6
3908.442	-703.6
3911.015	-705.6
3913.586	-698.6
3916.155	-701.6
3918.722	-703.6
3921.287	-700.6
3923.85	-700.6
3926.411	-702.6
3928.971	-712.6
3931.528	-703.6
3934.084	-702.6
3936.638	-699.6
3939.19	-707.6
3941.74	-704.6
3944.288	-710.6
3946.834	-707.6
3949.378	-708.6
3951.921	-707.6
3954.462	-711.6
3957	-700.6
3959.537	-702.6
3962.072	-700.6
3964.606	-706.6
3967.137	-702.6
3969.667	-704.6
3972.194	-702.6
3974.72	-698.6
3977.244	-693.6
3979.766	-691.6
3982.286	-692.6
3984.805	-691.6
3987.321	-688.6
3989.836	-692.6
3992.349	-687.6
3994.86	-685.6
3997.369	-695.6
3999.877	-689.6
4002.382	-686.6
4004.886	-693.6
4007.388	-685.6
4009.888	-691.6
4012.386	-692.6
4014.883	-690.6
4017.377	-686.6
4019.87	-685.6
4022.361	-684.6
4024.85	-692.6
4027.338	-693.6
4029.823	-691.6
4032.307	-698.6
4034.789	-690.6
4037.269	-687.6
4039.747	-693.6
4042.224	-696.6
4044.699	-700.6
4047.172	-693.6
4049.643	-689.6
4052.112	-695.6
4054.58	-696.6
4057.046	-689.6
4059.51	-695.6
4061.972	-692.6
4064.432	-700.6
4066.891	-686.6
4069.348	-686.6
4071.803	-691.6
4074.256	-693.6
4076.708	-697.6
4079.158	-692.6
4081.606	-691.6
4084.052	-700.6
4086.497	-692.6
4088.939	-684.6
4091.38	-694.6
4093.819	-689.6
4096.257	-728.6
4098.693	-730.6
4101.127	-731.6
4103.559	-730.6
4105.989	-430.6
4108.418	-395.6
4110.845	-380.6
4113.27	-338.6
4115.694	-314.6
4118.115	-255.6
4120.535	-685.6
4122.954	-690.6
4125.37	-687.6
4127.785	-686.6
4130.198	-700.6
4132.609	-700.6
4135.019	-732.6
4137.427	-732.6
4139.833	-730.6
4142.237	-727.6
