Data from 2018-2-14_conc=4_n=8_RamanShift_05.txt Node
Date: Wed Feb 14 13:54:55 IST 2018
User: aro
Spectrometer: QEPB0276
Trigger mode: 0
Integration Time (sec): 3.000000E1
Scans to average: 1
Electric dark correction enabled: true
Nonlinearity correction enabled: false
Boxcar width: 0
XAxis mode: Raman Shifts
Number of Pixels in Spectrum: 1044
>>>>>Begin Spectral Data<<<<<
160.701	-151.5
166.742	39.5
172.777	553.5
178.805	2104.5
184.826	5783.5
190.841	12051.5
196.849	19402.5
202.85	24627.5
208.845	26375.5
214.833	26085.5
220.815	25620.5
226.789	25463.5
232.758	25310.5
238.719	25162.5
244.674	24876.5
250.623	24471.5
256.565	23946.5
262.5	23485.5
268.429	23064.5
274.351	22641.5
280.267	22400.5
286.176	22130.5
292.079	21933.5
297.975	21747.5
303.865	21556.5
309.748	21363.5
315.625	21296.5
321.495	21232.5
327.359	21129.5
333.217	21076.5
339.068	21110.5
344.912	21087.5
350.751	21029.5
356.583	21034.5
362.408	20981.5
368.227	21051.5
374.04	21025.5
379.847	21121.5
385.647	21220.5
391.44	21202.5
397.228	21310.5
403.009	21445.5
408.784	21498.5
414.553	21554.5
420.315	21590.5
426.071	21651.5
431.821	21614.5
437.565	21545.5
443.302	21562.5
449.033	21443.5
454.758	21419.5
460.477	21341.5
466.189	21337.5
471.896	21307.5
477.596	21248.5
483.29	21226.5
488.978	21166.5
494.66	21057.5
500.335	20959.5
506.005	20710.5
511.668	20338.5
517.325	20148.5
522.977	19943.5
528.622	19780.5
534.261	19621.5
539.894	19575.5
545.521	19446.5
551.141	19360.5
556.756	19324.5
562.365	19230.5
567.968	19084.5
573.565	19041.5
579.155	19007.5
584.74	18930.5
590.319	18806.5
595.892	18716.5
601.459	18681.5
607.02	18531.5
612.575	18417.5
618.124	18307.5
623.667	18232.5
629.204	18129.5
634.735	18049.5
640.261	17933.5
645.781	17905.5
651.294	17872.5
656.802	17839.5
662.304	17785.5
667.8	17721.5
673.29	17750.5
678.775	17655.5
684.254	17579.5
689.726	17569.5
695.193	17499.5
700.655	17370.5
706.11	17294.5
711.56	17196.5
717.004	17133.5
722.442	17099.5
727.874	16957.5
733.301	16900.5
738.722	16877.5
744.137	16831.5
749.547	16814.5
754.951	16846.5
760.349	16827.5
765.741	16798.5
771.128	16833.5
776.509	16857.5
781.885	16840.5
787.254	16753.5
792.618	16726.5
797.977	16601.5
803.33	16464.5
808.677	16382.5
814.019	16298.5
819.355	16215.5
824.686	16206.5
830.011	16057.5
835.33	16056.5
840.644	16085.5
845.952	16115.5
851.255	16165.5
856.552	16117.5
861.844	16108.5
867.13	16045.5
872.41	15999.5
877.686	15809.5
882.955	15770.5
888.219	15647.5
893.478	15449.5
898.731	15258.5
903.979	15097.5
909.221	14957.5
914.458	14918.5
919.69	14929.5
924.916	14888.5
930.136	14993.5
935.351	14994.5
940.561	15005.5
945.766	14968.5
950.965	14925.5
956.158	14772.5
961.347	14614.5
966.529	14407.5
971.707	14258.5
976.879	14060.5
982.046	13921.5
987.208	13857.5
992.364	13907.5
997.515	14014.5
1002.66	14059.5
1007.801	14269.5
1012.936	14363.5
1018.066	14318.5
1023.19	14342.5
1028.309	14328.5
1033.423	14290.5
1038.532	14234.5
1043.636	14127.5
1048.734	13929.5
1053.827	13697.5
1058.915	13570.5
1063.998	13512.5
1069.075	13474.5
1074.147	13448.5
1079.214	13532.5
1084.276	13563.5
1089.333	13674.5
1094.385	13671.5
1099.431	13737.5
1104.472	13726.5
1109.509	13662.5
1114.54	13471.5
1119.565	13319.5
1124.586	13124.5
1129.602	12990.5
1134.613	12860.5
1139.618	12760.5
1144.619	12767.5
1149.614	12777.5
1154.604	12794.5
1159.589	12817.5
1164.57	12852.5
1169.545	12892.5
1174.515	12866.5
1179.48	12770.5
1184.44	12719.5
1189.395	12581.5
1194.345	12514.5
1199.29	12448.5
1204.23	12413.5
1209.165	12504.5
1214.095	12567.5
1219.021	12566.5
1223.941	12670.5
1228.856	12695.5
1233.766	12761.5
1238.672	12740.5
1243.572	12797.5
1248.467	12613.5
1253.358	12537.5
1258.244	12385.5
1263.124	12097.5
1268	11985.5
1272.871	11798.5
1277.737	11678.5
1282.599	11659.5
1287.455	11624.5
1292.306	11642.5
1297.153	11691.5
1301.995	11739.5
1306.832	11780.5
1311.664	11735.5
1316.491	11692.5
1321.314	11568.5
1326.132	11479.5
1330.945	11233.5
1335.753	10936.5
1340.556	10722.5
1345.354	10514.5
1350.148	10340.5
1354.937	10248.5
1359.722	10206.5
1364.501	10161.5
1369.276	10285.5
1374.046	10296.5
1378.811	10438.5
1383.572	10499.5
1388.327	10552.5
1393.079	10453.5
1397.825	10378.5
1402.567	10299.5
1407.304	10178.5
1412.036	10104.5
1416.764	10042.5
1421.487	9963.5
1426.205	9926.5
1430.919	9917.5
1435.628	9887.5
1440.333	9932.5
1445.032	9962.5
1449.727	9955.5
1454.418	9998.5
1459.104	9825.5
1463.785	9663.5
1468.462	9447.5
1473.134	9259.5
1477.802	9002.5
1482.465	8858.5
1487.123	8760.5
1491.777	8708.5
1496.426	8689.5
1501.071	8771.5
1505.711	8872.5
1510.347	8993.5
1514.978	9131.5
1519.604	9220.5
1524.226	9273.5
1528.844	9316.5
1533.457	9288.5
1538.065	9302.5
1542.669	9256.5
1547.269	9169.5
1551.864	9165.5
1556.454	9103.5
1561.041	9101.5
1565.622	9094.5
1570.199	9135.5
1574.772	9225.5
1579.34	9272.5
1583.904	9309.5
1588.464	9375.5
1593.019	9357.5
1597.569	9324.5
1602.115	9278.5
1606.657	9255.5
1611.195	9188.5
1615.728	9128.5
1620.256	9099.5
1624.78	9082.5
1629.3	9080.5
1633.816	9089.5
1638.327	9172.5
1642.834	9177.5
1647.336	9207.5
1651.834	9239.5
1656.328	9191.5
1660.817	9148.5
1665.302	9004.5
1669.783	8826.5
1674.259	8581.5
1678.732	8324.5
1683.199	8041.5
1687.663	7765.5
1692.122	7525.5
1696.577	7425.5
1701.028	7317.5
1705.474	7278.5
1709.917	7324.5
1714.355	7345.5
1718.788	7267.5
1723.218	7208.5
1727.643	7133.5
1732.064	7003.5
1736.481	6875.5
1740.893	6684.5
1745.301	6483.5
1749.705	6347.5
1754.105	6153.5
1758.501	5956.5
1762.893	5809.5
1767.28	5676.5
1771.663	5526.5
1776.042	5422.5
1780.417	5415.5
1784.787	5342.5
1789.154	5348.5
1793.516	5430.5
1797.874	5537.5
1802.228	5607.5
1806.578	5620.5
1810.924	5630.5
1815.266	5584.5
1819.603	5548.5
1823.937	5480.5
1828.266	5360.5
1832.591	5318.5
1836.913	5190.5
1841.23	5179.5
1845.543	5163.5
1849.852	5124.5
1854.156	5121.5
1858.457	5112.5
1862.754	5077.5
1867.047	5080.5
1871.335	5071.5
1875.62	5065.5
1879.9	5029.5
1884.177	5004.5
1888.449	4946.5
1892.718	4872.5
1896.982	4853.5
1901.243	4759.5
1905.499	4738.5
1909.752	4710.5
1914	4686.5
1918.245	4694.5
1922.485	4716.5
1926.722	4767.5
1930.954	4792.5
1935.183	4860.5
1939.408	4931.5
1943.628	4905.5
1947.845	4952.5
1952.058	4923.5
1956.267	4894.5
1960.472	4830.5
1964.673	4769.5
1968.87	4692.5
1973.063	4624.5
1977.252	4569.5
1981.438	4519.5
1985.619	4487.5
1989.797	4433.5
1993.971	4395.5
1998.14	4394.5
2002.306	4362.5
2006.469	4373.5
2010.627	4390.5
2014.781	4340.5
2018.932	4287.5
2023.078	4239.5
2027.221	4168.5
2031.36	4130.5
2035.495	4048.5
2039.627	3975.5
2043.754	3930.5
2047.878	3899.5
2051.998	3896.5
2056.114	3852.5
2060.226	3859.5
2064.334	3847.5
2068.439	3841.5
2072.54	3867.5
2076.637	3881.5
2080.73	3894.5
2084.82	3894.5
2088.906	3919.5
2092.988	3933.5
2097.066	3903.5
2101.14	3898.5
2105.211	3854.5
2109.278	3829.5
2113.342	3788.5
2117.401	3803.5
2121.457	3776.5
2125.509	3739.5
2129.558	3721.5
2133.602	3690.5
2137.643	3692.5
2141.681	3669.5
2145.714	3641.5
2149.744	3620.5
2153.77	3602.5
2157.793	3556.5
2161.812	3535.5
2165.827	3453.5
2169.838	3416.5
2173.846	3375.5
2177.851	3323.5
2181.851	3282.5
2185.848	3231.5
2189.841	3170.5
2193.831	3157.5
2197.817	3111.5
2201.799	3099.5
2205.778	3089.5
2209.753	3078.5
2213.725	3057.5
2217.693	3048.5
2221.657	3056.5
2225.618	3042.5
2229.575	3003.5
2233.529	2982.5
2237.479	2960.5
2241.425	2917.5
2245.368	2886.5
2249.307	2843.5
2253.243	2804.5
2257.175	2761.5
2261.104	2705.5
2265.029	2679.5
2268.95	2669.5
2272.868	2639.5
2276.783	2591.5
2280.694	2581.5
2284.601	2577.5
2288.505	2533.5
2292.405	2496.5
2296.302	2475.5
2300.195	2423.5
2304.085	2428.5
2307.971	2379.5
2311.854	2344.5
2315.734	2309.5
2319.609	2272.5
2323.482	2220.5
2327.351	2212.5
2331.216	2187.5
2335.078	2204.5
2338.937	2191.5
2342.792	2166.5
2346.643	2161.5
2350.492	2183.5
2354.336	2171.5
2358.178	2156.5
2362.015	2191.5
2365.85	2191.5
2369.681	2198.5
2373.508	2202.5
2377.333	2177.5
2381.153	2186.5
2384.971	2168.5
2388.785	2151.5
2392.595	2134.5
2396.402	2105.5
2400.206	2106.5
2404.007	2075.5
2407.804	2067.5
2411.597	2052.5
2415.388	2016.5
2419.174	2012.5
2422.958	1980.5
2426.738	1985.5
2430.515	1960.5
2434.289	1945.5
2438.059	1953.5
2441.825	1935.5
2445.589	1897.5
2449.349	1865.5
2453.106	1858.5
2456.859	1826.5
2460.61	1811.5
2464.356	1789.5
2468.1	1741.5
2471.84	1749.5
2475.577	1712.5
2479.311	1710.5
2483.041	1669.5
2486.768	1697.5
2490.492	1677.5
2494.213	1680.5
2497.93	1672.5
2501.644	1654.5
2505.355	1637.5
2509.062	1621.5
2512.766	1606.5
2516.467	1607.5
2520.165	1592.5
2523.859	1592.5
2527.551	1573.5
2531.239	1534.5
2534.923	1548.5
2538.605	1509.5
2542.283	1531.5
2545.958	1522.5
2549.63	1515.5
2553.299	1525.5
2556.964	1488.5
2560.626	1498.5
2564.285	1491.5
2567.941	1487.5
2571.594	1455.5
2575.243	1467.5
2578.89	1447.5
2582.533	1420.5
2586.173	1406.5
2589.809	1404.5
2593.443	1393.5
2597.073	1384.5
2600.701	1361.5
2604.325	1376.5
2607.946	1346.5
2611.564	1340.5
2615.178	1331.5
2618.79	1323.5
2622.398	1306.5
2626.004	1286.5
2629.606	1278.5
2633.205	1262.5
2636.801	1233.5
2640.394	1238.5
2643.983	1191.5
2647.57	1196.5
2651.153	1185.5
2654.734	1124.5
2658.311	1140.5
2661.885	1095.5
2665.456	1104.5
2669.025	1086.5
2672.589	1062.5
2676.151	1068.5
2679.71	1045.5
2683.266	1040.5
2686.819	992.5
2690.368	984.5
2693.915	969.5
2697.458	924.5
2700.999	905.5
2704.536	891.5
2708.071	860.5
2711.602	861.5
2715.13	827.5
2718.656	823.5
2722.178	800.5
2725.697	769.5
2729.214	766.5
2732.727	777.5
2736.237	754.5
2739.744	749.5
2743.249	760.5
2746.75	762.5
2750.248	758.5
2753.743	757.5
2757.236	775.5
2760.725	786.5
2764.211	776.5
2767.695	777.5
2771.175	785.5
2774.652	773.5
2778.127	770.5
2781.598	768.5
2785.067	773.5
2788.532	765.5
2791.995	757.5
2795.455	752.5
2798.911	763.5
2802.365	766.5
2805.816	770.5
2809.264	747.5
2812.709	772.5
2816.151	761.5
2819.59	770.5
2823.026	777.5
2826.46	755.5
2829.89	772.5
2833.318	764.5
2836.742	794.5
2840.164	795.5
2843.583	797.5
2846.999	803.5
2850.412	812.5
2853.822	824.5
2857.229	831.5
2860.634	879.5
2864.035	883.5
2867.434	886.5
2870.83	923.5
2874.223	939.5
2877.613	941.5
2881	963.5
2884.385	980.5
2887.766	975.5
2891.145	960.5
2894.521	973.5
2897.894	986.5
2901.264	988.5
2904.631	992.5
2907.996	989.5
2911.358	993.5
2914.717	1001.5
2918.073	1027.5
2921.426	1042.5
2924.777	1045.5
2928.124	1065.5
2931.469	1083.5
2934.811	1107.5
2938.15	1127.5
2941.487	1147.5
2944.821	1133.5
2948.152	1157.5
2951.48	1139.5
2954.805	1132.5
2958.128	1113.5
2961.447	1113.5
2964.765	1100.5
2968.079	1107.5
2971.39	1115.5
2974.699	1141.5
2978.005	1141.5
2981.308	1158.5
2984.609	1187.5
2987.907	1189.5
2991.202	1237.5
2994.494	1251.5
2997.784	1295.5
3001.07	1308.5
3004.355	1321.5
3007.636	1346.5
3010.915	1370.5
3014.191	1385.5
3017.464	1388.5
3020.734	1424.5
3024.002	1433.5
3027.267	1441.5
3030.53	1458.5
3033.789	1483.5
3037.046	1488.5
3040.301	1517.5
3043.552	1560.5
3046.801	1597.5
3050.048	1651.5
3053.291	1672.5
3056.532	1722.5
3059.771	1774.5
3063.006	1828.5
3066.239	1907.5
3069.469	1958.5
3072.697	2005.5
3075.922	2067.5
3079.144	2103.5
3082.364	2163.5
3085.581	2200.5
3088.795	2253.5
3092.007	2316.5
3095.216	2341.5
3098.423	2415.5
3101.627	2456.5
3104.828	2526.5
3108.026	2550.5
3111.222	2634.5
3114.416	2713.5
3117.607	2748.5
3120.795	2825.5
3123.98	2896.5
3127.163	2963.5
3130.344	3055.5
3133.521	3122.5
3136.696	3188.5
3139.869	3261.5
3143.039	3341.5
3146.206	3379.5
3149.371	3386.5
3152.533	3434.5
3155.693	3469.5
3158.85	3467.5
3162.005	3511.5
3165.157	3507.5
3168.306	3537.5
3171.453	3546.5
3174.597	3526.5
3177.739	3559.5
3180.878	3543.5
3184.014	3565.5
3187.149	3536.5
3190.28	3560.5
3193.409	3561.5
3196.536	3603.5
3199.659	3585.5
3202.781	3586.5
3205.9	3578.5
3209.016	3597.5
3212.13	3543.5
3215.241	3553.5
3218.35	3496.5
3221.456	3461.5
3224.56	3431.5
3227.661	3382.5
3230.76	3338.5
3233.856	3321.5
3236.95	3282.5
3240.041	3254.5
3243.13	3221.5
3246.216	3181.5
3249.3	3178.5
3252.382	3158.5
3255.46	3171.5
3258.537	3119.5
3261.611	3116.5
3264.682	3148.5
3267.751	3139.5
3270.818	3119.5
3273.882	3132.5
3276.943	3119.5
3280.002	3095.5
3283.059	3076.5
3286.113	3037.5
3289.165	2978.5
3292.214	2950.5
3295.261	2891.5
3298.306	2881.5
3301.348	2800.5
3304.387	2789.5
3307.425	2720.5
3310.459	2687.5
3313.492	2653.5
3316.521	2603.5
3319.549	2581.5
3322.574	2569.5
3325.597	2531.5
3328.617	2512.5
3331.635	2527.5
3334.65	2492.5
3337.663	2493.5
3340.674	2475.5
3343.682	2455.5
3346.688	2467.5
3349.691	2447.5
3352.692	2441.5
3355.691	2424.5
3358.687	2404.5
3361.681	2351.5
3364.673	2322.5
3367.662	2306.5
3370.649	2272.5
3373.633	2231.5
3376.615	2193.5
3379.595	2168.5
3382.572	2153.5
3385.547	2126.5
3388.52	2067.5
3391.49	2046.5
3394.458	1997.5
3397.424	2008.5
3400.387	1966.5
3403.348	1916.5
3406.307	1918.5
3409.263	1874.5
3412.217	1873.5
3415.168	1840.5
3418.118	1829.5
3421.065	1762.5
3424.009	1758.5
3426.951	1739.5
3429.891	1716.5
3432.829	1669.5
3435.764	1645.5
3438.697	1589.5
3441.628	1542.5
3444.557	1497.5
3447.483	1442.5
3450.407	1392.5
3453.328	1353.5
3456.247	1310.5
3459.164	1263.5
3462.079	1211.5
3464.991	1163.5
3467.902	1129.5
3470.809	1071.5
3473.715	1026.5
3476.618	971.5
3479.519	947.5
3482.418	910.5
3485.315	876.5
3488.209	851.5
3491.101	833.5
3493.99	807.5
3496.878	767.5
3499.763	727.5
3502.646	699.5
3505.527	667.5
3508.405	634.5
3511.281	588.5
3514.155	546.5
3517.027	530.5
3519.897	479.5
3522.764	435.5
3525.629	406.5
3528.492	346.5
3531.352	344.5
3534.211	303.5
3537.067	259.5
3539.921	226.5
3542.773	208.5
3545.622	184.5
3548.469	146.5
3551.315	123.5
3554.157	114.5
3556.998	82.5
3559.837	62.5
3562.673	32.5
3565.507	10.5
3568.339	-11.5
3571.169	-19.5
3573.996	-38.5
3576.822	-40.5
3579.645	-76.5
3582.466	-96.5
3585.285	-104.5
3588.101	-129.5
3590.916	-149.5
3593.728	-171.5
3596.538	-178.5
3599.346	-195.5
3602.152	-214.5
3604.956	-227.5
3607.757	-237.5
3610.556	-253.5
3613.354	-274.5
3616.149	-279.5
3618.942	-283.5
3621.732	-290.5
3624.521	-310.5
3627.307	-318.5
3630.092	-327.5
3632.874	-340.5
3635.654	-337.5
3638.432	-347.5
3641.208	-356.5
3643.982	-371.5
3646.753	-376.5
3649.523	-386.5
3652.29	-387.5
3655.055	-398.5
3657.818	-409.5
3660.579	-416.5
3663.338	-430.5
3666.095	-440.5
3668.849	-445.5
3671.602	-454.5
3674.352	-458.5
3677.101	-465.5
3679.847	-478.5
3682.591	-477.5
3685.333	-481.5
3688.073	-486.5
3690.811	-485.5
3693.547	-497.5
3696.281	-504.5
3699.013	-502.5
3701.742	-516.5
3704.47	-509.5
3707.195	-519.5
3709.919	-517.5
3712.64	-517.5
3715.359	-528.5
3718.076	-530.5
3720.792	-533.5
3723.505	-534.5
3726.216	-548.5
3728.925	-545.5
3731.632	-551.5
3734.336	-550.5
3737.039	-550.5
3739.74	-553.5
3742.439	-554.5
3745.136	-558.5
3747.83	-562.5
3750.523	-556.5
3753.213	-559.5
3755.902	-568.5
3758.589	-570.5
3761.273	-572.5
3763.956	-570.5
3766.636	-576.5
3769.315	-570.5
3771.991	-573.5
3774.665	-580.5
3777.338	-580.5
3780.008	-576.5
3782.677	-582.5
3785.343	-575.5
3788.007	-578.5
3790.67	-581.5
3793.33	-583.5
3795.989	-583.5
3798.645	-585.5
3801.299	-581.5
3803.952	-593.5
3806.602	-597.5
3809.251	-594.5
3811.897	-596.5
3814.542	-598.5
3817.184	-591.5
3819.825	-592.5
3822.463	-591.5
3825.1	-598.5
3827.735	-591.5
3830.367	-594.5
3832.998	-602.5
3835.627	-597.5
3838.253	-602.5
3840.878	-605.5
3843.501	-599.5
3846.122	-591.5
3848.741	-592.5
3851.358	-598.5
3853.973	-600.5
3856.586	-601.5
3859.197	-603.5
3861.806	-602.5
3864.414	-602.5
3867.019	-605.5
3869.622	-602.5
3872.224	-596.5
3874.823	-583.5
3877.421	-570.5
3880.016	-558.5
3882.61	-537.5
3885.202	-528.5
3887.792	-543.5
3890.38	-575.5
3892.966	-592.5
3895.55	-603.5
3898.132	-614.5
3900.713	-615.5
3903.291	-613.5
3905.868	-613.5
3908.442	-609.5
3911.015	-620.5
3913.586	-611.5
3916.155	-606.5
3918.722	-610.5
3921.287	-610.5
3923.85	-615.5
3926.411	-617.5
3928.971	-621.5
3931.528	-614.5
3934.084	-616.5
3936.638	-614.5
3939.19	-615.5
3941.74	-615.5
3944.288	-622.5
3946.834	-614.5
3949.378	-619.5
3951.921	-612.5
3954.462	-622.5
3957	-618.5
3959.537	-619.5
3962.072	-610.5
3964.606	-615.5
3967.137	-614.5
3969.667	-621.5
3972.194	-608.5
3974.72	-615.5
3977.244	-602.5
3979.766	-603.5
3982.286	-606.5
3984.805	-602.5
3987.321	-609.5
3989.836	-602.5
3992.349	-599.5
3994.86	-595.5
3997.369	-608.5
3999.877	-603.5
4002.382	-600.5
4004.886	-599.5
4007.388	-599.5
4009.888	-602.5
4012.386	-605.5
4014.883	-604.5
4017.377	-603.5
4019.87	-597.5
4022.361	-600.5
4024.85	-602.5
4027.338	-606.5
4029.823	-607.5
4032.307	-607.5
4034.789	-604.5
4037.269	-598.5
4039.747	-604.5
4042.224	-606.5
4044.699	-605.5
4047.172	-603.5
4049.643	-595.5
4052.112	-611.5
4054.58	-602.5
4057.046	-604.5
4059.51	-600.5
4061.972	-604.5
4064.432	-603.5
4066.891	-604.5
4069.348	-606.5
4071.803	-602.5
4074.256	-606.5
4076.708	-604.5
4079.158	-605.5
4081.606	-611.5
4084.052	-611.5
4086.497	-608.5
4088.939	-604.5
4091.38	-603.5
4093.819	-598.5
4096.257	-634.5
4098.693	-635.5
4101.127	-636.5
4103.559	-637.5
4105.989	-370.5
4108.418	-334.5
4110.845	-320.5
4113.27	-288.5
4115.694	-260.5
4118.115	-226.5
4120.535	-602.5
4122.954	-602.5
4125.37	-599.5
4127.785	-610.5
4130.198	-604.5
4132.609	-605.5
4135.019	-636.5
4137.427	-638.5
4139.833	-634.5
4142.237	-636.5
