Data from 2018-2-14_conc=6_n=91_RamanShift_01.txt Node
Date: Wed Feb 14 15:13:55 IST 2018
User: aro
Spectrometer: QEPB0276
Trigger mode: 0
Integration Time (sec): 3.000000E1
Scans to average: 1
Electric dark correction enabled: true
Nonlinearity correction enabled: false
Boxcar width: 0
XAxis mode: Raman Shifts
Number of Pixels in Spectrum: 1044
>>>>>Begin Spectral Data<<<<<
160.701	-134.5
166.742	50.5
172.777	547.5
178.805	2069.5
184.826	5732.5
190.841	11959.5
196.849	19240.5
202.85	24379.5
208.845	26092.5
214.833	25881.5
220.815	25400.5
226.789	25207.5
232.758	25062.5
238.719	24838.5
244.674	24473.5
250.623	24065.5
256.565	23496.5
262.5	22949.5
268.429	22564.5
274.351	22219.5
280.267	21941.5
286.176	21601.5
292.079	21376.5
297.975	21227.5
303.865	21023.5
309.748	20844.5
315.625	20748.5
321.495	20623.5
327.359	20513.5
333.217	20510.5
339.068	20470.5
344.912	20512.5
350.751	20514.5
356.583	20468.5
362.408	20431.5
368.227	20402.5
374.04	20508.5
379.847	20520.5
385.647	20639.5
391.44	20681.5
397.228	20720.5
403.009	20847.5
408.784	20936.5
414.553	20967.5
420.315	20964.5
426.071	21071.5
431.821	21072.5
437.565	21063.5
443.302	21003.5
449.033	20868.5
454.758	20924.5
460.477	20797.5
466.189	20757.5
471.896	20706.5
477.596	20617.5
483.29	20582.5
488.978	20549.5
494.66	20483.5
500.335	20313.5
506.005	20035.5
511.668	19727.5
517.325	19435.5
522.977	19223.5
528.622	19047.5
534.261	18927.5
539.894	18771.5
545.521	18757.5
551.141	18630.5
556.756	18575.5
562.365	18484.5
567.968	18467.5
573.565	18324.5
579.155	18215.5
584.74	18181.5
590.319	18057.5
595.892	18016.5
601.459	18027.5
607.02	17882.5
612.575	17740.5
618.124	17618.5
623.667	17527.5
629.204	17427.5
634.735	17356.5
640.261	17309.5
645.781	17203.5
651.294	17143.5
656.802	17096.5
662.304	17164.5
667.8	17069.5
673.29	17043.5
678.775	17010.5
684.254	16893.5
689.726	16839.5
695.193	16847.5
700.655	16709.5
706.11	16609.5
711.56	16547.5
717.004	16457.5
722.442	16407.5
727.874	16308.5
733.301	16226.5
738.722	16186.5
744.137	16162.5
749.547	16203.5
754.951	16140.5
760.349	16122.5
765.741	16168.5
771.128	16143.5
776.509	16183.5
781.885	16224.5
787.254	16140.5
792.618	16082.5
797.977	15971.5
803.33	15849.5
808.677	15823.5
814.019	15722.5
819.355	15567.5
824.686	15580.5
830.011	15517.5
835.33	15472.5
840.644	15523.5
845.952	15498.5
851.255	15520.5
856.552	15607.5
861.844	15513.5
867.13	15441.5
872.41	15374.5
877.686	15295.5
882.955	15165.5
888.219	14994.5
893.478	14860.5
898.731	14682.5
903.979	14481.5
909.221	14358.5
914.458	14367.5
919.69	14298.5
924.916	14375.5
930.136	14373.5
935.351	14443.5
940.561	14463.5
945.766	14366.5
950.965	14321.5
956.158	14200.5
961.347	14053.5
966.529	13836.5
971.707	13701.5
976.879	13506.5
982.046	13435.5
987.208	13399.5
992.364	13379.5
997.515	13460.5
1002.66	13588.5
1007.801	13748.5
1012.936	13822.5
1018.066	13813.5
1023.19	13822.5
1028.309	13822.5
1033.423	13771.5
1038.532	13746.5
1043.636	13592.5
1048.734	13443.5
1053.827	13292.5
1058.915	13066.5
1063.998	12971.5
1069.075	12995.5
1074.147	13004.5
1079.214	13031.5
1084.276	13140.5
1089.333	13196.5
1094.385	13180.5
1099.431	13284.5
1104.472	13250.5
1109.509	13110.5
1114.54	13026.5
1119.565	12822.5
1124.586	12743.5
1129.602	12549.5
1134.613	12472.5
1139.618	12393.5
1144.619	12364.5
1149.614	12342.5
1154.604	12374.5
1159.589	12421.5
1164.57	12429.5
1169.545	12462.5
1174.515	12465.5
1179.48	12401.5
1184.44	12257.5
1189.395	12195.5
1194.345	12134.5
1199.29	12051.5
1204.23	12038.5
1209.165	12103.5
1214.095	12180.5
1219.021	12224.5
1223.941	12276.5
1228.856	12348.5
1233.766	12399.5
1238.672	12409.5
1243.572	12367.5
1248.467	12303.5
1253.358	12132.5
1258.244	11997.5
1263.124	11828.5
1268	11640.5
1272.871	11502.5
1277.737	11381.5
1282.599	11342.5
1287.455	11280.5
1292.306	11342.5
1297.153	11343.5
1301.995	11424.5
1306.832	11472.5
1311.664	11450.5
1316.491	11482.5
1321.314	11316.5
1326.132	11201.5
1330.945	10995.5
1335.753	10722.5
1340.556	10413.5
1345.354	10209.5
1350.148	10071.5
1354.937	9941.5
1359.722	9879.5
1364.501	9904.5
1369.276	9931.5
1374.046	9986.5
1378.811	10113.5
1383.572	10164.5
1388.327	10234.5
1393.079	10218.5
1397.825	10108.5
1402.567	10051.5
1407.304	9925.5
1412.036	9845.5
1416.764	9766.5
1421.487	9749.5
1426.205	9695.5
1430.919	9705.5
1435.628	9661.5
1440.333	9673.5
1445.032	9713.5
1449.727	9775.5
1454.418	9693.5
1459.104	9635.5
1463.785	9444.5
1468.462	9231.5
1473.134	9007.5
1477.802	8832.5
1482.465	8726.5
1487.123	8537.5
1491.777	8490.5
1496.426	8485.5
1501.071	8546.5
1505.711	8662.5
1510.347	8765.5
1514.978	8881.5
1519.604	9006.5
1524.226	9114.5
1528.844	9088.5
1533.457	9100.5
1538.065	9064.5
1542.669	9035.5
1547.269	9001.5
1551.864	8971.5
1556.454	8938.5
1561.041	8923.5
1565.622	8936.5
1570.199	9010.5
1574.772	9042.5
1579.34	9143.5
1583.904	9156.5
1588.464	9242.5
1593.019	9248.5
1597.569	9216.5
1602.115	9166.5
1606.657	9137.5
1611.195	9076.5
1615.728	9029.5
1620.256	9018.5
1624.78	9013.5
1629.3	8978.5
1633.816	9030.5
1638.327	9067.5
1642.834	9121.5
1647.336	9118.5
1651.834	9123.5
1656.328	9102.5
1660.817	9006.5
1665.302	8923.5
1669.783	8771.5
1674.259	8536.5
1678.732	8270.5
1683.199	8006.5
1687.663	7728.5
1692.122	7435.5
1696.577	7272.5
1701.028	7187.5
1705.474	7152.5
1709.917	7190.5
1714.355	7182.5
1718.788	7199.5
1723.218	7091.5
1727.643	6983.5
1732.064	6862.5
1736.481	6712.5
1740.893	6525.5
1745.301	6386.5
1749.705	6240.5
1754.105	6042.5
1758.501	5859.5
1762.893	5691.5
1767.28	5570.5
1771.663	5444.5
1776.042	5333.5
1780.417	5276.5
1784.787	5254.5
1789.154	5263.5
1793.516	5317.5
1797.874	5407.5
1802.228	5470.5
1806.578	5505.5
1810.924	5529.5
1815.266	5475.5
1819.603	5427.5
1823.937	5366.5
1828.266	5290.5
1832.591	5251.5
1836.913	5165.5
1841.23	5108.5
1845.543	5083.5
1849.852	5032.5
1854.156	5016.5
1858.457	5018.5
1862.754	5021.5
1867.047	5048.5
1871.335	4982.5
1875.62	4983.5
1879.9	4987.5
1884.177	4890.5
1888.449	4876.5
1892.718	4811.5
1896.982	4746.5
1901.243	4711.5
1905.499	4634.5
1909.752	4633.5
1914	4630.5
1918.245	4601.5
1922.485	4647.5
1926.722	4702.5
1930.954	4743.5
1935.183	4781.5
1939.408	4823.5
1943.628	4826.5
1947.845	4868.5
1952.058	4861.5
1956.267	4801.5
1960.472	4766.5
1964.673	4668.5
1968.87	4612.5
1973.063	4567.5
1977.252	4497.5
1981.438	4465.5
1985.619	4450.5
1989.797	4394.5
1993.971	4377.5
1998.14	4352.5
2002.306	4344.5
2006.469	4360.5
2010.627	4321.5
2014.781	4282.5
2018.932	4247.5
2023.078	4200.5
2027.221	4137.5
2031.36	4105.5
2035.495	4058.5
2039.627	3961.5
2043.754	3936.5
2047.878	3858.5
2051.998	3837.5
2056.114	3841.5
2060.226	3821.5
2064.334	3822.5
2068.439	3837.5
2072.54	3866.5
2076.637	3863.5
2080.73	3878.5
2084.82	3893.5
2088.906	3913.5
2092.988	3921.5
2097.066	3897.5
2101.14	3891.5
2105.211	3835.5
2109.278	3830.5
2113.342	3766.5
2117.401	3782.5
2121.457	3745.5
2125.509	3756.5
2129.558	3742.5
2133.602	3696.5
2137.643	3708.5
2141.681	3685.5
2145.714	3659.5
2149.744	3611.5
2153.77	3613.5
2157.793	3569.5
2161.812	3511.5
2165.827	3463.5
2169.838	3427.5
2173.846	3347.5
2177.851	3304.5
2181.851	3245.5
2185.848	3251.5
2189.841	3188.5
2193.831	3158.5
2197.817	3133.5
2201.799	3108.5
2205.778	3084.5
2209.753	3083.5
2213.725	3099.5
2217.693	3077.5
2221.657	3051.5
2225.618	3064.5
2229.575	3042.5
2233.529	3010.5
2237.479	2966.5
2241.425	2927.5
2245.368	2895.5
2249.307	2849.5
2253.243	2826.5
2257.175	2760.5
2261.104	2739.5
2265.029	2709.5
2268.95	2675.5
2272.868	2644.5
2276.783	2615.5
2280.694	2583.5
2284.601	2573.5
2288.505	2555.5
2292.405	2512.5
2296.302	2463.5
2300.195	2418.5
2304.085	2422.5
2307.971	2391.5
2311.854	2361.5
2315.734	2331.5
2319.609	2285.5
2323.482	2256.5
2327.351	2242.5
2331.216	2263.5
2335.078	2234.5
2338.937	2210.5
2342.792	2180.5
2346.643	2185.5
2350.492	2209.5
2354.336	2181.5
2358.178	2192.5
2362.015	2228.5
2365.85	2209.5
2369.681	2205.5
2373.508	2223.5
2377.333	2193.5
2381.153	2197.5
2384.971	2191.5
2388.785	2181.5
2392.595	2138.5
2396.402	2122.5
2400.206	2126.5
2404.007	2104.5
2407.804	2093.5
2411.597	2075.5
2415.388	2059.5
2419.174	2041.5
2422.958	2021.5
2426.738	2019.5
2430.515	1990.5
2434.289	1996.5
2438.059	1967.5
2441.825	1950.5
2445.589	1919.5
2449.349	1903.5
2453.106	1867.5
2456.859	1835.5
2460.61	1818.5
2464.356	1810.5
2468.1	1799.5
2471.84	1768.5
2475.577	1726.5
2479.311	1739.5
2483.041	1738.5
2486.768	1730.5
2490.492	1695.5
2494.213	1722.5
2497.93	1685.5
2501.644	1677.5
2505.355	1678.5
2509.062	1666.5
2512.766	1666.5
2516.467	1647.5
2520.165	1613.5
2523.859	1612.5
2527.551	1594.5
2531.239	1594.5
2534.923	1561.5
2538.605	1570.5
2542.283	1539.5
2545.958	1541.5
2549.63	1563.5
2553.299	1555.5
2556.964	1526.5
2560.626	1544.5
2564.285	1530.5
2567.941	1515.5
2571.594	1504.5
2575.243	1500.5
2578.89	1473.5
2582.533	1469.5
2586.173	1458.5
2589.809	1467.5
2593.443	1441.5
2597.073	1411.5
2600.701	1418.5
2604.325	1398.5
2607.946	1388.5
2611.564	1378.5
2615.178	1372.5
2618.79	1385.5
2622.398	1357.5
2626.004	1349.5
2629.606	1313.5
2633.205	1314.5
2636.801	1273.5
2640.394	1260.5
2643.983	1238.5
2647.57	1234.5
2651.153	1216.5
2654.734	1181.5
2658.311	1160.5
2661.885	1159.5
2665.456	1128.5
2669.025	1134.5
2672.589	1091.5
2676.151	1105.5
2679.71	1075.5
2683.266	1058.5
2686.819	1039.5
2690.368	1029.5
2693.915	1013.5
2697.458	976.5
2700.999	946.5
2704.536	924.5
2708.071	904.5
2711.602	885.5
2715.13	870.5
2718.656	838.5
2722.178	839.5
2725.697	805.5
2729.214	796.5
2732.727	815.5
2736.237	798.5
2739.744	787.5
2743.249	804.5
2746.75	794.5
2750.248	791.5
2753.743	792.5
2757.236	803.5
2760.725	813.5
2764.211	809.5
2767.695	812.5
2771.175	808.5
2774.652	817.5
2778.127	809.5
2781.598	805.5
2785.067	803.5
2788.532	810.5
2791.995	785.5
2795.455	802.5
2798.911	794.5
2802.365	795.5
2805.816	809.5
2809.264	836.5
2812.709	823.5
2816.151	813.5
2819.59	830.5
2823.026	815.5
2826.46	820.5
2829.89	834.5
2833.318	824.5
2836.742	842.5
2840.164	851.5
2843.583	844.5
2846.999	855.5
2850.412	855.5
2853.822	878.5
2857.229	900.5
2860.634	903.5
2864.035	941.5
2867.434	945.5
2870.83	982.5
2874.223	976.5
2877.613	1015.5
2881	1028.5
2884.385	1039.5
2887.766	1030.5
2891.145	1029.5
2894.521	1024.5
2897.894	1042.5
2901.264	1034.5
2904.631	1051.5
2907.996	1041.5
2911.358	1058.5
2914.717	1081.5
2918.073	1075.5
2921.426	1087.5
2924.777	1120.5
2928.124	1127.5
2931.469	1145.5
2934.811	1189.5
2938.15	1198.5
2941.487	1224.5
2944.821	1217.5
2948.152	1224.5
2951.48	1215.5
2954.805	1191.5
2958.128	1192.5
2961.447	1178.5
2964.765	1157.5
2968.079	1184.5
2971.39	1191.5
2974.699	1188.5
2978.005	1207.5
2981.308	1250.5
2984.609	1251.5
2987.907	1288.5
2991.202	1295.5
2994.494	1324.5
2997.784	1334.5
3001.07	1364.5
3004.355	1406.5
3007.636	1426.5
3010.915	1458.5
3014.191	1469.5
3017.464	1456.5
3020.734	1488.5
3024.002	1505.5
3027.267	1504.5
3030.53	1538.5
3033.789	1561.5
3037.046	1587.5
3040.301	1622.5
3043.552	1636.5
3046.801	1698.5
3050.048	1746.5
3053.291	1788.5
3056.532	1826.5
3059.771	1873.5
3063.006	1937.5
3066.239	1989.5
3069.469	2070.5
3072.697	2101.5
3075.922	2165.5
3079.144	2212.5
3082.364	2274.5
3085.581	2330.5
3088.795	2360.5
3092.007	2420.5
3095.216	2476.5
3098.423	2532.5
3101.627	2617.5
3104.828	2638.5
3108.026	2657.5
3111.222	2752.5
3114.416	2829.5
3117.607	2910.5
3120.795	2941.5
3123.98	3013.5
3127.163	3100.5
3130.344	3179.5
3133.521	3247.5
3136.696	3285.5
3139.869	3410.5
3143.039	3488.5
3146.206	3504.5
3149.371	3579.5
3152.533	3561.5
3155.693	3623.5
3158.85	3638.5
3162.005	3658.5
3165.157	3653.5
3168.306	3677.5
3171.453	3676.5
3174.597	3708.5
3177.739	3693.5
3180.878	3725.5
3184.014	3727.5
3187.149	3733.5
3190.28	3749.5
3193.409	3725.5
3196.536	3737.5
3199.659	3759.5
3202.781	3747.5
3205.9	3756.5
3209.016	3745.5
3212.13	3741.5
3215.241	3717.5
3218.35	3666.5
3221.456	3617.5
3224.56	3576.5
3227.661	3547.5
3230.76	3479.5
3233.856	3477.5
3236.95	3426.5
3240.041	3397.5
3243.13	3359.5
3246.216	3332.5
3249.3	3300.5
3252.382	3308.5
3255.46	3266.5
3258.537	3247.5
3261.611	3304.5
3264.682	3287.5
3267.751	3265.5
3270.818	3257.5
3273.882	3267.5
3276.943	3264.5
3280.002	3240.5
3283.059	3231.5
3286.113	3179.5
3289.165	3136.5
3292.214	3068.5
3295.261	3028.5
3298.306	2985.5
3301.348	2952.5
3304.387	2903.5
3307.425	2863.5
3310.459	2812.5
3313.492	2789.5
3316.521	2746.5
3319.549	2709.5
3322.574	2694.5
3325.597	2663.5
3328.617	2665.5
3331.635	2644.5
3334.65	2618.5
3337.663	2612.5
3340.674	2583.5
3343.682	2590.5
3346.688	2599.5
3349.691	2588.5
3352.692	2537.5
3355.691	2519.5
3358.687	2532.5
3361.681	2487.5
3364.673	2471.5
3367.662	2440.5
3370.649	2384.5
3373.633	2351.5
3376.615	2325.5
3379.595	2295.5
3382.572	2270.5
3385.547	2213.5
3388.52	2169.5
3391.49	2151.5
3394.458	2142.5
3397.424	2103.5
3400.387	2067.5
3403.348	2051.5
3406.307	2037.5
3409.263	1971.5
3412.217	1956.5
3415.168	1962.5
3418.118	1918.5
3421.065	1893.5
3424.009	1896.5
3426.951	1834.5
3429.891	1826.5
3432.829	1775.5
3435.764	1734.5
3438.697	1672.5
3441.628	1630.5
3444.557	1590.5
3447.483	1525.5
3450.407	1474.5
3453.328	1460.5
3456.247	1378.5
3459.164	1348.5
3462.079	1294.5
3464.991	1232.5
3467.902	1200.5
3470.809	1152.5
3473.715	1102.5
3476.618	1060.5
3479.519	1022.5
3482.418	979.5
3485.315	945.5
3488.209	912.5
3491.101	874.5
3493.99	852.5
3496.878	817.5
3499.763	792.5
3502.646	745.5
3505.527	715.5
3508.405	683.5
3511.281	645.5
3514.155	593.5
3517.027	564.5
3519.897	527.5
3522.764	499.5
3525.629	466.5
3528.492	424.5
3531.352	381.5
3534.211	355.5
3537.067	308.5
3539.921	279.5
3542.773	240.5
3545.622	203.5
3548.469	190.5
3551.315	167.5
3554.157	145.5
3556.998	116.5
3559.837	93.5
3562.673	74.5
3565.507	39.5
3568.339	12.5
3571.169	10.5
3573.996	-7.5
3576.822	-13.5
3579.645	-46.5
3582.466	-67.5
3585.285	-81.5
3588.101	-97.5
3590.916	-131.5
3593.728	-145.5
3596.538	-156.5
3599.346	-176.5
3602.152	-186.5
3604.956	-204.5
3607.757	-224.5
3610.556	-241.5
3613.354	-239.5
3616.149	-259.5
3618.942	-270.5
3621.732	-275.5
3624.521	-291.5
3627.307	-298.5
3630.092	-307.5
3632.874	-321.5
3635.654	-338.5
3638.432	-337.5
3641.208	-336.5
3643.982	-351.5
3646.753	-356.5
3649.523	-367.5
3652.29	-369.5
3655.055	-379.5
3657.818	-399.5
3660.579	-403.5
3663.338	-417.5
3666.095	-420.5
3668.849	-435.5
3671.602	-439.5
3674.352	-447.5
3677.101	-445.5
3679.847	-461.5
3682.591	-465.5
3685.333	-470.5
3688.073	-478.5
3690.811	-481.5
3693.547	-483.5
3696.281	-488.5
3699.013	-493.5
3701.742	-500.5
3704.47	-509.5
3707.195	-516.5
3709.919	-515.5
3712.64	-514.5
3715.359	-523.5
3718.076	-524.5
3720.792	-522.5
3723.505	-528.5
3726.216	-532.5
3728.925	-529.5
3731.632	-539.5
3734.336	-539.5
3737.039	-541.5
3739.74	-542.5
3742.439	-549.5
3745.136	-554.5
3747.83	-554.5
3750.523	-558.5
3753.213	-550.5
3755.902	-561.5
3758.589	-558.5
3761.273	-560.5
3763.956	-566.5
3766.636	-564.5
3769.315	-568.5
3771.991	-562.5
3774.665	-574.5
3777.338	-569.5
3780.008	-570.5
3782.677	-575.5
3785.343	-567.5
3788.007	-574.5
3790.67	-577.5
3793.33	-584.5
3795.989	-580.5
3798.645	-578.5
3801.299	-572.5
3803.952	-588.5
3806.602	-589.5
3809.251	-592.5
3811.897	-591.5
3814.542	-588.5
3817.184	-584.5
3819.825	-588.5
3822.463	-579.5
3825.1	-590.5
3827.735	-585.5
3830.367	-586.5
3832.998	-593.5
3835.627	-590.5
3838.253	-593.5
3840.878	-601.5
3843.501	-597.5
3846.122	-596.5
3848.741	-593.5
3851.358	-598.5
3853.973	-595.5
3856.586	-599.5
3859.197	-597.5
3861.806	-598.5
3864.414	-594.5
3867.019	-591.5
3869.622	-596.5
3872.224	-588.5
3874.823	-577.5
3877.421	-561.5
3880.016	-541.5
3882.61	-522.5
3885.202	-520.5
3887.792	-534.5
3890.38	-565.5
3892.966	-590.5
3895.55	-595.5
3898.132	-603.5
3900.713	-611.5
3903.291	-606.5
3905.868	-605.5
3908.442	-608.5
3911.015	-605.5
3913.586	-602.5
3916.155	-604.5
3918.722	-614.5
3921.287	-607.5
3923.85	-614.5
3926.411	-614.5
3928.971	-615.5
3931.528	-614.5
3934.084	-614.5
3936.638	-610.5
3939.19	-614.5
3941.74	-614.5
3944.288	-619.5
3946.834	-607.5
3949.378	-610.5
3951.921	-608.5
3954.462	-616.5
3957	-607.5
3959.537	-609.5
3962.072	-607.5
3964.606	-611.5
3967.137	-609.5
3969.667	-611.5
3972.194	-599.5
3974.72	-613.5
3977.244	-598.5
3979.766	-599.5
3982.286	-603.5
3984.805	-603.5
3987.321	-605.5
3989.836	-600.5
3992.349	-592.5
3994.86	-596.5
3997.369	-603.5
3999.877	-589.5
4002.382	-593.5
4004.886	-593.5
4007.388	-591.5
4009.888	-594.5
4012.386	-594.5
4014.883	-597.5
4017.377	-595.5
4019.87	-601.5
4022.361	-598.5
4024.85	-606.5
4027.338	-599.5
4029.823	-597.5
4032.307	-603.5
4034.789	-594.5
4037.269	-595.5
4039.747	-599.5
4042.224	-597.5
4044.699	-599.5
4047.172	-598.5
4049.643	-595.5
4052.112	-605.5
4054.58	-604.5
4057.046	-601.5
4059.51	-609.5
4061.972	-605.5
4064.432	-607.5
4066.891	-602.5
4069.348	-597.5
4071.803	-595.5
4074.256	-598.5
4076.708	-598.5
4079.158	-602.5
4081.606	-602.5
4084.052	-602.5
4086.497	-600.5
4088.939	-595.5
4091.38	-599.5
4093.819	-595.5
4096.257	-628.5
4098.693	-631.5
4101.127	-631.5
4103.559	-628.5
4105.989	-364.5
4108.418	-331.5
4110.845	-312.5
4113.27	-291.5
4115.694	-254.5
4118.115	-213.5
4120.535	-600.5
4122.954	-601.5
4125.37	-594.5
4127.785	-599.5
4130.198	-601.5
4132.609	-602.5
4135.019	-636.5
4137.427	-634.5
4139.833	-631.5
4142.237	-630.5
