Data from 2018-2-14_conc=3_n=7_RamanShift_00.txt Node
Date: Wed Feb 14 12:02:26 IST 2018
User: aro
Spectrometer: QEPB0276
Trigger mode: 0
Integration Time (sec): 3.000000E1
Scans to average: 1
Electric dark correction enabled: true
Nonlinearity correction enabled: false
Boxcar width: 0
XAxis mode: Raman Shifts
Number of Pixels in Spectrum: 1044
>>>>>Begin Spectral Data<<<<<
160.701	-130.1
166.742	52.9
172.777	547.9
178.805	2086.9
184.826	5867.9
190.841	12342.9
196.849	19863.9
202.85	25217.9
208.845	27001.9
214.833	26740.9
220.815	26127.9
226.789	25843.9
232.758	25719.9
238.719	25553.9
244.674	25153.9
250.623	24584.9
256.565	24000.9
262.5	23458.9
268.429	23012.9
274.351	22568.9
280.267	22240.9
286.176	21897.9
292.079	21784.9
297.975	21459.9
303.865	21249.9
309.748	21122.9
315.625	20873.9
321.495	20783.9
327.359	20634.9
333.217	20649.9
339.068	20552.9
344.912	20607.9
350.751	20552.9
356.583	20479.9
362.408	20524.9
368.227	20474.9
374.04	20571.9
379.847	20582.9
385.647	20647.9
391.44	20733.9
397.228	20816.9
403.009	20952.9
408.784	20995.9
414.553	21061.9
420.315	21094.9
426.071	21113.9
431.821	21061.9
437.565	21123.9
443.302	21066.9
449.033	20998.9
454.758	20940.9
460.477	20889.9
466.189	20850.9
471.896	20764.9
477.596	20791.9
483.29	20694.9
488.978	20701.9
494.66	20663.9
500.335	20431.9
506.005	20194.9
511.668	19984.9
517.325	19718.9
522.977	19537.9
528.622	19420.9
534.261	19280.9
539.894	19209.9
545.521	19068.9
551.141	18960.9
556.756	18902.9
562.365	18813.9
567.968	18786.9
573.565	18694.9
579.155	18595.9
584.74	18526.9
590.319	18517.9
595.892	18383.9
601.459	18340.9
607.02	18241.9
612.575	18135.9
618.124	18013.9
623.667	17926.9
629.204	17829.9
634.735	17678.9
640.261	17668.9
645.781	17585.9
651.294	17562.9
656.802	17485.9
662.304	17551.9
667.8	17468.9
673.29	17473.9
678.775	17452.9
684.254	17337.9
689.726	17301.9
695.193	17204.9
700.655	17139.9
706.11	17060.9
711.56	17011.9
717.004	16844.9
722.442	16768.9
727.874	16744.9
733.301	16719.9
738.722	16611.9
744.137	16623.9
749.547	16571.9
754.951	16584.9
760.349	16592.9
765.741	16645.9
771.128	16603.9
776.509	16598.9
781.885	16609.9
787.254	16577.9
792.618	16498.9
797.977	16368.9
803.33	16287.9
808.677	16241.9
814.019	16081.9
819.355	16085.9
824.686	15970.9
830.011	15905.9
835.33	15959.9
840.644	15963.9
845.952	15943.9
851.255	16002.9
856.552	15980.9
861.844	15971.9
867.13	15893.9
872.41	15842.9
877.686	15767.9
882.955	15677.9
888.219	15467.9
893.478	15322.9
898.731	15121.9
903.979	14980.9
909.221	14859.9
914.458	14821.9
919.69	14822.9
924.916	14839.9
930.136	14895.9
935.351	14945.9
940.561	14918.9
945.766	14881.9
950.965	14828.9
956.158	14725.9
961.347	14594.9
966.529	14371.9
971.707	14212.9
976.879	14011.9
982.046	13904.9
987.208	13853.9
992.364	13824.9
997.515	13909.9
1002.66	14002.9
1007.801	14182.9
1012.936	14361.9
1018.066	14307.9
1023.19	14323.9
1028.309	14283.9
1033.423	14245.9
1038.532	14199.9
1043.636	14074.9
1048.734	13883.9
1053.827	13776.9
1058.915	13617.9
1063.998	13492.9
1069.075	13463.9
1074.147	13439.9
1079.214	13511.9
1084.276	13579.9
1089.333	13682.9
1094.385	13716.9
1099.431	13751.9
1104.472	13786.9
1109.509	13698.9
1114.54	13579.9
1119.565	13392.9
1124.586	13201.9
1129.602	13059.9
1134.613	12993.9
1139.618	12866.9
1144.619	12865.9
1149.614	12914.9
1154.604	12906.9
1159.589	12930.9
1164.57	12946.9
1169.545	12992.9
1174.515	12980.9
1179.48	12900.9
1184.44	12833.9
1189.395	12747.9
1194.345	12611.9
1199.29	12544.9
1204.23	12546.9
1209.165	12647.9
1214.095	12692.9
1219.021	12745.9
1223.941	12830.9
1228.856	12891.9
1233.766	12925.9
1238.672	12946.9
1243.572	12981.9
1248.467	12870.9
1253.358	12697.9
1258.244	12513.9
1263.124	12362.9
1268	12173.9
1272.871	12013.9
1277.737	11903.9
1282.599	11824.9
1287.455	11859.9
1292.306	11888.9
1297.153	11939.9
1301.995	11987.9
1306.832	12016.9
1311.664	12060.9
1316.491	11992.9
1321.314	11896.9
1326.132	11756.9
1330.945	11474.9
1335.753	11161.9
1340.556	10941.9
1345.354	10663.9
1350.148	10542.9
1354.937	10490.9
1359.722	10433.9
1364.501	10457.9
1369.276	10618.9
1374.046	10792.9
1378.811	10937.9
1383.572	11046.9
1388.327	11089.9
1393.079	11015.9
1397.825	10870.9
1402.567	10723.9
1407.304	10555.9
1412.036	10506.9
1416.764	10452.9
1421.487	10337.9
1426.205	10260.9
1430.919	10272.9
1435.628	10266.9
1440.333	10259.9
1445.032	10277.9
1449.727	10347.9
1454.418	10343.9
1459.104	10229.9
1463.785	10044.9
1468.462	9850.9
1473.134	9596.9
1477.802	9457.9
1482.465	9245.9
1487.123	9156.9
1491.777	9133.9
1496.426	9204.9
1501.071	9272.9
1505.711	9401.9
1510.347	9589.9
1514.978	9755.9
1519.604	9918.9
1524.226	10019.9
1528.844	10046.9
1533.457	9980.9
1538.065	9987.9
1542.669	9901.9
1547.269	9826.9
1551.864	9816.9
1556.454	9721.9
1561.041	9724.9
1565.622	9745.9
1570.199	9730.9
1574.772	9786.9
1579.34	9898.9
1583.904	9946.9
1588.464	9964.9
1593.019	9927.9
1597.569	9954.9
1602.115	9913.9
1606.657	9844.9
1611.195	9794.9
1615.728	9751.9
1620.256	9671.9
1624.78	9696.9
1629.3	9709.9
1633.816	9755.9
1638.327	9816.9
1642.834	9849.9
1647.336	9883.9
1651.834	9886.9
1656.328	9886.9
1660.817	9842.9
1665.302	9786.9
1669.783	9608.9
1674.259	9408.9
1678.732	9154.9
1683.199	8842.9
1687.663	8487.9
1692.122	8244.9
1696.577	8117.9
1701.028	8118.9
1705.474	8140.9
1709.917	8224.9
1714.355	8226.9
1718.788	8121.9
1723.218	8024.9
1727.643	7841.9
1732.064	7713.9
1736.481	7513.9
1740.893	7353.9
1745.301	7183.9
1749.705	6971.9
1754.105	6815.9
1758.501	6560.9
1762.893	6448.9
1767.28	6255.9
1771.663	6125.9
1776.042	6034.9
1780.417	5985.9
1784.787	5990.9
1789.154	6014.9
1793.516	6160.9
1797.874	6245.9
1802.228	6379.9
1806.578	6401.9
1810.924	6420.9
1815.266	6377.9
1819.603	6292.9
1823.937	6182.9
1828.266	6065.9
1832.591	5965.9
1836.913	5905.9
1841.23	5848.9
1845.543	5790.9
1849.852	5774.9
1854.156	5759.9
1858.457	5708.9
1862.754	5713.9
1867.047	5726.9
1871.335	5707.9
1875.62	5712.9
1879.9	5686.9
1884.177	5649.9
1888.449	5597.9
1892.718	5521.9
1896.982	5473.9
1901.243	5429.9
1905.499	5430.9
1909.752	5383.9
1914	5432.9
1918.245	5421.9
1922.485	5463.9
1926.722	5537.9
1930.954	5593.9
1935.183	5613.9
1939.408	5697.9
1943.628	5725.9
1947.845	5769.9
1952.058	5728.9
1956.267	5676.9
1960.472	5619.9
1964.673	5517.9
1968.87	5457.9
1973.063	5333.9
1977.252	5287.9
1981.438	5249.9
1985.619	5167.9
1989.797	5142.9
1993.971	5133.9
1998.14	5101.9
2002.306	5091.9
2006.469	5059.9
2010.627	5022.9
2014.781	5020.9
2018.932	4981.9
2023.078	4919.9
2027.221	4853.9
2031.36	4752.9
2035.495	4706.9
2039.627	4661.9
2043.754	4596.9
2047.878	4564.9
2051.998	4513.9
2056.114	4502.9
2060.226	4516.9
2064.334	4534.9
2068.439	4541.9
2072.54	4547.9
2076.637	4587.9
2080.73	4620.9
2084.82	4645.9
2088.906	4647.9
2092.988	4675.9
2097.066	4632.9
2101.14	4608.9
2105.211	4564.9
2109.278	4592.9
2113.342	4509.9
2117.401	4498.9
2121.457	4513.9
2125.509	4459.9
2129.558	4459.9
2133.602	4399.9
2137.643	4380.9
2141.681	4349.9
2145.714	4357.9
2149.744	4301.9
2153.77	4299.9
2157.793	4257.9
2161.812	4180.9
2165.827	4145.9
2169.838	4060.9
2173.846	3974.9
2177.851	3935.9
2181.851	3877.9
2185.848	3810.9
2189.841	3789.9
2193.831	3743.9
2197.817	3721.9
2201.799	3684.9
2205.778	3659.9
2209.753	3652.9
2213.725	3637.9
2217.693	3661.9
2221.657	3636.9
2225.618	3624.9
2229.575	3588.9
2233.529	3570.9
2237.479	3545.9
2241.425	3487.9
2245.368	3445.9
2249.307	3402.9
2253.243	3348.9
2257.175	3268.9
2261.104	3253.9
2265.029	3216.9
2268.95	3222.9
2272.868	3173.9
2276.783	3154.9
2280.694	3094.9
2284.601	3072.9
2288.505	3040.9
2292.405	3015.9
2296.302	2989.9
2300.195	2940.9
2304.085	2897.9
2307.971	2881.9
2311.854	2820.9
2315.734	2769.9
2319.609	2736.9
2323.482	2716.9
2327.351	2667.9
2331.216	2646.9
2335.078	2656.9
2338.937	2616.9
2342.792	2581.9
2346.643	2573.9
2350.492	2600.9
2354.336	2601.9
2358.178	2585.9
2362.015	2623.9
2365.85	2605.9
2369.681	2608.9
2373.508	2614.9
2377.333	2624.9
2381.153	2583.9
2384.971	2564.9
2388.785	2552.9
2392.595	2517.9
2396.402	2507.9
2400.206	2486.9
2404.007	2441.9
2407.804	2439.9
2411.597	2422.9
2415.388	2416.9
2419.174	2408.9
2422.958	2377.9
2426.738	2373.9
2430.515	2363.9
2434.289	2337.9
2438.059	2310.9
2441.825	2287.9
2445.589	2267.9
2449.349	2221.9
2453.106	2205.9
2456.859	2192.9
2460.61	2162.9
2464.356	2152.9
2468.1	2106.9
2471.84	2094.9
2475.577	2092.9
2479.311	2058.9
2483.041	2052.9
2486.768	2042.9
2490.492	2048.9
2494.213	2032.9
2497.93	2046.9
2501.644	2015.9
2505.355	1998.9
2509.062	1991.9
2512.766	1976.9
2516.467	1964.9
2520.165	1973.9
2523.859	1942.9
2527.551	1948.9
2531.239	1914.9
2534.923	1904.9
2538.605	1910.9
2542.283	1897.9
2545.958	1906.9
2549.63	1890.9
2553.299	1893.9
2556.964	1894.9
2560.626	1868.9
2564.285	1878.9
2567.941	1871.9
2571.594	1847.9
2575.243	1848.9
2578.89	1827.9
2582.533	1809.9
2586.173	1817.9
2589.809	1766.9
2593.443	1765.9
2597.073	1759.9
2600.701	1764.9
2604.325	1725.9
2607.946	1730.9
2611.564	1698.9
2615.178	1708.9
2618.79	1681.9
2622.398	1674.9
2626.004	1650.9
2629.606	1619.9
2633.205	1623.9
2636.801	1571.9
2640.394	1567.9
2643.983	1542.9
2647.57	1522.9
2651.153	1481.9
2654.734	1465.9
2658.311	1449.9
2661.885	1424.9
2665.456	1415.9
2669.025	1401.9
2672.589	1385.9
2676.151	1375.9
2679.71	1355.9
2683.266	1325.9
2686.819	1310.9
2690.368	1280.9
2693.915	1251.9
2697.458	1242.9
2700.999	1189.9
2704.536	1172.9
2708.071	1138.9
2711.602	1127.9
2715.13	1103.9
2718.656	1078.9
2722.178	1069.9
2725.697	1060.9
2729.214	1054.9
2732.727	1033.9
2736.237	1042.9
2739.744	1015.9
2743.249	1044.9
2746.75	1037.9
2750.248	1060.9
2753.743	1063.9
2757.236	1071.9
2760.725	1082.9
2764.211	1094.9
2767.695	1094.9
2771.175	1083.9
2774.652	1083.9
2778.127	1096.9
2781.598	1076.9
2785.067	1069.9
2788.532	1061.9
2791.995	1063.9
2795.455	1058.9
2798.911	1058.9
2802.365	1087.9
2805.816	1056.9
2809.264	1069.9
2812.709	1069.9
2816.151	1075.9
2819.59	1074.9
2823.026	1061.9
2826.46	1055.9
2829.89	1074.9
2833.318	1077.9
2836.742	1070.9
2840.164	1084.9
2843.583	1086.9
2846.999	1098.9
2850.412	1110.9
2853.822	1137.9
2857.229	1134.9
2860.634	1164.9
2864.035	1201.9
2867.434	1181.9
2870.83	1223.9
2874.223	1241.9
2877.613	1261.9
2881	1284.9
2884.385	1302.9
2887.766	1300.9
2891.145	1296.9
2894.521	1278.9
2897.894	1279.9
2901.264	1280.9
2904.631	1299.9
2907.996	1275.9
2911.358	1293.9
2914.717	1316.9
2918.073	1324.9
2921.426	1333.9
2924.777	1350.9
2928.124	1363.9
2931.469	1394.9
2934.811	1436.9
2938.15	1436.9
2941.487	1457.9
2944.821	1450.9
2948.152	1473.9
2951.48	1439.9
2954.805	1423.9
2958.128	1422.9
2961.447	1424.9
2964.765	1420.9
2968.079	1425.9
2971.39	1437.9
2974.699	1440.9
2978.005	1467.9
2981.308	1489.9
2984.609	1519.9
2987.907	1551.9
2991.202	1571.9
2994.494	1620.9
2997.784	1640.9
3001.07	1663.9
3004.355	1683.9
3007.636	1707.9
3010.915	1729.9
3014.191	1750.9
3017.464	1747.9
3020.734	1794.9
3024.002	1772.9
3027.267	1800.9
3030.53	1817.9
3033.789	1841.9
3037.046	1867.9
3040.301	1890.9
3043.552	1931.9
3046.801	1949.9
3050.048	1994.9
3053.291	2071.9
3056.532	2109.9
3059.771	2158.9
3063.006	2232.9
3066.239	2317.9
3069.469	2338.9
3072.697	2413.9
3075.922	2462.9
3079.144	2549.9
3082.364	2591.9
3085.581	2670.9
3088.795	2704.9
3092.007	2774.9
3095.216	2837.9
3098.423	2869.9
3101.627	2966.9
3104.828	3019.9
3108.026	3079.9
3111.222	3126.9
3114.416	3223.9
3117.607	3252.9
3120.795	3360.9
3123.98	3451.9
3127.163	3526.9
3130.344	3594.9
3133.521	3671.9
3136.696	3779.9
3139.869	3818.9
3143.039	3916.9
3146.206	3969.9
3149.371	4029.9
3152.533	4047.9
3155.693	4084.9
3158.85	4098.9
3162.005	4092.9
3165.157	4136.9
3168.306	4159.9
3171.453	4144.9
3174.597	4187.9
3177.739	4159.9
3180.878	4163.9
3184.014	4202.9
3187.149	4171.9
3190.28	4198.9
3193.409	4201.9
3196.536	4205.9
3199.659	4219.9
3202.781	4240.9
3205.9	4219.9
3209.016	4199.9
3212.13	4179.9
3215.241	4189.9
3218.35	4132.9
3221.456	4097.9
3224.56	4068.9
3227.661	4004.9
3230.76	3973.9
3233.856	3931.9
3236.95	3928.9
3240.041	3870.9
3243.13	3849.9
3246.216	3813.9
3249.3	3782.9
3252.382	3740.9
3255.46	3721.9
3258.537	3730.9
3261.611	3720.9
3264.682	3727.9
3267.751	3730.9
3270.818	3763.9
3273.882	3705.9
3276.943	3688.9
3280.002	3649.9
3283.059	3621.9
3286.113	3623.9
3289.165	3535.9
3292.214	3497.9
3295.261	3423.9
3298.306	3403.9
3301.348	3329.9
3304.387	3278.9
3307.425	3244.9
3310.459	3179.9
3313.492	3122.9
3316.521	3106.9
3319.549	3044.9
3322.574	3056.9
3325.597	3012.9
3328.617	3000.9
3331.635	2969.9
3334.65	2958.9
3337.663	2926.9
3340.674	2915.9
3343.682	2878.9
3346.688	2903.9
3349.691	2880.9
3352.692	2867.9
3355.691	2848.9
3358.687	2798.9
3361.681	2776.9
3364.673	2750.9
3367.662	2716.9
3370.649	2677.9
3373.633	2654.9
3376.615	2611.9
3379.595	2566.9
3382.572	2532.9
3385.547	2478.9
3388.52	2446.9
3391.49	2425.9
3394.458	2364.9
3397.424	2358.9
3400.387	2321.9
3403.348	2309.9
3406.307	2271.9
3409.263	2252.9
3412.217	2229.9
3415.168	2185.9
3418.118	2166.9
3421.065	2158.9
3424.009	2116.9
3426.951	2074.9
3429.891	2048.9
3432.829	1979.9
3435.764	1929.9
3438.697	1920.9
3441.628	1845.9
3444.557	1811.9
3447.483	1752.9
3450.407	1707.9
3453.328	1612.9
3456.247	1586.9
3459.164	1538.9
3462.079	1488.9
3464.991	1433.9
3467.902	1392.9
3470.809	1324.9
3473.715	1298.9
3476.618	1235.9
3479.519	1184.9
3482.418	1160.9
3485.315	1111.9
3488.209	1096.9
3491.101	1050.9
3493.99	1006.9
3496.878	970.9
3499.763	925.9
3502.646	891.9
3505.527	849.9
3508.405	813.9
3511.281	777.9
3514.155	755.9
3517.027	690.9
3519.897	666.9
3522.764	600.9
3525.629	567.9
3528.492	524.9
3531.352	487.9
3534.211	449.9
3537.067	409.9
3539.921	383.9
3542.773	332.9
3545.622	294.9
3548.469	269.9
3551.315	237.9
3554.157	229.9
3556.998	185.9
3559.837	168.9
3562.673	146.9
3565.507	119.9
3568.339	83.9
3571.169	69.9
3573.996	48.9
3576.822	24.9
3579.645	14.9
3582.466	-19.1
3585.285	-29.1
3588.101	-61.1
3590.916	-76.1
3593.728	-98.1
3596.538	-114.1
3599.346	-137.1
3602.152	-149.1
3604.956	-161.1
3607.757	-182.1
3610.556	-207.1
3613.354	-213.1
3616.149	-233.1
3618.942	-234.1
3621.732	-250.1
3624.521	-272.1
3627.307	-268.1
3630.092	-280.1
3632.874	-302.1
3635.654	-308.1
3638.432	-313.1
3641.208	-315.1
3643.982	-338.1
3646.753	-339.1
3649.523	-353.1
3652.29	-361.1
3655.055	-362.1
3657.818	-376.1
3660.579	-391.1
3663.338	-408.1
3666.095	-411.1
3668.849	-416.1
3671.602	-423.1
3674.352	-433.1
3677.101	-438.1
3679.847	-449.1
3682.591	-458.1
3685.333	-461.1
3688.073	-468.1
3690.811	-477.1
3693.547	-480.1
3696.281	-483.1
3699.013	-487.1
3701.742	-501.1
3704.47	-504.1
3707.195	-509.1
3709.919	-509.1
3712.64	-513.1
3715.359	-512.1
3718.076	-518.1
3720.792	-516.1
3723.505	-524.1
3726.216	-529.1
3728.925	-529.1
3731.632	-540.1
3734.336	-536.1
3737.039	-544.1
3739.74	-541.1
3742.439	-548.1
3745.136	-549.1
3747.83	-552.1
3750.523	-558.1
3753.213	-547.1
3755.902	-559.1
3758.589	-560.1
3761.273	-558.1
3763.956	-571.1
3766.636	-563.1
3769.315	-569.1
3771.991	-566.1
3774.665	-574.1
3777.338	-572.1
3780.008	-575.1
3782.677	-574.1
3785.343	-571.1
3788.007	-572.1
3790.67	-576.1
3793.33	-582.1
3795.989	-577.1
3798.645	-578.1
3801.299	-578.1
3803.952	-587.1
3806.602	-597.1
3809.251	-593.1
3811.897	-591.1
3814.542	-593.1
3817.184	-590.1
3819.825	-589.1
3822.463	-585.1
3825.1	-588.1
3827.735	-587.1
3830.367	-585.1
3832.998	-598.1
3835.627	-599.1
3838.253	-594.1
3840.878	-600.1
3843.501	-595.1
3846.122	-593.1
3848.741	-594.1
3851.358	-600.1
3853.973	-601.1
3856.586	-604.1
3859.197	-605.1
3861.806	-603.1
3864.414	-604.1
3867.019	-603.1
3869.622	-600.1
3872.224	-598.1
3874.823	-574.1
3877.421	-562.1
3880.016	-546.1
3882.61	-533.1
3885.202	-523.1
3887.792	-539.1
3890.38	-565.1
3892.966	-587.1
3895.55	-601.1
3898.132	-617.1
3900.713	-615.1
3903.291	-617.1
3905.868	-613.1
3908.442	-617.1
3911.015	-615.1
3913.586	-615.1
3916.155	-617.1
3918.722	-617.1
3921.287	-619.1
3923.85	-621.1
3926.411	-612.1
3928.971	-626.1
3931.528	-616.1
3934.084	-614.1
3936.638	-614.1
3939.19	-615.1
3941.74	-613.1
3944.288	-615.1
3946.834	-611.1
3949.378	-615.1
3951.921	-615.1
3954.462	-624.1
3957	-615.1
3959.537	-615.1
3962.072	-611.1
3964.606	-619.1
3967.137	-620.1
3969.667	-616.1
3972.194	-608.1
3974.72	-615.1
3977.244	-604.1
3979.766	-606.1
3982.286	-605.1
3984.805	-603.1
3987.321	-610.1
3989.836	-606.1
3992.349	-597.1
3994.86	-601.1
3997.369	-607.1
3999.877	-600.1
4002.382	-606.1
4004.886	-604.1
4007.388	-599.1
4009.888	-605.1
4012.386	-611.1
4014.883	-602.1
4017.377	-607.1
4019.87	-602.1
4022.361	-605.1
4024.85	-605.1
4027.338	-606.1
4029.823	-601.1
4032.307	-609.1
4034.789	-604.1
4037.269	-603.1
4039.747	-605.1
4042.224	-606.1
4044.699	-611.1
4047.172	-610.1
4049.643	-606.1
4052.112	-614.1
4054.58	-610.1
4057.046	-608.1
4059.51	-614.1
4061.972	-611.1
4064.432	-612.1
4066.891	-604.1
4069.348	-606.1
4071.803	-604.1
4074.256	-603.1
4076.708	-606.1
4079.158	-612.1
4081.606	-613.1
4084.052	-611.1
4086.497	-608.1
4088.939	-600.1
4091.38	-607.1
4093.819	-599.1
4096.257	-639.1
4098.693	-638.1
4101.127	-640.1
4103.559	-639.1
4105.989	-362.1
4108.418	-346.1
4110.845	-325.1
4113.27	-291.1
4115.694	-259.1
4118.115	-211.1
4120.535	-606.1
4122.954	-609.1
4125.37	-600.1
4127.785	-607.1
4130.198	-609.1
4132.609	-608.1
4135.019	-639.1
4137.427	-641.1
4139.833	-639.1
4142.237	-638.1
