Data from 2018-2-14_conc=0_n=6_RamanShift_05.txt Node
Date: Wed Feb 14 10:44:56 IST 2018
User: aro
Spectrometer: QEPB0276
Trigger mode: 0
Integration Time (sec): 3.000000E1
Scans to average: 1
Electric dark correction enabled: true
Nonlinearity correction enabled: false
Boxcar width: 0
XAxis mode: Raman Shifts
Number of Pixels in Spectrum: 1044
>>>>>Begin Spectral Data<<<<<
160.701	-133.5
166.742	42.5
172.777	579.5
178.805	2127.5
184.826	5860.5
190.841	12228.5
196.849	19640.5
202.85	24825.5
208.845	26604.5
214.833	26423.5
220.815	26029.5
226.789	25805.5
232.758	25733.5
238.719	25559.5
244.674	25240.5
250.623	24872.5
256.565	24351.5
262.5	23886.5
268.429	23481.5
274.351	23146.5
280.267	22877.5
286.176	22642.5
292.079	22426.5
297.975	22215.5
303.865	22137.5
309.748	21923.5
315.625	21784.5
321.495	21645.5
327.359	21623.5
333.217	21611.5
339.068	21605.5
344.912	21588.5
350.751	21552.5
356.583	21552.5
362.408	21468.5
368.227	21517.5
374.04	21501.5
379.847	21511.5
385.647	21656.5
391.44	21739.5
397.228	21851.5
403.009	21871.5
408.784	22030.5
414.553	22044.5
420.315	22114.5
426.071	22160.5
431.821	22152.5
437.565	22065.5
443.302	22035.5
449.033	22051.5
454.758	21929.5
460.477	21935.5
466.189	21845.5
471.896	21834.5
477.596	21815.5
483.29	21707.5
488.978	21704.5
494.66	21576.5
500.335	21424.5
506.005	21211.5
511.668	21000.5
517.325	20717.5
522.977	20543.5
528.622	20390.5
534.261	20224.5
539.894	20101.5
545.521	20090.5
551.141	19994.5
556.756	19927.5
562.365	19835.5
567.968	19748.5
573.565	19695.5
579.155	19625.5
584.74	19569.5
590.319	19497.5
595.892	19359.5
601.459	19337.5
607.02	19247.5
612.575	19145.5
618.124	18999.5
623.667	18871.5
629.204	18820.5
634.735	18830.5
640.261	18671.5
645.781	18576.5
651.294	18552.5
656.802	18536.5
662.304	18511.5
667.8	18450.5
673.29	18298.5
678.775	18375.5
684.254	18285.5
689.726	18244.5
695.193	18199.5
700.655	18080.5
706.11	18029.5
711.56	17899.5
717.004	17893.5
722.442	17742.5
727.874	17671.5
733.301	17686.5
738.722	17595.5
744.137	17604.5
749.547	17639.5
754.951	17530.5
760.349	17537.5
765.741	17581.5
771.128	17593.5
776.509	17574.5
781.885	17582.5
787.254	17560.5
792.618	17481.5
797.977	17341.5
803.33	17252.5
808.677	17187.5
814.019	17036.5
819.355	16986.5
824.686	16908.5
830.011	16831.5
835.33	16846.5
840.644	16861.5
845.952	16853.5
851.255	16909.5
856.552	16938.5
861.844	16917.5
867.13	16809.5
872.41	16765.5
877.686	16683.5
882.955	16576.5
888.219	16407.5
893.478	16264.5
898.731	16048.5
903.979	15923.5
909.221	15833.5
914.458	15715.5
919.69	15729.5
924.916	15740.5
930.136	15835.5
935.351	15810.5
940.561	15824.5
945.766	15784.5
950.965	15722.5
956.158	15598.5
961.347	15462.5
966.529	15291.5
971.707	15071.5
976.879	14859.5
982.046	14755.5
987.208	14739.5
992.364	14759.5
997.515	14768.5
1002.66	14878.5
1007.801	15048.5
1012.936	15170.5
1018.066	15215.5
1023.19	15204.5
1028.309	15197.5
1033.423	15160.5
1038.532	15080.5
1043.636	14927.5
1048.734	14794.5
1053.827	14606.5
1058.915	14448.5
1063.998	14365.5
1069.075	14251.5
1074.147	14307.5
1079.214	14358.5
1084.276	14456.5
1089.333	14504.5
1094.385	14591.5
1099.431	14648.5
1104.472	14615.5
1109.509	14510.5
1114.54	14411.5
1119.565	14167.5
1124.586	13996.5
1129.602	13858.5
1134.613	13737.5
1139.618	13695.5
1144.619	13660.5
1149.614	13617.5
1154.604	13663.5
1159.589	13718.5
1164.57	13744.5
1169.545	13785.5
1174.515	13771.5
1179.48	13663.5
1184.44	13517.5
1189.395	13469.5
1194.345	13377.5
1199.29	13332.5
1204.23	13358.5
1209.165	13383.5
1214.095	13444.5
1219.021	13470.5
1223.941	13579.5
1228.856	13610.5
1233.766	13683.5
1238.672	13687.5
1243.572	13647.5
1248.467	13586.5
1253.358	13353.5
1258.244	13219.5
1263.124	13016.5
1268	12888.5
1272.871	12648.5
1277.737	12585.5
1282.599	12546.5
1287.455	12510.5
1292.306	12547.5
1297.153	12603.5
1301.995	12664.5
1306.832	12700.5
1311.664	12702.5
1316.491	12650.5
1321.314	12541.5
1326.132	12308.5
1330.945	12137.5
1335.753	11830.5
1340.556	11594.5
1345.354	11364.5
1350.148	11202.5
1354.937	11027.5
1359.722	11005.5
1364.501	11084.5
1369.276	11188.5
1374.046	11280.5
1378.811	11445.5
1383.572	11517.5
1388.327	11621.5
1393.079	11510.5
1397.825	11423.5
1402.567	11246.5
1407.304	11099.5
1412.036	10986.5
1416.764	10920.5
1421.487	10864.5
1426.205	10827.5
1430.919	10761.5
1435.628	10799.5
1440.333	10769.5
1445.032	10816.5
1449.727	10844.5
1454.418	10850.5
1459.104	10703.5
1463.785	10554.5
1468.462	10322.5
1473.134	10138.5
1477.802	9940.5
1482.465	9766.5
1487.123	9697.5
1491.777	9632.5
1496.426	9679.5
1501.071	9781.5
1505.711	9899.5
1510.347	10105.5
1514.978	10227.5
1519.604	10364.5
1524.226	10450.5
1528.844	10483.5
1533.457	10422.5
1538.065	10395.5
1542.669	10339.5
1547.269	10252.5
1551.864	10148.5
1556.454	10149.5
1561.041	10128.5
1565.622	10119.5
1570.199	10131.5
1574.772	10166.5
1579.34	10249.5
1583.904	10287.5
1588.464	10317.5
1593.019	10263.5
1597.569	10285.5
1602.115	10227.5
1606.657	10137.5
1611.195	10063.5
1615.728	9989.5
1620.256	9928.5
1624.78	9957.5
1629.3	9949.5
1633.816	10032.5
1638.327	10049.5
1642.834	10066.5
1647.336	10145.5
1651.834	10186.5
1656.328	10131.5
1660.817	10073.5
1665.302	9948.5
1669.783	9833.5
1674.259	9622.5
1678.732	9351.5
1683.199	9037.5
1687.663	8795.5
1692.122	8570.5
1696.577	8375.5
1701.028	8366.5
1705.474	8385.5
1709.917	8453.5
1714.355	8495.5
1718.788	8448.5
1723.218	8333.5
1727.643	8183.5
1732.064	8020.5
1736.481	7843.5
1740.893	7670.5
1745.301	7449.5
1749.705	7241.5
1754.105	7038.5
1758.501	6849.5
1762.893	6658.5
1767.28	6549.5
1771.663	6395.5
1776.042	6268.5
1780.417	6234.5
1784.787	6249.5
1789.154	6332.5
1793.516	6393.5
1797.874	6544.5
1802.228	6598.5
1806.578	6659.5
1810.924	6652.5
1815.266	6640.5
1819.603	6534.5
1823.937	6421.5
1828.266	6328.5
1832.591	6229.5
1836.913	6155.5
1841.23	6059.5
1845.543	6034.5
1849.852	6010.5
1854.156	5980.5
1858.457	5971.5
1862.754	5952.5
1867.047	5949.5
1871.335	5958.5
1875.62	5963.5
1879.9	5937.5
1884.177	5877.5
1888.449	5800.5
1892.718	5768.5
1896.982	5706.5
1901.243	5656.5
1905.499	5593.5
1909.752	5618.5
1914	5614.5
1918.245	5667.5
1922.485	5676.5
1926.722	5724.5
1930.954	5810.5
1935.183	5872.5
1939.408	5913.5
1943.628	5906.5
1947.845	5967.5
1952.058	5944.5
1956.267	5895.5
1960.472	5763.5
1964.673	5711.5
1968.87	5624.5
1973.063	5519.5
1977.252	5450.5
1981.438	5384.5
1985.619	5300.5
1989.797	5318.5
1993.971	5281.5
1998.14	5231.5
2002.306	5202.5
2006.469	5193.5
2010.627	5159.5
2014.781	5146.5
2018.932	5063.5
2023.078	5016.5
2027.221	4959.5
2031.36	4891.5
2035.495	4820.5
2039.627	4737.5
2043.754	4713.5
2047.878	4634.5
2051.998	4610.5
2056.114	4599.5
2060.226	4623.5
2064.334	4620.5
2068.439	4625.5
2072.54	4640.5
2076.637	4682.5
2080.73	4731.5
2084.82	4704.5
2088.906	4771.5
2092.988	4748.5
2097.066	4744.5
2101.14	4711.5
2105.211	4671.5
2109.278	4643.5
2113.342	4623.5
2117.401	4557.5
2121.457	4548.5
2125.509	4555.5
2129.558	4513.5
2133.602	4451.5
2137.643	4450.5
2141.681	4401.5
2145.714	4397.5
2149.744	4368.5
2153.77	4313.5
2157.793	4299.5
2161.812	4237.5
2165.827	4176.5
2169.838	4126.5
2173.846	4064.5
2177.851	3984.5
2181.851	3916.5
2185.848	3874.5
2189.841	3841.5
2193.831	3806.5
2197.817	3758.5
2201.799	3746.5
2205.778	3705.5
2209.753	3715.5
2213.725	3696.5
2217.693	3695.5
2221.657	3688.5
2225.618	3659.5
2229.575	3633.5
2233.529	3593.5
2237.479	3564.5
2241.425	3524.5
2245.368	3479.5
2249.307	3401.5
2253.243	3382.5
2257.175	3331.5
2261.104	3293.5
2265.029	3235.5
2268.95	3219.5
2272.868	3183.5
2276.783	3144.5
2280.694	3107.5
2284.601	3096.5
2288.505	3066.5
2292.405	3020.5
2296.302	2993.5
2300.195	2942.5
2304.085	2926.5
2307.971	2896.5
2311.854	2837.5
2315.734	2806.5
2319.609	2754.5
2323.482	2734.5
2327.351	2681.5
2331.216	2675.5
2335.078	2668.5
2338.937	2637.5
2342.792	2627.5
2346.643	2602.5
2350.492	2592.5
2354.336	2635.5
2358.178	2638.5
2362.015	2619.5
2365.85	2640.5
2369.681	2617.5
2373.508	2625.5
2377.333	2637.5
2381.153	2614.5
2384.971	2600.5
2388.785	2587.5
2392.595	2558.5
2396.402	2537.5
2400.206	2526.5
2404.007	2504.5
2407.804	2470.5
2411.597	2471.5
2415.388	2456.5
2419.174	2446.5
2422.958	2423.5
2426.738	2394.5
2430.515	2370.5
2434.289	2367.5
2438.059	2356.5
2441.825	2324.5
2445.589	2296.5
2449.349	2273.5
2453.106	2272.5
2456.859	2236.5
2460.61	2209.5
2464.356	2170.5
2468.1	2128.5
2471.84	2142.5
2475.577	2093.5
2479.311	2092.5
2483.041	2075.5
2486.768	2078.5
2490.492	2073.5
2494.213	2046.5
2497.93	2060.5
2501.644	2054.5
2505.355	2025.5
2509.062	1998.5
2512.766	2015.5
2516.467	2000.5
2520.165	1996.5
2523.859	1963.5
2527.551	1960.5
2531.239	1942.5
2534.923	1957.5
2538.605	1936.5
2542.283	1918.5
2545.958	1901.5
2549.63	1915.5
2553.299	1944.5
2556.964	1911.5
2560.626	1892.5
2564.285	1898.5
2567.941	1891.5
2571.594	1876.5
2575.243	1863.5
2578.89	1821.5
2582.533	1830.5
2586.173	1801.5
2589.809	1786.5
2593.443	1782.5
2597.073	1761.5
2600.701	1731.5
2604.325	1740.5
2607.946	1720.5
2611.564	1711.5
2615.178	1690.5
2618.79	1673.5
2622.398	1667.5
2626.004	1652.5
2629.606	1653.5
2633.205	1618.5
2636.801	1578.5
2640.394	1566.5
2643.983	1522.5
2647.57	1516.5
2651.153	1507.5
2654.734	1465.5
2658.311	1446.5
2661.885	1423.5
2665.456	1421.5
2669.025	1386.5
2672.589	1367.5
2676.151	1357.5
2679.71	1332.5
2683.266	1317.5
2686.819	1299.5
2690.368	1269.5
2693.915	1235.5
2697.458	1218.5
2700.999	1191.5
2704.536	1146.5
2708.071	1133.5
2711.602	1114.5
2715.13	1090.5
2718.656	1056.5
2722.178	1070.5
2725.697	1036.5
2729.214	1033.5
2732.727	1020.5
2736.237	1016.5
2739.744	1006.5
2743.249	1025.5
2746.75	1028.5
2750.248	1023.5
2753.743	1055.5
2757.236	1046.5
2760.725	1068.5
2764.211	1074.5
2767.695	1045.5
2771.175	1049.5
2774.652	1066.5
2778.127	1064.5
2781.598	1046.5
2785.067	1031.5
2788.532	1037.5
2791.995	1022.5
2795.455	1024.5
2798.911	1042.5
2802.365	1052.5
2805.816	1024.5
2809.264	1025.5
2812.709	1034.5
2816.151	1033.5
2819.59	1028.5
2823.026	1042.5
2826.46	1036.5
2829.89	1023.5
2833.318	1054.5
2836.742	1040.5
2840.164	1037.5
2843.583	1041.5
2846.999	1062.5
2850.412	1070.5
2853.822	1069.5
2857.229	1066.5
2860.634	1106.5
2864.035	1121.5
2867.434	1132.5
2870.83	1157.5
2874.223	1173.5
2877.613	1186.5
2881	1220.5
2884.385	1209.5
2887.766	1225.5
2891.145	1201.5
2894.521	1210.5
2897.894	1190.5
2901.264	1206.5
2904.631	1211.5
2907.996	1204.5
2911.358	1206.5
2914.717	1214.5
2918.073	1209.5
2921.426	1243.5
2924.777	1245.5
2928.124	1264.5
2931.469	1283.5
2934.811	1289.5
2938.15	1337.5
2941.487	1318.5
2944.821	1333.5
2948.152	1355.5
2951.48	1341.5
2954.805	1301.5
2958.128	1286.5
2961.447	1295.5
2964.765	1290.5
2968.079	1306.5
2971.39	1321.5
2974.699	1328.5
2978.005	1356.5
2981.308	1379.5
2984.609	1393.5
2987.907	1422.5
2991.202	1435.5
2994.494	1477.5
2997.784	1501.5
3001.07	1549.5
3004.355	1539.5
3007.636	1576.5
3010.915	1595.5
3014.191	1596.5
3017.464	1604.5
3020.734	1620.5
3024.002	1631.5
3027.267	1645.5
3030.53	1647.5
3033.789	1668.5
3037.046	1677.5
3040.301	1697.5
3043.552	1740.5
3046.801	1763.5
3050.048	1798.5
3053.291	1837.5
3056.532	1899.5
3059.771	1936.5
3063.006	2027.5
3066.239	2064.5
3069.469	2129.5
3072.697	2183.5
3075.922	2258.5
3079.144	2297.5
3082.364	2357.5
3085.581	2401.5
3088.795	2456.5
3092.007	2485.5
3095.216	2539.5
3098.423	2596.5
3101.627	2684.5
3104.828	2746.5
3108.026	2766.5
3111.222	2848.5
3114.416	2912.5
3117.607	2963.5
3120.795	3041.5
3123.98	3131.5
3127.163	3192.5
3130.344	3263.5
3133.521	3333.5
3136.696	3416.5
3139.869	3471.5
3143.039	3511.5
3146.206	3591.5
3149.371	3612.5
3152.533	3655.5
3155.693	3699.5
3158.85	3727.5
3162.005	3739.5
3165.157	3737.5
3168.306	3759.5
3171.453	3761.5
3174.597	3747.5
3177.739	3783.5
3180.878	3790.5
3184.014	3803.5
3187.149	3749.5
3190.28	3790.5
3193.409	3799.5
3196.536	3779.5
3199.659	3821.5
3202.781	3818.5
3205.9	3822.5
3209.016	3782.5
3212.13	3790.5
3215.241	3762.5
3218.35	3724.5
3221.456	3701.5
3224.56	3674.5
3227.661	3632.5
3230.76	3564.5
3233.856	3546.5
3236.95	3511.5
3240.041	3503.5
3243.13	3446.5
3246.216	3406.5
3249.3	3432.5
3252.382	3436.5
3255.46	3410.5
3258.537	3394.5
3261.611	3379.5
3264.682	3387.5
3267.751	3364.5
3270.818	3361.5
3273.882	3374.5
3276.943	3311.5
3280.002	3316.5
3283.059	3300.5
3286.113	3247.5
3289.165	3175.5
3292.214	3139.5
3295.261	3068.5
3298.306	3030.5
3301.348	2989.5
3304.387	2937.5
3307.425	2908.5
3310.459	2846.5
3313.492	2807.5
3316.521	2773.5
3319.549	2730.5
3322.574	2692.5
3325.597	2685.5
3328.617	2682.5
3331.635	2647.5
3334.65	2635.5
3337.663	2612.5
3340.674	2617.5
3343.682	2607.5
3346.688	2602.5
3349.691	2565.5
3352.692	2555.5
3355.691	2543.5
3358.687	2504.5
3361.681	2516.5
3364.673	2452.5
3367.662	2414.5
3370.649	2381.5
3373.633	2345.5
3376.615	2322.5
3379.595	2282.5
3382.572	2250.5
3385.547	2198.5
3388.52	2182.5
3391.49	2155.5
3394.458	2107.5
3397.424	2077.5
3400.387	2052.5
3403.348	2026.5
3406.307	2015.5
3409.263	1997.5
3412.217	1965.5
3415.168	1933.5
3418.118	1913.5
3421.065	1878.5
3424.009	1840.5
3426.951	1847.5
3429.891	1811.5
3432.829	1743.5
3435.764	1718.5
3438.697	1676.5
3441.628	1621.5
3444.557	1586.5
3447.483	1528.5
3450.407	1496.5
3453.328	1429.5
3456.247	1382.5
3459.164	1338.5
3462.079	1305.5
3464.991	1251.5
3467.902	1179.5
3470.809	1141.5
3473.715	1102.5
3476.618	1056.5
3479.519	1046.5
3482.418	995.5
3485.315	961.5
3488.209	930.5
3491.101	906.5
3493.99	866.5
3496.878	813.5
3499.763	791.5
3502.646	764.5
3505.527	741.5
3508.405	696.5
3511.281	654.5
3514.155	617.5
3517.027	577.5
3519.897	530.5
3522.764	482.5
3525.629	468.5
3528.492	423.5
3531.352	378.5
3534.211	352.5
3537.067	319.5
3539.921	280.5
3542.773	261.5
3545.622	214.5
3548.469	196.5
3551.315	164.5
3554.157	142.5
3556.998	105.5
3559.837	90.5
3562.673	73.5
3565.507	44.5
3568.339	15.5
3571.169	10.5
3573.996	-15.5
3576.822	-31.5
3579.645	-49.5
3582.466	-71.5
3585.285	-94.5
3588.101	-116.5
3590.916	-124.5
3593.728	-152.5
3596.538	-160.5
3599.346	-178.5
3602.152	-202.5
3604.956	-208.5
3607.757	-222.5
3610.556	-245.5
3613.354	-259.5
3616.149	-268.5
3618.942	-291.5
3621.732	-290.5
3624.521	-312.5
3627.307	-311.5
3630.092	-322.5
3632.874	-319.5
3635.654	-347.5
3638.432	-355.5
3641.208	-360.5
3643.982	-371.5
3646.753	-380.5
3649.523	-383.5
3652.29	-394.5
3655.055	-398.5
3657.818	-417.5
3660.579	-419.5
3663.338	-433.5
3666.095	-434.5
3668.849	-454.5
3671.602	-457.5
3674.352	-460.5
3677.101	-468.5
3679.847	-481.5
3682.591	-483.5
3685.333	-489.5
3688.073	-487.5
3690.811	-493.5
3693.547	-507.5
3696.281	-509.5
3699.013	-511.5
3701.742	-510.5
3704.47	-525.5
3707.195	-524.5
3709.919	-527.5
3712.64	-529.5
3715.359	-532.5
3718.076	-536.5
3720.792	-540.5
3723.505	-540.5
3726.216	-554.5
3728.925	-554.5
3731.632	-558.5
3734.336	-558.5
3737.039	-562.5
3739.74	-559.5
3742.439	-563.5
3745.136	-573.5
3747.83	-568.5
3750.523	-570.5
3753.213	-562.5
3755.902	-573.5
3758.589	-580.5
3761.273	-580.5
3763.956	-584.5
3766.636	-587.5
3769.315	-579.5
3771.991	-582.5
3774.665	-589.5
3777.338	-580.5
3780.008	-586.5
3782.677	-592.5
3785.343	-585.5
3788.007	-590.5
3790.67	-593.5
3793.33	-598.5
3795.989	-596.5
3798.645	-592.5
3801.299	-594.5
3803.952	-605.5
3806.602	-607.5
3809.251	-604.5
3811.897	-601.5
3814.542	-604.5
3817.184	-603.5
3819.825	-596.5
3822.463	-598.5
3825.1	-605.5
3827.735	-604.5
3830.367	-601.5
3832.998	-607.5
3835.627	-618.5
3838.253	-614.5
3840.878	-613.5
3843.501	-613.5
3846.122	-611.5
3848.741	-612.5
3851.358	-610.5
3853.973	-610.5
3856.586	-611.5
3859.197	-617.5
3861.806	-623.5
3864.414	-611.5
3867.019	-610.5
3869.622	-614.5
3872.224	-610.5
3874.823	-595.5
3877.421	-576.5
3880.016	-565.5
3882.61	-535.5
3885.202	-531.5
3887.792	-549.5
3890.38	-580.5
3892.966	-596.5
3895.55	-606.5
3898.132	-627.5
3900.713	-630.5
3903.291	-623.5
3905.868	-626.5
3908.442	-627.5
3911.015	-629.5
3913.586	-621.5
3916.155	-625.5
3918.722	-626.5
3921.287	-631.5
3923.85	-631.5
3926.411	-624.5
3928.971	-635.5
3931.528	-626.5
3934.084	-629.5
3936.638	-627.5
3939.19	-631.5
3941.74	-624.5
3944.288	-632.5
3946.834	-627.5
3949.378	-636.5
3951.921	-632.5
3954.462	-633.5
3957	-630.5
3959.537	-630.5
3962.072	-623.5
3964.606	-626.5
3967.137	-630.5
3969.667	-629.5
3972.194	-623.5
3974.72	-630.5
3977.244	-616.5
3979.766	-622.5
3982.286	-617.5
3984.805	-623.5
3987.321	-617.5
3989.836	-620.5
3992.349	-613.5
3994.86	-622.5
3997.369	-623.5
3999.877	-613.5
4002.382	-614.5
4004.886	-615.5
4007.388	-613.5
4009.888	-611.5
4012.386	-620.5
4014.883	-615.5
4017.377	-614.5
4019.87	-612.5
4022.361	-616.5
4024.85	-617.5
4027.338	-621.5
4029.823	-619.5
4032.307	-619.5
4034.789	-617.5
4037.269	-615.5
4039.747	-621.5
4042.224	-621.5
4044.699	-612.5
4047.172	-620.5
4049.643	-618.5
4052.112	-618.5
4054.58	-623.5
4057.046	-622.5
4059.51	-623.5
4061.972	-618.5
4064.432	-620.5
4066.891	-623.5
4069.348	-618.5
4071.803	-617.5
4074.256	-619.5
4076.708	-618.5
4079.158	-625.5
4081.606	-622.5
4084.052	-625.5
4086.497	-617.5
4088.939	-612.5
4091.38	-617.5
4093.819	-617.5
4096.257	-648.5
4098.693	-648.5
4101.127	-654.5
4103.559	-650.5
4105.989	-363.5
4108.418	-351.5
4110.845	-328.5
4113.27	-307.5
4115.694	-264.5
4118.115	-222.5
4120.535	-619.5
4122.954	-622.5
4125.37	-607.5
4127.785	-619.5
4130.198	-626.5
4132.609	-624.5
4135.019	-656.5
4137.427	-655.5
4139.833	-652.5
4142.237	-651.5
