Data from 2018-2-14_conc=0_n=7_RamanShift_04.txt Node
Date: Wed Feb 14 10:47:56 IST 2018
User: aro
Spectrometer: QEPB0276
Trigger mode: 0
Integration Time (sec): 3.000000E1
Scans to average: 1
Electric dark correction enabled: true
Nonlinearity correction enabled: false
Boxcar width: 0
XAxis mode: Raman Shifts
Number of Pixels in Spectrum: 1044
>>>>>Begin Spectral Data<<<<<
160.701	-151.2
166.742	46.8
172.777	574.8
178.805	2229.8
184.826	6187.8
190.841	12861.8
196.849	20650.8
202.85	26041.8
208.845	27862.8
214.833	27585.8
220.815	27065.8
226.789	26921.8
232.758	26790.8
238.719	26541.8
244.674	26260.8
250.623	25716.8
256.565	25204.8
262.5	24651.8
268.429	24167.8
274.351	23848.8
280.267	23595.8
286.176	23258.8
292.079	23044.8
297.975	22839.8
303.865	22709.8
309.748	22467.8
315.625	22343.8
321.495	22198.8
327.359	22116.8
333.217	22110.8
339.068	22068.8
344.912	22018.8
350.751	21989.8
356.583	21952.8
362.408	21974.8
368.227	21961.8
374.04	21988.8
379.847	22001.8
385.647	22062.8
391.44	22170.8
397.228	22272.8
403.009	22310.8
408.784	22436.8
414.553	22465.8
420.315	22518.8
426.071	22576.8
431.821	22541.8
437.565	22510.8
443.302	22437.8
449.033	22420.8
454.758	22351.8
460.477	22353.8
466.189	22334.8
471.896	22277.8
477.596	22183.8
483.29	22137.8
488.978	22204.8
494.66	22116.8
500.335	21922.8
506.005	21685.8
511.668	21459.8
517.325	21280.8
522.977	21067.8
528.622	20891.8
534.261	20731.8
539.894	20723.8
545.521	20640.8
551.141	20507.8
556.756	20466.8
562.365	20399.8
567.968	20332.8
573.565	20268.8
579.155	20171.8
584.74	20085.8
590.319	19990.8
595.892	20003.8
601.459	19961.8
607.02	19770.8
612.575	19653.8
618.124	19573.8
623.667	19411.8
629.204	19399.8
634.735	19244.8
640.261	19192.8
645.781	19111.8
651.294	19141.8
656.802	19149.8
662.304	18960.8
667.8	19008.8
673.29	18985.8
678.775	18966.8
684.254	18909.8
689.726	18851.8
695.193	18752.8
700.655	18723.8
706.11	18553.8
711.56	18506.8
717.004	18423.8
722.442	18295.8
727.874	18235.8
733.301	18265.8
738.722	18118.8
744.137	18118.8
749.547	18048.8
754.951	18053.8
760.349	18131.8
765.741	18131.8
771.128	18140.8
776.509	18160.8
781.885	18203.8
787.254	18020.8
792.618	18005.8
797.977	17845.8
803.33	17781.8
808.677	17626.8
814.019	17614.8
819.355	17516.8
824.686	17417.8
830.011	17392.8
835.33	17396.8
840.644	17355.8
845.952	17462.8
851.255	17442.8
856.552	17470.8
861.844	17450.8
867.13	17421.8
872.41	17379.8
877.686	17300.8
882.955	17108.8
888.219	16999.8
893.478	16832.8
898.731	16620.8
903.979	16475.8
909.221	16375.8
914.458	16298.8
919.69	16259.8
924.916	16326.8
930.136	16322.8
935.351	16381.8
940.561	16425.8
945.766	16326.8
950.965	16255.8
956.158	16198.8
961.347	15960.8
966.529	15799.8
971.707	15629.8
976.879	15405.8
982.046	15315.8
987.208	15259.8
992.364	15305.8
997.515	15331.8
1002.66	15527.8
1007.801	15659.8
1012.936	15759.8
1018.066	15768.8
1023.19	15744.8
1028.309	15781.8
1033.423	15740.8
1038.532	15669.8
1043.636	15521.8
1048.734	15300.8
1053.827	15147.8
1058.915	15043.8
1063.998	14878.8
1069.075	14847.8
1074.147	14819.8
1079.214	14931.8
1084.276	14963.8
1089.333	15077.8
1094.385	15155.8
1099.431	15282.8
1104.472	15174.8
1109.509	15129.8
1114.54	14963.8
1119.565	14738.8
1124.586	14571.8
1129.602	14438.8
1134.613	14308.8
1139.618	14212.8
1144.619	14203.8
1149.614	14264.8
1154.604	14264.8
1159.589	14335.8
1164.57	14269.8
1169.545	14289.8
1174.515	14339.8
1179.48	14329.8
1184.44	14156.8
1189.395	14075.8
1194.345	13961.8
1199.29	13930.8
1204.23	13869.8
1209.165	13971.8
1214.095	13970.8
1219.021	14115.8
1223.941	14151.8
1228.856	14184.8
1233.766	14309.8
1238.672	14264.8
1243.572	14324.8
1248.467	14233.8
1253.358	14015.8
1258.244	13858.8
1263.124	13633.8
1268	13416.8
1272.871	13238.8
1277.737	13182.8
1282.599	13130.8
1287.455	13120.8
1292.306	13112.8
1297.153	13144.8
1301.995	13267.8
1306.832	13299.8
1311.664	13307.8
1316.491	13307.8
1321.314	13153.8
1326.132	12950.8
1330.945	12679.8
1335.753	12335.8
1340.556	12062.8
1345.354	11791.8
1350.148	11602.8
1354.937	11497.8
1359.722	11592.8
1364.501	11644.8
1369.276	11798.8
1374.046	12041.8
1378.811	12201.8
1383.572	12370.8
1388.327	12396.8
1393.079	12321.8
1397.825	12156.8
1402.567	11920.8
1407.304	11770.8
1412.036	11657.8
1416.764	11545.8
1421.487	11497.8
1426.205	11398.8
1430.919	11403.8
1435.628	11368.8
1440.333	11371.8
1445.032	11417.8
1449.727	11479.8
1454.418	11448.8
1459.104	11272.8
1463.785	11104.8
1468.462	10903.8
1473.134	10673.8
1477.802	10480.8
1482.465	10259.8
1487.123	10185.8
1491.777	10227.8
1496.426	10286.8
1501.071	10364.8
1505.711	10595.8
1510.347	10797.8
1514.978	10968.8
1519.604	11141.8
1524.226	11270.8
1528.844	11307.8
1533.457	11271.8
1538.065	11214.8
1542.669	11078.8
1547.269	10991.8
1551.864	10908.8
1556.454	10888.8
1561.041	10841.8
1565.622	10830.8
1570.199	10783.8
1574.772	10879.8
1579.34	10934.8
1583.904	11005.8
1588.464	11012.8
1593.019	11017.8
1597.569	10987.8
1602.115	10879.8
1606.657	10810.8
1611.195	10750.8
1615.728	10667.8
1620.256	10635.8
1624.78	10608.8
1629.3	10621.8
1633.816	10669.8
1638.327	10723.8
1642.834	10851.8
1647.336	10839.8
1651.834	10850.8
1656.328	10829.8
1660.817	10828.8
1665.302	10759.8
1669.783	10562.8
1674.259	10371.8
1678.732	10065.8
1683.199	9757.8
1687.663	9378.8
1692.122	9164.8
1696.577	9027.8
1701.028	9028.8
1705.474	9117.8
1709.917	9284.8
1714.355	9314.8
1718.788	9242.8
1723.218	9073.8
1727.643	8931.8
1732.064	8717.8
1736.481	8551.8
1740.893	8308.8
1745.301	8107.8
1749.705	7856.8
1754.105	7627.8
1758.501	7452.8
1762.893	7261.8
1767.28	7076.8
1771.663	6873.8
1776.042	6801.8
1780.417	6760.8
1784.787	6756.8
1789.154	6822.8
1793.516	6955.8
1797.874	7111.8
1802.228	7270.8
1806.578	7370.8
1810.924	7363.8
1815.266	7283.8
1819.603	7169.8
1823.937	7032.8
1828.266	6938.8
1832.591	6804.8
1836.913	6718.8
1841.23	6611.8
1845.543	6556.8
1849.852	6539.8
1854.156	6533.8
1858.457	6518.8
1862.754	6496.8
1867.047	6485.8
1871.335	6485.8
1875.62	6488.8
1879.9	6506.8
1884.177	6420.8
1888.449	6338.8
1892.718	6283.8
1896.982	6253.8
1901.243	6165.8
1905.499	6128.8
1909.752	6149.8
1914	6137.8
1918.245	6164.8
1922.485	6225.8
1926.722	6329.8
1930.954	6366.8
1935.183	6453.8
1939.408	6544.8
1943.628	6585.8
1947.845	6619.8
1952.058	6571.8
1956.267	6524.8
1960.472	6450.8
1964.673	6338.8
1968.87	6202.8
1973.063	6129.8
1977.252	6041.8
1981.438	5982.8
1985.619	5894.8
1989.797	5821.8
1993.971	5841.8
1998.14	5794.8
2002.306	5752.8
2006.469	5721.8
2010.627	5662.8
2014.781	5672.8
2018.932	5612.8
2023.078	5555.8
2027.221	5506.8
2031.36	5420.8
2035.495	5338.8
2039.627	5261.8
2043.754	5171.8
2047.878	5126.8
2051.998	5116.8
2056.114	5090.8
2060.226	5120.8
2064.334	5101.8
2068.439	5113.8
2072.54	5112.8
2076.637	5189.8
2080.73	5240.8
2084.82	5240.8
2088.906	5271.8
2092.988	5264.8
2097.066	5269.8
2101.14	5257.8
2105.211	5207.8
2109.278	5184.8
2113.342	5158.8
2117.401	5141.8
2121.457	5088.8
2125.509	5053.8
2129.558	5002.8
2133.602	4990.8
2137.643	4945.8
2141.681	4936.8
2145.714	4928.8
2149.744	4858.8
2153.77	4839.8
2157.793	4783.8
2161.812	4724.8
2165.827	4653.8
2169.838	4590.8
2173.846	4504.8
2177.851	4418.8
2181.851	4361.8
2185.848	4295.8
2189.841	4248.8
2193.831	4219.8
2197.817	4177.8
2201.799	4163.8
2205.778	4150.8
2209.753	4107.8
2213.725	4104.8
2217.693	4100.8
2221.657	4099.8
2225.618	4097.8
2229.575	4051.8
2233.529	4026.8
2237.479	3999.8
2241.425	3945.8
2245.368	3883.8
2249.307	3800.8
2253.243	3766.8
2257.175	3693.8
2261.104	3674.8
2265.029	3656.8
2268.95	3607.8
2272.868	3545.8
2276.783	3513.8
2280.694	3449.8
2284.601	3430.8
2288.505	3441.8
2292.405	3369.8
2296.302	3363.8
2300.195	3325.8
2304.085	3264.8
2307.971	3219.8
2311.854	3166.8
2315.734	3103.8
2319.609	3098.8
2323.482	3020.8
2327.351	2985.8
2331.216	2961.8
2335.078	2982.8
2338.937	2942.8
2342.792	2932.8
2346.643	2942.8
2350.492	2944.8
2354.336	2899.8
2358.178	2912.8
2362.015	2936.8
2365.85	2946.8
2369.681	2935.8
2373.508	2959.8
2377.333	2933.8
2381.153	2918.8
2384.971	2886.8
2388.785	2870.8
2392.595	2855.8
2396.402	2834.8
2400.206	2806.8
2404.007	2801.8
2407.804	2788.8
2411.597	2768.8
2415.388	2736.8
2419.174	2727.8
2422.958	2679.8
2426.738	2673.8
2430.515	2656.8
2434.289	2604.8
2438.059	2620.8
2441.825	2580.8
2445.589	2563.8
2449.349	2510.8
2453.106	2528.8
2456.859	2460.8
2460.61	2451.8
2464.356	2417.8
2468.1	2390.8
2471.84	2393.8
2475.577	2353.8
2479.311	2343.8
2483.041	2324.8
2486.768	2328.8
2490.492	2305.8
2494.213	2330.8
2497.93	2293.8
2501.644	2293.8
2505.355	2266.8
2509.062	2265.8
2512.766	2255.8
2516.467	2252.8
2520.165	2253.8
2523.859	2215.8
2527.551	2191.8
2531.239	2205.8
2534.923	2192.8
2538.605	2150.8
2542.283	2170.8
2545.958	2162.8
2549.63	2154.8
2553.299	2163.8
2556.964	2149.8
2560.626	2139.8
2564.285	2116.8
2567.941	2135.8
2571.594	2134.8
2575.243	2135.8
2578.89	2084.8
2582.533	2078.8
2586.173	2057.8
2589.809	2046.8
2593.443	2028.8
2597.073	2007.8
2600.701	1996.8
2604.325	1988.8
2607.946	1967.8
2611.564	1950.8
2615.178	1928.8
2618.79	1918.8
2622.398	1918.8
2626.004	1884.8
2629.606	1849.8
2633.205	1837.8
2636.801	1822.8
2640.394	1773.8
2643.983	1747.8
2647.57	1743.8
2651.153	1731.8
2654.734	1686.8
2658.311	1657.8
2661.885	1637.8
2665.456	1627.8
2669.025	1593.8
2672.589	1582.8
2676.151	1560.8
2679.71	1555.8
2683.266	1501.8
2686.819	1493.8
2690.368	1470.8
2693.915	1435.8
2697.458	1390.8
2700.999	1376.8
2704.536	1344.8
2708.071	1308.8
2711.602	1284.8
2715.13	1266.8
2718.656	1242.8
2722.178	1224.8
2725.697	1179.8
2729.214	1171.8
2732.727	1174.8
2736.237	1158.8
2739.744	1148.8
2743.249	1169.8
2746.75	1182.8
2750.248	1186.8
2753.743	1217.8
2757.236	1219.8
2760.725	1238.8
2764.211	1255.8
2767.695	1257.8
2771.175	1250.8
2774.652	1238.8
2778.127	1233.8
2781.598	1235.8
2785.067	1227.8
2788.532	1218.8
2791.995	1198.8
2795.455	1214.8
2798.911	1189.8
2802.365	1198.8
2805.816	1185.8
2809.264	1199.8
2812.709	1209.8
2816.151	1189.8
2819.59	1206.8
2823.026	1197.8
2826.46	1208.8
2829.89	1209.8
2833.318	1203.8
2836.742	1218.8
2840.164	1220.8
2843.583	1244.8
2846.999	1245.8
2850.412	1224.8
2853.822	1260.8
2857.229	1269.8
2860.634	1287.8
2864.035	1308.8
2867.434	1331.8
2870.83	1361.8
2874.223	1351.8
2877.613	1359.8
2881	1385.8
2884.385	1395.8
2887.766	1413.8
2891.145	1406.8
2894.521	1394.8
2897.894	1414.8
2901.264	1388.8
2904.631	1401.8
2907.996	1393.8
2911.358	1398.8
2914.717	1420.8
2918.073	1406.8
2921.426	1411.8
2924.777	1453.8
2928.124	1455.8
2931.469	1482.8
2934.811	1508.8
2938.15	1540.8
2941.487	1530.8
2944.821	1530.8
2948.152	1545.8
2951.48	1530.8
2954.805	1523.8
2958.128	1485.8
2961.447	1475.8
2964.765	1494.8
2968.079	1493.8
2971.39	1501.8
2974.699	1529.8
2978.005	1554.8
2981.308	1574.8
2984.609	1590.8
2987.907	1626.8
2991.202	1665.8
2994.494	1710.8
2997.784	1726.8
3001.07	1750.8
3004.355	1772.8
3007.636	1813.8
3010.915	1828.8
3014.191	1839.8
3017.464	1840.8
3020.734	1870.8
3024.002	1881.8
3027.267	1894.8
3030.53	1867.8
3033.789	1904.8
3037.046	1940.8
3040.301	1942.8
3043.552	2001.8
3046.801	2027.8
3050.048	2055.8
3053.291	2132.8
3056.532	2176.8
3059.771	2208.8
3063.006	2296.8
3066.239	2347.8
3069.469	2433.8
3072.697	2499.8
3075.922	2556.8
3079.144	2628.8
3082.364	2664.8
3085.581	2728.8
3088.795	2781.8
3092.007	2840.8
3095.216	2894.8
3098.423	2944.8
3101.627	3008.8
3104.828	3083.8
3108.026	3134.8
3111.222	3215.8
3114.416	3273.8
3117.607	3382.8
3120.795	3439.8
3123.98	3520.8
3127.163	3582.8
3130.344	3693.8
3133.521	3765.8
3136.696	3861.8
3139.869	3919.8
3143.039	3988.8
3146.206	4043.8
3149.371	4093.8
3152.533	4146.8
3155.693	4146.8
3158.85	4171.8
3162.005	4189.8
3165.157	4190.8
3168.306	4222.8
3171.453	4261.8
3174.597	4239.8
3177.739	4220.8
3180.878	4273.8
3184.014	4238.8
3187.149	4253.8
3190.28	4258.8
3193.409	4278.8
3196.536	4270.8
3199.659	4307.8
3202.781	4295.8
3205.9	4303.8
3209.016	4274.8
3212.13	4277.8
3215.241	4228.8
3218.35	4208.8
3221.456	4176.8
3224.56	4118.8
3227.661	4082.8
3230.76	4059.8
3233.856	4010.8
3236.95	3975.8
3240.041	3933.8
3243.13	3931.8
3246.216	3889.8
3249.3	3880.8
3252.382	3890.8
3255.46	3854.8
3258.537	3859.8
3261.611	3860.8
3264.682	3855.8
3267.751	3820.8
3270.818	3820.8
3273.882	3828.8
3276.943	3811.8
3280.002	3775.8
3283.059	3747.8
3286.113	3685.8
3289.165	3623.8
3292.214	3567.8
3295.261	3500.8
3298.306	3440.8
3301.348	3417.8
3304.387	3327.8
3307.425	3287.8
3310.459	3238.8
3313.492	3194.8
3316.521	3140.8
3319.549	3112.8
3322.574	3088.8
3325.597	3062.8
3328.617	3056.8
3331.635	3019.8
3334.65	2999.8
3337.663	2958.8
3340.674	2943.8
3343.682	2925.8
3346.688	2921.8
3349.691	2915.8
3352.692	2879.8
3355.691	2875.8
3358.687	2850.8
3361.681	2833.8
3364.673	2773.8
3367.662	2712.8
3370.649	2704.8
3373.633	2662.8
3376.615	2634.8
3379.595	2593.8
3382.572	2543.8
3385.547	2540.8
3388.52	2461.8
3391.49	2464.8
3394.458	2392.8
3397.424	2374.8
3400.387	2359.8
3403.348	2316.8
3406.307	2275.8
3409.263	2282.8
3412.217	2231.8
3415.168	2218.8
3418.118	2181.8
3421.065	2169.8
3424.009	2138.8
3426.951	2099.8
3429.891	2069.8
3432.829	1999.8
3435.764	1992.8
3438.697	1921.8
3441.628	1868.8
3444.557	1821.8
3447.483	1744.8
3450.407	1730.8
3453.328	1660.8
3456.247	1604.8
3459.164	1549.8
3462.079	1497.8
3464.991	1458.8
3467.902	1405.8
3470.809	1343.8
3473.715	1287.8
3476.618	1249.8
3479.519	1197.8
3482.418	1193.8
3485.315	1123.8
3488.209	1107.8
3491.101	1057.8
3493.99	1002.8
3496.878	997.8
3499.763	962.8
3502.646	917.8
3505.527	870.8
3508.405	831.8
3511.281	796.8
3514.155	752.8
3517.027	716.8
3519.897	668.8
3522.764	610.8
3525.629	572.8
3528.492	525.8
3531.352	489.8
3534.211	451.8
3537.067	405.8
3539.921	382.8
3542.773	338.8
3545.622	292.8
3548.469	269.8
3551.315	255.8
3554.157	219.8
3556.998	169.8
3559.837	161.8
3562.673	132.8
3565.507	103.8
3568.339	81.8
3571.169	60.8
3573.996	44.8
3576.822	26.8
3579.645	-7.2
3582.466	-19.2
3585.285	-42.2
3588.101	-59.2
3590.916	-87.2
3593.728	-117.2
3596.538	-126.2
3599.346	-150.2
3602.152	-161.2
3604.956	-182.2
3607.757	-201.2
3610.556	-215.2
3613.354	-223.2
3616.149	-245.2
3618.942	-263.2
3621.732	-264.2
3624.521	-283.2
3627.307	-300.2
3630.092	-302.2
3632.874	-316.2
3635.654	-332.2
3638.432	-342.2
3641.208	-350.2
3643.982	-355.2
3646.753	-370.2
3649.523	-370.2
3652.29	-390.2
3655.055	-394.2
3657.818	-408.2
3660.579	-418.2
3663.338	-435.2
3666.095	-432.2
3668.849	-444.2
3671.602	-455.2
3674.352	-461.2
3677.101	-468.2
3679.847	-476.2
3682.591	-495.2
3685.333	-489.2
3688.073	-494.2
3690.811	-501.2
3693.547	-497.2
3696.281	-510.2
3699.013	-515.2
3701.742	-522.2
3704.47	-527.2
3707.195	-527.2
3709.919	-532.2
3712.64	-539.2
3715.359	-546.2
3718.076	-548.2
3720.792	-552.2
3723.505	-550.2
3726.216	-561.2
3728.925	-559.2
3731.632	-570.2
3734.336	-567.2
3737.039	-568.2
3739.74	-568.2
3742.439	-569.2
3745.136	-578.2
3747.83	-582.2
3750.523	-579.2
3753.213	-556.2
3755.902	-586.2
3758.589	-586.2
3761.273	-591.2
3763.956	-595.2
3766.636	-596.2
3769.315	-595.2
3771.991	-597.2
3774.665	-605.2
3777.338	-604.2
3780.008	-604.2
3782.677	-607.2
3785.343	-594.2
3788.007	-600.2
3790.67	-601.2
3793.33	-611.2
3795.989	-606.2
3798.645	-610.2
3801.299	-608.2
3803.952	-619.2
3806.602	-624.2
3809.251	-628.2
3811.897	-619.2
3814.542	-620.2
3817.184	-623.2
3819.825	-620.2
3822.463	-618.2
3825.1	-624.2
3827.735	-620.2
3830.367	-620.2
3832.998	-622.2
3835.627	-631.2
3838.253	-630.2
3840.878	-629.2
3843.501	-628.2
3846.122	-624.2
3848.741	-624.2
3851.358	-632.2
3853.973	-628.2
3856.586	-638.2
3859.197	-630.2
3861.806	-640.2
3864.414	-630.2
3867.019	-630.2
3869.622	-634.2
3872.224	-630.2
3874.823	-613.2
3877.421	-599.2
3880.016	-578.2
3882.61	-551.2
3885.202	-543.2
3887.792	-562.2
3890.38	-594.2
3892.966	-620.2
3895.55	-634.2
3898.132	-641.2
3900.713	-646.2
3903.291	-637.2
3905.868	-644.2
3908.442	-648.2
3911.015	-644.2
3913.586	-642.2
3916.155	-647.2
3918.722	-651.2
3921.287	-645.2
3923.85	-648.2
3926.411	-647.2
3928.971	-659.2
3931.528	-651.2
3934.084	-645.2
3936.638	-648.2
3939.19	-652.2
3941.74	-647.2
3944.288	-653.2
3946.834	-645.2
3949.378	-651.2
3951.921	-653.2
3954.462	-654.2
3957	-649.2
3959.537	-646.2
3962.072	-644.2
3964.606	-649.2
3967.137	-647.2
3969.667	-650.2
3972.194	-641.2
3974.72	-648.2
3977.244	-641.2
3979.766	-636.2
3982.286	-638.2
3984.805	-642.2
3987.321	-644.2
3989.836	-637.2
3992.349	-634.2
3994.86	-634.2
3997.369	-641.2
3999.877	-631.2
4002.382	-634.2
4004.886	-632.2
4007.388	-631.2
4009.888	-631.2
4012.386	-638.2
4014.883	-631.2
4017.377	-634.2
4019.87	-629.2
4022.361	-634.2
4024.85	-640.2
4027.338	-645.2
4029.823	-641.2
4032.307	-645.2
4034.789	-634.2
4037.269	-633.2
4039.747	-638.2
4042.224	-637.2
4044.699	-640.2
4047.172	-636.2
4049.643	-636.2
4052.112	-640.2
4054.58	-643.2
4057.046	-643.2
4059.51	-642.2
4061.972	-643.2
4064.432	-642.2
4066.891	-640.2
4069.348	-637.2
4071.803	-636.2
4074.256	-639.2
4076.708	-640.2
4079.158	-639.2
4081.606	-641.2
4084.052	-642.2
4086.497	-641.2
4088.939	-634.2
4091.38	-636.2
4093.819	-633.2
4096.257	-672.2
4098.693	-670.2
4101.127	-674.2
4103.559	-672.2
4105.989	-385.2
4108.418	-362.2
4110.845	-333.2
4113.27	-311.2
4115.694	-282.2
4118.115	-235.2
4120.535	-635.2
4122.954	-641.2
4125.37	-635.2
4127.785	-643.2
4130.198	-638.2
4132.609	-642.2
4135.019	-676.2
4137.427	-678.2
4139.833	-675.2
4142.237	-670.2
