Data from 2018-2-14_conc=6_n=7_RamanShift_04.txt Node
Date: Wed Feb 14 15:06:25 IST 2018
User: aro
Spectrometer: QEPB0276
Trigger mode: 0
Integration Time (sec): 3.000000E1
Scans to average: 1
Electric dark correction enabled: true
Nonlinearity correction enabled: false
Boxcar width: 0
XAxis mode: Raman Shifts
Number of Pixels in Spectrum: 1044
>>>>>Begin Spectral Data<<<<<
160.701	-143.4
166.742	39.6
172.777	569.6
178.805	2142.6
184.826	5929.6
190.841	12513.6
196.849	20161.6
202.85	25480.6
208.845	27398.6
214.833	27061.6
220.815	26675.6
226.789	26479.6
232.758	26405.6
238.719	26234.6
244.674	25952.6
250.623	25439.6
256.565	24964.6
262.5	24515.6
268.429	24061.6
274.351	23752.6
280.267	23379.6
286.176	23218.6
292.079	22985.6
297.975	22785.6
303.865	22574.6
309.748	22473.6
315.625	22346.6
321.495	22229.6
327.359	22143.6
333.217	22015.6
339.068	22062.6
344.912	22131.6
350.751	22075.6
356.583	21973.6
362.408	21959.6
368.227	21989.6
374.04	22005.6
379.847	22115.6
385.647	22150.6
391.44	22210.6
397.228	22311.6
403.009	22397.6
408.784	22508.6
414.553	22534.6
420.315	22576.6
426.071	22553.6
431.821	22598.6
437.565	22532.6
443.302	22564.6
449.033	22463.6
454.758	22422.6
460.477	22369.6
466.189	22311.6
471.896	22292.6
477.596	22191.6
483.29	22218.6
488.978	22106.6
494.66	22056.6
500.335	21948.6
506.005	21671.6
511.668	21417.6
517.325	21143.6
522.977	20936.6
528.622	20769.6
534.261	20625.6
539.894	20528.6
545.521	20467.6
551.141	20378.6
556.756	20299.6
562.365	20278.6
567.968	20199.6
573.565	20127.6
579.155	19990.6
584.74	19978.6
590.319	19849.6
595.892	19809.6
601.459	19674.6
607.02	19623.6
612.575	19477.6
618.124	19379.6
623.667	19252.6
629.204	19165.6
634.735	19056.6
640.261	19002.6
645.781	18934.6
651.294	18894.6
656.802	18834.6
662.304	18826.6
667.8	18754.6
673.29	18734.6
678.775	18719.6
684.254	18688.6
689.726	18557.6
695.193	18513.6
700.655	18396.6
706.11	18387.6
711.56	18329.6
717.004	18171.6
722.442	18090.6
727.874	18026.6
733.301	17990.6
738.722	17883.6
744.137	17843.6
749.547	17902.6
754.951	17827.6
760.349	17821.6
765.741	17847.6
771.128	17842.6
776.509	17846.6
781.885	17922.6
787.254	17842.6
792.618	17754.6
797.977	17636.6
803.33	17544.6
808.677	17447.6
814.019	17334.6
819.355	17218.6
824.686	17147.6
830.011	17142.6
835.33	17091.6
840.644	17105.6
845.952	17123.6
851.255	17133.6
856.552	17173.6
861.844	17116.6
867.13	17089.6
872.41	17037.6
877.686	16969.6
882.955	16803.6
888.219	16657.6
893.478	16466.6
898.731	16292.6
903.979	16117.6
909.221	16056.6
914.458	15916.6
919.69	15936.6
924.916	16005.6
930.136	16036.6
935.351	16036.6
940.561	16017.6
945.766	15985.6
950.965	15941.6
956.158	15803.6
961.347	15664.6
966.529	15431.6
971.707	15253.6
976.879	15063.6
982.046	14924.6
987.208	14926.6
992.364	14918.6
997.515	14973.6
1002.66	15125.6
1007.801	15243.6
1012.936	15470.6
1018.066	15344.6
1023.19	15345.6
1028.309	15374.6
1033.423	15332.6
1038.532	15221.6
1043.636	15128.6
1048.734	14970.6
1053.827	14738.6
1058.915	14612.6
1063.998	14466.6
1069.075	14423.6
1074.147	14429.6
1079.214	14460.6
1084.276	14638.6
1089.333	14688.6
1094.385	14734.6
1099.431	14831.6
1104.472	14757.6
1109.509	14722.6
1114.54	14486.6
1119.565	14304.6
1124.586	14153.6
1129.602	13997.6
1134.613	13908.6
1139.618	13798.6
1144.619	13754.6
1149.614	13793.6
1154.604	13815.6
1159.589	13811.6
1164.57	13882.6
1169.545	13879.6
1174.515	13892.6
1179.48	13857.6
1184.44	13722.6
1189.395	13585.6
1194.345	13479.6
1199.29	13450.6
1204.23	13360.6
1209.165	13520.6
1214.095	13525.6
1219.021	13616.6
1223.941	13689.6
1228.856	13734.6
1233.766	13766.6
1238.672	13822.6
1243.572	13799.6
1248.467	13704.6
1253.358	13541.6
1258.244	13356.6
1263.124	13191.6
1268	12952.6
1272.871	12781.6
1277.737	12688.6
1282.599	12614.6
1287.455	12634.6
1292.306	12636.6
1297.153	12700.6
1301.995	12781.6
1306.832	12789.6
1311.664	12772.6
1316.491	12738.6
1321.314	12622.6
1326.132	12430.6
1330.945	12206.6
1335.753	11868.6
1340.556	11604.6
1345.354	11307.6
1350.148	11121.6
1354.937	11041.6
1359.722	11001.6
1364.501	11024.6
1369.276	11100.6
1374.046	11262.6
1378.811	11398.6
1383.572	11492.6
1388.327	11549.6
1393.079	11556.6
1397.825	11436.6
1402.567	11248.6
1407.304	11101.6
1412.036	11071.6
1416.764	10964.6
1421.487	10906.6
1426.205	10820.6
1430.919	10753.6
1435.628	10784.6
1440.333	10846.6
1445.032	10814.6
1449.727	10860.6
1454.418	10813.6
1459.104	10681.6
1463.785	10489.6
1468.462	10269.6
1473.134	10036.6
1477.802	9808.6
1482.465	9643.6
1487.123	9480.6
1491.777	9400.6
1496.426	9486.6
1501.071	9547.6
1505.711	9699.6
1510.347	9857.6
1514.978	10058.6
1519.604	10156.6
1524.226	10275.6
1528.844	10278.6
1533.457	10273.6
1538.065	10316.6
1542.669	10154.6
1547.269	10115.6
1551.864	10056.6
1556.454	10024.6
1561.041	10069.6
1565.622	10018.6
1570.199	10017.6
1574.772	10063.6
1579.34	10176.6
1583.904	10201.6
1588.464	10279.6
1593.019	10253.6
1597.569	10207.6
1602.115	10153.6
1606.657	10096.6
1611.195	9999.6
1615.728	9963.6
1620.256	9879.6
1624.78	9899.6
1629.3	9885.6
1633.816	9903.6
1638.327	9935.6
1642.834	9990.6
1647.336	10005.6
1651.834	10032.6
1656.328	9962.6
1660.817	9943.6
1665.302	9795.6
1669.783	9592.6
1674.259	9431.6
1678.732	9127.6
1683.199	8794.6
1687.663	8524.6
1692.122	8219.6
1696.577	8059.6
1701.028	8017.6
1705.474	8056.6
1709.917	8115.6
1714.355	8151.6
1718.788	8163.6
1723.218	8067.6
1727.643	7916.6
1732.064	7767.6
1736.481	7649.6
1740.893	7440.6
1745.301	7250.6
1749.705	7098.6
1754.105	6836.6
1758.501	6664.6
1762.893	6472.6
1767.28	6279.6
1771.663	6144.6
1776.042	6016.6
1780.417	5940.6
1784.787	5928.6
1789.154	5940.6
1793.516	6027.6
1797.874	6158.6
1802.228	6257.6
1806.578	6317.6
1810.924	6339.6
1815.266	6302.6
1819.603	6251.6
1823.937	6144.6
1828.266	6072.6
1832.591	5966.6
1836.913	5884.6
1841.23	5828.6
1845.543	5765.6
1849.852	5774.6
1854.156	5743.6
1858.457	5719.6
1862.754	5702.6
1867.047	5675.6
1871.335	5708.6
1875.62	5687.6
1879.9	5631.6
1884.177	5603.6
1888.449	5523.6
1892.718	5453.6
1896.982	5414.6
1901.243	5369.6
1905.499	5299.6
1909.752	5273.6
1914	5236.6
1918.245	5281.6
1922.485	5317.6
1926.722	5386.6
1930.954	5427.6
1935.183	5509.6
1939.408	5540.6
1943.628	5619.6
1947.845	5605.6
1952.058	5569.6
1956.267	5534.6
1960.472	5518.6
1964.673	5391.6
1968.87	5303.6
1973.063	5262.6
1977.252	5176.6
1981.438	5121.6
1985.619	5063.6
1989.797	5030.6
1993.971	5032.6
1998.14	4988.6
2002.306	4973.6
2006.469	4955.6
2010.627	4911.6
2014.781	4868.6
2018.932	4836.6
2023.078	4774.6
2027.221	4718.6
2031.36	4656.6
2035.495	4584.6
2039.627	4509.6
2043.754	4437.6
2047.878	4365.6
2051.998	4357.6
2056.114	4317.6
2060.226	4339.6
2064.334	4313.6
2068.439	4326.6
2072.54	4355.6
2076.637	4395.6
2080.73	4408.6
2084.82	4410.6
2088.906	4434.6
2092.988	4429.6
2097.066	4428.6
2101.14	4409.6
2105.211	4371.6
2109.278	4328.6
2113.342	4326.6
2117.401	4269.6
2121.457	4260.6
2125.509	4303.6
2129.558	4273.6
2133.602	4232.6
2137.643	4186.6
2141.681	4158.6
2145.714	4161.6
2149.744	4100.6
2153.77	4103.6
2157.793	4056.6
2161.812	4002.6
2165.827	3940.6
2169.838	3893.6
2173.846	3814.6
2177.851	3765.6
2181.851	3710.6
2185.848	3651.6
2189.841	3607.6
2193.831	3570.6
2197.817	3550.6
2201.799	3532.6
2205.778	3505.6
2209.753	3512.6
2213.725	3482.6
2217.693	3489.6
2221.657	3487.6
2225.618	3474.6
2229.575	3452.6
2233.529	3443.6
2237.479	3380.6
2241.425	3350.6
2245.368	3283.6
2249.307	3277.6
2253.243	3207.6
2257.175	3146.6
2261.104	3089.6
2265.029	3067.6
2268.95	3046.6
2272.868	3029.6
2276.783	2986.6
2280.694	2940.6
2284.601	2923.6
2288.505	2881.6
2292.405	2870.6
2296.302	2852.6
2300.195	2799.6
2304.085	2786.6
2307.971	2737.6
2311.854	2701.6
2315.734	2677.6
2319.609	2621.6
2323.482	2597.6
2327.351	2563.6
2331.216	2561.6
2335.078	2542.6
2338.937	2539.6
2342.792	2506.6
2346.643	2525.6
2350.492	2509.6
2354.336	2534.6
2358.178	2567.6
2362.015	2536.6
2365.85	2551.6
2369.681	2538.6
2373.508	2537.6
2377.333	2558.6
2381.153	2531.6
2384.971	2530.6
2388.785	2519.6
2392.595	2469.6
2396.402	2451.6
2400.206	2445.6
2404.007	2429.6
2407.804	2416.6
2411.597	2392.6
2415.388	2391.6
2419.174	2374.6
2422.958	2363.6
2426.738	2331.6
2430.515	2313.6
2434.289	2280.6
2438.059	2289.6
2441.825	2236.6
2445.589	2212.6
2449.349	2213.6
2453.106	2202.6
2456.859	2141.6
2460.61	2112.6
2464.356	2089.6
2468.1	2050.6
2471.84	2023.6
2475.577	2008.6
2479.311	1996.6
2483.041	1991.6
2486.768	1978.6
2490.492	1989.6
2494.213	1971.6
2497.93	1967.6
2501.644	1946.6
2505.355	1939.6
2509.062	1932.6
2512.766	1899.6
2516.467	1894.6
2520.165	1876.6
2523.859	1876.6
2527.551	1869.6
2531.239	1829.6
2534.923	1824.6
2538.605	1813.6
2542.283	1813.6
2545.958	1809.6
2549.63	1821.6
2553.299	1789.6
2556.964	1802.6
2560.626	1790.6
2564.285	1775.6
2567.941	1763.6
2571.594	1768.6
2575.243	1746.6
2578.89	1741.6
2582.533	1720.6
2586.173	1700.6
2589.809	1705.6
2593.443	1680.6
2597.073	1668.6
2600.701	1658.6
2604.325	1655.6
2607.946	1640.6
2611.564	1615.6
2615.178	1602.6
2618.79	1597.6
2622.398	1575.6
2626.004	1566.6
2629.606	1535.6
2633.205	1521.6
2636.801	1517.6
2640.394	1498.6
2643.983	1459.6
2647.57	1449.6
2651.153	1420.6
2654.734	1396.6
2658.311	1363.6
2661.885	1351.6
2665.456	1324.6
2669.025	1306.6
2672.589	1291.6
2676.151	1297.6
2679.71	1286.6
2683.266	1259.6
2686.819	1223.6
2690.368	1206.6
2693.915	1186.6
2697.458	1142.6
2700.999	1130.6
2704.536	1106.6
2708.071	1073.6
2711.602	1044.6
2715.13	1033.6
2718.656	997.6
2722.178	982.6
2725.697	963.6
2729.214	952.6
2732.727	944.6
2736.237	944.6
2739.744	920.6
2743.249	931.6
2746.75	921.6
2750.248	946.6
2753.743	936.6
2757.236	939.6
2760.725	944.6
2764.211	967.6
2767.695	977.6
2771.175	958.6
2774.652	973.6
2778.127	960.6
2781.598	950.6
2785.067	959.6
2788.532	951.6
2791.995	949.6
2795.455	946.6
2798.911	943.6
2802.365	953.6
2805.816	949.6
2809.264	957.6
2812.709	954.6
2816.151	939.6
2819.59	952.6
2823.026	938.6
2826.46	949.6
2829.89	948.6
2833.318	973.6
2836.742	953.6
2840.164	955.6
2843.583	977.6
2846.999	984.6
2850.412	1002.6
2853.822	998.6
2857.229	1017.6
2860.634	1044.6
2864.035	1050.6
2867.434	1082.6
2870.83	1116.6
2874.223	1117.6
2877.613	1122.6
2881	1151.6
2884.385	1169.6
2887.766	1169.6
2891.145	1145.6
2894.521	1137.6
2897.894	1165.6
2901.264	1147.6
2904.631	1141.6
2907.996	1144.6
2911.358	1164.6
2914.717	1174.6
2918.073	1177.6
2921.426	1184.6
2924.777	1200.6
2928.124	1208.6
2931.469	1227.6
2934.811	1247.6
2938.15	1272.6
2941.487	1281.6
2944.821	1298.6
2948.152	1295.6
2951.48	1291.6
2954.805	1255.6
2958.128	1264.6
2961.447	1241.6
2964.765	1249.6
2968.079	1245.6
2971.39	1246.6
2974.699	1260.6
2978.005	1284.6
2981.308	1308.6
2984.609	1321.6
2987.907	1341.6
2991.202	1366.6
2994.494	1425.6
2997.784	1430.6
3001.07	1460.6
3004.355	1480.6
3007.636	1529.6
3010.915	1528.6
3014.191	1550.6
3017.464	1548.6
3020.734	1555.6
3024.002	1582.6
3027.267	1590.6
3030.53	1586.6
3033.789	1589.6
3037.046	1636.6
3040.301	1669.6
3043.552	1669.6
3046.801	1723.6
3050.048	1773.6
3053.291	1809.6
3056.532	1867.6
3059.771	1927.6
3063.006	1971.6
3066.239	2060.6
3069.469	2107.6
3072.697	2168.6
3075.922	2207.6
3079.144	2262.6
3082.364	2298.6
3085.581	2363.6
3088.795	2414.6
3092.007	2478.6
3095.216	2491.6
3098.423	2560.6
3101.627	2632.6
3104.828	2673.6
3108.026	2727.6
3111.222	2809.6
3114.416	2886.6
3117.607	2951.6
3120.795	3016.6
3123.98	3065.6
3127.163	3135.6
3130.344	3235.6
3133.521	3290.6
3136.696	3386.6
3139.869	3420.6
3143.039	3506.6
3146.206	3536.6
3149.371	3577.6
3152.533	3660.6
3155.693	3653.6
3158.85	3670.6
3162.005	3698.6
3165.157	3725.6
3168.306	3697.6
3171.453	3724.6
3174.597	3752.6
3177.739	3778.6
3180.878	3733.6
3184.014	3743.6
3187.149	3740.6
3190.28	3764.6
3193.409	3770.6
3196.536	3770.6
3199.659	3770.6
3202.781	3755.6
3205.9	3769.6
3209.016	3778.6
3212.13	3727.6
3215.241	3711.6
3218.35	3691.6
3221.456	3639.6
3224.56	3606.6
3227.661	3561.6
3230.76	3528.6
3233.856	3494.6
3236.95	3452.6
3240.041	3427.6
3243.13	3405.6
3246.216	3396.6
3249.3	3348.6
3252.382	3356.6
3255.46	3344.6
3258.537	3336.6
3261.611	3325.6
3264.682	3334.6
3267.751	3315.6
3270.818	3303.6
3273.882	3311.6
3276.943	3291.6
3280.002	3277.6
3283.059	3231.6
3286.113	3203.6
3289.165	3167.6
3292.214	3117.6
3295.261	3088.6
3298.306	2997.6
3301.348	2941.6
3304.387	2932.6
3307.425	2848.6
3310.459	2842.6
3313.492	2774.6
3316.521	2753.6
3319.549	2717.6
3322.574	2701.6
3325.597	2666.6
3328.617	2646.6
3331.635	2647.6
3334.65	2631.6
3337.663	2606.6
3340.674	2588.6
3343.682	2572.6
3346.688	2554.6
3349.691	2577.6
3352.692	2580.6
3355.691	2505.6
3358.687	2510.6
3361.681	2482.6
3364.673	2450.6
3367.662	2416.6
3370.649	2386.6
3373.633	2329.6
3376.615	2289.6
3379.595	2284.6
3382.572	2227.6
3385.547	2228.6
3388.52	2179.6
3391.49	2175.6
3394.458	2120.6
3397.424	2084.6
3400.387	2047.6
3403.348	2016.6
3406.307	2016.6
3409.263	1976.6
3412.217	1941.6
3415.168	1916.6
3418.118	1912.6
3421.065	1874.6
3424.009	1849.6
3426.951	1833.6
3429.891	1803.6
3432.829	1761.6
3435.764	1713.6
3438.697	1663.6
3441.628	1610.6
3444.557	1585.6
3447.483	1512.6
3450.407	1484.6
3453.328	1434.6
3456.247	1365.6
3459.164	1302.6
3462.079	1279.6
3464.991	1229.6
3467.902	1193.6
3470.809	1129.6
3473.715	1085.6
3476.618	1044.6
3479.519	1013.6
3482.418	966.6
3485.315	942.6
3488.209	897.6
3491.101	879.6
3493.99	827.6
3496.878	821.6
3499.763	771.6
3502.646	745.6
3505.527	710.6
3508.405	677.6
3511.281	627.6
3514.155	594.6
3517.027	561.6
3519.897	520.6
3522.764	479.6
3525.629	439.6
3528.492	410.6
3531.352	376.6
3534.211	332.6
3537.067	304.6
3539.921	269.6
3542.773	238.6
3545.622	197.6
3548.469	180.6
3551.315	159.6
3554.157	137.6
3556.998	84.6
3559.837	73.6
3562.673	45.6
3565.507	26.6
3568.339	9.6
3571.169	-13.4
3573.996	-22.4
3576.822	-38.4
3579.645	-70.4
3582.466	-96.4
3585.285	-109.4
3588.101	-125.4
3590.916	-145.4
3593.728	-157.4
3596.538	-166.4
3599.346	-200.4
3602.152	-213.4
3604.956	-209.4
3607.757	-233.4
3610.556	-250.4
3613.354	-260.4
3616.149	-273.4
3618.942	-289.4
3621.732	-299.4
3624.521	-314.4
3627.307	-321.4
3630.092	-327.4
3632.874	-342.4
3635.654	-351.4
3638.432	-351.4
3641.208	-365.4
3643.982	-372.4
3646.753	-379.4
3649.523	-386.4
3652.29	-393.4
3655.055	-397.4
3657.818	-411.4
3660.579	-427.4
3663.338	-445.4
3666.095	-441.4
3668.849	-450.4
3671.602	-461.4
3674.352	-466.4
3677.101	-466.4
3679.847	-482.4
3682.591	-485.4
3685.333	-493.4
3688.073	-496.4
3690.811	-504.4
3693.547	-501.4
3696.281	-513.4
3699.013	-513.4
3701.742	-516.4
3704.47	-526.4
3707.195	-532.4
3709.919	-533.4
3712.64	-532.4
3715.359	-538.4
3718.076	-543.4
3720.792	-541.4
3723.505	-541.4
3726.216	-553.4
3728.925	-548.4
3731.632	-563.4
3734.336	-565.4
3737.039	-560.4
3739.74	-557.4
3742.439	-562.4
3745.136	-570.4
3747.83	-570.4
3750.523	-570.4
3753.213	-578.4
3755.902	-577.4
3758.589	-583.4
3761.273	-578.4
3763.956	-584.4
3766.636	-589.4
3769.315	-591.4
3771.991	-583.4
3774.665	-589.4
3777.338	-593.4
3780.008	-595.4
3782.677	-596.4
3785.343	-586.4
3788.007	-591.4
3790.67	-595.4
3793.33	-595.4
3795.989	-598.4
3798.645	-590.4
3801.299	-595.4
3803.952	-604.4
3806.602	-611.4
3809.251	-609.4
3811.897	-614.4
3814.542	-608.4
3817.184	-605.4
3819.825	-603.4
3822.463	-602.4
3825.1	-613.4
3827.735	-605.4
3830.367	-607.4
3832.998	-611.4
3835.627	-615.4
3838.253	-613.4
3840.878	-621.4
3843.501	-616.4
3846.122	-612.4
3848.741	-611.4
3851.358	-614.4
3853.973	-616.4
3856.586	-614.4
3859.197	-620.4
3861.806	-617.4
3864.414	-615.4
3867.019	-612.4
3869.622	-614.4
3872.224	-610.4
3874.823	-598.4
3877.421	-579.4
3880.016	-568.4
3882.61	-549.4
3885.202	-541.4
3887.792	-555.4
3890.38	-588.4
3892.966	-613.4
3895.55	-618.4
3898.132	-625.4
3900.713	-633.4
3903.291	-627.4
3905.868	-629.4
3908.442	-628.4
3911.015	-634.4
3913.586	-623.4
3916.155	-627.4
3918.722	-629.4
3921.287	-626.4
3923.85	-632.4
3926.411	-631.4
3928.971	-639.4
3931.528	-630.4
3934.084	-627.4
3936.638	-631.4
3939.19	-628.4
3941.74	-630.4
3944.288	-631.4
3946.834	-627.4
3949.378	-634.4
3951.921	-632.4
3954.462	-638.4
3957	-633.4
3959.537	-635.4
3962.072	-630.4
3964.606	-631.4
3967.137	-634.4
3969.667	-633.4
3972.194	-626.4
3974.72	-629.4
3977.244	-618.4
3979.766	-616.4
3982.286	-621.4
3984.805	-618.4
3987.321	-618.4
3989.836	-613.4
3992.349	-607.4
3994.86	-611.4
3997.369	-622.4
3999.877	-616.4
4002.382	-612.4
4004.886	-619.4
4007.388	-617.4
4009.888	-613.4
4012.386	-624.4
4014.883	-616.4
4017.377	-615.4
4019.87	-616.4
4022.361	-617.4
4024.85	-619.4
4027.338	-621.4
4029.823	-622.4
4032.307	-617.4
4034.789	-621.4
4037.269	-614.4
4039.747	-619.4
4042.224	-624.4
4044.699	-620.4
4047.172	-621.4
4049.643	-614.4
4052.112	-628.4
4054.58	-625.4
4057.046	-626.4
4059.51	-621.4
4061.972	-624.4
4064.432	-619.4
4066.891	-616.4
4069.348	-617.4
4071.803	-621.4
4074.256	-617.4
4076.708	-617.4
4079.158	-619.4
4081.606	-621.4
4084.052	-625.4
4086.497	-622.4
4088.939	-612.4
4091.38	-619.4
4093.819	-618.4
4096.257	-653.4
4098.693	-650.4
4101.127	-656.4
4103.559	-652.4
4105.989	-374.4
4108.418	-355.4
4110.845	-333.4
4113.27	-298.4
4115.694	-261.4
4118.115	-231.4
4120.535	-618.4
4122.954	-625.4
4125.37	-615.4
4127.785	-618.4
4130.198	-619.4
4132.609	-625.4
4135.019	-653.4
4137.427	-655.4
4139.833	-653.4
4142.237	-646.4
