Data from 2018-2-14_conc=0_n=9_RamanShift_04.txt Node
Date: Wed Feb 14 10:54:26 IST 2018
User: aro
Spectrometer: QEPB0276
Trigger mode: 0
Integration Time (sec): 3.000000E1
Scans to average: 1
Electric dark correction enabled: true
Nonlinearity correction enabled: false
Boxcar width: 0
XAxis mode: Raman Shifts
Number of Pixels in Spectrum: 1044
>>>>>Begin Spectral Data<<<<<
160.701	-90.1
166.742	46.9
172.777	424.9
178.805	1515.9
184.826	4179.9
190.841	8688.9
196.849	14017.9
202.85	17773.9
208.845	19109.9
214.833	18905.9
220.815	18669.9
226.789	18587.9
232.758	18565.9
238.719	18544.9
244.674	18335.9
250.623	18057.9
256.565	17795.9
262.5	17486.9
268.429	17218.9
274.351	16989.9
280.267	16788.9
286.176	16704.9
292.079	16554.9
297.975	16422.9
303.865	16289.9
309.748	16254.9
315.625	16181.9
321.495	16111.9
327.359	16146.9
333.217	16097.9
339.068	16083.9
344.912	16081.9
350.751	16099.9
356.583	16036.9
362.408	16047.9
368.227	16038.9
374.04	16103.9
379.847	16193.9
385.647	16194.9
391.44	16289.9
397.228	16340.9
403.009	16381.9
408.784	16430.9
414.553	16443.9
420.315	16576.9
426.071	16564.9
431.821	16574.9
437.565	16509.9
443.302	16486.9
449.033	16478.9
454.758	16460.9
460.477	16423.9
466.189	16373.9
471.896	16260.9
477.596	16247.9
483.29	16205.9
488.978	16226.9
494.66	16085.9
500.335	16035.9
506.005	15831.9
511.668	15538.9
517.325	15327.9
522.977	15137.9
528.622	15008.9
534.261	14903.9
539.894	14837.9
545.521	14695.9
551.141	14618.9
556.756	14624.9
562.365	14552.9
567.968	14513.9
573.565	14436.9
579.155	14386.9
584.74	14310.9
590.319	14279.9
595.892	14220.9
601.459	14163.9
607.02	14081.9
612.575	14019.9
618.124	13931.9
623.667	13897.9
629.204	13768.9
634.735	13686.9
640.261	13656.9
645.781	13570.9
651.294	13553.9
656.802	13553.9
662.304	13503.9
667.8	13448.9
673.29	13427.9
678.775	13413.9
684.254	13364.9
689.726	13322.9
695.193	13322.9
700.655	13201.9
706.11	13177.9
711.56	13119.9
717.004	13037.9
722.442	12937.9
727.874	12973.9
733.301	12869.9
738.722	12848.9
744.137	12835.9
749.547	12813.9
754.951	12816.9
760.349	12808.9
765.741	12796.9
771.128	12811.9
776.509	12840.9
781.885	12909.9
787.254	12806.9
792.618	12771.9
797.977	12705.9
803.33	12675.9
808.677	12608.9
814.019	12510.9
819.355	12448.9
824.686	12340.9
830.011	12334.9
835.33	12326.9
840.644	12318.9
845.952	12342.9
851.255	12361.9
856.552	12338.9
861.844	12336.9
867.13	12274.9
872.41	12254.9
877.686	12147.9
882.955	12036.9
888.219	11991.9
893.478	11861.9
898.731	11693.9
903.979	11569.9
909.221	11470.9
914.458	11480.9
919.69	11486.9
924.916	11487.9
930.136	11509.9
935.351	11562.9
940.561	11496.9
945.766	11495.9
950.965	11426.9
956.158	11364.9
961.347	11257.9
966.529	11084.9
971.707	10962.9
976.879	10830.9
982.046	10725.9
987.208	10706.9
992.364	10715.9
997.515	10722.9
1002.66	10886.9
1007.801	11005.9
1012.936	11053.9
1018.066	11074.9
1023.19	11021.9
1028.309	11072.9
1033.423	11039.9
1038.532	10942.9
1043.636	10856.9
1048.734	10768.9
1053.827	10639.9
1058.915	10495.9
1063.998	10415.9
1069.075	10398.9
1074.147	10396.9
1079.214	10419.9
1084.276	10482.9
1089.333	10599.9
1094.385	10632.9
1099.431	10662.9
1104.472	10593.9
1109.509	10595.9
1114.54	10462.9
1119.565	10300.9
1124.586	10180.9
1129.602	10065.9
1134.613	10010.9
1139.618	9953.9
1144.619	9900.9
1149.614	9911.9
1154.604	9929.9
1159.589	9983.9
1164.57	9978.9
1169.545	9989.9
1174.515	9983.9
1179.48	9937.9
1184.44	9858.9
1189.395	9807.9
1194.345	9722.9
1199.29	9697.9
1204.23	9661.9
1209.165	9692.9
1214.095	9744.9
1219.021	9785.9
1223.941	9831.9
1228.856	9922.9
1233.766	9935.9
1238.672	9945.9
1243.572	9966.9
1248.467	9873.9
1253.358	9732.9
1258.244	9602.9
1263.124	9453.9
1268	9311.9
1272.871	9170.9
1277.737	9135.9
1282.599	9060.9
1287.455	9048.9
1292.306	9087.9
1297.153	9099.9
1301.995	9178.9
1306.832	9212.9
1311.664	9192.9
1316.491	9165.9
1321.314	9112.9
1326.132	8995.9
1330.945	8783.9
1335.753	8589.9
1340.556	8401.9
1345.354	8241.9
1350.148	8145.9
1354.937	8057.9
1359.722	7992.9
1364.501	7957.9
1369.276	8005.9
1374.046	8025.9
1378.811	8085.9
1383.572	8195.9
1388.327	8172.9
1393.079	8165.9
1397.825	8107.9
1402.567	8006.9
1407.304	7958.9
1412.036	7882.9
1416.764	7840.9
1421.487	7813.9
1426.205	7774.9
1430.919	7766.9
1435.628	7743.9
1440.333	7815.9
1445.032	7786.9
1449.727	7869.9
1454.418	7809.9
1459.104	7754.9
1463.785	7649.9
1468.462	7481.9
1473.134	7308.9
1477.802	7181.9
1482.465	7053.9
1487.123	6930.9
1491.777	6879.9
1496.426	6898.9
1501.071	6930.9
1505.711	6973.9
1510.347	7102.9
1514.978	7149.9
1519.604	7260.9
1524.226	7294.9
1528.844	7289.9
1533.457	7281.9
1538.065	7294.9
1542.669	7254.9
1547.269	7153.9
1551.864	7146.9
1556.454	7124.9
1561.041	7125.9
1565.622	7174.9
1570.199	7146.9
1574.772	7207.9
1579.34	7254.9
1583.904	7281.9
1588.464	7337.9
1593.019	7313.9
1597.569	7301.9
1602.115	7247.9
1606.657	7194.9
1611.195	7146.9
1615.728	7138.9
1620.256	7100.9
1624.78	7027.9
1629.3	7047.9
1633.816	7077.9
1638.327	7113.9
1642.834	7114.9
1647.336	7162.9
1651.834	7206.9
1656.328	7132.9
1660.817	7144.9
1665.302	7077.9
1669.783	6920.9
1674.259	6796.9
1678.732	6614.9
1683.199	6392.9
1687.663	6187.9
1692.122	5959.9
1696.577	5823.9
1701.028	5780.9
1705.474	5740.9
1709.917	5757.9
1714.355	5778.9
1718.788	5761.9
1723.218	5727.9
1727.643	5609.9
1732.064	5547.9
1736.481	5427.9
1740.893	5320.9
1745.301	5200.9
1749.705	5053.9
1754.105	4885.9
1758.501	4784.9
1762.893	4622.9
1767.28	4556.9
1771.663	4462.9
1776.042	4366.9
1780.417	4336.9
1784.787	4278.9
1789.154	4286.9
1793.516	4316.9
1797.874	4362.9
1802.228	4413.9
1806.578	4481.9
1810.924	4474.9
1815.266	4457.9
1819.603	4415.9
1823.937	4351.9
1828.266	4300.9
1832.591	4237.9
1836.913	4206.9
1841.23	4172.9
1845.543	4143.9
1849.852	4147.9
1854.156	4131.9
1858.457	4107.9
1862.754	4117.9
1867.047	4111.9
1871.335	4089.9
1875.62	4079.9
1879.9	4091.9
1884.177	4035.9
1888.449	4007.9
1892.718	3971.9
1896.982	3918.9
1901.243	3851.9
1905.499	3842.9
1909.752	3811.9
1914	3786.9
1918.245	3778.9
1922.485	3811.9
1926.722	3820.9
1930.954	3854.9
1935.183	3883.9
1939.408	3904.9
1943.628	3905.9
1947.845	3952.9
1952.058	3932.9
1956.267	3878.9
1960.472	3813.9
1964.673	3799.9
1968.87	3732.9
1973.063	3670.9
1977.252	3651.9
1981.438	3617.9
1985.619	3569.9
1989.797	3538.9
1993.971	3526.9
1998.14	3526.9
2002.306	3509.9
2006.469	3505.9
2010.627	3461.9
2014.781	3442.9
2018.932	3431.9
2023.078	3397.9
2027.221	3352.9
2031.36	3287.9
2035.495	3248.9
2039.627	3203.9
2043.754	3143.9
2047.878	3117.9
2051.998	3081.9
2056.114	3113.9
2060.226	3093.9
2064.334	3063.9
2068.439	3103.9
2072.54	3084.9
2076.637	3139.9
2080.73	3131.9
2084.82	3147.9
2088.906	3167.9
2092.988	3148.9
2097.066	3140.9
2101.14	3119.9
2105.211	3072.9
2109.278	3060.9
2113.342	3049.9
2117.401	3031.9
2121.457	2970.9
2125.509	2972.9
2129.558	2981.9
2133.602	2970.9
2137.643	2936.9
2141.681	2941.9
2145.714	2917.9
2149.744	2902.9
2153.77	2889.9
2157.793	2857.9
2161.812	2826.9
2165.827	2781.9
2169.838	2758.9
2173.846	2731.9
2177.851	2661.9
2181.851	2610.9
2185.848	2584.9
2189.841	2553.9
2193.831	2514.9
2197.817	2501.9
2201.799	2494.9
2205.778	2480.9
2209.753	2462.9
2213.725	2476.9
2217.693	2477.9
2221.657	2450.9
2225.618	2448.9
2229.575	2443.9
2233.529	2416.9
2237.479	2410.9
2241.425	2360.9
2245.368	2319.9
2249.307	2295.9
2253.243	2261.9
2257.175	2216.9
2261.104	2197.9
2265.029	2153.9
2268.95	2148.9
2272.868	2135.9
2276.783	2094.9
2280.694	2072.9
2284.601	2080.9
2288.505	2032.9
2292.405	2011.9
2296.302	2000.9
2300.195	1964.9
2304.085	1954.9
2307.971	1920.9
2311.854	1886.9
2315.734	1881.9
2319.609	1855.9
2323.482	1824.9
2327.351	1821.9
2331.216	1806.9
2335.078	1795.9
2338.937	1797.9
2342.792	1783.9
2346.643	1773.9
2350.492	1774.9
2354.336	1790.9
2358.178	1799.9
2362.015	1795.9
2365.85	1811.9
2369.681	1800.9
2373.508	1817.9
2377.333	1799.9
2381.153	1783.9
2384.971	1795.9
2388.785	1781.9
2392.595	1758.9
2396.402	1749.9
2400.206	1742.9
2404.007	1717.9
2407.804	1719.9
2411.597	1698.9
2415.388	1684.9
2419.174	1697.9
2422.958	1663.9
2426.738	1676.9
2430.515	1653.9
2434.289	1651.9
2438.059	1625.9
2441.825	1593.9
2445.589	1591.9
2449.349	1597.9
2453.106	1555.9
2456.859	1523.9
2460.61	1512.9
2464.356	1505.9
2468.1	1473.9
2471.84	1463.9
2475.577	1442.9
2479.311	1432.9
2483.041	1425.9
2486.768	1430.9
2490.492	1417.9
2494.213	1440.9
2497.93	1414.9
2501.644	1412.9
2505.355	1392.9
2509.062	1377.9
2512.766	1372.9
2516.467	1372.9
2520.165	1357.9
2523.859	1347.9
2527.551	1317.9
2531.239	1324.9
2534.923	1305.9
2538.605	1302.9
2542.283	1309.9
2545.958	1293.9
2549.63	1295.9
2553.299	1307.9
2556.964	1303.9
2560.626	1273.9
2564.285	1271.9
2567.941	1266.9
2571.594	1251.9
2575.243	1254.9
2578.89	1239.9
2582.533	1214.9
2586.173	1212.9
2589.809	1224.9
2593.443	1193.9
2597.073	1171.9
2600.701	1178.9
2604.325	1159.9
2607.946	1146.9
2611.564	1136.9
2615.178	1140.9
2618.79	1130.9
2622.398	1125.9
2626.004	1109.9
2629.606	1093.9
2633.205	1087.9
2636.801	1048.9
2640.394	1049.9
2643.983	1015.9
2647.57	1038.9
2651.153	1009.9
2654.734	964.9
2658.311	960.9
2661.885	950.9
2665.456	937.9
2669.025	934.9
2672.589	916.9
2676.151	917.9
2679.71	912.9
2683.266	888.9
2686.819	867.9
2690.368	851.9
2693.915	822.9
2697.458	812.9
2700.999	798.9
2704.536	772.9
2708.071	750.9
2711.602	744.9
2715.13	725.9
2718.656	708.9
2722.178	707.9
2725.697	685.9
2729.214	689.9
2732.727	671.9
2736.237	662.9
2739.744	650.9
2743.249	648.9
2746.75	653.9
2750.248	646.9
2753.743	667.9
2757.236	668.9
2760.725	655.9
2764.211	665.9
2767.695	667.9
2771.175	665.9
2774.652	666.9
2778.127	678.9
2781.598	647.9
2785.067	653.9
2788.532	665.9
2791.995	661.9
2795.455	662.9
2798.911	652.9
2802.365	660.9
2805.816	656.9
2809.264	659.9
2812.709	670.9
2816.151	663.9
2819.59	675.9
2823.026	653.9
2826.46	661.9
2829.89	670.9
2833.318	664.9
2836.742	682.9
2840.164	659.9
2843.583	688.9
2846.999	679.9
2850.412	686.9
2853.822	685.9
2857.229	697.9
2860.634	732.9
2864.035	720.9
2867.434	731.9
2870.83	752.9
2874.223	763.9
2877.613	788.9
2881	792.9
2884.385	795.9
2887.766	782.9
2891.145	790.9
2894.521	764.9
2897.894	795.9
2901.264	780.9
2904.631	770.9
2907.996	780.9
2911.358	774.9
2914.717	795.9
2918.073	803.9
2921.426	810.9
2924.777	816.9
2928.124	813.9
2931.469	840.9
2934.811	869.9
2938.15	851.9
2941.487	882.9
2944.821	878.9
2948.152	873.9
2951.48	861.9
2954.805	861.9
2958.128	859.9
2961.447	841.9
2964.765	848.9
2968.079	845.9
2971.39	844.9
2974.699	862.9
2978.005	862.9
2981.308	877.9
2984.609	898.9
2987.907	911.9
2991.202	922.9
2994.494	950.9
2997.784	972.9
3001.07	984.9
3004.355	987.9
3007.636	995.9
3010.915	1020.9
3014.191	1020.9
3017.464	1045.9
3020.734	1046.9
3024.002	1054.9
3027.267	1053.9
3030.53	1074.9
3033.789	1085.9
3037.046	1097.9
3040.301	1110.9
3043.552	1145.9
3046.801	1166.9
3050.048	1184.9
3053.291	1219.9
3056.532	1274.9
3059.771	1289.9
3063.006	1334.9
3066.239	1385.9
3069.469	1416.9
3072.697	1464.9
3075.922	1496.9
3079.144	1524.9
3082.364	1551.9
3085.581	1597.9
3088.795	1627.9
3092.007	1666.9
3095.216	1707.9
3098.423	1731.9
3101.627	1774.9
3104.828	1821.9
3108.026	1870.9
3111.222	1914.9
3114.416	1940.9
3117.607	1971.9
3120.795	2036.9
3123.98	2087.9
3127.163	2124.9
3130.344	2201.9
3133.521	2259.9
3136.696	2310.9
3139.869	2321.9
3143.039	2376.9
3146.206	2413.9
3149.371	2439.9
3152.533	2457.9
3155.693	2463.9
3158.85	2492.9
3162.005	2493.9
3165.157	2509.9
3168.306	2529.9
3171.453	2503.9
3174.597	2509.9
3177.739	2531.9
3180.878	2511.9
3184.014	2542.9
3187.149	2530.9
3190.28	2527.9
3193.409	2535.9
3196.536	2552.9
3199.659	2551.9
3202.781	2517.9
3205.9	2554.9
3209.016	2539.9
3212.13	2518.9
3215.241	2517.9
3218.35	2489.9
3221.456	2470.9
3224.56	2422.9
3227.661	2412.9
3230.76	2402.9
3233.856	2377.9
3236.95	2305.9
3240.041	2310.9
3243.13	2304.9
3246.216	2309.9
3249.3	2279.9
3252.382	2246.9
3255.46	2260.9
3258.537	2253.9
3261.611	2232.9
3264.682	2242.9
3267.751	2221.9
3270.818	2215.9
3273.882	2219.9
3276.943	2210.9
3280.002	2199.9
3283.059	2167.9
3286.113	2157.9
3289.165	2103.9
3292.214	2066.9
3295.261	2024.9
3298.306	2018.9
3301.348	1994.9
3304.387	1943.9
3307.425	1903.9
3310.459	1891.9
3313.492	1852.9
3316.521	1805.9
3319.549	1809.9
3322.574	1788.9
3325.597	1781.9
3328.617	1762.9
3331.635	1751.9
3334.65	1744.9
3337.663	1748.9
3340.674	1723.9
3343.682	1713.9
3346.688	1708.9
3349.691	1706.9
3352.692	1688.9
3355.691	1697.9
3358.687	1684.9
3361.681	1665.9
3364.673	1630.9
3367.662	1583.9
3370.649	1591.9
3373.633	1565.9
3376.615	1543.9
3379.595	1516.9
3382.572	1501.9
3385.547	1494.9
3388.52	1445.9
3391.49	1438.9
3394.458	1410.9
3397.424	1401.9
3400.387	1393.9
3403.348	1343.9
3406.307	1331.9
3409.263	1321.9
3412.217	1293.9
3415.168	1277.9
3418.118	1281.9
3421.065	1253.9
3424.009	1236.9
3426.951	1203.9
3429.891	1191.9
3432.829	1170.9
3435.764	1140.9
3438.697	1108.9
3441.628	1077.9
3444.557	1038.9
3447.483	999.9
3450.407	975.9
3453.328	947.9
3456.247	910.9
3459.164	879.9
3462.079	853.9
3464.991	803.9
3467.902	777.9
3470.809	752.9
3473.715	719.9
3476.618	697.9
3479.519	671.9
3482.418	649.9
3485.315	610.9
3488.209	590.9
3491.101	576.9
3493.99	547.9
3496.878	523.9
3499.763	512.9
3502.646	475.9
3505.527	442.9
3508.405	435.9
3511.281	411.9
3514.155	388.9
3517.027	364.9
3519.897	332.9
3522.764	304.9
3525.629	290.9
3528.492	257.9
3531.352	222.9
3534.211	203.9
3537.067	188.9
3539.921	154.9
3542.773	139.9
3545.622	109.9
3548.469	100.9
3551.315	75.9
3554.157	46.9
3556.998	33.9
3559.837	31.9
3562.673	19.9
3565.507	-10.1
3568.339	-20.1
3571.169	-31.1
3573.996	-41.1
3576.822	-53.1
3579.645	-66.1
3582.466	-72.1
3585.285	-102.1
3588.101	-108.1
3590.916	-116.1
3593.728	-136.1
3596.538	-135.1
3599.346	-156.1
3602.152	-166.1
3604.956	-178.1
3607.757	-186.1
3610.556	-204.1
3613.354	-200.1
3616.149	-215.1
3618.942	-222.1
3621.732	-225.1
3624.521	-236.1
3627.307	-246.1
3630.092	-249.1
3632.874	-253.1
3635.654	-268.1
3638.432	-268.1
3641.208	-267.1
3643.982	-278.1
3646.753	-284.1
3649.523	-293.1
3652.29	-300.1
3655.055	-296.1
3657.818	-314.1
3660.579	-322.1
3663.338	-330.1
3666.095	-336.1
3668.849	-335.1
3671.602	-340.1
3674.352	-348.1
3677.101	-344.1
3679.847	-346.1
3682.591	-356.1
3685.333	-357.1
3688.073	-360.1
3690.811	-366.1
3693.547	-372.1
3696.281	-371.1
3699.013	-380.1
3701.742	-379.1
3704.47	-385.1
3707.195	-390.1
3709.919	-391.1
3712.64	-393.1
3715.359	-392.1
3718.076	-396.1
3720.792	-395.1
3723.505	-391.1
3726.216	-408.1
3728.925	-396.1
3731.632	-407.1
3734.336	-402.1
3737.039	-416.1
3739.74	-405.1
3742.439	-409.1
3745.136	-410.1
3747.83	-417.1
3750.523	-416.1
3753.213	-399.1
3755.902	-423.1
3758.589	-424.1
3761.273	-422.1
3763.956	-422.1
3766.636	-422.1
3769.315	-428.1
3771.991	-423.1
3774.665	-424.1
3777.338	-429.1
3780.008	-431.1
3782.677	-434.1
3785.343	-434.1
3788.007	-433.1
3790.67	-430.1
3793.33	-427.1
3795.989	-439.1
3798.645	-434.1
3801.299	-434.1
3803.952	-440.1
3806.602	-446.1
3809.251	-442.1
3811.897	-435.1
3814.542	-436.1
3817.184	-438.1
3819.825	-434.1
3822.463	-433.1
3825.1	-448.1
3827.735	-438.1
3830.367	-440.1
3832.998	-446.1
3835.627	-446.1
3838.253	-449.1
3840.878	-453.1
3843.501	-442.1
3846.122	-440.1
3848.741	-444.1
3851.358	-447.1
3853.973	-443.1
3856.586	-447.1
3859.197	-447.1
3861.806	-448.1
3864.414	-447.1
3867.019	-445.1
3869.622	-445.1
3872.224	-439.1
3874.823	-424.1
3877.421	-414.1
3880.016	-396.1
3882.61	-362.1
3885.202	-366.1
3887.792	-381.1
3890.38	-412.1
3892.966	-429.1
3895.55	-442.1
3898.132	-453.1
3900.713	-451.1
3903.291	-451.1
3905.868	-451.1
3908.442	-452.1
3911.015	-456.1
3913.586	-453.1
3916.155	-455.1
3918.722	-462.1
3921.287	-454.1
3923.85	-461.1
3926.411	-460.1
3928.971	-463.1
3931.528	-457.1
3934.084	-459.1
3936.638	-456.1
3939.19	-459.1
3941.74	-454.1
3944.288	-458.1
3946.834	-453.1
3949.378	-459.1
3951.921	-451.1
3954.462	-463.1
3957	-459.1
3959.537	-462.1
3962.072	-455.1
3964.606	-454.1
3967.137	-459.1
3969.667	-461.1
3972.194	-451.1
3974.72	-456.1
3977.244	-450.1
3979.766	-448.1
3982.286	-452.1
3984.805	-445.1
3987.321	-450.1
3989.836	-452.1
3992.349	-441.1
3994.86	-445.1
3997.369	-458.1
3999.877	-448.1
4002.382	-448.1
4004.886	-449.1
4007.388	-445.1
4009.888	-440.1
4012.386	-447.1
4014.883	-445.1
4017.377	-440.1
4019.87	-444.1
4022.361	-444.1
4024.85	-444.1
4027.338	-450.1
4029.823	-449.1
4032.307	-452.1
4034.789	-449.1
4037.269	-447.1
4039.747	-446.1
4042.224	-450.1
4044.699	-448.1
4047.172	-447.1
4049.643	-448.1
4052.112	-452.1
4054.58	-454.1
4057.046	-452.1
4059.51	-454.1
4061.972	-456.1
4064.432	-451.1
4066.891	-450.1
4069.348	-449.1
4071.803	-448.1
4074.256	-451.1
4076.708	-452.1
4079.158	-449.1
4081.606	-452.1
4084.052	-458.1
4086.497	-452.1
4088.939	-443.1
4091.38	-450.1
4093.819	-445.1
4096.257	-471.1
4098.693	-472.1
4101.127	-478.1
4103.559	-472.1
4105.989	-251.1
4108.418	-237.1
4110.845	-219.1
4113.27	-205.1
4115.694	-182.1
4118.115	-152.1
4120.535	-447.1
4122.954	-446.1
4125.37	-438.1
4127.785	-443.1
4130.198	-452.1
4132.609	-449.1
4135.019	-475.1
4137.427	-475.1
4139.833	-477.1
4142.237	-470.1
