Data from 2018-2-14_conc=6_n=1_RamanShift_04.txt Node
Date: Wed Feb 14 14:43:55 IST 2018
User: aro
Spectrometer: QEPB0276
Trigger mode: 0
Integration Time (sec): 3.000000E1
Scans to average: 1
Electric dark correction enabled: true
Nonlinearity correction enabled: false
Boxcar width: 0
XAxis mode: Raman Shifts
Number of Pixels in Spectrum: 1044
>>>>>Begin Spectral Data<<<<<
160.701	-124.8
166.742	46.2
172.777	502.2
178.805	1906.2
184.826	5208.2
190.841	10820.2
196.849	17386.2
202.85	21905.2
208.845	23487.2
214.833	23227.2
220.815	22837.2
226.789	22812.2
232.758	22744.2
238.719	22523.2
244.674	22302.2
250.623	21847.2
256.565	21502.2
262.5	21045.2
268.429	20721.2
274.351	20414.2
280.267	20166.2
286.176	19981.2
292.079	19854.2
297.975	19674.2
303.865	19507.2
309.748	19382.2
315.625	19347.2
321.495	19198.2
327.359	19138.2
333.217	19153.2
339.068	19063.2
344.912	19090.2
350.751	19084.2
356.583	18992.2
362.408	19034.2
368.227	19074.2
374.04	19072.2
379.847	19130.2
385.647	19203.2
391.44	19244.2
397.228	19388.2
403.009	19422.2
408.784	19465.2
414.553	19568.2
420.315	19646.2
426.071	19603.2
431.821	19613.2
437.565	19639.2
443.302	19578.2
449.033	19513.2
454.758	19483.2
460.477	19462.2
466.189	19369.2
471.896	19313.2
477.596	19234.2
483.29	19228.2
488.978	19135.2
494.66	19150.2
500.335	18971.2
506.005	18756.2
511.668	18359.2
517.325	18206.2
522.977	18050.2
528.622	17846.2
534.261	17737.2
539.894	17570.2
545.521	17541.2
551.141	17450.2
556.756	17398.2
562.365	17307.2
567.968	17274.2
573.565	17190.2
579.155	17060.2
584.74	17035.2
590.319	16979.2
595.892	16954.2
601.459	16794.2
607.02	16767.2
612.575	16724.2
618.124	16545.2
623.667	16475.2
629.204	16362.2
634.735	16235.2
640.261	16230.2
645.781	16208.2
651.294	16152.2
656.802	16130.2
662.304	16080.2
667.8	16057.2
673.29	15938.2
678.775	15958.2
684.254	15917.2
689.726	15846.2
695.193	15863.2
700.655	15772.2
706.11	15630.2
711.56	15594.2
717.004	15456.2
722.442	15428.2
727.874	15273.2
733.301	15260.2
738.722	15245.2
744.137	15218.2
749.547	15250.2
754.951	15234.2
760.349	15243.2
765.741	15247.2
771.128	15230.2
776.509	15248.2
781.885	15254.2
787.254	15260.2
792.618	15161.2
797.977	15078.2
803.33	14964.2
808.677	14883.2
814.019	14820.2
819.355	14731.2
824.686	14705.2
830.011	14642.2
835.33	14623.2
840.644	14617.2
845.952	14624.2
851.255	14669.2
856.552	14622.2
861.844	14586.2
867.13	14604.2
872.41	14483.2
877.686	14429.2
882.955	14298.2
888.219	14151.2
893.478	14068.2
898.731	13878.2
903.979	13696.2
909.221	13605.2
914.458	13539.2
919.69	13587.2
924.916	13555.2
930.136	13661.2
935.351	13622.2
940.561	13632.2
945.766	13647.2
950.965	13513.2
956.158	13464.2
961.347	13282.2
966.529	13157.2
971.707	12967.2
976.879	12775.2
982.046	12712.2
987.208	12677.2
992.364	12672.2
997.515	12746.2
1002.66	12792.2
1007.801	12999.2
1012.936	13114.2
1018.066	13096.2
1023.19	13068.2
1028.309	13143.2
1033.423	13021.2
1038.532	12999.2
1043.636	12870.2
1048.734	12697.2
1053.827	12509.2
1058.915	12397.2
1063.998	12352.2
1069.075	12267.2
1074.147	12271.2
1079.214	12306.2
1084.276	12414.2
1089.333	12483.2
1094.385	12492.2
1099.431	12538.2
1104.472	12557.2
1109.509	12497.2
1114.54	12354.2
1119.565	12152.2
1124.586	12005.2
1129.602	11927.2
1134.613	11781.2
1139.618	11738.2
1144.619	11690.2
1149.614	11704.2
1154.604	11728.2
1159.589	11804.2
1164.57	11786.2
1169.545	11794.2
1174.515	11814.2
1179.48	11742.2
1184.44	11643.2
1189.395	11556.2
1194.345	11454.2
1199.29	11422.2
1204.23	11405.2
1209.165	11415.2
1214.095	11468.2
1219.021	11488.2
1223.941	11583.2
1228.856	11693.2
1233.766	11687.2
1238.672	11745.2
1243.572	11684.2
1248.467	11636.2
1253.358	11480.2
1258.244	11324.2
1263.124	11146.2
1268	11005.2
1272.871	10862.2
1277.737	10770.2
1282.599	10722.2
1287.455	10689.2
1292.306	10740.2
1297.153	10709.2
1301.995	10777.2
1306.832	10855.2
1311.664	10822.2
1316.491	10781.2
1321.314	10684.2
1326.132	10560.2
1330.945	10358.2
1335.753	10046.2
1340.556	9880.2
1345.354	9650.2
1350.148	9522.2
1354.937	9375.2
1359.722	9431.2
1364.501	9458.2
1369.276	9545.2
1374.046	9611.2
1378.811	9732.2
1383.572	9810.2
1388.327	9816.2
1393.079	9812.2
1397.825	9701.2
1402.567	9532.2
1407.304	9436.2
1412.036	9388.2
1416.764	9293.2
1421.487	9188.2
1426.205	9210.2
1430.919	9131.2
1435.628	9134.2
1440.333	9166.2
1445.032	9200.2
1449.727	9228.2
1454.418	9168.2
1459.104	9095.2
1463.785	8917.2
1468.462	8743.2
1473.134	8582.2
1477.802	8374.2
1482.465	8266.2
1487.123	8186.2
1491.777	8193.2
1496.426	8177.2
1501.071	8250.2
1505.711	8381.2
1510.347	8500.2
1514.978	8678.2
1519.604	8811.2
1524.226	8853.2
1528.844	8852.2
1533.457	8860.2
1538.065	8791.2
1542.669	8762.2
1547.269	8662.2
1551.864	8629.2
1556.454	8597.2
1561.041	8575.2
1565.622	8555.2
1570.199	8573.2
1574.772	8651.2
1579.34	8693.2
1583.904	8742.2
1588.464	8761.2
1593.019	8771.2
1597.569	8709.2
1602.115	8678.2
1606.657	8606.2
1611.195	8546.2
1615.728	8458.2
1620.256	8435.2
1624.78	8414.2
1629.3	8383.2
1633.816	8436.2
1638.327	8528.2
1642.834	8553.2
1647.336	8578.2
1651.834	8609.2
1656.328	8561.2
1660.817	8511.2
1665.302	8450.2
1669.783	8283.2
1674.259	8104.2
1678.732	7849.2
1683.199	7624.2
1687.663	7409.2
1692.122	7163.2
1696.577	7066.2
1701.028	7068.2
1705.474	7099.2
1709.917	7091.2
1714.355	7145.2
1718.788	7113.2
1723.218	7033.2
1727.643	6926.2
1732.064	6744.2
1736.481	6609.2
1740.893	6459.2
1745.301	6261.2
1749.705	6120.2
1754.105	5903.2
1758.501	5774.2
1762.893	5544.2
1767.28	5439.2
1771.663	5325.2
1776.042	5264.2
1780.417	5204.2
1784.787	5230.2
1789.154	5240.2
1793.516	5318.2
1797.874	5424.2
1802.228	5517.2
1806.578	5558.2
1810.924	5585.2
1815.266	5502.2
1819.603	5425.2
1823.937	5296.2
1828.266	5266.2
1832.591	5161.2
1836.913	5085.2
1841.23	5054.2
1845.543	5029.2
1849.852	4993.2
1854.156	4957.2
1858.457	4970.2
1862.754	4985.2
1867.047	4950.2
1871.335	4964.2
1875.62	4957.2
1879.9	4935.2
1884.177	4876.2
1888.449	4824.2
1892.718	4795.2
1896.982	4740.2
1901.243	4701.2
1905.499	4658.2
1909.752	4662.2
1914	4686.2
1918.245	4700.2
1922.485	4733.2
1926.722	4792.2
1930.954	4847.2
1935.183	4901.2
1939.408	4968.2
1943.628	4947.2
1947.845	4964.2
1952.058	4942.2
1956.267	4899.2
1960.472	4847.2
1964.673	4735.2
1968.87	4674.2
1973.063	4574.2
1977.252	4520.2
1981.438	4504.2
1985.619	4423.2
1989.797	4383.2
1993.971	4356.2
1998.14	4325.2
2002.306	4331.2
2006.469	4307.2
2010.627	4247.2
2014.781	4216.2
2018.932	4202.2
2023.078	4142.2
2027.221	4096.2
2031.36	4036.2
2035.495	3973.2
2039.627	3926.2
2043.754	3837.2
2047.878	3843.2
2051.998	3811.2
2056.114	3782.2
2060.226	3827.2
2064.334	3818.2
2068.439	3820.2
2072.54	3840.2
2076.637	3894.2
2080.73	3916.2
2084.82	3935.2
2088.906	3944.2
2092.988	3933.2
2097.066	3950.2
2101.14	3901.2
2105.211	3902.2
2109.278	3875.2
2113.342	3841.2
2117.401	3771.2
2121.457	3781.2
2125.509	3744.2
2129.558	3748.2
2133.602	3709.2
2137.643	3661.2
2141.681	3672.2
2145.714	3634.2
2149.744	3588.2
2153.77	3590.2
2157.793	3529.2
2161.812	3504.2
2165.827	3449.2
2169.838	3397.2
2173.846	3339.2
2177.851	3276.2
2181.851	3240.2
2185.848	3178.2
2189.841	3144.2
2193.831	3131.2
2197.817	3109.2
2201.799	3075.2
2205.778	3076.2
2209.753	3060.2
2213.725	3022.2
2217.693	3007.2
2221.657	3008.2
2225.618	3016.2
2229.575	2976.2
2233.529	2973.2
2237.479	2952.2
2241.425	2906.2
2245.368	2872.2
2249.307	2818.2
2253.243	2770.2
2257.175	2741.2
2261.104	2696.2
2265.029	2661.2
2268.95	2647.2
2272.868	2592.2
2276.783	2579.2
2280.694	2554.2
2284.601	2508.2
2288.505	2502.2
2292.405	2464.2
2296.302	2470.2
2300.195	2428.2
2304.085	2402.2
2307.971	2355.2
2311.854	2337.2
2315.734	2310.2
2319.609	2242.2
2323.482	2232.2
2327.351	2205.2
2331.216	2169.2
2335.078	2198.2
2338.937	2169.2
2342.792	2139.2
2346.643	2120.2
2350.492	2135.2
2354.336	2137.2
2358.178	2145.2
2362.015	2183.2
2365.85	2163.2
2369.681	2157.2
2373.508	2166.2
2377.333	2158.2
2381.153	2143.2
2384.971	2137.2
2388.785	2101.2
2392.595	2109.2
2396.402	2072.2
2400.206	2049.2
2404.007	2043.2
2407.804	2036.2
2411.597	2011.2
2415.388	2004.2
2419.174	2000.2
2422.958	1956.2
2426.738	1942.2
2430.515	1958.2
2434.289	1927.2
2438.059	1925.2
2441.825	1906.2
2445.589	1859.2
2449.349	1845.2
2453.106	1811.2
2456.859	1812.2
2460.61	1788.2
2464.356	1758.2
2468.1	1734.2
2471.84	1704.2
2475.577	1694.2
2479.311	1689.2
2483.041	1686.2
2486.768	1676.2
2490.492	1656.2
2494.213	1675.2
2497.93	1646.2
2501.644	1632.2
2505.355	1629.2
2509.062	1605.2
2512.766	1633.2
2516.467	1615.2
2520.165	1583.2
2523.859	1600.2
2527.551	1570.2
2531.239	1574.2
2534.923	1565.2
2538.605	1554.2
2542.283	1547.2
2545.958	1535.2
2549.63	1540.2
2553.299	1542.2
2556.964	1541.2
2560.626	1544.2
2564.285	1535.2
2567.941	1517.2
2571.594	1503.2
2575.243	1486.2
2578.89	1497.2
2582.533	1465.2
2586.173	1476.2
2589.809	1467.2
2593.443	1448.2
2597.073	1424.2
2600.701	1382.2
2604.325	1384.2
2607.946	1380.2
2611.564	1376.2
2615.178	1363.2
2618.79	1355.2
2622.398	1329.2
2626.004	1315.2
2629.606	1287.2
2633.205	1283.2
2636.801	1259.2
2640.394	1250.2
2643.983	1228.2
2647.57	1196.2
2651.153	1190.2
2654.734	1161.2
2658.311	1147.2
2661.885	1113.2
2665.456	1097.2
2669.025	1104.2
2672.589	1082.2
2676.151	1065.2
2679.71	1043.2
2683.266	1033.2
2686.819	1026.2
2690.368	990.2
2693.915	979.2
2697.458	948.2
2700.999	932.2
2704.536	914.2
2708.071	905.2
2711.602	865.2
2715.13	843.2
2718.656	836.2
2722.178	817.2
2725.697	802.2
2729.214	809.2
2732.727	808.2
2736.237	800.2
2739.744	778.2
2743.249	801.2
2746.75	804.2
2750.248	795.2
2753.743	821.2
2757.236	828.2
2760.725	816.2
2764.211	838.2
2767.695	833.2
2771.175	830.2
2774.652	816.2
2778.127	832.2
2781.598	819.2
2785.067	806.2
2788.532	805.2
2791.995	792.2
2795.455	786.2
2798.911	812.2
2802.365	821.2
2805.816	806.2
2809.264	813.2
2812.709	817.2
2816.151	795.2
2819.59	810.2
2823.026	812.2
2826.46	805.2
2829.89	817.2
2833.318	818.2
2836.742	827.2
2840.164	826.2
2843.583	825.2
2846.999	840.2
2850.412	833.2
2853.822	853.2
2857.229	855.2
2860.634	871.2
2864.035	883.2
2867.434	908.2
2870.83	931.2
2874.223	928.2
2877.613	946.2
2881	958.2
2884.385	961.2
2887.766	969.2
2891.145	954.2
2894.521	960.2
2897.894	974.2
2901.264	962.2
2904.631	970.2
2907.996	973.2
2911.358	944.2
2914.717	955.2
2918.073	990.2
2921.426	997.2
2924.777	991.2
2928.124	1019.2
2931.469	1027.2
2934.811	1060.2
2938.15	1066.2
2941.487	1071.2
2944.821	1080.2
2948.152	1072.2
2951.48	1065.2
2954.805	1054.2
2958.128	1057.2
2961.447	1043.2
2964.765	1045.2
2968.079	1052.2
2971.39	1047.2
2974.699	1090.2
2978.005	1096.2
2981.308	1108.2
2984.609	1123.2
2987.907	1146.2
2991.202	1170.2
2994.494	1200.2
2997.784	1233.2
3001.07	1238.2
3004.355	1276.2
3007.636	1301.2
3010.915	1316.2
3014.191	1311.2
3017.464	1316.2
3020.734	1346.2
3024.002	1354.2
3027.267	1349.2
3030.53	1351.2
3033.789	1348.2
3037.046	1412.2
3040.301	1409.2
3043.552	1443.2
3046.801	1474.2
3050.048	1507.2
3053.291	1565.2
3056.532	1601.2
3059.771	1631.2
3063.006	1676.2
3066.239	1729.2
3069.469	1802.2
3072.697	1838.2
3075.922	1869.2
3079.144	1926.2
3082.364	1974.2
3085.581	2006.2
3088.795	2063.2
3092.007	2093.2
3095.216	2150.2
3098.423	2173.2
3101.627	2263.2
3104.828	2299.2
3108.026	2331.2
3111.222	2427.2
3114.416	2463.2
3117.607	2534.2
3120.795	2582.2
3123.98	2647.2
3127.163	2714.2
3130.344	2806.2
3133.521	2853.2
3136.696	2905.2
3139.869	2975.2
3143.039	3036.2
3146.206	3063.2
3149.371	3103.2
3152.533	3143.2
3155.693	3146.2
3158.85	3153.2
3162.005	3154.2
3165.157	3185.2
3168.306	3191.2
3171.453	3171.2
3174.597	3188.2
3177.739	3208.2
3180.878	3181.2
3184.014	3241.2
3187.149	3212.2
3190.28	3218.2
3193.409	3216.2
3196.536	3201.2
3199.659	3254.2
3202.781	3243.2
3205.9	3237.2
3209.016	3204.2
3212.13	3229.2
3215.241	3208.2
3218.35	3163.2
3221.456	3114.2
3224.56	3087.2
3227.661	3062.2
3230.76	2992.2
3233.856	3013.2
3236.95	2965.2
3240.041	2930.2
3243.13	2916.2
3246.216	2920.2
3249.3	2888.2
3252.382	2877.2
3255.46	2860.2
3258.537	2857.2
3261.611	2856.2
3264.682	2844.2
3267.751	2832.2
3270.818	2838.2
3273.882	2857.2
3276.943	2820.2
3280.002	2802.2
3283.059	2771.2
3286.113	2751.2
3289.165	2693.2
3292.214	2657.2
3295.261	2612.2
3298.306	2582.2
3301.348	2510.2
3304.387	2472.2
3307.425	2442.2
3310.459	2440.2
3313.492	2365.2
3316.521	2325.2
3319.549	2320.2
3322.574	2278.2
3325.597	2267.2
3328.617	2235.2
3331.635	2235.2
3334.65	2196.2
3337.663	2207.2
3340.674	2187.2
3343.682	2181.2
3346.688	2167.2
3349.691	2146.2
3352.692	2167.2
3355.691	2123.2
3358.687	2115.2
3361.681	2122.2
3364.673	2090.2
3367.662	2053.2
3370.649	2014.2
3373.633	1992.2
3376.615	1947.2
3379.595	1908.2
3382.572	1904.2
3385.547	1855.2
3388.52	1831.2
3391.49	1804.2
3394.458	1776.2
3397.424	1746.2
3400.387	1730.2
3403.348	1703.2
3406.307	1689.2
3409.263	1668.2
3412.217	1653.2
3415.168	1645.2
3418.118	1612.2
3421.065	1592.2
3424.009	1566.2
3426.951	1523.2
3429.891	1503.2
3432.829	1481.2
3435.764	1424.2
3438.697	1392.2
3441.628	1368.2
3444.557	1320.2
3447.483	1278.2
3450.407	1241.2
3453.328	1206.2
3456.247	1152.2
3459.164	1117.2
3462.079	1075.2
3464.991	1052.2
3467.902	984.2
3470.809	966.2
3473.715	928.2
3476.618	885.2
3479.519	843.2
3482.418	819.2
3485.315	812.2
3488.209	763.2
3491.101	727.2
3493.99	702.2
3496.878	669.2
3499.763	657.2
3502.646	620.2
3505.527	588.2
3508.405	557.2
3511.281	519.2
3514.155	489.2
3517.027	477.2
3519.897	432.2
3522.764	401.2
3525.629	367.2
3528.492	321.2
3531.352	296.2
3534.211	273.2
3537.067	232.2
3539.921	213.2
3542.773	187.2
3545.622	144.2
3548.469	117.2
3551.315	110.2
3554.157	101.2
3556.998	60.2
3559.837	47.2
3562.673	35.2
3565.507	9.2
3568.339	-18.8
3571.169	-23.8
3573.996	-44.8
3576.822	-54.8
3579.645	-70.8
3582.466	-95.8
3585.285	-102.8
3588.101	-121.8
3590.916	-136.8
3593.728	-171.8
3596.538	-165.8
3599.346	-185.8
3602.152	-201.8
3604.956	-205.8
3607.757	-227.8
3610.556	-230.8
3613.354	-250.8
3616.149	-256.8
3618.942	-260.8
3621.732	-268.8
3624.521	-289.8
3627.307	-295.8
3630.092	-297.8
3632.874	-309.8
3635.654	-321.8
3638.432	-333.8
3641.208	-331.8
3643.982	-340.8
3646.753	-352.8
3649.523	-355.8
3652.29	-358.8
3655.055	-371.8
3657.818	-382.8
3660.579	-391.8
3663.338	-405.8
3666.095	-405.8
3668.849	-415.8
3671.602	-415.8
3674.352	-426.8
3677.101	-429.8
3679.847	-439.8
3682.591	-439.8
3685.333	-447.8
3688.073	-452.8
3690.811	-454.8
3693.547	-453.8
3696.281	-458.8
3699.013	-464.8
3701.742	-460.8
3704.47	-468.8
3707.195	-475.8
3709.919	-471.8
3712.64	-481.8
3715.359	-481.8
3718.076	-478.8
3720.792	-486.8
3723.505	-490.8
3726.216	-492.8
3728.925	-494.8
3731.632	-501.8
3734.336	-505.8
3737.039	-502.8
3739.74	-506.8
3742.439	-513.8
3745.136	-514.8
3747.83	-515.8
3750.523	-510.8
3753.213	-518.8
3755.902	-514.8
3758.589	-513.8
3761.273	-514.8
3763.956	-516.8
3766.636	-519.8
3769.315	-527.8
3771.991	-522.8
3774.665	-529.8
3777.338	-527.8
3780.008	-528.8
3782.677	-526.8
3785.343	-523.8
3788.007	-530.8
3790.67	-529.8
3793.33	-535.8
3795.989	-536.8
3798.645	-536.8
3801.299	-535.8
3803.952	-537.8
3806.602	-544.8
3809.251	-549.8
3811.897	-546.8
3814.542	-542.8
3817.184	-539.8
3819.825	-539.8
3822.463	-539.8
3825.1	-546.8
3827.735	-543.8
3830.367	-536.8
3832.998	-542.8
3835.627	-547.8
3838.253	-550.8
3840.878	-553.8
3843.501	-549.8
3846.122	-540.8
3848.741	-546.8
3851.358	-544.8
3853.973	-546.8
3856.586	-550.8
3859.197	-553.8
3861.806	-555.8
3864.414	-553.8
3867.019	-550.8
3869.622	-553.8
3872.224	-547.8
3874.823	-527.8
3877.421	-512.8
3880.016	-492.8
3882.61	-473.8
3885.202	-468.8
3887.792	-481.8
3890.38	-513.8
3892.966	-534.8
3895.55	-548.8
3898.132	-560.8
3900.713	-563.8
3903.291	-554.8
3905.868	-559.8
3908.442	-561.8
3911.015	-558.8
3913.586	-554.8
3916.155	-555.8
3918.722	-558.8
3921.287	-558.8
3923.85	-565.8
3926.411	-560.8
3928.971	-568.8
3931.528	-564.8
3934.084	-557.8
3936.638	-562.8
3939.19	-561.8
3941.74	-563.8
3944.288	-570.8
3946.834	-559.8
3949.378	-562.8
3951.921	-566.8
3954.462	-569.8
3957	-561.8
3959.537	-563.8
3962.072	-560.8
3964.606	-563.8
3967.137	-562.8
3969.667	-562.8
3972.194	-560.8
3974.72	-558.8
3977.244	-556.8
3979.766	-553.8
3982.286	-553.8
3984.805	-552.8
3987.321	-552.8
3989.836	-560.8
3992.349	-546.8
3994.86	-551.8
3997.369	-557.8
3999.877	-552.8
4002.382	-547.8
4004.886	-552.8
4007.388	-549.8
4009.888	-546.8
4012.386	-556.8
4014.883	-548.8
4017.377	-547.8
4019.87	-548.8
4022.361	-548.8
4024.85	-548.8
4027.338	-547.8
4029.823	-552.8
4032.307	-553.8
4034.789	-547.8
4037.269	-550.8
4039.747	-552.8
4042.224	-554.8
4044.699	-549.8
4047.172	-553.8
4049.643	-549.8
4052.112	-557.8
4054.58	-559.8
4057.046	-558.8
4059.51	-557.8
4061.972	-559.8
4064.432	-558.8
4066.891	-550.8
4069.348	-552.8
4071.803	-546.8
4074.256	-554.8
4076.708	-551.8
4079.158	-548.8
4081.606	-558.8
4084.052	-554.8
4086.497	-557.8
4088.939	-549.8
4091.38	-550.8
4093.819	-549.8
4096.257	-577.8
4098.693	-581.8
4101.127	-584.8
4103.559	-579.8
4105.989	-319.8
4108.418	-297.8
4110.845	-279.8
4113.27	-265.8
4115.694	-241.8
4118.115	-189.8
4120.535	-547.8
4122.954	-555.8
4125.37	-543.8
4127.785	-552.8
4130.198	-555.8
4132.609	-552.8
4135.019	-580.8
4137.427	-586.8
4139.833	-584.8
4142.237	-577.8
