Data from 2018-2-14_conc=2_n=1_RamanShift_04.txt Node
Date: Wed Feb 14 11:01:26 IST 2018
User: aro
Spectrometer: QEPB0276
Trigger mode: 0
Integration Time (sec): 3.000000E1
Scans to average: 1
Electric dark correction enabled: true
Nonlinearity correction enabled: false
Boxcar width: 0
XAxis mode: Raman Shifts
Number of Pixels in Spectrum: 1044
>>>>>Begin Spectral Data<<<<<
160.701	-122.6
166.742	45.4
172.777	518.4
178.805	1970.4
184.826	5440.4
190.841	11371.4
196.849	18306.4
202.85	23251.4
208.845	24911.4
214.833	24697.4
220.815	24290.4
226.789	24183.4
232.758	24063.4
238.719	23905.4
244.674	23625.4
250.623	23240.4
256.565	22796.4
262.5	22402.4
268.429	21998.4
274.351	21749.4
280.267	21464.4
286.176	21231.4
292.079	21070.4
297.975	20913.4
303.865	20700.4
309.748	20643.4
315.625	20565.4
321.495	20444.4
327.359	20375.4
333.217	20292.4
339.068	20277.4
344.912	20272.4
350.751	20225.4
356.583	20221.4
362.408	20232.4
368.227	20211.4
374.04	20219.4
379.847	20226.4
385.647	20369.4
391.44	20425.4
397.228	20540.4
403.009	20603.4
408.784	20631.4
414.553	20700.4
420.315	20740.4
426.071	20749.4
431.821	20785.4
437.565	20789.4
443.302	20762.4
449.033	20642.4
454.758	20636.4
460.477	20636.4
466.189	20565.4
471.896	20481.4
477.596	20394.4
483.29	20457.4
488.978	20360.4
494.66	20274.4
500.335	20187.4
506.005	19965.4
511.668	19685.4
517.325	19482.4
522.977	19274.4
528.622	19131.4
534.261	18942.4
539.894	18940.4
545.521	18824.4
551.141	18768.4
556.756	18641.4
562.365	18547.4
567.968	18599.4
573.565	18474.4
579.155	18349.4
584.74	18295.4
590.319	18264.4
595.892	18246.4
601.459	18169.4
607.02	18041.4
612.575	17887.4
618.124	17749.4
623.667	17701.4
629.204	17599.4
634.735	17545.4
640.261	17436.4
645.781	17437.4
651.294	17372.4
656.802	17363.4
662.304	17307.4
667.8	17292.4
673.29	17246.4
678.775	17187.4
684.254	17201.4
689.726	17064.4
695.193	17025.4
700.655	16979.4
706.11	16878.4
711.56	16786.4
717.004	16759.4
722.442	16662.4
727.874	16586.4
733.301	16560.4
738.722	16434.4
744.137	16387.4
749.547	16441.4
754.951	16405.4
760.349	16401.4
765.741	16429.4
771.128	16462.4
776.509	16469.4
781.885	16451.4
787.254	16460.4
792.618	16343.4
797.977	16242.4
803.33	16121.4
808.677	16062.4
814.019	15917.4
819.355	15857.4
824.686	15782.4
830.011	15751.4
835.33	15770.4
840.644	15762.4
845.952	15717.4
851.255	15817.4
856.552	15793.4
861.844	15748.4
867.13	15782.4
872.41	15716.4
877.686	15622.4
882.955	15491.4
888.219	15365.4
893.478	15161.4
898.731	15024.4
903.979	14851.4
909.221	14706.4
914.458	14697.4
919.69	14673.4
924.916	14664.4
930.136	14778.4
935.351	14797.4
940.561	14730.4
945.766	14739.4
950.965	14717.4
956.158	14586.4
961.347	14367.4
966.529	14223.4
971.707	14098.4
976.879	13863.4
982.046	13760.4
987.208	13762.4
992.364	13765.4
997.515	13818.4
1002.66	13960.4
1007.801	14096.4
1012.936	14160.4
1018.066	14173.4
1023.19	14206.4
1028.309	14201.4
1033.423	14131.4
1038.532	14058.4
1043.636	13945.4
1048.734	13746.4
1053.827	13616.4
1058.915	13515.4
1063.998	13363.4
1069.075	13344.4
1074.147	13367.4
1079.214	13427.4
1084.276	13476.4
1089.333	13557.4
1094.385	13576.4
1099.431	13683.4
1104.472	13619.4
1109.509	13564.4
1114.54	13422.4
1119.565	13238.4
1124.586	13030.4
1129.602	12871.4
1134.613	12803.4
1139.618	12722.4
1144.619	12761.4
1149.614	12730.4
1154.604	12751.4
1159.589	12744.4
1164.57	12838.4
1169.545	12856.4
1174.515	12795.4
1179.48	12754.4
1184.44	12664.4
1189.395	12577.4
1194.345	12471.4
1199.29	12412.4
1204.23	12412.4
1209.165	12429.4
1214.095	12515.4
1219.021	12569.4
1223.941	12604.4
1228.856	12743.4
1233.766	12768.4
1238.672	12753.4
1243.572	12750.4
1248.467	12645.4
1253.358	12494.4
1258.244	12326.4
1263.124	12131.4
1268	11965.4
1272.871	11829.4
1277.737	11748.4
1282.599	11614.4
1287.455	11691.4
1292.306	11688.4
1297.153	11719.4
1301.995	11760.4
1306.832	11815.4
1311.664	11805.4
1316.491	11798.4
1321.314	11655.4
1326.132	11570.4
1330.945	11272.4
1335.753	10991.4
1340.556	10765.4
1345.354	10586.4
1350.148	10419.4
1354.937	10353.4
1359.722	10282.4
1364.501	10293.4
1369.276	10367.4
1374.046	10468.4
1378.811	10592.4
1383.572	10687.4
1388.327	10772.4
1393.079	10685.4
1397.825	10569.4
1402.567	10386.4
1407.304	10366.4
1412.036	10241.4
1416.764	10169.4
1421.487	10105.4
1426.205	10066.4
1430.919	9997.4
1435.628	10013.4
1440.333	10027.4
1445.032	10091.4
1449.727	10078.4
1454.418	10076.4
1459.104	9969.4
1463.785	9833.4
1468.462	9523.4
1473.134	9406.4
1477.802	9214.4
1482.465	9048.4
1487.123	8937.4
1491.777	8948.4
1496.426	8916.4
1501.071	9018.4
1505.711	9113.4
1510.347	9279.4
1514.978	9419.4
1519.604	9523.4
1524.226	9651.4
1528.844	9664.4
1533.457	9601.4
1538.065	9598.4
1542.669	9540.4
1547.269	9479.4
1551.864	9431.4
1556.454	9347.4
1561.041	9362.4
1565.622	9315.4
1570.199	9338.4
1574.772	9408.4
1579.34	9446.4
1583.904	9529.4
1588.464	9574.4
1593.019	9558.4
1597.569	9507.4
1602.115	9475.4
1606.657	9359.4
1611.195	9338.4
1615.728	9246.4
1620.256	9191.4
1624.78	9205.4
1629.3	9178.4
1633.816	9220.4
1638.327	9284.4
1642.834	9333.4
1647.336	9358.4
1651.834	9377.4
1656.328	9354.4
1660.817	9278.4
1665.302	9186.4
1669.783	9047.4
1674.259	8858.4
1678.732	8641.4
1683.199	8311.4
1687.663	8088.4
1692.122	7816.4
1696.577	7693.4
1701.028	7633.4
1705.474	7656.4
1709.917	7760.4
1714.355	7803.4
1718.788	7721.4
1723.218	7638.4
1727.643	7502.4
1732.064	7391.4
1736.481	7187.4
1740.893	7063.4
1745.301	6842.4
1749.705	6699.4
1754.105	6506.4
1758.501	6310.4
1762.893	6141.4
1767.28	6001.4
1771.663	5874.4
1776.042	5775.4
1780.417	5721.4
1784.787	5686.4
1789.154	5752.4
1793.516	5837.4
1797.874	5881.4
1802.228	6019.4
1806.578	6120.4
1810.924	6074.4
1815.266	6034.4
1819.603	5947.4
1823.937	5909.4
1828.266	5784.4
1832.591	5716.4
1836.913	5623.4
1841.23	5562.4
1845.543	5538.4
1849.852	5522.4
1854.156	5461.4
1858.457	5477.4
1862.754	5446.4
1867.047	5457.4
1871.335	5450.4
1875.62	5417.4
1879.9	5429.4
1884.177	5350.4
1888.449	5309.4
1892.718	5284.4
1896.982	5255.4
1901.243	5215.4
1905.499	5125.4
1909.752	5099.4
1914	5127.4
1918.245	5138.4
1922.485	5147.4
1926.722	5222.4
1930.954	5244.4
1935.183	5302.4
1939.408	5418.4
1943.628	5431.4
1947.845	5397.4
1952.058	5408.4
1956.267	5338.4
1960.472	5297.4
1964.673	5209.4
1968.87	5100.4
1973.063	5038.4
1977.252	4949.4
1981.438	4899.4
1985.619	4874.4
1989.797	4795.4
1993.971	4790.4
1998.14	4747.4
2002.306	4729.4
2006.469	4732.4
2010.627	4689.4
2014.781	4661.4
2018.932	4637.4
2023.078	4586.4
2027.221	4540.4
2031.36	4438.4
2035.495	4401.4
2039.627	4318.4
2043.754	4267.4
2047.878	4200.4
2051.998	4203.4
2056.114	4207.4
2060.226	4192.4
2064.334	4178.4
2068.439	4211.4
2072.54	4224.4
2076.637	4235.4
2080.73	4255.4
2084.82	4283.4
2088.906	4290.4
2092.988	4299.4
2097.066	4263.4
2101.14	4262.4
2105.211	4238.4
2109.278	4225.4
2113.342	4180.4
2117.401	4186.4
2121.457	4127.4
2125.509	4092.4
2129.558	4081.4
2133.602	4080.4
2137.643	4018.4
2141.681	4020.4
2145.714	4014.4
2149.744	3956.4
2153.77	3954.4
2157.793	3910.4
2161.812	3830.4
2165.827	3775.4
2169.838	3755.4
2173.846	3664.4
2177.851	3594.4
2181.851	3559.4
2185.848	3538.4
2189.841	3468.4
2193.831	3434.4
2197.817	3385.4
2201.799	3396.4
2205.778	3377.4
2209.753	3374.4
2213.725	3350.4
2217.693	3342.4
2221.657	3352.4
2225.618	3336.4
2229.575	3299.4
2233.529	3276.4
2237.479	3270.4
2241.425	3194.4
2245.368	3125.4
2249.307	3115.4
2253.243	3085.4
2257.175	3047.4
2261.104	2974.4
2265.029	2958.4
2268.95	2915.4
2272.868	2889.4
2276.783	2866.4
2280.694	2833.4
2284.601	2811.4
2288.505	2782.4
2292.405	2757.4
2296.302	2742.4
2300.195	2686.4
2304.085	2668.4
2307.971	2596.4
2311.854	2570.4
2315.734	2528.4
2319.609	2511.4
2323.482	2477.4
2327.351	2465.4
2331.216	2443.4
2335.078	2427.4
2338.937	2385.4
2342.792	2407.4
2346.643	2369.4
2350.492	2373.4
2354.336	2402.4
2358.178	2411.4
2362.015	2412.4
2365.85	2421.4
2369.681	2439.4
2373.508	2422.4
2377.333	2405.4
2381.153	2399.4
2384.971	2370.4
2388.785	2368.4
2392.595	2352.4
2396.402	2349.4
2400.206	2334.4
2404.007	2298.4
2407.804	2284.4
2411.597	2282.4
2415.388	2275.4
2419.174	2235.4
2422.958	2219.4
2426.738	2189.4
2430.515	2168.4
2434.289	2179.4
2438.059	2147.4
2441.825	2117.4
2445.589	2124.4
2449.349	2096.4
2453.106	2060.4
2456.859	2068.4
2460.61	2008.4
2464.356	1998.4
2468.1	1959.4
2471.84	1928.4
2475.577	1935.4
2479.311	1891.4
2483.041	1927.4
2486.768	1915.4
2490.492	1901.4
2494.213	1883.4
2497.93	1871.4
2501.644	1875.4
2505.355	1855.4
2509.062	1853.4
2512.766	1848.4
2516.467	1828.4
2520.165	1816.4
2523.859	1784.4
2527.551	1813.4
2531.239	1768.4
2534.923	1752.4
2538.605	1764.4
2542.283	1738.4
2545.958	1751.4
2549.63	1760.4
2553.299	1752.4
2556.964	1730.4
2560.626	1723.4
2564.285	1729.4
2567.941	1708.4
2571.594	1702.4
2575.243	1689.4
2578.89	1672.4
2582.533	1651.4
2586.173	1631.4
2589.809	1620.4
2593.443	1632.4
2597.073	1621.4
2600.701	1602.4
2604.325	1581.4
2607.946	1571.4
2611.564	1554.4
2615.178	1567.4
2618.79	1533.4
2622.398	1531.4
2626.004	1502.4
2629.606	1473.4
2633.205	1476.4
2636.801	1456.4
2640.394	1434.4
2643.983	1406.4
2647.57	1391.4
2651.153	1360.4
2654.734	1336.4
2658.311	1305.4
2661.885	1302.4
2665.456	1273.4
2669.025	1256.4
2672.589	1249.4
2676.151	1237.4
2679.71	1239.4
2683.266	1202.4
2686.819	1184.4
2690.368	1162.4
2693.915	1148.4
2697.458	1107.4
2700.999	1086.4
2704.536	1075.4
2708.071	1043.4
2711.602	1015.4
2715.13	986.4
2718.656	967.4
2722.178	951.4
2725.697	947.4
2729.214	929.4
2732.727	934.4
2736.237	905.4
2739.744	899.4
2743.249	914.4
2746.75	908.4
2750.248	934.4
2753.743	920.4
2757.236	953.4
2760.725	953.4
2764.211	950.4
2767.695	941.4
2771.175	954.4
2774.652	949.4
2778.127	920.4
2781.598	939.4
2785.067	937.4
2788.532	936.4
2791.995	927.4
2795.455	925.4
2798.911	927.4
2802.365	939.4
2805.816	922.4
2809.264	932.4
2812.709	936.4
2816.151	896.4
2819.59	938.4
2823.026	911.4
2826.46	918.4
2829.89	931.4
2833.318	926.4
2836.742	940.4
2840.164	941.4
2843.583	942.4
2846.999	952.4
2850.412	956.4
2853.822	958.4
2857.229	974.4
2860.634	1004.4
2864.035	1016.4
2867.434	1026.4
2870.83	1067.4
2874.223	1056.4
2877.613	1100.4
2881	1080.4
2884.385	1087.4
2887.766	1109.4
2891.145	1091.4
2894.521	1091.4
2897.894	1080.4
2901.264	1076.4
2904.631	1077.4
2907.996	1088.4
2911.358	1082.4
2914.717	1086.4
2918.073	1099.4
2921.426	1119.4
2924.777	1145.4
2928.124	1133.4
2931.469	1147.4
2934.811	1202.4
2938.15	1196.4
2941.487	1216.4
2944.821	1218.4
2948.152	1207.4
2951.48	1206.4
2954.805	1187.4
2958.128	1183.4
2961.447	1185.4
2964.765	1157.4
2968.079	1170.4
2971.39	1179.4
2974.699	1204.4
2978.005	1196.4
2981.308	1221.4
2984.609	1256.4
2987.907	1240.4
2991.202	1297.4
2994.494	1318.4
2997.784	1339.4
3001.07	1377.4
3004.355	1394.4
3007.636	1411.4
3010.915	1430.4
3014.191	1453.4
3017.464	1452.4
3020.734	1451.4
3024.002	1486.4
3027.267	1480.4
3030.53	1491.4
3033.789	1512.4
3037.046	1493.4
3040.301	1539.4
3043.552	1582.4
3046.801	1613.4
3050.048	1637.4
3053.291	1705.4
3056.532	1749.4
3059.771	1762.4
3063.006	1820.4
3066.239	1890.4
3069.469	1938.4
3072.697	1969.4
3075.922	2068.4
3079.144	2077.4
3082.364	2143.4
3085.581	2173.4
3088.795	2229.4
3092.007	2261.4
3095.216	2322.4
3098.423	2394.4
3101.627	2430.4
3104.828	2477.4
3108.026	2535.4
3111.222	2589.4
3114.416	2636.4
3117.607	2699.4
3120.795	2749.4
3123.98	2838.4
3127.163	2876.4
3130.344	2954.4
3133.521	3017.4
3136.696	3097.4
3139.869	3171.4
3143.039	3203.4
3146.206	3258.4
3149.371	3262.4
3152.533	3338.4
3155.693	3338.4
3158.85	3381.4
3162.005	3394.4
3165.157	3405.4
3168.306	3384.4
3171.453	3400.4
3174.597	3436.4
3177.739	3423.4
3180.878	3412.4
3184.014	3446.4
3187.149	3442.4
3190.28	3428.4
3193.409	3427.4
3196.536	3424.4
3199.659	3447.4
3202.781	3442.4
3205.9	3469.4
3209.016	3437.4
3212.13	3449.4
3215.241	3403.4
3218.35	3384.4
3221.456	3339.4
3224.56	3305.4
3227.661	3277.4
3230.76	3244.4
3233.856	3211.4
3236.95	3177.4
3240.041	3141.4
3243.13	3114.4
3246.216	3086.4
3249.3	3077.4
3252.382	3061.4
3255.46	3058.4
3258.537	3022.4
3261.611	3033.4
3264.682	3067.4
3267.751	3040.4
3270.818	3035.4
3273.882	3020.4
3276.943	2991.4
3280.002	2983.4
3283.059	2988.4
3286.113	2940.4
3289.165	2900.4
3292.214	2854.4
3295.261	2799.4
3298.306	2745.4
3301.348	2668.4
3304.387	2653.4
3307.425	2634.4
3310.459	2579.4
3313.492	2538.4
3316.521	2481.4
3319.549	2462.4
3322.574	2469.4
3325.597	2432.4
3328.617	2431.4
3331.635	2413.4
3334.65	2409.4
3337.663	2371.4
3340.674	2366.4
3343.682	2363.4
3346.688	2359.4
3349.691	2338.4
3352.692	2351.4
3355.691	2330.4
3358.687	2281.4
3361.681	2251.4
3364.673	2225.4
3367.662	2215.4
3370.649	2176.4
3373.633	2137.4
3376.615	2107.4
3379.595	2061.4
3382.572	2057.4
3385.547	2009.4
3388.52	1965.4
3391.49	1932.4
3394.458	1910.4
3397.424	1895.4
3400.387	1871.4
3403.348	1854.4
3406.307	1824.4
3409.263	1804.4
3412.217	1796.4
3415.168	1760.4
3418.118	1746.4
3421.065	1723.4
3424.009	1705.4
3426.951	1658.4
3429.891	1650.4
3432.829	1587.4
3435.764	1546.4
3438.697	1503.4
3441.628	1483.4
3444.557	1435.4
3447.483	1385.4
3450.407	1354.4
3453.328	1308.4
3456.247	1254.4
3459.164	1217.4
3462.079	1171.4
3464.991	1118.4
3467.902	1060.4
3470.809	1040.4
3473.715	1011.4
3476.618	949.4
3479.519	929.4
3482.418	909.4
3485.315	859.4
3488.209	820.4
3491.101	807.4
3493.99	770.4
3496.878	753.4
3499.763	722.4
3502.646	683.4
3505.527	655.4
3508.405	614.4
3511.281	561.4
3514.155	548.4
3517.027	514.4
3519.897	486.4
3522.764	427.4
3525.629	396.4
3528.492	371.4
3531.352	325.4
3534.211	293.4
3537.067	277.4
3539.921	248.4
3542.773	212.4
3545.622	184.4
3548.469	153.4
3551.315	142.4
3554.157	120.4
3556.998	81.4
3559.837	69.4
3562.673	47.4
3565.507	13.4
3568.339	12.4
3571.169	-17.6
3573.996	-24.6
3576.822	-40.6
3579.645	-55.6
3582.466	-79.6
3585.285	-93.6
3588.101	-111.6
3590.916	-134.6
3593.728	-149.6
3596.538	-169.6
3599.346	-183.6
3602.152	-186.6
3604.956	-201.6
3607.757	-211.6
3610.556	-231.6
3613.354	-242.6
3616.149	-246.6
3618.942	-275.6
3621.732	-275.6
3624.521	-288.6
3627.307	-297.6
3630.092	-294.6
3632.874	-318.6
3635.654	-319.6
3638.432	-330.6
3641.208	-334.6
3643.982	-343.6
3646.753	-343.6
3649.523	-360.6
3652.29	-368.6
3655.055	-365.6
3657.818	-379.6
3660.579	-388.6
3663.338	-402.6
3666.095	-402.6
3668.849	-419.6
3671.602	-420.6
3674.352	-428.6
3677.101	-435.6
3679.847	-439.6
3682.591	-445.6
3685.333	-449.6
3688.073	-453.6
3690.811	-458.6
3693.547	-459.6
3696.281	-469.6
3699.013	-476.6
3701.742	-476.6
3704.47	-474.6
3707.195	-484.6
3709.919	-484.6
3712.64	-495.6
3715.359	-497.6
3718.076	-502.6
3720.792	-501.6
3723.505	-496.6
3726.216	-513.6
3728.925	-507.6
3731.632	-512.6
3734.336	-509.6
3737.039	-515.6
3739.74	-512.6
3742.439	-516.6
3745.136	-524.6
3747.83	-529.6
3750.523	-521.6
3753.213	-512.6
3755.902	-528.6
3758.589	-533.6
3761.273	-533.6
3763.956	-535.6
3766.636	-540.6
3769.315	-541.6
3771.991	-545.6
3774.665	-545.6
3777.338	-539.6
3780.008	-541.6
3782.677	-551.6
3785.343	-540.6
3788.007	-544.6
3790.67	-540.6
3793.33	-551.6
3795.989	-549.6
3798.645	-552.6
3801.299	-550.6
3803.952	-557.6
3806.602	-562.6
3809.251	-563.6
3811.897	-558.6
3814.542	-561.6
3817.184	-558.6
3819.825	-557.6
3822.463	-554.6
3825.1	-565.6
3827.735	-552.6
3830.367	-555.6
3832.998	-560.6
3835.627	-564.6
3838.253	-565.6
3840.878	-570.6
3843.501	-562.6
3846.122	-558.6
3848.741	-564.6
3851.358	-563.6
3853.973	-564.6
3856.586	-570.6
3859.197	-572.6
3861.806	-574.6
3864.414	-567.6
3867.019	-569.6
3869.622	-567.6
3872.224	-560.6
3874.823	-550.6
3877.421	-530.6
3880.016	-513.6
3882.61	-489.6
3885.202	-478.6
3887.792	-500.6
3890.38	-531.6
3892.966	-557.6
3895.55	-564.6
3898.132	-580.6
3900.713	-581.6
3903.291	-581.6
3905.868	-584.6
3908.442	-579.6
3911.015	-585.6
3913.586	-573.6
3916.155	-575.6
3918.722	-580.6
3921.287	-577.6
3923.85	-582.6
3926.411	-584.6
3928.971	-592.6
3931.528	-583.6
3934.084	-586.6
3936.638	-583.6
3939.19	-584.6
3941.74	-582.6
3944.288	-589.6
3946.834	-578.6
3949.378	-583.6
3951.921	-581.6
3954.462	-585.6
3957	-577.6
3959.537	-582.6
3962.072	-576.6
3964.606	-582.6
3967.137	-583.6
3969.667	-582.6
3972.194	-580.6
3974.72	-577.6
3977.244	-573.6
3979.766	-576.6
3982.286	-571.6
3984.805	-572.6
3987.321	-574.6
3989.836	-571.6
3992.349	-565.6
3994.86	-573.6
3997.369	-569.6
3999.877	-564.6
4002.382	-565.6
4004.886	-568.6
4007.388	-567.6
4009.888	-566.6
4012.386	-568.6
4014.883	-571.6
4017.377	-572.6
4019.87	-568.6
4022.361	-565.6
4024.85	-572.6
4027.338	-573.6
4029.823	-574.6
4032.307	-567.6
4034.789	-570.6
4037.269	-567.6
4039.747	-570.6
4042.224	-569.6
4044.699	-568.6
4047.172	-567.6
4049.643	-567.6
4052.112	-575.6
4054.58	-577.6
4057.046	-575.6
4059.51	-577.6
4061.972	-579.6
4064.432	-579.6
4066.891	-575.6
4069.348	-569.6
4071.803	-568.6
4074.256	-572.6
4076.708	-572.6
4079.158	-567.6
4081.606	-575.6
4084.052	-578.6
4086.497	-574.6
4088.939	-566.6
4091.38	-571.6
4093.819	-569.6
4096.257	-604.6
4098.693	-606.6
4101.127	-606.6
4103.559	-600.6
4105.989	-333.6
4108.418	-316.6
4110.845	-288.6
4113.27	-276.6
4115.694	-238.6
4118.115	-202.6
4120.535	-573.6
4122.954	-576.6
4125.37	-562.6
4127.785	-573.6
4130.198	-575.6
4132.609	-577.6
4135.019	-603.6
4137.427	-603.6
4139.833	-604.6
4142.237	-599.6
