Data from 2018-2-14_conc=6_n=11_RamanShift_02.txt Node
Date: Wed Feb 14 15:18:55 IST 2018
User: aro
Spectrometer: QEPB0276
Trigger mode: 0
Integration Time (sec): 3.000000E1
Scans to average: 1
Electric dark correction enabled: true
Nonlinearity correction enabled: false
Boxcar width: 0
XAxis mode: Raman Shifts
Number of Pixels in Spectrum: 1044
>>>>>Begin Spectral Data<<<<<
160.701	-21.6
166.742	15.4
172.777	92.4
178.805	385.4
184.826	1041.4
190.841	2184.4
196.849	3537.4
202.85	4447.4
208.845	4794.4
214.833	4759.4
220.815	4661.4
226.789	4678.4
232.758	4626.4
238.719	4701.4
244.674	4821.4
250.623	5056.4
256.565	5256.4
262.5	5322.4
268.429	5209.4
274.351	4740.4
280.267	4201.4
286.176	4118.4
292.079	4057.4
297.975	4040.4
303.865	4024.4
309.748	4022.4
315.625	3999.4
321.495	3961.4
327.359	3953.4
333.217	3976.4
339.068	3965.4
344.912	3946.4
350.751	3937.4
356.583	3924.4
362.408	3926.4
368.227	3928.4
374.04	3913.4
379.847	3963.4
385.647	4064.4
391.44	4394.4
397.228	4962.4
403.009	5657.4
408.784	6283.4
414.553	7440.4
420.315	8795.4
426.071	7688.4
431.821	5177.4
437.565	4096.4
443.302	3989.4
449.033	3947.4
454.758	3921.4
460.477	3910.4
466.189	3895.4
471.896	3854.4
477.596	3851.4
483.29	3858.4
488.978	3819.4
494.66	3780.4
500.335	3790.4
506.005	3728.4
511.668	3692.4
517.325	3676.4
522.977	3608.4
528.622	3592.4
534.261	3585.4
539.894	3556.4
545.521	3544.4
551.141	3564.4
556.756	3570.4
562.365	3579.4
567.968	3542.4
573.565	3514.4
579.155	3483.4
584.74	3398.4
590.319	3383.4
595.892	3359.4
601.459	3428.4
607.02	3427.4
612.575	3440.4
618.124	3425.4
623.667	3399.4
629.204	3474.4
634.735	3648.4
640.261	3955.4
645.781	3960.4
651.294	3635.4
656.802	3325.4
662.304	3290.4
667.8	3273.4
673.29	3290.4
678.775	3249.4
684.254	3288.4
689.726	3255.4
695.193	3236.4
700.655	3238.4
706.11	3243.4
711.56	3224.4
717.004	3190.4
722.442	3193.4
727.874	3164.4
733.301	3174.4
738.722	3136.4
744.137	3156.4
749.547	3155.4
754.951	3129.4
760.349	3175.4
765.741	3174.4
771.128	3180.4
776.509	3179.4
781.885	3197.4
787.254	3192.4
792.618	3196.4
797.977	3169.4
803.33	3181.4
808.677	3148.4
814.019	3124.4
819.355	3142.4
824.686	3116.4
830.011	3150.4
835.33	3235.4
840.644	3615.4
845.952	4285.4
851.255	4607.4
856.552	4096.4
861.844	3868.4
867.13	4715.4
872.41	5725.4
877.686	5139.4
882.955	3759.4
888.219	3126.4
893.478	3053.4
898.731	2996.4
903.979	2955.4
909.221	2922.4
914.458	2909.4
919.69	2907.4
924.916	2934.4
930.136	2927.4
935.351	2935.4
940.561	2973.4
945.766	2943.4
950.965	2926.4
956.158	2914.4
961.347	2864.4
966.529	2835.4
971.707	2788.4
976.879	2753.4
982.046	2737.4
987.208	2760.4
992.364	2772.4
997.515	2887.4
1002.66	3236.4
1007.801	3543.4
1012.936	3357.4
1018.066	2960.4
1023.19	2833.4
1028.309	2798.4
1033.423	2719.4
1038.532	2714.4
1043.636	2715.4
1048.734	2730.4
1053.827	2704.4
1058.915	2689.4
1063.998	2669.4
1069.075	2657.4
1074.147	2669.4
1079.214	2681.4
1084.276	2686.4
1089.333	2708.4
1094.385	2707.4
1099.431	2724.4
1104.472	2737.4
1109.509	2714.4
1114.54	2691.4
1119.565	2653.4
1124.586	2631.4
1129.602	2576.4
1134.613	2582.4
1139.618	2556.4
1144.619	2572.4
1149.614	2583.4
1154.604	2586.4
1159.589	2588.4
1164.57	2585.4
1169.545	2599.4
1174.515	2602.4
1179.48	2560.4
1184.44	2543.4
1189.395	2527.4
1194.345	2476.4
1199.29	2481.4
1204.23	2624.4
1209.165	2639.4
1214.095	2578.4
1219.021	2536.4
1223.941	2536.4
1228.856	2549.4
1233.766	2557.4
1238.672	2554.4
1243.572	2554.4
1248.467	2538.4
1253.358	2521.4
1258.244	2479.4
1263.124	2436.4
1268	2448.4
1272.871	2418.4
1277.737	2371.4
1282.599	2332.4
1287.455	2317.4
1292.306	2335.4
1297.153	2363.4
1301.995	2349.4
1306.832	2372.4
1311.664	2385.4
1316.491	2389.4
1321.314	2345.4
1326.132	2332.4
1330.945	2289.4
1335.753	2272.4
1340.556	2196.4
1345.354	2165.4
1350.148	2142.4
1354.937	2138.4
1359.722	2133.4
1364.501	2116.4
1369.276	2144.4
1374.046	2149.4
1378.811	2175.4
1383.572	2178.4
1388.327	2164.4
1393.079	2178.4
1397.825	2154.4
1402.567	2129.4
1407.304	2106.4
1412.036	2096.4
1416.764	2069.4
1421.487	2061.4
1426.205	2057.4
1430.919	2052.4
1435.628	2067.4
1440.333	2075.4
1445.032	2058.4
1449.727	2065.4
1454.418	2063.4
1459.104	2044.4
1463.785	2001.4
1468.462	1998.4
1473.134	1945.4
1477.802	1923.4
1482.465	1904.4
1487.123	1881.4
1491.777	1880.4
1496.426	1898.4
1501.071	1893.4
1505.711	1912.4
1510.347	1937.4
1514.978	1950.4
1519.604	1981.4
1524.226	1991.4
1528.844	1978.4
1533.457	1972.4
1538.065	1972.4
1542.669	1924.4
1547.269	1916.4
1551.864	1918.4
1556.454	1907.4
1561.041	1908.4
1565.622	1888.4
1570.199	1903.4
1574.772	1877.4
1579.34	1890.4
1583.904	1887.4
1588.464	1883.4
1593.019	1868.4
1597.569	1853.4
1602.115	1872.4
1606.657	1850.4
1611.195	1842.4
1615.728	1771.4
1620.256	1749.4
1624.78	1796.4
1629.3	1795.4
1633.816	1768.4
1638.327	1794.4
1642.834	1812.4
1647.336	1810.4
1651.834	1822.4
1656.328	1823.4
1660.817	1816.4
1665.302	1804.4
1669.783	1803.4
1674.259	1798.4
1678.732	1781.4
1683.199	1735.4
1687.663	1674.4
1692.122	1626.4
1696.577	1607.4
1701.028	1592.4
1705.474	1560.4
1709.917	1561.4
1714.355	1549.4
1718.788	1514.4
1723.218	1479.4
1727.643	1464.4
1732.064	1456.4
1736.481	1417.4
1740.893	1389.4
1745.301	1364.4
1749.705	1356.4
1754.105	1323.4
1758.501	1326.4
1762.893	1327.4
1767.28	1415.4
1771.663	1620.4
1776.042	2936.4
1780.417	4706.4
1784.787	4095.4
1789.154	1999.4
1793.516	1383.4
1797.874	1304.4
1802.228	1303.4
1806.578	1310.4
1810.924	1275.4
1815.266	1202.4
1819.603	1177.4
1823.937	1187.4
1828.266	1217.4
1832.591	1173.4
1836.913	1141.4
1841.23	1116.4
1845.543	1114.4
1849.852	1146.4
1854.156	1141.4
1858.457	1146.4
1862.754	1167.4
1867.047	1175.4
1871.335	1183.4
1875.62	1198.4
1879.9	1185.4
1884.177	1170.4
1888.449	1181.4
1892.718	1219.4
1896.982	1493.4
1901.243	1830.4
1905.499	1660.4
1909.752	1250.4
1914	1125.4
1918.245	1117.4
1922.485	1121.4
1926.722	1115.4
1930.954	1137.4
1935.183	1124.4
1939.408	1131.4
1943.628	1125.4
1947.845	1133.4
1952.058	1151.4
1956.267	1110.4
1960.472	1079.4
1964.673	1051.4
1968.87	1016.4
1973.063	990.4
1977.252	985.4
1981.438	969.4
1985.619	947.4
1989.797	917.4
1993.971	929.4
1998.14	908.4
2002.306	882.4
2006.469	865.4
2010.627	822.4
2014.781	832.4
2018.932	826.4
2023.078	813.4
2027.221	793.4
2031.36	775.4
2035.495	763.4
2039.627	754.4
2043.754	783.4
2047.878	809.4
2051.998	807.4
2056.114	778.4
2060.226	766.4
2064.334	745.4
2068.439	724.4
2072.54	735.4
2076.637	754.4
2080.73	760.4
2084.82	771.4
2088.906	796.4
2092.988	820.4
2097.066	830.4
2101.14	812.4
2105.211	792.4
2109.278	779.4
2113.342	774.4
2117.401	777.4
2121.457	768.4
2125.509	781.4
2129.558	768.4
2133.602	754.4
2137.643	728.4
2141.681	751.4
2145.714	738.4
2149.744	690.4
2153.77	711.4
2157.793	715.4
2161.812	711.4
2165.827	687.4
2169.838	673.4
2173.846	663.4
2177.851	671.4
2181.851	671.4
2185.848	650.4
2189.841	638.4
2193.831	631.4
2197.817	626.4
2201.799	644.4
2205.778	638.4
2209.753	616.4
2213.725	601.4
2217.693	612.4
2221.657	646.4
2225.618	673.4
2229.575	659.4
2233.529	614.4
2237.479	599.4
2241.425	588.4
2245.368	594.4
2249.307	589.4
2253.243	605.4
2257.175	581.4
2261.104	557.4
2265.029	559.4
2268.95	556.4
2272.868	543.4
2276.783	549.4
2280.694	534.4
2284.601	531.4
2288.505	522.4
2292.405	524.4
2296.302	560.4
2300.195	533.4
2304.085	524.4
2307.971	520.4
2311.854	488.4
2315.734	482.4
2319.609	476.4
2323.482	486.4
2327.351	480.4
2331.216	488.4
2335.078	491.4
2338.937	499.4
2342.792	488.4
2346.643	471.4
2350.492	477.4
2354.336	488.4
2358.178	513.4
2362.015	506.4
2365.85	523.4
2369.681	521.4
2373.508	536.4
2377.333	548.4
2381.153	641.4
2384.971	987.4
2388.785	1104.4
2392.595	816.4
2396.402	576.4
2400.206	530.4
2404.007	535.4
2407.804	543.4
2411.597	525.4
2415.388	510.4
2419.174	518.4
2422.958	511.4
2426.738	509.4
2430.515	492.4
2434.289	491.4
2438.059	491.4
2441.825	498.4
2445.589	478.4
2449.349	476.4
2453.106	472.4
2456.859	447.4
2460.61	453.4
2464.356	446.4
2468.1	427.4
2471.84	439.4
2475.577	448.4
2479.311	447.4
2483.041	441.4
2486.768	430.4
2490.492	422.4
2494.213	418.4
2497.93	412.4
2501.644	427.4
2505.355	444.4
2509.062	442.4
2512.766	441.4
2516.467	469.4
2520.165	515.4
2523.859	519.4
2527.551	452.4
2531.239	432.4
2534.923	435.4
2538.605	437.4
2542.283	433.4
2545.958	422.4
2549.63	428.4
2553.299	410.4
2556.964	407.4
2560.626	400.4
2564.285	411.4
2567.941	401.4
2571.594	400.4
2575.243	408.4
2578.89	399.4
2582.533	401.4
2586.173	399.4
2589.809	398.4
2593.443	403.4
2597.073	399.4
2600.701	400.4
2604.325	400.4
2607.946	404.4
2611.564	391.4
2615.178	389.4
2618.79	393.4
2622.398	391.4
2626.004	394.4
2629.606	376.4
2633.205	383.4
2636.801	374.4
2640.394	372.4
2643.983	365.4
2647.57	358.4
2651.153	359.4
2654.734	353.4
2658.311	352.4
2661.885	342.4
2665.456	339.4
2669.025	336.4
2672.589	336.4
2676.151	337.4
2679.71	350.4
2683.266	333.4
2686.819	318.4
2690.368	314.4
2693.915	319.4
2697.458	303.4
2700.999	304.4
2704.536	296.4
2708.071	300.4
2711.602	302.4
2715.13	289.4
2718.656	293.4
2722.178	289.4
2725.697	298.4
2729.214	292.4
2732.727	297.4
2736.237	290.4
2739.744	291.4
2743.249	295.4
2746.75	287.4
2750.248	277.4
2753.743	284.4
2757.236	285.4
2760.725	285.4
2764.211	285.4
2767.695	292.4
2771.175	280.4
2774.652	287.4
2778.127	284.4
2781.598	284.4
2785.067	283.4
2788.532	294.4
2791.995	292.4
2795.455	302.4
2798.911	314.4
2802.365	314.4
2805.816	326.4
2809.264	326.4
2812.709	324.4
2816.151	325.4
2819.59	331.4
2823.026	325.4
2826.46	334.4
2829.89	337.4
2833.318	341.4
2836.742	367.4
2840.164	361.4
2843.583	395.4
2846.999	417.4
2850.412	445.4
2853.822	476.4
2857.229	523.4
2860.634	582.4
2864.035	661.4
2867.434	770.4
2870.83	947.4
2874.223	1667.4
2877.613	3342.4
2881	3713.4
2884.385	2216.4
2887.766	1093.4
2891.145	819.4
2894.521	690.4
2897.894	609.4
2901.264	546.4
2904.631	500.4
2907.996	465.4
2911.358	435.4
2914.717	426.4
2918.073	409.4
2921.426	400.4
2924.777	382.4
2928.124	376.4
2931.469	384.4
2934.811	402.4
2938.15	404.4
2941.487	412.4
2944.821	424.4
2948.152	424.4
2951.48	414.4
2954.805	402.4
2958.128	392.4
2961.447	390.4
2964.765	377.4
2968.079	364.4
2971.39	363.4
2974.699	358.4
2978.005	372.4
2981.308	354.4
2984.609	367.4
2987.907	367.4
2991.202	375.4
2994.494	412.4
2997.784	425.4
3001.07	451.4
3004.355	450.4
3007.636	470.4
3010.915	461.4
3014.191	444.4
3017.464	421.4
3020.734	410.4
3024.002	393.4
3027.267	380.4
3030.53	366.4
3033.789	365.4
3037.046	371.4
3040.301	376.4
3043.552	382.4
3046.801	395.4
3050.048	393.4
3053.291	408.4
3056.532	425.4
3059.771	439.4
3063.006	469.4
3066.239	498.4
3069.469	517.4
3072.697	516.4
3075.922	525.4
3079.144	520.4
3082.364	511.4
3085.581	501.4
3088.795	496.4
3092.007	503.4
3095.216	504.4
3098.423	507.4
3101.627	523.4
3104.828	522.4
3108.026	536.4
3111.222	559.4
3114.416	575.4
3117.607	590.4
3120.795	601.4
3123.98	624.4
3127.163	662.4
3130.344	671.4
3133.521	684.4
3136.696	702.4
3139.869	705.4
3143.039	698.4
3146.206	695.4
3149.371	688.4
3152.533	696.4
3155.693	694.4
3158.85	700.4
3162.005	694.4
3165.157	715.4
3168.306	723.4
3171.453	714.4
3174.597	744.4
3177.739	748.4
3180.878	771.4
3184.014	814.4
3187.149	818.4
3190.28	834.4
3193.409	817.4
3196.536	796.4
3199.659	781.4
3202.781	765.4
3205.9	752.4
3209.016	731.4
3212.13	730.4
3215.241	704.4
3218.35	703.4
3221.456	689.4
3224.56	696.4
3227.661	693.4
3230.76	689.4
3233.856	686.4
3236.95	698.4
3240.041	707.4
3243.13	699.4
3246.216	700.4
3249.3	700.4
3252.382	692.4
3255.46	662.4
3258.537	631.4
3261.611	647.4
3264.682	631.4
3267.751	630.4
3270.818	622.4
3273.882	613.4
3276.943	609.4
3280.002	612.4
3283.059	605.4
3286.113	612.4
3289.165	596.4
3292.214	605.4
3295.261	584.4
3298.306	593.4
3301.348	593.4
3304.387	603.4
3307.425	604.4
3310.459	609.4
3313.492	584.4
3316.521	566.4
3319.549	559.4
3322.574	547.4
3325.597	532.4
3328.617	520.4
3331.635	507.4
3334.65	515.4
3337.663	511.4
3340.674	508.4
3343.682	509.4
3346.688	519.4
3349.691	534.4
3352.692	545.4
3355.691	554.4
3358.687	578.4
3361.681	593.4
3364.673	598.4
3367.662	589.4
3370.649	586.4
3373.633	544.4
3376.615	522.4
3379.595	465.4
3382.572	466.4
3385.547	440.4
3388.52	415.4
3391.49	411.4
3394.458	406.4
3397.424	400.4
3400.387	396.4
3403.348	391.4
3406.307	402.4
3409.263	390.4
3412.217	418.4
3415.168	433.4
3418.118	453.4
3421.065	462.4
3424.009	493.4
3426.951	511.4
3429.891	523.4
3432.829	514.4
3435.764	491.4
3438.697	470.4
3441.628	432.4
3444.557	425.4
3447.483	392.4
3450.407	378.4
3453.328	364.4
3456.247	363.4
3459.164	353.4
3462.079	367.4
3464.991	383.4
3467.902	420.4
3470.809	467.4
3473.715	554.4
3476.618	674.4
3479.519	846.4
3482.418	1039.4
3485.315	1209.4
3488.209	1341.4
3491.101	1363.4
3493.99	1332.4
3496.878	1265.4
3499.763	1215.4
3502.646	1203.4
3505.527	1250.4
3508.405	1285.4
3511.281	1239.4
3514.155	1155.4
3517.027	1067.4
3519.897	996.4
3522.764	945.4
3525.629	907.4
3528.492	946.4
3531.352	1026.4
3534.211	1143.4
3537.067	1289.4
3539.921	1430.4
3542.773	1526.4
3545.622	1585.4
3548.469	1532.4
3551.315	1377.4
3554.157	1213.4
3556.998	1000.4
3559.837	851.4
3562.673	710.4
3565.507	605.4
3568.339	515.4
3571.169	460.4
3573.996	440.4
3576.822	434.4
3579.645	558.4
3582.466	1162.4
3585.285	1787.4
3588.101	1766.4
3590.916	1198.4
3593.728	829.4
3596.538	802.4
3599.346	852.4
3602.152	945.4
3604.956	992.4
3607.757	1001.4
3610.556	959.4
3613.354	888.4
3616.149	801.4
3618.942	714.4
3621.732	639.4
3624.521	567.4
3627.307	496.4
3630.092	446.4
3632.874	399.4
3635.654	383.4
3638.432	366.4
3641.208	350.4
3643.982	383.4
3646.753	406.4
3649.523	447.4
3652.29	486.4
3655.055	513.4
3657.818	517.4
3660.579	505.4
3663.338	481.4
3666.095	438.4
3668.849	374.4
3671.602	311.4
3674.352	240.4
3677.101	191.4
3679.847	127.4
3682.591	84.4
3685.333	61.4
3688.073	42.4
3690.811	24.4
3693.547	10.4
3696.281	-4.6
3699.013	-3.6
3701.742	-13.6
3704.47	-12.6
3707.195	-15.6
3709.919	-8.6
3712.64	-11.6
3715.359	-22.6
3718.076	-16.6
3720.792	-18.6
3723.505	-23.6
3726.216	-42.6
3728.925	-37.6
3731.632	-51.6
3734.336	-54.6
3737.039	-58.6
3739.74	-57.6
3742.439	-65.6
3745.136	-69.6
3747.83	-73.6
3750.523	-72.6
3753.213	-76.6
3755.902	-79.6
3758.589	-80.6
3761.273	-71.6
3763.956	-80.6
3766.636	-73.6
3769.315	-70.6
3771.991	-65.6
3774.665	-66.6
3777.338	-53.6
3780.008	-47.6
3782.677	-42.6
3785.343	-41.6
3788.007	-44.6
3790.67	-47.6
3793.33	-56.6
3795.989	-55.6
3798.645	-69.6
3801.299	-65.6
3803.952	-76.6
3806.602	-84.6
3809.251	-84.6
3811.897	-80.6
3814.542	-80.6
3817.184	-83.6
3819.825	-80.6
3822.463	-80.6
3825.1	-83.6
3827.735	-77.6
3830.367	-82.6
3832.998	-88.6
3835.627	-88.6
3838.253	-91.6
3840.878	-93.6
3843.501	-87.6
3846.122	-85.6
3848.741	-90.6
3851.358	-86.6
3853.973	-95.6
3856.586	-91.6
3859.197	-92.6
3861.806	-101.6
3864.414	-93.6
3867.019	-91.6
3869.622	-95.6
3872.224	-103.6
3874.823	-88.6
3877.421	-86.6
3880.016	-83.6
3882.61	-77.6
3885.202	-67.6
3887.792	-74.6
3890.38	-85.6
3892.966	-88.6
3895.55	-93.6
3898.132	-100.6
3900.713	-99.6
3903.291	-94.6
3905.868	-95.6
3908.442	-99.6
3911.015	-103.6
3913.586	-97.6
3916.155	-100.6
3918.722	-105.6
3921.287	-105.6
3923.85	-109.6
3926.411	-107.6
3928.971	-115.6
3931.528	-103.6
3934.084	-105.6
3936.638	-100.6
3939.19	-103.6
3941.74	-100.6
3944.288	-107.6
3946.834	-98.6
3949.378	-100.6
3951.921	-98.6
3954.462	-104.6
3957	-101.6
3959.537	-108.6
3962.072	-106.6
3964.606	-110.6
3967.137	-108.6
3969.667	-114.6
3972.194	-101.6
3974.72	-110.6
3977.244	-100.6
3979.766	-104.6
3982.286	-103.6
3984.805	-103.6
3987.321	-105.6
3989.836	-108.6
3992.349	-103.6
3994.86	-104.6
3997.369	-110.6
3999.877	-106.6
4002.382	-100.6
4004.886	-101.6
4007.388	-95.6
4009.888	-105.6
4012.386	-98.6
4014.883	-104.6
4017.377	-100.6
4019.87	-99.6
4022.361	-101.6
4024.85	-107.6
4027.338	-109.6
4029.823	-107.6
4032.307	-108.6
4034.789	-102.6
4037.269	-104.6
4039.747	-110.6
4042.224	-111.6
4044.699	-108.6
4047.172	-112.6
4049.643	-109.6
4052.112	-113.6
4054.58	-110.6
4057.046	-113.6
4059.51	-104.6
4061.972	-102.6
4064.432	-100.6
4066.891	-99.6
4069.348	-94.6
4071.803	-78.6
4074.256	-0.6
4076.708	105.4
4079.158	120.4
4081.606	29.4
4084.052	-50.6
4086.497	-76.6
4088.939	-82.6
4091.38	-95.6
4093.819	-93.6
4096.257	-119.6
4098.693	-125.6
4101.127	-125.6
4103.559	-119.6
4105.989	-67.6
4108.418	-64.6
4110.845	-56.6
4113.27	-49.6
4115.694	-41.6
4118.115	-42.6
4120.535	-95.6
4122.954	-101.6
4125.37	-85.6
4127.785	-86.6
4130.198	-50.6
4132.609	1.4
4135.019	-120.6
4137.427	-118.6
4139.833	-117.6
4142.237	-114.6
