Data from 2018-2-14_conc=5_n=7_RamanShift_05.txt Node
Date: Wed Feb 14 14:26:25 IST 2018
User: aro
Spectrometer: QEPB0276
Trigger mode: 0
Integration Time (sec): 3.000000E1
Scans to average: 1
Electric dark correction enabled: true
Nonlinearity correction enabled: false
Boxcar width: 0
XAxis mode: Raman Shifts
Number of Pixels in Spectrum: 1044
>>>>>Begin Spectral Data<<<<<
160.701	-144.4
166.742	47.6
172.777	617.6
178.805	2317.6
184.826	6411.6
190.841	13546.6
196.849	21878.6
202.85	27754.6
208.845	29753.6
214.833	29398.6
220.815	28987.6
226.789	28721.6
232.758	28525.6
238.719	28305.6
244.674	28027.6
250.623	27526.6
256.565	27011.6
262.5	26392.6
268.429	25940.6
274.351	25539.6
280.267	25166.6
286.176	24931.6
292.079	24706.6
297.975	24430.6
303.865	24244.6
309.748	24094.6
315.625	23947.6
321.495	23847.6
327.359	23751.6
333.217	23785.6
339.068	23666.6
344.912	23624.6
350.751	23570.6
356.583	23596.6
362.408	23577.6
368.227	23518.6
374.04	23592.6
379.847	23584.6
385.647	23685.6
391.44	23804.6
397.228	23925.6
403.009	24019.6
408.784	24101.6
414.553	24131.6
420.315	24224.6
426.071	24173.6
431.821	24206.6
437.565	24161.6
443.302	24162.6
449.033	24166.6
454.758	24050.6
460.477	23966.6
466.189	24009.6
471.896	23851.6
477.596	23842.6
483.29	23813.6
488.978	23811.6
494.66	23676.6
500.335	23473.6
506.005	23346.6
511.668	22997.6
517.325	22691.6
522.977	22481.6
528.622	22376.6
534.261	22253.6
539.894	22141.6
545.521	22027.6
551.141	21939.6
556.756	21824.6
562.365	21862.6
567.968	21745.6
573.565	21636.6
579.155	21575.6
584.74	21432.6
590.319	21378.6
595.892	21272.6
601.459	21162.6
607.02	21116.6
612.575	20936.6
618.124	20928.6
623.667	20732.6
629.204	20664.6
634.735	20537.6
640.261	20444.6
645.781	20323.6
651.294	20424.6
656.802	20350.6
662.304	20297.6
667.8	20212.6
673.29	20280.6
678.775	20237.6
684.254	20124.6
689.726	20086.6
695.193	20003.6
700.655	19895.6
706.11	19741.6
711.56	19690.6
717.004	19608.6
722.442	19430.6
727.874	19407.6
733.301	19339.6
738.722	19310.6
744.137	19231.6
749.547	19246.6
754.951	19222.6
760.349	19320.6
765.741	19215.6
771.128	19302.6
776.509	19325.6
781.885	19353.6
787.254	19219.6
792.618	19181.6
797.977	19078.6
803.33	18888.6
808.677	18783.6
814.019	18695.6
819.355	18651.6
824.686	18518.6
830.011	18515.6
835.33	18499.6
840.644	18479.6
845.952	18531.6
851.255	18591.6
856.552	18570.6
861.844	18568.6
867.13	18491.6
872.41	18456.6
877.686	18329.6
882.955	18246.6
888.219	18056.6
893.478	17888.6
898.731	17650.6
903.979	17385.6
909.221	17369.6
914.458	17341.6
919.69	17260.6
924.916	17285.6
930.136	17394.6
935.351	17355.6
940.561	17369.6
945.766	17340.6
950.965	17249.6
956.158	17125.6
961.347	16951.6
966.529	16705.6
971.707	16526.6
976.879	16411.6
982.046	16192.6
987.208	16122.6
992.364	16172.6
997.515	16222.6
1002.66	16342.6
1007.801	16558.6
1012.936	16710.6
1018.066	16689.6
1023.19	16692.6
1028.309	16693.6
1033.423	16641.6
1038.532	16507.6
1043.636	16425.6
1048.734	16260.6
1053.827	15975.6
1058.915	15895.6
1063.998	15794.6
1069.075	15692.6
1074.147	15660.6
1079.214	15825.6
1084.276	15837.6
1089.333	15945.6
1094.385	16017.6
1099.431	16067.6
1104.472	16100.6
1109.509	15970.6
1114.54	15821.6
1119.565	15592.6
1124.586	15418.6
1129.602	15249.6
1134.613	15134.6
1139.618	15050.6
1144.619	14990.6
1149.614	14982.6
1154.604	15086.6
1159.589	15059.6
1164.57	15133.6
1169.545	15138.6
1174.515	15162.6
1179.48	15032.6
1184.44	14958.6
1189.395	14784.6
1194.345	14734.6
1199.29	14614.6
1204.23	14663.6
1209.165	14696.6
1214.095	14747.6
1219.021	14857.6
1223.941	14933.6
1228.856	15050.6
1233.766	15033.6
1238.672	15113.6
1243.572	15063.6
1248.467	14979.6
1253.358	14755.6
1258.244	14597.6
1263.124	14330.6
1268	14184.6
1272.871	13989.6
1277.737	13880.6
1282.599	13815.6
1287.455	13822.6
1292.306	13870.6
1297.153	13914.6
1301.995	13949.6
1306.832	14071.6
1311.664	13999.6
1316.491	13998.6
1321.314	13870.6
1326.132	13685.6
1330.945	13403.6
1335.753	13018.6
1340.556	12695.6
1345.354	12447.6
1350.148	12224.6
1354.937	12158.6
1359.722	12159.6
1364.501	12242.6
1369.276	12422.6
1374.046	12603.6
1378.811	12729.6
1383.572	12972.6
1388.327	12983.6
1393.079	12904.6
1397.825	12728.6
1402.567	12565.6
1407.304	12414.6
1412.036	12176.6
1416.764	12161.6
1421.487	12073.6
1426.205	11938.6
1430.919	11916.6
1435.628	11969.6
1440.333	11911.6
1445.032	11981.6
1449.727	12006.6
1454.418	11970.6
1459.104	11885.6
1463.785	11651.6
1468.462	11441.6
1473.134	11200.6
1477.802	10959.6
1482.465	10773.6
1487.123	10718.6
1491.777	10699.6
1496.426	10724.6
1501.071	10863.6
1505.711	11042.6
1510.347	11252.6
1514.978	11393.6
1519.604	11612.6
1524.226	11746.6
1528.844	11731.6
1533.457	11731.6
1538.065	11623.6
1542.669	11591.6
1547.269	11500.6
1551.864	11419.6
1556.454	11406.6
1561.041	11337.6
1565.622	11316.6
1570.199	11349.6
1574.772	11423.6
1579.34	11465.6
1583.904	11537.6
1588.464	11519.6
1593.019	11527.6
1597.569	11504.6
1602.115	11459.6
1606.657	11355.6
1611.195	11305.6
1615.728	11226.6
1620.256	11184.6
1624.78	11165.6
1629.3	11149.6
1633.816	11266.6
1638.327	11268.6
1642.834	11326.6
1647.336	11396.6
1651.834	11440.6
1656.328	11340.6
1660.817	11346.6
1665.302	11234.6
1669.783	11080.6
1674.259	10794.6
1678.732	10524.6
1683.199	10125.6
1687.663	9806.6
1692.122	9495.6
1696.577	9343.6
1701.028	9314.6
1705.474	9464.6
1709.917	9547.6
1714.355	9625.6
1718.788	9523.6
1723.218	9386.6
1727.643	9213.6
1732.064	8990.6
1736.481	8842.6
1740.893	8608.6
1745.301	8403.6
1749.705	8202.6
1754.105	7945.6
1758.501	7727.6
1762.893	7528.6
1767.28	7358.6
1771.663	7196.6
1776.042	7046.6
1780.417	7000.6
1784.787	6970.6
1789.154	7072.6
1793.516	7189.6
1797.874	7315.6
1802.228	7483.6
1806.578	7539.6
1810.924	7531.6
1815.266	7479.6
1819.603	7333.6
1823.937	7280.6
1828.266	7105.6
1832.591	7034.6
1836.913	6899.6
1841.23	6863.6
1845.543	6784.6
1849.852	6774.6
1854.156	6712.6
1858.457	6727.6
1862.754	6718.6
1867.047	6705.6
1871.335	6684.6
1875.62	6714.6
1879.9	6682.6
1884.177	6611.6
1888.449	6561.6
1892.718	6487.6
1896.982	6439.6
1901.243	6389.6
1905.499	6358.6
1909.752	6338.6
1914	6332.6
1918.245	6306.6
1922.485	6380.6
1926.722	6451.6
1930.954	6520.6
1935.183	6605.6
1939.408	6683.6
1943.628	6696.6
1947.845	6718.6
1952.058	6663.6
1956.267	6647.6
1960.472	6589.6
1964.673	6453.6
1968.87	6387.6
1973.063	6275.6
1977.252	6187.6
1981.438	6093.6
1985.619	6043.6
1989.797	6020.6
1993.971	5933.6
1998.14	5923.6
2002.306	5924.6
2006.469	5867.6
2010.627	5850.6
2014.781	5810.6
2018.932	5760.6
2023.078	5707.6
2027.221	5627.6
2031.36	5543.6
2035.495	5451.6
2039.627	5371.6
2043.754	5316.6
2047.878	5271.6
2051.998	5236.6
2056.114	5241.6
2060.226	5201.6
2064.334	5213.6
2068.439	5229.6
2072.54	5274.6
2076.637	5268.6
2080.73	5332.6
2084.82	5357.6
2088.906	5395.6
2092.988	5399.6
2097.066	5346.6
2101.14	5332.6
2105.211	5289.6
2109.278	5257.6
2113.342	5222.6
2117.401	5200.6
2121.457	5179.6
2125.509	5175.6
2129.558	5126.6
2133.602	5107.6
2137.643	5056.6
2141.681	5029.6
2145.714	5000.6
2149.744	4948.6
2153.77	4959.6
2157.793	4857.6
2161.812	4820.6
2165.827	4762.6
2169.838	4679.6
2173.846	4606.6
2177.851	4514.6
2181.851	4475.6
2185.848	4377.6
2189.841	4356.6
2193.831	4300.6
2197.817	4260.6
2201.799	4244.6
2205.778	4246.6
2209.753	4236.6
2213.725	4211.6
2217.693	4197.6
2221.657	4189.6
2225.618	4214.6
2229.575	4163.6
2233.529	4133.6
2237.479	4081.6
2241.425	4026.6
2245.368	3961.6
2249.307	3946.6
2253.243	3865.6
2257.175	3831.6
2261.104	3742.6
2265.029	3726.6
2268.95	3678.6
2272.868	3617.6
2276.783	3589.6
2280.694	3559.6
2284.601	3557.6
2288.505	3475.6
2292.405	3463.6
2296.302	3429.6
2300.195	3409.6
2304.085	3347.6
2307.971	3306.6
2311.854	3271.6
2315.734	3189.6
2319.609	3148.6
2323.482	3098.6
2327.351	3087.6
2331.216	3059.6
2335.078	3055.6
2338.937	3027.6
2342.792	2984.6
2346.643	2963.6
2350.492	2987.6
2354.336	2978.6
2358.178	2995.6
2362.015	3008.6
2365.85	2998.6
2369.681	2999.6
2373.508	3001.6
2377.333	3018.6
2381.153	2980.6
2384.971	2980.6
2388.785	2956.6
2392.595	2913.6
2396.402	2904.6
2400.206	2863.6
2404.007	2839.6
2407.804	2822.6
2411.597	2784.6
2415.388	2790.6
2419.174	2780.6
2422.958	2744.6
2426.738	2744.6
2430.515	2691.6
2434.289	2682.6
2438.059	2660.6
2441.825	2638.6
2445.589	2614.6
2449.349	2594.6
2453.106	2532.6
2456.859	2510.6
2460.61	2495.6
2464.356	2464.6
2468.1	2449.6
2471.84	2425.6
2475.577	2404.6
2479.311	2391.6
2483.041	2390.6
2486.768	2365.6
2490.492	2369.6
2494.213	2347.6
2497.93	2354.6
2501.644	2326.6
2505.355	2300.6
2509.062	2302.6
2512.766	2316.6
2516.467	2301.6
2520.165	2285.6
2523.859	2266.6
2527.551	2224.6
2531.239	2217.6
2534.923	2202.6
2538.605	2216.6
2542.283	2191.6
2545.958	2184.6
2549.63	2200.6
2553.299	2164.6
2556.964	2194.6
2560.626	2150.6
2564.285	2158.6
2567.941	2161.6
2571.594	2124.6
2575.243	2150.6
2578.89	2110.6
2582.533	2109.6
2586.173	2072.6
2589.809	2059.6
2593.443	2040.6
2597.073	2045.6
2600.701	2012.6
2604.325	2001.6
2607.946	1979.6
2611.564	1979.6
2615.178	1960.6
2618.79	1947.6
2622.398	1923.6
2626.004	1897.6
2629.606	1877.6
2633.205	1854.6
2636.801	1840.6
2640.394	1802.6
2643.983	1780.6
2647.57	1758.6
2651.153	1719.6
2654.734	1708.6
2658.311	1662.6
2661.885	1635.6
2665.456	1627.6
2669.025	1592.6
2672.589	1593.6
2676.151	1577.6
2679.71	1544.6
2683.266	1524.6
2686.819	1508.6
2690.368	1474.6
2693.915	1429.6
2697.458	1388.6
2700.999	1371.6
2704.536	1363.6
2708.071	1318.6
2711.602	1306.6
2715.13	1269.6
2718.656	1237.6
2722.178	1214.6
2725.697	1206.6
2729.214	1182.6
2732.727	1208.6
2736.237	1178.6
2739.744	1168.6
2743.249	1182.6
2746.75	1189.6
2750.248	1201.6
2753.743	1198.6
2757.236	1232.6
2760.725	1246.6
2764.211	1253.6
2767.695	1265.6
2771.175	1254.6
2774.652	1258.6
2778.127	1228.6
2781.598	1220.6
2785.067	1225.6
2788.532	1209.6
2791.995	1218.6
2795.455	1217.6
2798.911	1220.6
2802.365	1203.6
2805.816	1194.6
2809.264	1202.6
2812.709	1218.6
2816.151	1194.6
2819.59	1212.6
2823.026	1200.6
2826.46	1199.6
2829.89	1209.6
2833.318	1217.6
2836.742	1218.6
2840.164	1225.6
2843.583	1225.6
2846.999	1240.6
2850.412	1254.6
2853.822	1260.6
2857.229	1270.6
2860.634	1298.6
2864.035	1329.6
2867.434	1343.6
2870.83	1352.6
2874.223	1361.6
2877.613	1414.6
2881	1419.6
2884.385	1416.6
2887.766	1436.6
2891.145	1418.6
2894.521	1418.6
2897.894	1410.6
2901.264	1399.6
2904.631	1405.6
2907.996	1406.6
2911.358	1427.6
2914.717	1428.6
2918.073	1416.6
2921.426	1452.6
2924.777	1468.6
2928.124	1467.6
2931.469	1534.6
2934.811	1533.6
2938.15	1559.6
2941.487	1571.6
2944.821	1568.6
2948.152	1568.6
2951.48	1561.6
2954.805	1543.6
2958.128	1516.6
2961.447	1540.6
2964.765	1517.6
2968.079	1514.6
2971.39	1534.6
2974.699	1543.6
2978.005	1570.6
2981.308	1587.6
2984.609	1603.6
2987.907	1648.6
2991.202	1695.6
2994.494	1691.6
2997.784	1741.6
3001.07	1787.6
3004.355	1806.6
3007.636	1844.6
3010.915	1852.6
3014.191	1880.6
3017.464	1865.6
3020.734	1894.6
3024.002	1907.6
3027.267	1932.6
3030.53	1937.6
3033.789	1940.6
3037.046	1977.6
3040.301	1987.6
3043.552	2031.6
3046.801	2069.6
3050.048	2122.6
3053.291	2162.6
3056.532	2223.6
3059.771	2279.6
3063.006	2356.6
3066.239	2396.6
3069.469	2490.6
3072.697	2532.6
3075.922	2610.6
3079.144	2666.6
3082.364	2716.6
3085.581	2793.6
3088.795	2856.6
3092.007	2870.6
3095.216	2957.6
3098.423	3027.6
3101.627	3093.6
3104.828	3153.6
3108.026	3228.6
3111.222	3284.6
3114.416	3348.6
3117.607	3432.6
3120.795	3518.6
3123.98	3598.6
3127.163	3689.6
3130.344	3782.6
3133.521	3827.6
3136.696	3930.6
3139.869	4026.6
3143.039	4095.6
3146.206	4152.6
3149.371	4206.6
3152.533	4256.6
3155.693	4257.6
3158.85	4297.6
3162.005	4303.6
3165.157	4335.6
3168.306	4329.6
3171.453	4363.6
3174.597	4349.6
3177.739	4400.6
3180.878	4373.6
3184.014	4382.6
3187.149	4380.6
3190.28	4402.6
3193.409	4391.6
3196.536	4410.6
3199.659	4439.6
3202.781	4429.6
3205.9	4421.6
3209.016	4420.6
3212.13	4414.6
3215.241	4366.6
3218.35	4324.6
3221.456	4270.6
3224.56	4259.6
3227.661	4199.6
3230.76	4166.6
3233.856	4082.6
3236.95	4085.6
3240.041	4037.6
3243.13	3995.6
3246.216	4009.6
3249.3	3958.6
3252.382	3956.6
3255.46	3921.6
3258.537	3899.6
3261.611	3956.6
3264.682	3924.6
3267.751	3922.6
3270.818	3900.6
3273.882	3898.6
3276.943	3876.6
3280.002	3840.6
3283.059	3802.6
3286.113	3779.6
3289.165	3709.6
3292.214	3699.6
3295.261	3606.6
3298.306	3579.6
3301.348	3499.6
3304.387	3451.6
3307.425	3388.6
3310.459	3322.6
3313.492	3280.6
3316.521	3264.6
3319.549	3208.6
3322.574	3185.6
3325.597	3165.6
3328.617	3170.6
3331.635	3128.6
3334.65	3096.6
3337.663	3055.6
3340.674	3041.6
3343.682	3056.6
3346.688	3049.6
3349.691	3022.6
3352.692	3002.6
3355.691	2998.6
3358.687	2946.6
3361.681	2906.6
3364.673	2846.6
3367.662	2829.6
3370.649	2781.6
3373.633	2744.6
3376.615	2731.6
3379.595	2671.6
3382.572	2648.6
3385.547	2607.6
3388.52	2568.6
3391.49	2524.6
3394.458	2486.6
3397.424	2449.6
3400.387	2422.6
3403.348	2386.6
3406.307	2362.6
3409.263	2358.6
3412.217	2322.6
3415.168	2268.6
3418.118	2259.6
3421.065	2235.6
3424.009	2186.6
3426.951	2151.6
3429.891	2130.6
3432.829	2080.6
3435.764	2031.6
3438.697	1995.6
3441.628	1938.6
3444.557	1872.6
3447.483	1788.6
3450.407	1749.6
3453.328	1696.6
3456.247	1645.6
3459.164	1596.6
3462.079	1545.6
3464.991	1486.6
3467.902	1422.6
3470.809	1371.6
3473.715	1319.6
3476.618	1269.6
3479.519	1218.6
3482.418	1196.6
3485.315	1157.6
3488.209	1117.6
3491.101	1074.6
3493.99	1041.6
3496.878	988.6
3499.763	956.6
3502.646	913.6
3505.527	859.6
3508.405	835.6
3511.281	786.6
3514.155	750.6
3517.027	728.6
3519.897	664.6
3522.764	620.6
3525.629	576.6
3528.492	530.6
3531.352	496.6
3534.211	439.6
3537.067	420.6
3539.921	366.6
3542.773	323.6
3545.622	293.6
3548.469	261.6
3551.315	220.6
3554.157	194.6
3556.998	165.6
3559.837	141.6
3562.673	111.6
3565.507	94.6
3568.339	62.6
3571.169	48.6
3573.996	23.6
3576.822	11.6
3579.645	-15.4
3582.466	-41.4
3585.285	-61.4
3588.101	-84.4
3590.916	-114.4
3593.728	-133.4
3596.538	-141.4
3599.346	-170.4
3602.152	-195.4
3604.956	-199.4
3607.757	-222.4
3610.556	-239.4
3613.354	-246.4
3616.149	-271.4
3618.942	-292.4
3621.732	-304.4
3624.521	-306.4
3627.307	-327.4
3630.092	-334.4
3632.874	-345.4
3635.654	-363.4
3638.432	-353.4
3641.208	-369.4
3643.982	-381.4
3646.753	-394.4
3649.523	-392.4
3652.29	-410.4
3655.055	-410.4
3657.818	-428.4
3660.579	-447.4
3663.338	-458.4
3666.095	-468.4
3668.849	-478.4
3671.602	-484.4
3674.352	-486.4
3677.101	-494.4
3679.847	-515.4
3682.591	-514.4
3685.333	-523.4
3688.073	-531.4
3690.811	-539.4
3693.547	-545.4
3696.281	-539.4
3699.013	-546.4
3701.742	-558.4
3704.47	-562.4
3707.195	-569.4
3709.919	-568.4
3712.64	-573.4
3715.359	-579.4
3718.076	-583.4
3720.792	-581.4
3723.505	-588.4
3726.216	-594.4
3728.925	-589.4
3731.632	-596.4
3734.336	-605.4
3737.039	-611.4
3739.74	-602.4
3742.439	-610.4
3745.136	-610.4
3747.83	-615.4
3750.523	-613.4
3753.213	-623.4
3755.902	-622.4
3758.589	-625.4
3761.273	-625.4
3763.956	-629.4
3766.636	-630.4
3769.315	-630.4
3771.991	-635.4
3774.665	-644.4
3777.338	-638.4
3780.008	-641.4
3782.677	-642.4
3785.343	-635.4
3788.007	-643.4
3790.67	-644.4
3793.33	-646.4
3795.989	-644.4
3798.645	-644.4
3801.299	-647.4
3803.952	-657.4
3806.602	-657.4
3809.251	-658.4
3811.897	-653.4
3814.542	-653.4
3817.184	-659.4
3819.825	-653.4
3822.463	-654.4
3825.1	-662.4
3827.735	-659.4
3830.367	-652.4
3832.998	-665.4
3835.627	-669.4
3838.253	-667.4
3840.878	-668.4
3843.501	-667.4
3846.122	-664.4
3848.741	-663.4
3851.358	-666.4
3853.973	-663.4
3856.586	-671.4
3859.197	-670.4
3861.806	-669.4
3864.414	-668.4
3867.019	-665.4
3869.622	-670.4
3872.224	-659.4
3874.823	-645.4
3877.421	-639.4
3880.016	-613.4
3882.61	-588.4
3885.202	-589.4
3887.792	-602.4
3890.38	-638.4
3892.966	-655.4
3895.55	-667.4
3898.132	-685.4
3900.713	-687.4
3903.291	-682.4
3905.868	-681.4
3908.442	-687.4
3911.015	-681.4
3913.586	-679.4
3916.155	-674.4
3918.722	-690.4
3921.287	-684.4
3923.85	-690.4
3926.411	-686.4
3928.971	-693.4
3931.528	-686.4
3934.084	-687.4
3936.638	-683.4
3939.19	-683.4
3941.74	-684.4
3944.288	-692.4
3946.834	-680.4
3949.378	-687.4
3951.921	-685.4
3954.462	-690.4
3957	-682.4
3959.537	-685.4
3962.072	-684.4
3964.606	-687.4
3967.137	-683.4
3969.667	-691.4
3972.194	-678.4
3974.72	-685.4
3977.244	-674.4
3979.766	-672.4
3982.286	-676.4
3984.805	-674.4
3987.321	-671.4
3989.836	-669.4
3992.349	-667.4
3994.86	-667.4
3997.369	-676.4
3999.877	-666.4
4002.382	-669.4
4004.886	-667.4
4007.388	-667.4
4009.888	-666.4
4012.386	-672.4
4014.883	-668.4
4017.377	-669.4
4019.87	-670.4
4022.361	-667.4
4024.85	-675.4
4027.338	-678.4
4029.823	-678.4
4032.307	-674.4
4034.789	-670.4
4037.269	-668.4
4039.747	-669.4
4042.224	-673.4
4044.699	-671.4
4047.172	-675.4
4049.643	-664.4
4052.112	-681.4
4054.58	-677.4
4057.046	-671.4
4059.51	-678.4
4061.972	-676.4
4064.432	-679.4
4066.891	-673.4
4069.348	-667.4
4071.803	-665.4
4074.256	-671.4
4076.708	-671.4
4079.158	-676.4
4081.606	-674.4
4084.052	-683.4
4086.497	-676.4
4088.939	-670.4
4091.38	-671.4
4093.819	-674.4
4096.257	-709.4
4098.693	-712.4
4101.127	-714.4
4103.559	-709.4
4105.989	-411.4
4108.418	-384.4
4110.845	-356.4
4113.27	-332.4
4115.694	-298.4
4118.115	-247.4
4120.535	-673.4
4122.954	-669.4
4125.37	-662.4
4127.785	-675.4
4130.198	-671.4
4132.609	-669.4
4135.019	-709.4
4137.427	-709.4
4139.833	-711.4
4142.237	-708.4
