Data from 2018-2-14_conc=0_n=3_RamanShift_01.txt Node
Date: Wed Feb 14 10:32:26 IST 2018
User: aro
Spectrometer: QEPB0276
Trigger mode: 0
Integration Time (sec): 3.000000E1
Scans to average: 1
Electric dark correction enabled: true
Nonlinearity correction enabled: false
Boxcar width: 0
XAxis mode: Raman Shifts
Number of Pixels in Spectrum: 1044
>>>>>Begin Spectral Data<<<<<
160.701	-135.6
166.742	40.4
172.777	537.4
178.805	2099.4
184.826	5802.4
190.841	12103.4
196.849	19334.4
202.85	24307.4
208.845	25879.4
214.833	25583.4
220.815	25059.4
226.789	24872.4
232.758	24739.4
238.719	24461.4
244.674	24004.4
250.623	23619.4
256.565	23042.4
262.5	22529.4
268.429	22062.4
274.351	21712.4
280.267	21440.4
286.176	21127.4
292.079	20937.4
297.975	20647.4
303.865	20405.4
309.748	20242.4
315.625	20087.4
321.495	19980.4
327.359	19899.4
333.217	19867.4
339.068	19841.4
344.912	19806.4
350.751	19771.4
356.583	19740.4
362.408	19756.4
368.227	19763.4
374.04	19777.4
379.847	19810.4
385.647	19864.4
391.44	19913.4
397.228	20021.4
403.009	20137.4
408.784	20144.4
414.553	20251.4
420.315	20265.4
426.071	20350.4
431.821	20306.4
437.565	20280.4
443.302	20226.4
449.033	20262.4
454.758	20132.4
460.477	20115.4
466.189	20035.4
471.896	20003.4
477.596	19971.4
483.29	19934.4
488.978	19896.4
494.66	19813.4
500.335	19677.4
506.005	19463.4
511.668	19265.4
517.325	19001.4
522.977	18845.4
528.622	18703.4
534.261	18560.4
539.894	18504.4
545.521	18441.4
551.141	18370.4
556.756	18283.4
562.365	18204.4
567.968	18155.4
573.565	18081.4
579.155	18002.4
584.74	17949.4
590.319	17891.4
595.892	17739.4
601.459	17766.4
607.02	17671.4
612.575	17480.4
618.124	17449.4
623.667	17316.4
629.204	17222.4
634.735	17213.4
640.261	17123.4
645.781	17028.4
651.294	17028.4
656.802	16973.4
662.304	16917.4
667.8	16968.4
673.29	16942.4
678.775	16806.4
684.254	16819.4
689.726	16776.4
695.193	16756.4
700.655	16635.4
706.11	16568.4
711.56	16423.4
717.004	16425.4
722.442	16384.4
727.874	16313.4
733.301	16197.4
738.722	16138.4
744.137	16157.4
749.547	16156.4
754.951	16162.4
760.349	16182.4
765.741	16189.4
771.128	16178.4
776.509	16150.4
781.885	16185.4
787.254	16158.4
792.618	16100.4
797.977	15963.4
803.33	15933.4
808.677	15831.4
814.019	15715.4
819.355	15634.4
824.686	15565.4
830.011	15539.4
835.33	15504.4
840.644	15551.4
845.952	15571.4
851.255	15596.4
856.552	15640.4
861.844	15635.4
867.13	15548.4
872.41	15550.4
877.686	15381.4
882.955	15310.4
888.219	15152.4
893.478	15021.4
898.731	14810.4
903.979	14645.4
909.221	14554.4
914.458	14496.4
919.69	14550.4
924.916	14577.4
930.136	14594.4
935.351	14586.4
940.561	14625.4
945.766	14620.4
950.965	14510.4
956.158	14406.4
961.347	14257.4
966.529	14142.4
971.707	13867.4
976.879	13737.4
982.046	13651.4
987.208	13630.4
992.364	13599.4
997.515	13684.4
1002.66	13805.4
1007.801	13976.4
1012.936	14127.4
1018.066	14069.4
1023.19	14088.4
1028.309	14125.4
1033.423	14036.4
1038.532	13984.4
1043.636	13817.4
1048.734	13727.4
1053.827	13528.4
1058.915	13398.4
1063.998	13307.4
1069.075	13227.4
1074.147	13288.4
1079.214	13328.4
1084.276	13465.4
1089.333	13488.4
1094.385	13543.4
1099.431	13588.4
1104.472	13579.4
1109.509	13478.4
1114.54	13358.4
1119.565	13221.4
1124.586	13017.4
1129.602	12937.4
1134.613	12829.4
1139.618	12745.4
1144.619	12751.4
1149.614	12687.4
1154.604	12743.4
1159.589	12771.4
1164.57	12829.4
1169.545	12884.4
1174.515	12843.4
1179.48	12787.4
1184.44	12687.4
1189.395	12543.4
1194.345	12493.4
1199.29	12489.4
1204.23	12474.4
1209.165	12522.4
1214.095	12551.4
1219.021	12620.4
1223.941	12672.4
1228.856	12764.4
1233.766	12805.4
1238.672	12834.4
1243.572	12796.4
1248.467	12750.4
1253.358	12610.4
1258.244	12469.4
1263.124	12268.4
1268	12083.4
1272.871	11878.4
1277.737	11832.4
1282.599	11763.4
1287.455	11792.4
1292.306	11810.4
1297.153	11843.4
1301.995	11922.4
1306.832	11992.4
1311.664	11948.4
1316.491	11952.4
1321.314	11873.4
1326.132	11714.4
1330.945	11400.4
1335.753	11110.4
1340.556	10868.4
1345.354	10634.4
1350.148	10377.4
1354.937	10363.4
1359.722	10395.4
1364.501	10526.4
1369.276	10748.4
1374.046	10872.4
1378.811	11122.4
1383.572	11283.4
1388.327	11277.4
1393.079	11209.4
1397.825	11009.4
1402.567	10829.4
1407.304	10662.4
1412.036	10515.4
1416.764	10461.4
1421.487	10354.4
1426.205	10340.4
1430.919	10309.4
1435.628	10268.4
1440.333	10296.4
1445.032	10327.4
1449.727	10360.4
1454.418	10341.4
1459.104	10241.4
1463.785	10088.4
1468.462	9890.4
1473.134	9621.4
1477.802	9465.4
1482.465	9356.4
1487.123	9266.4
1491.777	9304.4
1496.426	9361.4
1501.071	9526.4
1505.711	9697.4
1510.347	9871.4
1514.978	10092.4
1519.604	10233.4
1524.226	10303.4
1528.844	10330.4
1533.457	10281.4
1538.065	10210.4
1542.669	10136.4
1547.269	10051.4
1551.864	10004.4
1556.454	9970.4
1561.041	9895.4
1565.622	9925.4
1570.199	9901.4
1574.772	9974.4
1579.34	10006.4
1583.904	10071.4
1588.464	10107.4
1593.019	10079.4
1597.569	10042.4
1602.115	10026.4
1606.657	9949.4
1611.195	9884.4
1615.728	9835.4
1620.256	9815.4
1624.78	9779.4
1629.3	9778.4
1633.816	9840.4
1638.327	9921.4
1642.834	9987.4
1647.336	9994.4
1651.834	10023.4
1656.328	10045.4
1660.817	10003.4
1665.302	9948.4
1669.783	9757.4
1674.259	9600.4
1678.732	9307.4
1683.199	8994.4
1687.663	8697.4
1692.122	8411.4
1696.577	8330.4
1701.028	8353.4
1705.474	8496.4
1709.917	8573.4
1714.355	8659.4
1718.788	8554.4
1723.218	8370.4
1727.643	8186.4
1732.064	8070.4
1736.481	7826.4
1740.893	7633.4
1745.301	7413.4
1749.705	7284.4
1754.105	7074.4
1758.501	6863.4
1762.893	6663.4
1767.28	6513.4
1771.663	6390.4
1776.042	6295.4
1780.417	6249.4
1784.787	6256.4
1789.154	6328.4
1793.516	6483.4
1797.874	6647.4
1802.228	6795.4
1806.578	6830.4
1810.924	6837.4
1815.266	6802.4
1819.603	6608.4
1823.937	6542.4
1828.266	6417.4
1832.591	6298.4
1836.913	6205.4
1841.23	6136.4
1845.543	6079.4
1849.852	6085.4
1854.156	6037.4
1858.457	6043.4
1862.754	6044.4
1867.047	6035.4
1871.335	6052.4
1875.62	6035.4
1879.9	5994.4
1884.177	5983.4
1888.449	5927.4
1892.718	5901.4
1896.982	5844.4
1901.243	5814.4
1905.499	5759.4
1909.752	5753.4
1914	5740.4
1918.245	5787.4
1922.485	5841.4
1926.722	5887.4
1930.954	6006.4
1935.183	6070.4
1939.408	6123.4
1943.628	6161.4
1947.845	6168.4
1952.058	6169.4
1956.267	6069.4
1960.472	6030.4
1964.673	5916.4
1968.87	5823.4
1973.063	5704.4
1977.252	5617.4
1981.438	5584.4
1985.619	5539.4
1989.797	5466.4
1993.971	5469.4
1998.14	5450.4
2002.306	5421.4
2006.469	5415.4
2010.627	5373.4
2014.781	5351.4
2018.932	5298.4
2023.078	5257.4
2027.221	5150.4
2031.36	5110.4
2035.495	5030.4
2039.627	4960.4
2043.754	4917.4
2047.878	4863.4
2051.998	4842.4
2056.114	4806.4
2060.226	4841.4
2064.334	4851.4
2068.439	4846.4
2072.54	4899.4
2076.637	4954.4
2080.73	4936.4
2084.82	5003.4
2088.906	5002.4
2092.988	5043.4
2097.066	4974.4
2101.14	4995.4
2105.211	4958.4
2109.278	4898.4
2113.342	4909.4
2117.401	4860.4
2121.457	4818.4
2125.509	4833.4
2129.558	4792.4
2133.602	4777.4
2137.643	4743.4
2141.681	4695.4
2145.714	4691.4
2149.744	4620.4
2153.77	4618.4
2157.793	4614.4
2161.812	4520.4
2165.827	4457.4
2169.838	4379.4
2173.846	4311.4
2177.851	4259.4
2181.851	4203.4
2185.848	4144.4
2189.841	4109.4
2193.831	4062.4
2197.817	4031.4
2201.799	3987.4
2205.778	3976.4
2209.753	3979.4
2213.725	3969.4
2217.693	3922.4
2221.657	3939.4
2225.618	3916.4
2229.575	3935.4
2233.529	3892.4
2237.479	3855.4
2241.425	3831.4
2245.368	3783.4
2249.307	3716.4
2253.243	3652.4
2257.175	3634.4
2261.104	3555.4
2265.029	3532.4
2268.95	3506.4
2272.868	3455.4
2276.783	3426.4
2280.694	3369.4
2284.601	3364.4
2288.505	3368.4
2292.405	3351.4
2296.302	3267.4
2300.195	3207.4
2304.085	3188.4
2307.971	3146.4
2311.854	3102.4
2315.734	3060.4
2319.609	3009.4
2323.482	2966.4
2327.351	2954.4
2331.216	2945.4
2335.078	2930.4
2338.937	2915.4
2342.792	2875.4
2346.643	2846.4
2350.492	2855.4
2354.336	2854.4
2358.178	2858.4
2362.015	2858.4
2365.85	2875.4
2369.681	2862.4
2373.508	2854.4
2377.333	2840.4
2381.153	2829.4
2384.971	2810.4
2388.785	2796.4
2392.595	2787.4
2396.402	2762.4
2400.206	2715.4
2404.007	2702.4
2407.804	2691.4
2411.597	2707.4
2415.388	2653.4
2419.174	2629.4
2422.958	2615.4
2426.738	2603.4
2430.515	2620.4
2434.289	2562.4
2438.059	2528.4
2441.825	2513.4
2445.589	2511.4
2449.349	2460.4
2453.106	2484.4
2456.859	2430.4
2460.61	2397.4
2464.356	2373.4
2468.1	2335.4
2471.84	2334.4
2475.577	2311.4
2479.311	2264.4
2483.041	2288.4
2486.768	2280.4
2490.492	2271.4
2494.213	2285.4
2497.93	2241.4
2501.644	2253.4
2505.355	2251.4
2509.062	2228.4
2512.766	2216.4
2516.467	2216.4
2520.165	2213.4
2523.859	2186.4
2527.551	2164.4
2531.239	2168.4
2534.923	2170.4
2538.605	2146.4
2542.283	2144.4
2545.958	2135.4
2549.63	2142.4
2553.299	2139.4
2556.964	2147.4
2560.626	2119.4
2564.285	2128.4
2567.941	2107.4
2571.594	2092.4
2575.243	2076.4
2578.89	2040.4
2582.533	2046.4
2586.173	2036.4
2589.809	2028.4
2593.443	1979.4
2597.073	1984.4
2600.701	1959.4
2604.325	1982.4
2607.946	1919.4
2611.564	1909.4
2615.178	1905.4
2618.79	1895.4
2622.398	1885.4
2626.004	1865.4
2629.606	1870.4
2633.205	1830.4
2636.801	1774.4
2640.394	1775.4
2643.983	1739.4
2647.57	1708.4
2651.153	1692.4
2654.734	1651.4
2658.311	1663.4
2661.885	1628.4
2665.456	1605.4
2669.025	1588.4
2672.589	1553.4
2676.151	1542.4
2679.71	1547.4
2683.266	1520.4
2686.819	1475.4
2690.368	1442.4
2693.915	1427.4
2697.458	1391.4
2700.999	1357.4
2704.536	1350.4
2708.071	1320.4
2711.602	1297.4
2715.13	1256.4
2718.656	1246.4
2722.178	1243.4
2725.697	1219.4
2729.214	1186.4
2732.727	1182.4
2736.237	1178.4
2739.744	1171.4
2743.249	1197.4
2746.75	1198.4
2750.248	1214.4
2753.743	1242.4
2757.236	1273.4
2760.725	1271.4
2764.211	1264.4
2767.695	1283.4
2771.175	1268.4
2774.652	1238.4
2778.127	1251.4
2781.598	1249.4
2785.067	1233.4
2788.532	1222.4
2791.995	1215.4
2795.455	1247.4
2798.911	1209.4
2802.365	1233.4
2805.816	1224.4
2809.264	1213.4
2812.709	1230.4
2816.151	1222.4
2819.59	1221.4
2823.026	1215.4
2826.46	1216.4
2829.89	1212.4
2833.318	1215.4
2836.742	1220.4
2840.164	1223.4
2843.583	1223.4
2846.999	1249.4
2850.412	1265.4
2853.822	1261.4
2857.229	1279.4
2860.634	1294.4
2864.035	1320.4
2867.434	1325.4
2870.83	1353.4
2874.223	1373.4
2877.613	1411.4
2881	1413.4
2884.385	1413.4
2887.766	1404.4
2891.145	1400.4
2894.521	1406.4
2897.894	1396.4
2901.264	1406.4
2904.631	1398.4
2907.996	1411.4
2911.358	1414.4
2914.717	1417.4
2918.073	1425.4
2921.426	1439.4
2924.777	1455.4
2928.124	1461.4
2931.469	1489.4
2934.811	1524.4
2938.15	1528.4
2941.487	1505.4
2944.821	1548.4
2948.152	1522.4
2951.48	1539.4
2954.805	1526.4
2958.128	1501.4
2961.447	1489.4
2964.765	1508.4
2968.079	1497.4
2971.39	1504.4
2974.699	1512.4
2978.005	1548.4
2981.308	1568.4
2984.609	1600.4
2987.907	1629.4
2991.202	1647.4
2994.494	1686.4
2997.784	1712.4
3001.07	1756.4
3004.355	1771.4
3007.636	1803.4
3010.915	1811.4
3014.191	1825.4
3017.464	1831.4
3020.734	1862.4
3024.002	1844.4
3027.267	1883.4
3030.53	1877.4
3033.789	1916.4
3037.046	1918.4
3040.301	1926.4
3043.552	1974.4
3046.801	2033.4
3050.048	2066.4
3053.291	2108.4
3056.532	2153.4
3059.771	2212.4
3063.006	2270.4
3066.239	2342.4
3069.469	2399.4
3072.697	2481.4
3075.922	2518.4
3079.144	2592.4
3082.364	2626.4
3085.581	2686.4
3088.795	2736.4
3092.007	2786.4
3095.216	2838.4
3098.423	2892.4
3101.627	2979.4
3104.828	3038.4
3108.026	3121.4
3111.222	3150.4
3114.416	3242.4
3117.607	3315.4
3120.795	3364.4
3123.98	3443.4
3127.163	3531.4
3130.344	3617.4
3133.521	3667.4
3136.696	3793.4
3139.869	3848.4
3143.039	3918.4
3146.206	3944.4
3149.371	4008.4
3152.533	4051.4
3155.693	4093.4
3158.85	4106.4
3162.005	4117.4
3165.157	4108.4
3168.306	4114.4
3171.453	4125.4
3174.597	4135.4
3177.739	4151.4
3180.878	4144.4
3184.014	4165.4
3187.149	4147.4
3190.28	4164.4
3193.409	4166.4
3196.536	4172.4
3199.659	4185.4
3202.781	4213.4
3205.9	4176.4
3209.016	4201.4
3212.13	4179.4
3215.241	4141.4
3218.35	4083.4
3221.456	4040.4
3224.56	4024.4
3227.661	3946.4
3230.76	3940.4
3233.856	3898.4
3236.95	3842.4
3240.041	3832.4
3243.13	3799.4
3246.216	3793.4
3249.3	3758.4
3252.382	3733.4
3255.46	3737.4
3258.537	3729.4
3261.611	3727.4
3264.682	3723.4
3267.751	3720.4
3270.818	3695.4
3273.882	3705.4
3276.943	3677.4
3280.002	3659.4
3283.059	3606.4
3286.113	3570.4
3289.165	3511.4
3292.214	3457.4
3295.261	3430.4
3298.306	3364.4
3301.348	3297.4
3304.387	3250.4
3307.425	3195.4
3310.459	3169.4
3313.492	3118.4
3316.521	3058.4
3319.549	3021.4
3322.574	3008.4
3325.597	2969.4
3328.617	2934.4
3331.635	2943.4
3334.65	2919.4
3337.663	2878.4
3340.674	2871.4
3343.682	2868.4
3346.688	2845.4
3349.691	2843.4
3352.692	2830.4
3355.691	2806.4
3358.687	2781.4
3361.681	2754.4
3364.673	2715.4
3367.662	2677.4
3370.649	2619.4
3373.633	2615.4
3376.615	2570.4
3379.595	2503.4
3382.572	2475.4
3385.547	2455.4
3388.52	2414.4
3391.49	2392.4
3394.458	2341.4
3397.424	2312.4
3400.387	2282.4
3403.348	2243.4
3406.307	2231.4
3409.263	2216.4
3412.217	2186.4
3415.168	2148.4
3418.118	2141.4
3421.065	2089.4
3424.009	2060.4
3426.951	2049.4
3429.891	2006.4
3432.829	1941.4
3435.764	1907.4
3438.697	1888.4
3441.628	1812.4
3444.557	1773.4
3447.483	1718.4
3450.407	1668.4
3453.328	1625.4
3456.247	1547.4
3459.164	1502.4
3462.079	1468.4
3464.991	1383.4
3467.902	1356.4
3470.809	1322.4
3473.715	1254.4
3476.618	1208.4
3479.519	1177.4
3482.418	1142.4
3485.315	1105.4
3488.209	1051.4
3491.101	1026.4
3493.99	986.4
3496.878	976.4
3499.763	938.4
3502.646	890.4
3505.527	850.4
3508.405	802.4
3511.281	767.4
3514.155	738.4
3517.027	690.4
3519.897	640.4
3522.764	597.4
3525.629	576.4
3528.492	523.4
3531.352	471.4
3534.211	443.4
3537.067	403.4
3539.921	377.4
3542.773	337.4
3545.622	304.4
3548.469	263.4
3551.315	241.4
3554.157	226.4
3556.998	184.4
3559.837	157.4
3562.673	137.4
3565.507	116.4
3568.339	100.4
3571.169	75.4
3573.996	63.4
3576.822	32.4
3579.645	7.4
3582.466	-6.6
3585.285	-31.6
3588.101	-56.6
3590.916	-71.6
3593.728	-91.6
3596.538	-105.6
3599.346	-123.6
3602.152	-140.6
3604.956	-163.6
3607.757	-191.6
3610.556	-195.6
3613.354	-204.6
3616.149	-225.6
3618.942	-228.6
3621.732	-239.6
3624.521	-261.6
3627.307	-266.6
3630.092	-274.6
3632.874	-289.6
3635.654	-300.6
3638.432	-306.6
3641.208	-311.6
3643.982	-330.6
3646.753	-330.6
3649.523	-340.6
3652.29	-352.6
3655.055	-354.6
3657.818	-369.6
3660.579	-378.6
3663.338	-395.6
3666.095	-404.6
3668.849	-411.6
3671.602	-420.6
3674.352	-431.6
3677.101	-430.6
3679.847	-443.6
3682.591	-445.6
3685.333	-452.6
3688.073	-466.6
3690.811	-462.6
3693.547	-470.6
3696.281	-476.6
3699.013	-475.6
3701.742	-481.6
3704.47	-491.6
3707.195	-504.6
3709.919	-502.6
3712.64	-507.6
3715.359	-504.6
3718.076	-512.6
3720.792	-508.6
3723.505	-514.6
3726.216	-526.6
3728.925	-520.6
3731.632	-525.6
3734.336	-524.6
3737.039	-535.6
3739.74	-533.6
3742.439	-534.6
3745.136	-543.6
3747.83	-548.6
3750.523	-547.6
3753.213	-533.6
3755.902	-548.6
3758.589	-550.6
3761.273	-549.6
3763.956	-557.6
3766.636	-558.6
3769.315	-552.6
3771.991	-557.6
3774.665	-568.6
3777.338	-560.6
3780.008	-566.6
3782.677	-563.6
3785.343	-561.6
3788.007	-574.6
3790.67	-564.6
3793.33	-566.6
3795.989	-576.6
3798.645	-571.6
3801.299	-574.6
3803.952	-580.6
3806.602	-579.6
3809.251	-582.6
3811.897	-576.6
3814.542	-581.6
3817.184	-580.6
3819.825	-579.6
3822.463	-573.6
3825.1	-585.6
3827.735	-578.6
3830.367	-581.6
3832.998	-583.6
3835.627	-587.6
3838.253	-583.6
3840.878	-594.6
3843.501	-589.6
3846.122	-588.6
3848.741	-591.6
3851.358	-590.6
3853.973	-595.6
3856.586	-592.6
3859.197	-594.6
3861.806	-598.6
3864.414	-590.6
3867.019	-592.6
3869.622	-594.6
3872.224	-587.6
3874.823	-572.6
3877.421	-560.6
3880.016	-544.6
3882.61	-535.6
3885.202	-530.6
3887.792	-543.6
3890.38	-571.6
3892.966	-586.6
3895.55	-591.6
3898.132	-609.6
3900.713	-602.6
3903.291	-604.6
3905.868	-604.6
3908.442	-608.6
3911.015	-605.6
3913.586	-603.6
3916.155	-604.6
3918.722	-612.6
3921.287	-609.6
3923.85	-612.6
3926.411	-609.6
3928.971	-616.6
3931.528	-613.6
3934.084	-607.6
3936.638	-605.6
3939.19	-609.6
3941.74	-607.6
3944.288	-614.6
3946.834	-603.6
3949.378	-609.6
3951.921	-605.6
3954.462	-617.6
3957	-608.6
3959.537	-611.6
3962.072	-605.6
3964.606	-607.6
3967.137	-613.6
3969.667	-611.6
3972.194	-602.6
3974.72	-604.6
3977.244	-599.6
3979.766	-602.6
3982.286	-603.6
3984.805	-598.6
3987.321	-598.6
3989.836	-602.6
3992.349	-594.6
3994.86	-594.6
3997.369	-605.6
3999.877	-600.6
4002.382	-599.6
4004.886	-599.6
4007.388	-596.6
4009.888	-595.6
4012.386	-598.6
4014.883	-596.6
4017.377	-595.6
4019.87	-595.6
4022.361	-594.6
4024.85	-595.6
4027.338	-597.6
4029.823	-600.6
4032.307	-598.6
4034.789	-596.6
4037.269	-595.6
4039.747	-598.6
4042.224	-605.6
4044.699	-600.6
4047.172	-599.6
4049.643	-595.6
4052.112	-599.6
4054.58	-603.6
4057.046	-599.6
4059.51	-599.6
4061.972	-599.6
4064.432	-603.6
4066.891	-601.6
4069.348	-596.6
4071.803	-597.6
4074.256	-597.6
4076.708	-600.6
4079.158	-605.6
4081.606	-606.6
4084.052	-608.6
4086.497	-601.6
4088.939	-596.6
4091.38	-596.6
4093.819	-594.6
4096.257	-629.6
4098.693	-628.6
4101.127	-632.6
4103.559	-630.6
4105.989	-364.6
4108.418	-343.6
4110.845	-320.6
4113.27	-297.6
4115.694	-258.6
4118.115	-227.6
4120.535	-596.6
4122.954	-597.6
4125.37	-593.6
4127.785	-607.6
4130.198	-601.6
4132.609	-601.6
4135.019	-638.6
4137.427	-636.6
4139.833	-634.6
4142.237	-631.6
