Data from 2018-2-14_conc=0_n=6_RamanShift_02.txt Node
Date: Wed Feb 14 10:43:26 IST 2018
User: aro
Spectrometer: QEPB0276
Trigger mode: 0
Integration Time (sec): 3.000000E1
Scans to average: 1
Electric dark correction enabled: true
Nonlinearity correction enabled: false
Boxcar width: 0
XAxis mode: Raman Shifts
Number of Pixels in Spectrum: 1044
>>>>>Begin Spectral Data<<<<<
160.701	-130.5
166.742	38.5
172.777	558.5
178.805	2132.5
184.826	5912.5
190.841	12379.5
196.849	19842.5
202.85	25112.5
208.845	26776.5
214.833	26512.5
220.815	26002.5
226.789	25868.5
232.758	25734.5
238.719	25570.5
244.674	25214.5
250.623	24891.5
256.565	24311.5
262.5	23774.5
268.429	23373.5
274.351	22984.5
280.267	22731.5
286.176	22481.5
292.079	22257.5
297.975	22020.5
303.865	21866.5
309.748	21750.5
315.625	21575.5
321.495	21508.5
327.359	21370.5
333.217	21319.5
339.068	21268.5
344.912	21266.5
350.751	21236.5
356.583	21239.5
362.408	21257.5
368.227	21199.5
374.04	21200.5
379.847	21281.5
385.647	21315.5
391.44	21371.5
397.228	21566.5
403.009	21583.5
408.784	21668.5
414.553	21727.5
420.315	21784.5
426.071	21801.5
431.821	21768.5
437.565	21753.5
443.302	21715.5
449.033	21733.5
454.758	21644.5
460.477	21625.5
466.189	21586.5
471.896	21523.5
477.596	21454.5
483.29	21423.5
488.978	21415.5
494.66	21339.5
500.335	21206.5
506.005	20996.5
511.668	20700.5
517.325	20552.5
522.977	20363.5
528.622	20242.5
534.261	20090.5
539.894	19985.5
545.521	19910.5
551.141	19869.5
556.756	19775.5
562.365	19692.5
567.968	19652.5
573.565	19553.5
579.155	19456.5
584.74	19425.5
590.319	19332.5
595.892	19244.5
601.459	19206.5
607.02	19039.5
612.575	18965.5
618.124	18836.5
623.667	18784.5
629.204	18615.5
634.735	18614.5
640.261	18502.5
645.781	18431.5
651.294	18467.5
656.802	18437.5
662.304	18395.5
667.8	18364.5
673.29	18323.5
678.775	18235.5
684.254	18137.5
689.726	18137.5
695.193	18089.5
700.655	18025.5
706.11	17972.5
711.56	17825.5
717.004	17717.5
722.442	17605.5
727.874	17549.5
733.301	17550.5
738.722	17490.5
744.137	17446.5
749.547	17413.5
754.951	17444.5
760.349	17474.5
765.741	17438.5
771.128	17422.5
776.509	17463.5
781.885	17494.5
787.254	17374.5
792.618	17308.5
797.977	17294.5
803.33	17139.5
808.677	17022.5
814.019	16921.5
819.355	16846.5
824.686	16803.5
830.011	16694.5
835.33	16712.5
840.644	16752.5
845.952	16702.5
851.255	16828.5
856.552	16812.5
861.844	16780.5
867.13	16768.5
872.41	16701.5
877.686	16568.5
882.955	16478.5
888.219	16327.5
893.478	16196.5
898.731	15976.5
903.979	15784.5
909.221	15702.5
914.458	15689.5
919.69	15641.5
924.916	15678.5
930.136	15731.5
935.351	15754.5
940.561	15720.5
945.766	15684.5
950.965	15606.5
956.158	15502.5
961.347	15368.5
966.529	15177.5
971.707	14991.5
976.879	14794.5
982.046	14659.5
987.208	14623.5
992.364	14611.5
997.515	14735.5
1002.66	14848.5
1007.801	15027.5
1012.936	15109.5
1018.066	15091.5
1023.19	15137.5
1028.309	15135.5
1033.423	15075.5
1038.532	15008.5
1043.636	14856.5
1048.734	14718.5
1053.827	14514.5
1058.915	14365.5
1063.998	14261.5
1069.075	14227.5
1074.147	14253.5
1079.214	14264.5
1084.276	14352.5
1089.333	14453.5
1094.385	14478.5
1099.431	14556.5
1104.472	14529.5
1109.509	14497.5
1114.54	14306.5
1119.565	14102.5
1124.586	13971.5
1129.602	13789.5
1134.613	13703.5
1139.618	13612.5
1144.619	13562.5
1149.614	13605.5
1154.604	13633.5
1159.589	13645.5
1164.57	13662.5
1169.545	13710.5
1174.515	13678.5
1179.48	13588.5
1184.44	13518.5
1189.395	13445.5
1194.345	13296.5
1199.29	13206.5
1204.23	13247.5
1209.165	13324.5
1214.095	13408.5
1219.021	13486.5
1223.941	13546.5
1228.856	13593.5
1233.766	13623.5
1238.672	13621.5
1243.572	13613.5
1248.467	13578.5
1253.358	13349.5
1258.244	13201.5
1263.124	13010.5
1268	12827.5
1272.871	12684.5
1277.737	12564.5
1282.599	12484.5
1287.455	12482.5
1292.306	12555.5
1297.153	12585.5
1301.995	12607.5
1306.832	12699.5
1311.664	12718.5
1316.491	12643.5
1321.314	12503.5
1326.132	12334.5
1330.945	12117.5
1335.753	11761.5
1340.556	11409.5
1345.354	11244.5
1350.148	11055.5
1354.937	10984.5
1359.722	10988.5
1364.501	11076.5
1369.276	11220.5
1374.046	11321.5
1378.811	11507.5
1383.572	11641.5
1388.327	11681.5
1393.079	11640.5
1397.825	11485.5
1402.567	11302.5
1407.304	11137.5
1412.036	11068.5
1416.764	10934.5
1421.487	10893.5
1426.205	10788.5
1430.919	10791.5
1435.628	10809.5
1440.333	10803.5
1445.032	10799.5
1449.727	10877.5
1454.418	10820.5
1459.104	10703.5
1463.785	10492.5
1468.462	10263.5
1473.134	10085.5
1477.802	9890.5
1482.465	9728.5
1487.123	9606.5
1491.777	9638.5
1496.426	9669.5
1501.071	9784.5
1505.711	9943.5
1510.347	10141.5
1514.978	10356.5
1519.604	10477.5
1524.226	10534.5
1528.844	10588.5
1533.457	10552.5
1538.065	10530.5
1542.669	10472.5
1547.269	10303.5
1551.864	10286.5
1556.454	10222.5
1561.041	10190.5
1565.622	10166.5
1570.199	10159.5
1574.772	10237.5
1579.34	10349.5
1583.904	10412.5
1588.464	10348.5
1593.019	10409.5
1597.569	10366.5
1602.115	10266.5
1606.657	10184.5
1611.195	10165.5
1615.728	10083.5
1620.256	10074.5
1624.78	10005.5
1629.3	10057.5
1633.816	10095.5
1638.327	10156.5
1642.834	10157.5
1647.336	10221.5
1651.834	10265.5
1656.328	10215.5
1660.817	10213.5
1665.302	10106.5
1669.783	9901.5
1674.259	9725.5
1678.732	9419.5
1683.199	9148.5
1687.663	8855.5
1692.122	8550.5
1696.577	8468.5
1701.028	8436.5
1705.474	8538.5
1709.917	8627.5
1714.355	8657.5
1718.788	8578.5
1723.218	8444.5
1727.643	8293.5
1732.064	8122.5
1736.481	7937.5
1740.893	7723.5
1745.301	7594.5
1749.705	7377.5
1754.105	7115.5
1758.501	6908.5
1762.893	6745.5
1767.28	6562.5
1771.663	6436.5
1776.042	6343.5
1780.417	6296.5
1784.787	6316.5
1789.154	6391.5
1793.516	6519.5
1797.874	6650.5
1802.228	6779.5
1806.578	6860.5
1810.924	6830.5
1815.266	6808.5
1819.603	6663.5
1823.937	6553.5
1828.266	6434.5
1832.591	6329.5
1836.913	6242.5
1841.23	6185.5
1845.543	6123.5
1849.852	6077.5
1854.156	6078.5
1858.457	6046.5
1862.754	6056.5
1867.047	6032.5
1871.335	6037.5
1875.62	5986.5
1879.9	6012.5
1884.177	5938.5
1888.449	5927.5
1892.718	5865.5
1896.982	5805.5
1901.243	5738.5
1905.499	5704.5
1909.752	5691.5
1914	5702.5
1918.245	5719.5
1922.485	5786.5
1926.722	5825.5
1930.954	5899.5
1935.183	6011.5
1939.408	6049.5
1943.628	6068.5
1947.845	6119.5
1952.058	6077.5
1956.267	6037.5
1960.472	5976.5
1964.673	5828.5
1968.87	5746.5
1973.063	5649.5
1977.252	5578.5
1981.438	5503.5
1985.619	5466.5
1989.797	5411.5
1993.971	5384.5
1998.14	5356.5
2002.306	5325.5
2006.469	5319.5
2010.627	5289.5
2014.781	5250.5
2018.932	5188.5
2023.078	5174.5
2027.221	5094.5
2031.36	5010.5
2035.495	4934.5
2039.627	4836.5
2043.754	4820.5
2047.878	4775.5
2051.998	4709.5
2056.114	4728.5
2060.226	4718.5
2064.334	4708.5
2068.439	4728.5
2072.54	4762.5
2076.637	4806.5
2080.73	4824.5
2084.82	4875.5
2088.906	4900.5
2092.988	4878.5
2097.066	4882.5
2101.14	4848.5
2105.211	4803.5
2109.278	4779.5
2113.342	4729.5
2117.401	4745.5
2121.457	4662.5
2125.509	4661.5
2129.558	4633.5
2133.602	4599.5
2137.643	4592.5
2141.681	4555.5
2145.714	4573.5
2149.744	4484.5
2153.77	4470.5
2157.793	4415.5
2161.812	4374.5
2165.827	4312.5
2169.838	4226.5
2173.846	4170.5
2177.851	4109.5
2181.851	4027.5
2185.848	4010.5
2189.841	3953.5
2193.831	3883.5
2197.817	3870.5
2201.799	3861.5
2205.778	3806.5
2209.753	3817.5
2213.725	3801.5
2217.693	3776.5
2221.657	3760.5
2225.618	3771.5
2229.575	3737.5
2233.529	3708.5
2237.479	3698.5
2241.425	3636.5
2245.368	3599.5
2249.307	3530.5
2253.243	3481.5
2257.175	3435.5
2261.104	3382.5
2265.029	3352.5
2268.95	3324.5
2272.868	3283.5
2276.783	3258.5
2280.694	3211.5
2284.601	3189.5
2288.505	3159.5
2292.405	3118.5
2296.302	3087.5
2300.195	3067.5
2304.085	3020.5
2307.971	2974.5
2311.854	2928.5
2315.734	2890.5
2319.609	2840.5
2323.482	2797.5
2327.351	2774.5
2331.216	2776.5
2335.078	2767.5
2338.937	2697.5
2342.792	2698.5
2346.643	2692.5
2350.492	2692.5
2354.336	2680.5
2358.178	2682.5
2362.015	2691.5
2365.85	2705.5
2369.681	2723.5
2373.508	2724.5
2377.333	2698.5
2381.153	2680.5
2384.971	2688.5
2388.785	2658.5
2392.595	2620.5
2396.402	2605.5
2400.206	2591.5
2404.007	2545.5
2407.804	2567.5
2411.597	2540.5
2415.388	2504.5
2419.174	2505.5
2422.958	2481.5
2426.738	2464.5
2430.515	2424.5
2434.289	2422.5
2438.059	2415.5
2441.825	2383.5
2445.589	2370.5
2449.349	2342.5
2453.106	2312.5
2456.859	2273.5
2460.61	2257.5
2464.356	2244.5
2468.1	2191.5
2471.84	2160.5
2475.577	2162.5
2479.311	2155.5
2483.041	2126.5
2486.768	2122.5
2490.492	2115.5
2494.213	2098.5
2497.93	2103.5
2501.644	2085.5
2505.355	2080.5
2509.062	2069.5
2512.766	2049.5
2516.467	2071.5
2520.165	2047.5
2523.859	2018.5
2527.551	2017.5
2531.239	2001.5
2534.923	1984.5
2538.605	1986.5
2542.283	1986.5
2545.958	1969.5
2549.63	1962.5
2553.299	1964.5
2556.964	1970.5
2560.626	1973.5
2564.285	1938.5
2567.941	1952.5
2571.594	1926.5
2575.243	1933.5
2578.89	1894.5
2582.533	1892.5
2586.173	1871.5
2589.809	1877.5
2593.443	1838.5
2597.073	1826.5
2600.701	1803.5
2604.325	1796.5
2607.946	1793.5
2611.564	1774.5
2615.178	1753.5
2618.79	1730.5
2622.398	1738.5
2626.004	1733.5
2629.606	1706.5
2633.205	1673.5
2636.801	1649.5
2640.394	1611.5
2643.983	1603.5
2647.57	1573.5
2651.153	1559.5
2654.734	1513.5
2658.311	1490.5
2661.885	1472.5
2665.456	1454.5
2669.025	1466.5
2672.589	1420.5
2676.151	1408.5
2679.71	1385.5
2683.266	1368.5
2686.819	1360.5
2690.368	1304.5
2693.915	1304.5
2697.458	1262.5
2700.999	1232.5
2704.536	1214.5
2708.071	1156.5
2711.602	1176.5
2715.13	1150.5
2718.656	1119.5
2722.178	1095.5
2725.697	1085.5
2729.214	1067.5
2732.727	1053.5
2736.237	1061.5
2739.744	1052.5
2743.249	1063.5
2746.75	1069.5
2750.248	1082.5
2753.743	1101.5
2757.236	1121.5
2760.725	1120.5
2764.211	1108.5
2767.695	1115.5
2771.175	1127.5
2774.652	1138.5
2778.127	1106.5
2781.598	1085.5
2785.067	1105.5
2788.532	1091.5
2791.995	1083.5
2795.455	1090.5
2798.911	1082.5
2802.365	1081.5
2805.816	1096.5
2809.264	1076.5
2812.709	1089.5
2816.151	1077.5
2819.59	1097.5
2823.026	1087.5
2826.46	1091.5
2829.89	1086.5
2833.318	1094.5
2836.742	1093.5
2840.164	1085.5
2843.583	1108.5
2846.999	1112.5
2850.412	1100.5
2853.822	1119.5
2857.229	1127.5
2860.634	1160.5
2864.035	1189.5
2867.434	1201.5
2870.83	1202.5
2874.223	1236.5
2877.613	1248.5
2881	1257.5
2884.385	1266.5
2887.766	1283.5
2891.145	1280.5
2894.521	1269.5
2897.894	1276.5
2901.264	1251.5
2904.631	1267.5
2907.996	1281.5
2911.358	1276.5
2914.717	1269.5
2918.073	1289.5
2921.426	1288.5
2924.777	1290.5
2928.124	1326.5
2931.469	1373.5
2934.811	1373.5
2938.15	1386.5
2941.487	1403.5
2944.821	1414.5
2948.152	1426.5
2951.48	1401.5
2954.805	1389.5
2958.128	1359.5
2961.447	1374.5
2964.765	1350.5
2968.079	1379.5
2971.39	1365.5
2974.699	1411.5
2978.005	1406.5
2981.308	1450.5
2984.609	1461.5
2987.907	1489.5
2991.202	1518.5
2994.494	1560.5
2997.784	1594.5
3001.07	1611.5
3004.355	1617.5
3007.636	1645.5
3010.915	1654.5
3014.191	1667.5
3017.464	1685.5
3020.734	1717.5
3024.002	1710.5
3027.267	1721.5
3030.53	1728.5
3033.789	1766.5
3037.046	1771.5
3040.301	1796.5
3043.552	1813.5
3046.801	1857.5
3050.048	1911.5
3053.291	1955.5
3056.532	1978.5
3059.771	2068.5
3063.006	2109.5
3066.239	2193.5
3069.469	2238.5
3072.697	2273.5
3075.922	2349.5
3079.144	2385.5
3082.364	2474.5
3085.581	2497.5
3088.795	2548.5
3092.007	2628.5
3095.216	2677.5
3098.423	2724.5
3101.627	2789.5
3104.828	2843.5
3108.026	2902.5
3111.222	2980.5
3114.416	3018.5
3117.607	3098.5
3120.795	3187.5
3123.98	3238.5
3127.163	3312.5
3130.344	3399.5
3133.521	3498.5
3136.696	3574.5
3139.869	3631.5
3143.039	3684.5
3146.206	3725.5
3149.371	3788.5
3152.533	3834.5
3155.693	3851.5
3158.85	3866.5
3162.005	3886.5
3165.157	3876.5
3168.306	3914.5
3171.453	3925.5
3174.597	3913.5
3177.739	3945.5
3180.878	3901.5
3184.014	3975.5
3187.149	3936.5
3190.28	3941.5
3193.409	3934.5
3196.536	3971.5
3199.659	3975.5
3202.781	3975.5
3205.9	3985.5
3209.016	3979.5
3212.13	3951.5
3215.241	3922.5
3218.35	3898.5
3221.456	3846.5
3224.56	3827.5
3227.661	3758.5
3230.76	3730.5
3233.856	3673.5
3236.95	3676.5
3240.041	3631.5
3243.13	3614.5
3246.216	3591.5
3249.3	3585.5
3252.382	3568.5
3255.46	3577.5
3258.537	3548.5
3261.611	3534.5
3264.682	3536.5
3267.751	3506.5
3270.818	3518.5
3273.882	3511.5
3276.943	3490.5
3280.002	3481.5
3283.059	3431.5
3286.113	3392.5
3289.165	3357.5
3292.214	3289.5
3295.261	3230.5
3298.306	3195.5
3301.348	3133.5
3304.387	3093.5
3307.425	3028.5
3310.459	2982.5
3313.492	2938.5
3316.521	2908.5
3319.549	2868.5
3322.574	2832.5
3325.597	2818.5
3328.617	2799.5
3331.635	2768.5
3334.65	2738.5
3337.663	2749.5
3340.674	2727.5
3343.682	2698.5
3346.688	2713.5
3349.691	2696.5
3352.692	2675.5
3355.691	2640.5
3358.687	2632.5
3361.681	2612.5
3364.673	2587.5
3367.662	2539.5
3370.649	2480.5
3373.633	2456.5
3376.615	2409.5
3379.595	2371.5
3382.572	2372.5
3385.547	2318.5
3388.52	2282.5
3391.49	2258.5
3394.458	2211.5
3397.424	2184.5
3400.387	2145.5
3403.348	2124.5
3406.307	2118.5
3409.263	2083.5
3412.217	2066.5
3415.168	2048.5
3418.118	2037.5
3421.065	1986.5
3424.009	1964.5
3426.951	1937.5
3429.891	1913.5
3432.829	1869.5
3435.764	1821.5
3438.697	1777.5
3441.628	1724.5
3444.557	1672.5
3447.483	1610.5
3450.407	1568.5
3453.328	1518.5
3456.247	1479.5
3459.164	1405.5
3462.079	1382.5
3464.991	1316.5
3467.902	1278.5
3470.809	1215.5
3473.715	1183.5
3476.618	1130.5
3479.519	1089.5
3482.418	1057.5
3485.315	1022.5
3488.209	982.5
3491.101	947.5
3493.99	932.5
3496.878	881.5
3499.763	854.5
3502.646	820.5
3505.527	782.5
3508.405	727.5
3511.281	703.5
3514.155	665.5
3517.027	644.5
3519.897	594.5
3522.764	551.5
3525.629	513.5
3528.492	470.5
3531.352	435.5
3534.211	395.5
3537.067	349.5
3539.921	317.5
3542.773	263.5
3545.622	245.5
3548.469	228.5
3551.315	188.5
3554.157	155.5
3556.998	128.5
3559.837	111.5
3562.673	99.5
3565.507	65.5
3568.339	44.5
3571.169	33.5
3573.996	12.5
3576.822	-7.5
3579.645	-32.5
3582.466	-61.5
3585.285	-77.5
3588.101	-99.5
3590.916	-105.5
3593.728	-128.5
3596.538	-141.5
3599.346	-174.5
3602.152	-188.5
3604.956	-188.5
3607.757	-201.5
3610.556	-221.5
3613.354	-237.5
3616.149	-264.5
3618.942	-263.5
3621.732	-278.5
3624.521	-290.5
3627.307	-301.5
3630.092	-309.5
3632.874	-315.5
3635.654	-335.5
3638.432	-335.5
3641.208	-342.5
3643.982	-361.5
3646.753	-354.5
3649.523	-371.5
3652.29	-380.5
3655.055	-392.5
3657.818	-405.5
3660.579	-410.5
3663.338	-422.5
3666.095	-428.5
3668.849	-440.5
3671.602	-447.5
3674.352	-453.5
3677.101	-457.5
3679.847	-466.5
3682.591	-474.5
3685.333	-476.5
3688.073	-485.5
3690.811	-490.5
3693.547	-492.5
3696.281	-499.5
3699.013	-502.5
3701.742	-503.5
3704.47	-508.5
3707.195	-521.5
3709.919	-516.5
3712.64	-523.5
3715.359	-529.5
3718.076	-533.5
3720.792	-536.5
3723.505	-534.5
3726.216	-536.5
3728.925	-539.5
3731.632	-541.5
3734.336	-545.5
3737.039	-553.5
3739.74	-554.5
3742.439	-557.5
3745.136	-565.5
3747.83	-562.5
3750.523	-562.5
3753.213	-539.5
3755.902	-567.5
3758.589	-572.5
3761.273	-570.5
3763.956	-573.5
3766.636	-579.5
3769.315	-577.5
3771.991	-577.5
3774.665	-585.5
3777.338	-583.5
3780.008	-588.5
3782.677	-587.5
3785.343	-581.5
3788.007	-589.5
3790.67	-587.5
3793.33	-587.5
3795.989	-587.5
3798.645	-584.5
3801.299	-592.5
3803.952	-596.5
3806.602	-598.5
3809.251	-598.5
3811.897	-604.5
3814.542	-602.5
3817.184	-594.5
3819.825	-599.5
3822.463	-592.5
3825.1	-604.5
3827.735	-596.5
3830.367	-599.5
3832.998	-607.5
3835.627	-608.5
3838.253	-608.5
3840.878	-605.5
3843.501	-605.5
3846.122	-607.5
3848.741	-601.5
3851.358	-608.5
3853.973	-606.5
3856.586	-609.5
3859.197	-613.5
3861.806	-614.5
3864.414	-612.5
3867.019	-605.5
3869.622	-611.5
3872.224	-607.5
3874.823	-593.5
3877.421	-573.5
3880.016	-552.5
3882.61	-540.5
3885.202	-535.5
3887.792	-548.5
3890.38	-580.5
3892.966	-593.5
3895.55	-603.5
3898.132	-624.5
3900.713	-625.5
3903.291	-623.5
3905.868	-625.5
3908.442	-626.5
3911.015	-625.5
3913.586	-617.5
3916.155	-619.5
3918.722	-624.5
3921.287	-616.5
3923.85	-630.5
3926.411	-622.5
3928.971	-626.5
3931.528	-626.5
3934.084	-625.5
3936.638	-626.5
3939.19	-628.5
3941.74	-628.5
3944.288	-632.5
3946.834	-619.5
3949.378	-625.5
3951.921	-625.5
3954.462	-628.5
3957	-622.5
3959.537	-622.5
3962.072	-620.5
3964.606	-624.5
3967.137	-622.5
3969.667	-624.5
3972.194	-620.5
3974.72	-628.5
3977.244	-613.5
3979.766	-615.5
3982.286	-619.5
3984.805	-616.5
3987.321	-613.5
3989.836	-613.5
3992.349	-613.5
3994.86	-613.5
3997.369	-616.5
3999.877	-611.5
4002.382	-615.5
4004.886	-610.5
4007.388	-607.5
4009.888	-608.5
4012.386	-612.5
4014.883	-613.5
4017.377	-611.5
4019.87	-610.5
4022.361	-611.5
4024.85	-614.5
4027.338	-617.5
4029.823	-616.5
4032.307	-623.5
4034.789	-611.5
4037.269	-607.5
4039.747	-614.5
4042.224	-616.5
4044.699	-616.5
4047.172	-608.5
4049.643	-608.5
4052.112	-617.5
4054.58	-618.5
4057.046	-614.5
4059.51	-618.5
4061.972	-614.5
4064.432	-620.5
4066.891	-617.5
4069.348	-619.5
4071.803	-608.5
4074.256	-613.5
4076.708	-614.5
4079.158	-612.5
4081.606	-614.5
4084.052	-617.5
4086.497	-615.5
4088.939	-611.5
4091.38	-610.5
4093.819	-606.5
4096.257	-644.5
4098.693	-649.5
4101.127	-650.5
4103.559	-646.5
4105.989	-366.5
4108.418	-351.5
4110.845	-323.5
4113.27	-294.5
4115.694	-265.5
4118.115	-227.5
4120.535	-609.5
4122.954	-611.5
4125.37	-605.5
4127.785	-619.5
4130.198	-617.5
4132.609	-621.5
4135.019	-654.5
4137.427	-649.5
4139.833	-649.5
4142.237	-645.5
