Data from 2018-2-14_conc=3_n=8_RamanShift_01.txt Node
Date: Wed Feb 14 12:05:56 IST 2018
User: aro
Spectrometer: QEPB0276
Trigger mode: 0
Integration Time (sec): 3.000000E1
Scans to average: 1
Electric dark correction enabled: true
Nonlinearity correction enabled: false
Boxcar width: 0
XAxis mode: Raman Shifts
Number of Pixels in Spectrum: 1044
>>>>>Begin Spectral Data<<<<<
160.701	-134.6
166.742	57.4
172.777	551.4
178.805	2101.4
184.826	5917.4
190.841	12429.4
196.849	20092.4
202.85	25641.4
208.845	27450.4
214.833	27222.4
220.815	26697.4
226.789	26488.4
232.758	26386.4
238.719	26226.4
244.674	25852.4
250.623	25399.4
256.565	24913.4
262.5	24386.4
268.429	23954.4
274.351	23530.4
280.267	23209.4
286.176	22896.4
292.079	22768.4
297.975	22559.4
303.865	22322.4
309.748	22162.4
315.625	22039.4
321.495	21978.4
327.359	21840.4
333.217	21811.4
339.068	21755.4
344.912	21765.4
350.751	21752.4
356.583	21654.4
362.408	21630.4
368.227	21580.4
374.04	21661.4
379.847	21704.4
385.647	21820.4
391.44	21853.4
397.228	21988.4
403.009	22029.4
408.784	22135.4
414.553	22219.4
420.315	22252.4
426.071	22285.4
431.821	22301.4
437.565	22251.4
443.302	22205.4
449.033	22140.4
454.758	22150.4
460.477	22102.4
466.189	21979.4
471.896	21938.4
477.596	21878.4
483.29	21832.4
488.978	21853.4
494.66	21782.4
500.335	21656.4
506.005	21440.4
511.668	21167.4
517.325	20904.4
522.977	20748.4
528.622	20615.4
534.261	20468.4
539.894	20422.4
545.521	20258.4
551.141	20260.4
556.756	20143.4
562.365	20067.4
567.968	20045.4
573.565	19907.4
579.155	19824.4
584.74	19805.4
590.319	19748.4
595.892	19635.4
601.459	19564.4
607.02	19462.4
612.575	19355.4
618.124	19271.4
623.667	19028.4
629.204	19040.4
634.735	18935.4
640.261	18844.4
645.781	18807.4
651.294	18732.4
656.802	18766.4
662.304	18723.4
667.8	18652.4
673.29	18632.4
678.775	18632.4
684.254	18478.4
689.726	18499.4
695.193	18363.4
700.655	18300.4
706.11	18257.4
711.56	18170.4
717.004	18069.4
722.442	17966.4
727.874	17918.4
733.301	17848.4
738.722	17818.4
744.137	17799.4
749.547	17766.4
754.951	17734.4
760.349	17746.4
765.741	17743.4
771.128	17773.4
776.509	17768.4
781.885	17752.4
787.254	17707.4
792.618	17643.4
797.977	17524.4
803.33	17360.4
808.677	17255.4
814.019	17190.4
819.355	17112.4
824.686	17013.4
830.011	16990.4
835.33	16993.4
840.644	16922.4
845.952	17067.4
851.255	17076.4
856.552	17031.4
861.844	17000.4
867.13	16968.4
872.41	16925.4
877.686	16848.4
882.955	16727.4
888.219	16569.4
893.478	16450.4
898.731	16167.4
903.979	15954.4
909.221	15914.4
914.458	15864.4
919.69	15843.4
924.916	15857.4
930.136	15951.4
935.351	15962.4
940.561	15910.4
945.766	15874.4
950.965	15817.4
956.158	15684.4
961.347	15550.4
966.529	15334.4
971.707	15143.4
976.879	15005.4
982.046	14858.4
987.208	14812.4
992.364	14802.4
997.515	14884.4
1002.66	15011.4
1007.801	15219.4
1012.936	15327.4
1018.066	15259.4
1023.19	15290.4
1028.309	15282.4
1033.423	15229.4
1038.532	15131.4
1043.636	15030.4
1048.734	14863.4
1053.827	14606.4
1058.915	14521.4
1063.998	14386.4
1069.075	14345.4
1074.147	14338.4
1079.214	14389.4
1084.276	14471.4
1089.333	14534.4
1094.385	14695.4
1099.431	14672.4
1104.472	14673.4
1109.509	14629.4
1114.54	14422.4
1119.565	14183.4
1124.586	14019.4
1129.602	13912.4
1134.613	13861.4
1139.618	13713.4
1144.619	13718.4
1149.614	13721.4
1154.604	13760.4
1159.589	13736.4
1164.57	13800.4
1169.545	13816.4
1174.515	13810.4
1179.48	13741.4
1184.44	13584.4
1189.395	13510.4
1194.345	13446.4
1199.29	13314.4
1204.23	13312.4
1209.165	13375.4
1214.095	13444.4
1219.021	13552.4
1223.941	13631.4
1228.856	13679.4
1233.766	13731.4
1238.672	13734.4
1243.572	13697.4
1248.467	13584.4
1253.358	13461.4
1258.244	13298.4
1263.124	13037.4
1268	12865.4
1272.871	12721.4
1277.737	12596.4
1282.599	12558.4
1287.455	12608.4
1292.306	12624.4
1297.153	12591.4
1301.995	12679.4
1306.832	12701.4
1311.664	12757.4
1316.491	12722.4
1321.314	12598.4
1326.132	12418.4
1330.945	12167.4
1335.753	11816.4
1340.556	11595.4
1345.354	11315.4
1350.148	11141.4
1354.937	11037.4
1359.722	11035.4
1364.501	11114.4
1369.276	11218.4
1374.046	11363.4
1378.811	11531.4
1383.572	11649.4
1388.327	11705.4
1393.079	11639.4
1397.825	11466.4
1402.567	11321.4
1407.304	11189.4
1412.036	11094.4
1416.764	11018.4
1421.487	10898.4
1426.205	10822.4
1430.919	10814.4
1435.628	10815.4
1440.333	10820.4
1445.032	10842.4
1449.727	10878.4
1454.418	10864.4
1459.104	10736.4
1463.785	10575.4
1468.462	10359.4
1473.134	10145.4
1477.802	9933.4
1482.465	9767.4
1487.123	9689.4
1491.777	9685.4
1496.426	9672.4
1501.071	9778.4
1505.711	9924.4
1510.347	10140.4
1514.978	10316.4
1519.604	10462.4
1524.226	10506.4
1528.844	10530.4
1533.457	10512.4
1538.065	10426.4
1542.669	10359.4
1547.269	10301.4
1551.864	10247.4
1556.454	10190.4
1561.041	10185.4
1565.622	10189.4
1570.199	10182.4
1574.772	10210.4
1579.34	10276.4
1583.904	10408.4
1588.464	10342.4
1593.019	10359.4
1597.569	10371.4
1602.115	10268.4
1606.657	10233.4
1611.195	10173.4
1615.728	10100.4
1620.256	10091.4
1624.78	10041.4
1629.3	10049.4
1633.816	10131.4
1638.327	10147.4
1642.834	10224.4
1647.336	10271.4
1651.834	10264.4
1656.328	10267.4
1660.817	10190.4
1665.302	10109.4
1669.783	9932.4
1674.259	9719.4
1678.732	9456.4
1683.199	9127.4
1687.663	8789.4
1692.122	8573.4
1696.577	8389.4
1701.028	8394.4
1705.474	8439.4
1709.917	8551.4
1714.355	8558.4
1718.788	8475.4
1723.218	8348.4
1727.643	8274.4
1732.064	8063.4
1736.481	7894.4
1740.893	7677.4
1745.301	7510.4
1749.705	7257.4
1754.105	7072.4
1758.501	6881.4
1762.893	6688.4
1767.28	6556.4
1771.663	6411.4
1776.042	6282.4
1780.417	6261.4
1784.787	6247.4
1789.154	6308.4
1793.516	6403.4
1797.874	6508.4
1802.228	6672.4
1806.578	6701.4
1810.924	6679.4
1815.266	6678.4
1819.603	6583.4
1823.937	6439.4
1828.266	6359.4
1832.591	6258.4
1836.913	6174.4
1841.23	6115.4
1845.543	6068.4
1849.852	6016.4
1854.156	5979.4
1858.457	5994.4
1862.754	5986.4
1867.047	5953.4
1871.335	5986.4
1875.62	5969.4
1879.9	5953.4
1884.177	5893.4
1888.449	5815.4
1892.718	5780.4
1896.982	5739.4
1901.243	5659.4
1905.499	5645.4
1909.752	5600.4
1914	5629.4
1918.245	5612.4
1922.485	5658.4
1926.722	5726.4
1930.954	5801.4
1935.183	5876.4
1939.408	5948.4
1943.628	5950.4
1947.845	5975.4
1952.058	5929.4
1956.267	5886.4
1960.472	5811.4
1964.673	5738.4
1968.87	5653.4
1973.063	5576.4
1977.252	5441.4
1981.438	5449.4
1985.619	5366.4
1989.797	5322.4
1993.971	5310.4
1998.14	5280.4
2002.306	5239.4
2006.469	5251.4
2010.627	5188.4
2014.781	5164.4
2018.932	5135.4
2023.078	5084.4
2027.221	5018.4
2031.36	4951.4
2035.495	4860.4
2039.627	4816.4
2043.754	4762.4
2047.878	4702.4
2051.998	4665.4
2056.114	4646.4
2060.226	4657.4
2064.334	4642.4
2068.439	4675.4
2072.54	4701.4
2076.637	4726.4
2080.73	4729.4
2084.82	4777.4
2088.906	4789.4
2092.988	4798.4
2097.066	4770.4
2101.14	4722.4
2105.211	4723.4
2109.278	4707.4
2113.342	4631.4
2117.401	4634.4
2121.457	4628.4
2125.509	4604.4
2129.558	4550.4
2133.602	4529.4
2137.643	4531.4
2141.681	4488.4
2145.714	4459.4
2149.744	4395.4
2153.77	4410.4
2157.793	4363.4
2161.812	4305.4
2165.827	4231.4
2169.838	4159.4
2173.846	4087.4
2177.851	4045.4
2181.851	3966.4
2185.848	3903.4
2189.841	3882.4
2193.831	3860.4
2197.817	3789.4
2201.799	3789.4
2205.778	3741.4
2209.753	3748.4
2213.725	3741.4
2217.693	3739.4
2221.657	3724.4
2225.618	3731.4
2229.575	3688.4
2233.529	3667.4
2237.479	3631.4
2241.425	3593.4
2245.368	3535.4
2249.307	3499.4
2253.243	3447.4
2257.175	3398.4
2261.104	3315.4
2265.029	3327.4
2268.95	3281.4
2272.868	3245.4
2276.783	3184.4
2280.694	3150.4
2284.601	3128.4
2288.505	3113.4
2292.405	3073.4
2296.302	3040.4
2300.195	2997.4
2304.085	2930.4
2307.971	2940.4
2311.854	2909.4
2315.734	2845.4
2319.609	2806.4
2323.482	2780.4
2327.351	2735.4
2331.216	2713.4
2335.078	2696.4
2338.937	2684.4
2342.792	2646.4
2346.643	2656.4
2350.492	2627.4
2354.336	2659.4
2358.178	2658.4
2362.015	2669.4
2365.85	2678.4
2369.681	2664.4
2373.508	2670.4
2377.333	2662.4
2381.153	2641.4
2384.971	2637.4
2388.785	2634.4
2392.595	2576.4
2396.402	2575.4
2400.206	2551.4
2404.007	2533.4
2407.804	2505.4
2411.597	2489.4
2415.388	2501.4
2419.174	2463.4
2422.958	2449.4
2426.738	2409.4
2430.515	2399.4
2434.289	2385.4
2438.059	2368.4
2441.825	2337.4
2445.589	2319.4
2449.349	2284.4
2453.106	2278.4
2456.859	2251.4
2460.61	2216.4
2464.356	2190.4
2468.1	2174.4
2471.84	2137.4
2475.577	2132.4
2479.311	2121.4
2483.041	2094.4
2486.768	2105.4
2490.492	2075.4
2494.213	2092.4
2497.93	2074.4
2501.644	2052.4
2505.355	2055.4
2509.062	2041.4
2512.766	2019.4
2516.467	2022.4
2520.165	2006.4
2523.859	1963.4
2527.551	1954.4
2531.239	1969.4
2534.923	1985.4
2538.605	1955.4
2542.283	1928.4
2545.958	1953.4
2549.63	1931.4
2553.299	1944.4
2556.964	1930.4
2560.626	1902.4
2564.285	1903.4
2567.941	1912.4
2571.594	1881.4
2575.243	1889.4
2578.89	1860.4
2582.533	1830.4
2586.173	1823.4
2589.809	1822.4
2593.443	1796.4
2597.073	1779.4
2600.701	1764.4
2604.325	1761.4
2607.946	1738.4
2611.564	1731.4
2615.178	1709.4
2618.79	1711.4
2622.398	1699.4
2626.004	1661.4
2629.606	1665.4
2633.205	1619.4
2636.801	1608.4
2640.394	1599.4
2643.983	1560.4
2647.57	1542.4
2651.153	1524.4
2654.734	1484.4
2658.311	1462.4
2661.885	1430.4
2665.456	1426.4
2669.025	1409.4
2672.589	1396.4
2676.151	1375.4
2679.71	1365.4
2683.266	1358.4
2686.819	1320.4
2690.368	1295.4
2693.915	1275.4
2697.458	1234.4
2700.999	1198.4
2704.536	1179.4
2708.071	1175.4
2711.602	1119.4
2715.13	1114.4
2718.656	1093.4
2722.178	1085.4
2725.697	1065.4
2729.214	1053.4
2732.727	1045.4
2736.237	1042.4
2739.744	1039.4
2743.249	1038.4
2746.75	1053.4
2750.248	1074.4
2753.743	1068.4
2757.236	1075.4
2760.725	1091.4
2764.211	1110.4
2767.695	1095.4
2771.175	1083.4
2774.652	1090.4
2778.127	1092.4
2781.598	1058.4
2785.067	1075.4
2788.532	1059.4
2791.995	1068.4
2795.455	1057.4
2798.911	1062.4
2802.365	1072.4
2805.816	1061.4
2809.264	1044.4
2812.709	1075.4
2816.151	1079.4
2819.59	1062.4
2823.026	1071.4
2826.46	1059.4
2829.89	1063.4
2833.318	1079.4
2836.742	1070.4
2840.164	1141.4
2843.583	1103.4
2846.999	1113.4
2850.412	1077.4
2853.822	1116.4
2857.229	1129.4
2860.634	1146.4
2864.035	1168.4
2867.434	1179.4
2870.83	1202.4
2874.223	1227.4
2877.613	1247.4
2881	1272.4
2884.385	1260.4
2887.766	1265.4
2891.145	1262.4
2894.521	1262.4
2897.894	1279.4
2901.264	1269.4
2904.631	1257.4
2907.996	1268.4
2911.358	1271.4
2914.717	1262.4
2918.073	1301.4
2921.426	1297.4
2924.777	1314.4
2928.124	1328.4
2931.469	1375.4
2934.811	1389.4
2938.15	1408.4
2941.487	1392.4
2944.821	1419.4
2948.152	1415.4
2951.48	1408.4
2954.805	1385.4
2958.128	1385.4
2961.447	1378.4
2964.765	1368.4
2968.079	1380.4
2971.39	1371.4
2974.699	1399.4
2978.005	1428.4
2981.308	1427.4
2984.609	1486.4
2987.907	1501.4
2991.202	1532.4
2994.494	1548.4
2997.784	1592.4
3001.07	1604.4
3004.355	1633.4
3007.636	1677.4
3010.915	1693.4
3014.191	1706.4
3017.464	1730.4
3020.734	1724.4
3024.002	1751.4
3027.267	1754.4
3030.53	1763.4
3033.789	1776.4
3037.046	1819.4
3040.301	1844.4
3043.552	1866.4
3046.801	1892.4
3050.048	1952.4
3053.291	1987.4
3056.532	2050.4
3059.771	2112.4
3063.006	2160.4
3066.239	2224.4
3069.469	2308.4
3072.697	2339.4
3075.922	2407.4
3079.144	2458.4
3082.364	2513.4
3085.581	2579.4
3088.795	2625.4
3092.007	2689.4
3095.216	2716.4
3098.423	2790.4
3101.627	2860.4
3104.828	2924.4
3108.026	2987.4
3111.222	3031.4
3114.416	3147.4
3117.607	3169.4
3120.795	3260.4
3123.98	3330.4
3127.163	3443.4
3130.344	3498.4
3133.521	3560.4
3136.696	3647.4
3139.869	3743.4
3143.039	3771.4
3146.206	3843.4
3149.371	3913.4
3152.533	3903.4
3155.693	3928.4
3158.85	4001.4
3162.005	3999.4
3165.157	4008.4
3168.306	4036.4
3171.453	4032.4
3174.597	4033.4
3177.739	4045.4
3180.878	4054.4
3184.014	4047.4
3187.149	4050.4
3190.28	4066.4
3193.409	4048.4
3196.536	4053.4
3199.659	4055.4
3202.781	4093.4
3205.9	4081.4
3209.016	4085.4
3212.13	4076.4
3215.241	4039.4
3218.35	3988.4
3221.456	3974.4
3224.56	3928.4
3227.661	3840.4
3230.76	3837.4
3233.856	3798.4
3236.95	3733.4
3240.041	3708.4
3243.13	3702.4
3246.216	3674.4
3249.3	3687.4
3252.382	3621.4
3255.46	3627.4
3258.537	3612.4
3261.611	3610.4
3264.682	3624.4
3267.751	3591.4
3270.818	3594.4
3273.882	3611.4
3276.943	3577.4
3280.002	3586.4
3283.059	3518.4
3286.113	3465.4
3289.165	3417.4
3292.214	3383.4
3295.261	3314.4
3298.306	3268.4
3301.348	3206.4
3304.387	3172.4
3307.425	3129.4
3310.459	3075.4
3313.492	3010.4
3316.521	3002.4
3319.549	2967.4
3322.574	2927.4
3325.597	2911.4
3328.617	2891.4
3331.635	2864.4
3334.65	2842.4
3337.663	2813.4
3340.674	2812.4
3343.682	2780.4
3346.688	2802.4
3349.691	2788.4
3352.692	2782.4
3355.691	2738.4
3358.687	2697.4
3361.681	2701.4
3364.673	2654.4
3367.662	2606.4
3370.649	2555.4
3373.633	2524.4
3376.615	2488.4
3379.595	2445.4
3382.572	2416.4
3385.547	2382.4
3388.52	2373.4
3391.49	2329.4
3394.458	2275.4
3397.424	2258.4
3400.387	2240.4
3403.348	2212.4
3406.307	2188.4
3409.263	2144.4
3412.217	2137.4
3415.168	2092.4
3418.118	2092.4
3421.065	2052.4
3424.009	2024.4
3426.951	1985.4
3429.891	1966.4
3432.829	1920.4
3435.764	1885.4
3438.697	1835.4
3441.628	1791.4
3444.557	1729.4
3447.483	1682.4
3450.407	1630.4
3453.328	1578.4
3456.247	1516.4
3459.164	1447.4
3462.079	1417.4
3464.991	1365.4
3467.902	1321.4
3470.809	1278.4
3473.715	1202.4
3476.618	1171.4
3479.519	1128.4
3482.418	1107.4
3485.315	1060.4
3488.209	1020.4
3491.101	996.4
3493.99	950.4
3496.878	922.4
3499.763	888.4
3502.646	864.4
3505.527	800.4
3508.405	769.4
3511.281	728.4
3514.155	708.4
3517.027	660.4
3519.897	619.4
3522.764	561.4
3525.629	526.4
3528.492	486.4
3531.352	452.4
3534.211	412.4
3537.067	385.4
3539.921	338.4
3542.773	310.4
3545.622	270.4
3548.469	235.4
3551.315	210.4
3554.157	194.4
3556.998	162.4
3559.837	139.4
3562.673	103.4
3565.507	86.4
3568.339	68.4
3571.169	56.4
3573.996	27.4
3576.822	20.4
3579.645	-5.6
3582.466	-37.6
3585.285	-59.6
3588.101	-66.6
3590.916	-102.6
3593.728	-112.6
3596.538	-128.6
3599.346	-146.6
3602.152	-165.6
3604.956	-177.6
3607.757	-189.6
3610.556	-215.6
3613.354	-226.6
3616.149	-239.6
3618.942	-251.6
3621.732	-261.6
3624.521	-276.6
3627.307	-291.6
3630.092	-292.6
3632.874	-306.6
3635.654	-317.6
3638.432	-324.6
3641.208	-334.6
3643.982	-340.6
3646.753	-348.6
3649.523	-368.6
3652.29	-369.6
3655.055	-379.6
3657.818	-390.6
3660.579	-391.6
3663.338	-420.6
3666.095	-417.6
3668.849	-439.6
3671.602	-436.6
3674.352	-439.6
3677.101	-448.6
3679.847	-459.6
3682.591	-461.6
3685.333	-475.6
3688.073	-470.6
3690.811	-485.6
3693.547	-489.6
3696.281	-491.6
3699.013	-498.6
3701.742	-497.6
3704.47	-505.6
3707.195	-521.6
3709.919	-513.6
3712.64	-521.6
3715.359	-517.6
3718.076	-522.6
3720.792	-523.6
3723.505	-521.6
3726.216	-532.6
3728.925	-537.6
3731.632	-537.6
3734.336	-540.6
3737.039	-542.6
3739.74	-541.6
3742.439	-544.6
3745.136	-553.6
3747.83	-560.6
3750.523	-559.6
3753.213	-547.6
3755.902	-562.6
3758.589	-559.6
3761.273	-562.6
3763.956	-567.6
3766.636	-569.6
3769.315	-571.6
3771.991	-570.6
3774.665	-572.6
3777.338	-572.6
3780.008	-582.6
3782.677	-578.6
3785.343	-573.6
3788.007	-582.6
3790.67	-579.6
3793.33	-582.6
3795.989	-584.6
3798.645	-588.6
3801.299	-586.6
3803.952	-592.6
3806.602	-596.6
3809.251	-595.6
3811.897	-594.6
3814.542	-595.6
3817.184	-594.6
3819.825	-584.6
3822.463	-584.6
3825.1	-598.6
3827.735	-587.6
3830.367	-595.6
3832.998	-598.6
3835.627	-601.6
3838.253	-602.6
3840.878	-604.6
3843.501	-601.6
3846.122	-596.6
3848.741	-600.6
3851.358	-604.6
3853.973	-598.6
3856.586	-604.6
3859.197	-604.6
3861.806	-602.6
3864.414	-607.6
3867.019	-598.6
3869.622	-609.6
3872.224	-603.6
3874.823	-586.6
3877.421	-573.6
3880.016	-556.6
3882.61	-549.6
3885.202	-536.6
3887.792	-553.6
3890.38	-576.6
3892.966	-595.6
3895.55	-604.6
3898.132	-612.6
3900.713	-619.6
3903.291	-610.6
3905.868	-614.6
3908.442	-614.6
3911.015	-614.6
3913.586	-610.6
3916.155	-615.6
3918.722	-619.6
3921.287	-615.6
3923.85	-620.6
3926.411	-616.6
3928.971	-625.6
3931.528	-623.6
3934.084	-623.6
3936.638	-620.6
3939.19	-621.6
3941.74	-617.6
3944.288	-625.6
3946.834	-615.6
3949.378	-621.6
3951.921	-622.6
3954.462	-623.6
3957	-622.6
3959.537	-619.6
3962.072	-615.6
3964.606	-620.6
3967.137	-616.6
3969.667	-620.6
3972.194	-608.6
3974.72	-616.6
3977.244	-605.6
3979.766	-607.6
3982.286	-609.6
3984.805	-611.6
3987.321	-604.6
3989.836	-613.6
3992.349	-603.6
3994.86	-606.6
3997.369	-611.6
3999.877	-604.6
4002.382	-601.6
4004.886	-599.6
4007.388	-601.6
4009.888	-599.6
4012.386	-607.6
4014.883	-600.6
4017.377	-602.6
4019.87	-602.6
4022.361	-600.6
4024.85	-602.6
4027.338	-604.6
4029.823	-607.6
4032.307	-611.6
4034.789	-607.6
4037.269	-605.6
4039.747	-612.6
4042.224	-614.6
4044.699	-606.6
4047.172	-605.6
4049.643	-596.6
4052.112	-608.6
4054.58	-609.6
4057.046	-612.6
4059.51	-609.6
4061.972	-607.6
4064.432	-614.6
4066.891	-610.6
4069.348	-608.6
4071.803	-603.6
4074.256	-609.6
4076.708	-613.6
4079.158	-612.6
4081.606	-612.6
4084.052	-617.6
4086.497	-610.6
4088.939	-608.6
4091.38	-610.6
4093.819	-600.6
4096.257	-641.6
4098.693	-638.6
4101.127	-644.6
4103.559	-644.6
4105.989	-360.6
4108.418	-341.6
4110.845	-323.6
4113.27	-297.6
4115.694	-262.6
4118.115	-214.6
4120.535	-607.6
4122.954	-607.6
4125.37	-600.6
4127.785	-607.6
4130.198	-606.6
4132.609	-609.6
4135.019	-643.6
4137.427	-644.6
4139.833	-644.6
4142.237	-642.6
