Data from 2018-2-14_conc=4_n=5_RamanShift_03.txt Node
Date: Wed Feb 14 13:41:25 IST 2018
User: aro
Spectrometer: QEPB0276
Trigger mode: 0
Integration Time (sec): 3.000000E1
Scans to average: 1
Electric dark correction enabled: true
Nonlinearity correction enabled: false
Boxcar width: 0
XAxis mode: Raman Shifts
Number of Pixels in Spectrum: 1044
>>>>>Begin Spectral Data<<<<<
160.701	-148.4
166.742	39.6
172.777	609.6
178.805	2308.6
184.826	6413.6
190.841	13401.6
196.849	21508.6
202.85	27277.6
208.845	29160.6
214.833	28809.6
220.815	28286.6
226.789	28227.6
232.758	27938.6
238.719	27772.6
244.674	27433.6
250.623	26962.6
256.565	26410.6
262.5	25863.6
268.429	25381.6
274.351	25017.6
280.267	24627.6
286.176	24425.6
292.079	24201.6
297.975	23908.6
303.865	23710.6
309.748	23586.6
315.625	23377.6
321.495	23350.6
327.359	23179.6
333.217	23161.6
339.068	23153.6
344.912	23084.6
350.751	23072.6
356.583	23090.6
362.408	23067.6
368.227	23023.6
374.04	23057.6
379.847	23084.6
385.647	23203.6
391.44	23262.6
397.228	23345.6
403.009	23470.6
408.784	23580.6
414.553	23616.6
420.315	23654.6
426.071	23687.6
431.821	23676.6
437.565	23620.6
443.302	23637.6
449.033	23548.6
454.758	23502.6
460.477	23533.6
466.189	23415.6
471.896	23371.6
477.596	23317.6
483.29	23305.6
488.978	23218.6
494.66	23139.6
500.335	23008.6
506.005	22756.6
511.668	22417.6
517.325	22201.6
522.977	22040.6
528.622	21908.6
534.261	21675.6
539.894	21599.6
545.521	21494.6
551.141	21519.6
556.756	21444.6
562.365	21347.6
567.968	21228.6
573.565	21161.6
579.155	21154.6
584.74	20948.6
590.319	20893.6
595.892	20819.6
601.459	20781.6
607.02	20604.6
612.575	20535.6
618.124	20419.6
623.667	20246.6
629.204	20206.6
634.735	20134.6
640.261	20075.6
645.781	19984.6
651.294	19894.6
656.802	19914.6
662.304	19872.6
667.8	19767.6
673.29	19763.6
678.775	19705.6
684.254	19620.6
689.726	19585.6
695.193	19548.6
700.655	19448.6
706.11	19390.6
711.56	19238.6
717.004	19140.6
722.442	19074.6
727.874	19043.6
733.301	18941.6
738.722	18900.6
744.137	18857.6
749.547	18862.6
754.951	18810.6
760.349	18861.6
765.741	18858.6
771.128	18902.6
776.509	18871.6
781.885	18835.6
787.254	18875.6
792.618	18747.6
797.977	18635.6
803.33	18462.6
808.677	18342.6
814.019	18256.6
819.355	18259.6
824.686	18146.6
830.011	18101.6
835.33	18132.6
840.644	18137.6
845.952	18107.6
851.255	18178.6
856.552	18213.6
861.844	18085.6
867.13	18107.6
872.41	18026.6
877.686	17926.6
882.955	17835.6
888.219	17615.6
893.478	17465.6
898.731	17310.6
903.979	17043.6
909.221	16915.6
914.458	16896.6
919.69	16850.6
924.916	16917.6
930.136	17009.6
935.351	17031.6
940.561	17030.6
945.766	16968.6
950.965	16918.6
956.158	16759.6
961.347	16604.6
966.529	16377.6
971.707	16137.6
976.879	15966.6
982.046	15856.6
987.208	15826.6
992.364	15769.6
997.515	15961.6
1002.66	16069.6
1007.801	16228.6
1012.936	16271.6
1018.066	16382.6
1023.19	16341.6
1028.309	16301.6
1033.423	16324.6
1038.532	16222.6
1043.636	16064.6
1048.734	15884.6
1053.827	15650.6
1058.915	15496.6
1063.998	15426.6
1069.075	15329.6
1074.147	15378.6
1079.214	15438.6
1084.276	15534.6
1089.333	15625.6
1094.385	15651.6
1099.431	15712.6
1104.472	15699.6
1109.509	15608.6
1114.54	15456.6
1119.565	15220.6
1124.586	15009.6
1129.602	14940.6
1134.613	14840.6
1139.618	14677.6
1144.619	14684.6
1149.614	14707.6
1154.604	14731.6
1159.589	14773.6
1164.57	14759.6
1169.545	14837.6
1174.515	14767.6
1179.48	14671.6
1184.44	14598.6
1189.395	14542.6
1194.345	14411.6
1199.29	14369.6
1204.23	14378.6
1209.165	14407.6
1214.095	14456.6
1219.021	14570.6
1223.941	14601.6
1228.856	14682.6
1233.766	14792.6
1238.672	14763.6
1243.572	14722.6
1248.467	14642.6
1253.358	14459.6
1258.244	14302.6
1263.124	14066.6
1268	13832.6
1272.871	13692.6
1277.737	13594.6
1282.599	13476.6
1287.455	13558.6
1292.306	13527.6
1297.153	13571.6
1301.995	13679.6
1306.832	13703.6
1311.664	13727.6
1316.491	13640.6
1321.314	13558.6
1326.132	13301.6
1330.945	13076.6
1335.753	12740.6
1340.556	12402.6
1345.354	12106.6
1350.148	11929.6
1354.937	11886.6
1359.722	11909.6
1364.501	12009.6
1369.276	12144.6
1374.046	12278.6
1378.811	12445.6
1383.572	12579.6
1388.327	12612.6
1393.079	12544.6
1397.825	12432.6
1402.567	12196.6
1407.304	12008.6
1412.036	11932.6
1416.764	11815.6
1421.487	11753.6
1426.205	11705.6
1430.919	11668.6
1435.628	11686.6
1440.333	11677.6
1445.032	11693.6
1449.727	11738.6
1454.418	11692.6
1459.104	11595.6
1463.785	11324.6
1468.462	11171.6
1473.134	10933.6
1477.802	10728.6
1482.465	10501.6
1487.123	10391.6
1491.777	10408.6
1496.426	10464.6
1501.071	10617.6
1505.711	10763.6
1510.347	10958.6
1514.978	11137.6
1519.604	11303.6
1524.226	11394.6
1528.844	11389.6
1533.457	11358.6
1538.065	11309.6
1542.669	11230.6
1547.269	11157.6
1551.864	11100.6
1556.454	11031.6
1561.041	11042.6
1565.622	11047.6
1570.199	11026.6
1574.772	11061.6
1579.34	11208.6
1583.904	11199.6
1588.464	11283.6
1593.019	11260.6
1597.569	11263.6
1602.115	11158.6
1606.657	11071.6
1611.195	11010.6
1615.728	10916.6
1620.256	10896.6
1624.78	10894.6
1629.3	10908.6
1633.816	10907.6
1638.327	10967.6
1642.834	11024.6
1647.336	11069.6
1651.834	11067.6
1656.328	11038.6
1660.817	11057.6
1665.302	10931.6
1669.783	10707.6
1674.259	10491.6
1678.732	10225.6
1683.199	9869.6
1687.663	9516.6
1692.122	9232.6
1696.577	9116.6
1701.028	9170.6
1705.474	9195.6
1709.917	9291.6
1714.355	9338.6
1718.788	9204.6
1723.218	9120.6
1727.643	8962.6
1732.064	8758.6
1736.481	8571.6
1740.893	8396.6
1745.301	8122.6
1749.705	7911.6
1754.105	7730.6
1758.501	7496.6
1762.893	7290.6
1767.28	7112.6
1771.663	6942.6
1776.042	6850.6
1780.417	6803.6
1784.787	6802.6
1789.154	6907.6
1793.516	7035.6
1797.874	7185.6
1802.228	7283.6
1806.578	7334.6
1810.924	7366.6
1815.266	7282.6
1819.603	7175.6
1823.937	7021.6
1828.266	6929.6
1832.591	6851.6
1836.913	6730.6
1841.23	6669.6
1845.543	6606.6
1849.852	6585.6
1854.156	6547.6
1858.457	6531.6
1862.754	6503.6
1867.047	6516.6
1871.335	6546.6
1875.62	6501.6
1879.9	6496.6
1884.177	6483.6
1888.449	6401.6
1892.718	6318.6
1896.982	6245.6
1901.243	6186.6
1905.499	6143.6
1909.752	6146.6
1914	6136.6
1918.245	6132.6
1922.485	6269.6
1926.722	6306.6
1930.954	6374.6
1935.183	6439.6
1939.408	6505.6
1943.628	6533.6
1947.845	6562.6
1952.058	6540.6
1956.267	6488.6
1960.472	6407.6
1964.673	6319.6
1968.87	6226.6
1973.063	6132.6
1977.252	6029.6
1981.438	5983.6
1985.619	5912.6
1989.797	5827.6
1993.971	5808.6
1998.14	5757.6
2002.306	5762.6
2006.469	5749.6
2010.627	5708.6
2014.781	5692.6
2018.932	5628.6
2023.078	5594.6
2027.221	5479.6
2031.36	5424.6
2035.495	5322.6
2039.627	5243.6
2043.754	5171.6
2047.878	5137.6
2051.998	5133.6
2056.114	5082.6
2060.226	5120.6
2064.334	5078.6
2068.439	5103.6
2072.54	5112.6
2076.637	5184.6
2080.73	5195.6
2084.82	5257.6
2088.906	5253.6
2092.988	5282.6
2097.066	5265.6
2101.14	5231.6
2105.211	5176.6
2109.278	5140.6
2113.342	5133.6
2117.401	5084.6
2121.457	5049.6
2125.509	5033.6
2129.558	5031.6
2133.602	4972.6
2137.643	4941.6
2141.681	4932.6
2145.714	4902.6
2149.744	4842.6
2153.77	4814.6
2157.793	4782.6
2161.812	4706.6
2165.827	4634.6
2169.838	4563.6
2173.846	4515.6
2177.851	4405.6
2181.851	4348.6
2185.848	4302.6
2189.841	4240.6
2193.831	4194.6
2197.817	4167.6
2201.799	4141.6
2205.778	4114.6
2209.753	4104.6
2213.725	4092.6
2217.693	4080.6
2221.657	4086.6
2225.618	4062.6
2229.575	4043.6
2233.529	4033.6
2237.479	3975.6
2241.425	3941.6
2245.368	3887.6
2249.307	3825.6
2253.243	3775.6
2257.175	3713.6
2261.104	3659.6
2265.029	3599.6
2268.95	3604.6
2272.868	3563.6
2276.783	3513.6
2280.694	3471.6
2284.601	3459.6
2288.505	3419.6
2292.405	3383.6
2296.302	3340.6
2300.195	3290.6
2304.085	3275.6
2307.971	3242.6
2311.854	3140.6
2315.734	3109.6
2319.609	3064.6
2323.482	3027.6
2327.351	3004.6
2331.216	3003.6
2335.078	2980.6
2338.937	2946.6
2342.792	2961.6
2346.643	2910.6
2350.492	2918.6
2354.336	2918.6
2358.178	2930.6
2362.015	2928.6
2365.85	2941.6
2369.681	2921.6
2373.508	2954.6
2377.333	2936.6
2381.153	2900.6
2384.971	2900.6
2388.785	2867.6
2392.595	2873.6
2396.402	2841.6
2400.206	2815.6
2404.007	2782.6
2407.804	2779.6
2411.597	2751.6
2415.388	2717.6
2419.174	2701.6
2422.958	2665.6
2426.738	2662.6
2430.515	2664.6
2434.289	2637.6
2438.059	2617.6
2441.825	2601.6
2445.589	2538.6
2449.349	2531.6
2453.106	2502.6
2456.859	2482.6
2460.61	2439.6
2464.356	2432.6
2468.1	2373.6
2471.84	2342.6
2475.577	2327.6
2479.311	2335.6
2483.041	2312.6
2486.768	2301.6
2490.492	2272.6
2494.213	2278.6
2497.93	2284.6
2501.644	2281.6
2505.355	2277.6
2509.062	2246.6
2512.766	2247.6
2516.467	2241.6
2520.165	2202.6
2523.859	2196.6
2527.551	2188.6
2531.239	2183.6
2534.923	2152.6
2538.605	2148.6
2542.283	2133.6
2545.958	2133.6
2549.63	2144.6
2553.299	2137.6
2556.964	2121.6
2560.626	2113.6
2564.285	2119.6
2567.941	2096.6
2571.594	2086.6
2575.243	2068.6
2578.89	2067.6
2582.533	2045.6
2586.173	2020.6
2589.809	2011.6
2593.443	1978.6
2597.073	1956.6
2600.701	1946.6
2604.325	1934.6
2607.946	1925.6
2611.564	1916.6
2615.178	1922.6
2618.79	1865.6
2622.398	1867.6
2626.004	1848.6
2629.606	1849.6
2633.205	1807.6
2636.801	1765.6
2640.394	1769.6
2643.983	1737.6
2647.57	1722.6
2651.153	1685.6
2654.734	1673.6
2658.311	1636.6
2661.885	1631.6
2665.456	1583.6
2669.025	1568.6
2672.589	1535.6
2676.151	1537.6
2679.71	1500.6
2683.266	1498.6
2686.819	1455.6
2690.368	1427.6
2693.915	1396.6
2697.458	1381.6
2700.999	1338.6
2704.536	1324.6
2708.071	1280.6
2711.602	1274.6
2715.13	1236.6
2718.656	1210.6
2722.178	1195.6
2725.697	1174.6
2729.214	1150.6
2732.727	1170.6
2736.237	1145.6
2739.744	1140.6
2743.249	1168.6
2746.75	1187.6
2750.248	1186.6
2753.743	1171.6
2757.236	1231.6
2760.725	1231.6
2764.211	1239.6
2767.695	1213.6
2771.175	1220.6
2774.652	1208.6
2778.127	1217.6
2781.598	1202.6
2785.067	1194.6
2788.532	1199.6
2791.995	1183.6
2795.455	1174.6
2798.911	1183.6
2802.365	1174.6
2805.816	1178.6
2809.264	1164.6
2812.709	1173.6
2816.151	1171.6
2819.59	1166.6
2823.026	1189.6
2826.46	1174.6
2829.89	1173.6
2833.318	1176.6
2836.742	1190.6
2840.164	1196.6
2843.583	1190.6
2846.999	1222.6
2850.412	1199.6
2853.822	1232.6
2857.229	1230.6
2860.634	1248.6
2864.035	1272.6
2867.434	1301.6
2870.83	1335.6
2874.223	1344.6
2877.613	1360.6
2881	1395.6
2884.385	1372.6
2887.766	1376.6
2891.145	1375.6
2894.521	1388.6
2897.894	1388.6
2901.264	1362.6
2904.631	1376.6
2907.996	1373.6
2911.358	1374.6
2914.717	1394.6
2918.073	1403.6
2921.426	1419.6
2924.777	1434.6
2928.124	1450.6
2931.469	1453.6
2934.811	1501.6
2938.15	1518.6
2941.487	1534.6
2944.821	1557.6
2948.152	1539.6
2951.48	1538.6
2954.805	1499.6
2958.128	1489.6
2961.447	1491.6
2964.765	1486.6
2968.079	1492.6
2971.39	1489.6
2974.699	1520.6
2978.005	1519.6
2981.308	1553.6
2984.609	1582.6
2987.907	1622.6
2991.202	1653.6
2994.494	1699.6
2997.784	1735.6
3001.07	1761.6
3004.355	1772.6
3007.636	1794.6
3010.915	1812.6
3014.191	1824.6
3017.464	1849.6
3020.734	1868.6
3024.002	1856.6
3027.267	1862.6
3030.53	1866.6
3033.789	1896.6
3037.046	1930.6
3040.301	1936.6
3043.552	2004.6
3046.801	2023.6
3050.048	2073.6
3053.291	2119.6
3056.532	2197.6
3059.771	2230.6
3063.006	2304.6
3066.239	2364.6
3069.469	2450.6
3072.697	2478.6
3075.922	2526.6
3079.144	2622.6
3082.364	2663.6
3085.581	2748.6
3088.795	2799.6
3092.007	2842.6
3095.216	2892.6
3098.423	2959.6
3101.627	3051.6
3104.828	3107.6
3108.026	3162.6
3111.222	3229.6
3114.416	3316.6
3117.607	3352.6
3120.795	3443.6
3123.98	3514.6
3127.163	3640.6
3130.344	3692.6
3133.521	3783.6
3136.696	3869.6
3139.869	3938.6
3143.039	3987.6
3146.206	4060.6
3149.371	4088.6
3152.533	4162.6
3155.693	4180.6
3158.85	4196.6
3162.005	4258.6
3165.157	4251.6
3168.306	4244.6
3171.453	4266.6
3174.597	4277.6
3177.739	4274.6
3180.878	4270.6
3184.014	4300.6
3187.149	4264.6
3190.28	4299.6
3193.409	4297.6
3196.536	4314.6
3199.659	4310.6
3202.781	4305.6
3205.9	4301.6
3209.016	4289.6
3212.13	4308.6
3215.241	4285.6
3218.35	4242.6
3221.456	4200.6
3224.56	4154.6
3227.661	4082.6
3230.76	4067.6
3233.856	4029.6
3236.95	3974.6
3240.041	3967.6
3243.13	3911.6
3246.216	3937.6
3249.3	3898.6
3252.382	3891.6
3255.46	3875.6
3258.537	3825.6
3261.611	3865.6
3264.682	3857.6
3267.751	3829.6
3270.818	3813.6
3273.882	3810.6
3276.943	3830.6
3280.002	3762.6
3283.059	3739.6
3286.113	3704.6
3289.165	3639.6
3292.214	3596.6
3295.261	3520.6
3298.306	3448.6
3301.348	3396.6
3304.387	3339.6
3307.425	3324.6
3310.459	3269.6
3313.492	3210.6
3316.521	3174.6
3319.549	3151.6
3322.574	3096.6
3325.597	3093.6
3328.617	3055.6
3331.635	3002.6
3334.65	3022.6
3337.663	3006.6
3340.674	2982.6
3343.682	2965.6
3346.688	2967.6
3349.691	2948.6
3352.692	2921.6
3355.691	2920.6
3358.687	2883.6
3361.681	2879.6
3364.673	2795.6
3367.662	2774.6
3370.649	2748.6
3373.633	2690.6
3376.615	2647.6
3379.595	2604.6
3382.572	2600.6
3385.547	2547.6
3388.52	2504.6
3391.49	2458.6
3394.458	2395.6
3397.424	2410.6
3400.387	2352.6
3403.348	2353.6
3406.307	2305.6
3409.263	2288.6
3412.217	2273.6
3415.168	2245.6
3418.118	2215.6
3421.065	2181.6
3424.009	2137.6
3426.951	2113.6
3429.891	2082.6
3432.829	2022.6
3435.764	1978.6
3438.697	1943.6
3441.628	1868.6
3444.557	1834.6
3447.483	1779.6
3450.407	1724.6
3453.328	1655.6
3456.247	1602.6
3459.164	1553.6
3462.079	1504.6
3464.991	1458.6
3467.902	1389.6
3470.809	1357.6
3473.715	1304.6
3476.618	1243.6
3479.519	1215.6
3482.418	1173.6
3485.315	1119.6
3488.209	1100.6
3491.101	1047.6
3493.99	1012.6
3496.878	992.6
3499.763	932.6
3502.646	899.6
3505.527	853.6
3508.405	820.6
3511.281	771.6
3514.155	732.6
3517.027	699.6
3519.897	650.6
3522.764	616.6
3525.629	567.6
3528.492	497.6
3531.352	477.6
3534.211	424.6
3537.067	405.6
3539.921	351.6
3542.773	316.6
3545.622	285.6
3548.469	253.6
3551.315	227.6
3554.157	194.6
3556.998	159.6
3559.837	140.6
3562.673	121.6
3565.507	85.6
3568.339	67.6
3571.169	49.6
3573.996	28.6
3576.822	8.6
3579.645	-25.4
3582.466	-39.4
3585.285	-69.4
3588.101	-96.4
3590.916	-109.4
3593.728	-133.4
3596.538	-141.4
3599.346	-164.4
3602.152	-195.4
3604.956	-209.4
3607.757	-228.4
3610.556	-240.4
3613.354	-251.4
3616.149	-269.4
3618.942	-274.4
3621.732	-290.4
3624.521	-298.4
3627.307	-313.4
3630.092	-329.4
3632.874	-332.4
3635.654	-351.4
3638.432	-355.4
3641.208	-362.4
3643.982	-376.4
3646.753	-377.4
3649.523	-398.4
3652.29	-404.4
3655.055	-414.4
3657.818	-428.4
3660.579	-437.4
3663.338	-452.4
3666.095	-458.4
3668.849	-464.4
3671.602	-476.4
3674.352	-487.4
3677.101	-491.4
3679.847	-503.4
3682.591	-504.4
3685.333	-510.4
3688.073	-521.4
3690.811	-533.4
3693.547	-531.4
3696.281	-531.4
3699.013	-543.4
3701.742	-548.4
3704.47	-550.4
3707.195	-564.4
3709.919	-556.4
3712.64	-570.4
3715.359	-568.4
3718.076	-573.4
3720.792	-578.4
3723.505	-580.4
3726.216	-589.4
3728.925	-584.4
3731.632	-593.4
3734.336	-588.4
3737.039	-600.4
3739.74	-597.4
3742.439	-600.4
3745.136	-607.4
3747.83	-613.4
3750.523	-609.4
3753.213	-596.4
3755.902	-613.4
3758.589	-609.4
3761.273	-622.4
3763.956	-622.4
3766.636	-620.4
3769.315	-625.4
3771.991	-618.4
3774.665	-629.4
3777.338	-624.4
3780.008	-631.4
3782.677	-630.4
3785.343	-621.4
3788.007	-631.4
3790.67	-631.4
3793.33	-639.4
3795.989	-643.4
3798.645	-632.4
3801.299	-636.4
3803.952	-646.4
3806.602	-654.4
3809.251	-648.4
3811.897	-649.4
3814.542	-647.4
3817.184	-642.4
3819.825	-646.4
3822.463	-644.4
3825.1	-651.4
3827.735	-646.4
3830.367	-644.4
3832.998	-653.4
3835.627	-655.4
3838.253	-655.4
3840.878	-660.4
3843.501	-651.4
3846.122	-645.4
3848.741	-652.4
3851.358	-657.4
3853.973	-654.4
3856.586	-657.4
3859.197	-663.4
3861.806	-660.4
3864.414	-660.4
3867.019	-654.4
3869.622	-656.4
3872.224	-653.4
3874.823	-643.4
3877.421	-627.4
3880.016	-607.4
3882.61	-588.4
3885.202	-594.4
3887.792	-607.4
3890.38	-637.4
3892.966	-650.4
3895.55	-662.4
3898.132	-673.4
3900.713	-675.4
3903.291	-671.4
3905.868	-670.4
3908.442	-673.4
3911.015	-671.4
3913.586	-666.4
3916.155	-668.4
3918.722	-670.4
3921.287	-676.4
3923.85	-674.4
3926.411	-677.4
3928.971	-685.4
3931.528	-679.4
3934.084	-680.4
3936.638	-675.4
3939.19	-676.4
3941.74	-675.4
3944.288	-684.4
3946.834	-672.4
3949.378	-680.4
3951.921	-678.4
3954.462	-678.4
3957	-678.4
3959.537	-679.4
3962.072	-674.4
3964.606	-672.4
3967.137	-678.4
3969.667	-679.4
3972.194	-669.4
3974.72	-671.4
3977.244	-662.4
3979.766	-659.4
3982.286	-665.4
3984.805	-662.4
3987.321	-662.4
3989.836	-664.4
3992.349	-656.4
3994.86	-662.4
3997.369	-668.4
3999.877	-656.4
4002.382	-663.4
4004.886	-657.4
4007.388	-656.4
4009.888	-657.4
4012.386	-668.4
4014.883	-660.4
4017.377	-660.4
4019.87	-665.4
4022.361	-662.4
4024.85	-656.4
4027.338	-658.4
4029.823	-664.4
4032.307	-666.4
4034.789	-657.4
4037.269	-661.4
4039.747	-662.4
4042.224	-667.4
4044.699	-668.4
4047.172	-661.4
4049.643	-660.4
4052.112	-666.4
4054.58	-668.4
4057.046	-669.4
4059.51	-674.4
4061.972	-664.4
4064.432	-671.4
4066.891	-671.4
4069.348	-660.4
4071.803	-659.4
4074.256	-658.4
4076.708	-661.4
4079.158	-663.4
4081.606	-665.4
4084.052	-668.4
4086.497	-666.4
4088.939	-658.4
4091.38	-661.4
4093.819	-659.4
4096.257	-699.4
4098.693	-700.4
4101.127	-702.4
4103.559	-698.4
4105.989	-406.4
4108.418	-377.4
4110.845	-352.4
4113.27	-327.4
4115.694	-282.4
4118.115	-243.4
4120.535	-664.4
4122.954	-660.4
4125.37	-654.4
4127.785	-664.4
4130.198	-664.4
4132.609	-662.4
4135.019	-702.4
4137.427	-703.4
4139.833	-703.4
4142.237	-700.4
