Data from 2018-2-14_conc=2_n=4_RamanShift_06.txt Node
Date: Wed Feb 14 11:12:56 IST 2018
User: aro
Spectrometer: QEPB0276
Trigger mode: 0
Integration Time (sec): 3.000000E1
Scans to average: 1
Electric dark correction enabled: true
Nonlinearity correction enabled: false
Boxcar width: 0
XAxis mode: Raman Shifts
Number of Pixels in Spectrum: 1044
>>>>>Begin Spectral Data<<<<<
160.701	-137.5
166.742	49.5
172.777	586.5
178.805	2207.5
184.826	6149.5
190.841	12916.5
196.849	20798.5
202.85	26412.5
208.845	28350.5
214.833	28031.5
220.815	27518.5
226.789	27202.5
232.758	27059.5
238.719	26882.5
244.674	26522.5
250.623	25990.5
256.565	25371.5
262.5	24829.5
268.429	24362.5
274.351	24044.5
280.267	23627.5
286.176	23366.5
292.079	23123.5
297.975	22823.5
303.865	22633.5
309.748	22438.5
315.625	22305.5
321.495	22143.5
327.359	22075.5
333.217	21967.5
339.068	21986.5
344.912	22008.5
350.751	21966.5
356.583	21897.5
362.408	21872.5
368.227	21828.5
374.04	21879.5
379.847	21932.5
385.647	22097.5
391.44	22162.5
397.228	22216.5
403.009	22338.5
408.784	22435.5
414.553	22413.5
420.315	22471.5
426.071	22484.5
431.821	22512.5
437.565	22504.5
443.302	22449.5
449.033	22367.5
454.758	22397.5
460.477	22240.5
466.189	22239.5
471.896	22196.5
477.596	22098.5
483.29	22083.5
488.978	22035.5
494.66	21985.5
500.335	21789.5
506.005	21688.5
511.668	21361.5
517.325	21050.5
522.977	20915.5
528.622	20720.5
534.261	20585.5
539.894	20490.5
545.521	20387.5
551.141	20347.5
556.756	20232.5
562.365	20231.5
567.968	20071.5
573.565	19990.5
579.155	19950.5
584.74	19835.5
590.319	19791.5
595.892	19728.5
601.459	19658.5
607.02	19566.5
612.575	19400.5
618.124	19325.5
623.667	19203.5
629.204	19136.5
634.735	19039.5
640.261	18962.5
645.781	18915.5
651.294	18886.5
656.802	18824.5
662.304	18739.5
667.8	18748.5
673.29	18694.5
678.775	18679.5
684.254	18617.5
689.726	18597.5
695.193	18554.5
700.655	18428.5
706.11	18317.5
711.56	18240.5
717.004	18150.5
722.442	18100.5
727.874	17976.5
733.301	17943.5
738.722	17890.5
744.137	17881.5
749.547	17839.5
754.951	17832.5
760.349	17909.5
765.741	17895.5
771.128	17892.5
776.509	17881.5
781.885	17898.5
787.254	17866.5
792.618	17772.5
797.977	17633.5
803.33	17503.5
808.677	17486.5
814.019	17378.5
819.355	17232.5
824.686	17232.5
830.011	17193.5
835.33	17171.5
840.644	17222.5
845.952	17224.5
851.255	17233.5
856.552	17292.5
861.844	17214.5
867.13	17154.5
872.41	17142.5
877.686	17062.5
882.955	16930.5
888.219	16801.5
893.478	16589.5
898.731	16330.5
903.979	16203.5
909.221	16033.5
914.458	16060.5
919.69	16023.5
924.916	16027.5
930.136	16131.5
935.351	16135.5
940.561	16128.5
945.766	16106.5
950.965	16052.5
956.158	15929.5
961.347	15767.5
966.529	15544.5
971.707	15335.5
976.879	15134.5
982.046	15078.5
987.208	15020.5
992.364	15042.5
997.515	15104.5
1002.66	15259.5
1007.801	15458.5
1012.936	15504.5
1018.066	15504.5
1023.19	15516.5
1028.309	15506.5
1033.423	15483.5
1038.532	15415.5
1043.636	15294.5
1048.734	15083.5
1053.827	14894.5
1058.915	14734.5
1063.998	14631.5
1069.075	14671.5
1074.147	14685.5
1079.214	14726.5
1084.276	14784.5
1089.333	14912.5
1094.385	14947.5
1099.431	14995.5
1104.472	14988.5
1109.509	14886.5
1114.54	14770.5
1119.565	14530.5
1124.586	14335.5
1129.602	14234.5
1134.613	14180.5
1139.618	14032.5
1144.619	14020.5
1149.614	14003.5
1154.604	14055.5
1159.589	14095.5
1164.57	14105.5
1169.545	14152.5
1174.515	14141.5
1179.48	14073.5
1184.44	13974.5
1189.395	13813.5
1194.345	13744.5
1199.29	13733.5
1204.23	13714.5
1209.165	13805.5
1214.095	13820.5
1219.021	13892.5
1223.941	13986.5
1228.856	14069.5
1233.766	14108.5
1238.672	14087.5
1243.572	14137.5
1248.467	14019.5
1253.358	13866.5
1258.244	13687.5
1263.124	13479.5
1268	13262.5
1272.871	13148.5
1277.737	13050.5
1282.599	12984.5
1287.455	12957.5
1292.306	12989.5
1297.153	13028.5
1301.995	13138.5
1306.832	13170.5
1311.664	13148.5
1316.491	13135.5
1321.314	13017.5
1326.132	12819.5
1330.945	12573.5
1335.753	12243.5
1340.556	11917.5
1345.354	11677.5
1350.148	11436.5
1354.937	11396.5
1359.722	11410.5
1364.501	11417.5
1369.276	11652.5
1374.046	11778.5
1378.811	11963.5
1383.572	12099.5
1388.327	12076.5
1393.079	12054.5
1397.825	11939.5
1402.567	11741.5
1407.304	11553.5
1412.036	11487.5
1416.764	11397.5
1421.487	11329.5
1426.205	11226.5
1430.919	11203.5
1435.628	11208.5
1440.333	11225.5
1445.032	11291.5
1449.727	11285.5
1454.418	11280.5
1459.104	11125.5
1463.785	10959.5
1468.462	10737.5
1473.134	10497.5
1477.802	10269.5
1482.465	10085.5
1487.123	10022.5
1491.777	9963.5
1496.426	10011.5
1501.071	10120.5
1505.711	10352.5
1510.347	10496.5
1514.978	10668.5
1519.604	10842.5
1524.226	10905.5
1528.844	10984.5
1533.457	10942.5
1538.065	10947.5
1542.669	10876.5
1547.269	10731.5
1551.864	10679.5
1556.454	10663.5
1561.041	10649.5
1565.622	10629.5
1570.199	10663.5
1574.772	10739.5
1579.34	10792.5
1583.904	10859.5
1588.464	10869.5
1593.019	10877.5
1597.569	10880.5
1602.115	10794.5
1606.657	10711.5
1611.195	10705.5
1615.728	10579.5
1620.256	10563.5
1624.78	10512.5
1629.3	10541.5
1633.816	10596.5
1638.327	10662.5
1642.834	10731.5
1647.336	10714.5
1651.834	10772.5
1656.328	10776.5
1660.817	10672.5
1665.302	10568.5
1669.783	10396.5
1674.259	10177.5
1678.732	9884.5
1683.199	9477.5
1687.663	9150.5
1692.122	8911.5
1696.577	8799.5
1701.028	8798.5
1705.474	8862.5
1709.917	8974.5
1714.355	8983.5
1718.788	8968.5
1723.218	8788.5
1727.643	8650.5
1732.064	8460.5
1736.481	8299.5
1740.893	8089.5
1745.301	7853.5
1749.705	7667.5
1754.105	7425.5
1758.501	7209.5
1762.893	7030.5
1767.28	6823.5
1771.663	6668.5
1776.042	6551.5
1780.417	6503.5
1784.787	6492.5
1789.154	6612.5
1793.516	6704.5
1797.874	6854.5
1802.228	6992.5
1806.578	7066.5
1810.924	7108.5
1815.266	7000.5
1819.603	6941.5
1823.937	6795.5
1828.266	6691.5
1832.591	6592.5
1836.913	6491.5
1841.23	6425.5
1845.543	6406.5
1849.852	6347.5
1854.156	6312.5
1858.457	6287.5
1862.754	6284.5
1867.047	6296.5
1871.335	6282.5
1875.62	6272.5
1879.9	6222.5
1884.177	6192.5
1888.449	6177.5
1892.718	6078.5
1896.982	6027.5
1901.243	5979.5
1905.499	5929.5
1909.752	5921.5
1914	5908.5
1918.245	5925.5
1922.485	5984.5
1926.722	6032.5
1930.954	6120.5
1935.183	6194.5
1939.408	6274.5
1943.628	6302.5
1947.845	6333.5
1952.058	6298.5
1956.267	6264.5
1960.472	6198.5
1964.673	6084.5
1968.87	6011.5
1973.063	5925.5
1977.252	5818.5
1981.438	5756.5
1985.619	5717.5
1989.797	5664.5
1993.971	5625.5
1998.14	5623.5
2002.306	5578.5
2006.469	5555.5
2010.627	5526.5
2014.781	5477.5
2018.932	5427.5
2023.078	5411.5
2027.221	5339.5
2031.36	5243.5
2035.495	5189.5
2039.627	5081.5
2043.754	5051.5
2047.878	4989.5
2051.998	4980.5
2056.114	4940.5
2060.226	4921.5
2064.334	4962.5
2068.439	4965.5
2072.54	4972.5
2076.637	5021.5
2080.73	5044.5
2084.82	5092.5
2088.906	5105.5
2092.988	5105.5
2097.066	5092.5
2101.14	5071.5
2105.211	5046.5
2109.278	5022.5
2113.342	4982.5
2117.401	4950.5
2121.457	4956.5
2125.509	4915.5
2129.558	4892.5
2133.602	4837.5
2137.643	4850.5
2141.681	4807.5
2145.714	4796.5
2149.744	4727.5
2153.77	4722.5
2157.793	4690.5
2161.812	4632.5
2165.827	4542.5
2169.838	4463.5
2173.846	4414.5
2177.851	4348.5
2181.851	4264.5
2185.848	4234.5
2189.841	4178.5
2193.831	4141.5
2197.817	4106.5
2201.799	4076.5
2205.778	4029.5
2209.753	4040.5
2213.725	4022.5
2217.693	4019.5
2221.657	4006.5
2225.618	4000.5
2229.575	3973.5
2233.529	3961.5
2237.479	3930.5
2241.425	3887.5
2245.368	3809.5
2249.307	3752.5
2253.243	3717.5
2257.175	3673.5
2261.104	3613.5
2265.029	3600.5
2268.95	3548.5
2272.868	3505.5
2276.783	3502.5
2280.694	3412.5
2284.601	3416.5
2288.505	3358.5
2292.405	3354.5
2296.302	3310.5
2300.195	3261.5
2304.085	3230.5
2307.971	3181.5
2311.854	3117.5
2315.734	3096.5
2319.609	3069.5
2323.482	3026.5
2327.351	2961.5
2331.216	2985.5
2335.078	2974.5
2338.937	2928.5
2342.792	2911.5
2346.643	2927.5
2350.492	2891.5
2354.336	2916.5
2358.178	2904.5
2362.015	2918.5
2365.85	2937.5
2369.681	2918.5
2373.508	2934.5
2377.333	2930.5
2381.153	2884.5
2384.971	2882.5
2388.785	2908.5
2392.595	2863.5
2396.402	2835.5
2400.206	2811.5
2404.007	2791.5
2407.804	2748.5
2411.597	2754.5
2415.388	2747.5
2419.174	2735.5
2422.958	2706.5
2426.738	2691.5
2430.515	2660.5
2434.289	2633.5
2438.059	2626.5
2441.825	2610.5
2445.589	2567.5
2449.349	2560.5
2453.106	2521.5
2456.859	2488.5
2460.61	2434.5
2464.356	2449.5
2468.1	2391.5
2471.84	2370.5
2475.577	2345.5
2479.311	2358.5
2483.041	2317.5
2486.768	2317.5
2490.492	2288.5
2494.213	2325.5
2497.93	2311.5
2501.644	2296.5
2505.355	2270.5
2509.062	2272.5
2512.766	2252.5
2516.467	2258.5
2520.165	2240.5
2523.859	2214.5
2527.551	2189.5
2531.239	2199.5
2534.923	2194.5
2538.605	2171.5
2542.283	2166.5
2545.958	2153.5
2549.63	2167.5
2553.299	2156.5
2556.964	2146.5
2560.626	2130.5
2564.285	2139.5
2567.941	2133.5
2571.594	2091.5
2575.243	2080.5
2578.89	2086.5
2582.533	2067.5
2586.173	2048.5
2589.809	2033.5
2593.443	2031.5
2597.073	2002.5
2600.701	1981.5
2604.325	1977.5
2607.946	1947.5
2611.564	1940.5
2615.178	1929.5
2618.79	1937.5
2622.398	1918.5
2626.004	1907.5
2629.606	1844.5
2633.205	1846.5
2636.801	1819.5
2640.394	1816.5
2643.983	1776.5
2647.57	1761.5
2651.153	1707.5
2654.734	1687.5
2658.311	1671.5
2661.885	1638.5
2665.456	1635.5
2669.025	1604.5
2672.589	1592.5
2676.151	1579.5
2679.71	1562.5
2683.266	1521.5
2686.819	1496.5
2690.368	1479.5
2693.915	1450.5
2697.458	1417.5
2700.999	1386.5
2704.536	1355.5
2708.071	1307.5
2711.602	1302.5
2715.13	1260.5
2718.656	1255.5
2722.178	1209.5
2725.697	1198.5
2729.214	1203.5
2732.727	1171.5
2736.237	1178.5
2739.744	1171.5
2743.249	1179.5
2746.75	1186.5
2750.248	1206.5
2753.743	1208.5
2757.236	1233.5
2760.725	1248.5
2764.211	1259.5
2767.695	1258.5
2771.175	1267.5
2774.652	1250.5
2778.127	1227.5
2781.598	1241.5
2785.067	1222.5
2788.532	1229.5
2791.995	1220.5
2795.455	1225.5
2798.911	1228.5
2802.365	1222.5
2805.816	1205.5
2809.264	1222.5
2812.709	1202.5
2816.151	1206.5
2819.59	1222.5
2823.026	1193.5
2826.46	1211.5
2829.89	1225.5
2833.318	1214.5
2836.742	1226.5
2840.164	1232.5
2843.583	1240.5
2846.999	1256.5
2850.412	1258.5
2853.822	1287.5
2857.229	1291.5
2860.634	1307.5
2864.035	1338.5
2867.434	1339.5
2870.83	1378.5
2874.223	1382.5
2877.613	1413.5
2881	1401.5
2884.385	1440.5
2887.766	1443.5
2891.145	1429.5
2894.521	1403.5
2897.894	1414.5
2901.264	1419.5
2904.631	1404.5
2907.996	1434.5
2911.358	1433.5
2914.717	1442.5
2918.073	1429.5
2921.426	1440.5
2924.777	1473.5
2928.124	1501.5
2931.469	1549.5
2934.811	1536.5
2938.15	1551.5
2941.487	1566.5
2944.821	1560.5
2948.152	1572.5
2951.48	1567.5
2954.805	1562.5
2958.128	1533.5
2961.447	1518.5
2964.765	1538.5
2968.079	1536.5
2971.39	1522.5
2974.699	1551.5
2978.005	1567.5
2981.308	1592.5
2984.609	1611.5
2987.907	1669.5
2991.202	1672.5
2994.494	1716.5
2997.784	1746.5
3001.07	1773.5
3004.355	1818.5
3007.636	1839.5
3010.915	1865.5
3014.191	1872.5
3017.464	1876.5
3020.734	1886.5
3024.002	1898.5
3027.267	1892.5
3030.53	1917.5
3033.789	1948.5
3037.046	1974.5
3040.301	2005.5
3043.552	2032.5
3046.801	2053.5
3050.048	2126.5
3053.291	2141.5
3056.532	2222.5
3059.771	2268.5
3063.006	2346.5
3066.239	2403.5
3069.469	2469.5
3072.697	2531.5
3075.922	2602.5
3079.144	2654.5
3082.364	2710.5
3085.581	2761.5
3088.795	2812.5
3092.007	2887.5
3095.216	2964.5
3098.423	3011.5
3101.627	3093.5
3104.828	3137.5
3108.026	3197.5
3111.222	3269.5
3114.416	3338.5
3117.607	3418.5
3120.795	3510.5
3123.98	3595.5
3127.163	3662.5
3130.344	3725.5
3133.521	3815.5
3136.696	3925.5
3139.869	3982.5
3143.039	4024.5
3146.206	4107.5
3149.371	4148.5
3152.533	4192.5
3155.693	4228.5
3158.85	4252.5
3162.005	4254.5
3165.157	4301.5
3168.306	4265.5
3171.453	4301.5
3174.597	4280.5
3177.739	4362.5
3180.878	4321.5
3184.014	4333.5
3187.149	4316.5
3190.28	4322.5
3193.409	4313.5
3196.536	4339.5
3199.659	4336.5
3202.781	4343.5
3205.9	4340.5
3209.016	4354.5
3212.13	4337.5
3215.241	4285.5
3218.35	4281.5
3221.456	4204.5
3224.56	4144.5
3227.661	4118.5
3230.76	4092.5
3233.856	4042.5
3236.95	4022.5
3240.041	3968.5
3243.13	3961.5
3246.216	3917.5
3249.3	3903.5
3252.382	3884.5
3255.46	3882.5
3258.537	3840.5
3261.611	3827.5
3264.682	3838.5
3267.751	3860.5
3270.818	3845.5
3273.882	3830.5
3276.943	3797.5
3280.002	3770.5
3283.059	3745.5
3286.113	3704.5
3289.165	3632.5
3292.214	3593.5
3295.261	3542.5
3298.306	3504.5
3301.348	3416.5
3304.387	3376.5
3307.425	3331.5
3310.459	3274.5
3313.492	3236.5
3316.521	3207.5
3319.549	3145.5
3322.574	3161.5
3325.597	3083.5
3328.617	3063.5
3331.635	3053.5
3334.65	3046.5
3337.663	3027.5
3340.674	3000.5
3343.682	3005.5
3346.688	2994.5
3349.691	2972.5
3352.692	2966.5
3355.691	2901.5
3358.687	2922.5
3361.681	2859.5
3364.673	2821.5
3367.662	2799.5
3370.649	2759.5
3373.633	2714.5
3376.615	2683.5
3379.595	2623.5
3382.572	2603.5
3385.547	2585.5
3388.52	2526.5
3391.49	2492.5
3394.458	2450.5
3397.424	2430.5
3400.387	2396.5
3403.348	2361.5
3406.307	2352.5
3409.263	2302.5
3412.217	2311.5
3415.168	2254.5
3418.118	2230.5
3421.065	2219.5
3424.009	2167.5
3426.951	2134.5
3429.891	2102.5
3432.829	2050.5
3435.764	2007.5
3438.697	1948.5
3441.628	1906.5
3444.557	1849.5
3447.483	1779.5
3450.407	1730.5
3453.328	1681.5
3456.247	1614.5
3459.164	1570.5
3462.079	1507.5
3464.991	1464.5
3467.902	1411.5
3470.809	1355.5
3473.715	1302.5
3476.618	1273.5
3479.519	1218.5
3482.418	1209.5
3485.315	1133.5
3488.209	1105.5
3491.101	1056.5
3493.99	1020.5
3496.878	974.5
3499.763	961.5
3502.646	916.5
3505.527	859.5
3508.405	833.5
3511.281	791.5
3514.155	750.5
3517.027	711.5
3519.897	668.5
3522.764	610.5
3525.629	583.5
3528.492	524.5
3531.352	492.5
3534.211	447.5
3537.067	416.5
3539.921	383.5
3542.773	333.5
3545.622	289.5
3548.469	258.5
3551.315	246.5
3554.157	206.5
3556.998	182.5
3559.837	167.5
3562.673	125.5
3565.507	113.5
3568.339	71.5
3571.169	59.5
3573.996	49.5
3576.822	16.5
3579.645	-2.5
3582.466	-26.5
3585.285	-38.5
3588.101	-72.5
3590.916	-102.5
3593.728	-104.5
3596.538	-124.5
3599.346	-140.5
3602.152	-168.5
3604.956	-174.5
3607.757	-191.5
3610.556	-218.5
3613.354	-236.5
3616.149	-241.5
3618.942	-252.5
3621.732	-264.5
3624.521	-293.5
3627.307	-292.5
3630.092	-300.5
3632.874	-313.5
3635.654	-322.5
3638.432	-326.5
3641.208	-342.5
3643.982	-359.5
3646.753	-357.5
3649.523	-370.5
3652.29	-380.5
3655.055	-387.5
3657.818	-405.5
3660.579	-410.5
3663.338	-419.5
3666.095	-432.5
3668.849	-440.5
3671.602	-451.5
3674.352	-460.5
3677.101	-470.5
3679.847	-469.5
3682.591	-485.5
3685.333	-492.5
3688.073	-493.5
3690.811	-503.5
3693.547	-504.5
3696.281	-514.5
3699.013	-517.5
3701.742	-524.5
3704.47	-515.5
3707.195	-538.5
3709.919	-532.5
3712.64	-541.5
3715.359	-544.5
3718.076	-547.5
3720.792	-546.5
3723.505	-546.5
3726.216	-569.5
3728.925	-555.5
3731.632	-566.5
3734.336	-563.5
3737.039	-569.5
3739.74	-566.5
3742.439	-575.5
3745.136	-578.5
3747.83	-582.5
3750.523	-575.5
3753.213	-573.5
3755.902	-586.5
3758.589	-591.5
3761.273	-589.5
3763.956	-585.5
3766.636	-593.5
3769.315	-599.5
3771.991	-596.5
3774.665	-604.5
3777.338	-604.5
3780.008	-605.5
3782.677	-609.5
3785.343	-600.5
3788.007	-607.5
3790.67	-603.5
3793.33	-599.5
3795.989	-609.5
3798.645	-609.5
3801.299	-607.5
3803.952	-622.5
3806.602	-631.5
3809.251	-624.5
3811.897	-621.5
3814.542	-621.5
3817.184	-618.5
3819.825	-617.5
3822.463	-617.5
3825.1	-629.5
3827.735	-618.5
3830.367	-617.5
3832.998	-630.5
3835.627	-631.5
3838.253	-627.5
3840.878	-631.5
3843.501	-631.5
3846.122	-624.5
3848.741	-629.5
3851.358	-626.5
3853.973	-629.5
3856.586	-632.5
3859.197	-636.5
3861.806	-639.5
3864.414	-631.5
3867.019	-628.5
3869.622	-634.5
3872.224	-624.5
3874.823	-611.5
3877.421	-587.5
3880.016	-581.5
3882.61	-556.5
3885.202	-548.5
3887.792	-565.5
3890.38	-597.5
3892.966	-624.5
3895.55	-637.5
3898.132	-650.5
3900.713	-653.5
3903.291	-645.5
3905.868	-645.5
3908.442	-649.5
3911.015	-644.5
3913.586	-641.5
3916.155	-642.5
3918.722	-646.5
3921.287	-650.5
3923.85	-652.5
3926.411	-652.5
3928.971	-661.5
3931.528	-650.5
3934.084	-653.5
3936.638	-648.5
3939.19	-655.5
3941.74	-647.5
3944.288	-655.5
3946.834	-646.5
3949.378	-647.5
3951.921	-649.5
3954.462	-653.5
3957	-650.5
3959.537	-644.5
3962.072	-647.5
3964.606	-650.5
3967.137	-650.5
3969.667	-654.5
3972.194	-648.5
3974.72	-651.5
3977.244	-640.5
3979.766	-637.5
3982.286	-641.5
3984.805	-639.5
3987.321	-635.5
3989.836	-643.5
3992.349	-631.5
3994.86	-634.5
3997.369	-642.5
3999.877	-635.5
4002.382	-629.5
4004.886	-633.5
4007.388	-633.5
4009.888	-630.5
4012.386	-641.5
4014.883	-637.5
4017.377	-632.5
4019.87	-635.5
4022.361	-627.5
4024.85	-637.5
4027.338	-637.5
4029.823	-635.5
4032.307	-646.5
4034.789	-632.5
4037.269	-632.5
4039.747	-641.5
4042.224	-639.5
4044.699	-643.5
4047.172	-637.5
4049.643	-638.5
4052.112	-642.5
4054.58	-640.5
4057.046	-640.5
4059.51	-645.5
4061.972	-643.5
4064.432	-641.5
4066.891	-638.5
4069.348	-636.5
4071.803	-636.5
4074.256	-644.5
4076.708	-638.5
4079.158	-644.5
4081.606	-644.5
4084.052	-647.5
4086.497	-642.5
4088.939	-632.5
4091.38	-644.5
4093.819	-633.5
4096.257	-671.5
4098.693	-672.5
4101.127	-674.5
4103.559	-674.5
4105.989	-384.5
4108.418	-362.5
4110.845	-346.5
4113.27	-311.5
4115.694	-280.5
4118.115	-234.5
4120.535	-637.5
4122.954	-634.5
4125.37	-628.5
4127.785	-639.5
4130.198	-639.5
4132.609	-642.5
4135.019	-676.5
4137.427	-675.5
4139.833	-679.5
4142.237	-674.5
