Data from 2018-2-14_ethanol_n=1_RamanShift_03.txt Node
Date: Wed Feb 14 10:22:56 IST 2018
User: aro
Spectrometer: QEPB0276
Trigger mode: 0
Integration Time (sec): 3.000000E1
Scans to average: 1
Electric dark correction enabled: true
Nonlinearity correction enabled: false
Boxcar width: 0
XAxis mode: Raman Shifts
Number of Pixels in Spectrum: 1044
>>>>>Begin Spectral Data<<<<<
160.701	-42.5
166.742	35.5
172.777	241.5
178.805	890.5
184.826	2360.5
190.841	4791.5
196.849	7453.5
202.85	9170.5
208.845	9645.5
214.833	9402.5
220.815	9167.5
226.789	9057.5
232.758	8997.5
238.719	8908.5
244.674	8814.5
250.623	8775.5
256.565	8769.5
262.5	8691.5
268.429	8685.5
274.351	8637.5
280.267	8499.5
286.176	8333.5
292.079	8088.5
297.975	7838.5
303.865	7527.5
309.748	7272.5
315.625	7049.5
321.495	6902.5
327.359	6746.5
333.217	6680.5
339.068	6612.5
344.912	6538.5
350.751	6543.5
356.583	6571.5
362.408	6644.5
368.227	6708.5
374.04	6825.5
379.847	7006.5
385.647	7223.5
391.44	7552.5
397.228	7910.5
403.009	8502.5
408.784	9321.5
414.553	10712.5
420.315	12980.5
426.071	16328.5
431.821	19931.5
437.565	22473.5
443.302	22244.5
449.033	19796.5
454.758	16587.5
460.477	13669.5
466.189	11487.5
471.896	9891.5
477.596	8832.5
483.29	8072.5
488.978	7567.5
494.66	7162.5
500.335	6782.5
506.005	6440.5
511.668	6050.5
517.325	5808.5
522.977	5563.5
528.622	5414.5
534.261	5265.5
539.894	5168.5
545.521	5098.5
551.141	5073.5
556.756	5006.5
562.365	4999.5
567.968	4940.5
573.565	4938.5
579.155	4920.5
584.74	4930.5
590.319	4938.5
595.892	4944.5
601.459	4955.5
607.02	4930.5
612.575	4913.5
618.124	4911.5
623.667	4886.5
629.204	4814.5
634.735	4822.5
640.261	4771.5
645.781	4800.5
651.294	4764.5
656.802	4746.5
662.304	4786.5
667.8	4754.5
673.29	4773.5
678.775	4775.5
684.254	4766.5
689.726	4734.5
695.193	4719.5
700.655	4716.5
706.11	4697.5
711.56	4650.5
717.004	4670.5
722.442	4671.5
727.874	4694.5
733.301	4695.5
738.722	4746.5
744.137	4760.5
749.547	4787.5
754.951	4848.5
760.349	4926.5
765.741	5045.5
771.128	5131.5
776.509	5276.5
781.885	5421.5
787.254	5616.5
792.618	5810.5
797.977	6085.5
803.33	6397.5
808.677	6724.5
814.019	7002.5
819.355	7162.5
824.686	7260.5
830.011	7464.5
835.33	7874.5
840.644	8479.5
845.952	9321.5
851.255	10669.5
856.552	12753.5
861.844	16266.5
867.13	23266.5
872.41	38264.5
877.686	62797.5
882.955	62797.5
888.219	62795.5
893.478	62794.5
898.731	62800.5
903.979	53496.5
909.221	22836.5
914.458	15837.5
919.69	12315.5
924.916	10314.5
930.136	9058.5
935.351	8228.5
940.561	7620.5
945.766	7200.5
950.965	6884.5
956.158	6631.5
961.347	6408.5
966.529	6321.5
971.707	6287.5
976.879	6273.5
982.046	6405.5
987.208	6590.5
992.364	6900.5
997.515	7378.5
1002.66	8046.5
1007.801	8887.5
1012.936	10182.5
1018.066	11883.5
1023.19	14398.5
1028.309	17801.5
1033.423	22221.5
1038.532	27684.5
1043.636	34534.5
1048.734	42242.5
1053.827	48609.5
1058.915	49428.5
1063.998	43576.5
1069.075	35720.5
1074.147	30808.5
1079.214	30508.5
1084.276	33575.5
1089.333	39565.5
1094.385	46674.5
1099.431	51288.5
1104.472	48980.5
1109.509	40658.5
1114.54	31489.5
1119.565	25580.5
1124.586	22147.5
1129.602	19469.5
1134.613	16796.5
1139.618	14137.5
1144.619	12120.5
1149.614	10635.5
1154.604	9643.5
1159.589	8969.5
1164.57	8319.5
1169.545	7737.5
1174.515	7182.5
1179.48	6727.5
1184.44	6399.5
1189.395	6170.5
1194.345	6013.5
1199.29	5939.5
1204.23	5906.5
1209.165	5949.5
1214.095	6075.5
1219.021	6223.5
1223.941	6478.5
1228.856	6823.5
1233.766	7258.5
1238.672	7721.5
1243.572	8270.5
1248.467	8893.5
1253.358	9639.5
1258.244	10671.5
1263.124	12375.5
1268	15060.5
1272.871	19008.5
1277.737	22945.5
1282.599	24518.5
1287.455	22387.5
1292.306	18267.5
1297.153	14714.5
1301.995	12410.5
1306.832	11071.5
1311.664	10226.5
1316.491	9662.5
1321.314	9225.5
1326.132	8873.5
1330.945	8647.5
1335.753	8411.5
1340.556	8244.5
1345.354	8183.5
1350.148	8237.5
1354.937	8339.5
1359.722	8630.5
1364.501	9017.5
1369.276	9548.5
1374.046	10329.5
1378.811	11373.5
1383.572	12511.5
1388.327	13305.5
1393.079	13793.5
1397.825	14106.5
1402.567	14510.5
1407.304	15215.5
1412.036	16225.5
1416.764	17398.5
1421.487	18921.5
1426.205	20627.5
1430.919	22787.5
1435.628	25848.5
1440.333	30188.5
1445.032	36640.5
1449.727	45288.5
1454.418	54222.5
1459.104	59051.5
1463.785	55962.5
1468.462	46900.5
1473.134	37426.5
1477.802	31607.5
1482.465	29027.5
1487.123	27622.5
1491.777	25577.5
1496.426	22323.5
1501.071	18970.5
1505.711	16188.5
1510.347	14287.5
1514.978	12911.5
1519.604	11858.5
1524.226	10950.5
1528.844	10170.5
1533.457	9379.5
1538.065	8713.5
1542.669	8093.5
1547.269	7531.5
1551.864	7074.5
1556.454	6693.5
1561.041	6305.5
1565.622	5941.5
1570.199	5690.5
1574.772	5437.5
1579.34	5206.5
1583.904	5021.5
1588.464	4784.5
1593.019	4630.5
1597.569	4446.5
1602.115	4340.5
1606.657	4189.5
1611.195	4145.5
1615.728	4142.5
1620.256	4094.5
1624.78	4030.5
1629.3	3902.5
1633.816	3720.5
1638.327	3577.5
1642.834	3457.5
1647.336	3355.5
1651.834	3318.5
1656.328	3267.5
1660.817	3227.5
1665.302	3162.5
1669.783	3126.5
1674.259	3100.5
1678.732	3049.5
1683.199	3006.5
1687.663	2949.5
1692.122	2929.5
1696.577	2929.5
1701.028	2960.5
1705.474	2993.5
1709.917	3032.5
1714.355	3050.5
1718.788	3038.5
1723.218	2974.5
1727.643	2905.5
1732.064	2819.5
1736.481	2730.5
1740.893	2621.5
1745.301	2501.5
1749.705	2427.5
1754.105	2317.5
1758.501	2242.5
1762.893	2167.5
1767.28	2104.5
1771.663	2010.5
1776.042	1964.5
1780.417	1923.5
1784.787	1890.5
1789.154	1917.5
1793.516	1939.5
1797.874	1977.5
1802.228	1982.5
1806.578	2014.5
1810.924	2005.5
1815.266	1965.5
1819.603	1935.5
1823.937	1886.5
1828.266	1881.5
1832.591	1837.5
1836.913	1818.5
1841.23	1802.5
1845.543	1769.5
1849.852	1793.5
1854.156	1761.5
1858.457	1784.5
1862.754	1770.5
1867.047	1807.5
1871.335	1809.5
1875.62	1788.5
1879.9	1805.5
1884.177	1819.5
1888.449	1831.5
1892.718	1809.5
1896.982	1766.5
1901.243	1775.5
1905.499	1733.5
1909.752	1753.5
1914	1756.5
1918.245	1774.5
1922.485	1786.5
1926.722	1798.5
1930.954	1806.5
1935.183	1839.5
1939.408	1856.5
1943.628	1849.5
1947.845	1863.5
1952.058	1856.5
1956.267	1846.5
1960.472	1823.5
1964.673	1828.5
1968.87	1787.5
1973.063	1759.5
1977.252	1728.5
1981.438	1721.5
1985.619	1680.5
1989.797	1649.5
1993.971	1614.5
1998.14	1610.5
2002.306	1584.5
2006.469	1588.5
2010.627	1552.5
2014.781	1538.5
2018.932	1530.5
2023.078	1515.5
2027.221	1481.5
2031.36	1457.5
2035.495	1455.5
2039.627	1429.5
2043.754	1406.5
2047.878	1406.5
2051.998	1408.5
2056.114	1427.5
2060.226	1426.5
2064.334	1428.5
2068.439	1445.5
2072.54	1506.5
2076.637	1534.5
2080.73	1592.5
2084.82	1645.5
2088.906	1680.5
2092.988	1714.5
2097.066	1707.5
2101.14	1715.5
2105.211	1695.5
2109.278	1651.5
2113.342	1603.5
2117.401	1593.5
2121.457	1571.5
2125.509	1581.5
2129.558	1570.5
2133.602	1587.5
2137.643	1564.5
2141.681	1555.5
2145.714	1562.5
2149.744	1525.5
2153.77	1513.5
2157.793	1506.5
2161.812	1523.5
2165.827	1528.5
2169.838	1501.5
2173.846	1494.5
2177.851	1484.5
2181.851	1479.5
2185.848	1495.5
2189.841	1465.5
2193.831	1450.5
2197.817	1442.5
2201.799	1444.5
2205.778	1432.5
2209.753	1431.5
2213.725	1431.5
2217.693	1446.5
2221.657	1486.5
2225.618	1508.5
2229.575	1501.5
2233.529	1511.5
2237.479	1540.5
2241.425	1565.5
2245.368	1570.5
2249.307	1604.5
2253.243	1626.5
2257.175	1649.5
2261.104	1650.5
2265.029	1631.5
2268.95	1601.5
2272.868	1605.5
2276.783	1630.5
2280.694	1649.5
2284.601	1663.5
2288.505	1660.5
2292.405	1630.5
2296.302	1589.5
2300.195	1559.5
2304.085	1508.5
2307.971	1472.5
2311.854	1419.5
2315.734	1404.5
2319.609	1403.5
2323.482	1365.5
2327.351	1352.5
2331.216	1355.5
2335.078	1340.5
2338.937	1319.5
2342.792	1303.5
2346.643	1296.5
2350.492	1285.5
2354.336	1290.5
2358.178	1300.5
2362.015	1310.5
2365.85	1306.5
2369.681	1280.5
2373.508	1282.5
2377.333	1269.5
2381.153	1281.5
2384.971	1247.5
2388.785	1256.5
2392.595	1244.5
2396.402	1268.5
2400.206	1254.5
2404.007	1276.5
2407.804	1271.5
2411.597	1287.5
2415.388	1296.5
2419.174	1295.5
2422.958	1325.5
2426.738	1322.5
2430.515	1349.5
2434.289	1350.5
2438.059	1368.5
2441.825	1346.5
2445.589	1363.5
2449.349	1376.5
2453.106	1389.5
2456.859	1380.5
2460.61	1401.5
2464.356	1422.5
2468.1	1426.5
2471.84	1419.5
2475.577	1435.5
2479.311	1428.5
2483.041	1442.5
2486.768	1437.5
2490.492	1431.5
2494.213	1448.5
2497.93	1454.5
2501.644	1464.5
2505.355	1468.5
2509.062	1513.5
2512.766	1536.5
2516.467	1584.5
2520.165	1586.5
2523.859	1646.5
2527.551	1705.5
2531.239	1759.5
2534.923	1837.5
2538.605	1934.5
2542.283	2044.5
2545.958	2127.5
2549.63	2182.5
2553.299	2231.5
2556.964	2214.5
2560.626	2178.5
2564.285	2129.5
2567.941	2107.5
2571.594	2038.5
2575.243	2037.5
2578.89	2048.5
2582.533	2042.5
2586.173	2030.5
2589.809	2043.5
2593.443	2074.5
2597.073	2067.5
2600.701	2089.5
2604.325	2069.5
2607.946	2087.5
2611.564	2074.5
2615.178	2058.5
2618.79	2054.5
2622.398	2063.5
2626.004	2050.5
2629.606	2041.5
2633.205	2068.5
2636.801	2064.5
2640.394	2100.5
2643.983	2103.5
2647.57	2169.5
2651.153	2178.5
2654.734	2191.5
2658.311	2260.5
2661.885	2296.5
2665.456	2359.5
2669.025	2418.5
2672.589	2496.5
2676.151	2611.5
2679.71	2733.5
2683.266	2870.5
2686.819	3072.5
2690.368	3284.5
2693.915	3579.5
2697.458	3912.5
2700.999	4306.5
2704.536	4798.5
2708.071	5296.5
2711.602	5805.5
2715.13	6163.5
2718.656	6387.5
2722.178	6518.5
2725.697	6494.5
2729.214	6350.5
2732.727	6138.5
2736.237	5955.5
2739.744	5781.5
2743.249	5764.5
2746.75	5845.5
2750.248	5926.5
2753.743	6072.5
2757.236	6040.5
2760.725	5938.5
2764.211	5713.5
2767.695	5559.5
2771.175	5417.5
2774.652	5302.5
2778.127	5281.5
2781.598	5293.5
2785.067	5376.5
2788.532	5495.5
2791.995	5721.5
2795.455	5951.5
2798.911	6329.5
2802.365	6675.5
2805.816	7137.5
2809.264	7662.5
2812.709	8268.5
2816.151	8973.5
2819.59	9802.5
2823.026	10776.5
2826.46	11872.5
2829.89	13026.5
2833.318	14319.5
2836.742	15464.5
2840.164	16534.5
2843.583	17315.5
2846.999	18224.5
2850.412	19202.5
2853.822	20440.5
2857.229	21934.5
2860.634	23953.5
2864.035	26455.5
2867.434	29686.5
2870.83	33468.5
2874.223	37744.5
2877.613	41668.5
2881	44218.5
2884.385	45130.5
2887.766	44642.5
2891.145	43433.5
2894.521	41885.5
2897.894	40289.5
2901.264	38671.5
2904.631	37332.5
2907.996	36342.5
2911.358	36078.5
2914.717	36649.5
2918.073	38295.5
2921.426	41131.5
2924.777	45320.5
2928.124	50214.5
2931.469	53822.5
2934.811	54422.5
2938.15	51339.5
2941.487	46244.5
2944.821	40780.5
2948.152	35922.5
2951.48	31694.5
2954.805	28440.5
2958.128	26011.5
2961.447	24573.5
2964.765	24018.5
2968.079	24124.5
2971.39	24646.5
2974.699	25042.5
2978.005	24935.5
2981.308	23859.5
2984.609	21904.5
2987.907	19592.5
2991.202	17171.5
2994.494	14955.5
2997.784	13114.5
3001.07	11604.5
3004.355	10313.5
3007.636	9269.5
3010.915	8381.5
3014.191	7577.5
3017.464	6867.5
3020.734	6266.5
3024.002	5722.5
3027.267	5311.5
3030.53	4881.5
3033.789	4521.5
3037.046	4215.5
3040.301	3921.5
3043.552	3678.5
3046.801	3477.5
3050.048	3288.5
3053.291	3096.5
3056.532	2934.5
3059.771	2786.5
3063.006	2674.5
3066.239	2563.5
3069.469	2445.5
3072.697	2320.5
3075.922	2247.5
3079.144	2128.5
3082.364	2060.5
3085.581	1961.5
3088.795	1902.5
3092.007	1817.5
3095.216	1758.5
3098.423	1695.5
3101.627	1633.5
3104.828	1596.5
3108.026	1557.5
3111.222	1519.5
3114.416	1457.5
3117.607	1415.5
3120.795	1421.5
3123.98	1379.5
3127.163	1366.5
3130.344	1339.5
3133.521	1332.5
3136.696	1311.5
3139.869	1314.5
3143.039	1288.5
3146.206	1286.5
3149.371	1273.5
3152.533	1243.5
3155.693	1235.5
3158.85	1238.5
3162.005	1205.5
3165.157	1198.5
3168.306	1196.5
3171.453	1177.5
3174.597	1179.5
3177.739	1176.5
3180.878	1165.5
3184.014	1173.5
3187.149	1157.5
3190.28	1160.5
3193.409	1151.5
3196.536	1145.5
3199.659	1170.5
3202.781	1179.5
3205.9	1174.5
3209.016	1173.5
3212.13	1185.5
3215.241	1178.5
3218.35	1167.5
3221.456	1164.5
3224.56	1171.5
3227.661	1145.5
3230.76	1151.5
3233.856	1154.5
3236.95	1134.5
3240.041	1134.5
3243.13	1125.5
3246.216	1119.5
3249.3	1133.5
3252.382	1127.5
3255.46	1106.5
3258.537	1109.5
3261.611	1111.5
3264.682	1109.5
3267.751	1097.5
3270.818	1110.5
3273.882	1104.5
3276.943	1104.5
3280.002	1099.5
3283.059	1078.5
3286.113	1053.5
3289.165	1050.5
3292.214	1041.5
3295.261	1021.5
3298.306	998.5
3301.348	982.5
3304.387	964.5
3307.425	952.5
3310.459	926.5
3313.492	913.5
3316.521	895.5
3319.549	900.5
3322.574	879.5
3325.597	866.5
3328.617	867.5
3331.635	852.5
3334.65	857.5
3337.663	843.5
3340.674	825.5
3343.682	832.5
3346.688	827.5
3349.691	814.5
3352.692	804.5
3355.691	795.5
3358.687	785.5
3361.681	769.5
3364.673	754.5
3367.662	736.5
3370.649	722.5
3373.633	698.5
3376.615	699.5
3379.595	690.5
3382.572	680.5
3385.547	647.5
3388.52	642.5
3391.49	630.5
3394.458	605.5
3397.424	601.5
3400.387	588.5
3403.348	558.5
3406.307	552.5
3409.263	552.5
3412.217	543.5
3415.168	522.5
3418.118	493.5
3421.065	496.5
3424.009	490.5
3426.951	460.5
3429.891	460.5
3432.829	445.5
3435.764	418.5
3438.697	395.5
3441.628	391.5
3444.557	371.5
3447.483	344.5
3450.407	316.5
3453.328	311.5
3456.247	293.5
3459.164	280.5
3462.079	255.5
3464.991	258.5
3467.902	232.5
3470.809	204.5
3473.715	203.5
3476.618	193.5
3479.519	170.5
3482.418	156.5
3485.315	146.5
3488.209	136.5
3491.101	122.5
3493.99	119.5
3496.878	105.5
3499.763	90.5
3502.646	78.5
3505.527	63.5
3508.405	63.5
3511.281	50.5
3514.155	57.5
3517.027	159.5
3519.897	372.5
3522.764	100.5
3525.629	7.5
3528.492	-16.5
3531.352	-19.5
3534.211	-25.5
3537.067	-43.5
3539.921	-36.5
3542.773	-57.5
3545.622	-68.5
3548.469	-70.5
3551.315	-70.5
3554.157	-83.5
3556.998	-96.5
3559.837	-100.5
3562.673	-108.5
3565.507	-115.5
3568.339	-120.5
3571.169	-118.5
3573.996	-129.5
3576.822	-127.5
3579.645	-135.5
3582.466	-148.5
3585.285	-145.5
3588.101	-145.5
3590.916	-152.5
3593.728	-162.5
3596.538	-158.5
3599.346	-167.5
3602.152	-171.5
3604.956	-167.5
3607.757	-173.5
3610.556	-180.5
3613.354	-176.5
3616.149	-185.5
3618.942	-187.5
3621.732	-181.5
3624.521	-194.5
3627.307	-199.5
3630.092	-197.5
3632.874	-197.5
3635.654	-198.5
3638.432	-200.5
3641.208	-201.5
3643.982	-207.5
3646.753	-196.5
3649.523	-212.5
3652.29	-205.5
3655.055	-206.5
3657.818	-209.5
3660.579	-213.5
3663.338	-221.5
3666.095	-218.5
3668.849	-216.5
3671.602	-219.5
3674.352	-224.5
3677.101	-221.5
3679.847	-222.5
3682.591	-225.5
3685.333	-234.5
3688.073	-220.5
3690.811	-229.5
3693.547	-228.5
3696.281	-223.5
3699.013	-229.5
3701.742	-226.5
3704.47	-231.5
3707.195	-236.5
3709.919	-232.5
3712.64	-236.5
3715.359	-230.5
3718.076	-232.5
3720.792	-230.5
3723.505	-227.5
3726.216	-239.5
3728.925	-232.5
3731.632	-236.5
3734.336	-240.5
3737.039	-233.5
3739.74	-232.5
3742.439	-239.5
3745.136	-239.5
3747.83	-241.5
3750.523	-235.5
3753.213	-238.5
3755.902	-240.5
3758.589	-235.5
3761.273	-242.5
3763.956	-241.5
3766.636	-240.5
3769.315	-245.5
3771.991	-241.5
3774.665	-240.5
3777.338	-246.5
3780.008	-245.5
3782.677	-253.5
3785.343	-240.5
3788.007	-245.5
3790.67	-245.5
3793.33	-247.5
3795.989	-239.5
3798.645	-242.5
3801.299	-240.5
3803.952	-249.5
3806.602	-253.5
3809.251	-252.5
3811.897	-251.5
3814.542	-252.5
3817.184	-246.5
3819.825	-248.5
3822.463	-245.5
3825.1	-246.5
3827.735	-245.5
3830.367	-244.5
3832.998	-254.5
3835.627	-256.5
3838.253	-251.5
3840.878	-254.5
3843.501	-248.5
3846.122	-252.5
3848.741	-248.5
3851.358	-252.5
3853.973	-248.5
3856.586	-250.5
3859.197	-255.5
3861.806	-258.5
3864.414	-243.5
3867.019	-248.5
3869.622	-248.5
3872.224	-241.5
3874.823	-231.5
3877.421	-215.5
3880.016	-202.5
3882.61	-184.5
3885.202	-177.5
3887.792	-185.5
3890.38	-216.5
3892.966	-235.5
3895.55	-248.5
3898.132	-261.5
3900.713	-259.5
3903.291	-259.5
3905.868	-256.5
3908.442	-257.5
3911.015	-256.5
3913.586	-254.5
3916.155	-259.5
3918.722	-264.5
3921.287	-252.5
3923.85	-259.5
3926.411	-261.5
3928.971	-269.5
3931.528	-262.5
3934.084	-256.5
3936.638	-263.5
3939.19	-260.5
3941.74	-258.5
3944.288	-261.5
3946.834	-255.5
3949.378	-262.5
3951.921	-258.5
3954.462	-268.5
3957	-256.5
3959.537	-261.5
3962.072	-258.5
3964.606	-263.5
3967.137	-262.5
3969.667	-268.5
3972.194	-258.5
3974.72	-261.5
3977.244	-251.5
3979.766	-254.5
3982.286	-258.5
3984.805	-257.5
3987.321	-258.5
3989.836	-260.5
3992.349	-253.5
3994.86	-257.5
3997.369	-261.5
3999.877	-251.5
4002.382	-249.5
4004.886	-249.5
4007.388	-255.5
4009.888	-254.5
4012.386	-257.5
4014.883	-254.5
4017.377	-255.5
4019.87	-251.5
4022.361	-256.5
4024.85	-259.5
4027.338	-264.5
4029.823	-263.5
4032.307	-260.5
4034.789	-257.5
4037.269	-251.5
4039.747	-257.5
4042.224	-255.5
4044.699	-267.5
4047.172	-256.5
4049.643	-260.5
4052.112	-264.5
4054.58	-261.5
4057.046	-258.5
4059.51	-263.5
4061.972	-256.5
4064.432	-262.5
4066.891	-256.5
4069.348	-254.5
4071.803	-249.5
4074.256	-256.5
4076.708	-253.5
4079.158	-255.5
4081.606	-261.5
4084.052	-260.5
4086.497	-254.5
4088.939	-248.5
4091.38	-250.5
4093.819	-245.5
4096.257	-283.5
4098.693	-280.5
4101.127	-282.5
4103.559	-280.5
4105.989	-117.5
4108.418	-103.5
4110.845	-104.5
4113.27	-91.5
4115.694	-79.5
4118.115	-78.5
4120.535	-243.5
4122.954	-252.5
4125.37	-244.5
4127.785	-250.5
4130.198	-248.5
4132.609	-259.5
4135.019	-284.5
4137.427	-281.5
4139.833	-282.5
4142.237	-276.5
