Data from 2018-2-14_conc=0_n=9_RamanShift_03.txt Node
Date: Wed Feb 14 10:53:56 IST 2018
User: aro
Spectrometer: QEPB0276
Trigger mode: 0
Integration Time (sec): 3.000000E1
Scans to average: 1
Electric dark correction enabled: true
Nonlinearity correction enabled: false
Boxcar width: 0
XAxis mode: Raman Shifts
Number of Pixels in Spectrum: 1044
>>>>>Begin Spectral Data<<<<<
160.701	-86.2
166.742	44.8
172.777	417.8
178.805	1508.8
184.826	4150.8
190.841	8618.8
196.849	13832.8
202.85	17544.8
208.845	18846.8
214.833	18659.8
220.815	18285.8
226.789	18260.8
232.758	18198.8
238.719	18085.8
244.674	17919.8
250.623	17605.8
256.565	17249.8
262.5	16888.8
268.429	16697.8
274.351	16450.8
280.267	16259.8
286.176	16117.8
292.079	15954.8
297.975	15867.8
303.865	15751.8
309.748	15654.8
315.625	15598.8
321.495	15445.8
327.359	15496.8
333.217	15467.8
339.068	15399.8
344.912	15490.8
350.751	15426.8
356.583	15463.8
362.408	15387.8
368.227	15444.8
374.04	15439.8
379.847	15513.8
385.647	15536.8
391.44	15634.8
397.228	15710.8
403.009	15731.8
408.784	15762.8
414.553	15924.8
420.315	15897.8
426.071	15876.8
431.821	15880.8
437.565	15887.8
443.302	15840.8
449.033	15833.8
454.758	15760.8
460.477	15736.8
466.189	15681.8
471.896	15639.8
477.596	15582.8
483.29	15558.8
488.978	15522.8
494.66	15487.8
500.335	15359.8
506.005	15138.8
511.668	14930.8
517.325	14705.8
522.977	14526.8
528.622	14385.8
534.261	14256.8
539.894	14166.8
545.521	14134.8
551.141	14013.8
556.756	14024.8
562.365	13989.8
567.968	13898.8
573.565	13830.8
579.155	13765.8
584.74	13714.8
590.319	13706.8
595.892	13656.8
601.459	13583.8
607.02	13578.8
612.575	13413.8
618.124	13362.8
623.667	13290.8
629.204	13205.8
634.735	13088.8
640.261	13079.8
645.781	13053.8
651.294	13000.8
656.802	13005.8
662.304	12964.8
667.8	12928.8
673.29	12872.8
678.775	12906.8
684.254	12841.8
689.726	12785.8
695.193	12739.8
700.655	12667.8
706.11	12633.8
711.56	12589.8
717.004	12531.8
722.442	12424.8
727.874	12428.8
733.301	12361.8
738.722	12283.8
744.137	12304.8
749.547	12306.8
754.951	12247.8
760.349	12278.8
765.741	12305.8
771.128	12288.8
776.509	12285.8
781.885	12332.8
787.254	12323.8
792.618	12305.8
797.977	12216.8
803.33	12081.8
808.677	12092.8
814.019	11969.8
819.355	11922.8
824.686	11889.8
830.011	11863.8
835.33	11769.8
840.644	11804.8
845.952	11834.8
851.255	11830.8
856.552	11861.8
861.844	11804.8
867.13	11754.8
872.41	11693.8
877.686	11633.8
882.955	11582.8
888.219	11427.8
893.478	11350.8
898.731	11231.8
903.979	11063.8
909.221	11042.8
914.458	10933.8
919.69	10986.8
924.916	11027.8
930.136	11050.8
935.351	11041.8
940.561	11056.8
945.766	10976.8
950.965	10972.8
956.158	10865.8
961.347	10761.8
966.529	10647.8
971.707	10482.8
976.879	10386.8
982.046	10250.8
987.208	10223.8
992.364	10256.8
997.515	10310.8
1002.66	10416.8
1007.801	10525.8
1012.936	10560.8
1018.066	10605.8
1023.19	10571.8
1028.309	10610.8
1033.423	10586.8
1038.532	10525.8
1043.636	10408.8
1048.734	10286.8
1053.827	10162.8
1058.915	10040.8
1063.998	9939.8
1069.075	10010.8
1074.147	9962.8
1079.214	10045.8
1084.276	10056.8
1089.333	10073.8
1094.385	10175.8
1099.431	10196.8
1104.472	10183.8
1109.509	10136.8
1114.54	10021.8
1119.565	9875.8
1124.586	9748.8
1129.602	9645.8
1134.613	9585.8
1139.618	9565.8
1144.619	9460.8
1149.614	9489.8
1154.604	9506.8
1159.589	9555.8
1164.57	9547.8
1169.545	9542.8
1174.515	9610.8
1179.48	9506.8
1184.44	9433.8
1189.395	9391.8
1194.345	9289.8
1199.29	9255.8
1204.23	9280.8
1209.165	9280.8
1214.095	9333.8
1219.021	9388.8
1223.941	9445.8
1228.856	9507.8
1233.766	9523.8
1238.672	9545.8
1243.572	9550.8
1248.467	9441.8
1253.358	9334.8
1258.244	9233.8
1263.124	9080.8
1268	8933.8
1272.871	8826.8
1277.737	8727.8
1282.599	8684.8
1287.455	8684.8
1292.306	8716.8
1297.153	8786.8
1301.995	8784.8
1306.832	8825.8
1311.664	8841.8
1316.491	8812.8
1321.314	8763.8
1326.132	8671.8
1330.945	8455.8
1335.753	8276.8
1340.556	8080.8
1345.354	7968.8
1350.148	7864.8
1354.937	7792.8
1359.722	7753.8
1364.501	7733.8
1369.276	7725.8
1374.046	7797.8
1378.811	7831.8
1383.572	7917.8
1388.327	7930.8
1393.079	7906.8
1397.825	7824.8
1402.567	7750.8
1407.304	7660.8
1412.036	7611.8
1416.764	7582.8
1421.487	7519.8
1426.205	7524.8
1430.919	7470.8
1435.628	7506.8
1440.333	7564.8
1445.032	7549.8
1449.727	7582.8
1454.418	7572.8
1459.104	7498.8
1463.785	7379.8
1468.462	7224.8
1473.134	7083.8
1477.802	6960.8
1482.465	6820.8
1487.123	6764.8
1491.777	6698.8
1496.426	6697.8
1501.071	6764.8
1505.711	6830.8
1510.347	6935.8
1514.978	7023.8
1519.604	7094.8
1524.226	7147.8
1528.844	7145.8
1533.457	7148.8
1538.065	7133.8
1542.669	7064.8
1547.269	6983.8
1551.864	6954.8
1556.454	6960.8
1561.041	6942.8
1565.622	6979.8
1570.199	6966.8
1574.772	7005.8
1579.34	7066.8
1583.904	7060.8
1588.464	7112.8
1593.019	7094.8
1597.569	7083.8
1602.115	7062.8
1606.657	7003.8
1611.195	6951.8
1615.728	6921.8
1620.256	6907.8
1624.78	6891.8
1629.3	6889.8
1633.816	6924.8
1638.327	6967.8
1642.834	6994.8
1647.336	7038.8
1651.834	7030.8
1656.328	7014.8
1660.817	7008.8
1665.302	6929.8
1669.783	6780.8
1674.259	6699.8
1678.732	6522.8
1683.199	6280.8
1687.663	6120.8
1692.122	5931.8
1696.577	5816.8
1701.028	5734.8
1705.474	5709.8
1709.917	5739.8
1714.355	5734.8
1718.788	5708.8
1723.218	5649.8
1727.643	5560.8
1732.064	5459.8
1736.481	5358.8
1740.893	5233.8
1745.301	5085.8
1749.705	4991.8
1754.105	4804.8
1758.501	4675.8
1762.893	4580.8
1767.28	4464.8
1771.663	4411.8
1776.042	4314.8
1780.417	4290.8
1784.787	4245.8
1789.154	4262.8
1793.516	4323.8
1797.874	4346.8
1802.228	4422.8
1806.578	4435.8
1810.924	4449.8
1815.266	4425.8
1819.603	4381.8
1823.937	4292.8
1828.266	4247.8
1832.591	4188.8
1836.913	4128.8
1841.23	4095.8
1845.543	4080.8
1849.852	4045.8
1854.156	4038.8
1858.457	4060.8
1862.754	4053.8
1867.047	4025.8
1871.335	4014.8
1875.62	4024.8
1879.9	4019.8
1884.177	3988.8
1888.449	3918.8
1892.718	3939.8
1896.982	3853.8
1901.243	3853.8
1905.499	3803.8
1909.752	3774.8
1914	3820.8
1918.245	3795.8
1922.485	3823.8
1926.722	3850.8
1930.954	3880.8
1935.183	3927.8
1939.408	3967.8
1943.628	3993.8
1947.845	4007.8
1952.058	3960.8
1956.267	3938.8
1960.472	3893.8
1964.673	3819.8
1968.87	3760.8
1973.063	3708.8
1977.252	3617.8
1981.438	3583.8
1985.619	3562.8
1989.797	3533.8
1993.971	3518.8
1998.14	3500.8
2002.306	3470.8
2006.469	3476.8
2010.627	3434.8
2014.781	3434.8
2018.932	3384.8
2023.078	3366.8
2027.221	3308.8
2031.36	3284.8
2035.495	3230.8
2039.627	3179.8
2043.754	3130.8
2047.878	3131.8
2051.998	3092.8
2056.114	3090.8
2060.226	3078.8
2064.334	3094.8
2068.439	3105.8
2072.54	3119.8
2076.637	3096.8
2080.73	3116.8
2084.82	3176.8
2088.906	3166.8
2092.988	3193.8
2097.066	3161.8
2101.14	3159.8
2105.211	3087.8
2109.278	3088.8
2113.342	3062.8
2117.401	3041.8
2121.457	3029.8
2125.509	2999.8
2129.558	2980.8
2133.602	2982.8
2137.643	2957.8
2141.681	2913.8
2145.714	2923.8
2149.744	2904.8
2153.77	2876.8
2157.793	2857.8
2161.812	2821.8
2165.827	2768.8
2169.838	2716.8
2173.846	2690.8
2177.851	2644.8
2181.851	2603.8
2185.848	2567.8
2189.841	2542.8
2193.831	2517.8
2197.817	2487.8
2201.799	2464.8
2205.778	2446.8
2209.753	2430.8
2213.725	2438.8
2217.693	2436.8
2221.657	2435.8
2225.618	2407.8
2229.575	2422.8
2233.529	2413.8
2237.479	2369.8
2241.425	2323.8
2245.368	2319.8
2249.307	2265.8
2253.243	2228.8
2257.175	2198.8
2261.104	2174.8
2265.029	2120.8
2268.95	2126.8
2272.868	2077.8
2276.783	2070.8
2280.694	2063.8
2284.601	2014.8
2288.505	2006.8
2292.405	1974.8
2296.302	1961.8
2300.195	1933.8
2304.085	1923.8
2307.971	1883.8
2311.854	1846.8
2315.734	1835.8
2319.609	1812.8
2323.482	1798.8
2327.351	1775.8
2331.216	1751.8
2335.078	1752.8
2338.937	1759.8
2342.792	1727.8
2346.643	1732.8
2350.492	1715.8
2354.336	1743.8
2358.178	1733.8
2362.015	1738.8
2365.85	1738.8
2369.681	1742.8
2373.508	1755.8
2377.333	1758.8
2381.153	1721.8
2384.971	1724.8
2388.785	1706.8
2392.595	1690.8
2396.402	1687.8
2400.206	1674.8
2404.007	1674.8
2407.804	1650.8
2411.597	1651.8
2415.388	1636.8
2419.174	1629.8
2422.958	1627.8
2426.738	1595.8
2430.515	1579.8
2434.289	1568.8
2438.059	1575.8
2441.825	1539.8
2445.589	1527.8
2449.349	1501.8
2453.106	1495.8
2456.859	1462.8
2460.61	1453.8
2464.356	1445.8
2468.1	1415.8
2471.84	1422.8
2475.577	1397.8
2479.311	1387.8
2483.041	1387.8
2486.768	1375.8
2490.492	1380.8
2494.213	1380.8
2497.93	1348.8
2501.644	1337.8
2505.355	1347.8
2509.062	1328.8
2512.766	1319.8
2516.467	1313.8
2520.165	1303.8
2523.859	1307.8
2527.551	1303.8
2531.239	1279.8
2534.923	1266.8
2538.605	1252.8
2542.283	1277.8
2545.958	1252.8
2549.63	1257.8
2553.299	1256.8
2556.964	1259.8
2560.626	1227.8
2564.285	1226.8
2567.941	1225.8
2571.594	1227.8
2575.243	1205.8
2578.89	1199.8
2582.533	1172.8
2586.173	1182.8
2589.809	1168.8
2593.443	1157.8
2597.073	1159.8
2600.701	1141.8
2604.325	1110.8
2607.946	1116.8
2611.564	1096.8
2615.178	1103.8
2618.79	1096.8
2622.398	1085.8
2626.004	1082.8
2629.606	1040.8
2633.205	1047.8
2636.801	1018.8
2640.394	1011.8
2643.983	1007.8
2647.57	990.8
2651.153	967.8
2654.734	942.8
2658.311	937.8
2661.885	928.8
2665.456	900.8
2669.025	907.8
2672.589	874.8
2676.151	861.8
2679.71	874.8
2683.266	832.8
2686.819	824.8
2690.368	832.8
2693.915	815.8
2697.458	797.8
2700.999	763.8
2704.536	749.8
2708.071	729.8
2711.602	707.8
2715.13	699.8
2718.656	686.8
2722.178	687.8
2725.697	665.8
2729.214	650.8
2732.727	660.8
2736.237	656.8
2739.744	650.8
2743.249	654.8
2746.75	647.8
2750.248	651.8
2753.743	659.8
2757.236	654.8
2760.725	652.8
2764.211	661.8
2767.695	655.8
2771.175	665.8
2774.652	661.8
2778.127	658.8
2781.598	658.8
2785.067	653.8
2788.532	646.8
2791.995	644.8
2795.455	630.8
2798.911	665.8
2802.365	640.8
2805.816	660.8
2809.264	642.8
2812.709	656.8
2816.151	653.8
2819.59	659.8
2823.026	651.8
2826.46	652.8
2829.89	656.8
2833.318	669.8
2836.742	661.8
2840.164	649.8
2843.583	651.8
2846.999	673.8
2850.412	675.8
2853.822	682.8
2857.229	684.8
2860.634	701.8
2864.035	737.8
2867.434	730.8
2870.83	738.8
2874.223	770.8
2877.613	768.8
2881	782.8
2884.385	788.8
2887.766	792.8
2891.145	777.8
2894.521	778.8
2897.894	767.8
2901.264	767.8
2904.631	783.8
2907.996	783.8
2911.358	799.8
2914.717	788.8
2918.073	811.8
2921.426	808.8
2924.777	818.8
2928.124	830.8
2931.469	850.8
2934.811	870.8
2938.15	871.8
2941.487	884.8
2944.821	892.8
2948.152	887.8
2951.48	877.8
2954.805	863.8
2958.128	872.8
2961.447	869.8
2964.765	856.8
2968.079	864.8
2971.39	870.8
2974.699	884.8
2978.005	899.8
2981.308	907.8
2984.609	928.8
2987.907	950.8
2991.202	963.8
2994.494	980.8
2997.784	1006.8
3001.07	1010.8
3004.355	1029.8
3007.636	1051.8
3010.915	1049.8
3014.191	1044.8
3017.464	1072.8
3020.734	1065.8
3024.002	1090.8
3027.267	1101.8
3030.53	1091.8
3033.789	1129.8
3037.046	1128.8
3040.301	1162.8
3043.552	1172.8
3046.801	1201.8
3050.048	1235.8
3053.291	1270.8
3056.532	1301.8
3059.771	1350.8
3063.006	1393.8
3066.239	1414.8
3069.469	1466.8
3072.697	1493.8
3075.922	1550.8
3079.144	1594.8
3082.364	1628.8
3085.581	1657.8
3088.795	1706.8
3092.007	1742.8
3095.216	1773.8
3098.423	1805.8
3101.627	1858.8
3104.828	1892.8
3108.026	1932.8
3111.222	1990.8
3114.416	2025.8
3117.607	2089.8
3120.795	2117.8
3123.98	2180.8
3127.163	2227.8
3130.344	2260.8
3133.521	2327.8
3136.696	2387.8
3139.869	2441.8
3143.039	2503.8
3146.206	2511.8
3149.371	2546.8
3152.533	2578.8
3155.693	2584.8
3158.85	2606.8
3162.005	2596.8
3165.157	2618.8
3168.306	2603.8
3171.453	2603.8
3174.597	2622.8
3177.739	2639.8
3180.878	2636.8
3184.014	2628.8
3187.149	2653.8
3190.28	2660.8
3193.409	2655.8
3196.536	2633.8
3199.659	2654.8
3202.781	2670.8
3205.9	2678.8
3209.016	2672.8
3212.13	2637.8
3215.241	2629.8
3218.35	2617.8
3221.456	2566.8
3224.56	2548.8
3227.661	2527.8
3230.76	2489.8
3233.856	2474.8
3236.95	2437.8
3240.041	2450.8
3243.13	2416.8
3246.216	2399.8
3249.3	2392.8
3252.382	2367.8
3255.46	2367.8
3258.537	2365.8
3261.611	2372.8
3264.682	2362.8
3267.751	2350.8
3270.818	2343.8
3273.882	2335.8
3276.943	2326.8
3280.002	2303.8
3283.059	2284.8
3286.113	2252.8
3289.165	2220.8
3292.214	2180.8
3295.261	2137.8
3298.306	2124.8
3301.348	2070.8
3304.387	2046.8
3307.425	2006.8
3310.459	1982.8
3313.492	1932.8
3316.521	1912.8
3319.549	1900.8
3322.574	1874.8
3325.597	1868.8
3328.617	1838.8
3331.635	1865.8
3334.65	1838.8
3337.663	1819.8
3340.674	1805.8
3343.682	1816.8
3346.688	1787.8
3349.691	1805.8
3352.692	1791.8
3355.691	1773.8
3358.687	1727.8
3361.681	1744.8
3364.673	1691.8
3367.662	1702.8
3370.649	1673.8
3373.633	1630.8
3376.615	1614.8
3379.595	1606.8
3382.572	1578.8
3385.547	1545.8
3388.52	1525.8
3391.49	1514.8
3394.458	1483.8
3397.424	1474.8
3400.387	1443.8
3403.348	1429.8
3406.307	1425.8
3409.263	1400.8
3412.217	1372.8
3415.168	1353.8
3418.118	1339.8
3421.065	1315.8
3424.009	1298.8
3426.951	1285.8
3429.891	1245.8
3432.829	1229.8
3435.764	1216.8
3438.697	1169.8
3441.628	1133.8
3444.557	1116.8
3447.483	1061.8
3450.407	1035.8
3453.328	1014.8
3456.247	986.8
3459.164	931.8
3462.079	905.8
3464.991	863.8
3467.902	830.8
3470.809	803.8
3473.715	772.8
3476.618	744.8
3479.519	710.8
3482.418	685.8
3485.315	661.8
3488.209	654.8
3491.101	615.8
3493.99	586.8
3496.878	577.8
3499.763	552.8
3502.646	524.8
3505.527	501.8
3508.405	482.8
3511.281	449.8
3514.155	425.8
3517.027	390.8
3519.897	368.8
3522.764	340.8
3525.629	316.8
3528.492	299.8
3531.352	260.8
3534.211	237.8
3537.067	208.8
3539.921	191.8
3542.773	165.8
3545.622	141.8
3548.469	113.8
3551.315	101.8
3554.157	81.8
3556.998	64.8
3559.837	44.8
3562.673	39.8
3565.507	11.8
3568.339	-0.2
3571.169	-7.2
3573.996	-25.2
3576.822	-40.2
3579.645	-45.2
3582.466	-56.2
3585.285	-82.2
3588.101	-98.2
3590.916	-102.2
3593.728	-122.2
3596.538	-135.2
3599.346	-140.2
3602.152	-152.2
3604.956	-166.2
3607.757	-172.2
3610.556	-185.2
3613.354	-198.2
3616.149	-210.2
3618.942	-209.2
3621.732	-222.2
3624.521	-227.2
3627.307	-238.2
3630.092	-240.2
3632.874	-253.2
3635.654	-261.2
3638.432	-252.2
3641.208	-263.2
3643.982	-277.2
3646.753	-278.2
3649.523	-286.2
3652.29	-284.2
3655.055	-288.2
3657.818	-309.2
3660.579	-305.2
3663.338	-320.2
3666.095	-320.2
3668.849	-328.2
3671.602	-340.2
3674.352	-339.2
3677.101	-338.2
3679.847	-342.2
3682.591	-351.2
3685.333	-354.2
3688.073	-361.2
3690.811	-361.2
3693.547	-368.2
3696.281	-371.2
3699.013	-378.2
3701.742	-376.2
3704.47	-378.2
3707.195	-386.2
3709.919	-389.2
3712.64	-389.2
3715.359	-387.2
3718.076	-390.2
3720.792	-391.2
3723.505	-393.2
3726.216	-400.2
3728.925	-399.2
3731.632	-407.2
3734.336	-408.2
3737.039	-409.2
3739.74	-409.2
3742.439	-405.2
3745.136	-411.2
3747.83	-415.2
3750.523	-410.2
3753.213	-397.2
3755.902	-419.2
3758.589	-414.2
3761.273	-422.2
3763.956	-417.2
3766.636	-426.2
3769.315	-428.2
3771.991	-426.2
3774.665	-427.2
3777.338	-429.2
3780.008	-430.2
3782.677	-434.2
3785.343	-423.2
3788.007	-434.2
3790.67	-428.2
3793.33	-435.2
3795.989	-435.2
3798.645	-434.2
3801.299	-428.2
3803.952	-439.2
3806.602	-445.2
3809.251	-444.2
3811.897	-440.2
3814.542	-443.2
3817.184	-437.2
3819.825	-440.2
3822.463	-436.2
3825.1	-439.2
3827.735	-437.2
3830.367	-439.2
3832.998	-447.2
3835.627	-443.2
3838.253	-448.2
3840.878	-448.2
3843.501	-442.2
3846.122	-440.2
3848.741	-442.2
3851.358	-443.2
3853.973	-445.2
3856.586	-450.2
3859.197	-451.2
3861.806	-457.2
3864.414	-443.2
3867.019	-445.2
3869.622	-443.2
3872.224	-442.2
3874.823	-422.2
3877.421	-407.2
3880.016	-381.2
3882.61	-366.2
3885.202	-349.2
3887.792	-369.2
3890.38	-404.2
3892.966	-433.2
3895.55	-440.2
3898.132	-459.2
3900.713	-458.2
3903.291	-454.2
3905.868	-456.2
3908.442	-457.2
3911.015	-458.2
3913.586	-454.2
3916.155	-454.2
3918.722	-456.2
3921.287	-450.2
3923.85	-462.2
3926.411	-457.2
3928.971	-466.2
3931.528	-461.2
3934.084	-459.2
3936.638	-457.2
3939.19	-458.2
3941.74	-457.2
3944.288	-459.2
3946.834	-453.2
3949.378	-459.2
3951.921	-458.2
3954.462	-457.2
3957	-453.2
3959.537	-454.2
3962.072	-452.2
3964.606	-456.2
3967.137	-457.2
3969.667	-458.2
3972.194	-455.2
3974.72	-458.2
3977.244	-446.2
3979.766	-454.2
3982.286	-455.2
3984.805	-448.2
3987.321	-444.2
3989.836	-447.2
3992.349	-446.2
3994.86	-439.2
3997.369	-449.2
3999.877	-442.2
4002.382	-449.2
4004.886	-445.2
4007.388	-443.2
4009.888	-447.2
4012.386	-453.2
4014.883	-449.2
4017.377	-446.2
4019.87	-449.2
4022.361	-446.2
4024.85	-449.2
4027.338	-447.2
4029.823	-448.2
4032.307	-452.2
4034.789	-446.2
4037.269	-446.2
4039.747	-447.2
4042.224	-450.2
4044.699	-449.2
4047.172	-449.2
4049.643	-449.2
4052.112	-452.2
4054.58	-456.2
4057.046	-456.2
4059.51	-452.2
4061.972	-452.2
4064.432	-447.2
4066.891	-448.2
4069.348	-442.2
4071.803	-439.2
4074.256	-446.2
4076.708	-448.2
4079.158	-446.2
4081.606	-453.2
4084.052	-459.2
4086.497	-454.2
4088.939	-442.2
4091.38	-449.2
4093.819	-449.2
4096.257	-471.2
4098.693	-474.2
4101.127	-476.2
4103.559	-474.2
4105.989	-252.2
4108.418	-237.2
4110.845	-220.2
4113.27	-198.2
4115.694	-180.2
4118.115	-147.2
4120.535	-449.2
4122.954	-447.2
4125.37	-440.2
4127.785	-451.2
4130.198	-454.2
4132.609	-448.2
4135.019	-473.2
4137.427	-474.2
4139.833	-472.2
4142.237	-465.2
