Data from 2018-2-14_conc=3_n=9_RamanShift_01.txt Node
Date: Wed Feb 14 12:08:56 IST 2018
User: aro
Spectrometer: QEPB0276
Trigger mode: 0
Integration Time (sec): 3.000000E1
Scans to average: 1
Electric dark correction enabled: true
Nonlinearity correction enabled: false
Boxcar width: 0
XAxis mode: Raman Shifts
Number of Pixels in Spectrum: 1044
>>>>>Begin Spectral Data<<<<<
160.701	-133.5
166.742	54.5
172.777	557.5
178.805	2113.5
184.826	5880.5
190.841	12371.5
196.849	19902.5
202.85	25262.5
208.845	26994.5
214.833	26774.5
220.815	26265.5
226.789	26098.5
232.758	25970.5
238.719	25868.5
244.674	25482.5
250.623	25011.5
256.565	24510.5
262.5	24008.5
268.429	23561.5
274.351	23116.5
280.267	22893.5
286.176	22663.5
292.079	22438.5
297.975	22219.5
303.865	22031.5
309.748	21858.5
315.625	21770.5
321.495	21572.5
327.359	21523.5
333.217	21498.5
339.068	21433.5
344.912	21434.5
350.751	21346.5
356.583	21361.5
362.408	21387.5
368.227	21336.5
374.04	21370.5
379.847	21448.5
385.647	21536.5
391.44	21570.5
397.228	21662.5
403.009	21714.5
408.784	21781.5
414.553	21888.5
420.315	21969.5
426.071	21951.5
431.821	21826.5
437.565	21909.5
443.302	21903.5
449.033	21845.5
454.758	21832.5
460.477	21745.5
466.189	21738.5
471.896	21681.5
477.596	21597.5
483.29	21543.5
488.978	21512.5
494.66	21433.5
500.335	21331.5
506.005	21142.5
511.668	20919.5
517.325	20658.5
522.977	20487.5
528.622	20299.5
534.261	20267.5
539.894	20180.5
545.521	20022.5
551.141	20051.5
556.756	19975.5
562.365	19912.5
567.968	19843.5
573.565	19720.5
579.155	19642.5
584.74	19586.5
590.319	19504.5
595.892	19393.5
601.459	19376.5
607.02	19273.5
612.575	19181.5
618.124	19059.5
623.667	18919.5
629.204	18877.5
634.735	18740.5
640.261	18662.5
645.781	18587.5
651.294	18549.5
656.802	18584.5
662.304	18469.5
667.8	18506.5
673.29	18410.5
678.775	18429.5
684.254	18403.5
689.726	18302.5
695.193	18266.5
700.655	18067.5
706.11	18120.5
711.56	17979.5
717.004	17880.5
722.442	17843.5
727.874	17735.5
733.301	17711.5
738.722	17670.5
744.137	17583.5
749.547	17627.5
754.951	17621.5
760.349	17555.5
765.741	17594.5
771.128	17573.5
776.509	17643.5
781.885	17627.5
787.254	17574.5
792.618	17515.5
797.977	17399.5
803.33	17304.5
808.677	17233.5
814.019	17117.5
819.355	17006.5
824.686	16943.5
830.011	16838.5
835.33	16876.5
840.644	16907.5
845.952	16897.5
851.255	16999.5
856.552	16984.5
861.844	16932.5
867.13	16931.5
872.41	16849.5
877.686	16743.5
882.955	16648.5
888.219	16563.5
893.478	16322.5
898.731	16165.5
903.979	15927.5
909.221	15853.5
914.458	15803.5
919.69	15773.5
924.916	15816.5
930.136	15859.5
935.351	15910.5
940.561	15921.5
945.766	15826.5
950.965	15779.5
956.158	15653.5
961.347	15544.5
966.529	15337.5
971.707	15073.5
976.879	14964.5
982.046	14824.5
987.208	14809.5
992.364	14794.5
997.515	14860.5
1002.66	15031.5
1007.801	15115.5
1012.936	15306.5
1018.066	15299.5
1023.19	15284.5
1028.309	15286.5
1033.423	15249.5
1038.532	15166.5
1043.636	15005.5
1048.734	14825.5
1053.827	14675.5
1058.915	14463.5
1063.998	14342.5
1069.075	14377.5
1074.147	14318.5
1079.214	14428.5
1084.276	14439.5
1089.333	14569.5
1094.385	14698.5
1099.431	14699.5
1104.472	14689.5
1109.509	14616.5
1114.54	14412.5
1119.565	14275.5
1124.586	14079.5
1129.602	13963.5
1134.613	13830.5
1139.618	13771.5
1144.619	13701.5
1149.614	13764.5
1154.604	13743.5
1159.589	13827.5
1164.57	13847.5
1169.545	13871.5
1174.515	13865.5
1179.48	13772.5
1184.44	13721.5
1189.395	13599.5
1194.345	13441.5
1199.29	13428.5
1204.23	13401.5
1209.165	13481.5
1214.095	13515.5
1219.021	13573.5
1223.941	13620.5
1228.856	13763.5
1233.766	13777.5
1238.672	13857.5
1243.572	13749.5
1248.467	13676.5
1253.358	13503.5
1258.244	13370.5
1263.124	13122.5
1268	12983.5
1272.871	12799.5
1277.737	12738.5
1282.599	12633.5
1287.455	12633.5
1292.306	12657.5
1297.153	12722.5
1301.995	12763.5
1306.832	12785.5
1311.664	12831.5
1316.491	12779.5
1321.314	12658.5
1326.132	12490.5
1330.945	12210.5
1335.753	11883.5
1340.556	11606.5
1345.354	11324.5
1350.148	11181.5
1354.937	11145.5
1359.722	11120.5
1364.501	11193.5
1369.276	11412.5
1374.046	11553.5
1378.811	11719.5
1383.572	11851.5
1388.327	11892.5
1393.079	11817.5
1397.825	11639.5
1402.567	11468.5
1407.304	11317.5
1412.036	11205.5
1416.764	11089.5
1421.487	10982.5
1426.205	10951.5
1430.919	10903.5
1435.628	10914.5
1440.333	10941.5
1445.032	10930.5
1449.727	10973.5
1454.418	10925.5
1459.104	10888.5
1463.785	10624.5
1468.462	10426.5
1473.134	10265.5
1477.802	10027.5
1482.465	9866.5
1487.123	9763.5
1491.777	9794.5
1496.426	9837.5
1501.071	9948.5
1505.711	10131.5
1510.347	10328.5
1514.978	10476.5
1519.604	10660.5
1524.226	10784.5
1528.844	10768.5
1533.457	10753.5
1538.065	10695.5
1542.669	10587.5
1547.269	10507.5
1551.864	10409.5
1556.454	10395.5
1561.041	10418.5
1565.622	10356.5
1570.199	10366.5
1574.772	10400.5
1579.34	10508.5
1583.904	10544.5
1588.464	10563.5
1593.019	10607.5
1597.569	10505.5
1602.115	10419.5
1606.657	10381.5
1611.195	10292.5
1615.728	10212.5
1620.256	10155.5
1624.78	10183.5
1629.3	10140.5
1633.816	10233.5
1638.327	10248.5
1642.834	10305.5
1647.336	10371.5
1651.834	10432.5
1656.328	10374.5
1660.817	10340.5
1665.302	10233.5
1669.783	10057.5
1674.259	9857.5
1678.732	9602.5
1683.199	9287.5
1687.663	8983.5
1692.122	8747.5
1696.577	8613.5
1701.028	8593.5
1705.474	8642.5
1709.917	8773.5
1714.355	8821.5
1718.788	8780.5
1723.218	8650.5
1727.643	8470.5
1732.064	8267.5
1736.481	8114.5
1740.893	7909.5
1745.301	7686.5
1749.705	7498.5
1754.105	7284.5
1758.501	7086.5
1762.893	6887.5
1767.28	6730.5
1771.663	6538.5
1776.042	6459.5
1780.417	6407.5
1784.787	6423.5
1789.154	6533.5
1793.516	6612.5
1797.874	6796.5
1802.228	6945.5
1806.578	7009.5
1810.924	6988.5
1815.266	6959.5
1819.603	6838.5
1823.937	6693.5
1828.266	6547.5
1832.591	6468.5
1836.913	6366.5
1841.23	6319.5
1845.543	6268.5
1849.852	6213.5
1854.156	6183.5
1858.457	6182.5
1862.754	6161.5
1867.047	6169.5
1871.335	6170.5
1875.62	6177.5
1879.9	6129.5
1884.177	6074.5
1888.449	6052.5
1892.718	6009.5
1896.982	5911.5
1901.243	5900.5
1905.499	5856.5
1909.752	5889.5
1914	5835.5
1918.245	5866.5
1922.485	5913.5
1926.722	6018.5
1930.954	6044.5
1935.183	6155.5
1939.408	6205.5
1943.628	6250.5
1947.845	6295.5
1952.058	6270.5
1956.267	6215.5
1960.472	6121.5
1964.673	6001.5
1968.87	5897.5
1973.063	5811.5
1977.252	5724.5
1981.438	5688.5
1985.619	5625.5
1989.797	5530.5
1993.971	5522.5
1998.14	5490.5
2002.306	5456.5
2006.469	5435.5
2010.627	5390.5
2014.781	5373.5
2018.932	5322.5
2023.078	5243.5
2027.221	5187.5
2031.36	5114.5
2035.495	5054.5
2039.627	4970.5
2043.754	4916.5
2047.878	4849.5
2051.998	4823.5
2056.114	4836.5
2060.226	4822.5
2064.334	4796.5
2068.439	4848.5
2072.54	4905.5
2076.637	4947.5
2080.73	4961.5
2084.82	4973.5
2088.906	5024.5
2092.988	4996.5
2097.066	4984.5
2101.14	4959.5
2105.211	4932.5
2109.278	4922.5
2113.342	4832.5
2117.401	4846.5
2121.457	4825.5
2125.509	4820.5
2129.558	4753.5
2133.602	4730.5
2137.643	4710.5
2141.681	4686.5
2145.714	4654.5
2149.744	4591.5
2153.77	4590.5
2157.793	4519.5
2161.812	4485.5
2165.827	4401.5
2169.838	4367.5
2173.846	4243.5
2177.851	4206.5
2181.851	4112.5
2185.848	4086.5
2189.841	4034.5
2193.831	3974.5
2197.817	3971.5
2201.799	3942.5
2205.778	3903.5
2209.753	3910.5
2213.725	3878.5
2217.693	3886.5
2221.657	3875.5
2225.618	3866.5
2229.575	3827.5
2233.529	3827.5
2237.479	3785.5
2241.425	3713.5
2245.368	3669.5
2249.307	3640.5
2253.243	3582.5
2257.175	3524.5
2261.104	3483.5
2265.029	3425.5
2268.95	3403.5
2272.868	3383.5
2276.783	3361.5
2280.694	3287.5
2284.601	3271.5
2288.505	3248.5
2292.405	3217.5
2296.302	3183.5
2300.195	3150.5
2304.085	3124.5
2307.971	3055.5
2311.854	2994.5
2315.734	2962.5
2319.609	2917.5
2323.482	2878.5
2327.351	2858.5
2331.216	2836.5
2335.078	2796.5
2338.937	2810.5
2342.792	2768.5
2346.643	2778.5
2350.492	2760.5
2354.336	2799.5
2358.178	2768.5
2362.015	2785.5
2365.85	2782.5
2369.681	2799.5
2373.508	2789.5
2377.333	2792.5
2381.153	2735.5
2384.971	2757.5
2388.785	2708.5
2392.595	2683.5
2396.402	2686.5
2400.206	2642.5
2404.007	2625.5
2407.804	2620.5
2411.597	2619.5
2415.388	2597.5
2419.174	2557.5
2422.958	2544.5
2426.738	2516.5
2430.515	2511.5
2434.289	2481.5
2438.059	2458.5
2441.825	2445.5
2445.589	2439.5
2449.349	2407.5
2453.106	2375.5
2456.859	2349.5
2460.61	2324.5
2464.356	2274.5
2468.1	2256.5
2471.84	2234.5
2475.577	2234.5
2479.311	2182.5
2483.041	2206.5
2486.768	2170.5
2490.492	2202.5
2494.213	2178.5
2497.93	2180.5
2501.644	2154.5
2505.355	2163.5
2509.062	2152.5
2512.766	2134.5
2516.467	2134.5
2520.165	2115.5
2523.859	2101.5
2527.551	2093.5
2531.239	2061.5
2534.923	2070.5
2538.605	2046.5
2542.283	2060.5
2545.958	2048.5
2549.63	2041.5
2553.299	2035.5
2556.964	2042.5
2560.626	2039.5
2564.285	2001.5
2567.941	2014.5
2571.594	1977.5
2575.243	1996.5
2578.89	1961.5
2582.533	1938.5
2586.173	1942.5
2589.809	1916.5
2593.443	1896.5
2597.073	1882.5
2600.701	1882.5
2604.325	1858.5
2607.946	1847.5
2611.564	1820.5
2615.178	1833.5
2618.79	1804.5
2622.398	1804.5
2626.004	1762.5
2629.606	1742.5
2633.205	1748.5
2636.801	1706.5
2640.394	1695.5
2643.983	1648.5
2647.57	1619.5
2651.153	1588.5
2654.734	1586.5
2658.311	1562.5
2661.885	1529.5
2665.456	1523.5
2669.025	1496.5
2672.589	1478.5
2676.151	1458.5
2679.71	1453.5
2683.266	1430.5
2686.819	1392.5
2690.368	1374.5
2693.915	1333.5
2697.458	1302.5
2700.999	1284.5
2704.536	1243.5
2708.071	1222.5
2711.602	1207.5
2715.13	1175.5
2718.656	1153.5
2722.178	1108.5
2725.697	1123.5
2729.214	1109.5
2732.727	1105.5
2736.237	1090.5
2739.744	1080.5
2743.249	1118.5
2746.75	1125.5
2750.248	1111.5
2753.743	1131.5
2757.236	1159.5
2760.725	1167.5
2764.211	1177.5
2767.695	1176.5
2771.175	1176.5
2774.652	1157.5
2778.127	1167.5
2781.598	1153.5
2785.067	1143.5
2788.532	1138.5
2791.995	1123.5
2795.455	1121.5
2798.911	1129.5
2802.365	1136.5
2805.816	1130.5
2809.264	1115.5
2812.709	1113.5
2816.151	1115.5
2819.59	1135.5
2823.026	1120.5
2826.46	1136.5
2829.89	1119.5
2833.318	1119.5
2836.742	1125.5
2840.164	1134.5
2843.583	1145.5
2846.999	1154.5
2850.412	1146.5
2853.822	1174.5
2857.229	1197.5
2860.634	1209.5
2864.035	1215.5
2867.434	1224.5
2870.83	1269.5
2874.223	1276.5
2877.613	1284.5
2881	1300.5
2884.385	1308.5
2887.766	1291.5
2891.145	1315.5
2894.521	1303.5
2897.894	1308.5
2901.264	1282.5
2904.631	1300.5
2907.996	1294.5
2911.358	1306.5
2914.717	1309.5
2918.073	1333.5
2921.426	1330.5
2924.777	1353.5
2928.124	1357.5
2931.469	1401.5
2934.811	1405.5
2938.15	1430.5
2941.487	1423.5
2944.821	1448.5
2948.152	1449.5
2951.48	1439.5
2954.805	1408.5
2958.128	1392.5
2961.447	1386.5
2964.765	1381.5
2968.079	1408.5
2971.39	1393.5
2974.699	1413.5
2978.005	1453.5
2981.308	1494.5
2984.609	1510.5
2987.907	1533.5
2991.202	1552.5
2994.494	1573.5
2997.784	1636.5
3001.07	1631.5
3004.355	1675.5
3007.636	1682.5
3010.915	1716.5
3014.191	1732.5
3017.464	1730.5
3020.734	1751.5
3024.002	1761.5
3027.267	1767.5
3030.53	1751.5
3033.789	1794.5
3037.046	1818.5
3040.301	1836.5
3043.552	1865.5
3046.801	1917.5
3050.048	1941.5
3053.291	2000.5
3056.532	2037.5
3059.771	2095.5
3063.006	2156.5
3066.239	2238.5
3069.469	2284.5
3072.697	2356.5
3075.922	2406.5
3079.144	2445.5
3082.364	2497.5
3085.581	2553.5
3088.795	2616.5
3092.007	2666.5
3095.216	2713.5
3098.423	2781.5
3101.627	2857.5
3104.828	2904.5
3108.026	2950.5
3111.222	3043.5
3114.416	3104.5
3117.607	3177.5
3120.795	3223.5
3123.98	3311.5
3127.163	3407.5
3130.344	3479.5
3133.521	3565.5
3136.696	3650.5
3139.869	3725.5
3143.039	3766.5
3146.206	3795.5
3149.371	3857.5
3152.533	3921.5
3155.693	3924.5
3158.85	3946.5
3162.005	3962.5
3165.157	3988.5
3168.306	3988.5
3171.453	3986.5
3174.597	4004.5
3177.739	4016.5
3180.878	4017.5
3184.014	4030.5
3187.149	4004.5
3190.28	4024.5
3193.409	4013.5
3196.536	4042.5
3199.659	4029.5
3202.781	4051.5
3205.9	4022.5
3209.016	4036.5
3212.13	3997.5
3215.241	3983.5
3218.35	3970.5
3221.456	3934.5
3224.56	3860.5
3227.661	3850.5
3230.76	3787.5
3233.856	3735.5
3236.95	3721.5
3240.041	3721.5
3243.13	3668.5
3246.216	3648.5
3249.3	3619.5
3252.382	3615.5
3255.46	3604.5
3258.537	3606.5
3261.611	3616.5
3264.682	3587.5
3267.751	3573.5
3270.818	3560.5
3273.882	3548.5
3276.943	3528.5
3280.002	3513.5
3283.059	3478.5
3286.113	3441.5
3289.165	3380.5
3292.214	3338.5
3295.261	3304.5
3298.306	3231.5
3301.348	3143.5
3304.387	3138.5
3307.425	3063.5
3310.459	3013.5
3313.492	2963.5
3316.521	2938.5
3319.549	2886.5
3322.574	2880.5
3325.597	2857.5
3328.617	2813.5
3331.635	2815.5
3334.65	2764.5
3337.663	2788.5
3340.674	2752.5
3343.682	2763.5
3346.688	2767.5
3349.691	2735.5
3352.692	2739.5
3355.691	2689.5
3358.687	2667.5
3361.681	2651.5
3364.673	2613.5
3367.662	2563.5
3370.649	2520.5
3373.633	2483.5
3376.615	2459.5
3379.595	2431.5
3382.572	2395.5
3385.547	2347.5
3388.52	2349.5
3391.49	2274.5
3394.458	2248.5
3397.424	2231.5
3400.387	2175.5
3403.348	2165.5
3406.307	2143.5
3409.263	2120.5
3412.217	2066.5
3415.168	2062.5
3418.118	2031.5
3421.065	1998.5
3424.009	2000.5
3426.951	1953.5
3429.891	1912.5
3432.829	1888.5
3435.764	1847.5
3438.697	1809.5
3441.628	1737.5
3444.557	1687.5
3447.483	1633.5
3450.407	1597.5
3453.328	1545.5
3456.247	1480.5
3459.164	1425.5
3462.079	1384.5
3464.991	1344.5
3467.902	1286.5
3470.809	1248.5
3473.715	1191.5
3476.618	1140.5
3479.519	1117.5
3482.418	1092.5
3485.315	1034.5
3488.209	1014.5
3491.101	961.5
3493.99	937.5
3496.878	894.5
3499.763	857.5
3502.646	830.5
3505.527	783.5
3508.405	758.5
3511.281	716.5
3514.155	671.5
3517.027	640.5
3519.897	613.5
3522.764	561.5
3525.629	516.5
3528.492	472.5
3531.352	430.5
3534.211	391.5
3537.067	349.5
3539.921	343.5
3542.773	287.5
3545.622	260.5
3548.469	224.5
3551.315	209.5
3554.157	179.5
3556.998	141.5
3559.837	115.5
3562.673	102.5
3565.507	87.5
3568.339	61.5
3571.169	40.5
3573.996	22.5
3576.822	-2.5
3579.645	-29.5
3582.466	-39.5
3585.285	-72.5
3588.101	-85.5
3590.916	-102.5
3593.728	-126.5
3596.538	-145.5
3599.346	-157.5
3602.152	-166.5
3604.956	-197.5
3607.757	-207.5
3610.556	-211.5
3613.354	-237.5
3616.149	-242.5
3618.942	-267.5
3621.732	-266.5
3624.521	-285.5
3627.307	-298.5
3630.092	-301.5
3632.874	-312.5
3635.654	-322.5
3638.432	-328.5
3641.208	-335.5
3643.982	-350.5
3646.753	-347.5
3649.523	-364.5
3652.29	-371.5
3655.055	-379.5
3657.818	-393.5
3660.579	-405.5
3663.338	-417.5
3666.095	-421.5
3668.849	-432.5
3671.602	-449.5
3674.352	-451.5
3677.101	-454.5
3679.847	-464.5
3682.591	-468.5
3685.333	-478.5
3688.073	-480.5
3690.811	-487.5
3693.547	-490.5
3696.281	-492.5
3699.013	-504.5
3701.742	-511.5
3704.47	-508.5
3707.195	-525.5
3709.919	-521.5
3712.64	-524.5
3715.359	-522.5
3718.076	-529.5
3720.792	-528.5
3723.505	-533.5
3726.216	-543.5
3728.925	-538.5
3731.632	-547.5
3734.336	-548.5
3737.039	-549.5
3739.74	-550.5
3742.439	-549.5
3745.136	-557.5
3747.83	-561.5
3750.523	-562.5
3753.213	-551.5
3755.902	-568.5
3758.589	-568.5
3761.273	-572.5
3763.956	-574.5
3766.636	-576.5
3769.315	-573.5
3771.991	-577.5
3774.665	-582.5
3777.338	-578.5
3780.008	-581.5
3782.677	-582.5
3785.343	-582.5
3788.007	-581.5
3790.67	-586.5
3793.33	-587.5
3795.989	-589.5
3798.645	-585.5
3801.299	-589.5
3803.952	-596.5
3806.602	-598.5
3809.251	-604.5
3811.897	-599.5
3814.542	-597.5
3817.184	-595.5
3819.825	-594.5
3822.463	-594.5
3825.1	-601.5
3827.735	-595.5
3830.367	-590.5
3832.998	-608.5
3835.627	-602.5
3838.253	-608.5
3840.878	-607.5
3843.501	-606.5
3846.122	-596.5
3848.741	-603.5
3851.358	-605.5
3853.973	-608.5
3856.586	-608.5
3859.197	-611.5
3861.806	-616.5
3864.414	-610.5
3867.019	-607.5
3869.622	-611.5
3872.224	-605.5
3874.823	-591.5
3877.421	-577.5
3880.016	-568.5
3882.61	-544.5
3885.202	-544.5
3887.792	-550.5
3890.38	-579.5
3892.966	-597.5
3895.55	-610.5
3898.132	-616.5
3900.713	-626.5
3903.291	-618.5
3905.868	-623.5
3908.442	-625.5
3911.015	-624.5
3913.586	-621.5
3916.155	-619.5
3918.722	-625.5
3921.287	-616.5
3923.85	-627.5
3926.411	-622.5
3928.971	-632.5
3931.528	-620.5
3934.084	-628.5
3936.638	-621.5
3939.19	-626.5
3941.74	-621.5
3944.288	-625.5
3946.834	-620.5
3949.378	-625.5
3951.921	-621.5
3954.462	-632.5
3957	-629.5
3959.537	-625.5
3962.072	-626.5
3964.606	-624.5
3967.137	-625.5
3969.667	-631.5
3972.194	-621.5
3974.72	-623.5
3977.244	-617.5
3979.766	-616.5
3982.286	-617.5
3984.805	-612.5
3987.321	-612.5
3989.836	-613.5
3992.349	-605.5
3994.86	-606.5
3997.369	-619.5
3999.877	-606.5
4002.382	-610.5
4004.886	-604.5
4007.388	-611.5
4009.888	-611.5
4012.386	-611.5
4014.883	-608.5
4017.377	-610.5
4019.87	-610.5
4022.361	-612.5
4024.85	-613.5
4027.338	-610.5
4029.823	-614.5
4032.307	-613.5
4034.789	-607.5
4037.269	-608.5
4039.747	-609.5
4042.224	-607.5
4044.699	-611.5
4047.172	-614.5
4049.643	-606.5
4052.112	-617.5
4054.58	-618.5
4057.046	-617.5
4059.51	-625.5
4061.972	-622.5
4064.432	-625.5
4066.891	-617.5
4069.348	-614.5
4071.803	-606.5
4074.256	-618.5
4076.708	-612.5
4079.158	-614.5
4081.606	-616.5
4084.052	-620.5
4086.497	-611.5
4088.939	-608.5
4091.38	-608.5
4093.819	-606.5
4096.257	-648.5
4098.693	-646.5
4101.127	-649.5
4103.559	-645.5
4105.989	-371.5
4108.418	-360.5
4110.845	-334.5
4113.27	-302.5
4115.694	-268.5
4118.115	-219.5
4120.535	-612.5
4122.954	-610.5
4125.37	-606.5
4127.785	-613.5
4130.198	-616.5
4132.609	-613.5
4135.019	-648.5
4137.427	-651.5
4139.833	-647.5
4142.237	-644.5
