Data from 2018-2-14_conc=5_n=2_RamanShift_04.txt Node
Date: Wed Feb 14 14:08:55 IST 2018
User: aro
Spectrometer: QEPB0276
Trigger mode: 0
Integration Time (sec): 3.000000E1
Scans to average: 1
Electric dark correction enabled: true
Nonlinearity correction enabled: false
Boxcar width: 0
XAxis mode: Raman Shifts
Number of Pixels in Spectrum: 1044
>>>>>Begin Spectral Data<<<<<
160.701	-100.2
166.742	50.8
172.777	440.8
178.805	1698.8
184.826	4693.8
190.841	9777.8
196.849	15646.8
202.85	19793.8
208.845	21232.8
214.833	21032.8
220.815	20716.8
226.789	20656.8
232.758	20605.8
238.719	20427.8
244.674	20324.8
250.623	19938.8
256.565	19546.8
262.5	19202.8
268.429	18902.8
274.351	18620.8
280.267	18449.8
286.176	18260.8
292.079	18099.8
297.975	17987.8
303.865	17842.8
309.748	17739.8
315.625	17625.8
321.495	17534.8
327.359	17442.8
333.217	17484.8
339.068	17516.8
344.912	17457.8
350.751	17455.8
356.583	17421.8
362.408	17394.8
368.227	17444.8
374.04	17462.8
379.847	17504.8
385.647	17509.8
391.44	17610.8
397.228	17721.8
403.009	17739.8
408.784	17826.8
414.553	17864.8
420.315	17865.8
426.071	17958.8
431.821	17860.8
437.565	17867.8
443.302	17867.8
449.033	17842.8
454.758	17801.8
460.477	17768.8
466.189	17771.8
471.896	17639.8
477.596	17582.8
483.29	17634.8
488.978	17561.8
494.66	17439.8
500.335	17400.8
506.005	17205.8
511.668	16964.8
517.325	16736.8
522.977	16558.8
528.622	16457.8
534.261	16357.8
539.894	16306.8
545.521	16171.8
551.141	16128.8
556.756	16076.8
562.365	15986.8
567.968	15914.8
573.565	15955.8
579.155	15765.8
584.74	15750.8
590.319	15693.8
595.892	15671.8
601.459	15610.8
607.02	15513.8
612.575	15433.8
618.124	15315.8
623.667	15293.8
629.204	15164.8
634.735	15103.8
640.261	15070.8
645.781	14977.8
651.294	14955.8
656.802	14914.8
662.304	14911.8
667.8	14816.8
673.29	14848.8
678.775	14822.8
684.254	14732.8
689.726	14686.8
695.193	14655.8
700.655	14575.8
706.11	14519.8
711.56	14423.8
717.004	14371.8
722.442	14268.8
727.874	14216.8
733.301	14237.8
738.722	14172.8
744.137	14098.8
749.547	14123.8
754.951	14143.8
760.349	14142.8
765.741	14111.8
771.128	14155.8
776.509	14116.8
781.885	14159.8
787.254	14106.8
792.618	14062.8
797.977	13967.8
803.33	13883.8
808.677	13812.8
814.019	13721.8
819.355	13671.8
824.686	13614.8
830.011	13588.8
835.33	13551.8
840.644	13578.8
845.952	13548.8
851.255	13604.8
856.552	13598.8
861.844	13593.8
867.13	13521.8
872.41	13474.8
877.686	13448.8
882.955	13345.8
888.219	13209.8
893.478	13089.8
898.731	12893.8
903.979	12801.8
909.221	12717.8
914.458	12629.8
919.69	12601.8
924.916	12661.8
930.136	12695.8
935.351	12682.8
940.561	12686.8
945.766	12681.8
950.965	12596.8
956.158	12506.8
961.347	12445.8
966.529	12229.8
971.707	12091.8
976.879	11948.8
982.046	11889.8
987.208	11798.8
992.364	11817.8
997.515	11857.8
1002.66	11981.8
1007.801	12114.8
1012.936	12177.8
1018.066	12237.8
1023.19	12163.8
1028.309	12239.8
1033.423	12167.8
1038.532	12110.8
1043.636	11976.8
1048.734	11868.8
1053.827	11711.8
1058.915	11575.8
1063.998	11519.8
1069.075	11488.8
1074.147	11507.8
1079.214	11497.8
1084.276	11618.8
1089.333	11659.8
1094.385	11733.8
1099.431	11723.8
1104.472	11729.8
1109.509	11668.8
1114.54	11490.8
1119.565	11351.8
1124.586	11209.8
1129.602	11085.8
1134.613	11022.8
1139.618	11002.8
1144.619	10962.8
1149.614	10931.8
1154.604	10930.8
1159.589	10988.8
1164.57	10953.8
1169.545	10965.8
1174.515	11046.8
1179.48	10921.8
1184.44	10868.8
1189.395	10819.8
1194.345	10702.8
1199.29	10674.8
1204.23	10684.8
1209.165	10695.8
1214.095	10808.8
1219.021	10809.8
1223.941	10845.8
1228.856	10881.8
1233.766	10937.8
1238.672	10933.8
1243.572	10953.8
1248.467	10874.8
1253.358	10749.8
1258.244	10600.8
1263.124	10429.8
1268	10282.8
1272.871	10133.8
1277.737	10042.8
1282.599	10011.8
1287.455	9996.8
1292.306	10042.8
1297.153	10040.8
1301.995	10049.8
1306.832	10147.8
1311.664	10121.8
1316.491	10070.8
1321.314	10010.8
1326.132	9901.8
1330.945	9699.8
1335.753	9461.8
1340.556	9184.8
1345.354	9050.8
1350.148	8922.8
1354.937	8802.8
1359.722	8800.8
1364.501	8798.8
1369.276	8913.8
1374.046	8964.8
1378.811	9066.8
1383.572	9133.8
1388.327	9174.8
1393.079	9135.8
1397.825	9085.8
1402.567	8954.8
1407.304	8796.8
1412.036	8766.8
1416.764	8675.8
1421.487	8631.8
1426.205	8591.8
1430.919	8580.8
1435.628	8577.8
1440.333	8600.8
1445.032	8581.8
1449.727	8642.8
1454.418	8615.8
1459.104	8535.8
1463.785	8358.8
1468.462	8197.8
1473.134	8036.8
1477.802	7863.8
1482.465	7716.8
1487.123	7634.8
1491.777	7648.8
1496.426	7630.8
1501.071	7705.8
1505.711	7826.8
1510.347	7956.8
1514.978	8035.8
1519.604	8153.8
1524.226	8205.8
1528.844	8223.8
1533.457	8223.8
1538.065	8187.8
1542.669	8061.8
1547.269	8033.8
1551.864	8021.8
1556.454	7986.8
1561.041	7948.8
1565.622	7960.8
1570.199	7934.8
1574.772	8038.8
1579.34	8081.8
1583.904	8121.8
1588.464	8115.8
1593.019	8126.8
1597.569	8118.8
1602.115	8043.8
1606.657	8000.8
1611.195	7906.8
1615.728	7868.8
1620.256	7814.8
1624.78	7817.8
1629.3	7852.8
1633.816	7842.8
1638.327	7910.8
1642.834	7929.8
1647.336	7980.8
1651.834	7982.8
1656.328	7917.8
1660.817	7901.8
1665.302	7808.8
1669.783	7661.8
1674.259	7500.8
1678.732	7320.8
1683.199	7070.8
1687.663	6884.8
1692.122	6676.8
1696.577	6542.8
1701.028	6516.8
1705.474	6515.8
1709.917	6560.8
1714.355	6609.8
1718.788	6555.8
1723.218	6492.8
1727.643	6372.8
1732.064	6241.8
1736.481	6078.8
1740.893	5993.8
1745.301	5791.8
1749.705	5669.8
1754.105	5540.8
1758.501	5377.8
1762.893	5188.8
1767.28	5100.8
1771.663	4985.8
1776.042	4878.8
1780.417	4856.8
1784.787	4830.8
1789.154	4884.8
1793.516	4904.8
1797.874	4986.8
1802.228	5089.8
1806.578	5137.8
1810.924	5146.8
1815.266	5058.8
1819.603	5031.8
1823.937	4956.8
1828.266	4874.8
1832.591	4801.8
1836.913	4748.8
1841.23	4690.8
1845.543	4694.8
1849.852	4683.8
1854.156	4660.8
1858.457	4658.8
1862.754	4650.8
1867.047	4647.8
1871.335	4608.8
1875.62	4592.8
1879.9	4576.8
1884.177	4557.8
1888.449	4517.8
1892.718	4466.8
1896.982	4444.8
1901.243	4406.8
1905.499	4338.8
1909.752	4333.8
1914	4345.8
1918.245	4327.8
1922.485	4355.8
1926.722	4418.8
1930.954	4449.8
1935.183	4483.8
1939.408	4508.8
1943.628	4543.8
1947.845	4548.8
1952.058	4554.8
1956.267	4487.8
1960.472	4439.8
1964.673	4394.8
1968.87	4306.8
1973.063	4223.8
1977.252	4203.8
1981.438	4103.8
1985.619	4089.8
1989.797	4061.8
1993.971	4051.8
1998.14	4027.8
2002.306	3990.8
2006.469	3997.8
2010.627	3971.8
2014.781	3928.8
2018.932	3916.8
2023.078	3878.8
2027.221	3819.8
2031.36	3758.8
2035.495	3673.8
2039.627	3636.8
2043.754	3585.8
2047.878	3536.8
2051.998	3544.8
2056.114	3563.8
2060.226	3523.8
2064.334	3513.8
2068.439	3544.8
2072.54	3532.8
2076.637	3590.8
2080.73	3622.8
2084.82	3622.8
2088.906	3626.8
2092.988	3617.8
2097.066	3634.8
2101.14	3584.8
2105.211	3565.8
2109.278	3529.8
2113.342	3507.8
2117.401	3500.8
2121.457	3448.8
2125.509	3458.8
2129.558	3454.8
2133.602	3406.8
2137.643	3368.8
2141.681	3360.8
2145.714	3355.8
2149.744	3304.8
2153.77	3298.8
2157.793	3233.8
2161.812	3216.8
2165.827	3177.8
2169.838	3173.8
2173.846	3103.8
2177.851	3025.8
2181.851	2990.8
2185.848	2952.8
2189.841	2933.8
2193.831	2892.8
2197.817	2866.8
2201.799	2859.8
2205.778	2865.8
2209.753	2847.8
2213.725	2835.8
2217.693	2798.8
2221.657	2801.8
2225.618	2787.8
2229.575	2792.8
2233.529	2754.8
2237.479	2736.8
2241.425	2705.8
2245.368	2652.8
2249.307	2596.8
2253.243	2594.8
2257.175	2552.8
2261.104	2484.8
2265.029	2499.8
2268.95	2464.8
2272.868	2449.8
2276.783	2412.8
2280.694	2376.8
2284.601	2383.8
2288.505	2346.8
2292.405	2324.8
2296.302	2290.8
2300.195	2285.8
2304.085	2247.8
2307.971	2193.8
2311.854	2175.8
2315.734	2146.8
2319.609	2145.8
2323.482	2090.8
2327.351	2072.8
2331.216	2037.8
2335.078	2040.8
2338.937	2031.8
2342.792	2029.8
2346.643	2031.8
2350.492	2010.8
2354.336	2002.8
2358.178	2038.8
2362.015	2032.8
2365.85	2040.8
2369.681	2038.8
2373.508	2048.8
2377.333	2030.8
2381.153	2042.8
2384.971	2028.8
2388.785	2008.8
2392.595	2006.8
2396.402	1989.8
2400.206	1957.8
2404.007	1930.8
2407.804	1936.8
2411.597	1929.8
2415.388	1916.8
2419.174	1896.8
2422.958	1883.8
2426.738	1865.8
2430.515	1835.8
2434.289	1827.8
2438.059	1823.8
2441.825	1818.8
2445.589	1787.8
2449.349	1777.8
2453.106	1758.8
2456.859	1715.8
2460.61	1696.8
2464.356	1662.8
2468.1	1663.8
2471.84	1662.8
2475.577	1626.8
2479.311	1610.8
2483.041	1612.8
2486.768	1617.8
2490.492	1596.8
2494.213	1603.8
2497.93	1588.8
2501.644	1582.8
2505.355	1552.8
2509.062	1550.8
2512.766	1550.8
2516.467	1552.8
2520.165	1549.8
2523.859	1505.8
2527.551	1511.8
2531.239	1502.8
2534.923	1477.8
2538.605	1481.8
2542.283	1470.8
2545.958	1448.8
2549.63	1474.8
2553.299	1464.8
2556.964	1445.8
2560.626	1452.8
2564.285	1440.8
2567.941	1447.8
2571.594	1434.8
2575.243	1408.8
2578.89	1413.8
2582.533	1393.8
2586.173	1381.8
2589.809	1398.8
2593.443	1362.8
2597.073	1364.8
2600.701	1348.8
2604.325	1322.8
2607.946	1318.8
2611.564	1304.8
2615.178	1296.8
2618.79	1290.8
2622.398	1286.8
2626.004	1285.8
2629.606	1248.8
2633.205	1227.8
2636.801	1220.8
2640.394	1202.8
2643.983	1163.8
2647.57	1157.8
2651.153	1144.8
2654.734	1112.8
2658.311	1103.8
2661.885	1083.8
2665.456	1070.8
2669.025	1084.8
2672.589	1038.8
2676.151	1034.8
2679.71	1031.8
2683.266	1020.8
2686.819	993.8
2690.368	964.8
2693.915	965.8
2697.458	930.8
2700.999	895.8
2704.536	881.8
2708.071	865.8
2711.602	834.8
2715.13	827.8
2718.656	820.8
2722.178	798.8
2725.697	794.8
2729.214	775.8
2732.727	754.8
2736.237	773.8
2739.744	743.8
2743.249	772.8
2746.75	764.8
2750.248	750.8
2753.743	775.8
2757.236	766.8
2760.725	781.8
2764.211	773.8
2767.695	785.8
2771.175	763.8
2774.652	783.8
2778.127	772.8
2781.598	772.8
2785.067	763.8
2788.532	765.8
2791.995	758.8
2795.455	757.8
2798.911	773.8
2802.365	758.8
2805.816	767.8
2809.264	769.8
2812.709	759.8
2816.151	756.8
2819.59	782.8
2823.026	751.8
2826.46	760.8
2829.89	768.8
2833.318	782.8
2836.742	764.8
2840.164	783.8
2843.583	778.8
2846.999	774.8
2850.412	785.8
2853.822	823.8
2857.229	823.8
2860.634	828.8
2864.035	833.8
2867.434	850.8
2870.83	866.8
2874.223	882.8
2877.613	899.8
2881	905.8
2884.385	908.8
2887.766	902.8
2891.145	901.8
2894.521	897.8
2897.894	911.8
2901.264	889.8
2904.631	896.8
2907.996	889.8
2911.358	901.8
2914.717	900.8
2918.073	917.8
2921.426	924.8
2924.777	914.8
2928.124	928.8
2931.469	952.8
2934.811	972.8
2938.15	992.8
2941.487	991.8
2944.821	1006.8
2948.152	983.8
2951.48	972.8
2954.805	948.8
2958.128	973.8
2961.447	957.8
2964.765	951.8
2968.079	963.8
2971.39	964.8
2974.699	984.8
2978.005	1011.8
2981.308	1013.8
2984.609	1029.8
2987.907	1051.8
2991.202	1058.8
2994.494	1094.8
2997.784	1094.8
3001.07	1125.8
3004.355	1142.8
3007.636	1157.8
3010.915	1173.8
3014.191	1172.8
3017.464	1185.8
3020.734	1193.8
3024.002	1189.8
3027.267	1215.8
3030.53	1211.8
3033.789	1219.8
3037.046	1245.8
3040.301	1259.8
3043.552	1279.8
3046.801	1313.8
3050.048	1351.8
3053.291	1390.8
3056.532	1411.8
3059.771	1466.8
3063.006	1508.8
3066.239	1572.8
3069.469	1601.8
3072.697	1640.8
3075.922	1694.8
3079.144	1708.8
3082.364	1747.8
3085.581	1806.8
3088.795	1849.8
3092.007	1873.8
3095.216	1911.8
3098.423	1962.8
3101.627	2006.8
3104.828	2038.8
3108.026	2084.8
3111.222	2143.8
3114.416	2183.8
3117.607	2229.8
3120.795	2278.8
3123.98	2337.8
3127.163	2410.8
3130.344	2451.8
3133.521	2519.8
3136.696	2571.8
3139.869	2594.8
3143.039	2670.8
3146.206	2707.8
3149.371	2741.8
3152.533	2771.8
3155.693	2766.8
3158.85	2784.8
3162.005	2789.8
3165.157	2809.8
3168.306	2819.8
3171.453	2840.8
3174.597	2828.8
3177.739	2833.8
3180.878	2811.8
3184.014	2827.8
3187.149	2820.8
3190.28	2826.8
3193.409	2823.8
3196.536	2827.8
3199.659	2825.8
3202.781	2853.8
3205.9	2851.8
3209.016	2856.8
3212.13	2822.8
3215.241	2835.8
3218.35	2789.8
3221.456	2751.8
3224.56	2736.8
3227.661	2692.8
3230.76	2658.8
3233.856	2666.8
3236.95	2620.8
3240.041	2607.8
3243.13	2571.8
3246.216	2542.8
3249.3	2537.8
3252.382	2531.8
3255.46	2522.8
3258.537	2480.8
3261.611	2525.8
3264.682	2488.8
3267.751	2492.8
3270.818	2498.8
3273.882	2502.8
3276.943	2491.8
3280.002	2453.8
3283.059	2418.8
3286.113	2409.8
3289.165	2384.8
3292.214	2308.8
3295.261	2301.8
3298.306	2258.8
3301.348	2230.8
3304.387	2185.8
3307.425	2144.8
3310.459	2097.8
3313.492	2083.8
3316.521	2069.8
3319.549	2024.8
3322.574	2027.8
3325.597	2003.8
3328.617	1969.8
3331.635	1976.8
3334.65	1940.8
3337.663	1957.8
3340.674	1946.8
3343.682	1930.8
3346.688	1947.8
3349.691	1902.8
3352.692	1900.8
3355.691	1911.8
3358.687	1869.8
3361.681	1838.8
3364.673	1830.8
3367.662	1810.8
3370.649	1787.8
3373.633	1750.8
3376.615	1743.8
3379.595	1678.8
3382.572	1685.8
3385.547	1651.8
3388.52	1631.8
3391.49	1599.8
3394.458	1575.8
3397.424	1547.8
3400.387	1519.8
3403.348	1515.8
3406.307	1502.8
3409.263	1465.8
3412.217	1441.8
3415.168	1449.8
3418.118	1431.8
3421.065	1405.8
3424.009	1377.8
3426.951	1369.8
3429.891	1334.8
3432.829	1312.8
3435.764	1264.8
3438.697	1247.8
3441.628	1206.8
3444.557	1181.8
3447.483	1132.8
3450.407	1090.8
3453.328	1081.8
3456.247	1034.8
3459.164	984.8
3462.079	947.8
3464.991	903.8
3467.902	865.8
3470.809	840.8
3473.715	804.8
3476.618	775.8
3479.519	751.8
3482.418	737.8
3485.315	688.8
3488.209	671.8
3491.101	632.8
3493.99	608.8
3496.878	597.8
3499.763	565.8
3502.646	555.8
3505.527	525.8
3508.405	484.8
3511.281	463.8
3514.155	444.8
3517.027	404.8
3519.897	384.8
3522.764	350.8
3525.629	318.8
3528.492	291.8
3531.352	267.8
3534.211	235.8
3537.067	203.8
3539.921	188.8
3542.773	162.8
3545.622	140.8
3548.469	123.8
3551.315	82.8
3554.157	75.8
3556.998	48.8
3559.837	33.8
3562.673	13.8
3565.507	-7.2
3568.339	-22.2
3571.169	-22.2
3573.996	-47.2
3576.822	-61.2
3579.645	-73.2
3582.466	-96.2
3585.285	-94.2
3588.101	-110.2
3590.916	-126.2
3593.728	-146.2
3596.538	-144.2
3599.346	-167.2
3602.152	-176.2
3604.956	-187.2
3607.757	-204.2
3610.556	-212.2
3613.354	-214.2
3616.149	-241.2
3618.942	-242.2
3621.732	-248.2
3624.521	-265.2
3627.307	-269.2
3630.092	-273.2
3632.874	-279.2
3635.654	-294.2
3638.432	-287.2
3641.208	-298.2
3643.982	-313.2
3646.753	-311.2
3649.523	-317.2
3652.29	-320.2
3655.055	-326.2
3657.818	-342.2
3660.579	-350.2
3663.338	-356.2
3666.095	-364.2
3668.849	-363.2
3671.602	-369.2
3674.352	-378.2
3677.101	-377.2
3679.847	-392.2
3682.591	-396.2
3685.333	-399.2
3688.073	-397.2
3690.811	-400.2
3693.547	-407.2
3696.281	-413.2
3699.013	-415.2
3701.742	-411.2
3704.47	-418.2
3707.195	-428.2
3709.919	-427.2
3712.64	-431.2
3715.359	-431.2
3718.076	-438.2
3720.792	-435.2
3723.505	-431.2
3726.216	-444.2
3728.925	-440.2
3731.632	-442.2
3734.336	-451.2
3737.039	-453.2
3739.74	-447.2
3742.439	-453.2
3745.136	-459.2
3747.83	-457.2
3750.523	-453.2
3753.213	-449.2
3755.902	-466.2
3758.589	-460.2
3761.273	-467.2
3763.956	-469.2
3766.636	-468.2
3769.315	-473.2
3771.991	-475.2
3774.665	-475.2
3777.338	-470.2
3780.008	-472.2
3782.677	-475.2
3785.343	-470.2
3788.007	-472.2
3790.67	-477.2
3793.33	-480.2
3795.989	-473.2
3798.645	-472.2
3801.299	-475.2
3803.952	-482.2
3806.602	-487.2
3809.251	-488.2
3811.897	-483.2
3814.542	-486.2
3817.184	-485.2
3819.825	-480.2
3822.463	-480.2
3825.1	-486.2
3827.735	-482.2
3830.367	-489.2
3832.998	-486.2
3835.627	-494.2
3838.253	-489.2
3840.878	-493.2
3843.501	-491.2
3846.122	-486.2
3848.741	-491.2
3851.358	-487.2
3853.973	-491.2
3856.586	-497.2
3859.197	-496.2
3861.806	-500.2
3864.414	-487.2
3867.019	-488.2
3869.622	-490.2
3872.224	-490.2
3874.823	-472.2
3877.421	-460.2
3880.016	-446.2
3882.61	-423.2
3885.202	-424.2
3887.792	-443.2
3890.38	-468.2
3892.966	-478.2
3895.55	-489.2
3898.132	-504.2
3900.713	-505.2
3903.291	-500.2
3905.868	-506.2
3908.442	-507.2
3911.015	-500.2
3913.586	-499.2
3916.155	-500.2
3918.722	-504.2
3921.287	-503.2
3923.85	-506.2
3926.411	-507.2
3928.971	-510.2
3931.528	-501.2
3934.084	-507.2
3936.638	-498.2
3939.19	-507.2
3941.74	-499.2
3944.288	-503.2
3946.834	-499.2
3949.378	-504.2
3951.921	-498.2
3954.462	-512.2
3957	-497.2
3959.537	-509.2
3962.072	-501.2
3964.606	-504.2
3967.137	-504.2
3969.667	-506.2
3972.194	-499.2
3974.72	-504.2
3977.244	-500.2
3979.766	-497.2
3982.286	-500.2
3984.805	-498.2
3987.321	-489.2
3989.836	-497.2
3992.349	-489.2
3994.86	-492.2
3997.369	-500.2
3999.877	-489.2
4002.382	-490.2
4004.886	-488.2
4007.388	-490.2
4009.888	-485.2
4012.386	-490.2
4014.883	-488.2
4017.377	-492.2
4019.87	-491.2
4022.361	-491.2
4024.85	-495.2
4027.338	-494.2
4029.823	-494.2
4032.307	-494.2
4034.789	-490.2
4037.269	-493.2
4039.747	-500.2
4042.224	-493.2
4044.699	-492.2
4047.172	-494.2
4049.643	-491.2
4052.112	-501.2
4054.58	-499.2
4057.046	-500.2
4059.51	-497.2
4061.972	-499.2
4064.432	-497.2
4066.891	-495.2
4069.348	-493.2
4071.803	-488.2
4074.256	-490.2
4076.708	-489.2
4079.158	-491.2
4081.606	-492.2
4084.052	-499.2
4086.497	-497.2
4088.939	-488.2
4091.38	-491.2
4093.819	-491.2
4096.257	-518.2
4098.693	-517.2
4101.127	-524.2
4103.559	-517.2
4105.989	-287.2
4108.418	-270.2
4110.845	-257.2
4113.27	-230.2
4115.694	-206.2
4118.115	-176.2
4120.535	-489.2
4122.954	-489.2
4125.37	-486.2
4127.785	-496.2
4130.198	-497.2
4132.609	-496.2
4135.019	-524.2
4137.427	-525.2
4139.833	-524.2
4142.237	-516.2
