Data from 2018-2-14_conc=0_n=4_RamanShift_05.txt Node
Date: Wed Feb 14 10:37:56 IST 2018
User: aro
Spectrometer: QEPB0276
Trigger mode: 0
Integration Time (sec): 3.000000E1
Scans to average: 1
Electric dark correction enabled: true
Nonlinearity correction enabled: false
Boxcar width: 0
XAxis mode: Raman Shifts
Number of Pixels in Spectrum: 1044
>>>>>Begin Spectral Data<<<<<
160.701	-146.6
166.742	43.4
172.777	577.4
178.805	2237.4
184.826	6177.4
190.841	12934.4
196.849	20631.4
202.85	26056.4
208.845	27791.4
214.833	27523.4
220.815	27075.4
226.789	26936.4
232.758	26755.4
238.719	26659.4
244.674	26290.4
250.623	25836.4
256.565	25333.4
262.5	24758.4
268.429	24371.4
274.351	23996.4
280.267	23678.4
286.176	23443.4
292.079	23255.4
297.975	22995.4
303.865	22819.4
309.748	22609.4
315.625	22566.4
321.495	22415.4
327.359	22327.4
333.217	22243.4
339.068	22296.4
344.912	22151.4
350.751	22179.4
356.583	22137.4
362.408	22165.4
368.227	22130.4
374.04	22217.4
379.847	22218.4
385.647	22306.4
391.44	22378.4
397.228	22486.4
403.009	22560.4
408.784	22609.4
414.553	22729.4
420.315	22776.4
426.071	22759.4
431.821	22773.4
437.565	22693.4
443.302	22695.4
449.033	22646.4
454.758	22623.4
460.477	22546.4
466.189	22500.4
471.896	22477.4
477.596	22386.4
483.29	22371.4
488.978	22356.4
494.66	22285.4
500.335	22131.4
506.005	21900.4
511.668	21682.4
517.325	21472.4
522.977	21289.4
528.622	21179.4
534.261	21027.4
539.894	20934.4
545.521	20881.4
551.141	20718.4
556.756	20739.4
562.365	20680.4
567.968	20615.4
573.565	20489.4
579.155	20438.4
584.74	20333.4
590.319	20357.4
595.892	20241.4
601.459	20122.4
607.02	20038.4
612.575	19905.4
618.124	19752.4
623.667	19677.4
629.204	19574.4
634.735	19479.4
640.261	19444.4
645.781	19372.4
651.294	19317.4
656.802	19317.4
662.304	19307.4
667.8	19225.4
673.29	19231.4
678.775	19165.4
684.254	19141.4
689.726	19085.4
695.193	19060.4
700.655	18914.4
706.11	18808.4
711.56	18730.4
717.004	18647.4
722.442	18597.4
727.874	18470.4
733.301	18433.4
738.722	18401.4
744.137	18339.4
749.547	18363.4
754.951	18348.4
760.349	18363.4
765.741	18327.4
771.128	18346.4
776.509	18360.4
781.885	18412.4
787.254	18346.4
792.618	18268.4
797.977	18137.4
803.33	17984.4
808.677	17885.4
814.019	17839.4
819.355	17768.4
824.686	17616.4
830.011	17586.4
835.33	17617.4
840.644	17639.4
845.952	17582.4
851.255	17697.4
856.552	17708.4
861.844	17718.4
867.13	17624.4
872.41	17606.4
877.686	17455.4
882.955	17396.4
888.219	17218.4
893.478	17065.4
898.731	16839.4
903.979	16680.4
909.221	16560.4
914.458	16433.4
919.69	16470.4
924.916	16555.4
930.136	16601.4
935.351	16612.4
940.561	16595.4
945.766	16556.4
950.965	16506.4
956.158	16376.4
961.347	16219.4
966.529	15996.4
971.707	15833.4
976.879	15625.4
982.046	15515.4
987.208	15481.4
992.364	15454.4
997.515	15540.4
1002.66	15728.4
1007.801	15857.4
1012.936	15970.4
1018.066	15930.4
1023.19	16009.4
1028.309	15975.4
1033.423	15876.4
1038.532	15845.4
1043.636	15692.4
1048.734	15565.4
1053.827	15368.4
1058.915	15157.4
1063.998	15067.4
1069.075	15025.4
1074.147	15059.4
1079.214	15081.4
1084.276	15203.4
1089.333	15280.4
1094.385	15320.4
1099.431	15376.4
1104.472	15443.4
1109.509	15316.4
1114.54	15125.4
1119.565	14927.4
1124.586	14765.4
1129.602	14573.4
1134.613	14483.4
1139.618	14408.4
1144.619	14371.4
1149.614	14372.4
1154.604	14406.4
1159.589	14446.4
1164.57	14461.4
1169.545	14494.4
1174.515	14504.4
1179.48	14427.4
1184.44	14294.4
1189.395	14180.4
1194.345	14137.4
1199.29	14032.4
1204.23	13991.4
1209.165	14094.4
1214.095	14137.4
1219.021	14239.4
1223.941	14303.4
1228.856	14380.4
1233.766	14353.4
1238.672	14433.4
1243.572	14400.4
1248.467	14342.4
1253.358	14182.4
1258.244	14003.4
1263.124	13792.4
1268	13581.4
1272.871	13442.4
1277.737	13300.4
1282.599	13214.4
1287.455	13187.4
1292.306	13254.4
1297.153	13318.4
1301.995	13365.4
1306.832	13387.4
1311.664	13449.4
1316.491	13431.4
1321.314	13247.4
1326.132	13067.4
1330.945	12766.4
1335.753	12452.4
1340.556	12099.4
1345.354	11842.4
1350.148	11647.4
1354.937	11625.4
1359.722	11622.4
1364.501	11764.4
1369.276	11872.4
1374.046	12088.4
1378.811	12276.4
1383.572	12408.4
1388.327	12476.4
1393.079	12342.4
1397.825	12211.4
1402.567	11960.4
1407.304	11848.4
1412.036	11713.4
1416.764	11622.4
1421.487	11534.4
1426.205	11452.4
1430.919	11434.4
1435.628	11428.4
1440.333	11435.4
1445.032	11488.4
1449.727	11489.4
1454.418	11461.4
1459.104	11377.4
1463.785	11148.4
1468.462	10901.4
1473.134	10648.4
1477.802	10459.4
1482.465	10277.4
1487.123	10214.4
1491.777	10193.4
1496.426	10349.4
1501.071	10430.4
1505.711	10643.4
1510.347	10798.4
1514.978	11035.4
1519.604	11153.4
1524.226	11288.4
1528.844	11283.4
1533.457	11276.4
1538.065	11177.4
1542.669	11094.4
1547.269	11005.4
1551.864	10916.4
1556.454	10852.4
1561.041	10851.4
1565.622	10816.4
1570.199	10860.4
1574.772	10881.4
1579.34	10943.4
1583.904	11024.4
1588.464	11029.4
1593.019	10995.4
1597.569	10953.4
1602.115	10882.4
1606.657	10779.4
1611.195	10745.4
1615.728	10686.4
1620.256	10612.4
1624.78	10587.4
1629.3	10624.4
1633.816	10610.4
1638.327	10677.4
1642.834	10737.4
1647.336	10779.4
1651.834	10872.4
1656.328	10811.4
1660.817	10807.4
1665.302	10710.4
1669.783	10499.4
1674.259	10274.4
1678.732	9974.4
1683.199	9672.4
1687.663	9318.4
1692.122	9080.4
1696.577	8960.4
1701.028	8995.4
1705.474	9082.4
1709.917	9232.4
1714.355	9309.4
1718.788	9223.4
1723.218	9040.4
1727.643	8889.4
1732.064	8732.4
1736.481	8505.4
1740.893	8333.4
1745.301	8078.4
1749.705	7818.4
1754.105	7633.4
1758.501	7416.4
1762.893	7193.4
1767.28	7026.4
1771.663	6848.4
1776.042	6706.4
1780.417	6679.4
1784.787	6708.4
1789.154	6770.4
1793.516	6942.4
1797.874	7094.4
1802.228	7241.4
1806.578	7314.4
1810.924	7321.4
1815.266	7265.4
1819.603	7141.4
1823.937	7006.4
1828.266	6896.4
1832.591	6757.4
1836.913	6664.4
1841.23	6613.4
1845.543	6582.4
1849.852	6525.4
1854.156	6488.4
1858.457	6452.4
1862.754	6464.4
1867.047	6471.4
1871.335	6478.4
1875.62	6483.4
1879.9	6442.4
1884.177	6379.4
1888.449	6334.4
1892.718	6298.4
1896.982	6191.4
1901.243	6190.4
1905.499	6116.4
1909.752	6092.4
1914	6088.4
1918.245	6121.4
1922.485	6184.4
1926.722	6274.4
1930.954	6335.4
1935.183	6446.4
1939.408	6515.4
1943.628	6563.4
1947.845	6540.4
1952.058	6516.4
1956.267	6462.4
1960.472	6402.4
1964.673	6307.4
1968.87	6205.4
1973.063	6048.4
1977.252	5973.4
1981.438	5938.4
1985.619	5860.4
1989.797	5794.4
1993.971	5758.4
1998.14	5733.4
2002.306	5679.4
2006.469	5683.4
2010.627	5645.4
2014.781	5590.4
2018.932	5550.4
2023.078	5507.4
2027.221	5399.4
2031.36	5329.4
2035.495	5230.4
2039.627	5164.4
2043.754	5125.4
2047.878	5053.4
2051.998	5035.4
2056.114	5154.4
2060.226	5182.4
2064.334	5039.4
2068.439	5046.4
2072.54	5114.4
2076.637	5135.4
2080.73	5177.4
2084.82	5183.4
2088.906	5233.4
2092.988	5222.4
2097.066	5243.4
2101.14	5196.4
2105.211	5158.4
2109.278	5122.4
2113.342	5109.4
2117.401	5060.4
2121.457	5050.4
2125.509	5000.4
2129.558	4961.4
2133.602	4946.4
2137.643	4907.4
2141.681	4869.4
2145.714	4851.4
2149.744	4810.4
2153.77	4776.4
2157.793	4713.4
2161.812	4676.4
2165.827	4598.4
2169.838	4539.4
2173.846	4482.4
2177.851	4362.4
2181.851	4308.4
2185.848	4254.4
2189.841	4214.4
2193.831	4185.4
2197.817	4118.4
2201.799	4126.4
2205.778	4089.4
2209.753	4054.4
2213.725	4067.4
2217.693	4051.4
2221.657	4064.4
2225.618	4017.4
2229.575	4007.4
2233.529	3968.4
2237.479	3931.4
2241.425	3891.4
2245.368	3819.4
2249.307	3762.4
2253.243	3745.4
2257.175	3680.4
2261.104	3633.4
2265.029	3599.4
2268.95	3566.4
2272.868	3509.4
2276.783	3475.4
2280.694	3449.4
2284.601	3405.4
2288.505	3392.4
2292.405	3367.4
2296.302	3320.4
2300.195	3271.4
2304.085	3247.4
2307.971	3184.4
2311.854	3121.4
2315.734	3091.4
2319.609	3061.4
2323.482	3014.4
2327.351	2978.4
2331.216	2939.4
2335.078	2947.4
2338.937	2899.4
2342.792	2905.4
2346.643	2908.4
2350.492	2914.4
2354.336	2895.4
2358.178	2922.4
2362.015	2916.4
2365.85	2921.4
2369.681	2908.4
2373.508	2927.4
2377.333	2923.4
2381.153	2929.4
2384.971	2882.4
2388.785	2876.4
2392.595	2847.4
2396.402	2806.4
2400.206	2782.4
2404.007	2753.4
2407.804	2765.4
2411.597	2728.4
2415.388	2712.4
2419.174	2703.4
2422.958	2690.4
2426.738	2650.4
2430.515	2646.4
2434.289	2618.4
2438.059	2597.4
2441.825	2593.4
2445.589	2545.4
2449.349	2514.4
2453.106	2503.4
2456.859	2458.4
2460.61	2425.4
2464.356	2410.4
2468.1	2385.4
2471.84	2347.4
2475.577	2343.4
2479.311	2314.4
2483.041	2289.4
2486.768	2314.4
2490.492	2289.4
2494.213	2306.4
2497.93	2286.4
2501.644	2277.4
2505.355	2267.4
2509.062	2265.4
2512.766	2238.4
2516.467	2218.4
2520.165	2219.4
2523.859	2198.4
2527.551	2195.4
2531.239	2172.4
2534.923	2156.4
2538.605	2179.4
2542.283	2157.4
2545.958	2148.4
2549.63	2150.4
2553.299	2140.4
2556.964	2147.4
2560.626	2141.4
2564.285	2116.4
2567.941	2129.4
2571.594	2102.4
2575.243	2094.4
2578.89	2076.4
2582.533	2062.4
2586.173	2030.4
2589.809	2030.4
2593.443	2010.4
2597.073	1984.4
2600.701	1957.4
2604.325	1949.4
2607.946	1929.4
2611.564	1915.4
2615.178	1916.4
2618.79	1888.4
2622.398	1883.4
2626.004	1854.4
2629.606	1839.4
2633.205	1814.4
2636.801	1796.4
2640.394	1774.4
2643.983	1727.4
2647.57	1712.4
2651.153	1684.4
2654.734	1673.4
2658.311	1629.4
2661.885	1602.4
2665.456	1583.4
2669.025	1574.4
2672.589	1545.4
2676.151	1525.4
2679.71	1523.4
2683.266	1484.4
2686.819	1471.4
2690.368	1443.4
2693.915	1397.4
2697.458	1349.4
2700.999	1336.4
2704.536	1311.4
2708.071	1294.4
2711.602	1254.4
2715.13	1230.4
2718.656	1219.4
2722.178	1196.4
2725.697	1166.4
2729.214	1155.4
2732.727	1139.4
2736.237	1125.4
2739.744	1144.4
2743.249	1162.4
2746.75	1161.4
2750.248	1184.4
2753.743	1200.4
2757.236	1195.4
2760.725	1206.4
2764.211	1210.4
2767.695	1225.4
2771.175	1228.4
2774.652	1214.4
2778.127	1215.4
2781.598	1198.4
2785.067	1204.4
2788.532	1191.4
2791.995	1182.4
2795.455	1175.4
2798.911	1171.4
2802.365	1165.4
2805.816	1185.4
2809.264	1185.4
2812.709	1165.4
2816.151	1170.4
2819.59	1186.4
2823.026	1174.4
2826.46	1165.4
2829.89	1169.4
2833.318	1174.4
2836.742	1171.4
2840.164	1188.4
2843.583	1193.4
2846.999	1195.4
2850.412	1209.4
2853.822	1209.4
2857.229	1245.4
2860.634	1239.4
2864.035	1284.4
2867.434	1305.4
2870.83	1318.4
2874.223	1334.4
2877.613	1350.4
2881	1354.4
2884.385	1351.4
2887.766	1347.4
2891.145	1354.4
2894.521	1352.4
2897.894	1345.4
2901.264	1331.4
2904.631	1351.4
2907.996	1342.4
2911.358	1354.4
2914.717	1352.4
2918.073	1381.4
2921.426	1372.4
2924.777	1383.4
2928.124	1401.4
2931.469	1435.4
2934.811	1446.4
2938.15	1461.4
2941.487	1480.4
2944.821	1478.4
2948.152	1477.4
2951.48	1447.4
2954.805	1448.4
2958.128	1451.4
2961.447	1436.4
2964.765	1446.4
2968.079	1426.4
2971.39	1425.4
2974.699	1466.4
2978.005	1481.4
2981.308	1492.4
2984.609	1542.4
2987.907	1540.4
2991.202	1590.4
2994.494	1622.4
2997.784	1655.4
3001.07	1661.4
3004.355	1709.4
3007.636	1737.4
3010.915	1769.4
3014.191	1750.4
3017.464	1770.4
3020.734	1789.4
3024.002	1798.4
3027.267	1787.4
3030.53	1802.4
3033.789	1846.4
3037.046	1856.4
3040.301	1867.4
3043.552	1911.4
3046.801	1955.4
3050.048	1982.4
3053.291	2053.4
3056.532	2071.4
3059.771	2122.4
3063.006	2197.4
3066.239	2278.4
3069.469	2321.4
3072.697	2403.4
3075.922	2445.4
3079.144	2504.4
3082.364	2560.4
3085.581	2602.4
3088.795	2637.4
3092.007	2724.4
3095.216	2768.4
3098.423	2821.4
3101.627	2924.4
3104.828	2963.4
3108.026	3027.4
3111.222	3085.4
3114.416	3142.4
3117.607	3244.4
3120.795	3292.4
3123.98	3401.4
3127.163	3451.4
3130.344	3540.4
3133.521	3638.4
3136.696	3730.4
3139.869	3774.4
3143.039	3828.4
3146.206	3886.4
3149.371	3920.4
3152.533	3985.4
3155.693	4011.4
3158.85	4030.4
3162.005	4025.4
3165.157	4046.4
3168.306	4041.4
3171.453	4058.4
3174.597	4085.4
3177.739	4081.4
3180.878	4059.4
3184.014	4075.4
3187.149	4090.4
3190.28	4080.4
3193.409	4081.4
3196.536	4097.4
3199.659	4074.4
3202.781	4075.4
3205.9	4099.4
3209.016	4090.4
3212.13	4045.4
3215.241	4073.4
3218.35	4011.4
3221.456	3973.4
3224.56	3940.4
3227.661	3897.4
3230.76	3839.4
3233.856	3779.4
3236.95	3743.4
3240.041	3754.4
3243.13	3702.4
3246.216	3670.4
3249.3	3652.4
3252.382	3668.4
3255.46	3654.4
3258.537	3625.4
3261.611	3646.4
3264.682	3666.4
3267.751	3640.4
3270.818	3623.4
3273.882	3622.4
3276.943	3607.4
3280.002	3547.4
3283.059	3531.4
3286.113	3490.4
3289.165	3469.4
3292.214	3391.4
3295.261	3305.4
3298.306	3288.4
3301.348	3206.4
3304.387	3154.4
3307.425	3120.4
3310.459	3075.4
3313.492	3020.4
3316.521	2996.4
3319.549	2957.4
3322.574	2918.4
3325.597	2893.4
3328.617	2855.4
3331.635	2845.4
3334.65	2845.4
3337.663	2823.4
3340.674	2800.4
3343.682	2791.4
3346.688	2770.4
3349.691	2764.4
3352.692	2748.4
3355.691	2732.4
3358.687	2712.4
3361.681	2677.4
3364.673	2664.4
3367.662	2597.4
3370.649	2553.4
3373.633	2523.4
3376.615	2497.4
3379.595	2452.4
3382.572	2427.4
3385.547	2389.4
3388.52	2338.4
3391.49	2330.4
3394.458	2271.4
3397.424	2237.4
3400.387	2220.4
3403.348	2185.4
3406.307	2162.4
3409.263	2152.4
3412.217	2127.4
3415.168	2104.4
3418.118	2094.4
3421.065	2072.4
3424.009	2008.4
3426.951	1980.4
3429.891	1944.4
3432.829	1890.4
3435.764	1851.4
3438.697	1801.4
3441.628	1772.4
3444.557	1725.4
3447.483	1642.4
3450.407	1609.4
3453.328	1569.4
3456.247	1491.4
3459.164	1444.4
3462.079	1392.4
3464.991	1364.4
3467.902	1283.4
3470.809	1255.4
3473.715	1199.4
3476.618	1146.4
3479.519	1110.4
3482.418	1064.4
3485.315	1037.4
3488.209	1005.4
3491.101	974.4
3493.99	936.4
3496.878	889.4
3499.763	854.4
3502.646	829.4
3505.527	785.4
3508.405	751.4
3511.281	688.4
3514.155	674.4
3517.027	648.4
3519.897	594.4
3522.764	561.4
3525.629	526.4
3528.492	457.4
3531.352	415.4
3534.211	415.4
3537.067	353.4
3539.921	333.4
3542.773	287.4
3545.622	254.4
3548.469	219.4
3551.315	190.4
3554.157	164.4
3556.998	135.4
3559.837	119.4
3562.673	82.4
3565.507	55.4
3568.339	26.4
3571.169	26.4
3573.996	4.4
3576.822	-17.6
3579.645	-48.6
3582.466	-52.6
3585.285	-86.6
3588.101	-94.6
3590.916	-124.6
3593.728	-146.6
3596.538	-160.6
3599.346	-171.6
3602.152	-193.6
3604.956	-215.6
3607.757	-220.6
3610.556	-239.6
3613.354	-256.6
3616.149	-256.6
3618.942	-282.6
3621.732	-279.6
3624.521	-303.6
3627.307	-314.6
3630.092	-320.6
3632.874	-341.6
3635.654	-343.6
3638.432	-355.6
3641.208	-364.6
3643.982	-371.6
3646.753	-383.6
3649.523	-392.6
3652.29	-402.6
3655.055	-407.6
3657.818	-415.6
3660.579	-432.6
3663.338	-436.6
3666.095	-442.6
3668.849	-457.6
3671.602	-468.6
3674.352	-474.6
3677.101	-480.6
3679.847	-486.6
3682.591	-499.6
3685.333	-497.6
3688.073	-503.6
3690.811	-513.6
3693.547	-516.6
3696.281	-517.6
3699.013	-524.6
3701.742	-525.6
3704.47	-539.6
3707.195	-536.6
3709.919	-538.6
3712.64	-551.6
3715.359	-545.6
3718.076	-554.6
3720.792	-554.6
3723.505	-566.6
3726.216	-564.6
3728.925	-567.6
3731.632	-567.6
3734.336	-572.6
3737.039	-573.6
3739.74	-574.6
3742.439	-577.6
3745.136	-580.6
3747.83	-584.6
3750.523	-589.6
3753.213	-578.6
3755.902	-590.6
3758.589	-593.6
3761.273	-600.6
3763.956	-602.6
3766.636	-603.6
3769.315	-603.6
3771.991	-606.6
3774.665	-605.6
3777.338	-602.6
3780.008	-609.6
3782.677	-606.6
3785.343	-601.6
3788.007	-613.6
3790.67	-610.6
3793.33	-615.6
3795.989	-616.6
3798.645	-613.6
3801.299	-611.6
3803.952	-617.6
3806.602	-624.6
3809.251	-624.6
3811.897	-621.6
3814.542	-625.6
3817.184	-614.6
3819.825	-625.6
3822.463	-624.6
3825.1	-626.6
3827.735	-621.6
3830.367	-627.6
3832.998	-634.6
3835.627	-639.6
3838.253	-629.6
3840.878	-637.6
3843.501	-631.6
3846.122	-628.6
3848.741	-629.6
3851.358	-635.6
3853.973	-630.6
3856.586	-628.6
3859.197	-636.6
3861.806	-636.6
3864.414	-632.6
3867.019	-635.6
3869.622	-639.6
3872.224	-639.6
3874.823	-614.6
3877.421	-604.6
3880.016	-588.6
3882.61	-562.6
3885.202	-564.6
3887.792	-571.6
3890.38	-609.6
3892.966	-621.6
3895.55	-632.6
3898.132	-652.6
3900.713	-651.6
3903.291	-649.6
3905.868	-653.6
3908.442	-651.6
3911.015	-646.6
3913.586	-648.6
3916.155	-643.6
3918.722	-651.6
3921.287	-647.6
3923.85	-653.6
3926.411	-646.6
3928.971	-663.6
3931.528	-648.6
3934.084	-653.6
3936.638	-651.6
3939.19	-654.6
3941.74	-646.6
3944.288	-658.6
3946.834	-647.6
3949.378	-655.6
3951.921	-649.6
3954.462	-659.6
3957	-647.6
3959.537	-647.6
3962.072	-645.6
3964.606	-650.6
3967.137	-653.6
3969.667	-650.6
3972.194	-650.6
3974.72	-656.6
3977.244	-640.6
3979.766	-642.6
3982.286	-645.6
3984.805	-645.6
3987.321	-639.6
3989.836	-642.6
3992.349	-639.6
3994.86	-631.6
3997.369	-641.6
3999.877	-633.6
4002.382	-635.6
4004.886	-640.6
4007.388	-637.6
4009.888	-633.6
4012.386	-640.6
4014.883	-639.6
4017.377	-635.6
4019.87	-637.6
4022.361	-635.6
4024.85	-637.6
4027.338	-641.6
4029.823	-641.6
4032.307	-636.6
4034.789	-636.6
4037.269	-636.6
4039.747	-642.6
4042.224	-645.6
4044.699	-642.6
4047.172	-646.6
4049.643	-640.6
4052.112	-651.6
4054.58	-648.6
4057.046	-648.6
4059.51	-641.6
4061.972	-642.6
4064.432	-648.6
4066.891	-639.6
4069.348	-641.6
4071.803	-635.6
4074.256	-640.6
4076.708	-646.6
4079.158	-638.6
4081.606	-646.6
4084.052	-650.6
4086.497	-644.6
4088.939	-637.6
4091.38	-640.6
4093.819	-635.6
4096.257	-676.6
4098.693	-674.6
4101.127	-674.6
4103.559	-674.6
4105.989	-391.6
4108.418	-368.6
4110.845	-339.6
4113.27	-318.6
4115.694	-281.6
4118.115	-222.6
4120.535	-640.6
4122.954	-637.6
4125.37	-629.6
4127.785	-641.6
4130.198	-641.6
4132.609	-643.6
4135.019	-673.6
4137.427	-680.6
4139.833	-681.6
4142.237	-675.6
