Data from 2018-2-14_conc=0_n=5_RamanShift_00.txt Node
Date: Wed Feb 14 10:39:26 IST 2018
User: aro
Spectrometer: QEPB0276
Trigger mode: 0
Integration Time (sec): 3.000000E1
Scans to average: 1
Electric dark correction enabled: true
Nonlinearity correction enabled: false
Boxcar width: 0
XAxis mode: Raman Shifts
Number of Pixels in Spectrum: 1044
>>>>>Begin Spectral Data<<<<<
160.701	-142.4
166.742	31.6
172.777	548.6
178.805	2122.6
184.826	5867.6
190.841	12149.6
196.849	19459.6
202.85	24532.6
208.845	26186.6
214.833	25841.6
220.815	25386.6
226.789	25207.6
232.758	25024.6
238.719	24829.6
244.674	24431.6
250.623	23920.6
256.565	23425.6
262.5	22986.6
268.429	22484.6
274.351	22117.6
280.267	21757.6
286.176	21532.6
292.079	21305.6
297.975	21054.6
303.865	20881.6
309.748	20707.6
315.625	20589.6
321.495	20398.6
327.359	20347.6
333.217	20323.6
339.068	20301.6
344.912	20201.6
350.751	20257.6
356.583	20162.6
362.408	20232.6
368.227	20181.6
374.04	20187.6
379.847	20220.6
385.647	20314.6
391.44	20506.6
397.228	20557.6
403.009	20592.6
408.784	20592.6
414.553	20645.6
420.315	20777.6
426.071	20792.6
431.821	20723.6
437.565	20746.6
443.302	20700.6
449.033	20684.6
454.758	20590.6
460.477	20585.6
466.189	20525.6
471.896	20490.6
477.596	20375.6
483.29	20369.6
488.978	20353.6
494.66	20273.6
500.335	20128.6
506.005	19892.6
511.668	19679.6
517.325	19401.6
522.977	19262.6
528.622	19122.6
534.261	18981.6
539.894	18961.6
545.521	18805.6
551.141	18737.6
556.756	18687.6
562.365	18591.6
567.968	18568.6
573.565	18453.6
579.155	18296.6
584.74	18254.6
590.319	18286.6
595.892	18202.6
601.459	18062.6
607.02	18042.6
612.575	17917.6
618.124	17768.6
623.667	17699.6
629.204	17607.6
634.735	17504.6
640.261	17424.6
645.781	17322.6
651.294	17388.6
656.802	17344.6
662.304	17249.6
667.8	17229.6
673.29	17198.6
678.775	17199.6
684.254	17077.6
689.726	17088.6
695.193	17003.6
700.655	16946.6
706.11	16853.6
711.56	16792.6
717.004	16715.6
722.442	16605.6
727.874	16486.6
733.301	16535.6
738.722	16450.6
744.137	16420.6
749.547	16400.6
754.951	16384.6
760.349	16428.6
765.741	16391.6
771.128	16399.6
776.509	16492.6
781.885	16415.6
787.254	16382.6
792.618	16345.6
797.977	16197.6
803.33	16064.6
808.677	15950.6
814.019	15914.6
819.355	15800.6
824.686	15750.6
830.011	15691.6
835.33	15772.6
840.644	15693.6
845.952	15726.6
851.255	15781.6
856.552	15801.6
861.844	15749.6
867.13	15737.6
872.41	15663.6
877.686	15559.6
882.955	15437.6
888.219	15304.6
893.478	15161.6
898.731	14933.6
903.979	14778.6
909.221	14709.6
914.458	14688.6
919.69	14605.6
924.916	14675.6
930.136	14704.6
935.351	14718.6
940.561	14704.6
945.766	14660.6
950.965	14659.6
956.158	14552.6
961.347	14358.6
966.529	14192.6
971.707	13995.6
976.879	13811.6
982.046	13698.6
987.208	13674.6
992.364	13680.6
997.515	13759.6
1002.66	13893.6
1007.801	14064.6
1012.936	14096.6
1018.066	14177.6
1023.19	14101.6
1028.309	14140.6
1033.423	14085.6
1038.532	14032.6
1043.636	13888.6
1048.734	13744.6
1053.827	13559.6
1058.915	13404.6
1063.998	13333.6
1069.075	13291.6
1074.147	13289.6
1079.214	13332.6
1084.276	13434.6
1089.333	13450.6
1094.385	13560.6
1099.431	13604.6
1104.472	13604.6
1109.509	13486.6
1114.54	13374.6
1119.565	13224.6
1124.586	12973.6
1129.602	12934.6
1134.613	12817.6
1139.618	12739.6
1144.619	12700.6
1149.614	12702.6
1154.604	12718.6
1159.589	12715.6
1164.57	12780.6
1169.545	12814.6
1174.515	12804.6
1179.48	12693.6
1184.44	12617.6
1189.395	12511.6
1194.345	12436.6
1199.29	12383.6
1204.23	12375.6
1209.165	12400.6
1214.095	12464.6
1219.021	12550.6
1223.941	12625.6
1228.856	12686.6
1233.766	12702.6
1238.672	12727.6
1243.572	12722.6
1248.467	12601.6
1253.358	12454.6
1258.244	12322.6
1263.124	12134.6
1268	11963.6
1272.871	11812.6
1277.737	11679.6
1282.599	11601.6
1287.455	11680.6
1292.306	11641.6
1297.153	11762.6
1301.995	11734.6
1306.832	11832.6
1311.664	11844.6
1316.491	11825.6
1321.314	11674.6
1326.132	11501.6
1330.945	11194.6
1335.753	10956.6
1340.556	10696.6
1345.354	10457.6
1350.148	10315.6
1354.937	10221.6
1359.722	10225.6
1364.501	10235.6
1369.276	10397.6
1374.046	10485.6
1378.811	10660.6
1383.572	10764.6
1388.327	10797.6
1393.079	10786.6
1397.825	10632.6
1402.567	10495.6
1407.304	10352.6
1412.036	10260.6
1416.764	10151.6
1421.487	10095.6
1426.205	10095.6
1430.919	10043.6
1435.628	10065.6
1440.333	9995.6
1445.032	10054.6
1449.727	10076.6
1454.418	10088.6
1459.104	9948.6
1463.785	9795.6
1468.462	9565.6
1473.134	9379.6
1477.802	9172.6
1482.465	9045.6
1487.123	8887.6
1491.777	8853.6
1496.426	8902.6
1501.071	9012.6
1505.711	9153.6
1510.347	9333.6
1514.978	9512.6
1519.604	9613.6
1524.226	9709.6
1528.844	9730.6
1533.457	9719.6
1538.065	9664.6
1542.669	9600.6
1547.269	9513.6
1551.864	9497.6
1556.454	9424.6
1561.041	9446.6
1565.622	9434.6
1570.199	9472.6
1574.772	9504.6
1579.34	9596.6
1583.904	9665.6
1588.464	9694.6
1593.019	9627.6
1597.569	9665.6
1602.115	9588.6
1606.657	9488.6
1611.195	9442.6
1615.728	9421.6
1620.256	9385.6
1624.78	9369.6
1629.3	9391.6
1633.816	9409.6
1638.327	9477.6
1642.834	9505.6
1647.336	9522.6
1651.834	9547.6
1656.328	9523.6
1660.817	9460.6
1665.302	9420.6
1669.783	9214.6
1674.259	9012.6
1678.732	8720.6
1683.199	8459.6
1687.663	8166.6
1692.122	7860.6
1696.577	7729.6
1701.028	7721.6
1705.474	7759.6
1709.917	7867.6
1714.355	7869.6
1718.788	7850.6
1723.218	7716.6
1727.643	7568.6
1732.064	7421.6
1736.481	7250.6
1740.893	7099.6
1745.301	6898.6
1749.705	6721.6
1754.105	6521.6
1758.501	6330.6
1762.893	6141.6
1767.28	6001.6
1771.663	5820.6
1776.042	5709.6
1780.417	5685.6
1784.787	5650.6
1789.154	5710.6
1793.516	5831.6
1797.874	5921.6
1802.228	6082.6
1806.578	6129.6
1810.924	6122.6
1815.266	6049.6
1819.603	5979.6
1823.937	5916.6
1828.266	5825.6
1832.591	5715.6
1836.913	5626.6
1841.23	5607.6
1845.543	5519.6
1849.852	5516.6
1854.156	5483.6
1858.457	5444.6
1862.754	5484.6
1867.047	5448.6
1871.335	5467.6
1875.62	5434.6
1879.9	5434.6
1884.177	5362.6
1888.449	5334.6
1892.718	5255.6
1896.982	5221.6
1901.243	5184.6
1905.499	5111.6
1909.752	5128.6
1914	5099.6
1918.245	5106.6
1922.485	5152.6
1926.722	5203.6
1930.954	5262.6
1935.183	5367.6
1939.408	5407.6
1943.628	5423.6
1947.845	5424.6
1952.058	5429.6
1956.267	5367.6
1960.472	5338.6
1964.673	5240.6
1968.87	5163.6
1973.063	5095.6
1977.252	5010.6
1981.438	4989.6
1985.619	4935.6
1989.797	4892.6
1993.971	4833.6
1998.14	4816.6
2002.306	4805.6
2006.469	4801.6
2010.627	4769.6
2014.781	4722.6
2018.932	4695.6
2023.078	4622.6
2027.221	4561.6
2031.36	4495.6
2035.495	4440.6
2039.627	4403.6
2043.754	4319.6
2047.878	4267.6
2051.998	4248.6
2056.114	4226.6
2060.226	4217.6
2064.334	4237.6
2068.439	4240.6
2072.54	4271.6
2076.637	4309.6
2080.73	4341.6
2084.82	4349.6
2088.906	4367.6
2092.988	4385.6
2097.066	4364.6
2101.14	4347.6
2105.211	4310.6
2109.278	4303.6
2113.342	4239.6
2117.401	4246.6
2121.457	4211.6
2125.509	4182.6
2129.558	4185.6
2133.602	4133.6
2137.643	4130.6
2141.681	4097.6
2145.714	4073.6
2149.744	4066.6
2153.77	4028.6
2157.793	4007.6
2161.812	3931.6
2165.827	3918.6
2169.838	3830.6
2173.846	3743.6
2177.851	3716.6
2181.851	3650.6
2185.848	3612.6
2189.841	3554.6
2193.831	3529.6
2197.817	3467.6
2201.799	3500.6
2205.778	3452.6
2209.753	3431.6
2213.725	3423.6
2217.693	3439.6
2221.657	3410.6
2225.618	3399.6
2229.575	3397.6
2233.529	3376.6
2237.479	3306.6
2241.425	3299.6
2245.368	3245.6
2249.307	3209.6
2253.243	3158.6
2257.175	3116.6
2261.104	3044.6
2265.029	3036.6
2268.95	2989.6
2272.868	2983.6
2276.783	2947.6
2280.694	2931.6
2284.601	2858.6
2288.505	2850.6
2292.405	2808.6
2296.302	2760.6
2300.195	2762.6
2304.085	2731.6
2307.971	2689.6
2311.854	2652.6
2315.734	2609.6
2319.609	2558.6
2323.482	2545.6
2327.351	2503.6
2331.216	2497.6
2335.078	2483.6
2338.937	2474.6
2342.792	2462.6
2346.643	2438.6
2350.492	2464.6
2354.336	2448.6
2358.178	2474.6
2362.015	2475.6
2365.85	2474.6
2369.681	2446.6
2373.508	2467.6
2377.333	2445.6
2381.153	2465.6
2384.971	2442.6
2388.785	2427.6
2392.595	2384.6
2396.402	2378.6
2400.206	2372.6
2404.007	2332.6
2407.804	2335.6
2411.597	2331.6
2415.388	2302.6
2419.174	2316.6
2422.958	2262.6
2426.738	2258.6
2430.515	2246.6
2434.289	2239.6
2438.059	2193.6
2441.825	2179.6
2445.589	2174.6
2449.349	2145.6
2453.106	2102.6
2456.859	2078.6
2460.61	2044.6
2464.356	2031.6
2468.1	2019.6
2471.84	1986.6
2475.577	1958.6
2479.311	1951.6
2483.041	1936.6
2486.768	1940.6
2490.492	1939.6
2494.213	1916.6
2497.93	1900.6
2501.644	1908.6
2505.355	1915.6
2509.062	1889.6
2512.766	1880.6
2516.467	1858.6
2520.165	1842.6
2523.859	1841.6
2527.551	1838.6
2531.239	1813.6
2534.923	1823.6
2538.605	1798.6
2542.283	1803.6
2545.958	1794.6
2549.63	1794.6
2553.299	1768.6
2556.964	1778.6
2560.626	1763.6
2564.285	1755.6
2567.941	1756.6
2571.594	1750.6
2575.243	1753.6
2578.89	1739.6
2582.533	1719.6
2586.173	1673.6
2589.809	1682.6
2593.443	1670.6
2597.073	1660.6
2600.701	1634.6
2604.325	1609.6
2607.946	1621.6
2611.564	1591.6
2615.178	1597.6
2618.79	1587.6
2622.398	1575.6
2626.004	1553.6
2629.606	1537.6
2633.205	1510.6
2636.801	1480.6
2640.394	1477.6
2643.983	1451.6
2647.57	1416.6
2651.153	1412.6
2654.734	1366.6
2658.311	1345.6
2661.885	1342.6
2665.456	1321.6
2669.025	1299.6
2672.589	1280.6
2676.151	1268.6
2679.71	1265.6
2683.266	1237.6
2686.819	1219.6
2690.368	1195.6
2693.915	1174.6
2697.458	1161.6
2700.999	1098.6
2704.536	1079.6
2708.071	1065.6
2711.602	1052.6
2715.13	1023.6
2718.656	995.6
2722.178	988.6
2725.697	937.6
2729.214	954.6
2732.727	939.6
2736.237	939.6
2739.744	938.6
2743.249	939.6
2746.75	961.6
2750.248	953.6
2753.743	961.6
2757.236	982.6
2760.725	972.6
2764.211	991.6
2767.695	999.6
2771.175	1002.6
2774.652	988.6
2778.127	972.6
2781.598	988.6
2785.067	966.6
2788.532	976.6
2791.995	966.6
2795.455	960.6
2798.911	965.6
2802.365	973.6
2805.816	974.6
2809.264	985.6
2812.709	970.6
2816.151	989.6
2819.59	966.6
2823.026	982.6
2826.46	976.6
2829.89	989.6
2833.318	983.6
2836.742	986.6
2840.164	999.6
2843.583	997.6
2846.999	1013.6
2850.412	1017.6
2853.822	1039.6
2857.229	1036.6
2860.634	1070.6
2864.035	1101.6
2867.434	1092.6
2870.83	1133.6
2874.223	1155.6
2877.613	1159.6
2881	1165.6
2884.385	1185.6
2887.766	1167.6
2891.145	1179.6
2894.521	1189.6
2897.894	1198.6
2901.264	1183.6
2904.631	1192.6
2907.996	1186.6
2911.358	1193.6
2914.717	1213.6
2918.073	1228.6
2921.426	1233.6
2924.777	1225.6
2928.124	1255.6
2931.469	1279.6
2934.811	1292.6
2938.15	1315.6
2941.487	1330.6
2944.821	1341.6
2948.152	1342.6
2951.48	1318.6
2954.805	1318.6
2958.128	1310.6
2961.447	1284.6
2964.765	1296.6
2968.079	1319.6
2971.39	1299.6
2974.699	1338.6
2978.005	1362.6
2981.308	1379.6
2984.609	1425.6
2987.907	1413.6
2991.202	1454.6
2994.494	1474.6
2997.784	1501.6
3001.07	1554.6
3004.355	1545.6
3007.636	1597.6
3010.915	1636.6
3014.191	1633.6
3017.464	1625.6
3020.734	1651.6
3024.002	1651.6
3027.267	1680.6
3030.53	1681.6
3033.789	1721.6
3037.046	1731.6
3040.301	1729.6
3043.552	1785.6
3046.801	1833.6
3050.048	1861.6
3053.291	1938.6
3056.532	1979.6
3059.771	2019.6
3063.006	2098.6
3066.239	2129.6
3069.469	2189.6
3072.697	2251.6
3075.922	2316.6
3079.144	2374.6
3082.364	2461.6
3085.581	2487.6
3088.795	2526.6
3092.007	2592.6
3095.216	2648.6
3098.423	2699.6
3101.627	2769.6
3104.828	2838.6
3108.026	2889.6
3111.222	2973.6
3114.416	3022.6
3117.607	3077.6
3120.795	3179.6
3123.98	3226.6
3127.163	3306.6
3130.344	3378.6
3133.521	3480.6
3136.696	3552.6
3139.869	3639.6
3143.039	3673.6
3146.206	3730.6
3149.371	3765.6
3152.533	3829.6
3155.693	3844.6
3158.85	3890.6
3162.005	3881.6
3165.157	3890.6
3168.306	3894.6
3171.453	3928.6
3174.597	3918.6
3177.739	3915.6
3180.878	3906.6
3184.014	3956.6
3187.149	3911.6
3190.28	3948.6
3193.409	3945.6
3196.536	3934.6
3199.659	3976.6
3202.781	3942.6
3205.9	3964.6
3209.016	3986.6
3212.13	3930.6
3215.241	3920.6
3218.35	3879.6
3221.456	3842.6
3224.56	3820.6
3227.661	3752.6
3230.76	3697.6
3233.856	3695.6
3236.95	3614.6
3240.041	3633.6
3243.13	3596.6
3246.216	3567.6
3249.3	3534.6
3252.382	3527.6
3255.46	3526.6
3258.537	3515.6
3261.611	3507.6
3264.682	3514.6
3267.751	3502.6
3270.818	3500.6
3273.882	3462.6
3276.943	3476.6
3280.002	3471.6
3283.059	3417.6
3286.113	3380.6
3289.165	3312.6
3292.214	3248.6
3295.261	3213.6
3298.306	3152.6
3301.348	3100.6
3304.387	3078.6
3307.425	3006.6
3310.459	2965.6
3313.492	2932.6
3316.521	2906.6
3319.549	2876.6
3322.574	2836.6
3325.597	2821.6
3328.617	2792.6
3331.635	2776.6
3334.65	2769.6
3337.663	2760.6
3340.674	2718.6
3343.682	2723.6
3346.688	2731.6
3349.691	2686.6
3352.692	2708.6
3355.691	2651.6
3358.687	2648.6
3361.681	2592.6
3364.673	2569.6
3367.662	2545.6
3370.649	2501.6
3373.633	2453.6
3376.615	2429.6
3379.595	2374.6
3382.572	2366.6
3385.547	2329.6
3388.52	2299.6
3391.49	2264.6
3394.458	2210.6
3397.424	2204.6
3400.387	2170.6
3403.348	2138.6
3406.307	2129.6
3409.263	2069.6
3412.217	2061.6
3415.168	2042.6
3418.118	2034.6
3421.065	1983.6
3424.009	1956.6
3426.951	1922.6
3429.891	1922.6
3432.829	1858.6
3435.764	1799.6
3438.697	1768.6
3441.628	1725.6
3444.557	1656.6
3447.483	1611.6
3450.407	1552.6
3453.328	1525.6
3456.247	1447.6
3459.164	1414.6
3462.079	1366.6
3464.991	1323.6
3467.902	1264.6
3470.809	1200.6
3473.715	1182.6
3476.618	1140.6
3479.519	1070.6
3482.418	1049.6
3485.315	1018.6
3488.209	985.6
3491.101	962.6
3493.99	917.6
3496.878	885.6
3499.763	850.6
3502.646	814.6
3505.527	767.6
3508.405	730.6
3511.281	694.6
3514.155	659.6
3517.027	631.6
3519.897	592.6
3522.764	543.6
3525.629	513.6
3528.492	462.6
3531.352	408.6
3534.211	381.6
3537.067	349.6
3539.921	317.6
3542.773	276.6
3545.622	241.6
3548.469	226.6
3551.315	206.6
3554.157	166.6
3556.998	143.6
3559.837	118.6
3562.673	93.6
3565.507	68.6
3568.339	37.6
3571.169	21.6
3573.996	4.6
3576.822	-8.4
3579.645	-29.4
3582.466	-55.4
3585.285	-68.4
3588.101	-92.4
3590.916	-103.4
3593.728	-126.4
3596.538	-135.4
3599.346	-163.4
3602.152	-178.4
3604.956	-189.4
3607.757	-204.4
3610.556	-224.4
3613.354	-241.4
3616.149	-252.4
3618.942	-264.4
3621.732	-270.4
3624.521	-286.4
3627.307	-287.4
3630.092	-299.4
3632.874	-312.4
3635.654	-318.4
3638.432	-328.4
3641.208	-334.4
3643.982	-357.4
3646.753	-354.4
3649.523	-372.4
3652.29	-371.4
3655.055	-386.4
3657.818	-392.4
3660.579	-409.4
3663.338	-418.4
3666.095	-422.4
3668.849	-432.4
3671.602	-435.4
3674.352	-453.4
3677.101	-448.4
3679.847	-462.4
3682.591	-462.4
3685.333	-478.4
3688.073	-473.4
3690.811	-484.4
3693.547	-490.4
3696.281	-491.4
3699.013	-496.4
3701.742	-494.4
3704.47	-504.4
3707.195	-517.4
3709.919	-515.4
3712.64	-522.4
3715.359	-518.4
3718.076	-526.4
3720.792	-527.4
3723.505	-524.4
3726.216	-538.4
3728.925	-543.4
3731.632	-542.4
3734.336	-546.4
3737.039	-549.4
3739.74	-543.4
3742.439	-551.4
3745.136	-555.4
3747.83	-558.4
3750.523	-552.4
3753.213	-547.4
3755.902	-558.4
3758.589	-563.4
3761.273	-561.4
3763.956	-569.4
3766.636	-569.4
3769.315	-571.4
3771.991	-575.4
3774.665	-579.4
3777.338	-575.4
3780.008	-577.4
3782.677	-582.4
3785.343	-571.4
3788.007	-583.4
3790.67	-581.4
3793.33	-585.4
3795.989	-581.4
3798.645	-577.4
3801.299	-585.4
3803.952	-586.4
3806.602	-591.4
3809.251	-593.4
3811.897	-592.4
3814.542	-591.4
3817.184	-586.4
3819.825	-590.4
3822.463	-591.4
3825.1	-592.4
3827.735	-591.4
3830.367	-592.4
3832.998	-600.4
3835.627	-603.4
3838.253	-602.4
3840.878	-607.4
3843.501	-601.4
3846.122	-599.4
3848.741	-597.4
3851.358	-595.4
3853.973	-599.4
3856.586	-604.4
3859.197	-614.4
3861.806	-606.4
3864.414	-604.4
3867.019	-606.4
3869.622	-607.4
3872.224	-600.4
3874.823	-585.4
3877.421	-570.4
3880.016	-558.4
3882.61	-532.4
3885.202	-533.4
3887.792	-542.4
3890.38	-576.4
3892.966	-595.4
3895.55	-606.4
3898.132	-614.4
3900.713	-618.4
3903.291	-613.4
3905.868	-615.4
3908.442	-616.4
3911.015	-620.4
3913.586	-612.4
3916.155	-610.4
3918.722	-618.4
3921.287	-613.4
3923.85	-617.4
3926.411	-622.4
3928.971	-624.4
3931.528	-620.4
3934.084	-620.4
3936.638	-618.4
3939.19	-624.4
3941.74	-618.4
3944.288	-625.4
3946.834	-616.4
3949.378	-620.4
3951.921	-617.4
3954.462	-622.4
3957	-612.4
3959.537	-619.4
3962.072	-615.4
3964.606	-619.4
3967.137	-616.4
3969.667	-618.4
3972.194	-613.4
3974.72	-616.4
3977.244	-604.4
3979.766	-609.4
3982.286	-610.4
3984.805	-608.4
3987.321	-611.4
3989.836	-613.4
3992.349	-603.4
3994.86	-602.4
3997.369	-609.4
3999.877	-601.4
4002.382	-598.4
4004.886	-603.4
4007.388	-601.4
4009.888	-598.4
4012.386	-605.4
4014.883	-604.4
4017.377	-606.4
4019.87	-604.4
4022.361	-607.4
4024.85	-612.4
4027.338	-604.4
4029.823	-606.4
4032.307	-608.4
4034.789	-604.4
4037.269	-605.4
4039.747	-608.4
4042.224	-603.4
4044.699	-606.4
4047.172	-604.4
4049.643	-611.4
4052.112	-612.4
4054.58	-616.4
4057.046	-612.4
4059.51	-612.4
4061.972	-611.4
4064.432	-613.4
4066.891	-609.4
4069.348	-611.4
4071.803	-604.4
4074.256	-607.4
4076.708	-603.4
4079.158	-606.4
4081.606	-607.4
4084.052	-610.4
4086.497	-607.4
4088.939	-601.4
4091.38	-613.4
4093.819	-607.4
4096.257	-642.4
4098.693	-639.4
4101.127	-638.4
4103.559	-637.4
4105.989	-371.4
4108.418	-351.4
4110.845	-332.4
4113.27	-304.4
4115.694	-277.4
4118.115	-221.4
4120.535	-609.4
4122.954	-609.4
4125.37	-601.4
4127.785	-610.4
4130.198	-609.4
4132.609	-612.4
4135.019	-640.4
4137.427	-640.4
4139.833	-642.4
4142.237	-637.4
