Data from 2018-2-14_conc=2_n=6_RamanShift_02.txt Node
Date: Wed Feb 14 11:18:26 IST 2018
User: aro
Spectrometer: QEPB0276
Trigger mode: 0
Integration Time (sec): 3.000000E1
Scans to average: 1
Electric dark correction enabled: true
Nonlinearity correction enabled: false
Boxcar width: 0
XAxis mode: Raman Shifts
Number of Pixels in Spectrum: 1044
>>>>>Begin Spectral Data<<<<<
160.701	-136.5
166.742	62.5
172.777	603.5
178.805	2298.5
184.826	6372.5
190.841	13363.5
196.849	21490.5
202.85	27290.5
208.845	29294.5
214.833	29042.5
220.815	28563.5
226.789	28482.5
232.758	28445.5
238.719	28315.5
244.674	27963.5
250.623	27589.5
256.565	27074.5
262.5	26544.5
268.429	26127.5
274.351	25802.5
280.267	25497.5
286.176	25237.5
292.079	25100.5
297.975	24864.5
303.865	24701.5
309.748	24602.5
315.625	24458.5
321.495	24364.5
327.359	24271.5
333.217	24261.5
339.068	24236.5
344.912	24306.5
350.751	24221.5
356.583	24155.5
362.408	24136.5
368.227	24114.5
374.04	24156.5
379.847	24264.5
385.647	24341.5
391.44	24389.5
397.228	24524.5
403.009	24611.5
408.784	24648.5
414.553	24749.5
420.315	24816.5
426.071	24744.5
431.821	24820.5
437.565	24813.5
443.302	24815.5
449.033	24714.5
454.758	24680.5
460.477	24683.5
466.189	24601.5
471.896	24534.5
477.596	24577.5
483.29	24439.5
488.978	24464.5
494.66	24409.5
500.335	24175.5
506.005	23959.5
511.668	23712.5
517.325	23465.5
522.977	23314.5
528.622	23121.5
534.261	22958.5
539.894	22871.5
545.521	22822.5
551.141	22755.5
556.756	22691.5
562.365	22628.5
567.968	22469.5
573.565	22430.5
579.155	22348.5
584.74	22263.5
590.319	22204.5
595.892	22065.5
601.459	21973.5
607.02	21958.5
612.575	21801.5
618.124	21657.5
623.667	21534.5
629.204	21504.5
634.735	21405.5
640.261	21308.5
645.781	21270.5
651.294	21167.5
656.802	21138.5
662.304	21128.5
667.8	21126.5
673.29	21106.5
678.775	21008.5
684.254	20968.5
689.726	20874.5
695.193	20851.5
700.655	20785.5
706.11	20693.5
711.56	20545.5
717.004	20461.5
722.442	20383.5
727.874	20307.5
733.301	20259.5
738.722	20263.5
744.137	20149.5
749.547	20116.5
754.951	20139.5
760.349	20117.5
765.741	20147.5
771.128	20212.5
776.509	20152.5
781.885	20218.5
787.254	20148.5
792.618	20079.5
797.977	19891.5
803.33	19849.5
808.677	19702.5
814.019	19520.5
819.355	19469.5
824.686	19406.5
830.011	19395.5
835.33	19364.5
840.644	19382.5
845.952	19417.5
851.255	19485.5
856.552	19532.5
861.844	19437.5
867.13	19363.5
872.41	19371.5
877.686	19283.5
882.955	19138.5
888.219	18903.5
893.478	18696.5
898.731	18523.5
903.979	18393.5
909.221	18252.5
914.458	18165.5
919.69	18143.5
924.916	18183.5
930.136	18314.5
935.351	18319.5
940.561	18323.5
945.766	18269.5
950.965	18252.5
956.158	18058.5
961.347	17904.5
966.529	17697.5
971.707	17468.5
976.879	17272.5
982.046	17127.5
987.208	17097.5
992.364	17039.5
997.515	17099.5
1002.66	17326.5
1007.801	17524.5
1012.936	17611.5
1018.066	17675.5
1023.19	17624.5
1028.309	17685.5
1033.423	17586.5
1038.532	17574.5
1043.636	17373.5
1048.734	17145.5
1053.827	16948.5
1058.915	16779.5
1063.998	16676.5
1069.075	16619.5
1074.147	16575.5
1079.214	16633.5
1084.276	16845.5
1089.333	16915.5
1094.385	17014.5
1099.431	16973.5
1104.472	17018.5
1109.509	16955.5
1114.54	16713.5
1119.565	16533.5
1124.586	16291.5
1129.602	16152.5
1134.613	16048.5
1139.618	15948.5
1144.619	15953.5
1149.614	15935.5
1154.604	15910.5
1159.589	16027.5
1164.57	16038.5
1169.545	16044.5
1174.515	16055.5
1179.48	15972.5
1184.44	15841.5
1189.395	15774.5
1194.345	15640.5
1199.29	15532.5
1204.23	15562.5
1209.165	15635.5
1214.095	15685.5
1219.021	15770.5
1223.941	15810.5
1228.856	15915.5
1233.766	15976.5
1238.672	16018.5
1243.572	15953.5
1248.467	15934.5
1253.358	15720.5
1258.244	15480.5
1263.124	15258.5
1268	15016.5
1272.871	14864.5
1277.737	14740.5
1282.599	14653.5
1287.455	14646.5
1292.306	14697.5
1297.153	14781.5
1301.995	14798.5
1306.832	14916.5
1311.664	14872.5
1316.491	14850.5
1321.314	14752.5
1326.132	14528.5
1330.945	14151.5
1335.753	13791.5
1340.556	13416.5
1345.354	13074.5
1350.148	12859.5
1354.937	12701.5
1359.722	12710.5
1364.501	12841.5
1369.276	13071.5
1374.046	13282.5
1378.811	13523.5
1383.572	13738.5
1388.327	13744.5
1393.079	13750.5
1397.825	13576.5
1402.567	13274.5
1407.304	13152.5
1412.036	12959.5
1416.764	12843.5
1421.487	12803.5
1426.205	12725.5
1430.919	12675.5
1435.628	12648.5
1440.333	12680.5
1445.032	12729.5
1449.727	12766.5
1454.418	12722.5
1459.104	12530.5
1463.785	12276.5
1468.462	12045.5
1473.134	11776.5
1477.802	11513.5
1482.465	11305.5
1487.123	11193.5
1491.777	11161.5
1496.426	11196.5
1501.071	11377.5
1505.711	11546.5
1510.347	11736.5
1514.978	12008.5
1519.604	12154.5
1524.226	12360.5
1528.844	12360.5
1533.457	12369.5
1538.065	12257.5
1542.669	12261.5
1547.269	12077.5
1551.864	12034.5
1556.454	11995.5
1561.041	11985.5
1565.622	11927.5
1570.199	11951.5
1574.772	11991.5
1579.34	12110.5
1583.904	12108.5
1588.464	12176.5
1593.019	12097.5
1597.569	12070.5
1602.115	11973.5
1606.657	11908.5
1611.195	11774.5
1615.728	11736.5
1620.256	11628.5
1624.78	11596.5
1629.3	11611.5
1633.816	11620.5
1638.327	11597.5
1642.834	11753.5
1647.336	11718.5
1651.834	11796.5
1656.328	11711.5
1660.817	11714.5
1665.302	11592.5
1669.783	11301.5
1674.259	11132.5
1678.732	10761.5
1683.199	10417.5
1687.663	10015.5
1692.122	9760.5
1696.577	9581.5
1701.028	9583.5
1705.474	9759.5
1709.917	9961.5
1714.355	10102.5
1718.788	10034.5
1723.218	9842.5
1727.643	9667.5
1732.064	9509.5
1736.481	9292.5
1740.893	9070.5
1745.301	8820.5
1749.705	8580.5
1754.105	8383.5
1758.501	8126.5
1762.893	7893.5
1767.28	7663.5
1771.663	7499.5
1776.042	7352.5
1780.417	7230.5
1784.787	7233.5
1789.154	7324.5
1793.516	7449.5
1797.874	7651.5
1802.228	7834.5
1806.578	7957.5
1810.924	7988.5
1815.266	7932.5
1819.603	7781.5
1823.937	7648.5
1828.266	7570.5
1832.591	7418.5
1836.913	7303.5
1841.23	7181.5
1845.543	7175.5
1849.852	7135.5
1854.156	7099.5
1858.457	7083.5
1862.754	7064.5
1867.047	7055.5
1871.335	7028.5
1875.62	7019.5
1879.9	6949.5
1884.177	6943.5
1888.449	6868.5
1892.718	6774.5
1896.982	6711.5
1901.243	6613.5
1905.499	6580.5
1909.752	6542.5
1914	6533.5
1918.245	6548.5
1922.485	6589.5
1926.722	6706.5
1930.954	6802.5
1935.183	6899.5
1939.408	6975.5
1943.628	7025.5
1947.845	7020.5
1952.058	7045.5
1956.267	6959.5
1960.472	6860.5
1964.673	6817.5
1968.87	6692.5
1973.063	6562.5
1977.252	6514.5
1981.438	6392.5
1985.619	6369.5
1989.797	6276.5
1993.971	6278.5
1998.14	6239.5
2002.306	6204.5
2006.469	6159.5
2010.627	6122.5
2014.781	6070.5
2018.932	6041.5
2023.078	5973.5
2027.221	5908.5
2031.36	5787.5
2035.495	5727.5
2039.627	5592.5
2043.754	5557.5
2047.878	5462.5
2051.998	5450.5
2056.114	5410.5
2060.226	5392.5
2064.334	5429.5
2068.439	5429.5
2072.54	5453.5
2076.637	5489.5
2080.73	5502.5
2084.82	5561.5
2088.906	5548.5
2092.988	5590.5
2097.066	5555.5
2101.14	5526.5
2105.211	5533.5
2109.278	5491.5
2113.342	5431.5
2117.401	5437.5
2121.457	5405.5
2125.509	5399.5
2129.558	5341.5
2133.602	5308.5
2137.643	5290.5
2141.681	5287.5
2145.714	5261.5
2149.744	5185.5
2153.77	5176.5
2157.793	5111.5
2161.812	5014.5
2165.827	4961.5
2169.838	4903.5
2173.846	4824.5
2177.851	4738.5
2181.851	4673.5
2185.848	4621.5
2189.841	4564.5
2193.831	4505.5
2197.817	4486.5
2201.799	4431.5
2205.778	4428.5
2209.753	4402.5
2213.725	4411.5
2217.693	4418.5
2221.657	4391.5
2225.618	4382.5
2229.575	4349.5
2233.529	4291.5
2237.479	4267.5
2241.425	4215.5
2245.368	4174.5
2249.307	4102.5
2253.243	4033.5
2257.175	3999.5
2261.104	3959.5
2265.029	3895.5
2268.95	3882.5
2272.868	3846.5
2276.783	3802.5
2280.694	3762.5
2284.601	3702.5
2288.505	3692.5
2292.405	3673.5
2296.302	3604.5
2300.195	3584.5
2304.085	3535.5
2307.971	3472.5
2311.854	3460.5
2315.734	3377.5
2319.609	3339.5
2323.482	3325.5
2327.351	3295.5
2331.216	3230.5
2335.078	3255.5
2338.937	3232.5
2342.792	3218.5
2346.643	3184.5
2350.492	3185.5
2354.336	3219.5
2358.178	3203.5
2362.015	3204.5
2365.85	3233.5
2369.681	3202.5
2373.508	3222.5
2377.333	3234.5
2381.153	3181.5
2384.971	3181.5
2388.785	3187.5
2392.595	3131.5
2396.402	3116.5
2400.206	3107.5
2404.007	3069.5
2407.804	3055.5
2411.597	3014.5
2415.388	3011.5
2419.174	3001.5
2422.958	2983.5
2426.738	2951.5
2430.515	2931.5
2434.289	2911.5
2438.059	2890.5
2441.825	2844.5
2445.589	2841.5
2449.349	2794.5
2453.106	2775.5
2456.859	2748.5
2460.61	2712.5
2464.356	2664.5
2468.1	2632.5
2471.84	2587.5
2475.577	2597.5
2479.311	2557.5
2483.041	2534.5
2486.768	2529.5
2490.492	2536.5
2494.213	2524.5
2497.93	2499.5
2501.644	2502.5
2505.355	2485.5
2509.062	2482.5
2512.766	2451.5
2516.467	2445.5
2520.165	2413.5
2523.859	2406.5
2527.551	2410.5
2531.239	2380.5
2534.923	2367.5
2538.605	2347.5
2542.283	2342.5
2545.958	2353.5
2549.63	2342.5
2553.299	2343.5
2556.964	2353.5
2560.626	2324.5
2564.285	2331.5
2567.941	2310.5
2571.594	2295.5
2575.243	2269.5
2578.89	2262.5
2582.533	2246.5
2586.173	2242.5
2589.809	2223.5
2593.443	2211.5
2597.073	2192.5
2600.701	2169.5
2604.325	2147.5
2607.946	2136.5
2611.564	2110.5
2615.178	2134.5
2618.79	2085.5
2622.398	2066.5
2626.004	2056.5
2629.606	2040.5
2633.205	2005.5
2636.801	2000.5
2640.394	1954.5
2643.983	1942.5
2647.57	1889.5
2651.153	1881.5
2654.734	1840.5
2658.311	1792.5
2661.885	1755.5
2665.456	1751.5
2669.025	1745.5
2672.589	1724.5
2676.151	1705.5
2679.71	1685.5
2683.266	1634.5
2686.819	1644.5
2690.368	1600.5
2693.915	1583.5
2697.458	1530.5
2700.999	1490.5
2704.536	1456.5
2708.071	1423.5
2711.602	1409.5
2715.13	1365.5
2718.656	1329.5
2722.178	1310.5
2725.697	1280.5
2729.214	1270.5
2732.727	1263.5
2736.237	1259.5
2739.744	1236.5
2743.249	1246.5
2746.75	1243.5
2750.248	1247.5
2753.743	1285.5
2757.236	1310.5
2760.725	1324.5
2764.211	1309.5
2767.695	1329.5
2771.175	1296.5
2774.652	1327.5
2778.127	1318.5
2781.598	1330.5
2785.067	1279.5
2788.532	1290.5
2791.995	1279.5
2795.455	1277.5
2798.911	1267.5
2802.365	1262.5
2805.816	1271.5
2809.264	1272.5
2812.709	1270.5
2816.151	1260.5
2819.59	1270.5
2823.026	1268.5
2826.46	1267.5
2829.89	1275.5
2833.318	1263.5
2836.742	1267.5
2840.164	1275.5
2843.583	1282.5
2846.999	1301.5
2850.412	1320.5
2853.822	1329.5
2857.229	1325.5
2860.634	1342.5
2864.035	1382.5
2867.434	1371.5
2870.83	1389.5
2874.223	1408.5
2877.613	1415.5
2881	1434.5
2884.385	1454.5
2887.766	1446.5
2891.145	1442.5
2894.521	1419.5
2897.894	1429.5
2901.264	1422.5
2904.631	1402.5
2907.996	1424.5
2911.358	1417.5
2914.717	1442.5
2918.073	1451.5
2921.426	1459.5
2924.777	1459.5
2928.124	1471.5
2931.469	1489.5
2934.811	1534.5
2938.15	1541.5
2941.487	1534.5
2944.821	1557.5
2948.152	1563.5
2951.48	1533.5
2954.805	1515.5
2958.128	1509.5
2961.447	1494.5
2964.765	1463.5
2968.079	1473.5
2971.39	1489.5
2974.699	1517.5
2978.005	1541.5
2981.308	1556.5
2984.609	1547.5
2987.907	1603.5
2991.202	1624.5
2994.494	1653.5
2997.784	1709.5
3001.07	1749.5
3004.355	1750.5
3007.636	1772.5
3010.915	1807.5
3014.191	1806.5
3017.464	1814.5
3020.734	1827.5
3024.002	1833.5
3027.267	1844.5
3030.53	1834.5
3033.789	1855.5
3037.046	1864.5
3040.301	1929.5
3043.552	1946.5
3046.801	1958.5
3050.048	2025.5
3053.291	2064.5
3056.532	2115.5
3059.771	2159.5
3063.006	2216.5
3066.239	2288.5
3069.469	2352.5
3072.697	2376.5
3075.922	2476.5
3079.144	2502.5
3082.364	2577.5
3085.581	2642.5
3088.795	2665.5
3092.007	2734.5
3095.216	2778.5
3098.423	2826.5
3101.627	2895.5
3104.828	2953.5
3108.026	3030.5
3111.222	3082.5
3114.416	3154.5
3117.607	3220.5
3120.795	3287.5
3123.98	3338.5
3127.163	3444.5
3130.344	3513.5
3133.521	3581.5
3136.696	3670.5
3139.869	3765.5
3143.039	3805.5
3146.206	3862.5
3149.371	3902.5
3152.533	3953.5
3155.693	3960.5
3158.85	4013.5
3162.005	4028.5
3165.157	4024.5
3168.306	4040.5
3171.453	4042.5
3174.597	4015.5
3177.739	4039.5
3180.878	4025.5
3184.014	4038.5
3187.149	4054.5
3190.28	4064.5
3193.409	4078.5
3196.536	4091.5
3199.659	4065.5
3202.781	4063.5
3205.9	4092.5
3209.016	4067.5
3212.13	4044.5
3215.241	4042.5
3218.35	3995.5
3221.456	3944.5
3224.56	3957.5
3227.661	3886.5
3230.76	3853.5
3233.856	3814.5
3236.95	3766.5
3240.041	3740.5
3243.13	3723.5
3246.216	3699.5
3249.3	3681.5
3252.382	3658.5
3255.46	3639.5
3258.537	3631.5
3261.611	3634.5
3264.682	3634.5
3267.751	3608.5
3270.818	3630.5
3273.882	3608.5
3276.943	3590.5
3280.002	3535.5
3283.059	3513.5
3286.113	3477.5
3289.165	3414.5
3292.214	3386.5
3295.261	3326.5
3298.306	3279.5
3301.348	3235.5
3304.387	3167.5
3307.425	3134.5
3310.459	3060.5
3313.492	3033.5
3316.521	2982.5
3319.549	2980.5
3322.574	2912.5
3325.597	2882.5
3328.617	2876.5
3331.635	2840.5
3334.65	2835.5
3337.663	2802.5
3340.674	2813.5
3343.682	2803.5
3346.688	2782.5
3349.691	2770.5
3352.692	2713.5
3355.691	2706.5
3358.687	2690.5
3361.681	2671.5
3364.673	2601.5
3367.662	2597.5
3370.649	2532.5
3373.633	2526.5
3376.615	2476.5
3379.595	2457.5
3382.572	2427.5
3385.547	2366.5
3388.52	2347.5
3391.49	2297.5
3394.458	2275.5
3397.424	2238.5
3400.387	2226.5
3403.348	2163.5
3406.307	2140.5
3409.263	2106.5
3412.217	2097.5
3415.168	2098.5
3418.118	2064.5
3421.065	2037.5
3424.009	2012.5
3426.951	1937.5
3429.891	1940.5
3432.829	1883.5
3435.764	1851.5
3438.697	1799.5
3441.628	1741.5
3444.557	1690.5
3447.483	1635.5
3450.407	1588.5
3453.328	1556.5
3456.247	1493.5
3459.164	1438.5
3462.079	1389.5
3464.991	1340.5
3467.902	1278.5
3470.809	1248.5
3473.715	1184.5
3476.618	1142.5
3479.519	1108.5
3482.418	1067.5
3485.315	1041.5
3488.209	1005.5
3491.101	971.5
3493.99	924.5
3496.878	898.5
3499.763	848.5
3502.646	812.5
3505.527	766.5
3508.405	752.5
3511.281	708.5
3514.155	638.5
3517.027	630.5
3519.897	584.5
3522.764	540.5
3525.629	511.5
3528.492	432.5
3531.352	401.5
3534.211	380.5
3537.067	336.5
3539.921	305.5
3542.773	263.5
3545.622	225.5
3548.469	198.5
3551.315	175.5
3554.157	144.5
3556.998	126.5
3559.837	91.5
3562.673	75.5
3565.507	51.5
3568.339	31.5
3571.169	15.5
3573.996	-15.5
3576.822	-25.5
3579.645	-42.5
3582.466	-78.5
3585.285	-94.5
3588.101	-113.5
3590.916	-128.5
3593.728	-149.5
3596.538	-176.5
3599.346	-195.5
3602.152	-211.5
3604.956	-226.5
3607.757	-238.5
3610.556	-260.5
3613.354	-269.5
3616.149	-287.5
3618.942	-298.5
3621.732	-310.5
3624.521	-318.5
3627.307	-332.5
3630.092	-341.5
3632.874	-360.5
3635.654	-366.5
3638.432	-363.5
3641.208	-383.5
3643.982	-390.5
3646.753	-400.5
3649.523	-402.5
3652.29	-420.5
3655.055	-424.5
3657.818	-434.5
3660.579	-444.5
3663.338	-463.5
3666.095	-471.5
3668.849	-475.5
3671.602	-483.5
3674.352	-498.5
3677.101	-501.5
3679.847	-515.5
3682.591	-519.5
3685.333	-524.5
3688.073	-522.5
3690.811	-533.5
3693.547	-536.5
3696.281	-539.5
3699.013	-547.5
3701.742	-553.5
3704.47	-553.5
3707.195	-561.5
3709.919	-571.5
3712.64	-575.5
3715.359	-576.5
3718.076	-578.5
3720.792	-578.5
3723.505	-577.5
3726.216	-598.5
3728.925	-591.5
3731.632	-595.5
3734.336	-599.5
3737.039	-605.5
3739.74	-590.5
3742.439	-597.5
3745.136	-606.5
3747.83	-608.5
3750.523	-612.5
3753.213	-601.5
3755.902	-617.5
3758.589	-620.5
3761.273	-619.5
3763.956	-623.5
3766.636	-628.5
3769.315	-624.5
3771.991	-627.5
3774.665	-635.5
3777.338	-630.5
3780.008	-631.5
3782.677	-631.5
3785.343	-628.5
3788.007	-636.5
3790.67	-635.5
3793.33	-638.5
3795.989	-635.5
3798.645	-637.5
3801.299	-638.5
3803.952	-649.5
3806.602	-651.5
3809.251	-653.5
3811.897	-648.5
3814.542	-648.5
3817.184	-646.5
3819.825	-642.5
3822.463	-643.5
3825.1	-654.5
3827.735	-649.5
3830.367	-648.5
3832.998	-654.5
3835.627	-654.5
3838.253	-658.5
3840.878	-660.5
3843.501	-658.5
3846.122	-655.5
3848.741	-654.5
3851.358	-659.5
3853.973	-660.5
3856.586	-662.5
3859.197	-664.5
3861.806	-665.5
3864.414	-662.5
3867.019	-659.5
3869.622	-660.5
3872.224	-651.5
3874.823	-636.5
3877.421	-628.5
3880.016	-606.5
3882.61	-590.5
3885.202	-582.5
3887.792	-601.5
3890.38	-627.5
3892.966	-651.5
3895.55	-660.5
3898.132	-675.5
3900.713	-672.5
3903.291	-672.5
3905.868	-675.5
3908.442	-672.5
3911.015	-680.5
3913.586	-670.5
3916.155	-674.5
3918.722	-672.5
3921.287	-673.5
3923.85	-679.5
3926.411	-671.5
3928.971	-686.5
3931.528	-677.5
3934.084	-678.5
3936.638	-672.5
3939.19	-678.5
3941.74	-679.5
3944.288	-687.5
3946.834	-678.5
3949.378	-681.5
3951.921	-677.5
3954.462	-683.5
3957	-681.5
3959.537	-677.5
3962.072	-677.5
3964.606	-676.5
3967.137	-676.5
3969.667	-673.5
3972.194	-674.5
3974.72	-676.5
3977.244	-666.5
3979.766	-664.5
3982.286	-665.5
3984.805	-673.5
3987.321	-668.5
3989.836	-668.5
3992.349	-661.5
3994.86	-659.5
3997.369	-671.5
3999.877	-657.5
4002.382	-657.5
4004.886	-659.5
4007.388	-664.5
4009.888	-660.5
4012.386	-662.5
4014.883	-663.5
4017.377	-659.5
4019.87	-660.5
4022.361	-659.5
4024.85	-668.5
4027.338	-667.5
4029.823	-670.5
4032.307	-673.5
4034.789	-665.5
4037.269	-659.5
4039.747	-665.5
4042.224	-668.5
4044.699	-661.5
4047.172	-665.5
4049.643	-664.5
4052.112	-668.5
4054.58	-664.5
4057.046	-674.5
4059.51	-667.5
4061.972	-667.5
4064.432	-670.5
4066.891	-665.5
4069.348	-666.5
4071.803	-664.5
4074.256	-668.5
4076.708	-668.5
4079.158	-665.5
4081.606	-665.5
4084.052	-674.5
4086.497	-667.5
4088.939	-660.5
4091.38	-668.5
4093.819	-659.5
4096.257	-706.5
4098.693	-703.5
4101.127	-705.5
4103.559	-701.5
4105.989	-395.5
4108.418	-373.5
4110.845	-361.5
4113.27	-330.5
4115.694	-294.5
4118.115	-233.5
4120.535	-657.5
4122.954	-665.5
4125.37	-656.5
4127.785	-663.5
4130.198	-670.5
4132.609	-669.5
4135.019	-707.5
4137.427	-706.5
4139.833	-709.5
4142.237	-704.5
