Data from 2018-2-14_conc=2_n=6_RamanShift_05.txt Node
Date: Wed Feb 14 11:19:56 IST 2018
User: aro
Spectrometer: QEPB0276
Trigger mode: 0
Integration Time (sec): 3.000000E1
Scans to average: 1
Electric dark correction enabled: true
Nonlinearity correction enabled: false
Boxcar width: 0
XAxis mode: Raman Shifts
Number of Pixels in Spectrum: 1044
>>>>>Begin Spectral Data<<<<<
160.701	-129.5
166.742	35.5
172.777	542.5
178.805	2056.5
184.826	5680.5
190.841	11834.5
196.849	18980.5
202.85	24080.5
208.845	25724.5
214.833	25510.5
220.815	25123.5
226.789	24947.5
232.758	24931.5
238.719	24804.5
244.674	24435.5
250.623	24117.5
256.565	23595.5
262.5	23143.5
268.429	22765.5
274.351	22428.5
280.267	22180.5
286.176	22003.5
292.079	21756.5
297.975	21609.5
303.865	21432.5
309.748	21336.5
315.625	21203.5
321.495	21102.5
327.359	21073.5
333.217	21047.5
339.068	21012.5
344.912	20967.5
350.751	20949.5
356.583	20920.5
362.408	20890.5
368.227	20892.5
374.04	20977.5
379.847	20994.5
385.647	21091.5
391.44	21188.5
397.228	21294.5
403.009	21318.5
408.784	21312.5
414.553	21384.5
420.315	21423.5
426.071	21437.5
431.821	21434.5
437.565	21465.5
443.302	21394.5
449.033	21393.5
454.758	21343.5
460.477	21293.5
466.189	21292.5
471.896	21195.5
477.596	21183.5
483.29	21132.5
488.978	21084.5
494.66	21034.5
500.335	20908.5
506.005	20690.5
511.668	20447.5
517.325	20178.5
522.977	20093.5
528.622	19910.5
534.261	19764.5
539.894	19658.5
545.521	19572.5
551.141	19503.5
556.756	19454.5
562.365	19374.5
567.968	19296.5
573.565	19303.5
579.155	19185.5
584.74	19153.5
590.319	19048.5
595.892	18912.5
601.459	18890.5
607.02	18802.5
612.575	18695.5
618.124	18639.5
623.667	18465.5
629.204	18400.5
634.735	18313.5
640.261	18201.5
645.781	18214.5
651.294	18139.5
656.802	18112.5
662.304	18060.5
667.8	18101.5
673.29	18029.5
678.775	17990.5
684.254	17934.5
689.726	17831.5
695.193	17820.5
700.655	17734.5
706.11	17611.5
711.56	17573.5
717.004	17473.5
722.442	17433.5
727.874	17385.5
733.301	17287.5
738.722	17213.5
744.137	17154.5
749.547	17196.5
754.951	17197.5
760.349	17186.5
765.741	17177.5
771.128	17179.5
776.509	17271.5
781.885	17188.5
787.254	17161.5
792.618	17075.5
797.977	17032.5
803.33	16861.5
808.677	16844.5
814.019	16723.5
819.355	16618.5
824.686	16561.5
830.011	16510.5
835.33	16517.5
840.644	16502.5
845.952	16526.5
851.255	16524.5
856.552	16602.5
861.844	16477.5
867.13	16516.5
872.41	16460.5
877.686	16369.5
882.955	16247.5
888.219	16117.5
893.478	15939.5
898.731	15741.5
903.979	15525.5
909.221	15480.5
914.458	15412.5
919.69	15400.5
924.916	15406.5
930.136	15541.5
935.351	15525.5
940.561	15564.5
945.766	15475.5
950.965	15432.5
956.158	15344.5
961.347	15195.5
966.529	14952.5
971.707	14797.5
976.879	14610.5
982.046	14499.5
987.208	14475.5
992.364	14413.5
997.515	14542.5
1002.66	14696.5
1007.801	14788.5
1012.936	14884.5
1018.066	14910.5
1023.19	14884.5
1028.309	14919.5
1033.423	14864.5
1038.532	14766.5
1043.636	14682.5
1048.734	14490.5
1053.827	14323.5
1058.915	14156.5
1063.998	14064.5
1069.075	14049.5
1074.147	14022.5
1079.214	14049.5
1084.276	14204.5
1089.333	14286.5
1094.385	14359.5
1099.431	14347.5
1104.472	14376.5
1109.509	14269.5
1114.54	14139.5
1119.565	13920.5
1124.586	13756.5
1129.602	13636.5
1134.613	13507.5
1139.618	13396.5
1144.619	13444.5
1149.614	13435.5
1154.604	13432.5
1159.589	13450.5
1164.57	13488.5
1169.545	13508.5
1174.515	13533.5
1179.48	13407.5
1184.44	13335.5
1189.395	13248.5
1194.345	13171.5
1199.29	13061.5
1204.23	13048.5
1209.165	13123.5
1214.095	13202.5
1219.021	13267.5
1223.941	13305.5
1228.856	13361.5
1233.766	13421.5
1238.672	13496.5
1243.572	13427.5
1248.467	13358.5
1253.358	13159.5
1258.244	13037.5
1263.124	12859.5
1268	12655.5
1272.871	12478.5
1277.737	12395.5
1282.599	12341.5
1287.455	12359.5
1292.306	12305.5
1297.153	12386.5
1301.995	12397.5
1306.832	12469.5
1311.664	12484.5
1316.491	12424.5
1321.314	12315.5
1326.132	12094.5
1330.945	11926.5
1335.753	11579.5
1340.556	11303.5
1345.354	11076.5
1350.148	10905.5
1354.937	10756.5
1359.722	10775.5
1364.501	10803.5
1369.276	10930.5
1374.046	11048.5
1378.811	11195.5
1383.572	11297.5
1388.327	11346.5
1393.079	11384.5
1397.825	11233.5
1402.567	11087.5
1407.304	10926.5
1412.036	10843.5
1416.764	10768.5
1421.487	10632.5
1426.205	10642.5
1430.919	10589.5
1435.628	10591.5
1440.333	10579.5
1445.032	10563.5
1449.727	10706.5
1454.418	10646.5
1459.104	10506.5
1463.785	10322.5
1468.462	10133.5
1473.134	9899.5
1477.802	9702.5
1482.465	9479.5
1487.123	9407.5
1491.777	9341.5
1496.426	9386.5
1501.071	9473.5
1505.711	9626.5
1510.347	9814.5
1514.978	9968.5
1519.604	10134.5
1524.226	10229.5
1528.844	10167.5
1533.457	10223.5
1538.065	10157.5
1542.669	10110.5
1547.269	10033.5
1551.864	9939.5
1556.454	9930.5
1561.041	9897.5
1565.622	9936.5
1570.199	9909.5
1574.772	9954.5
1579.34	10021.5
1583.904	10078.5
1588.464	10113.5
1593.019	10091.5
1597.569	10070.5
1602.115	9950.5
1606.657	9909.5
1611.195	9826.5
1615.728	9806.5
1620.256	9757.5
1624.78	9690.5
1629.3	9675.5
1633.816	9708.5
1638.327	9745.5
1642.834	9836.5
1647.336	9878.5
1651.834	9880.5
1656.328	9848.5
1660.817	9828.5
1665.302	9694.5
1669.783	9573.5
1674.259	9343.5
1678.732	9088.5
1683.199	8786.5
1687.663	8452.5
1692.122	8188.5
1696.577	8061.5
1701.028	8045.5
1705.474	8089.5
1709.917	8148.5
1714.355	8252.5
1718.788	8203.5
1723.218	8092.5
1727.643	7987.5
1732.064	7847.5
1736.481	7689.5
1740.893	7489.5
1745.301	7300.5
1749.705	7088.5
1754.105	6886.5
1758.501	6670.5
1762.893	6495.5
1767.28	6358.5
1771.663	6169.5
1776.042	6023.5
1780.417	5997.5
1784.787	5969.5
1789.154	6021.5
1793.516	6115.5
1797.874	6225.5
1802.228	6343.5
1806.578	6417.5
1810.924	6429.5
1815.266	6451.5
1819.603	6313.5
1823.937	6242.5
1828.266	6129.5
1832.591	6022.5
1836.913	5948.5
1841.23	5881.5
1845.543	5827.5
1849.852	5800.5
1854.156	5811.5
1858.457	5783.5
1862.754	5794.5
1867.047	5754.5
1871.335	5760.5
1875.62	5724.5
1879.9	5712.5
1884.177	5695.5
1888.449	5594.5
1892.718	5549.5
1896.982	5464.5
1901.243	5441.5
1905.499	5362.5
1909.752	5369.5
1914	5364.5
1918.245	5393.5
1922.485	5442.5
1926.722	5455.5
1930.954	5538.5
1935.183	5648.5
1939.408	5678.5
1943.628	5711.5
1947.845	5733.5
1952.058	5701.5
1956.267	5679.5
1960.472	5598.5
1964.673	5504.5
1968.87	5438.5
1973.063	5345.5
1977.252	5271.5
1981.438	5201.5
1985.619	5175.5
1989.797	5097.5
1993.971	5050.5
1998.14	5044.5
2002.306	5005.5
2006.469	5007.5
2010.627	4983.5
2014.781	4928.5
2018.932	4885.5
2023.078	4825.5
2027.221	4799.5
2031.36	4730.5
2035.495	4635.5
2039.627	4552.5
2043.754	4486.5
2047.878	4486.5
2051.998	4443.5
2056.114	4438.5
2060.226	4413.5
2064.334	4422.5
2068.439	4415.5
2072.54	4442.5
2076.637	4502.5
2080.73	4498.5
2084.82	4534.5
2088.906	4536.5
2092.988	4536.5
2097.066	4514.5
2101.14	4530.5
2105.211	4479.5
2109.278	4445.5
2113.342	4429.5
2117.401	4427.5
2121.457	4361.5
2125.509	4359.5
2129.558	4323.5
2133.602	4325.5
2137.643	4282.5
2141.681	4269.5
2145.714	4221.5
2149.744	4221.5
2153.77	4149.5
2157.793	4111.5
2161.812	4064.5
2165.827	4031.5
2169.838	3986.5
2173.846	3894.5
2177.851	3846.5
2181.851	3774.5
2185.848	3713.5
2189.841	3678.5
2193.831	3652.5
2197.817	3638.5
2201.799	3602.5
2205.778	3574.5
2209.753	3549.5
2213.725	3552.5
2217.693	3552.5
2221.657	3525.5
2225.618	3513.5
2229.575	3484.5
2233.529	3496.5
2237.479	3432.5
2241.425	3388.5
2245.368	3340.5
2249.307	3293.5
2253.243	3259.5
2257.175	3203.5
2261.104	3165.5
2265.029	3122.5
2268.95	3103.5
2272.868	3084.5
2276.783	3064.5
2280.694	3017.5
2284.601	2994.5
2288.505	2952.5
2292.405	2913.5
2296.302	2889.5
2300.195	2852.5
2304.085	2815.5
2307.971	2777.5
2311.854	2752.5
2315.734	2727.5
2319.609	2662.5
2323.482	2641.5
2327.351	2598.5
2331.216	2575.5
2335.078	2596.5
2338.937	2555.5
2342.792	2544.5
2346.643	2548.5
2350.492	2542.5
2354.336	2542.5
2358.178	2540.5
2362.015	2580.5
2365.85	2573.5
2369.681	2576.5
2373.508	2580.5
2377.333	2559.5
2381.153	2581.5
2384.971	2538.5
2388.785	2519.5
2392.595	2503.5
2396.402	2493.5
2400.206	2464.5
2404.007	2445.5
2407.804	2429.5
2411.597	2408.5
2415.388	2390.5
2419.174	2400.5
2422.958	2376.5
2426.738	2371.5
2430.515	2338.5
2434.289	2315.5
2438.059	2289.5
2441.825	2258.5
2445.589	2272.5
2449.349	2232.5
2453.106	2191.5
2456.859	2171.5
2460.61	2151.5
2464.356	2131.5
2468.1	2101.5
2471.84	2071.5
2475.577	2055.5
2479.311	2051.5
2483.041	2030.5
2486.768	2004.5
2490.492	2011.5
2494.213	1998.5
2497.93	2005.5
2501.644	1987.5
2505.355	1982.5
2509.062	1990.5
2512.766	1951.5
2516.467	1950.5
2520.165	1925.5
2523.859	1899.5
2527.551	1905.5
2531.239	1883.5
2534.923	1878.5
2538.605	1861.5
2542.283	1881.5
2545.958	1861.5
2549.63	1860.5
2553.299	1840.5
2556.964	1853.5
2560.626	1841.5
2564.285	1839.5
2567.941	1822.5
2571.594	1827.5
2575.243	1808.5
2578.89	1797.5
2582.533	1766.5
2586.173	1759.5
2589.809	1753.5
2593.443	1720.5
2597.073	1722.5
2600.701	1691.5
2604.325	1660.5
2607.946	1648.5
2611.564	1669.5
2615.178	1654.5
2618.79	1627.5
2622.398	1621.5
2626.004	1605.5
2629.606	1576.5
2633.205	1570.5
2636.801	1530.5
2640.394	1517.5
2643.983	1514.5
2647.57	1471.5
2651.153	1448.5
2654.734	1424.5
2658.311	1408.5
2661.885	1399.5
2665.456	1374.5
2669.025	1372.5
2672.589	1336.5
2676.151	1330.5
2679.71	1313.5
2683.266	1289.5
2686.819	1282.5
2690.368	1239.5
2693.915	1228.5
2697.458	1166.5
2700.999	1141.5
2704.536	1127.5
2708.071	1107.5
2711.602	1100.5
2715.13	1050.5
2718.656	1035.5
2722.178	1017.5
2725.697	986.5
2729.214	988.5
2732.727	984.5
2736.237	974.5
2739.744	956.5
2743.249	968.5
2746.75	971.5
2750.248	963.5
2753.743	987.5
2757.236	988.5
2760.725	1006.5
2764.211	1011.5
2767.695	1009.5
2771.175	1009.5
2774.652	1013.5
2778.127	990.5
2781.598	976.5
2785.067	1002.5
2788.532	987.5
2791.995	977.5
2795.455	985.5
2798.911	995.5
2802.365	988.5
2805.816	990.5
2809.264	983.5
2812.709	976.5
2816.151	979.5
2819.59	993.5
2823.026	995.5
2826.46	997.5
2829.89	984.5
2833.318	993.5
2836.742	992.5
2840.164	1003.5
2843.583	1016.5
2846.999	1022.5
2850.412	1012.5
2853.822	1037.5
2857.229	1047.5
2860.634	1062.5
2864.035	1081.5
2867.434	1109.5
2870.83	1121.5
2874.223	1134.5
2877.613	1140.5
2881	1157.5
2884.385	1169.5
2887.766	1169.5
2891.145	1159.5
2894.521	1173.5
2897.894	1159.5
2901.264	1128.5
2904.631	1147.5
2907.996	1147.5
2911.358	1162.5
2914.717	1166.5
2918.073	1177.5
2921.426	1162.5
2924.777	1176.5
2928.124	1205.5
2931.469	1220.5
2934.811	1280.5
2938.15	1269.5
2941.487	1276.5
2944.821	1276.5
2948.152	1271.5
2951.48	1258.5
2954.805	1251.5
2958.128	1245.5
2961.447	1239.5
2964.765	1248.5
2968.079	1241.5
2971.39	1257.5
2974.699	1267.5
2978.005	1280.5
2981.308	1307.5
2984.609	1315.5
2987.907	1346.5
2991.202	1375.5
2994.494	1424.5
2997.784	1429.5
3001.07	1463.5
3004.355	1475.5
3007.636	1502.5
3010.915	1527.5
3014.191	1509.5
3017.464	1542.5
3020.734	1543.5
3024.002	1566.5
3027.267	1575.5
3030.53	1588.5
3033.789	1595.5
3037.046	1603.5
3040.301	1624.5
3043.552	1680.5
3046.801	1711.5
3050.048	1728.5
3053.291	1792.5
3056.532	1853.5
3059.771	1855.5
3063.006	1948.5
3066.239	1991.5
3069.469	2055.5
3072.697	2092.5
3075.922	2155.5
3079.144	2196.5
3082.364	2253.5
3085.581	2297.5
3088.795	2342.5
3092.007	2379.5
3095.216	2435.5
3098.423	2501.5
3101.627	2558.5
3104.828	2616.5
3108.026	2666.5
3111.222	2737.5
3114.416	2794.5
3117.607	2856.5
3120.795	2919.5
3123.98	2995.5
3127.163	3062.5
3130.344	3146.5
3133.521	3198.5
3136.696	3305.5
3139.869	3349.5
3143.039	3425.5
3146.206	3447.5
3149.371	3484.5
3152.533	3536.5
3155.693	3548.5
3158.85	3577.5
3162.005	3585.5
3165.157	3567.5
3168.306	3612.5
3171.453	3612.5
3174.597	3633.5
3177.739	3626.5
3180.878	3621.5
3184.014	3627.5
3187.149	3628.5
3190.28	3627.5
3193.409	3629.5
3196.536	3624.5
3199.659	3638.5
3202.781	3683.5
3205.9	3657.5
3209.016	3637.5
3212.13	3608.5
3215.241	3600.5
3218.35	3605.5
3221.456	3525.5
3224.56	3502.5
3227.661	3478.5
3230.76	3420.5
3233.856	3387.5
3236.95	3374.5
3240.041	3326.5
3243.13	3323.5
3246.216	3306.5
3249.3	3312.5
3252.382	3251.5
3255.46	3279.5
3258.537	3285.5
3261.611	3244.5
3264.682	3259.5
3267.751	3249.5
3270.818	3255.5
3273.882	3232.5
3276.943	3209.5
3280.002	3190.5
3283.059	3159.5
3286.113	3135.5
3289.165	3063.5
3292.214	3018.5
3295.261	2975.5
3298.306	2917.5
3301.348	2872.5
3304.387	2828.5
3307.425	2783.5
3310.459	2754.5
3313.492	2680.5
3316.521	2655.5
3319.549	2644.5
3322.574	2605.5
3325.597	2590.5
3328.617	2567.5
3331.635	2534.5
3334.65	2522.5
3337.663	2505.5
3340.674	2478.5
3343.682	2482.5
3346.688	2494.5
3349.691	2454.5
3352.692	2454.5
3355.691	2418.5
3358.687	2417.5
3361.681	2383.5
3364.673	2355.5
3367.662	2311.5
3370.649	2266.5
3373.633	2270.5
3376.615	2221.5
3379.595	2186.5
3382.572	2171.5
3385.547	2123.5
3388.52	2094.5
3391.49	2052.5
3394.458	2027.5
3397.424	2007.5
3400.387	1976.5
3403.348	1938.5
3406.307	1926.5
3409.263	1911.5
3412.217	1871.5
3415.168	1862.5
3418.118	1825.5
3421.065	1822.5
3424.009	1801.5
3426.951	1755.5
3429.891	1746.5
3432.829	1695.5
3435.764	1642.5
3438.697	1623.5
3441.628	1570.5
3444.557	1526.5
3447.483	1453.5
3450.407	1421.5
3453.328	1372.5
3456.247	1333.5
3459.164	1277.5
3462.079	1244.5
3464.991	1188.5
3467.902	1152.5
3470.809	1100.5
3473.715	1063.5
3476.618	1037.5
3479.519	1000.5
3482.418	953.5
3485.315	938.5
3488.209	885.5
3491.101	866.5
3493.99	809.5
3496.878	788.5
3499.763	764.5
3502.646	726.5
3505.527	713.5
3508.405	676.5
3511.281	624.5
3514.155	594.5
3517.027	554.5
3519.897	522.5
3522.764	475.5
3525.629	433.5
3528.492	398.5
3531.352	387.5
3534.211	338.5
3537.067	305.5
3539.921	277.5
3542.773	232.5
3545.622	201.5
3548.469	170.5
3551.315	159.5
3554.157	137.5
3556.998	94.5
3559.837	104.5
3562.673	61.5
3565.507	41.5
3568.339	15.5
3571.169	7.5
3573.996	-7.5
3576.822	-28.5
3579.645	-58.5
3582.466	-73.5
3585.285	-91.5
3588.101	-108.5
3590.916	-115.5
3593.728	-140.5
3596.538	-152.5
3599.346	-173.5
3602.152	-190.5
3604.956	-200.5
3607.757	-220.5
3610.556	-235.5
3613.354	-243.5
3616.149	-262.5
3618.942	-274.5
3621.732	-275.5
3624.521	-302.5
3627.307	-306.5
3630.092	-312.5
3632.874	-321.5
3635.654	-327.5
3638.432	-337.5
3641.208	-344.5
3643.982	-355.5
3646.753	-365.5
3649.523	-368.5
3652.29	-373.5
3655.055	-377.5
3657.818	-393.5
3660.579	-410.5
3663.338	-416.5
3666.095	-425.5
3668.849	-434.5
3671.602	-440.5
3674.352	-451.5
3677.101	-450.5
3679.847	-454.5
3682.591	-460.5
3685.333	-466.5
3688.073	-465.5
3690.811	-475.5
3693.547	-481.5
3696.281	-490.5
3699.013	-488.5
3701.742	-496.5
3704.47	-497.5
3707.195	-510.5
3709.919	-506.5
3712.64	-510.5
3715.359	-516.5
3718.076	-519.5
3720.792	-515.5
3723.505	-515.5
3726.216	-532.5
3728.925	-523.5
3731.632	-535.5
3734.336	-532.5
3737.039	-536.5
3739.74	-534.5
3742.439	-543.5
3745.136	-540.5
3747.83	-548.5
3750.523	-546.5
3753.213	-540.5
3755.902	-553.5
3758.589	-548.5
3761.273	-558.5
3763.956	-558.5
3766.636	-555.5
3769.315	-553.5
3771.991	-559.5
3774.665	-563.5
3777.338	-560.5
3780.008	-569.5
3782.677	-568.5
3785.343	-559.5
3788.007	-568.5
3790.67	-572.5
3793.33	-569.5
3795.989	-569.5
3798.645	-571.5
3801.299	-572.5
3803.952	-586.5
3806.602	-585.5
3809.251	-580.5
3811.897	-573.5
3814.542	-580.5
3817.184	-576.5
3819.825	-580.5
3822.463	-574.5
3825.1	-581.5
3827.735	-580.5
3830.367	-582.5
3832.998	-588.5
3835.627	-594.5
3838.253	-589.5
3840.878	-592.5
3843.501	-588.5
3846.122	-587.5
3848.741	-585.5
3851.358	-588.5
3853.973	-583.5
3856.586	-588.5
3859.197	-587.5
3861.806	-592.5
3864.414	-587.5
3867.019	-592.5
3869.622	-592.5
3872.224	-585.5
3874.823	-571.5
3877.421	-557.5
3880.016	-551.5
3882.61	-524.5
3885.202	-519.5
3887.792	-533.5
3890.38	-559.5
3892.966	-579.5
3895.55	-586.5
3898.132	-599.5
3900.713	-604.5
3903.291	-598.5
3905.868	-601.5
3908.442	-601.5
3911.015	-603.5
3913.586	-597.5
3916.155	-600.5
3918.722	-607.5
3921.287	-605.5
3923.85	-610.5
3926.411	-607.5
3928.971	-610.5
3931.528	-610.5
3934.084	-604.5
3936.638	-600.5
3939.19	-607.5
3941.74	-599.5
3944.288	-608.5
3946.834	-597.5
3949.378	-607.5
3951.921	-604.5
3954.462	-607.5
3957	-599.5
3959.537	-608.5
3962.072	-604.5
3964.606	-605.5
3967.137	-606.5
3969.667	-611.5
3972.194	-604.5
3974.72	-604.5
3977.244	-590.5
3979.766	-590.5
3982.286	-598.5
3984.805	-588.5
3987.321	-590.5
3989.836	-595.5
3992.349	-587.5
3994.86	-589.5
3997.369	-595.5
3999.877	-587.5
4002.382	-590.5
4004.886	-587.5
4007.388	-589.5
4009.888	-587.5
4012.386	-596.5
4014.883	-595.5
4017.377	-596.5
4019.87	-591.5
4022.361	-587.5
4024.85	-592.5
4027.338	-592.5
4029.823	-596.5
4032.307	-598.5
4034.789	-591.5
4037.269	-590.5
4039.747	-592.5
4042.224	-594.5
4044.699	-599.5
4047.172	-596.5
4049.643	-592.5
4052.112	-599.5
4054.58	-604.5
4057.046	-599.5
4059.51	-598.5
4061.972	-601.5
4064.432	-596.5
4066.891	-594.5
4069.348	-597.5
4071.803	-589.5
4074.256	-590.5
4076.708	-595.5
4079.158	-589.5
4081.606	-591.5
4084.052	-599.5
4086.497	-597.5
4088.939	-589.5
4091.38	-594.5
4093.819	-590.5
4096.257	-627.5
4098.693	-628.5
4101.127	-631.5
4103.559	-629.5
4105.989	-351.5
4108.418	-327.5
4110.845	-308.5
4113.27	-280.5
4115.694	-252.5
4118.115	-221.5
4120.535	-589.5
4122.954	-595.5
4125.37	-584.5
4127.785	-597.5
4130.198	-595.5
4132.609	-594.5
4135.019	-625.5
4137.427	-627.5
4139.833	-628.5
4142.237	-623.5
