Data from 2018-2-14_conc=2_n=3_RamanShift_05.txt Node
Date: Wed Feb 14 11:08:26 IST 2018
User: aro
Spectrometer: QEPB0276
Trigger mode: 0
Integration Time (sec): 3.000000E1
Scans to average: 1
Electric dark correction enabled: true
Nonlinearity correction enabled: false
Boxcar width: 0
XAxis mode: Raman Shifts
Number of Pixels in Spectrum: 1044
>>>>>Begin Spectral Data<<<<<
160.701	-138.6
166.742	48.4
172.777	567.4
178.805	2178.4
184.826	6026.4
190.841	12564.4
196.849	20276.4
202.85	25693.4
208.845	27469.4
214.833	27282.4
220.815	26748.4
226.789	26648.4
232.758	26578.4
238.719	26473.4
244.674	26073.4
250.623	25699.4
256.565	25235.4
262.5	24666.4
268.429	24285.4
274.351	23964.4
280.267	23561.4
286.176	23347.4
292.079	23215.4
297.975	22986.4
303.865	22813.4
309.748	22645.4
315.625	22557.4
321.495	22399.4
327.359	22378.4
333.217	22323.4
339.068	22338.4
344.912	22384.4
350.751	22279.4
356.583	22265.4
362.408	22205.4
368.227	22294.4
374.04	22260.4
379.847	22325.4
385.647	22455.4
391.44	22505.4
397.228	22567.4
403.009	22681.4
408.784	22689.4
414.553	22798.4
420.315	22824.4
426.071	22815.4
431.821	22851.4
437.565	22860.4
443.302	22846.4
449.033	22746.4
454.758	22741.4
460.477	22663.4
466.189	22654.4
471.896	22545.4
477.596	22465.4
483.29	22489.4
488.978	22391.4
494.66	22353.4
500.335	22258.4
506.005	22007.4
511.668	21775.4
517.325	21535.4
522.977	21303.4
528.622	21170.4
534.261	21064.4
539.894	20936.4
545.521	20800.4
551.141	20739.4
556.756	20721.4
562.365	20641.4
567.968	20613.4
573.565	20495.4
579.155	20362.4
584.74	20337.4
590.319	20258.4
595.892	20195.4
601.459	20123.4
607.02	20012.4
612.575	19892.4
618.124	19839.4
623.667	19709.4
629.204	19563.4
634.735	19539.4
640.261	19445.4
645.781	19312.4
651.294	19326.4
656.802	19228.4
662.304	19217.4
667.8	19264.4
673.29	19178.4
678.775	19173.4
684.254	19105.4
689.726	19034.4
695.193	18956.4
700.655	18924.4
706.11	18792.4
711.56	18668.4
717.004	18572.4
722.442	18505.4
727.874	18417.4
733.301	18402.4
738.722	18333.4
744.137	18279.4
749.547	18274.4
754.951	18303.4
760.349	18293.4
765.741	18325.4
771.128	18329.4
776.509	18288.4
781.885	18299.4
787.254	18336.4
792.618	18231.4
797.977	18096.4
803.33	17951.4
808.677	17872.4
814.019	17805.4
819.355	17653.4
824.686	17646.4
830.011	17550.4
835.33	17552.4
840.644	17570.4
845.952	17552.4
851.255	17589.4
856.552	17609.4
861.844	17636.4
867.13	17569.4
872.41	17559.4
877.686	17445.4
882.955	17347.4
888.219	17150.4
893.478	16997.4
898.731	16761.4
903.979	16625.4
909.221	16474.4
914.458	16453.4
919.69	16412.4
924.916	16483.4
930.136	16510.4
935.351	16499.4
940.561	16536.4
945.766	16516.4
950.965	16482.4
956.158	16276.4
961.347	16208.4
966.529	15927.4
971.707	15743.4
976.879	15560.4
982.046	15479.4
987.208	15369.4
992.364	15395.4
997.515	15420.4
1002.66	15623.4
1007.801	15760.4
1012.936	15870.4
1018.066	15957.4
1023.19	15902.4
1028.309	15914.4
1033.423	15834.4
1038.532	15763.4
1043.636	15618.4
1048.734	15463.4
1053.827	15277.4
1058.915	15146.4
1063.998	15005.4
1069.075	14961.4
1074.147	14990.4
1079.214	14985.4
1084.276	15078.4
1089.333	15174.4
1094.385	15323.4
1099.431	15299.4
1104.472	15293.4
1109.509	15192.4
1114.54	15085.4
1119.565	14881.4
1124.586	14676.4
1129.602	14497.4
1134.613	14418.4
1139.618	14280.4
1144.619	14291.4
1149.614	14334.4
1154.604	14344.4
1159.589	14335.4
1164.57	14392.4
1169.545	14429.4
1174.515	14445.4
1179.48	14339.4
1184.44	14251.4
1189.395	14193.4
1194.345	13991.4
1199.29	13979.4
1204.23	13989.4
1209.165	14013.4
1214.095	14113.4
1219.021	14177.4
1223.941	14227.4
1228.856	14349.4
1233.766	14387.4
1238.672	14364.4
1243.572	14348.4
1248.467	14218.4
1253.358	14129.4
1258.244	13869.4
1263.124	13694.4
1268	13544.4
1272.871	13311.4
1277.737	13198.4
1282.599	13174.4
1287.455	13155.4
1292.306	13183.4
1297.153	13206.4
1301.995	13326.4
1306.832	13362.4
1311.664	13351.4
1316.491	13279.4
1321.314	13213.4
1326.132	13011.4
1330.945	12751.4
1335.753	12399.4
1340.556	12149.4
1345.354	11841.4
1350.148	11620.4
1354.937	11526.4
1359.722	11540.4
1364.501	11555.4
1369.276	11700.4
1374.046	11848.4
1378.811	12081.4
1383.572	12158.4
1388.327	12256.4
1393.079	12222.4
1397.825	12093.4
1402.567	11904.4
1407.304	11735.4
1412.036	11612.4
1416.764	11524.4
1421.487	11457.4
1426.205	11348.4
1430.919	11337.4
1435.628	11336.4
1440.333	11363.4
1445.032	11381.4
1449.727	11450.4
1454.418	11381.4
1459.104	11245.4
1463.785	11023.4
1468.462	10811.4
1473.134	10625.4
1477.802	10390.4
1482.465	10190.4
1487.123	10076.4
1491.777	10090.4
1496.426	10103.4
1501.071	10223.4
1505.711	10381.4
1510.347	10607.4
1514.978	10743.4
1519.604	10934.4
1524.226	11031.4
1528.844	11053.4
1533.457	11007.4
1538.065	10956.4
1542.669	10917.4
1547.269	10806.4
1551.864	10752.4
1556.454	10716.4
1561.041	10701.4
1565.622	10656.4
1570.199	10703.4
1574.772	10745.4
1579.34	10803.4
1583.904	10851.4
1588.464	10857.4
1593.019	10850.4
1597.569	10836.4
1602.115	10729.4
1606.657	10695.4
1611.195	10622.4
1615.728	10513.4
1620.256	10472.4
1624.78	10482.4
1629.3	10442.4
1633.816	10527.4
1638.327	10537.4
1642.834	10585.4
1647.336	10653.4
1651.834	10660.4
1656.328	10621.4
1660.817	10555.4
1665.302	10447.4
1669.783	10277.4
1674.259	10083.4
1678.732	9829.4
1683.199	9462.4
1687.663	9140.4
1692.122	8852.4
1696.577	8702.4
1701.028	8670.4
1705.474	8774.4
1709.917	8850.4
1714.355	8948.4
1718.788	8942.4
1723.218	8772.4
1727.643	8639.4
1732.064	8433.4
1736.481	8277.4
1740.893	8034.4
1745.301	7856.4
1749.705	7666.4
1754.105	7461.4
1758.501	7240.4
1762.893	7000.4
1767.28	6841.4
1771.663	6712.4
1776.042	6581.4
1780.417	6531.4
1784.787	6496.4
1789.154	6518.4
1793.516	6663.4
1797.874	6898.4
1802.228	6897.4
1806.578	7017.4
1810.924	7021.4
1815.266	6968.4
1819.603	6870.4
1823.937	6804.4
1828.266	6644.4
1832.591	6533.4
1836.913	6479.4
1841.23	6370.4
1845.543	6384.4
1849.852	6329.4
1854.156	6321.4
1858.457	6272.4
1862.754	6310.4
1867.047	6301.4
1871.335	6258.4
1875.62	6267.4
1879.9	6224.4
1884.177	6158.4
1888.449	6142.4
1892.718	6075.4
1896.982	5956.4
1901.243	5925.4
1905.499	5859.4
1909.752	5861.4
1914	5814.4
1918.245	5851.4
1922.485	5895.4
1926.722	5969.4
1930.954	6026.4
1935.183	6095.4
1939.408	6136.4
1943.628	6198.4
1947.845	6224.4
1952.058	6204.4
1956.267	6197.4
1960.472	6072.4
1964.673	6005.4
1968.87	5896.4
1973.063	5780.4
1977.252	5713.4
1981.438	5696.4
1985.619	5599.4
1989.797	5585.4
1993.971	5488.4
1998.14	5509.4
2002.306	5485.4
2006.469	5445.4
2010.627	5415.4
2014.781	5385.4
2018.932	5344.4
2023.078	5295.4
2027.221	5221.4
2031.36	5139.4
2035.495	5036.4
2039.627	4969.4
2043.754	4947.4
2047.878	4861.4
2051.998	4848.4
2056.114	4816.4
2060.226	4786.4
2064.334	4799.4
2068.439	4854.4
2072.54	4858.4
2076.637	4885.4
2080.73	4926.4
2084.82	4899.4
2088.906	4968.4
2092.988	4946.4
2097.066	4937.4
2101.14	4918.4
2105.211	4880.4
2109.278	4866.4
2113.342	4844.4
2117.401	4801.4
2121.457	4789.4
2125.509	4753.4
2129.558	4700.4
2133.602	4688.4
2137.643	4687.4
2141.681	4658.4
2145.714	4621.4
2149.744	4552.4
2153.77	4601.4
2157.793	4501.4
2161.812	4442.4
2165.827	4392.4
2169.838	4329.4
2173.846	4277.4
2177.851	4186.4
2181.851	4126.4
2185.848	4092.4
2189.841	4039.4
2193.831	4003.4
2197.817	3965.4
2201.799	3939.4
2205.778	3924.4
2209.753	3903.4
2213.725	3903.4
2217.693	3859.4
2221.657	3868.4
2225.618	3855.4
2229.575	3845.4
2233.529	3809.4
2237.479	3783.4
2241.425	3743.4
2245.368	3674.4
2249.307	3620.4
2253.243	3567.4
2257.175	3541.4
2261.104	3505.4
2265.029	3451.4
2268.95	3400.4
2272.868	3364.4
2276.783	3318.4
2280.694	3272.4
2284.601	3267.4
2288.505	3234.4
2292.405	3187.4
2296.302	3176.4
2300.195	3134.4
2304.085	3117.4
2307.971	3061.4
2311.854	3020.4
2315.734	2988.4
2319.609	2944.4
2323.482	2862.4
2327.351	2866.4
2331.216	2849.4
2335.078	2840.4
2338.937	2830.4
2342.792	2779.4
2346.643	2803.4
2350.492	2769.4
2354.336	2785.4
2358.178	2809.4
2362.015	2787.4
2365.85	2839.4
2369.681	2830.4
2373.508	2841.4
2377.333	2823.4
2381.153	2805.4
2384.971	2812.4
2388.785	2778.4
2392.595	2736.4
2396.402	2723.4
2400.206	2685.4
2404.007	2669.4
2407.804	2673.4
2411.597	2658.4
2415.388	2635.4
2419.174	2621.4
2422.958	2617.4
2426.738	2568.4
2430.515	2564.4
2434.289	2538.4
2438.059	2525.4
2441.825	2496.4
2445.589	2472.4
2449.349	2473.4
2453.106	2430.4
2456.859	2388.4
2460.61	2349.4
2464.356	2314.4
2468.1	2300.4
2471.84	2261.4
2475.577	2250.4
2479.311	2241.4
2483.041	2244.4
2486.768	2217.4
2490.492	2218.4
2494.213	2199.4
2497.93	2177.4
2501.644	2173.4
2505.355	2174.4
2509.062	2170.4
2512.766	2168.4
2516.467	2155.4
2520.165	2123.4
2523.859	2105.4
2527.551	2077.4
2531.239	2077.4
2534.923	2068.4
2538.605	2071.4
2542.283	2045.4
2545.958	2020.4
2549.63	2050.4
2553.299	2037.4
2556.964	2062.4
2560.626	2027.4
2564.285	2014.4
2567.941	2007.4
2571.594	1995.4
2575.243	1990.4
2578.89	1956.4
2582.533	1952.4
2586.173	1945.4
2589.809	1932.4
2593.443	1898.4
2597.073	1895.4
2600.701	1901.4
2604.325	1853.4
2607.946	1849.4
2611.564	1835.4
2615.178	1829.4
2618.79	1818.4
2622.398	1796.4
2626.004	1769.4
2629.606	1763.4
2633.205	1742.4
2636.801	1706.4
2640.394	1713.4
2643.983	1668.4
2647.57	1642.4
2651.153	1613.4
2654.734	1576.4
2658.311	1564.4
2661.885	1543.4
2665.456	1518.4
2669.025	1501.4
2672.589	1469.4
2676.151	1487.4
2679.71	1453.4
2683.266	1408.4
2686.819	1397.4
2690.368	1354.4
2693.915	1355.4
2697.458	1311.4
2700.999	1284.4
2704.536	1246.4
2708.071	1218.4
2711.602	1201.4
2715.13	1176.4
2718.656	1156.4
2722.178	1138.4
2725.697	1099.4
2729.214	1102.4
2732.727	1098.4
2736.237	1092.4
2739.744	1075.4
2743.249	1093.4
2746.75	1072.4
2750.248	1091.4
2753.743	1082.4
2757.236	1096.4
2760.725	1120.4
2764.211	1129.4
2767.695	1124.4
2771.175	1131.4
2774.652	1143.4
2778.127	1128.4
2781.598	1111.4
2785.067	1105.4
2788.532	1102.4
2791.995	1096.4
2795.455	1110.4
2798.911	1088.4
2802.365	1104.4
2805.816	1104.4
2809.264	1080.4
2812.709	1115.4
2816.151	1098.4
2819.59	1105.4
2823.026	1093.4
2826.46	1095.4
2829.89	1103.4
2833.318	1115.4
2836.742	1120.4
2840.164	1115.4
2843.583	1116.4
2846.999	1123.4
2850.412	1135.4
2853.822	1147.4
2857.229	1163.4
2860.634	1193.4
2864.035	1203.4
2867.434	1224.4
2870.83	1247.4
2874.223	1254.4
2877.613	1273.4
2881	1287.4
2884.385	1306.4
2887.766	1297.4
2891.145	1282.4
2894.521	1266.4
2897.894	1290.4
2901.264	1267.4
2904.631	1273.4
2907.996	1277.4
2911.358	1290.4
2914.717	1315.4
2918.073	1299.4
2921.426	1316.4
2924.777	1313.4
2928.124	1324.4
2931.469	1357.4
2934.811	1379.4
2938.15	1386.4
2941.487	1417.4
2944.821	1407.4
2948.152	1422.4
2951.48	1385.4
2954.805	1360.4
2958.128	1359.4
2961.447	1360.4
2964.765	1370.4
2968.079	1340.4
2971.39	1383.4
2974.699	1389.4
2978.005	1401.4
2981.308	1420.4
2984.609	1443.4
2987.907	1479.4
2991.202	1500.4
2994.494	1545.4
2997.784	1578.4
3001.07	1593.4
3004.355	1596.4
3007.636	1636.4
3010.915	1644.4
3014.191	1673.4
3017.464	1670.4
3020.734	1693.4
3024.002	1718.4
3027.267	1717.4
3030.53	1713.4
3033.789	1742.4
3037.046	1769.4
3040.301	1763.4
3043.552	1821.4
3046.801	1853.4
3050.048	1862.4
3053.291	1943.4
3056.532	1977.4
3059.771	2048.4
3063.006	2105.4
3066.239	2160.4
3069.469	2236.4
3072.697	2269.4
3075.922	2354.4
3079.144	2403.4
3082.364	2420.4
3085.581	2478.4
3088.795	2567.4
3092.007	2604.4
3095.216	2643.4
3098.423	2712.4
3101.627	2768.4
3104.828	2833.4
3108.026	2884.4
3111.222	2954.4
3114.416	3048.4
3117.607	3088.4
3120.795	3170.4
3123.98	3229.4
3127.163	3331.4
3130.344	3394.4
3133.521	3472.4
3136.696	3549.4
3139.869	3608.4
3143.039	3685.4
3146.206	3719.4
3149.371	3783.4
3152.533	3793.4
3155.693	3827.4
3158.85	3823.4
3162.005	3860.4
3165.157	3873.4
3168.306	3881.4
3171.453	3912.4
3174.597	3892.4
3177.739	3917.4
3180.878	3953.4
3184.014	3915.4
3187.149	3902.4
3190.28	3949.4
3193.409	3967.4
3196.536	3907.4
3199.659	3954.4
3202.781	3940.4
3205.9	3966.4
3209.016	3951.4
3212.13	3909.4
3215.241	3903.4
3218.35	3856.4
3221.456	3834.4
3224.56	3779.4
3227.661	3727.4
3230.76	3695.4
3233.856	3669.4
3236.95	3624.4
3240.041	3602.4
3243.13	3556.4
3246.216	3574.4
3249.3	3526.4
3252.382	3541.4
3255.46	3509.4
3258.537	3509.4
3261.611	3528.4
3264.682	3524.4
3267.751	3480.4
3270.818	3490.4
3273.882	3465.4
3276.943	3479.4
3280.002	3415.4
3283.059	3414.4
3286.113	3378.4
3289.165	3286.4
3292.214	3251.4
3295.261	3220.4
3298.306	3174.4
3301.348	3135.4
3304.387	3045.4
3307.425	2994.4
3310.459	2968.4
3313.492	2917.4
3316.521	2873.4
3319.549	2809.4
3322.574	2831.4
3325.597	2789.4
3328.617	2753.4
3331.635	2727.4
3334.65	2730.4
3337.663	2710.4
3340.674	2693.4
3343.682	2683.4
3346.688	2672.4
3349.691	2668.4
3352.692	2644.4
3355.691	2622.4
3358.687	2591.4
3361.681	2586.4
3364.673	2536.4
3367.662	2514.4
3370.649	2461.4
3373.633	2436.4
3376.615	2382.4
3379.595	2353.4
3382.572	2317.4
3385.547	2293.4
3388.52	2268.4
3391.49	2232.4
3394.458	2187.4
3397.424	2165.4
3400.387	2134.4
3403.348	2112.4
3406.307	2072.4
3409.263	2069.4
3412.217	2053.4
3415.168	2006.4
3418.118	1990.4
3421.065	1964.4
3424.009	1934.4
3426.951	1905.4
3429.891	1867.4
3432.829	1807.4
3435.764	1798.4
3438.697	1735.4
3441.628	1687.4
3444.557	1654.4
3447.483	1587.4
3450.407	1539.4
3453.328	1500.4
3456.247	1446.4
3459.164	1386.4
3462.079	1341.4
3464.991	1284.4
3467.902	1240.4
3470.809	1202.4
3473.715	1149.4
3476.618	1100.4
3479.519	1060.4
3482.418	1031.4
3485.315	1014.4
3488.209	971.4
3491.101	935.4
3493.99	906.4
3496.878	850.4
3499.763	839.4
3502.646	786.4
3505.527	749.4
3508.405	720.4
3511.281	687.4
3514.155	647.4
3517.027	620.4
3519.897	574.4
3522.764	537.4
3525.629	485.4
3528.492	439.4
3531.352	422.4
3534.211	367.4
3537.067	340.4
3539.921	301.4
3542.773	256.4
3545.622	228.4
3548.469	215.4
3551.315	192.4
3554.157	158.4
3556.998	118.4
3559.837	100.4
3562.673	80.4
3565.507	52.4
3568.339	31.4
3571.169	18.4
3573.996	2.4
3576.822	-16.6
3579.645	-58.6
3582.466	-63.6
3585.285	-91.6
3588.101	-105.6
3590.916	-113.6
3593.728	-148.6
3596.538	-162.6
3599.346	-175.6
3602.152	-192.6
3604.956	-211.6
3607.757	-224.6
3610.556	-253.6
3613.354	-249.6
3616.149	-270.6
3618.942	-275.6
3621.732	-294.6
3624.521	-314.6
3627.307	-321.6
3630.092	-329.6
3632.874	-332.6
3635.654	-340.6
3638.432	-347.6
3641.208	-358.6
3643.982	-369.6
3646.753	-374.6
3649.523	-390.6
3652.29	-393.6
3655.055	-404.6
3657.818	-419.6
3660.579	-417.6
3663.338	-438.6
3666.095	-448.6
3668.849	-456.6
3671.602	-461.6
3674.352	-473.6
3677.101	-470.6
3679.847	-481.6
3682.591	-487.6
3685.333	-503.6
3688.073	-500.6
3690.811	-504.6
3693.547	-510.6
3696.281	-513.6
3699.013	-516.6
3701.742	-519.6
3704.47	-528.6
3707.195	-530.6
3709.919	-531.6
3712.64	-546.6
3715.359	-539.6
3718.076	-548.6
3720.792	-549.6
3723.505	-545.6
3726.216	-561.6
3728.925	-555.6
3731.632	-567.6
3734.336	-562.6
3737.039	-569.6
3739.74	-565.6
3742.439	-573.6
3745.136	-569.6
3747.83	-580.6
3750.523	-577.6
3753.213	-568.6
3755.902	-578.6
3758.589	-578.6
3761.273	-589.6
3763.956	-588.6
3766.636	-587.6
3769.315	-592.6
3771.991	-594.6
3774.665	-606.6
3777.338	-598.6
3780.008	-599.6
3782.677	-606.6
3785.343	-600.6
3788.007	-601.6
3790.67	-603.6
3793.33	-604.6
3795.989	-603.6
3798.645	-596.6
3801.299	-601.6
3803.952	-605.6
3806.602	-610.6
3809.251	-617.6
3811.897	-613.6
3814.542	-616.6
3817.184	-610.6
3819.825	-612.6
3822.463	-609.6
3825.1	-621.6
3827.735	-611.6
3830.367	-609.6
3832.998	-620.6
3835.627	-622.6
3838.253	-620.6
3840.878	-623.6
3843.501	-614.6
3846.122	-614.6
3848.741	-615.6
3851.358	-618.6
3853.973	-621.6
3856.586	-625.6
3859.197	-625.6
3861.806	-631.6
3864.414	-628.6
3867.019	-623.6
3869.622	-626.6
3872.224	-619.6
3874.823	-602.6
3877.421	-588.6
3880.016	-569.6
3882.61	-548.6
3885.202	-543.6
3887.792	-556.6
3890.38	-587.6
3892.966	-606.6
3895.55	-626.6
3898.132	-639.6
3900.713	-642.6
3903.291	-638.6
3905.868	-639.6
3908.442	-634.6
3911.015	-635.6
3913.586	-635.6
3916.155	-633.6
3918.722	-635.6
3921.287	-638.6
3923.85	-639.6
3926.411	-641.6
3928.971	-649.6
3931.528	-642.6
3934.084	-647.6
3936.638	-638.6
3939.19	-645.6
3941.74	-644.6
3944.288	-644.6
3946.834	-639.6
3949.378	-643.6
3951.921	-639.6
3954.462	-645.6
3957	-636.6
3959.537	-638.6
3962.072	-635.6
3964.606	-643.6
3967.137	-640.6
3969.667	-644.6
3972.194	-635.6
3974.72	-640.6
3977.244	-626.6
3979.766	-633.6
3982.286	-633.6
3984.805	-628.6
3987.321	-629.6
3989.836	-630.6
3992.349	-627.6
3994.86	-623.6
3997.369	-630.6
3999.877	-620.6
4002.382	-624.6
4004.886	-623.6
4007.388	-623.6
4009.888	-622.6
4012.386	-629.6
4014.883	-626.6
4017.377	-628.6
4019.87	-623.6
4022.361	-624.6
4024.85	-630.6
4027.338	-631.6
4029.823	-628.6
4032.307	-633.6
4034.789	-625.6
4037.269	-618.6
4039.747	-625.6
4042.224	-627.6
4044.699	-628.6
4047.172	-627.6
4049.643	-625.6
4052.112	-635.6
4054.58	-637.6
4057.046	-633.6
4059.51	-642.6
4061.972	-635.6
4064.432	-631.6
4066.891	-630.6
4069.348	-625.6
4071.803	-629.6
4074.256	-626.6
4076.708	-624.6
4079.158	-624.6
4081.606	-629.6
4084.052	-635.6
4086.497	-628.6
4088.939	-624.6
4091.38	-627.6
4093.819	-629.6
4096.257	-661.6
4098.693	-664.6
4101.127	-667.6
4103.559	-664.6
4105.989	-368.6
4108.418	-343.6
4110.845	-335.6
4113.27	-301.6
4115.694	-267.6
4118.115	-227.6
4120.535	-625.6
4122.954	-626.6
4125.37	-617.6
4127.785	-630.6
4130.198	-630.6
4132.609	-628.6
4135.019	-664.6
4137.427	-662.6
4139.833	-665.6
4142.237	-662.6
