Data from 2018-2-14_conc=4_n=2_RamanShift_04.txt Node
Date: Wed Feb 14 13:29:55 IST 2018
User: aro
Spectrometer: QEPB0276
Trigger mode: 0
Integration Time (sec): 3.000000E1
Scans to average: 1
Electric dark correction enabled: true
Nonlinearity correction enabled: false
Boxcar width: 0
XAxis mode: Raman Shifts
Number of Pixels in Spectrum: 1044
>>>>>Begin Spectral Data<<<<<
160.701	-159.1
166.742	39.9
172.777	591.9
178.805	2327.9
184.826	6369.9
190.841	13333.9
196.849	21266.9
202.85	26787.9
208.845	28525.9
214.833	28245.9
220.815	27754.9
226.789	27602.9
232.758	27426.9
238.719	27345.9
244.674	26903.9
250.623	26483.9
256.565	25850.9
262.5	25378.9
268.429	24923.9
274.351	24533.9
280.267	24261.9
286.176	24024.9
292.079	23766.9
297.975	23506.9
303.865	23388.9
309.748	23171.9
315.625	23022.9
321.495	22937.9
327.359	22865.9
333.217	22846.9
339.068	22784.9
344.912	22761.9
350.751	22709.9
356.583	22707.9
362.408	22712.9
368.227	22688.9
374.04	22712.9
379.847	22763.9
385.647	22922.9
391.44	22886.9
397.228	23090.9
403.009	23145.9
408.784	23181.9
414.553	23333.9
420.315	23337.9
426.071	23341.9
431.821	23296.9
437.565	23264.9
443.302	23292.9
449.033	23246.9
454.758	23189.9
460.477	23154.9
466.189	23133.9
471.896	23087.9
477.596	22948.9
483.29	22967.9
488.978	22902.9
494.66	22822.9
500.335	22748.9
506.005	22529.9
511.668	22240.9
517.325	21992.9
522.977	21852.9
528.622	21628.9
534.261	21511.9
539.894	21435.9
545.521	21346.9
551.141	21246.9
556.756	21175.9
562.365	21106.9
567.968	21072.9
573.565	20986.9
579.155	20878.9
584.74	20814.9
590.319	20724.9
595.892	20714.9
601.459	20624.9
607.02	20509.9
612.575	20394.9
618.124	20256.9
623.667	20106.9
629.204	20001.9
634.735	19949.9
640.261	19873.9
645.781	19850.9
651.294	19761.9
656.802	19786.9
662.304	19674.9
667.8	19674.9
673.29	19630.9
678.775	19606.9
684.254	19532.9
689.726	19425.9
695.193	19386.9
700.655	19300.9
706.11	19210.9
711.56	19117.9
717.004	19018.9
722.442	18965.9
727.874	18862.9
733.301	18818.9
738.722	18760.9
744.137	18789.9
749.547	18737.9
754.951	18697.9
760.349	18751.9
765.741	18722.9
771.128	18682.9
776.509	18753.9
781.885	18740.9
787.254	18671.9
792.618	18598.9
797.977	18516.9
803.33	18327.9
808.677	18278.9
814.019	18130.9
819.355	18053.9
824.686	17965.9
830.011	17971.9
835.33	17893.9
840.644	17926.9
845.952	17979.9
851.255	18008.9
856.552	18057.9
861.844	18014.9
867.13	17974.9
872.41	17843.9
877.686	17797.9
882.955	17649.9
888.219	17496.9
893.478	17313.9
898.731	17102.9
903.979	16954.9
909.221	16825.9
914.458	16769.9
919.69	16774.9
924.916	16827.9
930.136	16843.9
935.351	16868.9
940.561	16900.9
945.766	16864.9
950.965	16799.9
956.158	16666.9
961.347	16470.9
966.529	16291.9
971.707	16071.9
976.879	15873.9
982.046	15777.9
987.208	15735.9
992.364	15709.9
997.515	15741.9
1002.66	15964.9
1007.801	16070.9
1012.936	16137.9
1018.066	16199.9
1023.19	16227.9
1028.309	16235.9
1033.423	16222.9
1038.532	16071.9
1043.636	15963.9
1048.734	15786.9
1053.827	15554.9
1058.915	15398.9
1063.998	15309.9
1069.075	15274.9
1074.147	15249.9
1079.214	15275.9
1084.276	15431.9
1089.333	15496.9
1094.385	15525.9
1099.431	15591.9
1104.472	15641.9
1109.509	15484.9
1114.54	15362.9
1119.565	15141.9
1124.586	14904.9
1129.602	14728.9
1134.613	14683.9
1139.618	14584.9
1144.619	14529.9
1149.614	14584.9
1154.604	14610.9
1159.589	14668.9
1164.57	14675.9
1169.545	14685.9
1174.515	14701.9
1179.48	14602.9
1184.44	14468.9
1189.395	14432.9
1194.345	14303.9
1199.29	14248.9
1204.23	14259.9
1209.165	14273.9
1214.095	14327.9
1219.021	14424.9
1223.941	14468.9
1228.856	14552.9
1233.766	14605.9
1238.672	14587.9
1243.572	14582.9
1248.467	14582.9
1253.358	14297.9
1258.244	14178.9
1263.124	13964.9
1268	13739.9
1272.871	13555.9
1277.737	13531.9
1282.599	13417.9
1287.455	13417.9
1292.306	13437.9
1297.153	13462.9
1301.995	13533.9
1306.832	13584.9
1311.664	13621.9
1316.491	13554.9
1321.314	13417.9
1326.132	13280.9
1330.945	12924.9
1335.753	12619.9
1340.556	12301.9
1345.354	11987.9
1350.148	11798.9
1354.937	11688.9
1359.722	11702.9
1364.501	11795.9
1369.276	11978.9
1374.046	12175.9
1378.811	12345.9
1383.572	12554.9
1388.327	12585.9
1393.079	12539.9
1397.825	12396.9
1402.567	12151.9
1407.304	11971.9
1412.036	11807.9
1416.764	11787.9
1421.487	11691.9
1426.205	11590.9
1430.919	11589.9
1435.628	11599.9
1440.333	11597.9
1445.032	11582.9
1449.727	11644.9
1454.418	11633.9
1459.104	11434.9
1463.785	11257.9
1468.462	11039.9
1473.134	10762.9
1477.802	10565.9
1482.465	10400.9
1487.123	10309.9
1491.777	10240.9
1496.426	10296.9
1501.071	10447.9
1505.711	10627.9
1510.347	10831.9
1514.978	11043.9
1519.604	11171.9
1524.226	11369.9
1528.844	11371.9
1533.457	11313.9
1538.065	11266.9
1542.669	11162.9
1547.269	11091.9
1551.864	11011.9
1556.454	10962.9
1561.041	10951.9
1565.622	10928.9
1570.199	10947.9
1574.772	10987.9
1579.34	11082.9
1583.904	11078.9
1588.464	11134.9
1593.019	11114.9
1597.569	11055.9
1602.115	11020.9
1606.657	10966.9
1611.195	10878.9
1615.728	10813.9
1620.256	10732.9
1624.78	10745.9
1629.3	10701.9
1633.816	10726.9
1638.327	10828.9
1642.834	10877.9
1647.336	10923.9
1651.834	10923.9
1656.328	10920.9
1660.817	10828.9
1665.302	10765.9
1669.783	10568.9
1674.259	10336.9
1678.732	10026.9
1683.199	9693.9
1687.663	9301.9
1692.122	9029.9
1696.577	8916.9
1701.028	8915.9
1705.474	8998.9
1709.917	9158.9
1714.355	9298.9
1718.788	9161.9
1723.218	9017.9
1727.643	8841.9
1732.064	8689.9
1736.481	8511.9
1740.893	8273.9
1745.301	8041.9
1749.705	7863.9
1754.105	7600.9
1758.501	7416.9
1762.893	7185.9
1767.28	7021.9
1771.663	6849.9
1776.042	6714.9
1780.417	6630.9
1784.787	6643.9
1789.154	6715.9
1793.516	6826.9
1797.874	6992.9
1802.228	7144.9
1806.578	7263.9
1810.924	7248.9
1815.266	7145.9
1819.603	7065.9
1823.937	6955.9
1828.266	6837.9
1832.591	6703.9
1836.913	6611.9
1841.23	6542.9
1845.543	6515.9
1849.852	6461.9
1854.156	6454.9
1858.457	6432.9
1862.754	6408.9
1867.047	6433.9
1871.335	6408.9
1875.62	6417.9
1879.9	6365.9
1884.177	6300.9
1888.449	6271.9
1892.718	6233.9
1896.982	6132.9
1901.243	6048.9
1905.499	5978.9
1909.752	6005.9
1914	5984.9
1918.245	5986.9
1922.485	6053.9
1926.722	6136.9
1930.954	6153.9
1935.183	6300.9
1939.408	6370.9
1943.628	6351.9
1947.845	6415.9
1952.058	6381.9
1956.267	6369.9
1960.472	6242.9
1964.673	6211.9
1968.87	6057.9
1973.063	5966.9
1977.252	5920.9
1981.438	5826.9
1985.619	5766.9
1989.797	5706.9
1993.971	5675.9
1998.14	5657.9
2002.306	5625.9
2006.469	5583.9
2010.627	5549.9
2014.781	5558.9
2018.932	5483.9
2023.078	5432.9
2027.221	5328.9
2031.36	5275.9
2035.495	5200.9
2039.627	5119.9
2043.754	5051.9
2047.878	4993.9
2051.998	4964.9
2056.114	4956.9
2060.226	4941.9
2064.334	4933.9
2068.439	4947.9
2072.54	4983.9
2076.637	5039.9
2080.73	5066.9
2084.82	5098.9
2088.906	5102.9
2092.988	5107.9
2097.066	5062.9
2101.14	5049.9
2105.211	4996.9
2109.278	5012.9
2113.342	4956.9
2117.401	4944.9
2121.457	4912.9
2125.509	4903.9
2129.558	4847.9
2133.602	4836.9
2137.643	4800.9
2141.681	4787.9
2145.714	4760.9
2149.744	4727.9
2153.77	4687.9
2157.793	4618.9
2161.812	4581.9
2165.827	4506.9
2169.838	4444.9
2173.846	4373.9
2177.851	4279.9
2181.851	4219.9
2185.848	4195.9
2189.841	4139.9
2193.831	4068.9
2197.817	4040.9
2201.799	4038.9
2205.778	4024.9
2209.753	4023.9
2213.725	3967.9
2217.693	3970.9
2221.657	3966.9
2225.618	3979.9
2229.575	3901.9
2233.529	3909.9
2237.479	3850.9
2241.425	3834.9
2245.368	3778.9
2249.307	3721.9
2253.243	3644.9
2257.175	3598.9
2261.104	3540.9
2265.029	3507.9
2268.95	3486.9
2272.868	3456.9
2276.783	3418.9
2280.694	3367.9
2284.601	3340.9
2288.505	3322.9
2292.405	3265.9
2296.302	3257.9
2300.195	3199.9
2304.085	3164.9
2307.971	3116.9
2311.854	3079.9
2315.734	3031.9
2319.609	2964.9
2323.482	2948.9
2327.351	2933.9
2331.216	2905.9
2335.078	2871.9
2338.937	2858.9
2342.792	2839.9
2346.643	2823.9
2350.492	2847.9
2354.336	2852.9
2358.178	2853.9
2362.015	2848.9
2365.85	2872.9
2369.681	2867.9
2373.508	2848.9
2377.333	2833.9
2381.153	2841.9
2384.971	2838.9
2388.785	2780.9
2392.595	2775.9
2396.402	2739.9
2400.206	2734.9
2404.007	2708.9
2407.804	2723.9
2411.597	2673.9
2415.388	2637.9
2419.174	2623.9
2422.958	2623.9
2426.738	2580.9
2430.515	2574.9
2434.289	2565.9
2438.059	2525.9
2441.825	2503.9
2445.589	2504.9
2449.349	2472.9
2453.106	2421.9
2456.859	2400.9
2460.61	2379.9
2464.356	2314.9
2468.1	2305.9
2471.84	2278.9
2475.577	2250.9
2479.311	2256.9
2483.041	2247.9
2486.768	2227.9
2490.492	2216.9
2494.213	2209.9
2497.93	2215.9
2501.644	2212.9
2505.355	2162.9
2509.062	2179.9
2512.766	2153.9
2516.467	2171.9
2520.165	2141.9
2523.859	2128.9
2527.551	2085.9
2531.239	2075.9
2534.923	2080.9
2538.605	2063.9
2542.283	2058.9
2545.958	2050.9
2549.63	2064.9
2553.299	2045.9
2556.964	2044.9
2560.626	2055.9
2564.285	2029.9
2567.941	2033.9
2571.594	2028.9
2575.243	1971.9
2578.89	1993.9
2582.533	1975.9
2586.173	1973.9
2589.809	1919.9
2593.443	1910.9
2597.073	1900.9
2600.701	1882.9
2604.325	1859.9
2607.946	1842.9
2611.564	1847.9
2615.178	1843.9
2618.79	1819.9
2622.398	1794.9
2626.004	1771.9
2629.606	1744.9
2633.205	1716.9
2636.801	1711.9
2640.394	1674.9
2643.983	1644.9
2647.57	1645.9
2651.153	1612.9
2654.734	1583.9
2658.311	1557.9
2661.885	1535.9
2665.456	1533.9
2669.025	1490.9
2672.589	1484.9
2676.151	1461.9
2679.71	1448.9
2683.266	1405.9
2686.819	1385.9
2690.368	1365.9
2693.915	1341.9
2697.458	1312.9
2700.999	1260.9
2704.536	1248.9
2708.071	1211.9
2711.602	1193.9
2715.13	1166.9
2718.656	1140.9
2722.178	1131.9
2725.697	1109.9
2729.214	1087.9
2732.727	1072.9
2736.237	1063.9
2739.744	1065.9
2743.249	1070.9
2746.75	1066.9
2750.248	1081.9
2753.743	1120.9
2757.236	1125.9
2760.725	1125.9
2764.211	1132.9
2767.695	1147.9
2771.175	1146.9
2774.652	1124.9
2778.127	1130.9
2781.598	1114.9
2785.067	1116.9
2788.532	1107.9
2791.995	1101.9
2795.455	1103.9
2798.911	1118.9
2802.365	1104.9
2805.816	1112.9
2809.264	1087.9
2812.709	1101.9
2816.151	1094.9
2819.59	1100.9
2823.026	1085.9
2826.46	1103.9
2829.89	1102.9
2833.318	1097.9
2836.742	1116.9
2840.164	1112.9
2843.583	1130.9
2846.999	1136.9
2850.412	1156.9
2853.822	1159.9
2857.229	1158.9
2860.634	1167.9
2864.035	1207.9
2867.434	1227.9
2870.83	1248.9
2874.223	1260.9
2877.613	1279.9
2881	1285.9
2884.385	1290.9
2887.766	1314.9
2891.145	1286.9
2894.521	1289.9
2897.894	1320.9
2901.264	1303.9
2904.631	1296.9
2907.996	1288.9
2911.358	1301.9
2914.717	1305.9
2918.073	1333.9
2921.426	1353.9
2924.777	1353.9
2928.124	1354.9
2931.469	1397.9
2934.811	1419.9
2938.15	1422.9
2941.487	1450.9
2944.821	1446.9
2948.152	1440.9
2951.48	1438.9
2954.805	1409.9
2958.128	1403.9
2961.447	1395.9
2964.765	1388.9
2968.079	1398.9
2971.39	1400.9
2974.699	1425.9
2978.005	1428.9
2981.308	1483.9
2984.609	1490.9
2987.907	1525.9
2991.202	1549.9
2994.494	1568.9
2997.784	1624.9
3001.07	1661.9
3004.355	1676.9
3007.636	1693.9
3010.915	1728.9
3014.191	1740.9
3017.464	1745.9
3020.734	1760.9
3024.002	1768.9
3027.267	1770.9
3030.53	1753.9
3033.789	1805.9
3037.046	1837.9
3040.301	1848.9
3043.552	1894.9
3046.801	1922.9
3050.048	1955.9
3053.291	2007.9
3056.532	2070.9
3059.771	2118.9
3063.006	2172.9
3066.239	2267.9
3069.469	2319.9
3072.697	2361.9
3075.922	2426.9
3079.144	2500.9
3082.364	2531.9
3085.581	2597.9
3088.795	2657.9
3092.007	2723.9
3095.216	2792.9
3098.423	2826.9
3101.627	2889.9
3104.828	2982.9
3108.026	3010.9
3111.222	3087.9
3114.416	3142.9
3117.607	3231.9
3120.795	3307.9
3123.98	3396.9
3127.163	3451.9
3130.344	3549.9
3133.521	3606.9
3136.696	3732.9
3139.869	3803.9
3143.039	3836.9
3146.206	3898.9
3149.371	3978.9
3152.533	3978.9
3155.693	4012.9
3158.85	4017.9
3162.005	4071.9
3165.157	4058.9
3168.306	4102.9
3171.453	4095.9
3174.597	4071.9
3177.739	4121.9
3180.878	4098.9
3184.014	4115.9
3187.149	4098.9
3190.28	4093.9
3193.409	4111.9
3196.536	4123.9
3199.659	4137.9
3202.781	4141.9
3205.9	4099.9
3209.016	4130.9
3212.13	4062.9
3215.241	4070.9
3218.35	4049.9
3221.456	3999.9
3224.56	3938.9
3227.661	3880.9
3230.76	3879.9
3233.856	3841.9
3236.95	3795.9
3240.041	3761.9
3243.13	3740.9
3246.216	3746.9
3249.3	3719.9
3252.382	3687.9
3255.46	3687.9
3258.537	3633.9
3261.611	3667.9
3264.682	3663.9
3267.751	3651.9
3270.818	3663.9
3273.882	3623.9
3276.943	3624.9
3280.002	3608.9
3283.059	3554.9
3286.113	3542.9
3289.165	3466.9
3292.214	3397.9
3295.261	3349.9
3298.306	3298.9
3301.348	3256.9
3304.387	3192.9
3307.425	3148.9
3310.459	3110.9
3313.492	3054.9
3316.521	2979.9
3319.549	2967.9
3322.574	2938.9
3325.597	2918.9
3328.617	2920.9
3331.635	2863.9
3334.65	2849.9
3337.663	2856.9
3340.674	2805.9
3343.682	2803.9
3346.688	2803.9
3349.691	2772.9
3352.692	2769.9
3355.691	2749.9
3358.687	2729.9
3361.681	2688.9
3364.673	2668.9
3367.662	2632.9
3370.649	2579.9
3373.633	2549.9
3376.615	2499.9
3379.595	2432.9
3382.572	2438.9
3385.547	2403.9
3388.52	2364.9
3391.49	2339.9
3394.458	2280.9
3397.424	2262.9
3400.387	2222.9
3403.348	2184.9
3406.307	2156.9
3409.263	2148.9
3412.217	2131.9
3415.168	2115.9
3418.118	2076.9
3421.065	2046.9
3424.009	2011.9
3426.951	1991.9
3429.891	1954.9
3432.829	1915.9
3435.764	1875.9
3438.697	1826.9
3441.628	1763.9
3444.557	1711.9
3447.483	1670.9
3450.407	1611.9
3453.328	1536.9
3456.247	1500.9
3459.164	1443.9
3462.079	1392.9
3464.991	1345.9
3467.902	1301.9
3470.809	1241.9
3473.715	1194.9
3476.618	1146.9
3479.519	1131.9
3482.418	1086.9
3485.315	1044.9
3488.209	1000.9
3491.101	960.9
3493.99	921.9
3496.878	890.9
3499.763	862.9
3502.646	846.9
3505.527	786.9
3508.405	750.9
3511.281	718.9
3514.155	665.9
3517.027	637.9
3519.897	595.9
3522.764	541.9
3525.629	512.9
3528.492	441.9
3531.352	412.9
3534.211	368.9
3537.067	341.9
3539.921	304.9
3542.773	271.9
3545.622	235.9
3548.469	194.9
3551.315	195.9
3554.157	155.9
3556.998	112.9
3559.837	101.9
3562.673	68.9
3565.507	44.9
3568.339	39.9
3571.169	1.9
3573.996	-15.1
3576.822	-39.1
3579.645	-63.1
3582.466	-74.1
3585.285	-102.1
3588.101	-125.1
3590.916	-140.1
3593.728	-163.1
3596.538	-170.1
3599.346	-189.1
3602.152	-214.1
3604.956	-238.1
3607.757	-246.1
3610.556	-267.1
3613.354	-273.1
3616.149	-293.1
3618.942	-292.1
3621.732	-310.1
3624.521	-329.1
3627.307	-336.1
3630.092	-349.1
3632.874	-355.1
3635.654	-370.1
3638.432	-368.1
3641.208	-374.1
3643.982	-393.1
3646.753	-401.1
3649.523	-418.1
3652.29	-417.1
3655.055	-441.1
3657.818	-443.1
3660.579	-461.1
3663.338	-467.1
3666.095	-473.1
3668.849	-478.1
3671.602	-488.1
3674.352	-494.1
3677.101	-502.1
3679.847	-514.1
3682.591	-513.1
3685.333	-522.1
3688.073	-527.1
3690.811	-536.1
3693.547	-537.1
3696.281	-548.1
3699.013	-551.1
3701.742	-557.1
3704.47	-559.1
3707.195	-566.1
3709.919	-565.1
3712.64	-577.1
3715.359	-577.1
3718.076	-581.1
3720.792	-579.1
3723.505	-588.1
3726.216	-587.1
3728.925	-592.1
3731.632	-595.1
3734.336	-599.1
3737.039	-600.1
3739.74	-603.1
3742.439	-606.1
3745.136	-604.1
3747.83	-610.1
3750.523	-615.1
3753.213	-595.1
3755.902	-616.1
3758.589	-617.1
3761.273	-620.1
3763.956	-628.1
3766.636	-626.1
3769.315	-633.1
3771.991	-628.1
3774.665	-628.1
3777.338	-632.1
3780.008	-634.1
3782.677	-637.1
3785.343	-628.1
3788.007	-627.1
3790.67	-634.1
3793.33	-638.1
3795.989	-642.1
3798.645	-638.1
3801.299	-644.1
3803.952	-647.1
3806.602	-650.1
3809.251	-651.1
3811.897	-646.1
3814.542	-650.1
3817.184	-654.1
3819.825	-652.1
3822.463	-646.1
3825.1	-658.1
3827.735	-644.1
3830.367	-650.1
3832.998	-655.1
3835.627	-658.1
3838.253	-655.1
3840.878	-659.1
3843.501	-653.1
3846.122	-654.1
3848.741	-654.1
3851.358	-653.1
3853.973	-657.1
3856.586	-663.1
3859.197	-663.1
3861.806	-666.1
3864.414	-660.1
3867.019	-659.1
3869.622	-661.1
3872.224	-652.1
3874.823	-650.1
3877.421	-636.1
3880.016	-617.1
3882.61	-606.1
3885.202	-605.1
3887.792	-614.1
3890.38	-635.1
3892.966	-657.1
3895.55	-665.1
3898.132	-676.1
3900.713	-675.1
3903.291	-672.1
3905.868	-673.1
3908.442	-678.1
3911.015	-677.1
3913.586	-672.1
3916.155	-674.1
3918.722	-679.1
3921.287	-677.1
3923.85	-682.1
3926.411	-676.1
3928.971	-683.1
3931.528	-678.1
3934.084	-677.1
3936.638	-677.1
3939.19	-676.1
3941.74	-675.1
3944.288	-679.1
3946.834	-673.1
3949.378	-678.1
3951.921	-676.1
3954.462	-683.1
3957	-677.1
3959.537	-679.1
3962.072	-672.1
3964.606	-675.1
3967.137	-679.1
3969.667	-677.1
3972.194	-666.1
3974.72	-675.1
3977.244	-666.1
3979.766	-669.1
3982.286	-663.1
3984.805	-667.1
3987.321	-664.1
3989.836	-668.1
3992.349	-658.1
3994.86	-658.1
3997.369	-671.1
3999.877	-663.1
4002.382	-660.1
4004.886	-657.1
4007.388	-658.1
4009.888	-660.1
4012.386	-668.1
4014.883	-664.1
4017.377	-657.1
4019.87	-660.1
4022.361	-658.1
4024.85	-666.1
4027.338	-667.1
4029.823	-670.1
4032.307	-671.1
4034.789	-661.1
4037.269	-660.1
4039.747	-662.1
4042.224	-664.1
4044.699	-662.1
4047.172	-663.1
4049.643	-662.1
4052.112	-670.1
4054.58	-674.1
4057.046	-672.1
4059.51	-668.1
4061.972	-668.1
4064.432	-668.1
4066.891	-662.1
4069.348	-665.1
4071.803	-662.1
4074.256	-666.1
4076.708	-664.1
4079.158	-660.1
4081.606	-667.1
4084.052	-666.1
4086.497	-664.1
4088.939	-659.1
4091.38	-657.1
4093.819	-657.1
4096.257	-699.1
4098.693	-699.1
4101.127	-704.1
4103.559	-701.1
4105.989	-414.1
4108.418	-397.1
4110.845	-365.1
4113.27	-336.1
4115.694	-295.1
4118.115	-248.1
4120.535	-658.1
4122.954	-666.1
4125.37	-656.1
4127.785	-668.1
4130.198	-667.1
4132.609	-668.1
4135.019	-700.1
4137.427	-703.1
4139.833	-700.1
4142.237	-697.1
