Data from 2018-2-14_conc=5_n=4_RamanShift_05.txt Node
Date: Wed Feb 14 14:16:25 IST 2018
User: aro
Spectrometer: QEPB0276
Trigger mode: 0
Integration Time (sec): 3.000000E1
Scans to average: 1
Electric dark correction enabled: true
Nonlinearity correction enabled: false
Boxcar width: 0
XAxis mode: Raman Shifts
Number of Pixels in Spectrum: 1044
>>>>>Begin Spectral Data<<<<<
160.701	-151.8
166.742	40.2
172.777	602.2
178.805	2286.2
184.826	6350.2
190.841	13322.2
196.849	21549.2
202.85	27360.2
208.845	29306.2
214.833	29009.2
220.815	28512.2
226.789	28416.2
232.758	28210.2
238.719	27992.2
244.674	27606.2
250.623	27119.2
256.565	26520.2
262.5	26118.2
268.429	25567.2
274.351	25233.2
280.267	24901.2
286.176	24602.2
292.079	24467.2
297.975	24169.2
303.865	23951.2
309.748	23813.2
315.625	23659.2
321.495	23548.2
327.359	23459.2
333.217	23413.2
339.068	23411.2
344.912	23362.2
350.751	23362.2
356.583	23273.2
362.408	23316.2
368.227	23271.2
374.04	23277.2
379.847	23398.2
385.647	23416.2
391.44	23483.2
397.228	23619.2
403.009	23701.2
408.784	23800.2
414.553	23822.2
420.315	23912.2
426.071	23940.2
431.821	23910.2
437.565	23916.2
443.302	23901.2
449.033	23855.2
454.758	23821.2
460.477	23682.2
466.189	23654.2
471.896	23652.2
477.596	23551.2
483.29	23502.2
488.978	23508.2
494.66	23393.2
500.335	23256.2
506.005	22985.2
511.668	22792.2
517.325	22532.2
522.977	22354.2
528.622	22206.2
534.261	22067.2
539.894	21945.2
545.521	21870.2
551.141	21745.2
556.756	21679.2
562.365	21603.2
567.968	21548.2
573.565	21456.2
579.155	21428.2
584.74	21337.2
590.319	21217.2
595.892	21226.2
601.459	21074.2
607.02	20991.2
612.575	20820.2
618.124	20698.2
623.667	20557.2
629.204	20547.2
634.735	20464.2
640.261	20361.2
645.781	20301.2
651.294	20225.2
656.802	20242.2
662.304	20134.2
667.8	20124.2
673.29	20136.2
678.775	20072.2
684.254	20005.2
689.726	19966.2
695.193	19880.2
700.655	19766.2
706.11	19717.2
711.56	19551.2
717.004	19531.2
722.442	19448.2
727.874	19350.2
733.301	19333.2
738.722	19255.2
744.137	19218.2
749.547	19237.2
754.951	19216.2
760.349	19242.2
765.741	19238.2
771.128	19206.2
776.509	19238.2
781.885	19241.2
787.254	19128.2
792.618	19079.2
797.977	18995.2
803.33	18876.2
808.677	18736.2
814.019	18629.2
819.355	18537.2
824.686	18451.2
830.011	18448.2
835.33	18387.2
840.644	18417.2
845.952	18429.2
851.255	18540.2
856.552	18544.2
861.844	18553.2
867.13	18454.2
872.41	18375.2
877.686	18267.2
882.955	18205.2
888.219	18015.2
893.478	17824.2
898.731	17621.2
903.979	17419.2
909.221	17358.2
914.458	17258.2
919.69	17262.2
924.916	17274.2
930.136	17328.2
935.351	17371.2
940.561	17400.2
945.766	17320.2
950.965	17297.2
956.158	17133.2
961.347	17008.2
966.529	16770.2
971.707	16562.2
976.879	16326.2
982.046	16169.2
987.208	16222.2
992.364	16234.2
997.515	16218.2
1002.66	16373.2
1007.801	16616.2
1012.936	16756.2
1018.066	16733.2
1023.19	16773.2
1028.309	16767.2
1033.423	16713.2
1038.532	16614.2
1043.636	16430.2
1048.734	16251.2
1053.827	16056.2
1058.915	15914.2
1063.998	15719.2
1069.075	15756.2
1074.147	15737.2
1079.214	15779.2
1084.276	15902.2
1089.333	15986.2
1094.385	16067.2
1099.431	16089.2
1104.472	16138.2
1109.509	15973.2
1114.54	15859.2
1119.565	15669.2
1124.586	15499.2
1129.602	15305.2
1134.613	15188.2
1139.618	15099.2
1144.619	15073.2
1149.614	15041.2
1154.604	15077.2
1159.589	15198.2
1164.57	15155.2
1169.545	15178.2
1174.515	15241.2
1179.48	15107.2
1184.44	14997.2
1189.395	14914.2
1194.345	14802.2
1199.29	14709.2
1204.23	14728.2
1209.165	14801.2
1214.095	14886.2
1219.021	14963.2
1223.941	15015.2
1228.856	15112.2
1233.766	15170.2
1238.672	15133.2
1243.572	15161.2
1248.467	15053.2
1253.358	14874.2
1258.244	14717.2
1263.124	14432.2
1268	14224.2
1272.871	14052.2
1277.737	13985.2
1282.599	13897.2
1287.455	13882.2
1292.306	13946.2
1297.153	13973.2
1301.995	14071.2
1306.832	14139.2
1311.664	14118.2
1316.491	14124.2
1321.314	13965.2
1326.132	13777.2
1330.945	13448.2
1335.753	13122.2
1340.556	12847.2
1345.354	12528.2
1350.148	12328.2
1354.937	12214.2
1359.722	12161.2
1364.501	12289.2
1369.276	12439.2
1374.046	12673.2
1378.811	12859.2
1383.572	13046.2
1388.327	13148.2
1393.079	13038.2
1397.825	12865.2
1402.567	12645.2
1407.304	12474.2
1412.036	12296.2
1416.764	12241.2
1421.487	12167.2
1426.205	12102.2
1430.919	12038.2
1435.628	12067.2
1440.333	12072.2
1445.032	12099.2
1449.727	12184.2
1454.418	12137.2
1459.104	12025.2
1463.785	11777.2
1468.462	11499.2
1473.134	11307.2
1477.802	11088.2
1482.465	10903.2
1487.123	10781.2
1491.777	10762.2
1496.426	10820.2
1501.071	10940.2
1505.711	11178.2
1510.347	11369.2
1514.978	11587.2
1519.604	11706.2
1524.226	11866.2
1528.844	11901.2
1533.457	11831.2
1538.065	11828.2
1542.669	11712.2
1547.269	11620.2
1551.864	11487.2
1556.454	11527.2
1561.041	11468.2
1565.622	11475.2
1570.199	11444.2
1574.772	11515.2
1579.34	11612.2
1583.904	11651.2
1588.464	11666.2
1593.019	11641.2
1597.569	11632.2
1602.115	11465.2
1606.657	11449.2
1611.195	11395.2
1615.728	11299.2
1620.256	11246.2
1624.78	11236.2
1629.3	11260.2
1633.816	11281.2
1638.327	11397.2
1642.834	11359.2
1647.336	11485.2
1651.834	11504.2
1656.328	11442.2
1660.817	11446.2
1665.302	11306.2
1669.783	11119.2
1674.259	10925.2
1678.732	10610.2
1683.199	10295.2
1687.663	9890.2
1692.122	9571.2
1696.577	9440.2
1701.028	9445.2
1705.474	9521.2
1709.917	9675.2
1714.355	9735.2
1718.788	9670.2
1723.218	9531.2
1727.643	9360.2
1732.064	9171.2
1736.481	8958.2
1740.893	8762.2
1745.301	8539.2
1749.705	8312.2
1754.105	8052.2
1758.501	7846.2
1762.893	7596.2
1767.28	7442.2
1771.663	7296.2
1776.042	7142.2
1780.417	7080.2
1784.787	7055.2
1789.154	7145.2
1793.516	7290.2
1797.874	7417.2
1802.228	7570.2
1806.578	7683.2
1810.924	7648.2
1815.266	7619.2
1819.603	7505.2
1823.937	7383.2
1828.266	7277.2
1832.591	7131.2
1836.913	7026.2
1841.23	6974.2
1845.543	6934.2
1849.852	6878.2
1854.156	6876.2
1858.457	6890.2
1862.754	6805.2
1867.047	6849.2
1871.335	6810.2
1875.62	6820.2
1879.9	6785.2
1884.177	6756.2
1888.449	6686.2
1892.718	6623.2
1896.982	6541.2
1901.243	6514.2
1905.499	6415.2
1909.752	6428.2
1914	6446.2
1918.245	6424.2
1922.485	6512.2
1926.722	6585.2
1930.954	6642.2
1935.183	6743.2
1939.408	6762.2
1943.628	6813.2
1947.845	6853.2
1952.058	6845.2
1956.267	6789.2
1960.472	6705.2
1964.673	6612.2
1968.87	6510.2
1973.063	6414.2
1977.252	6311.2
1981.438	6250.2
1985.619	6200.2
1989.797	6139.2
1993.971	6108.2
1998.14	6051.2
2002.306	6053.2
2006.469	6009.2
2010.627	5974.2
2014.781	5953.2
2018.932	5912.2
2023.078	5882.2
2027.221	5763.2
2031.36	5665.2
2035.495	5597.2
2039.627	5506.2
2043.754	5425.2
2047.878	5409.2
2051.998	5335.2
2056.114	5321.2
2060.226	5326.2
2064.334	5324.2
2068.439	5338.2
2072.54	5358.2
2076.637	5389.2
2080.73	5465.2
2084.82	5485.2
2088.906	5487.2
2092.988	5498.2
2097.066	5475.2
2101.14	5451.2
2105.211	5387.2
2109.278	5389.2
2113.342	5374.2
2117.401	5324.2
2121.457	5316.2
2125.509	5276.2
2129.558	5217.2
2133.602	5223.2
2137.643	5171.2
2141.681	5160.2
2145.714	5116.2
2149.744	5099.2
2153.77	5070.2
2157.793	5017.2
2161.812	4942.2
2165.827	4846.2
2169.838	4809.2
2173.846	4722.2
2177.851	4667.2
2181.851	4609.2
2185.848	4544.2
2189.841	4466.2
2193.831	4462.2
2197.817	4409.2
2201.799	4373.2
2205.778	4333.2
2209.753	4351.2
2213.725	4315.2
2217.693	4322.2
2221.657	4300.2
2225.618	4296.2
2229.575	4265.2
2233.529	4226.2
2237.479	4187.2
2241.425	4165.2
2245.368	4093.2
2249.307	4048.2
2253.243	3949.2
2257.175	3895.2
2261.104	3876.2
2265.029	3818.2
2268.95	3808.2
2272.868	3743.2
2276.783	3710.2
2280.694	3650.2
2284.601	3646.2
2288.505	3605.2
2292.405	3580.2
2296.302	3549.2
2300.195	3510.2
2304.085	3455.2
2307.971	3414.2
2311.854	3360.2
2315.734	3298.2
2319.609	3265.2
2323.482	3213.2
2327.351	3192.2
2331.216	3167.2
2335.078	3183.2
2338.937	3111.2
2342.792	3104.2
2346.643	3113.2
2350.492	3112.2
2354.336	3096.2
2358.178	3090.2
2362.015	3108.2
2365.85	3096.2
2369.681	3096.2
2373.508	3148.2
2377.333	3106.2
2381.153	3102.2
2384.971	3062.2
2388.785	3053.2
2392.595	3037.2
2396.402	3003.2
2400.206	2995.2
2404.007	2979.2
2407.804	2962.2
2411.597	2933.2
2415.388	2907.2
2419.174	2885.2
2422.958	2860.2
2426.738	2834.2
2430.515	2805.2
2434.289	2791.2
2438.059	2782.2
2441.825	2758.2
2445.589	2725.2
2449.349	2699.2
2453.106	2657.2
2456.859	2630.2
2460.61	2626.2
2464.356	2590.2
2468.1	2542.2
2471.84	2532.2
2475.577	2495.2
2479.311	2490.2
2483.041	2476.2
2486.768	2468.2
2490.492	2469.2
2494.213	2462.2
2497.93	2436.2
2501.644	2453.2
2505.355	2429.2
2509.062	2397.2
2512.766	2390.2
2516.467	2401.2
2520.165	2362.2
2523.859	2347.2
2527.551	2348.2
2531.239	2345.2
2534.923	2328.2
2538.605	2318.2
2542.283	2302.2
2545.958	2300.2
2549.63	2296.2
2553.299	2309.2
2556.964	2285.2
2560.626	2274.2
2564.285	2262.2
2567.941	2257.2
2571.594	2246.2
2575.243	2227.2
2578.89	2204.2
2582.533	2196.2
2586.173	2152.2
2589.809	2158.2
2593.443	2137.2
2597.073	2111.2
2600.701	2090.2
2604.325	2085.2
2607.946	2069.2
2611.564	2049.2
2615.178	2043.2
2618.79	2055.2
2622.398	2014.2
2626.004	2003.2
2629.606	1959.2
2633.205	1954.2
2636.801	1929.2
2640.394	1915.2
2643.983	1867.2
2647.57	1861.2
2651.153	1811.2
2654.734	1796.2
2658.311	1758.2
2661.885	1730.2
2665.456	1695.2
2669.025	1704.2
2672.589	1687.2
2676.151	1668.2
2679.71	1644.2
2683.266	1614.2
2686.819	1595.2
2690.368	1562.2
2693.915	1533.2
2697.458	1490.2
2700.999	1463.2
2704.536	1424.2
2708.071	1389.2
2711.602	1369.2
2715.13	1351.2
2718.656	1316.2
2722.178	1297.2
2725.697	1275.2
2729.214	1276.2
2732.727	1251.2
2736.237	1237.2
2739.744	1234.2
2743.249	1253.2
2746.75	1249.2
2750.248	1243.2
2753.743	1289.2
2757.236	1280.2
2760.725	1313.2
2764.211	1329.2
2767.695	1315.2
2771.175	1318.2
2774.652	1296.2
2778.127	1295.2
2781.598	1272.2
2785.067	1291.2
2788.532	1263.2
2791.995	1275.2
2795.455	1256.2
2798.911	1279.2
2802.365	1300.2
2805.816	1269.2
2809.264	1273.2
2812.709	1276.2
2816.151	1288.2
2819.59	1261.2
2823.026	1254.2
2826.46	1272.2
2829.89	1266.2
2833.318	1267.2
2836.742	1283.2
2840.164	1274.2
2843.583	1305.2
2846.999	1292.2
2850.412	1323.2
2853.822	1330.2
2857.229	1325.2
2860.634	1356.2
2864.035	1391.2
2867.434	1409.2
2870.83	1385.2
2874.223	1427.2
2877.613	1462.2
2881	1483.2
2884.385	1474.2
2887.766	1473.2
2891.145	1465.2
2894.521	1457.2
2897.894	1471.2
2901.264	1463.2
2904.631	1473.2
2907.996	1467.2
2911.358	1450.2
2914.717	1498.2
2918.073	1481.2
2921.426	1494.2
2924.777	1510.2
2928.124	1509.2
2931.469	1556.2
2934.811	1575.2
2938.15	1579.2
2941.487	1608.2
2944.821	1612.2
2948.152	1615.2
2951.48	1604.2
2954.805	1581.2
2958.128	1577.2
2961.447	1560.2
2964.765	1546.2
2968.079	1555.2
2971.39	1561.2
2974.699	1578.2
2978.005	1595.2
2981.308	1630.2
2984.609	1675.2
2987.907	1698.2
2991.202	1722.2
2994.494	1769.2
2997.784	1775.2
3001.07	1815.2
3004.355	1864.2
3007.636	1894.2
3010.915	1882.2
3014.191	1902.2
3017.464	1926.2
3020.734	1938.2
3024.002	1948.2
3027.267	1945.2
3030.53	1940.2
3033.789	1968.2
3037.046	2030.2
3040.301	2026.2
3043.552	2070.2
3046.801	2117.2
3050.048	2152.2
3053.291	2225.2
3056.532	2264.2
3059.771	2305.2
3063.006	2373.2
3066.239	2446.2
3069.469	2510.2
3072.697	2575.2
3075.922	2635.2
3079.144	2706.2
3082.364	2773.2
3085.581	2825.2
3088.795	2879.2
3092.007	2930.2
3095.216	3011.2
3098.423	3057.2
3101.627	3119.2
3104.828	3211.2
3108.026	3242.2
3111.222	3331.2
3114.416	3395.2
3117.607	3453.2
3120.795	3526.2
3123.98	3625.2
3127.163	3706.2
3130.344	3823.2
3133.521	3878.2
3136.696	3973.2
3139.869	4059.2
3143.039	4116.2
3146.206	4189.2
3149.371	4226.2
3152.533	4245.2
3155.693	4267.2
3158.85	4334.2
3162.005	4352.2
3165.157	4339.2
3168.306	4353.2
3171.453	4400.2
3174.597	4393.2
3177.739	4415.2
3180.878	4392.2
3184.014	4381.2
3187.149	4386.2
3190.28	4433.2
3193.409	4397.2
3196.536	4403.2
3199.659	4426.2
3202.781	4432.2
3205.9	4417.2
3209.016	4401.2
3212.13	4411.2
3215.241	4368.2
3218.35	4312.2
3221.456	4263.2
3224.56	4242.2
3227.661	4209.2
3230.76	4143.2
3233.856	4092.2
3236.95	4079.2
3240.041	4031.2
3243.13	4045.2
3246.216	4003.2
3249.3	4012.2
3252.382	3971.2
3255.46	3937.2
3258.537	3923.2
3261.611	3922.2
3264.682	3927.2
3267.751	3939.2
3270.818	3909.2
3273.882	3903.2
3276.943	3864.2
3280.002	3857.2
3283.059	3850.2
3286.113	3747.2
3289.165	3718.2
3292.214	3662.2
3295.261	3615.2
3298.306	3558.2
3301.348	3462.2
3304.387	3426.2
3307.425	3378.2
3310.459	3331.2
3313.492	3301.2
3316.521	3255.2
3319.549	3211.2
3322.574	3142.2
3325.597	3164.2
3328.617	3127.2
3331.635	3092.2
3334.65	3082.2
3337.663	3076.2
3340.674	3010.2
3343.682	3052.2
3346.688	3017.2
3349.691	3016.2
3352.692	2972.2
3355.691	2978.2
3358.687	2936.2
3361.681	2914.2
3364.673	2861.2
3367.662	2833.2
3370.649	2809.2
3373.633	2753.2
3376.615	2718.2
3379.595	2686.2
3382.572	2651.2
3385.547	2622.2
3388.52	2550.2
3391.49	2544.2
3394.458	2475.2
3397.424	2441.2
3400.387	2421.2
3403.348	2389.2
3406.307	2380.2
3409.263	2356.2
3412.217	2311.2
3415.168	2288.2
3418.118	2249.2
3421.065	2225.2
3424.009	2187.2
3426.951	2183.2
3429.891	2126.2
3432.829	2068.2
3435.764	2052.2
3438.697	1993.2
3441.628	1925.2
3444.557	1881.2
3447.483	1829.2
3450.407	1765.2
3453.328	1722.2
3456.247	1656.2
3459.164	1602.2
3462.079	1524.2
3464.991	1485.2
3467.902	1430.2
3470.809	1376.2
3473.715	1324.2
3476.618	1301.2
3479.519	1238.2
3482.418	1212.2
3485.315	1161.2
3488.209	1130.2
3491.101	1095.2
3493.99	1045.2
3496.878	1019.2
3499.763	969.2
3502.646	945.2
3505.527	896.2
3508.405	854.2
3511.281	806.2
3514.155	777.2
3517.027	729.2
3519.897	670.2
3522.764	612.2
3525.629	581.2
3528.492	545.2
3531.352	501.2
3534.211	464.2
3537.067	419.2
3539.921	373.2
3542.773	333.2
3545.622	304.2
3548.469	270.2
3551.315	238.2
3554.157	221.2
3556.998	177.2
3559.837	159.2
3562.673	117.2
3565.507	93.2
3568.339	82.2
3571.169	52.2
3573.996	34.2
3576.822	19.2
3579.645	-15.8
3582.466	-37.8
3585.285	-46.8
3588.101	-68.8
3590.916	-95.8
3593.728	-127.8
3596.538	-129.8
3599.346	-161.8
3602.152	-183.8
3604.956	-190.8
3607.757	-211.8
3610.556	-224.8
3613.354	-243.8
3616.149	-247.8
3618.942	-270.8
3621.732	-279.8
3624.521	-288.8
3627.307	-302.8
3630.092	-311.8
3632.874	-337.8
3635.654	-342.8
3638.432	-351.8
3641.208	-352.8
3643.982	-371.8
3646.753	-371.8
3649.523	-387.8
3652.29	-390.8
3655.055	-408.8
3657.818	-417.8
3660.579	-435.8
3663.338	-449.8
3666.095	-452.8
3668.849	-467.8
3671.602	-466.8
3674.352	-475.8
3677.101	-486.8
3679.847	-497.8
3682.591	-498.8
3685.333	-508.8
3688.073	-510.8
3690.811	-522.8
3693.547	-527.8
3696.281	-528.8
3699.013	-531.8
3701.742	-530.8
3704.47	-547.8
3707.195	-552.8
3709.919	-550.8
3712.64	-549.8
3715.359	-563.8
3718.076	-564.8
3720.792	-564.8
3723.505	-565.8
3726.216	-582.8
3728.925	-575.8
3731.632	-579.8
3734.336	-585.8
3737.039	-592.8
3739.74	-590.8
3742.439	-595.8
3745.136	-596.8
3747.83	-601.8
3750.523	-600.8
3753.213	-597.8
3755.902	-607.8
3758.589	-607.8
3761.273	-619.8
3763.956	-616.8
3766.636	-613.8
3769.315	-619.8
3771.991	-624.8
3774.665	-620.8
3777.338	-617.8
3780.008	-623.8
3782.677	-620.8
3785.343	-615.8
3788.007	-621.8
3790.67	-627.8
3793.33	-627.8
3795.989	-629.8
3798.645	-629.8
3801.299	-630.8
3803.952	-637.8
3806.602	-641.8
3809.251	-644.8
3811.897	-639.8
3814.542	-643.8
3817.184	-637.8
3819.825	-640.8
3822.463	-637.8
3825.1	-645.8
3827.735	-635.8
3830.367	-644.8
3832.998	-648.8
3835.627	-653.8
3838.253	-647.8
3840.878	-645.8
3843.501	-647.8
3846.122	-644.8
3848.741	-646.8
3851.358	-647.8
3853.973	-645.8
3856.586	-647.8
3859.197	-657.8
3861.806	-659.8
3864.414	-653.8
3867.019	-652.8
3869.622	-650.8
3872.224	-654.8
3874.823	-636.8
3877.421	-620.8
3880.016	-601.8
3882.61	-576.8
3885.202	-572.8
3887.792	-587.8
3890.38	-625.8
3892.966	-646.8
3895.55	-656.8
3898.132	-666.8
3900.713	-670.8
3903.291	-667.8
3905.868	-659.8
3908.442	-664.8
3911.015	-665.8
3913.586	-663.8
3916.155	-655.8
3918.722	-665.8
3921.287	-662.8
3923.85	-666.8
3926.411	-668.8
3928.971	-678.8
3931.528	-669.8
3934.084	-672.8
3936.638	-667.8
3939.19	-670.8
3941.74	-672.8
3944.288	-676.8
3946.834	-666.8
3949.378	-669.8
3951.921	-671.8
3954.462	-678.8
3957	-670.8
3959.537	-671.8
3962.072	-672.8
3964.606	-670.8
3967.137	-670.8
3969.667	-675.8
3972.194	-659.8
3974.72	-669.8
3977.244	-657.8
3979.766	-654.8
3982.286	-660.8
3984.805	-657.8
3987.321	-655.8
3989.836	-654.8
3992.349	-648.8
3994.86	-649.8
3997.369	-663.8
3999.877	-650.8
4002.382	-655.8
4004.886	-653.8
4007.388	-654.8
4009.888	-651.8
4012.386	-658.8
4014.883	-653.8
4017.377	-655.8
4019.87	-657.8
4022.361	-660.8
4024.85	-654.8
4027.338	-662.8
4029.823	-660.8
4032.307	-659.8
4034.789	-656.8
4037.269	-657.8
4039.747	-659.8
4042.224	-659.8
4044.699	-656.8
4047.172	-657.8
4049.643	-655.8
4052.112	-662.8
4054.58	-662.8
4057.046	-661.8
4059.51	-661.8
4061.972	-666.8
4064.432	-662.8
4066.891	-654.8
4069.348	-656.8
4071.803	-651.8
4074.256	-662.8
4076.708	-661.8
4079.158	-667.8
4081.606	-660.8
4084.052	-662.8
4086.497	-670.8
4088.939	-654.8
4091.38	-659.8
4093.819	-653.8
4096.257	-693.8
4098.693	-692.8
4101.127	-696.8
4103.559	-693.8
4105.989	-398.8
4108.418	-368.8
4110.845	-352.8
4113.27	-318.8
4115.694	-292.8
4118.115	-243.8
4120.535	-655.8
4122.954	-652.8
4125.37	-648.8
4127.785	-655.8
4130.198	-656.8
4132.609	-663.8
4135.019	-692.8
4137.427	-695.8
4139.833	-694.8
4142.237	-693.8
