Data from 2018-2-14_conc=4_n=10_RamanShift_01.txt Node
Date: Wed Feb 14 13:59:55 IST 2018
User: aro
Spectrometer: QEPB0276
Trigger mode: 0
Integration Time (sec): 3.000000E1
Scans to average: 1
Electric dark correction enabled: true
Nonlinearity correction enabled: false
Boxcar width: 0
XAxis mode: Raman Shifts
Number of Pixels in Spectrum: 1044
>>>>>Begin Spectral Data<<<<<
160.701	-115.2
166.742	39.8
172.777	469.8
178.805	1821.8
184.826	4999.8
190.841	10410.8
196.849	16707.8
202.85	21120.8
208.845	22584.8
214.833	22379.8
220.815	21947.8
226.789	21874.8
232.758	21759.8
238.719	21598.8
244.674	21347.8
250.623	20937.8
256.565	20519.8
262.5	20108.8
268.429	19675.8
274.351	19369.8
280.267	19148.8
286.176	18954.8
292.079	18770.8
297.975	18536.8
303.865	18403.8
309.748	18317.8
315.625	18172.8
321.495	18124.8
327.359	18010.8
333.217	17975.8
339.068	17961.8
344.912	17968.8
350.751	17988.8
356.583	17944.8
362.408	17941.8
368.227	17988.8
374.04	17963.8
379.847	18017.8
385.647	18072.8
391.44	18161.8
397.228	18239.8
403.009	18304.8
408.784	18426.8
414.553	18408.8
420.315	18471.8
426.071	18516.8
431.821	18455.8
437.565	18379.8
443.302	18439.8
449.033	18419.8
454.758	18337.8
460.477	18254.8
466.189	18224.8
471.896	18197.8
477.596	18095.8
483.29	18023.8
488.978	18089.8
494.66	17974.8
500.335	17767.8
506.005	17563.8
511.668	17324.8
517.325	17033.8
522.977	16868.8
528.622	16726.8
534.261	16563.8
539.894	16500.8
545.521	16442.8
551.141	16299.8
556.756	16198.8
562.365	16167.8
567.968	16095.8
573.565	16035.8
579.155	15935.8
584.74	15855.8
590.319	15788.8
595.892	15772.8
601.459	15715.8
607.02	15662.8
612.575	15537.8
618.124	15437.8
623.667	15325.8
629.204	15255.8
634.735	15209.8
640.261	15099.8
645.781	15064.8
651.294	15000.8
656.802	14975.8
662.304	14933.8
667.8	14878.8
673.29	14855.8
678.775	14839.8
684.254	14811.8
689.726	14735.8
695.193	14679.8
700.655	14604.8
706.11	14553.8
711.56	14462.8
717.004	14427.8
722.442	14335.8
727.874	14236.8
733.301	14202.8
738.722	14193.8
744.137	14165.8
749.547	14157.8
754.951	14176.8
760.349	14174.8
765.741	14138.8
771.128	14169.8
776.509	14178.8
781.885	14189.8
787.254	14157.8
792.618	14112.8
797.977	13985.8
803.33	13932.8
808.677	13840.8
814.019	13782.8
819.355	13641.8
824.686	13612.8
830.011	13589.8
835.33	13557.8
840.644	13614.8
845.952	13594.8
851.255	13598.8
856.552	13616.8
861.844	13554.8
867.13	13493.8
872.41	13494.8
877.686	13363.8
882.955	13294.8
888.219	13105.8
893.478	13018.8
898.731	12870.8
903.979	12710.8
909.221	12615.8
914.458	12559.8
919.69	12494.8
924.916	12572.8
930.136	12637.8
935.351	12668.8
940.561	12627.8
945.766	12589.8
950.965	12554.8
956.158	12461.8
961.347	12312.8
966.529	12158.8
971.707	12028.8
976.879	11825.8
982.046	11781.8
987.208	11712.8
992.364	11706.8
997.515	11821.8
1002.66	11860.8
1007.801	12060.8
1012.936	12082.8
1018.066	12113.8
1023.19	12081.8
1028.309	12097.8
1033.423	12101.8
1038.532	12003.8
1043.636	11900.8
1048.734	11763.8
1053.827	11586.8
1058.915	11500.8
1063.998	11421.8
1069.075	11409.8
1074.147	11373.8
1079.214	11431.8
1084.276	11490.8
1089.333	11543.8
1094.385	11601.8
1099.431	11655.8
1104.472	11605.8
1109.509	11569.8
1114.54	11378.8
1119.565	11271.8
1124.586	11093.8
1129.602	11001.8
1134.613	10928.8
1139.618	10886.8
1144.619	10872.8
1149.614	10845.8
1154.604	10866.8
1159.589	10875.8
1164.57	10932.8
1169.545	10867.8
1174.515	10897.8
1179.48	10813.8
1184.44	10760.8
1189.395	10704.8
1194.345	10652.8
1199.29	10562.8
1204.23	10552.8
1209.165	10596.8
1214.095	10637.8
1219.021	10668.8
1223.941	10770.8
1228.856	10831.8
1233.766	10850.8
1238.672	10861.8
1243.572	10841.8
1248.467	10737.8
1253.358	10658.8
1258.244	10489.8
1263.124	10291.8
1268	10188.8
1272.871	10052.8
1277.737	9953.8
1282.599	9896.8
1287.455	9932.8
1292.306	9895.8
1297.153	9953.8
1301.995	10010.8
1306.832	9998.8
1311.664	10018.8
1316.491	10031.8
1321.314	9856.8
1326.132	9792.8
1330.945	9590.8
1335.753	9373.8
1340.556	9091.8
1345.354	8940.8
1350.148	8811.8
1354.937	8787.8
1359.722	8669.8
1364.501	8706.8
1369.276	8747.8
1374.046	8800.8
1378.811	8859.8
1383.572	8952.8
1388.327	8935.8
1393.079	8971.8
1397.825	8845.8
1402.567	8786.8
1407.304	8694.8
1412.036	8633.8
1416.764	8544.8
1421.487	8547.8
1426.205	8476.8
1430.919	8462.8
1435.628	8428.8
1440.333	8457.8
1445.032	8500.8
1449.727	8536.8
1454.418	8544.8
1459.104	8425.8
1463.785	8276.8
1468.462	8088.8
1473.134	7937.8
1477.802	7730.8
1482.465	7595.8
1487.123	7496.8
1491.777	7466.8
1496.426	7448.8
1501.071	7451.8
1505.711	7603.8
1510.347	7687.8
1514.978	7820.8
1519.604	7955.8
1524.226	7989.8
1528.844	7979.8
1533.457	7988.8
1538.065	7983.8
1542.669	7924.8
1547.269	7844.8
1551.864	7831.8
1556.454	7828.8
1561.041	7795.8
1565.622	7813.8
1570.199	7826.8
1574.772	7906.8
1579.34	7979.8
1583.904	7993.8
1588.464	8086.8
1593.019	8067.8
1597.569	8017.8
1602.115	7966.8
1606.657	7972.8
1611.195	7862.8
1615.728	7888.8
1620.256	7827.8
1624.78	7804.8
1629.3	7874.8
1633.816	7860.8
1638.327	7915.8
1642.834	7903.8
1647.336	7961.8
1651.834	7969.8
1656.328	7930.8
1660.817	7840.8
1665.302	7778.8
1669.783	7619.8
1674.259	7483.8
1678.732	7251.8
1683.199	6988.8
1687.663	6773.8
1692.122	6536.8
1696.577	6428.8
1701.028	6363.8
1705.474	6315.8
1709.917	6340.8
1714.355	6330.8
1718.788	6289.8
1723.218	6233.8
1727.643	6153.8
1732.064	6035.8
1736.481	5933.8
1740.893	5772.8
1745.301	5599.8
1749.705	5463.8
1754.105	5314.8
1758.501	5160.8
1762.893	4988.8
1767.28	4889.8
1771.663	4780.8
1776.042	4677.8
1780.417	4663.8
1784.787	4605.8
1789.154	4645.8
1793.516	4734.8
1797.874	4759.8
1802.228	4836.8
1806.578	4858.8
1810.924	4884.8
1815.266	4845.8
1819.603	4802.8
1823.937	4723.8
1828.266	4682.8
1832.591	4607.8
1836.913	4558.8
1841.23	4494.8
1845.543	4470.8
1849.852	4460.8
1854.156	4410.8
1858.457	4431.8
1862.754	4444.8
1867.047	4419.8
1871.335	4382.8
1875.62	4424.8
1879.9	4354.8
1884.177	4393.8
1888.449	4309.8
1892.718	4270.8
1896.982	4206.8
1901.243	4199.8
1905.499	4126.8
1909.752	4128.8
1914	4138.8
1918.245	4115.8
1922.485	4149.8
1926.722	4187.8
1930.954	4216.8
1935.183	4267.8
1939.408	4324.8
1943.628	4332.8
1947.845	4315.8
1952.058	4317.8
1956.267	4296.8
1960.472	4240.8
1964.673	4191.8
1968.87	4093.8
1973.063	4085.8
1977.252	4009.8
1981.438	3956.8
1985.619	3916.8
1989.797	3893.8
1993.971	3884.8
1998.14	3851.8
2002.306	3842.8
2006.469	3827.8
2010.627	3815.8
2014.781	3779.8
2018.932	3745.8
2023.078	3721.8
2027.221	3659.8
2031.36	3616.8
2035.495	3564.8
2039.627	3511.8
2043.754	3494.8
2047.878	3408.8
2051.998	3385.8
2056.114	3380.8
2060.226	3381.8
2064.334	3373.8
2068.439	3380.8
2072.54	3423.8
2076.637	3435.8
2080.73	3467.8
2084.82	3448.8
2088.906	3476.8
2092.988	3476.8
2097.066	3441.8
2101.14	3439.8
2105.211	3409.8
2109.278	3390.8
2113.342	3346.8
2117.401	3356.8
2121.457	3335.8
2125.509	3333.8
2129.558	3316.8
2133.602	3307.8
2137.643	3277.8
2141.681	3265.8
2145.714	3239.8
2149.744	3207.8
2153.77	3180.8
2157.793	3145.8
2161.812	3136.8
2165.827	3096.8
2169.838	3041.8
2173.846	2995.8
2177.851	2939.8
2181.851	2889.8
2185.848	2876.8
2189.841	2839.8
2193.831	2817.8
2197.817	2750.8
2201.799	2766.8
2205.778	2741.8
2209.753	2751.8
2213.725	2741.8
2217.693	2714.8
2221.657	2727.8
2225.618	2714.8
2229.575	2672.8
2233.529	2660.8
2237.479	2637.8
2241.425	2584.8
2245.368	2554.8
2249.307	2527.8
2253.243	2492.8
2257.175	2453.8
2261.104	2407.8
2265.029	2399.8
2268.95	2385.8
2272.868	2358.8
2276.783	2325.8
2280.694	2296.8
2284.601	2281.8
2288.505	2260.8
2292.405	2223.8
2296.302	2195.8
2300.195	2172.8
2304.085	2144.8
2307.971	2136.8
2311.854	2091.8
2315.734	2073.8
2319.609	2052.8
2323.482	2003.8
2327.351	1994.8
2331.216	1980.8
2335.078	1978.8
2338.937	1956.8
2342.792	1959.8
2346.643	1925.8
2350.492	1950.8
2354.336	1942.8
2358.178	1940.8
2362.015	1971.8
2365.85	1959.8
2369.681	1961.8
2373.508	1983.8
2377.333	1959.8
2381.153	1983.8
2384.971	1968.8
2388.785	1942.8
2392.595	1915.8
2396.402	1906.8
2400.206	1884.8
2404.007	1880.8
2407.804	1864.8
2411.597	1844.8
2415.388	1834.8
2419.174	1825.8
2422.958	1812.8
2426.738	1785.8
2430.515	1768.8
2434.289	1755.8
2438.059	1758.8
2441.825	1760.8
2445.589	1716.8
2449.349	1698.8
2453.106	1708.8
2456.859	1652.8
2460.61	1638.8
2464.356	1636.8
2468.1	1599.8
2471.84	1583.8
2475.577	1558.8
2479.311	1575.8
2483.041	1542.8
2486.768	1546.8
2490.492	1524.8
2494.213	1528.8
2497.93	1516.8
2501.644	1504.8
2505.355	1522.8
2509.062	1491.8
2512.766	1495.8
2516.467	1482.8
2520.165	1459.8
2523.859	1446.8
2527.551	1454.8
2531.239	1426.8
2534.923	1410.8
2538.605	1412.8
2542.283	1438.8
2545.958	1403.8
2549.63	1414.8
2553.299	1401.8
2556.964	1406.8
2560.626	1411.8
2564.285	1398.8
2567.941	1383.8
2571.594	1354.8
2575.243	1359.8
2578.89	1343.8
2582.533	1343.8
2586.173	1339.8
2589.809	1331.8
2593.443	1294.8
2597.073	1289.8
2600.701	1280.8
2604.325	1274.8
2607.946	1261.8
2611.564	1247.8
2615.178	1235.8
2618.79	1222.8
2622.398	1226.8
2626.004	1196.8
2629.606	1186.8
2633.205	1177.8
2636.801	1165.8
2640.394	1154.8
2643.983	1130.8
2647.57	1101.8
2651.153	1100.8
2654.734	1071.8
2658.311	1066.8
2661.885	1031.8
2665.456	1036.8
2669.025	1005.8
2672.589	990.8
2676.151	996.8
2679.71	966.8
2683.266	982.8
2686.819	934.8
2690.368	921.8
2693.915	908.8
2697.458	885.8
2700.999	851.8
2704.536	842.8
2708.071	819.8
2711.602	810.8
2715.13	788.8
2718.656	758.8
2722.178	743.8
2725.697	732.8
2729.214	751.8
2732.727	739.8
2736.237	727.8
2739.744	720.8
2743.249	715.8
2746.75	719.8
2750.248	716.8
2753.743	718.8
2757.236	740.8
2760.725	734.8
2764.211	749.8
2767.695	749.8
2771.175	727.8
2774.652	741.8
2778.127	755.8
2781.598	737.8
2785.067	729.8
2788.532	733.8
2791.995	728.8
2795.455	722.8
2798.911	740.8
2802.365	740.8
2805.816	741.8
2809.264	723.8
2812.709	735.8
2816.151	751.8
2819.59	743.8
2823.026	755.8
2826.46	748.8
2829.89	746.8
2833.318	758.8
2836.742	760.8
2840.164	775.8
2843.583	769.8
2846.999	763.8
2850.412	776.8
2853.822	798.8
2857.229	801.8
2860.634	827.8
2864.035	840.8
2867.434	850.8
2870.83	872.8
2874.223	875.8
2877.613	903.8
2881	913.8
2884.385	927.8
2887.766	912.8
2891.145	917.8
2894.521	905.8
2897.894	917.8
2901.264	915.8
2904.631	922.8
2907.996	922.8
2911.358	928.8
2914.717	946.8
2918.073	937.8
2921.426	956.8
2924.777	956.8
2928.124	972.8
2931.469	1002.8
2934.811	1019.8
2938.15	1051.8
2941.487	1040.8
2944.821	1045.8
2948.152	1039.8
2951.48	1059.8
2954.805	1019.8
2958.128	1028.8
2961.447	1019.8
2964.765	1017.8
2968.079	1014.8
2971.39	1032.8
2974.699	1039.8
2978.005	1048.8
2981.308	1071.8
2984.609	1094.8
2987.907	1100.8
2991.202	1124.8
2994.494	1171.8
2997.784	1180.8
3001.07	1188.8
3004.355	1210.8
3007.636	1237.8
3010.915	1241.8
3014.191	1247.8
3017.464	1262.8
3020.734	1288.8
3024.002	1276.8
3027.267	1320.8
3030.53	1291.8
3033.789	1321.8
3037.046	1355.8
3040.301	1362.8
3043.552	1399.8
3046.801	1431.8
3050.048	1465.8
3053.291	1495.8
3056.532	1556.8
3059.771	1589.8
3063.006	1659.8
3066.239	1697.8
3069.469	1743.8
3072.697	1780.8
3075.922	1848.8
3079.144	1896.8
3082.364	1924.8
3085.581	1982.8
3088.795	2014.8
3092.007	2067.8
3095.216	2099.8
3098.423	2139.8
3101.627	2199.8
3104.828	2256.8
3108.026	2289.8
3111.222	2351.8
3114.416	2400.8
3117.607	2450.8
3120.795	2528.8
3123.98	2572.8
3127.163	2620.8
3130.344	2708.8
3133.521	2775.8
3136.696	2828.8
3139.869	2883.8
3143.039	2935.8
3146.206	2967.8
3149.371	3003.8
3152.533	3037.8
3155.693	3054.8
3158.85	3084.8
3162.005	3097.8
3165.157	3101.8
3168.306	3116.8
3171.453	3140.8
3174.597	3130.8
3177.739	3128.8
3180.878	3145.8
3184.014	3174.8
3187.149	3147.8
3190.28	3146.8
3193.409	3158.8
3196.536	3178.8
3199.659	3163.8
3202.781	3159.8
3205.9	3196.8
3209.016	3170.8
3212.13	3146.8
3215.241	3112.8
3218.35	3094.8
3221.456	3062.8
3224.56	3036.8
3227.661	2981.8
3230.76	2951.8
3233.856	2942.8
3236.95	2896.8
3240.041	2882.8
3243.13	2858.8
3246.216	2839.8
3249.3	2831.8
3252.382	2810.8
3255.46	2813.8
3258.537	2782.8
3261.611	2790.8
3264.682	2783.8
3267.751	2793.8
3270.818	2785.8
3273.882	2754.8
3276.943	2755.8
3280.002	2728.8
3283.059	2698.8
3286.113	2658.8
3289.165	2643.8
3292.214	2609.8
3295.261	2571.8
3298.306	2507.8
3301.348	2482.8
3304.387	2446.8
3307.425	2429.8
3310.459	2371.8
3313.492	2361.8
3316.521	2325.8
3319.549	2287.8
3322.574	2271.8
3325.597	2240.8
3328.617	2230.8
3331.635	2222.8
3334.65	2221.8
3337.663	2197.8
3340.674	2193.8
3343.682	2194.8
3346.688	2189.8
3349.691	2165.8
3352.692	2139.8
3355.691	2141.8
3358.687	2129.8
3361.681	2133.8
3364.673	2086.8
3367.662	2023.8
3370.649	2016.8
3373.633	2000.8
3376.615	1956.8
3379.595	1922.8
3382.572	1896.8
3385.547	1862.8
3388.52	1848.8
3391.49	1806.8
3394.458	1792.8
3397.424	1759.8
3400.387	1749.8
3403.348	1718.8
3406.307	1687.8
3409.263	1681.8
3412.217	1641.8
3415.168	1628.8
3418.118	1608.8
3421.065	1575.8
3424.009	1578.8
3426.951	1541.8
3429.891	1508.8
3432.829	1485.8
3435.764	1444.8
3438.697	1398.8
3441.628	1364.8
3444.557	1325.8
3447.483	1284.8
3450.407	1242.8
3453.328	1206.8
3456.247	1160.8
3459.164	1114.8
3462.079	1076.8
3464.991	1035.8
3467.902	1000.8
3470.809	965.8
3473.715	912.8
3476.618	894.8
3479.519	863.8
3482.418	838.8
3485.315	806.8
3488.209	766.8
3491.101	749.8
3493.99	726.8
3496.878	672.8
3499.763	649.8
3502.646	628.8
3505.527	591.8
3508.405	570.8
3511.281	538.8
3514.155	498.8
3517.027	486.8
3519.897	448.8
3522.764	403.8
3525.629	388.8
3528.492	353.8
3531.352	308.8
3534.211	286.8
3537.067	248.8
3539.921	232.8
3542.773	193.8
3545.622	158.8
3548.469	148.8
3551.315	124.8
3554.157	107.8
3556.998	75.8
3559.837	58.8
3562.673	42.8
3565.507	22.8
3568.339	10.8
3571.169	-10.2
3573.996	-18.2
3576.822	-23.2
3579.645	-55.2
3582.466	-65.2
3585.285	-90.2
3588.101	-97.2
3590.916	-123.2
3593.728	-139.2
3596.538	-145.2
3599.346	-166.2
3602.152	-166.2
3604.956	-182.2
3607.757	-208.2
3610.556	-220.2
3613.354	-222.2
3616.149	-232.2
3618.942	-242.2
3621.732	-253.2
3624.521	-271.2
3627.307	-279.2
3630.092	-282.2
3632.874	-284.2
3635.654	-300.2
3638.432	-292.2
3641.208	-300.2
3643.982	-317.2
3646.753	-326.2
3649.523	-330.2
3652.29	-332.2
3655.055	-341.2
3657.818	-350.2
3660.579	-356.2
3663.338	-369.2
3666.095	-374.2
3668.849	-388.2
3671.602	-390.2
3674.352	-393.2
3677.101	-398.2
3679.847	-412.2
3682.591	-415.2
3685.333	-418.2
3688.073	-420.2
3690.811	-422.2
3693.547	-429.2
3696.281	-433.2
3699.013	-435.2
3701.742	-437.2
3704.47	-446.2
3707.195	-451.2
3709.919	-448.2
3712.64	-457.2
3715.359	-456.2
3718.076	-463.2
3720.792	-460.2
3723.505	-462.2
3726.216	-468.2
3728.925	-466.2
3731.632	-479.2
3734.336	-473.2
3737.039	-478.2
3739.74	-471.2
3742.439	-477.2
3745.136	-485.2
3747.83	-482.2
3750.523	-491.2
3753.213	-493.2
3755.902	-492.2
3758.589	-489.2
3761.273	-497.2
3763.956	-493.2
3766.636	-500.2
3769.315	-496.2
3771.991	-497.2
3774.665	-506.2
3777.338	-497.2
3780.008	-503.2
3782.677	-504.2
3785.343	-494.2
3788.007	-501.2
3790.67	-504.2
3793.33	-504.2
3795.989	-503.2
3798.645	-503.2
3801.299	-505.2
3803.952	-514.2
3806.602	-514.2
3809.251	-516.2
3811.897	-509.2
3814.542	-512.2
3817.184	-513.2
3819.825	-519.2
3822.463	-511.2
3825.1	-521.2
3827.735	-510.2
3830.367	-513.2
3832.998	-525.2
3835.627	-526.2
3838.253	-524.2
3840.878	-522.2
3843.501	-521.2
3846.122	-515.2
3848.741	-519.2
3851.358	-516.2
3853.973	-517.2
3856.586	-524.2
3859.197	-521.2
3861.806	-520.2
3864.414	-518.2
3867.019	-516.2
3869.622	-519.2
3872.224	-514.2
3874.823	-504.2
3877.421	-494.2
3880.016	-475.2
3882.61	-463.2
3885.202	-457.2
3887.792	-469.2
3890.38	-496.2
3892.966	-512.2
3895.55	-523.2
3898.132	-533.2
3900.713	-536.2
3903.291	-529.2
3905.868	-536.2
3908.442	-538.2
3911.015	-534.2
3913.586	-527.2
3916.155	-528.2
3918.722	-534.2
3921.287	-532.2
3923.85	-537.2
3926.411	-531.2
3928.971	-543.2
3931.528	-535.2
3934.084	-536.2
3936.638	-539.2
3939.19	-537.2
3941.74	-541.2
3944.288	-543.2
3946.834	-537.2
3949.378	-539.2
3951.921	-537.2
3954.462	-548.2
3957	-534.2
3959.537	-535.2
3962.072	-533.2
3964.606	-535.2
3967.137	-536.2
3969.667	-536.2
3972.194	-526.2
3974.72	-533.2
3977.244	-525.2
3979.766	-523.2
3982.286	-524.2
3984.805	-528.2
3987.321	-519.2
3989.836	-527.2
3992.349	-523.2
3994.86	-529.2
3997.369	-532.2
3999.877	-524.2
4002.382	-523.2
4004.886	-523.2
4007.388	-520.2
4009.888	-524.2
4012.386	-525.2
4014.883	-526.2
4017.377	-526.2
4019.87	-525.2
4022.361	-523.2
4024.85	-526.2
4027.338	-524.2
4029.823	-526.2
4032.307	-529.2
4034.789	-521.2
4037.269	-523.2
4039.747	-522.2
4042.224	-527.2
4044.699	-528.2
4047.172	-521.2
4049.643	-525.2
4052.112	-529.2
4054.58	-529.2
4057.046	-536.2
4059.51	-532.2
4061.972	-530.2
4064.432	-529.2
4066.891	-530.2
4069.348	-531.2
4071.803	-526.2
4074.256	-526.2
4076.708	-524.2
4079.158	-530.2
4081.606	-528.2
4084.052	-533.2
4086.497	-526.2
4088.939	-520.2
4091.38	-522.2
4093.819	-520.2
4096.257	-554.2
4098.693	-552.2
4101.127	-555.2
4103.559	-553.2
4105.989	-316.2
4108.418	-295.2
4110.845	-278.2
4113.27	-258.2
4115.694	-216.2
4118.115	-190.2
4120.535	-523.2
4122.954	-526.2
4125.37	-515.2
4127.785	-526.2
4130.198	-527.2
4132.609	-527.2
4135.019	-555.2
4137.427	-555.2
4139.833	-554.2
4142.237	-551.2
