Data from 2018-2-14_conc=3_n=3_RamanShift_03.txt Node
Date: Wed Feb 14 11:49:26 IST 2018
User: aro
Spectrometer: QEPB0276
Trigger mode: 0
Integration Time (sec): 3.000000E1
Scans to average: 1
Electric dark correction enabled: true
Nonlinearity correction enabled: false
Boxcar width: 0
XAxis mode: Raman Shifts
Number of Pixels in Spectrum: 1044
>>>>>Begin Spectral Data<<<<<
160.701	-142.8
166.742	64.2
172.777	586.2
178.805	2263.2
184.826	6276.2
190.841	13189.2
196.849	21188.2
202.85	26971.2
208.845	28749.2
214.833	28523.2
220.815	27957.2
226.789	27725.2
232.758	27677.2
238.719	27512.2
244.674	27116.2
250.623	26686.2
256.565	26107.2
262.5	25558.2
268.429	25060.2
274.351	24728.2
280.267	24353.2
286.176	24130.2
292.079	23944.2
297.975	23656.2
303.865	23493.2
309.748	23272.2
315.625	23168.2
321.495	23106.2
327.359	22948.2
333.217	22863.2
339.068	22940.2
344.912	22821.2
350.751	22796.2
356.583	22776.2
362.408	22734.2
368.227	22759.2
374.04	22780.2
379.847	22807.2
385.647	22967.2
391.44	23028.2
397.228	23147.2
403.009	23250.2
408.784	23246.2
414.553	23271.2
420.315	23340.2
426.071	23444.2
431.821	23426.2
437.565	23418.2
443.302	23303.2
449.033	23288.2
454.758	23207.2
460.477	23175.2
466.189	23112.2
471.896	23099.2
477.596	23007.2
483.29	22984.2
488.978	22962.2
494.66	22867.2
500.335	22739.2
506.005	22514.2
511.668	22308.2
517.325	22064.2
522.977	21763.2
528.622	21677.2
534.261	21538.2
539.894	21408.2
545.521	21327.2
551.141	21278.2
556.756	21287.2
562.365	21130.2
567.968	21062.2
573.565	20973.2
579.155	20914.2
584.74	20821.2
590.319	20689.2
595.892	20655.2
601.459	20572.2
607.02	20513.2
612.575	20376.2
618.124	20246.2
623.667	20122.2
629.204	20060.2
634.735	19955.2
640.261	19889.2
645.781	19797.2
651.294	19818.2
656.802	19761.2
662.304	19711.2
667.8	19681.2
673.29	19615.2
678.775	19585.2
684.254	19527.2
689.726	19506.2
695.193	19417.2
700.655	19362.2
706.11	19238.2
711.56	19175.2
717.004	18996.2
722.442	18990.2
727.874	18907.2
733.301	18822.2
738.722	18756.2
744.137	18697.2
749.547	18693.2
754.951	18714.2
760.349	18736.2
765.741	18747.2
771.128	18775.2
776.509	18733.2
781.885	18781.2
787.254	18671.2
792.618	18681.2
797.977	18496.2
803.33	18411.2
808.677	18217.2
814.019	18140.2
819.355	18087.2
824.686	18018.2
830.011	18005.2
835.33	17990.2
840.644	17992.2
845.952	18033.2
851.255	18025.2
856.552	18096.2
861.844	18101.2
867.13	17993.2
872.41	17888.2
877.686	17823.2
882.955	17738.2
888.219	17503.2
893.478	17356.2
898.731	17168.2
903.979	16954.2
909.221	16865.2
914.458	16822.2
919.69	16784.2
924.916	16898.2
930.136	16843.2
935.351	16935.2
940.561	16878.2
945.766	16851.2
950.965	16736.2
956.158	16675.2
961.347	16458.2
966.529	16234.2
971.707	16063.2
976.879	15930.2
982.046	15717.2
987.208	15736.2
992.364	15680.2
997.515	15815.2
1002.66	15973.2
1007.801	16179.2
1012.936	16261.2
1018.066	16263.2
1023.19	16256.2
1028.309	16258.2
1033.423	16209.2
1038.532	16119.2
1043.636	15967.2
1048.734	15796.2
1053.827	15576.2
1058.915	15415.2
1063.998	15335.2
1069.075	15264.2
1074.147	15270.2
1079.214	15326.2
1084.276	15413.2
1089.333	15539.2
1094.385	15565.2
1099.431	15598.2
1104.472	15671.2
1109.509	15554.2
1114.54	15377.2
1119.565	15233.2
1124.586	14972.2
1129.602	14894.2
1134.613	14757.2
1139.618	14677.2
1144.619	14663.2
1149.614	14618.2
1154.604	14687.2
1159.589	14735.2
1164.57	14754.2
1169.545	14747.2
1174.515	14780.2
1179.48	14665.2
1184.44	14574.2
1189.395	14457.2
1194.345	14339.2
1199.29	14282.2
1204.23	14260.2
1209.165	14378.2
1214.095	14411.2
1219.021	14516.2
1223.941	14547.2
1228.856	14618.2
1233.766	14701.2
1238.672	14713.2
1243.572	14700.2
1248.467	14568.2
1253.358	14435.2
1258.244	14212.2
1263.124	13992.2
1268	13744.2
1272.871	13634.2
1277.737	13526.2
1282.599	13455.2
1287.455	13466.2
1292.306	13462.2
1297.153	13580.2
1301.995	13649.2
1306.832	13667.2
1311.664	13669.2
1316.491	13590.2
1321.314	13490.2
1326.132	13276.2
1330.945	13012.2
1335.753	12690.2
1340.556	12355.2
1345.354	12143.2
1350.148	11894.2
1354.937	11806.2
1359.722	11817.2
1364.501	11891.2
1369.276	12106.2
1374.046	12198.2
1378.811	12416.2
1383.572	12597.2
1388.327	12618.2
1393.079	12561.2
1397.825	12409.2
1402.567	12255.2
1407.304	11994.2
1412.036	11900.2
1416.764	11785.2
1421.487	11752.2
1426.205	11685.2
1430.919	11596.2
1435.628	11676.2
1440.333	11636.2
1445.032	11671.2
1449.727	11677.2
1454.418	11674.2
1459.104	11535.2
1463.785	11331.2
1468.462	11101.2
1473.134	10894.2
1477.802	10673.2
1482.465	10502.2
1487.123	10387.2
1491.777	10383.2
1496.426	10433.2
1501.071	10599.2
1505.711	10708.2
1510.347	10940.2
1514.978	11159.2
1519.604	11307.2
1524.226	11383.2
1528.844	11426.2
1533.457	11360.2
1538.065	11335.2
1542.669	11239.2
1547.269	11133.2
1551.864	11095.2
1556.454	11020.2
1561.041	10990.2
1565.622	11001.2
1570.199	10982.2
1574.772	11060.2
1579.34	11136.2
1583.904	11190.2
1588.464	11211.2
1593.019	11190.2
1597.569	11195.2
1602.115	11090.2
1606.657	11006.2
1611.195	10957.2
1615.728	10806.2
1620.256	10885.2
1624.78	10822.2
1629.3	10823.2
1633.816	10876.2
1638.327	10907.2
1642.834	10963.2
1647.336	11012.2
1651.834	11050.2
1656.328	11026.2
1660.817	10996.2
1665.302	10882.2
1669.783	10720.2
1674.259	10500.2
1678.732	10232.2
1683.199	9878.2
1687.663	9513.2
1692.122	9282.2
1696.577	9097.2
1701.028	9116.2
1705.474	9145.2
1709.917	9268.2
1714.355	9364.2
1718.788	9302.2
1723.218	9181.2
1727.643	8984.2
1732.064	8769.2
1736.481	8609.2
1740.893	8422.2
1745.301	8182.2
1749.705	7957.2
1754.105	7769.2
1758.501	7533.2
1762.893	7308.2
1767.28	7136.2
1771.663	6963.2
1776.042	6879.2
1780.417	6771.2
1784.787	6763.2
1789.154	6853.2
1793.516	7024.2
1797.874	7111.2
1802.228	7297.2
1806.578	7345.2
1810.924	7335.2
1815.266	7290.2
1819.603	7190.2
1823.937	7042.2
1828.266	6941.2
1832.591	6832.2
1836.913	6737.2
1841.23	6659.2
1845.543	6595.2
1849.852	6593.2
1854.156	6522.2
1858.457	6527.2
1862.754	6524.2
1867.047	6523.2
1871.335	6518.2
1875.62	6529.2
1879.9	6459.2
1884.177	6465.2
1888.449	6365.2
1892.718	6315.2
1896.982	6248.2
1901.243	6209.2
1905.499	6150.2
1909.752	6141.2
1914	6122.2
1918.245	6170.2
1922.485	6212.2
1926.722	6294.2
1930.954	6359.2
1935.183	6481.2
1939.408	6494.2
1943.628	6571.2
1947.845	6551.2
1952.058	6554.2
1956.267	6479.2
1960.472	6430.2
1964.673	6330.2
1968.87	6194.2
1973.063	6086.2
1977.252	6045.2
1981.438	5988.2
1985.619	5914.2
1989.797	5834.2
1993.971	5794.2
1998.14	5780.2
2002.306	5748.2
2006.469	5689.2
2010.627	5741.2
2014.781	5690.2
2018.932	5626.2
2023.078	5570.2
2027.221	5474.2
2031.36	5404.2
2035.495	5317.2
2039.627	5245.2
2043.754	5193.2
2047.878	5155.2
2051.998	5114.2
2056.114	5111.2
2060.226	5100.2
2064.334	5081.2
2068.439	5096.2
2072.54	5125.2
2076.637	5176.2
2080.73	5202.2
2084.82	5248.2
2088.906	5252.2
2092.988	5236.2
2097.066	5247.2
2101.14	5212.2
2105.211	5167.2
2109.278	5121.2
2113.342	5139.2
2117.401	5088.2
2121.457	5096.2
2125.509	5055.2
2129.558	4967.2
2133.602	4949.2
2137.643	4959.2
2141.681	4939.2
2145.714	4917.2
2149.744	4859.2
2153.77	4782.2
2157.793	4763.2
2161.812	4706.2
2165.827	4648.2
2169.838	4573.2
2173.846	4491.2
2177.851	4445.2
2181.851	4347.2
2185.848	4314.2
2189.841	4269.2
2193.831	4246.2
2197.817	4185.2
2201.799	4178.2
2205.778	4155.2
2209.753	4112.2
2213.725	4086.2
2217.693	4107.2
2221.657	4090.2
2225.618	4089.2
2229.575	4038.2
2233.529	4027.2
2237.479	3989.2
2241.425	3923.2
2245.368	3861.2
2249.307	3809.2
2253.243	3763.2
2257.175	3731.2
2261.104	3666.2
2265.029	3660.2
2268.95	3608.2
2272.868	3562.2
2276.783	3534.2
2280.694	3489.2
2284.601	3447.2
2288.505	3438.2
2292.405	3389.2
2296.302	3348.2
2300.195	3324.2
2304.085	3271.2
2307.971	3212.2
2311.854	3197.2
2315.734	3128.2
2319.609	3068.2
2323.482	3047.2
2327.351	2996.2
2331.216	3002.2
2335.078	2962.2
2338.937	2967.2
2342.792	2957.2
2346.643	2925.2
2350.492	2927.2
2354.336	2929.2
2358.178	2968.2
2362.015	2941.2
2365.85	2944.2
2369.681	2970.2
2373.508	2974.2
2377.333	2925.2
2381.153	2926.2
2384.971	2910.2
2388.785	2909.2
2392.595	2869.2
2396.402	2849.2
2400.206	2806.2
2404.007	2792.2
2407.804	2771.2
2411.597	2781.2
2415.388	2742.2
2419.174	2734.2
2422.958	2697.2
2426.738	2672.2
2430.515	2694.2
2434.289	2659.2
2438.059	2634.2
2441.825	2611.2
2445.589	2580.2
2449.349	2552.2
2453.106	2494.2
2456.859	2505.2
2460.61	2470.2
2464.356	2450.2
2468.1	2436.2
2471.84	2384.2
2475.577	2367.2
2479.311	2368.2
2483.041	2357.2
2486.768	2317.2
2490.492	2327.2
2494.213	2283.2
2497.93	2302.2
2501.644	2300.2
2505.355	2283.2
2509.062	2278.2
2512.766	2275.2
2516.467	2259.2
2520.165	2233.2
2523.859	2199.2
2527.551	2208.2
2531.239	2186.2
2534.923	2183.2
2538.605	2168.2
2542.283	2168.2
2545.958	2149.2
2549.63	2197.2
2553.299	2165.2
2556.964	2148.2
2560.626	2146.2
2564.285	2149.2
2567.941	2142.2
2571.594	2120.2
2575.243	2084.2
2578.89	2085.2
2582.533	2065.2
2586.173	2050.2
2589.809	2043.2
2593.443	2022.2
2597.073	2010.2
2600.701	1996.2
2604.325	1989.2
2607.946	1988.2
2611.564	1939.2
2615.178	1945.2
2618.79	1942.2
2622.398	1899.2
2626.004	1902.2
2629.606	1851.2
2633.205	1851.2
2636.801	1812.2
2640.394	1810.2
2643.983	1751.2
2647.57	1747.2
2651.153	1718.2
2654.734	1696.2
2658.311	1638.2
2661.885	1633.2
2665.456	1604.2
2669.025	1592.2
2672.589	1552.2
2676.151	1549.2
2679.71	1535.2
2683.266	1508.2
2686.819	1474.2
2690.368	1452.2
2693.915	1422.2
2697.458	1397.2
2700.999	1368.2
2704.536	1329.2
2708.071	1301.2
2711.602	1270.2
2715.13	1252.2
2718.656	1222.2
2722.178	1215.2
2725.697	1180.2
2729.214	1190.2
2732.727	1142.2
2736.237	1152.2
2739.744	1153.2
2743.249	1173.2
2746.75	1176.2
2750.248	1183.2
2753.743	1209.2
2757.236	1218.2
2760.725	1225.2
2764.211	1243.2
2767.695	1241.2
2771.175	1212.2
2774.652	1218.2
2778.127	1208.2
2781.598	1225.2
2785.067	1211.2
2788.532	1200.2
2791.995	1177.2
2795.455	1192.2
2798.911	1195.2
2802.365	1189.2
2805.816	1188.2
2809.264	1189.2
2812.709	1196.2
2816.151	1197.2
2819.59	1194.2
2823.026	1189.2
2826.46	1192.2
2829.89	1204.2
2833.318	1207.2
2836.742	1215.2
2840.164	1226.2
2843.583	1229.2
2846.999	1217.2
2850.412	1233.2
2853.822	1245.2
2857.229	1246.2
2860.634	1304.2
2864.035	1307.2
2867.434	1334.2
2870.83	1355.2
2874.223	1355.2
2877.613	1383.2
2881	1428.2
2884.385	1403.2
2887.766	1397.2
2891.145	1413.2
2894.521	1402.2
2897.894	1387.2
2901.264	1393.2
2904.631	1399.2
2907.996	1384.2
2911.358	1402.2
2914.717	1420.2
2918.073	1445.2
2921.426	1426.2
2924.777	1440.2
2928.124	1459.2
2931.469	1477.2
2934.811	1502.2
2938.15	1519.2
2941.487	1546.2
2944.821	1546.2
2948.152	1536.2
2951.48	1520.2
2954.805	1513.2
2958.128	1497.2
2961.447	1471.2
2964.765	1481.2
2968.079	1490.2
2971.39	1507.2
2974.699	1532.2
2978.005	1542.2
2981.308	1564.2
2984.609	1600.2
2987.907	1611.2
2991.202	1669.2
2994.494	1686.2
2997.784	1720.2
3001.07	1745.2
3004.355	1760.2
3007.636	1819.2
3010.915	1823.2
3014.191	1826.2
3017.464	1835.2
3020.734	1858.2
3024.002	1872.2
3027.267	1865.2
3030.53	1895.2
3033.789	1909.2
3037.046	1925.2
3040.301	1961.2
3043.552	1994.2
3046.801	2035.2
3050.048	2071.2
3053.291	2137.2
3056.532	2160.2
3059.771	2221.2
3063.006	2295.2
3066.239	2380.2
3069.469	2427.2
3072.697	2499.2
3075.922	2569.2
3079.144	2627.2
3082.364	2705.2
3085.581	2764.2
3088.795	2808.2
3092.007	2858.2
3095.216	2915.2
3098.423	2975.2
3101.627	3050.2
3104.828	3096.2
3108.026	3173.2
3111.222	3233.2
3114.416	3321.2
3117.607	3382.2
3120.795	3465.2
3123.98	3550.2
3127.163	3619.2
3130.344	3721.2
3133.521	3807.2
3136.696	3901.2
3139.869	3966.2
3143.039	4032.2
3146.206	4100.2
3149.371	4144.2
3152.533	4161.2
3155.693	4198.2
3158.85	4234.2
3162.005	4251.2
3165.157	4264.2
3168.306	4231.2
3171.453	4270.2
3174.597	4224.2
3177.739	4321.2
3180.878	4287.2
3184.014	4305.2
3187.149	4304.2
3190.28	4343.2
3193.409	4291.2
3196.536	4282.2
3199.659	4306.2
3202.781	4327.2
3205.9	4289.2
3209.016	4292.2
3212.13	4255.2
3215.241	4259.2
3218.35	4241.2
3221.456	4185.2
3224.56	4146.2
3227.661	4077.2
3230.76	4066.2
3233.856	4012.2
3236.95	3972.2
3240.041	3948.2
3243.13	3910.2
3246.216	3865.2
3249.3	3869.2
3252.382	3843.2
3255.46	3828.2
3258.537	3825.2
3261.611	3819.2
3264.682	3818.2
3267.751	3831.2
3270.818	3818.2
3273.882	3765.2
3276.943	3777.2
3280.002	3752.2
3283.059	3716.2
3286.113	3650.2
3289.165	3616.2
3292.214	3523.2
3295.261	3505.2
3298.306	3444.2
3301.348	3399.2
3304.387	3330.2
3307.425	3270.2
3310.459	3230.2
3313.492	3154.2
3316.521	3139.2
3319.549	3143.2
3322.574	3084.2
3325.597	3044.2
3328.617	3033.2
3331.635	3002.2
3334.65	2971.2
3337.663	2968.2
3340.674	2951.2
3343.682	2931.2
3346.688	2927.2
3349.691	2925.2
3352.692	2867.2
3355.691	2861.2
3358.687	2852.2
3361.681	2828.2
3364.673	2781.2
3367.662	2737.2
3370.649	2705.2
3373.633	2672.2
3376.615	2643.2
3379.595	2577.2
3382.572	2552.2
3385.547	2521.2
3388.52	2454.2
3391.49	2442.2
3394.458	2410.2
3397.424	2368.2
3400.387	2323.2
3403.348	2309.2
3406.307	2299.2
3409.263	2250.2
3412.217	2233.2
3415.168	2200.2
3418.118	2181.2
3421.065	2143.2
3424.009	2124.2
3426.951	2091.2
3429.891	2055.2
3432.829	1991.2
3435.764	1954.2
3438.697	1915.2
3441.628	1855.2
3444.557	1814.2
3447.483	1744.2
3450.407	1703.2
3453.328	1637.2
3456.247	1576.2
3459.164	1551.2
3462.079	1464.2
3464.991	1420.2
3467.902	1371.2
3470.809	1325.2
3473.715	1271.2
3476.618	1230.2
3479.519	1182.2
3482.418	1148.2
3485.315	1094.2
3488.209	1079.2
3491.101	1029.2
3493.99	1004.2
3496.878	947.2
3499.763	910.2
3502.646	889.2
3505.527	848.2
3508.405	805.2
3511.281	755.2
3514.155	718.2
3517.027	680.2
3519.897	637.2
3522.764	583.2
3525.629	537.2
3528.492	506.2
3531.352	457.2
3534.211	421.2
3537.067	373.2
3539.921	342.2
3542.773	312.2
3545.622	269.2
3548.469	246.2
3551.315	215.2
3554.157	195.2
3556.998	151.2
3559.837	129.2
3562.673	101.2
3565.507	78.2
3568.339	53.2
3571.169	24.2
3573.996	10.2
3576.822	-5.8
3579.645	-28.8
3582.466	-49.8
3585.285	-64.8
3588.101	-96.8
3590.916	-122.8
3593.728	-134.8
3596.538	-144.8
3599.346	-175.8
3602.152	-189.8
3604.956	-202.8
3607.757	-215.8
3610.556	-243.8
3613.354	-239.8
3616.149	-281.8
3618.942	-283.8
3621.732	-286.8
3624.521	-310.8
3627.307	-318.8
3630.092	-324.8
3632.874	-338.8
3635.654	-351.8
3638.432	-358.8
3641.208	-366.8
3643.982	-387.8
3646.753	-381.8
3649.523	-394.8
3652.29	-398.8
3655.055	-400.8
3657.818	-426.8
3660.579	-423.8
3663.338	-449.8
3666.095	-456.8
3668.849	-462.8
3671.602	-468.8
3674.352	-484.8
3677.101	-491.8
3679.847	-503.8
3682.591	-503.8
3685.333	-507.8
3688.073	-514.8
3690.811	-522.8
3693.547	-528.8
3696.281	-535.8
3699.013	-534.8
3701.742	-540.8
3704.47	-543.8
3707.195	-548.8
3709.919	-555.8
3712.64	-555.8
3715.359	-561.8
3718.076	-565.8
3720.792	-571.8
3723.505	-571.8
3726.216	-583.8
3728.925	-569.8
3731.632	-584.8
3734.336	-585.8
3737.039	-588.8
3739.74	-590.8
3742.439	-595.8
3745.136	-593.8
3747.83	-600.8
3750.523	-600.8
3753.213	-592.8
3755.902	-602.8
3758.589	-606.8
3761.273	-606.8
3763.956	-612.8
3766.636	-616.8
3769.315	-615.8
3771.991	-614.8
3774.665	-618.8
3777.338	-622.8
3780.008	-620.8
3782.677	-624.8
3785.343	-624.8
3788.007	-625.8
3790.67	-625.8
3793.33	-630.8
3795.989	-627.8
3798.645	-626.8
3801.299	-627.8
3803.952	-635.8
3806.602	-641.8
3809.251	-639.8
3811.897	-631.8
3814.542	-637.8
3817.184	-633.8
3819.825	-632.8
3822.463	-633.8
3825.1	-640.8
3827.735	-638.8
3830.367	-637.8
3832.998	-649.8
3835.627	-651.8
3838.253	-644.8
3840.878	-648.8
3843.501	-650.8
3846.122	-645.8
3848.741	-647.8
3851.358	-646.8
3853.973	-645.8
3856.586	-651.8
3859.197	-649.8
3861.806	-655.8
3864.414	-649.8
3867.019	-643.8
3869.622	-651.8
3872.224	-648.8
3874.823	-638.8
3877.421	-621.8
3880.016	-611.8
3882.61	-594.8
3885.202	-590.8
3887.792	-600.8
3890.38	-628.8
3892.966	-643.8
3895.55	-658.8
3898.132	-663.8
3900.713	-666.8
3903.291	-660.8
3905.868	-667.8
3908.442	-665.8
3911.015	-668.8
3913.586	-659.8
3916.155	-661.8
3918.722	-666.8
3921.287	-664.8
3923.85	-666.8
3926.411	-663.8
3928.971	-674.8
3931.528	-669.8
3934.084	-670.8
3936.638	-662.8
3939.19	-668.8
3941.74	-669.8
3944.288	-665.8
3946.834	-664.8
3949.378	-671.8
3951.921	-665.8
3954.462	-679.8
3957	-668.8
3959.537	-670.8
3962.072	-664.8
3964.606	-669.8
3967.137	-669.8
3969.667	-669.8
3972.194	-657.8
3974.72	-663.8
3977.244	-657.8
3979.766	-660.8
3982.286	-658.8
3984.805	-654.8
3987.321	-656.8
3989.836	-659.8
3992.349	-649.8
3994.86	-651.8
3997.369	-658.8
3999.877	-653.8
4002.382	-649.8
4004.886	-649.8
4007.388	-649.8
4009.888	-652.8
4012.386	-651.8
4014.883	-650.8
4017.377	-648.8
4019.87	-646.8
4022.361	-649.8
4024.85	-650.8
4027.338	-653.8
4029.823	-658.8
4032.307	-659.8
4034.789	-653.8
4037.269	-656.8
4039.747	-653.8
4042.224	-659.8
4044.699	-656.8
4047.172	-659.8
4049.643	-651.8
4052.112	-661.8
4054.58	-658.8
4057.046	-657.8
4059.51	-661.8
4061.972	-657.8
4064.432	-655.8
4066.891	-654.8
4069.348	-653.8
4071.803	-649.8
4074.256	-655.8
4076.708	-653.8
4079.158	-652.8
4081.606	-657.8
4084.052	-662.8
4086.497	-656.8
4088.939	-649.8
4091.38	-652.8
4093.819	-656.8
4096.257	-693.8
4098.693	-692.8
4101.127	-694.8
4103.559	-690.8
4105.989	-396.8
4108.418	-371.8
4110.845	-349.8
4113.27	-326.8
4115.694	-284.8
4118.115	-234.8
4120.535	-656.8
4122.954	-653.8
4125.37	-646.8
4127.785	-656.8
4130.198	-657.8
4132.609	-660.8
4135.019	-692.8
4137.427	-694.8
4139.833	-693.8
4142.237	-689.8
