Data from 2018-2-14_conc=4_n=3_RamanShift_02.txt Node
Date: Wed Feb 14 13:32:25 IST 2018
User: aro
Spectrometer: QEPB0276
Trigger mode: 0
Integration Time (sec): 3.000000E1
Scans to average: 1
Electric dark correction enabled: true
Nonlinearity correction enabled: false
Boxcar width: 0
XAxis mode: Raman Shifts
Number of Pixels in Spectrum: 1044
>>>>>Begin Spectral Data<<<<<
160.701	-164.8
166.742	49.2
172.777	624.2
178.805	2417.2
184.826	6669.2
190.841	13979.2
196.849	22379.2
202.85	28257.2
208.845	30130.2
214.833	29857.2
220.815	29306.2
226.789	29206.2
232.758	29070.2
238.719	28805.2
244.674	28496.2
250.623	27956.2
256.565	27439.2
262.5	26869.2
268.429	26393.2
274.351	26013.2
280.267	25704.2
286.176	25344.2
292.079	25259.2
297.975	25004.2
303.865	24745.2
309.748	24577.2
315.625	24432.2
321.495	24345.2
327.359	24219.2
333.217	24168.2
339.068	24111.2
344.912	24143.2
350.751	24133.2
356.583	24114.2
362.408	24082.2
368.227	24110.2
374.04	24095.2
379.847	24100.2
385.647	24221.2
391.44	24365.2
397.228	24366.2
403.009	24489.2
408.784	24516.2
414.553	24642.2
420.315	24726.2
426.071	24710.2
431.821	24690.2
437.565	24700.2
443.302	24650.2
449.033	24607.2
454.758	24586.2
460.477	24526.2
466.189	24522.2
471.896	24475.2
477.596	24320.2
483.29	24293.2
488.978	24272.2
494.66	24192.2
500.335	24053.2
506.005	23833.2
511.668	23552.2
517.325	23257.2
522.977	23068.2
528.622	22945.2
534.261	22751.2
539.894	22721.2
545.521	22618.2
551.141	22500.2
556.756	22419.2
562.365	22343.2
567.968	22253.2
573.565	22139.2
579.155	22083.2
584.74	22104.2
590.319	21939.2
595.892	21881.2
601.459	21808.2
607.02	21668.2
612.575	21560.2
618.124	21347.2
623.667	21333.2
629.204	21161.2
634.735	21102.2
640.261	21066.2
645.781	20945.2
651.294	20861.2
656.802	20839.2
662.304	20830.2
667.8	20803.2
673.29	20735.2
678.775	20770.2
684.254	20673.2
689.726	20625.2
695.193	20490.2
700.655	20377.2
706.11	20345.2
711.56	20167.2
717.004	20120.2
722.442	20018.2
727.874	19979.2
733.301	19906.2
738.722	19829.2
744.137	19769.2
749.547	19829.2
754.951	19760.2
760.349	19758.2
765.741	19800.2
771.128	19860.2
776.509	19846.2
781.885	19771.2
787.254	19674.2
792.618	19653.2
797.977	19517.2
803.33	19384.2
808.677	19266.2
814.019	19197.2
819.355	19084.2
824.686	19007.2
830.011	18941.2
835.33	18930.2
840.644	18904.2
845.952	18976.2
851.255	19048.2
856.552	19102.2
861.844	19054.2
867.13	18972.2
872.41	18863.2
877.686	18826.2
882.955	18672.2
888.219	18517.2
893.478	18335.2
898.731	18053.2
903.979	17823.2
909.221	17751.2
914.458	17746.2
919.69	17638.2
924.916	17693.2
930.136	17781.2
935.351	17826.2
940.561	17804.2
945.766	17729.2
950.965	17668.2
956.158	17485.2
961.347	17352.2
966.529	17171.2
971.707	16963.2
976.879	16827.2
982.046	16596.2
987.208	16549.2
992.364	16567.2
997.515	16653.2
1002.66	16826.2
1007.801	16998.2
1012.936	17019.2
1018.066	17102.2
1023.19	17093.2
1028.309	17101.2
1033.423	17085.2
1038.532	16933.2
1043.636	16806.2
1048.734	16588.2
1053.827	16415.2
1058.915	16264.2
1063.998	16114.2
1069.075	16054.2
1074.147	16063.2
1079.214	16123.2
1084.276	16192.2
1089.333	16319.2
1094.385	16424.2
1099.431	16363.2
1104.472	16400.2
1109.509	16325.2
1114.54	16166.2
1119.565	15981.2
1124.586	15710.2
1129.602	15593.2
1134.613	15484.2
1139.618	15362.2
1144.619	15336.2
1149.614	15315.2
1154.604	15378.2
1159.589	15361.2
1164.57	15465.2
1169.545	15471.2
1174.515	15483.2
1179.48	15351.2
1184.44	15236.2
1189.395	15124.2
1194.345	15071.2
1199.29	14963.2
1204.23	14984.2
1209.165	15039.2
1214.095	15081.2
1219.021	15197.2
1223.941	15241.2
1228.856	15364.2
1233.766	15340.2
1238.672	15371.2
1243.572	15377.2
1248.467	15319.2
1253.358	15101.2
1258.244	14903.2
1263.124	14613.2
1268	14468.2
1272.871	14227.2
1277.737	14169.2
1282.599	14124.2
1287.455	14106.2
1292.306	14139.2
1297.153	14197.2
1301.995	14224.2
1306.832	14260.2
1311.664	14296.2
1316.491	14223.2
1321.314	14141.2
1326.132	13934.2
1330.945	13584.2
1335.753	13237.2
1340.556	12912.2
1345.354	12599.2
1350.148	12377.2
1354.937	12251.2
1359.722	12269.2
1364.501	12320.2
1369.276	12473.2
1374.046	12629.2
1378.811	12859.2
1383.572	13042.2
1388.327	13101.2
1393.079	13087.2
1397.825	12894.2
1402.567	12691.2
1407.304	12542.2
1412.036	12375.2
1416.764	12325.2
1421.487	12177.2
1426.205	12194.2
1430.919	12125.2
1435.628	12127.2
1440.333	12092.2
1445.032	12142.2
1449.727	12203.2
1454.418	12138.2
1459.104	12013.2
1463.785	11780.2
1468.462	11510.2
1473.134	11235.2
1477.802	10995.2
1482.465	10836.2
1487.123	10669.2
1491.777	10639.2
1496.426	10679.2
1501.071	10825.2
1505.711	10980.2
1510.347	11157.2
1514.978	11358.2
1519.604	11581.2
1524.226	11697.2
1528.844	11716.2
1533.457	11708.2
1538.065	11631.2
1542.669	11553.2
1547.269	11482.2
1551.864	11424.2
1556.454	11394.2
1561.041	11332.2
1565.622	11366.2
1570.199	11394.2
1574.772	11418.2
1579.34	11482.2
1583.904	11539.2
1588.464	11590.2
1593.019	11570.2
1597.569	11548.2
1602.115	11468.2
1606.657	11368.2
1611.195	11316.2
1615.728	11243.2
1620.256	11165.2
1624.78	11162.2
1629.3	11171.2
1633.816	11218.2
1638.327	11223.2
1642.834	11282.2
1647.336	11296.2
1651.834	11332.2
1656.328	11337.2
1660.817	11268.2
1665.302	11161.2
1669.783	10940.2
1674.259	10728.2
1678.732	10416.2
1683.199	10030.2
1687.663	9668.2
1692.122	9368.2
1696.577	9211.2
1701.028	9195.2
1705.474	9227.2
1709.917	9365.2
1714.355	9435.2
1718.788	9387.2
1723.218	9244.2
1727.643	9109.2
1732.064	8955.2
1736.481	8721.2
1740.893	8549.2
1745.301	8337.2
1749.705	8089.2
1754.105	7839.2
1758.501	7643.2
1762.893	7420.2
1767.28	7244.2
1771.663	7057.2
1776.042	6944.2
1780.417	6858.2
1784.787	6849.2
1789.154	6906.2
1793.516	7002.2
1797.874	7158.2
1802.228	7295.2
1806.578	7399.2
1810.924	7415.2
1815.266	7332.2
1819.603	7201.2
1823.937	7138.2
1828.266	7000.2
1832.591	6926.2
1836.913	6799.2
1841.23	6701.2
1845.543	6668.2
1849.852	6671.2
1854.156	6637.2
1858.457	6600.2
1862.754	6630.2
1867.047	6641.2
1871.335	6573.2
1875.62	6561.2
1879.9	6543.2
1884.177	6497.2
1888.449	6437.2
1892.718	6365.2
1896.982	6277.2
1901.243	6227.2
1905.499	6139.2
1909.752	6102.2
1914	6110.2
1918.245	6111.2
1922.485	6172.2
1926.722	6236.2
1930.954	6322.2
1935.183	6388.2
1939.408	6433.2
1943.628	6481.2
1947.845	6496.2
1952.058	6497.2
1956.267	6439.2
1960.472	6389.2
1964.673	6273.2
1968.87	6175.2
1973.063	6106.2
1977.252	5993.2
1981.438	5943.2
1985.619	5897.2
1989.797	5849.2
1993.971	5813.2
1998.14	5791.2
2002.306	5770.2
2006.469	5756.2
2010.627	5723.2
2014.781	5672.2
2018.932	5612.2
2023.078	5602.2
2027.221	5496.2
2031.36	5410.2
2035.495	5309.2
2039.627	5212.2
2043.754	5156.2
2047.878	5131.2
2051.998	5076.2
2056.114	5027.2
2060.226	5063.2
2064.334	5072.2
2068.439	5069.2
2072.54	5084.2
2076.637	5088.2
2080.73	5184.2
2084.82	5165.2
2088.906	5200.2
2092.988	5180.2
2097.066	5199.2
2101.14	5146.2
2105.211	5116.2
2109.278	5081.2
2113.342	5035.2
2117.401	5028.2
2121.457	5005.2
2125.509	4982.2
2129.558	4972.2
2133.602	4896.2
2137.643	4884.2
2141.681	4881.2
2145.714	4883.2
2149.744	4815.2
2153.77	4802.2
2157.793	4763.2
2161.812	4659.2
2165.827	4622.2
2169.838	4558.2
2173.846	4438.2
2177.851	4370.2
2181.851	4320.2
2185.848	4290.2
2189.841	4229.2
2193.831	4196.2
2197.817	4160.2
2201.799	4148.2
2205.778	4108.2
2209.753	4066.2
2213.725	4089.2
2217.693	4053.2
2221.657	4076.2
2225.618	4038.2
2229.575	4015.2
2233.529	3999.2
2237.479	3960.2
2241.425	3904.2
2245.368	3841.2
2249.307	3809.2
2253.243	3739.2
2257.175	3703.2
2261.104	3635.2
2265.029	3620.2
2268.95	3571.2
2272.868	3513.2
2276.783	3485.2
2280.694	3442.2
2284.601	3454.2
2288.505	3393.2
2292.405	3342.2
2296.302	3306.2
2300.195	3286.2
2304.085	3270.2
2307.971	3204.2
2311.854	3134.2
2315.734	3094.2
2319.609	3043.2
2323.482	3037.2
2327.351	2992.2
2331.216	2965.2
2335.078	2948.2
2338.937	2933.2
2342.792	2927.2
2346.643	2907.2
2350.492	2896.2
2354.336	2947.2
2358.178	2923.2
2362.015	2951.2
2365.85	2949.2
2369.681	2938.2
2373.508	2946.2
2377.333	2931.2
2381.153	2916.2
2384.971	2925.2
2388.785	2875.2
2392.595	2857.2
2396.402	2830.2
2400.206	2809.2
2404.007	2776.2
2407.804	2788.2
2411.597	2763.2
2415.388	2720.2
2419.174	2718.2
2422.958	2714.2
2426.738	2658.2
2430.515	2659.2
2434.289	2627.2
2438.059	2625.2
2441.825	2596.2
2445.589	2547.2
2449.349	2507.2
2453.106	2505.2
2456.859	2449.2
2460.61	2432.2
2464.356	2399.2
2468.1	2375.2
2471.84	2343.2
2475.577	2339.2
2479.311	2305.2
2483.041	2295.2
2486.768	2305.2
2490.492	2263.2
2494.213	2309.2
2497.93	2246.2
2501.644	2262.2
2505.355	2235.2
2509.062	2221.2
2512.766	2233.2
2516.467	2199.2
2520.165	2173.2
2523.859	2170.2
2527.551	2158.2
2531.239	2136.2
2534.923	2123.2
2538.605	2093.2
2542.283	2088.2
2545.958	2111.2
2549.63	2095.2
2553.299	2080.2
2556.964	2095.2
2560.626	2065.2
2564.285	2069.2
2567.941	2053.2
2571.594	2043.2
2575.243	2049.2
2578.89	1991.2
2582.533	1994.2
2586.173	1957.2
2589.809	1940.2
2593.443	1961.2
2597.073	1908.2
2600.701	1922.2
2604.325	1905.2
2607.946	1873.2
2611.564	1876.2
2615.178	1874.2
2618.79	1860.2
2622.398	1827.2
2626.004	1840.2
2629.606	1791.2
2633.205	1787.2
2636.801	1765.2
2640.394	1736.2
2643.983	1702.2
2647.57	1671.2
2651.153	1636.2
2654.734	1635.2
2658.311	1600.2
2661.885	1582.2
2665.456	1550.2
2669.025	1527.2
2672.589	1500.2
2676.151	1504.2
2679.71	1468.2
2683.266	1460.2
2686.819	1449.2
2690.368	1395.2
2693.915	1361.2
2697.458	1357.2
2700.999	1312.2
2704.536	1290.2
2708.071	1237.2
2711.602	1219.2
2715.13	1191.2
2718.656	1196.2
2722.178	1143.2
2725.697	1145.2
2729.214	1117.2
2732.727	1117.2
2736.237	1104.2
2739.744	1086.2
2743.249	1085.2
2746.75	1099.2
2750.248	1098.2
2753.743	1122.2
2757.236	1136.2
2760.725	1125.2
2764.211	1151.2
2767.695	1158.2
2771.175	1155.2
2774.652	1151.2
2778.127	1140.2
2781.598	1118.2
2785.067	1133.2
2788.532	1111.2
2791.995	1125.2
2795.455	1112.2
2798.911	1125.2
2802.365	1115.2
2805.816	1114.2
2809.264	1121.2
2812.709	1120.2
2816.151	1112.2
2819.59	1124.2
2823.026	1103.2
2826.46	1109.2
2829.89	1115.2
2833.318	1120.2
2836.742	1124.2
2840.164	1142.2
2843.583	1145.2
2846.999	1162.2
2850.412	1170.2
2853.822	1183.2
2857.229	1205.2
2860.634	1195.2
2864.035	1226.2
2867.434	1258.2
2870.83	1271.2
2874.223	1291.2
2877.613	1304.2
2881	1329.2
2884.385	1312.2
2887.766	1355.2
2891.145	1333.2
2894.521	1343.2
2897.894	1324.2
2901.264	1346.2
2904.631	1343.2
2907.996	1351.2
2911.358	1317.2
2914.717	1345.2
2918.073	1373.2
2921.426	1379.2
2924.777	1376.2
2928.124	1409.2
2931.469	1428.2
2934.811	1452.2
2938.15	1473.2
2941.487	1476.2
2944.821	1493.2
2948.152	1486.2
2951.48	1495.2
2954.805	1452.2
2958.128	1444.2
2961.447	1432.2
2964.765	1422.2
2968.079	1436.2
2971.39	1444.2
2974.699	1450.2
2978.005	1492.2
2981.308	1498.2
2984.609	1545.2
2987.907	1573.2
2991.202	1587.2
2994.494	1644.2
2997.784	1656.2
3001.07	1693.2
3004.355	1721.2
3007.636	1754.2
3010.915	1755.2
3014.191	1787.2
3017.464	1815.2
3020.734	1804.2
3024.002	1803.2
3027.267	1840.2
3030.53	1832.2
3033.789	1876.2
3037.046	1889.2
3040.301	1909.2
3043.552	1945.2
3046.801	1985.2
3050.048	2000.2
3053.291	2092.2
3056.532	2138.2
3059.771	2190.2
3063.006	2250.2
3066.239	2324.2
3069.469	2406.2
3072.697	2462.2
3075.922	2496.2
3079.144	2572.2
3082.364	2678.2
3085.581	2682.2
3088.795	2752.2
3092.007	2790.2
3095.216	2874.2
3098.423	2934.2
3101.627	3009.2
3104.828	3061.2
3108.026	3107.2
3111.222	3205.2
3114.416	3289.2
3117.607	3350.2
3120.795	3413.2
3123.98	3500.2
3127.163	3593.2
3130.344	3681.2
3133.521	3774.2
3136.696	3835.2
3139.869	3903.2
3143.039	4008.2
3146.206	4049.2
3149.371	4094.2
3152.533	4143.2
3155.693	4176.2
3158.85	4177.2
3162.005	4209.2
3165.157	4212.2
3168.306	4230.2
3171.453	4255.2
3174.597	4228.2
3177.739	4257.2
3180.878	4279.2
3184.014	4267.2
3187.149	4276.2
3190.28	4285.2
3193.409	4262.2
3196.536	4284.2
3199.659	4291.2
3202.781	4311.2
3205.9	4290.2
3209.016	4289.2
3212.13	4231.2
3215.241	4251.2
3218.35	4196.2
3221.456	4157.2
3224.56	4118.2
3227.661	4047.2
3230.76	3995.2
3233.856	3970.2
3236.95	3948.2
3240.041	3905.2
3243.13	3900.2
3246.216	3881.2
3249.3	3839.2
3252.382	3837.2
3255.46	3831.2
3258.537	3801.2
3261.611	3826.2
3264.682	3813.2
3267.751	3798.2
3270.818	3789.2
3273.882	3779.2
3276.943	3744.2
3280.002	3726.2
3283.059	3705.2
3286.113	3688.2
3289.165	3604.2
3292.214	3524.2
3295.261	3504.2
3298.306	3442.2
3301.348	3365.2
3304.387	3334.2
3307.425	3272.2
3310.459	3219.2
3313.492	3172.2
3316.521	3142.2
3319.549	3084.2
3322.574	3047.2
3325.597	3054.2
3328.617	3019.2
3331.635	2995.2
3334.65	2977.2
3337.663	2963.2
3340.674	2920.2
3343.682	2923.2
3346.688	2915.2
3349.691	2895.2
3352.692	2877.2
3355.691	2860.2
3358.687	2850.2
3361.681	2819.2
3364.673	2746.2
3367.662	2720.2
3370.649	2685.2
3373.633	2656.2
3376.615	2615.2
3379.595	2564.2
3382.572	2547.2
3385.547	2486.2
3388.52	2473.2
3391.49	2410.2
3394.458	2388.2
3397.424	2356.2
3400.387	2340.2
3403.348	2292.2
3406.307	2255.2
3409.263	2231.2
3412.217	2220.2
3415.168	2191.2
3418.118	2163.2
3421.065	2116.2
3424.009	2097.2
3426.951	2059.2
3429.891	2058.2
3432.829	1984.2
3435.764	1918.2
3438.697	1876.2
3441.628	1834.2
3444.557	1781.2
3447.483	1723.2
3450.407	1680.2
3453.328	1616.2
3456.247	1558.2
3459.164	1510.2
3462.079	1444.2
3464.991	1384.2
3467.902	1337.2
3470.809	1292.2
3473.715	1231.2
3476.618	1190.2
3479.519	1137.2
3482.418	1108.2
3485.315	1066.2
3488.209	1038.2
3491.101	987.2
3493.99	972.2
3496.878	916.2
3499.763	891.2
3502.646	847.2
3505.527	817.2
3508.405	761.2
3511.281	717.2
3514.155	693.2
3517.027	642.2
3519.897	601.2
3522.764	560.2
3525.629	514.2
3528.492	477.2
3531.352	426.2
3534.211	374.2
3537.067	338.2
3539.921	309.2
3542.773	267.2
3545.622	235.2
3548.469	196.2
3551.315	172.2
3554.157	145.2
3556.998	109.2
3559.837	100.2
3562.673	66.2
3565.507	46.2
3568.339	28.2
3571.169	4.2
3573.996	-24.8
3576.822	-36.8
3579.645	-53.8
3582.466	-93.8
3585.285	-105.8
3588.101	-131.8
3590.916	-155.8
3593.728	-167.8
3596.538	-198.8
3599.346	-215.8
3602.152	-230.8
3604.956	-243.8
3607.757	-258.8
3610.556	-274.8
3613.354	-287.8
3616.149	-300.8
3618.942	-313.8
3621.732	-337.8
3624.521	-344.8
3627.307	-349.8
3630.092	-365.8
3632.874	-376.8
3635.654	-387.8
3638.432	-398.8
3641.208	-397.8
3643.982	-418.8
3646.753	-423.8
3649.523	-433.8
3652.29	-435.8
3655.055	-452.8
3657.818	-463.8
3660.579	-475.8
3663.338	-487.8
3666.095	-495.8
3668.849	-500.8
3671.602	-518.8
3674.352	-517.8
3677.101	-526.8
3679.847	-535.8
3682.591	-543.8
3685.333	-546.8
3688.073	-549.8
3690.811	-561.8
3693.547	-566.8
3696.281	-573.8
3699.013	-579.8
3701.742	-584.8
3704.47	-587.8
3707.195	-595.8
3709.919	-592.8
3712.64	-598.8
3715.359	-597.8
3718.076	-606.8
3720.792	-607.8
3723.505	-608.8
3726.216	-615.8
3728.925	-623.8
3731.632	-621.8
3734.336	-621.8
3737.039	-630.8
3739.74	-629.8
3742.439	-630.8
3745.136	-638.8
3747.83	-637.8
3750.523	-634.8
3753.213	-630.8
3755.902	-643.8
3758.589	-653.8
3761.273	-648.8
3763.956	-656.8
3766.636	-659.8
3769.315	-660.8
3771.991	-653.8
3774.665	-663.8
3777.338	-663.8
3780.008	-663.8
3782.677	-664.8
3785.343	-662.8
3788.007	-664.8
3790.67	-668.8
3793.33	-666.8
3795.989	-673.8
3798.645	-670.8
3801.299	-669.8
3803.952	-672.8
3806.602	-682.8
3809.251	-684.8
3811.897	-677.8
3814.542	-678.8
3817.184	-678.8
3819.825	-675.8
3822.463	-674.8
3825.1	-680.8
3827.735	-672.8
3830.367	-679.8
3832.998	-685.8
3835.627	-687.8
3838.253	-691.8
3840.878	-694.8
3843.501	-684.8
3846.122	-683.8
3848.741	-684.8
3851.358	-686.8
3853.973	-689.8
3856.586	-693.8
3859.197	-695.8
3861.806	-700.8
3864.414	-694.8
3867.019	-694.8
3869.622	-692.8
3872.224	-688.8
3874.823	-670.8
3877.421	-662.8
3880.016	-651.8
3882.61	-631.8
3885.202	-624.8
3887.792	-636.8
3890.38	-668.8
3892.966	-679.8
3895.55	-694.8
3898.132	-705.8
3900.713	-707.8
3903.291	-705.8
3905.868	-704.8
3908.442	-703.8
3911.015	-705.8
3913.586	-701.8
3916.155	-698.8
3918.722	-705.8
3921.287	-706.8
3923.85	-705.8
3926.411	-708.8
3928.971	-714.8
3931.528	-712.8
3934.084	-708.8
3936.638	-706.8
3939.19	-705.8
3941.74	-709.8
3944.288	-708.8
3946.834	-702.8
3949.378	-715.8
3951.921	-715.8
3954.462	-716.8
3957	-707.8
3959.537	-707.8
3962.072	-705.8
3964.606	-709.8
3967.137	-704.8
3969.667	-706.8
3972.194	-699.8
3974.72	-708.8
3977.244	-693.8
3979.766	-695.8
3982.286	-700.8
3984.805	-696.8
3987.321	-692.8
3989.836	-700.8
3992.349	-692.8
3994.86	-686.8
3997.369	-699.8
3999.877	-691.8
4002.382	-689.8
4004.886	-693.8
4007.388	-687.8
4009.888	-690.8
4012.386	-691.8
4014.883	-691.8
4017.377	-691.8
4019.87	-686.8
4022.361	-690.8
4024.85	-686.8
4027.338	-695.8
4029.823	-699.8
4032.307	-695.8
4034.789	-693.8
4037.269	-694.8
4039.747	-697.8
4042.224	-701.8
4044.699	-697.8
4047.172	-694.8
4049.643	-697.8
4052.112	-700.8
4054.58	-697.8
4057.046	-696.8
4059.51	-701.8
4061.972	-700.8
4064.432	-702.8
4066.891	-696.8
4069.348	-689.8
4071.803	-689.8
4074.256	-689.8
4076.708	-693.8
4079.158	-699.8
4081.606	-697.8
4084.052	-703.8
4086.497	-697.8
4088.939	-694.8
4091.38	-697.8
4093.819	-689.8
4096.257	-731.8
4098.693	-730.8
4101.127	-737.8
4103.559	-728.8
4105.989	-428.8
4108.418	-401.8
4110.845	-384.8
4113.27	-351.8
4115.694	-314.8
4118.115	-267.8
4120.535	-694.8
4122.954	-694.8
4125.37	-687.8
4127.785	-697.8
4130.198	-699.8
4132.609	-699.8
4135.019	-729.8
4137.427	-732.8
4139.833	-733.8
4142.237	-729.8
