Data from 2018-2-14_conc=0_n=8_RamanShift_01.txt Node
Date: Wed Feb 14 10:49:56 IST 2018
User: aro
Spectrometer: QEPB0276
Trigger mode: 0
Integration Time (sec): 3.000000E1
Scans to average: 1
Electric dark correction enabled: true
Nonlinearity correction enabled: false
Boxcar width: 0
XAxis mode: Raman Shifts
Number of Pixels in Spectrum: 1044
>>>>>Begin Spectral Data<<<<<
160.701	-141.1
166.742	54.9
172.777	555.9
178.805	2119.9
184.826	5869.9
190.841	12261.9
196.849	19615.9
202.85	24914.9
208.845	26670.9
214.833	26325.9
220.815	25804.9
226.789	25642.9
232.758	25504.9
238.719	25329.9
244.674	24979.9
250.623	24561.9
256.565	23966.9
262.5	23471.9
268.429	23048.9
274.351	22682.9
280.267	22325.9
286.176	22115.9
292.079	21902.9
297.975	21613.9
303.865	21532.9
309.748	21329.9
315.625	21180.9
321.495	21086.9
327.359	20991.9
333.217	20975.9
339.068	20938.9
344.912	20933.9
350.751	20906.9
356.583	20862.9
362.408	20840.9
368.227	20795.9
374.04	20870.9
379.847	20932.9
385.647	20937.9
391.44	21097.9
397.228	21246.9
403.009	21287.9
408.784	21378.9
414.553	21374.9
420.315	21472.9
426.071	21493.9
431.821	21466.9
437.565	21449.9
443.302	21395.9
449.033	21317.9
454.758	21264.9
460.477	21193.9
466.189	21207.9
471.896	21100.9
477.596	21013.9
483.29	21010.9
488.978	21021.9
494.66	20962.9
500.335	20752.9
506.005	20535.9
511.668	20272.9
517.325	20031.9
522.977	19782.9
528.622	19711.9
534.261	19475.9
539.894	19402.9
545.521	19344.9
551.141	19301.9
556.756	19214.9
562.365	19162.9
567.968	19024.9
573.565	18986.9
579.155	18910.9
584.74	18843.9
590.319	18744.9
595.892	18658.9
601.459	18575.9
607.02	18498.9
612.575	18386.9
618.124	18325.9
623.667	18161.9
629.204	18064.9
634.735	17954.9
640.261	17949.9
645.781	17912.9
651.294	17851.9
656.802	17803.9
662.304	17768.9
667.8	17731.9
673.29	17704.9
678.775	17668.9
684.254	17633.9
689.726	17553.9
695.193	17457.9
700.655	17444.9
706.11	17276.9
711.56	17266.9
717.004	17166.9
722.442	17072.9
727.874	17031.9
733.301	16985.9
738.722	16944.9
744.137	16907.9
749.547	16864.9
754.951	16906.9
760.349	16852.9
765.741	16879.9
771.128	16869.9
776.509	16888.9
781.885	16883.9
787.254	16800.9
792.618	16770.9
797.977	16673.9
803.33	16564.9
808.677	16471.9
814.019	16376.9
819.355	16267.9
824.686	16195.9
830.011	16177.9
835.33	16230.9
840.644	16210.9
845.952	16214.9
851.255	16264.9
856.552	16270.9
861.844	16229.9
867.13	16145.9
872.41	16083.9
877.686	15978.9
882.955	15916.9
888.219	15725.9
893.478	15614.9
898.731	15361.9
903.979	15268.9
909.221	15104.9
914.458	15068.9
919.69	15045.9
924.916	15068.9
930.136	15178.9
935.351	15165.9
940.561	15165.9
945.766	15127.9
950.965	15056.9
956.158	14960.9
961.347	14757.9
966.529	14631.9
971.707	14415.9
976.879	14301.9
982.046	14127.9
987.208	14100.9
992.364	14100.9
997.515	14163.9
1002.66	14264.9
1007.801	14455.9
1012.936	14540.9
1018.066	14587.9
1023.19	14569.9
1028.309	14575.9
1033.423	14545.9
1038.532	14416.9
1043.636	14338.9
1048.734	14198.9
1053.827	13965.9
1058.915	13870.9
1063.998	13711.9
1069.075	13695.9
1074.147	13675.9
1079.214	13746.9
1084.276	13824.9
1089.333	13883.9
1094.385	13978.9
1099.431	14001.9
1104.472	13977.9
1109.509	13944.9
1114.54	13783.9
1119.565	13636.9
1124.586	13420.9
1129.602	13280.9
1134.613	13192.9
1139.618	13088.9
1144.619	13083.9
1149.614	13108.9
1154.604	13113.9
1159.589	13124.9
1164.57	13167.9
1169.545	13192.9
1174.515	13171.9
1179.48	13120.9
1184.44	13024.9
1189.395	12939.9
1194.345	12791.9
1199.29	12814.9
1204.23	12742.9
1209.165	12836.9
1214.095	12894.9
1219.021	12980.9
1223.941	13027.9
1228.856	13105.9
1233.766	13125.9
1238.672	13167.9
1243.572	13164.9
1248.467	12995.9
1253.358	12907.9
1258.244	12685.9
1263.124	12465.9
1268	12355.9
1272.871	12188.9
1277.737	12082.9
1282.599	12006.9
1287.455	12022.9
1292.306	12035.9
1297.153	12097.9
1301.995	12121.9
1306.832	12171.9
1311.664	12217.9
1316.491	12199.9
1321.314	12082.9
1326.132	11915.9
1330.945	11661.9
1335.753	11337.9
1340.556	11113.9
1345.354	10856.9
1350.148	10698.9
1354.937	10621.9
1359.722	10588.9
1364.501	10571.9
1369.276	10670.9
1374.046	10768.9
1378.811	10963.9
1383.572	11039.9
1388.327	11035.9
1393.079	11032.9
1397.825	10925.9
1402.567	10818.9
1407.304	10668.9
1412.036	10578.9
1416.764	10523.9
1421.487	10482.9
1426.205	10419.9
1430.919	10351.9
1435.628	10359.9
1440.333	10396.9
1445.032	10387.9
1449.727	10460.9
1454.418	10440.9
1459.104	10285.9
1463.785	10068.9
1468.462	9896.9
1473.134	9719.9
1477.802	9483.9
1482.465	9307.9
1487.123	9209.9
1491.777	9160.9
1496.426	9184.9
1501.071	9275.9
1505.711	9382.9
1510.347	9525.9
1514.978	9709.9
1519.604	9859.9
1524.226	9960.9
1528.844	10004.9
1533.457	9941.9
1538.065	9900.9
1542.669	9871.9
1547.269	9747.9
1551.864	9696.9
1556.454	9720.9
1561.041	9725.9
1565.622	9691.9
1570.199	9689.9
1574.772	9760.9
1579.34	9858.9
1583.904	9902.9
1588.464	9942.9
1593.019	9909.9
1597.569	9940.9
1602.115	9895.9
1606.657	9775.9
1611.195	9741.9
1615.728	9682.9
1620.256	9642.9
1624.78	9644.9
1629.3	9620.9
1633.816	9669.9
1638.327	9684.9
1642.834	9746.9
1647.336	9801.9
1651.834	9824.9
1656.328	9808.9
1660.817	9738.9
1665.302	9651.9
1669.783	9436.9
1674.259	9246.9
1678.732	8984.9
1683.199	8682.9
1687.663	8396.9
1692.122	8135.9
1696.577	7978.9
1701.028	7849.9
1705.474	7886.9
1709.917	8001.9
1714.355	8033.9
1718.788	7948.9
1723.218	7881.9
1727.643	7725.9
1732.064	7620.9
1736.481	7447.9
1740.893	7238.9
1745.301	7070.9
1749.705	6856.9
1754.105	6664.9
1758.501	6467.9
1762.893	6297.9
1767.28	6107.9
1771.663	6032.9
1776.042	5911.9
1780.417	5845.9
1784.787	5865.9
1789.154	5912.9
1793.516	5985.9
1797.874	6072.9
1802.228	6176.9
1806.578	6238.9
1810.924	6281.9
1815.266	6239.9
1819.603	6109.9
1823.937	6005.9
1828.266	5952.9
1832.591	5846.9
1836.913	5787.9
1841.23	5700.9
1845.543	5666.9
1849.852	5663.9
1854.156	5598.9
1858.457	5606.9
1862.754	5590.9
1867.047	5608.9
1871.335	5592.9
1875.62	5588.9
1879.9	5568.9
1884.177	5525.9
1888.449	5445.9
1892.718	5413.9
1896.982	5349.9
1901.243	5316.9
1905.499	5224.9
1909.752	5221.9
1914	5247.9
1918.245	5217.9
1922.485	5289.9
1926.722	5307.9
1930.954	5437.9
1935.183	5452.9
1939.408	5519.9
1943.628	5544.9
1947.845	5591.9
1952.058	5553.9
1956.267	5507.9
1960.472	5444.9
1964.673	5364.9
1968.87	5247.9
1973.063	5200.9
1977.252	5121.9
1981.438	5091.9
1985.619	5015.9
1989.797	4986.9
1993.971	4930.9
1998.14	4951.9
2002.306	4915.9
2006.469	4897.9
2010.627	4861.9
2014.781	4867.9
2018.932	4816.9
2023.078	4745.9
2027.221	4689.9
2031.36	4644.9
2035.495	4534.9
2039.627	4479.9
2043.754	4446.9
2047.878	4366.9
2051.998	4339.9
2056.114	4348.9
2060.226	4345.9
2064.334	4354.9
2068.439	4331.9
2072.54	4373.9
2076.637	4392.9
2080.73	4424.9
2084.82	4453.9
2088.906	4445.9
2092.988	4450.9
2097.066	4440.9
2101.14	4442.9
2105.211	4377.9
2109.278	4347.9
2113.342	4348.9
2117.401	4292.9
2121.457	4288.9
2125.509	4244.9
2129.558	4262.9
2133.602	4197.9
2137.643	4199.9
2141.681	4190.9
2145.714	4161.9
2149.744	4129.9
2153.77	4089.9
2157.793	4054.9
2161.812	4006.9
2165.827	3937.9
2169.838	3868.9
2173.846	3823.9
2177.851	3794.9
2181.851	3699.9
2185.848	3661.9
2189.841	3632.9
2193.831	3588.9
2197.817	3563.9
2201.799	3538.9
2205.778	3498.9
2209.753	3507.9
2213.725	3508.9
2217.693	3475.9
2221.657	3482.9
2225.618	3459.9
2229.575	3450.9
2233.529	3444.9
2237.479	3407.9
2241.425	3343.9
2245.368	3299.9
2249.307	3231.9
2253.243	3217.9
2257.175	3143.9
2261.104	3100.9
2265.029	3078.9
2268.95	3067.9
2272.868	3047.9
2276.783	2996.9
2280.694	2961.9
2284.601	2935.9
2288.505	2913.9
2292.405	2882.9
2296.302	2836.9
2300.195	2793.9
2304.085	2780.9
2307.971	2727.9
2311.854	2699.9
2315.734	2664.9
2319.609	2633.9
2323.482	2600.9
2327.351	2567.9
2331.216	2554.9
2335.078	2520.9
2338.937	2506.9
2342.792	2517.9
2346.643	2509.9
2350.492	2511.9
2354.336	2480.9
2358.178	2516.9
2362.015	2504.9
2365.85	2504.9
2369.681	2526.9
2373.508	2537.9
2377.333	2519.9
2381.153	2514.9
2384.971	2468.9
2388.785	2476.9
2392.595	2458.9
2396.402	2420.9
2400.206	2422.9
2404.007	2390.9
2407.804	2375.9
2411.597	2385.9
2415.388	2334.9
2419.174	2349.9
2422.958	2324.9
2426.738	2302.9
2430.515	2266.9
2434.289	2263.9
2438.059	2239.9
2441.825	2214.9
2445.589	2198.9
2449.349	2168.9
2453.106	2152.9
2456.859	2138.9
2460.61	2089.9
2464.356	2083.9
2468.1	2034.9
2471.84	2057.9
2475.577	2006.9
2479.311	1984.9
2483.041	1988.9
2486.768	1960.9
2490.492	1981.9
2494.213	1954.9
2497.93	1950.9
2501.644	1936.9
2505.355	1926.9
2509.062	1916.9
2512.766	1907.9
2516.467	1901.9
2520.165	1868.9
2523.859	1861.9
2527.551	1868.9
2531.239	1852.9
2534.923	1843.9
2538.605	1817.9
2542.283	1820.9
2545.958	1818.9
2549.63	1809.9
2553.299	1826.9
2556.964	1802.9
2560.626	1813.9
2564.285	1804.9
2567.941	1781.9
2571.594	1794.9
2575.243	1749.9
2578.89	1734.9
2582.533	1714.9
2586.173	1696.9
2589.809	1706.9
2593.443	1687.9
2597.073	1666.9
2600.701	1644.9
2604.325	1667.9
2607.946	1649.9
2611.564	1617.9
2615.178	1621.9
2618.79	1614.9
2622.398	1590.9
2626.004	1574.9
2629.606	1561.9
2633.205	1528.9
2636.801	1504.9
2640.394	1478.9
2643.983	1485.9
2647.57	1456.9
2651.153	1425.9
2654.734	1397.9
2658.311	1361.9
2661.885	1344.9
2665.456	1337.9
2669.025	1322.9
2672.589	1299.9
2676.151	1303.9
2679.71	1279.9
2683.266	1278.9
2686.819	1238.9
2690.368	1226.9
2693.915	1189.9
2697.458	1174.9
2700.999	1130.9
2704.536	1095.9
2708.071	1078.9
2711.602	1069.9
2715.13	1030.9
2718.656	1019.9
2722.178	1009.9
2725.697	967.9
2729.214	959.9
2732.727	971.9
2736.237	979.9
2739.744	959.9
2743.249	967.9
2746.75	969.9
2750.248	966.9
2753.743	961.9
2757.236	1004.9
2760.725	994.9
2764.211	995.9
2767.695	1007.9
2771.175	987.9
2774.652	994.9
2778.127	992.9
2781.598	989.9
2785.067	993.9
2788.532	974.9
2791.995	972.9
2795.455	995.9
2798.911	951.9
2802.365	998.9
2805.816	969.9
2809.264	970.9
2812.709	979.9
2816.151	968.9
2819.59	987.9
2823.026	979.9
2826.46	983.9
2829.89	970.9
2833.318	994.9
2836.742	987.9
2840.164	1003.9
2843.583	1011.9
2846.999	1023.9
2850.412	1009.9
2853.822	1052.9
2857.229	1062.9
2860.634	1078.9
2864.035	1088.9
2867.434	1120.9
2870.83	1125.9
2874.223	1142.9
2877.613	1187.9
2881	1186.9
2884.385	1182.9
2887.766	1183.9
2891.145	1173.9
2894.521	1174.9
2897.894	1187.9
2901.264	1186.9
2904.631	1203.9
2907.996	1192.9
2911.358	1199.9
2914.717	1207.9
2918.073	1211.9
2921.426	1204.9
2924.777	1243.9
2928.124	1265.9
2931.469	1278.9
2934.811	1303.9
2938.15	1303.9
2941.487	1335.9
2944.821	1356.9
2948.152	1327.9
2951.48	1335.9
2954.805	1336.9
2958.128	1328.9
2961.447	1283.9
2964.765	1290.9
2968.079	1292.9
2971.39	1301.9
2974.699	1328.9
2978.005	1331.9
2981.308	1380.9
2984.609	1408.9
2987.907	1409.9
2991.202	1431.9
2994.494	1464.9
2997.784	1508.9
3001.07	1530.9
3004.355	1529.9
3007.636	1587.9
3010.915	1590.9
3014.191	1607.9
3017.464	1613.9
3020.734	1626.9
3024.002	1650.9
3027.267	1639.9
3030.53	1668.9
3033.789	1685.9
3037.046	1700.9
3040.301	1728.9
3043.552	1788.9
3046.801	1804.9
3050.048	1836.9
3053.291	1898.9
3056.532	1969.9
3059.771	2003.9
3063.006	2036.9
3066.239	2117.9
3069.469	2176.9
3072.697	2214.9
3075.922	2279.9
3079.144	2326.9
3082.364	2402.9
3085.581	2449.9
3088.795	2502.9
3092.007	2592.9
3095.216	2582.9
3098.423	2664.9
3101.627	2745.9
3104.828	2805.9
3108.026	2835.9
3111.222	2903.9
3114.416	2968.9
3117.607	3035.9
3120.795	3099.9
3123.98	3157.9
3127.163	3269.9
3130.344	3318.9
3133.521	3404.9
3136.696	3497.9
3139.869	3579.9
3143.039	3624.9
3146.206	3691.9
3149.371	3700.9
3152.533	3740.9
3155.693	3775.9
3158.85	3798.9
3162.005	3821.9
3165.157	3815.9
3168.306	3821.9
3171.453	3869.9
3174.597	3856.9
3177.739	3847.9
3180.878	3871.9
3184.014	3894.9
3187.149	3877.9
3190.28	3895.9
3193.409	3908.9
3196.536	3893.9
3199.659	3870.9
3202.781	3925.9
3205.9	3906.9
3209.016	3885.9
3212.13	3873.9
3215.241	3862.9
3218.35	3839.9
3221.456	3791.9
3224.56	3742.9
3227.661	3689.9
3230.76	3646.9
3233.856	3634.9
3236.95	3600.9
3240.041	3539.9
3243.13	3543.9
3246.216	3524.9
3249.3	3483.9
3252.382	3476.9
3255.46	3474.9
3258.537	3448.9
3261.611	3444.9
3264.682	3445.9
3267.751	3461.9
3270.818	3457.9
3273.882	3434.9
3276.943	3399.9
3280.002	3402.9
3283.059	3360.9
3286.113	3345.9
3289.165	3272.9
3292.214	3211.9
3295.261	3186.9
3298.306	3139.9
3301.348	3088.9
3304.387	3039.9
3307.425	2986.9
3310.459	2934.9
3313.492	2913.9
3316.521	2855.9
3319.549	2817.9
3322.574	2790.9
3325.597	2777.9
3328.617	2756.9
3331.635	2726.9
3334.65	2745.9
3337.663	2716.9
3340.674	2688.9
3343.682	2683.9
3346.688	2676.9
3349.691	2659.9
3352.692	2674.9
3355.691	2610.9
3358.687	2625.9
3361.681	2585.9
3364.673	2525.9
3367.662	2513.9
3370.649	2483.9
3373.633	2428.9
3376.615	2395.9
3379.595	2366.9
3382.572	2339.9
3385.547	2306.9
3388.52	2258.9
3391.49	2220.9
3394.458	2197.9
3397.424	2175.9
3400.387	2122.9
3403.348	2099.9
3406.307	2083.9
3409.263	2057.9
3412.217	2019.9
3415.168	2016.9
3418.118	1977.9
3421.065	1937.9
3424.009	1923.9
3426.951	1889.9
3429.891	1880.9
3432.829	1824.9
3435.764	1800.9
3438.697	1735.9
3441.628	1687.9
3444.557	1630.9
3447.483	1581.9
3450.407	1561.9
3453.328	1492.9
3456.247	1429.9
3459.164	1385.9
3462.079	1356.9
3464.991	1280.9
3467.902	1224.9
3470.809	1198.9
3473.715	1157.9
3476.618	1112.9
3479.519	1090.9
3482.418	1031.9
3485.315	995.9
3488.209	967.9
3491.101	927.9
3493.99	893.9
3496.878	854.9
3499.763	851.9
3502.646	797.9
3505.527	771.9
3508.405	729.9
3511.281	676.9
3514.155	643.9
3517.027	620.9
3519.897	571.9
3522.764	531.9
3525.629	492.9
3528.492	457.9
3531.352	410.9
3534.211	369.9
3537.067	333.9
3539.921	306.9
3542.773	276.9
3545.622	238.9
3548.469	217.9
3551.315	201.9
3554.157	154.9
3556.998	136.9
3559.837	101.9
3562.673	97.9
3565.507	64.9
3568.339	45.9
3571.169	16.9
3573.996	3.9
3576.822	-16.1
3579.645	-27.1
3582.466	-53.1
3585.285	-78.1
3588.101	-83.1
3590.916	-122.1
3593.728	-138.1
3596.538	-148.1
3599.346	-169.1
3602.152	-186.1
3604.956	-190.1
3607.757	-204.1
3610.556	-229.1
3613.354	-244.1
3616.149	-251.1
3618.942	-268.1
3621.732	-282.1
3624.521	-291.1
3627.307	-300.1
3630.092	-309.1
3632.874	-314.1
3635.654	-320.1
3638.432	-338.1
3641.208	-342.1
3643.982	-359.1
3646.753	-365.1
3649.523	-378.1
3652.29	-377.1
3655.055	-383.1
3657.818	-406.1
3660.579	-405.1
3663.338	-420.1
3666.095	-423.1
3668.849	-440.1
3671.602	-444.1
3674.352	-455.1
3677.101	-457.1
3679.847	-468.1
3682.591	-481.1
3685.333	-479.1
3688.073	-483.1
3690.811	-490.1
3693.547	-490.1
3696.281	-499.1
3699.013	-503.1
3701.742	-509.1
3704.47	-514.1
3707.195	-518.1
3709.919	-519.1
3712.64	-528.1
3715.359	-531.1
3718.076	-532.1
3720.792	-538.1
3723.505	-533.1
3726.216	-551.1
3728.925	-538.1
3731.632	-549.1
3734.336	-544.1
3737.039	-555.1
3739.74	-550.1
3742.439	-553.1
3745.136	-562.1
3747.83	-558.1
3750.523	-560.1
3753.213	-537.1
3755.902	-571.1
3758.589	-569.1
3761.273	-570.1
3763.956	-579.1
3766.636	-578.1
3769.315	-582.1
3771.991	-581.1
3774.665	-583.1
3777.338	-580.1
3780.008	-581.1
3782.677	-580.1
3785.343	-582.1
3788.007	-585.1
3790.67	-583.1
3793.33	-589.1
3795.989	-589.1
3798.645	-592.1
3801.299	-590.1
3803.952	-597.1
3806.602	-599.1
3809.251	-607.1
3811.897	-597.1
3814.542	-597.1
3817.184	-600.1
3819.825	-598.1
3822.463	-595.1
3825.1	-599.1
3827.735	-592.1
3830.367	-594.1
3832.998	-606.1
3835.627	-605.1
3838.253	-603.1
3840.878	-614.1
3843.501	-605.1
3846.122	-606.1
3848.741	-606.1
3851.358	-609.1
3853.973	-606.1
3856.586	-612.1
3859.197	-613.1
3861.806	-612.1
3864.414	-603.1
3867.019	-607.1
3869.622	-607.1
3872.224	-602.1
3874.823	-588.1
3877.421	-566.1
3880.016	-547.1
3882.61	-515.1
3885.202	-505.1
3887.792	-529.1
3890.38	-573.1
3892.966	-596.1
3895.55	-607.1
3898.132	-620.1
3900.713	-620.1
3903.291	-612.1
3905.868	-622.1
3908.442	-617.1
3911.015	-622.1
3913.586	-618.1
3916.155	-615.1
3918.722	-621.1
3921.287	-617.1
3923.85	-628.1
3926.411	-619.1
3928.971	-634.1
3931.528	-625.1
3934.084	-623.1
3936.638	-622.1
3939.19	-628.1
3941.74	-625.1
3944.288	-619.1
3946.834	-618.1
3949.378	-626.1
3951.921	-627.1
3954.462	-628.1
3957	-620.1
3959.537	-624.1
3962.072	-622.1
3964.606	-627.1
3967.137	-630.1
3969.667	-622.1
3972.194	-618.1
3974.72	-622.1
3977.244	-615.1
3979.766	-613.1
3982.286	-612.1
3984.805	-607.1
3987.321	-608.1
3989.836	-610.1
3992.349	-609.1
3994.86	-607.1
3997.369	-615.1
3999.877	-605.1
4002.382	-610.1
4004.886	-606.1
4007.388	-609.1
4009.888	-611.1
4012.386	-615.1
4014.883	-607.1
4017.377	-611.1
4019.87	-608.1
4022.361	-608.1
4024.85	-608.1
4027.338	-612.1
4029.823	-616.1
4032.307	-613.1
4034.789	-611.1
4037.269	-610.1
4039.747	-611.1
4042.224	-611.1
4044.699	-613.1
4047.172	-611.1
4049.643	-612.1
4052.112	-620.1
4054.58	-615.1
4057.046	-617.1
4059.51	-619.1
4061.972	-618.1
4064.432	-623.1
4066.891	-617.1
4069.348	-616.1
4071.803	-612.1
4074.256	-611.1
4076.708	-610.1
4079.158	-609.1
4081.606	-617.1
4084.052	-621.1
4086.497	-616.1
4088.939	-612.1
4091.38	-614.1
4093.819	-611.1
4096.257	-648.1
4098.693	-641.1
4101.127	-646.1
4103.559	-646.1
4105.989	-365.1
4108.418	-341.1
4110.845	-326.1
4113.27	-298.1
4115.694	-264.1
4118.115	-219.1
4120.535	-612.1
4122.954	-612.1
4125.37	-605.1
4127.785	-612.1
4130.198	-613.1
4132.609	-613.1
4135.019	-647.1
4137.427	-649.1
4139.833	-646.1
4142.237	-647.1
