Data from 2018-2-14_conc=0_n=1_RamanShift_02.txt Node
Date: Wed Feb 14 10:26:26 IST 2018
User: aro
Spectrometer: QEPB0276
Trigger mode: 0
Integration Time (sec): 3.000000E1
Scans to average: 1
Electric dark correction enabled: true
Nonlinearity correction enabled: false
Boxcar width: 0
XAxis mode: Raman Shifts
Number of Pixels in Spectrum: 1044
>>>>>Begin Spectral Data<<<<<
160.701	-152.8
166.742	49.2
172.777	597.2
178.805	2270.2
184.826	6303.2
190.841	12962.2
196.849	20661.2
202.85	25917.2
208.845	27503.2
214.833	27170.2
220.815	26760.2
226.789	26428.2
232.758	26317.2
238.719	26147.2
244.674	25738.2
250.623	25325.2
256.565	24699.2
262.5	24240.2
268.429	23634.2
274.351	23333.2
280.267	22998.2
286.176	22745.2
292.079	22490.2
297.975	22264.2
303.865	22085.2
309.748	21880.2
315.625	21685.2
321.495	21630.2
327.359	21551.2
333.217	21479.2
339.068	21447.2
344.912	21358.2
350.751	21374.2
356.583	21421.2
362.408	21303.2
368.227	21410.2
374.04	21336.2
379.847	21437.2
385.647	21526.2
391.44	21542.2
397.228	21663.2
403.009	21764.2
408.784	21822.2
414.553	21857.2
420.315	21950.2
426.071	21998.2
431.821	21971.2
437.565	21966.2
443.302	21915.2
449.033	21857.2
454.758	21785.2
460.477	21827.2
466.189	21752.2
471.896	21710.2
477.596	21572.2
483.29	21550.2
488.978	21544.2
494.66	21520.2
500.335	21367.2
506.005	21038.2
511.668	20826.2
517.325	20526.2
522.977	20301.2
528.622	20204.2
534.261	20034.2
539.894	19917.2
545.521	19852.2
551.141	19785.2
556.756	19655.2
562.365	19662.2
567.968	19585.2
573.565	19479.2
579.155	19424.2
584.74	19231.2
590.319	19272.2
595.892	19162.2
601.459	19125.2
607.02	19008.2
612.575	18867.2
618.124	18799.2
623.667	18660.2
629.204	18633.2
634.735	18525.2
640.261	18438.2
645.781	18329.2
651.294	18350.2
656.802	18298.2
662.304	18262.2
667.8	18199.2
673.29	18242.2
678.775	18216.2
684.254	18111.2
689.726	18031.2
695.193	17982.2
700.655	17926.2
706.11	17813.2
711.56	17698.2
717.004	17627.2
722.442	17597.2
727.874	17519.2
733.301	17455.2
738.722	17412.2
744.137	17329.2
749.547	17390.2
754.951	17370.2
760.349	17398.2
765.741	17397.2
771.128	17430.2
776.509	17426.2
781.885	17354.2
787.254	17368.2
792.618	17333.2
797.977	17165.2
803.33	17052.2
808.677	16986.2
814.019	16888.2
819.355	16790.2
824.686	16711.2
830.011	16664.2
835.33	16678.2
840.644	16686.2
845.952	16715.2
851.255	16733.2
856.552	16777.2
861.844	16763.2
867.13	16656.2
872.41	16610.2
877.686	16531.2
882.955	16447.2
888.219	16221.2
893.478	16062.2
898.731	15920.2
903.979	15727.2
909.221	15605.2
914.458	15527.2
919.69	15581.2
924.916	15636.2
930.136	15675.2
935.351	15679.2
940.561	15623.2
945.766	15646.2
950.965	15494.2
956.158	15454.2
961.347	15285.2
966.529	15074.2
971.707	14878.2
976.879	14692.2
982.046	14588.2
987.208	14607.2
992.364	14564.2
997.515	14641.2
1002.66	14769.2
1007.801	15003.2
1012.936	15086.2
1018.066	15086.2
1023.19	15032.2
1028.309	15099.2
1033.423	15009.2
1038.532	14946.2
1043.636	14820.2
1048.734	14634.2
1053.827	14491.2
1058.915	14268.2
1063.998	14216.2
1069.075	14146.2
1074.147	14154.2
1079.214	14223.2
1084.276	14337.2
1089.333	14406.2
1094.385	14489.2
1099.431	14578.2
1104.472	14532.2
1109.509	14452.2
1114.54	14247.2
1119.565	14108.2
1124.586	13880.2
1129.602	13792.2
1134.613	13642.2
1139.618	13569.2
1144.619	13561.2
1149.614	13549.2
1154.604	13586.2
1159.589	13619.2
1164.57	13604.2
1169.545	13629.2
1174.515	13692.2
1179.48	13606.2
1184.44	13544.2
1189.395	13388.2
1194.345	13325.2
1199.29	13204.2
1204.23	13277.2
1209.165	13324.2
1214.095	13372.2
1219.021	13468.2
1223.941	13471.2
1228.856	13571.2
1233.766	13617.2
1238.672	13597.2
1243.572	13621.2
1248.467	13524.2
1253.358	13390.2
1258.244	13194.2
1263.124	12962.2
1268	12777.2
1272.871	12680.2
1277.737	12530.2
1282.599	12482.2
1287.455	12475.2
1292.306	12496.2
1297.153	12516.2
1301.995	12609.2
1306.832	12684.2
1311.664	12624.2
1316.491	12614.2
1321.314	12511.2
1326.132	12287.2
1330.945	12015.2
1335.753	11746.2
1340.556	11435.2
1345.354	11279.2
1350.148	11082.2
1354.937	10968.2
1359.722	11005.2
1364.501	11045.2
1369.276	11121.2
1374.046	11285.2
1378.811	11466.2
1383.572	11547.2
1388.327	11646.2
1393.079	11563.2
1397.825	11399.2
1402.567	11274.2
1407.304	11136.2
1412.036	11055.2
1416.764	10932.2
1421.487	10846.2
1426.205	10782.2
1430.919	10768.2
1435.628	10756.2
1440.333	10805.2
1445.032	10789.2
1449.727	10848.2
1454.418	10821.2
1459.104	10726.2
1463.785	10562.2
1468.462	10292.2
1473.134	10047.2
1477.802	9854.2
1482.465	9684.2
1487.123	9560.2
1491.777	9596.2
1496.426	9619.2
1501.071	9703.2
1505.711	9864.2
1510.347	9990.2
1514.978	10242.2
1519.604	10390.2
1524.226	10536.2
1528.844	10462.2
1533.457	10480.2
1538.065	10409.2
1542.669	10372.2
1547.269	10268.2
1551.864	10166.2
1556.454	10141.2
1561.041	10136.2
1565.622	10104.2
1570.199	10142.2
1574.772	10222.2
1579.34	10303.2
1583.904	10357.2
1588.464	10403.2
1593.019	10377.2
1597.569	10362.2
1602.115	10258.2
1606.657	10218.2
1611.195	10156.2
1615.728	10085.2
1620.256	10047.2
1624.78	10019.2
1629.3	10051.2
1633.816	10080.2
1638.327	10148.2
1642.834	10145.2
1647.336	10170.2
1651.834	10236.2
1656.328	10205.2
1660.817	10188.2
1665.302	10064.2
1669.783	9875.2
1674.259	9706.2
1678.732	9359.2
1683.199	9051.2
1687.663	8764.2
1692.122	8495.2
1696.577	8354.2
1701.028	8385.2
1705.474	8452.2
1709.917	8549.2
1714.355	8531.2
1718.788	8437.2
1723.218	8346.2
1727.643	8204.2
1732.064	8000.2
1736.481	7850.2
1740.893	7663.2
1745.301	7458.2
1749.705	7231.2
1754.105	7032.2
1758.501	6810.2
1762.893	6660.2
1767.28	6470.2
1771.663	6343.2
1776.042	6221.2
1780.417	6164.2
1784.787	6188.2
1789.154	6250.2
1793.516	6352.2
1797.874	6482.2
1802.228	6636.2
1806.578	6656.2
1810.924	6686.2
1815.266	6637.2
1819.603	6538.2
1823.937	6403.2
1828.266	6273.2
1832.591	6204.2
1836.913	6123.2
1841.23	6066.2
1845.543	5980.2
1849.852	5956.2
1854.156	5950.2
1858.457	5950.2
1862.754	5923.2
1867.047	5943.2
1871.335	5895.2
1875.62	5907.2
1879.9	5917.2
1884.177	5864.2
1888.449	5812.2
1892.718	5746.2
1896.982	5700.2
1901.243	5627.2
1905.499	5624.2
1909.752	5583.2
1914	5553.2
1918.245	5570.2
1922.485	5630.2
1926.722	5696.2
1930.954	5745.2
1935.183	5843.2
1939.408	5890.2
1943.628	5955.2
1947.845	5974.2
1952.058	5946.2
1956.267	5873.2
1960.472	5788.2
1964.673	5716.2
1968.87	5610.2
1973.063	5516.2
1977.252	5484.2
1981.438	5416.2
1985.619	5339.2
1989.797	5303.2
1993.971	5254.2
1998.14	5237.2
2002.306	5224.2
2006.469	5204.2
2010.627	5175.2
2014.781	5157.2
2018.932	5084.2
2023.078	5051.2
2027.221	4978.2
2031.36	4908.2
2035.495	4837.2
2039.627	4736.2
2043.754	4702.2
2047.878	4630.2
2051.998	4607.2
2056.114	4605.2
2060.226	4616.2
2064.334	4629.2
2068.439	4623.2
2072.54	4651.2
2076.637	4670.2
2080.73	4732.2
2084.82	4738.2
2088.906	4758.2
2092.988	4790.2
2097.066	4762.2
2101.14	4726.2
2105.211	4727.2
2109.278	4659.2
2113.342	4658.2
2117.401	4618.2
2121.457	4558.2
2125.509	4567.2
2129.558	4542.2
2133.602	4533.2
2137.643	4502.2
2141.681	4482.2
2145.714	4457.2
2149.744	4420.2
2153.77	4391.2
2157.793	4338.2
2161.812	4269.2
2165.827	4215.2
2169.838	4150.2
2173.846	4072.2
2177.851	4040.2
2181.851	3977.2
2185.848	3921.2
2189.841	3882.2
2193.831	3836.2
2197.817	3799.2
2201.799	3791.2
2205.778	3770.2
2209.753	3753.2
2213.725	3725.2
2217.693	3725.2
2221.657	3703.2
2225.618	3721.2
2229.575	3715.2
2233.529	3670.2
2237.479	3641.2
2241.425	3581.2
2245.368	3529.2
2249.307	3465.2
2253.243	3433.2
2257.175	3377.2
2261.104	3336.2
2265.029	3298.2
2268.95	3262.2
2272.868	3233.2
2276.783	3202.2
2280.694	3162.2
2284.601	3127.2
2288.505	3120.2
2292.405	3077.2
2296.302	3039.2
2300.195	3004.2
2304.085	2989.2
2307.971	2962.2
2311.854	2898.2
2315.734	2857.2
2319.609	2811.2
2323.482	2776.2
2327.351	2767.2
2331.216	2734.2
2335.078	2725.2
2338.937	2699.2
2342.792	2686.2
2346.643	2688.2
2350.492	2673.2
2354.336	2674.2
2358.178	2687.2
2362.015	2693.2
2365.85	2692.2
2369.681	2697.2
2373.508	2704.2
2377.333	2680.2
2381.153	2690.2
2384.971	2656.2
2388.785	2656.2
2392.595	2597.2
2396.402	2615.2
2400.206	2580.2
2404.007	2566.2
2407.804	2552.2
2411.597	2550.2
2415.388	2513.2
2419.174	2502.2
2422.958	2495.2
2426.738	2458.2
2430.515	2429.2
2434.289	2425.2
2438.059	2415.2
2441.825	2387.2
2445.589	2373.2
2449.349	2331.2
2453.106	2327.2
2456.859	2287.2
2460.61	2259.2
2464.356	2236.2
2468.1	2187.2
2471.84	2167.2
2475.577	2143.2
2479.311	2129.2
2483.041	2135.2
2486.768	2119.2
2490.492	2106.2
2494.213	2105.2
2497.93	2107.2
2501.644	2090.2
2505.355	2084.2
2509.062	2083.2
2512.766	2058.2
2516.467	2054.2
2520.165	2024.2
2523.859	2018.2
2527.551	1972.2
2531.239	1975.2
2534.923	1974.2
2538.605	1993.2
2542.283	1963.2
2545.958	1948.2
2549.63	1961.2
2553.299	1973.2
2556.964	1964.2
2560.626	1939.2
2564.285	1932.2
2567.941	1924.2
2571.594	1933.2
2575.243	1912.2
2578.89	1897.2
2582.533	1874.2
2586.173	1862.2
2589.809	1850.2
2593.443	1831.2
2597.073	1801.2
2600.701	1809.2
2604.325	1766.2
2607.946	1767.2
2611.564	1770.2
2615.178	1759.2
2618.79	1741.2
2622.398	1731.2
2626.004	1704.2
2629.606	1679.2
2633.205	1666.2
2636.801	1627.2
2640.394	1608.2
2643.983	1572.2
2647.57	1576.2
2651.153	1545.2
2654.734	1512.2
2658.311	1493.2
2661.885	1492.2
2665.456	1452.2
2669.025	1433.2
2672.589	1399.2
2676.151	1405.2
2679.71	1401.2
2683.266	1372.2
2686.819	1326.2
2690.368	1295.2
2693.915	1286.2
2697.458	1249.2
2700.999	1226.2
2704.536	1213.2
2708.071	1180.2
2711.602	1157.2
2715.13	1128.2
2718.656	1097.2
2722.178	1091.2
2725.697	1068.2
2729.214	1047.2
2732.727	1045.2
2736.237	1047.2
2739.744	1043.2
2743.249	1049.2
2746.75	1062.2
2750.248	1064.2
2753.743	1078.2
2757.236	1110.2
2760.725	1082.2
2764.211	1108.2
2767.695	1103.2
2771.175	1105.2
2774.652	1083.2
2778.127	1073.2
2781.598	1084.2
2785.067	1094.2
2788.532	1071.2
2791.995	1064.2
2795.455	1063.2
2798.911	1076.2
2802.365	1065.2
2805.816	1070.2
2809.264	1063.2
2812.709	1080.2
2816.151	1077.2
2819.59	1075.2
2823.026	1068.2
2826.46	1068.2
2829.89	1072.2
2833.318	1093.2
2836.742	1103.2
2840.164	1106.2
2843.583	1106.2
2846.999	1102.2
2850.412	1130.2
2853.822	1146.2
2857.229	1150.2
2860.634	1171.2
2864.035	1169.2
2867.434	1203.2
2870.83	1217.2
2874.223	1258.2
2877.613	1269.2
2881	1292.2
2884.385	1294.2
2887.766	1287.2
2891.145	1278.2
2894.521	1273.2
2897.894	1281.2
2901.264	1288.2
2904.631	1285.2
2907.996	1284.2
2911.358	1306.2
2914.717	1301.2
2918.073	1310.2
2921.426	1321.2
2924.777	1319.2
2928.124	1369.2
2931.469	1388.2
2934.811	1406.2
2938.15	1416.2
2941.487	1441.2
2944.821	1451.2
2948.152	1433.2
2951.48	1430.2
2954.805	1422.2
2958.128	1387.2
2961.447	1371.2
2964.765	1384.2
2968.079	1375.2
2971.39	1420.2
2974.699	1431.2
2978.005	1454.2
2981.308	1471.2
2984.609	1488.2
2987.907	1517.2
2991.202	1550.2
2994.494	1577.2
2997.784	1623.2
3001.07	1649.2
3004.355	1674.2
3007.636	1718.2
3010.915	1719.2
3014.191	1707.2
3017.464	1743.2
3020.734	1747.2
3024.002	1759.2
3027.267	1768.2
3030.53	1786.2
3033.789	1796.2
3037.046	1828.2
3040.301	1846.2
3043.552	1890.2
3046.801	1930.2
3050.048	1968.2
3053.291	2018.2
3056.532	2073.2
3059.771	2134.2
3063.006	2187.2
3066.239	2266.2
3069.469	2345.2
3072.697	2375.2
3075.922	2470.2
3079.144	2487.2
3082.364	2572.2
3085.581	2598.2
3088.795	2651.2
3092.007	2739.2
3095.216	2782.2
3098.423	2849.2
3101.627	2919.2
3104.828	2998.2
3108.026	3027.2
3111.222	3092.2
3114.416	3167.2
3117.607	3240.2
3120.795	3333.2
3123.98	3403.2
3127.163	3483.2
3130.344	3554.2
3133.521	3615.2
3136.696	3746.2
3139.869	3823.2
3143.039	3851.2
3146.206	3917.2
3149.371	3967.2
3152.533	4007.2
3155.693	4045.2
3158.85	4055.2
3162.005	4072.2
3165.157	4058.2
3168.306	4095.2
3171.453	4099.2
3174.597	4109.2
3177.739	4121.2
3180.878	4111.2
3184.014	4115.2
3187.149	4125.2
3190.28	4128.2
3193.409	4146.2
3196.536	4189.2
3199.659	4162.2
3202.781	4133.2
3205.9	4153.2
3209.016	4148.2
3212.13	4131.2
3215.241	4090.2
3218.35	4077.2
3221.456	4000.2
3224.56	3990.2
3227.661	3924.2
3230.76	3903.2
3233.856	3838.2
3236.95	3804.2
3240.041	3746.2
3243.13	3732.2
3246.216	3727.2
3249.3	3728.2
3252.382	3724.2
3255.46	3692.2
3258.537	3677.2
3261.611	3688.2
3264.682	3673.2
3267.751	3649.2
3270.818	3628.2
3273.882	3636.2
3276.943	3632.2
3280.002	3606.2
3283.059	3558.2
3286.113	3527.2
3289.165	3464.2
3292.214	3430.2
3295.261	3342.2
3298.306	3311.2
3301.348	3254.2
3304.387	3191.2
3307.425	3140.2
3310.459	3091.2
3313.492	3042.2
3316.521	3013.2
3319.549	2959.2
3322.574	2952.2
3325.597	2926.2
3328.617	2886.2
3331.635	2905.2
3334.65	2868.2
3337.663	2846.2
3340.674	2820.2
3343.682	2819.2
3346.688	2810.2
3349.691	2802.2
3352.692	2789.2
3355.691	2766.2
3358.687	2699.2
3361.681	2705.2
3364.673	2658.2
3367.662	2618.2
3370.649	2575.2
3373.633	2544.2
3376.615	2499.2
3379.595	2486.2
3382.572	2452.2
3385.547	2403.2
3388.52	2379.2
3391.49	2328.2
3394.458	2300.2
3397.424	2247.2
3400.387	2209.2
3403.348	2216.2
3406.307	2172.2
3409.263	2141.2
3412.217	2127.2
3415.168	2117.2
3418.118	2098.2
3421.065	2037.2
3424.009	2014.2
3426.951	2001.2
3429.891	1960.2
3432.829	1911.2
3435.764	1880.2
3438.697	1836.2
3441.628	1771.2
3444.557	1720.2
3447.483	1643.2
3450.407	1612.2
3453.328	1571.2
3456.247	1496.2
3459.164	1453.2
3462.079	1396.2
3464.991	1357.2
3467.902	1290.2
3470.809	1247.2
3473.715	1199.2
3476.618	1160.2
3479.519	1129.2
3482.418	1081.2
3485.315	1044.2
3488.209	985.2
3491.101	967.2
3493.99	941.2
3496.878	901.2
3499.763	885.2
3502.646	826.2
3505.527	784.2
3508.405	755.2
3511.281	715.2
3514.155	662.2
3517.027	634.2
3519.897	590.2
3522.764	566.2
3525.629	520.2
3528.492	457.2
3531.352	419.2
3534.211	389.2
3537.067	345.2
3539.921	310.2
3542.773	277.2
3545.622	234.2
3548.469	206.2
3551.315	170.2
3554.157	163.2
3556.998	130.2
3559.837	101.2
3562.673	80.2
3565.507	58.2
3568.339	25.2
3571.169	21.2
3573.996	-5.8
3576.822	-25.8
3579.645	-49.8
3582.466	-68.8
3585.285	-91.8
3588.101	-109.8
3590.916	-136.8
3593.728	-160.8
3596.538	-174.8
3599.346	-186.8
3602.152	-197.8
3604.956	-223.8
3607.757	-225.8
3610.556	-248.8
3613.354	-265.8
3616.149	-287.8
3618.942	-304.8
3621.732	-305.8
3624.521	-315.8
3627.307	-316.8
3630.092	-334.8
3632.874	-353.8
3635.654	-348.8
3638.432	-365.8
3641.208	-380.8
3643.982	-387.8
3646.753	-396.8
3649.523	-408.8
3652.29	-403.8
3655.055	-410.8
3657.818	-438.8
3660.579	-439.8
3663.338	-456.8
3666.095	-461.8
3668.849	-476.8
3671.602	-479.8
3674.352	-487.8
3677.101	-493.8
3679.847	-502.8
3682.591	-511.8
3685.333	-504.8
3688.073	-516.8
3690.811	-520.8
3693.547	-526.8
3696.281	-530.8
3699.013	-536.8
3701.742	-541.8
3704.47	-554.8
3707.195	-556.8
3709.919	-561.8
3712.64	-562.8
3715.359	-562.8
3718.076	-570.8
3720.792	-570.8
3723.505	-568.8
3726.216	-584.8
3728.925	-580.8
3731.632	-581.8
3734.336	-584.8
3737.039	-595.8
3739.74	-589.8
3742.439	-597.8
3745.136	-592.8
3747.83	-596.8
3750.523	-606.8
3753.213	-591.8
3755.902	-604.8
3758.589	-611.8
3761.273	-611.8
3763.956	-615.8
3766.636	-613.8
3769.315	-612.8
3771.991	-617.8
3774.665	-626.8
3777.338	-620.8
3780.008	-622.8
3782.677	-624.8
3785.343	-623.8
3788.007	-620.8
3790.67	-620.8
3793.33	-625.8
3795.989	-631.8
3798.645	-631.8
3801.299	-632.8
3803.952	-634.8
3806.602	-637.8
3809.251	-646.8
3811.897	-641.8
3814.542	-642.8
3817.184	-632.8
3819.825	-629.8
3822.463	-638.8
3825.1	-641.8
3827.735	-634.8
3830.367	-633.8
3832.998	-646.8
3835.627	-649.8
3838.253	-648.8
3840.878	-652.8
3843.501	-651.8
3846.122	-647.8
3848.741	-646.8
3851.358	-647.8
3853.973	-647.8
3856.586	-646.8
3859.197	-652.8
3861.806	-650.8
3864.414	-648.8
3867.019	-644.8
3869.622	-649.8
3872.224	-646.8
3874.823	-626.8
3877.421	-621.8
3880.016	-605.8
3882.61	-585.8
3885.202	-589.8
3887.792	-603.8
3890.38	-625.8
3892.966	-641.8
3895.55	-650.8
3898.132	-661.8
3900.713	-664.8
3903.291	-655.8
3905.868	-659.8
3908.442	-664.8
3911.015	-668.8
3913.586	-667.8
3916.155	-658.8
3918.722	-672.8
3921.287	-663.8
3923.85	-670.8
3926.411	-664.8
3928.971	-671.8
3931.528	-666.8
3934.084	-665.8
3936.638	-662.8
3939.19	-667.8
3941.74	-670.8
3944.288	-671.8
3946.834	-664.8
3949.378	-672.8
3951.921	-666.8
3954.462	-672.8
3957	-661.8
3959.537	-668.8
3962.072	-666.8
3964.606	-662.8
3967.137	-668.8
3969.667	-667.8
3972.194	-656.8
3974.72	-661.8
3977.244	-655.8
3979.766	-656.8
3982.286	-659.8
3984.805	-656.8
3987.321	-654.8
3989.836	-652.8
3992.349	-656.8
3994.86	-646.8
3997.369	-658.8
3999.877	-649.8
4002.382	-647.8
4004.886	-648.8
4007.388	-653.8
4009.888	-650.8
4012.386	-656.8
4014.883	-648.8
4017.377	-649.8
4019.87	-646.8
4022.361	-654.8
4024.85	-651.8
4027.338	-654.8
4029.823	-651.8
4032.307	-656.8
4034.789	-649.8
4037.269	-647.8
4039.747	-658.8
4042.224	-658.8
4044.699	-652.8
4047.172	-657.8
4049.643	-653.8
4052.112	-664.8
4054.58	-659.8
4057.046	-657.8
4059.51	-657.8
4061.972	-653.8
4064.432	-663.8
4066.891	-660.8
4069.348	-659.8
4071.803	-656.8
4074.256	-656.8
4076.708	-658.8
4079.158	-654.8
4081.606	-662.8
4084.052	-660.8
4086.497	-653.8
4088.939	-652.8
4091.38	-658.8
4093.819	-646.8
4096.257	-692.8
4098.693	-692.8
4101.127	-694.8
4103.559	-688.8
4105.989	-408.8
4108.418	-373.8
4110.845	-360.8
4113.27	-339.8
4115.694	-299.8
4118.115	-249.8
4120.535	-653.8
4122.954	-651.8
4125.37	-646.8
4127.785	-653.8
4130.198	-660.8
4132.609	-662.8
4135.019	-694.8
4137.427	-689.8
4139.833	-690.8
4142.237	-688.8
