Data from 2018-2-14_conc=6_n=5_RamanShift_03.txt Node
Date: Wed Feb 14 14:58:55 IST 2018
User: aro
Spectrometer: QEPB0276
Trigger mode: 0
Integration Time (sec): 3.000000E1
Scans to average: 1
Electric dark correction enabled: true
Nonlinearity correction enabled: false
Boxcar width: 0
XAxis mode: Raman Shifts
Number of Pixels in Spectrum: 1044
>>>>>Begin Spectral Data<<<<<
160.701	-145.2
166.742	51.8
172.777	612.8
178.805	2313.8
184.826	6494.8
190.841	13602.8
196.849	21834.8
202.85	27806.8
208.845	29818.8
214.833	29519.8
220.815	29052.8
226.789	28821.8
232.758	28720.8
238.719	28519.8
244.674	28120.8
250.623	27555.8
256.565	27038.8
262.5	26468.8
268.429	25989.8
274.351	25611.8
280.267	25223.8
286.176	24961.8
292.079	24719.8
297.975	24508.8
303.865	24342.8
309.748	24245.8
315.625	24012.8
321.495	23838.8
327.359	23758.8
333.217	23753.8
339.068	23708.8
344.912	23732.8
350.751	23678.8
356.583	23621.8
362.408	23661.8
368.227	23661.8
374.04	23691.8
379.847	23719.8
385.647	23805.8
391.44	23932.8
397.228	23982.8
403.009	24077.8
408.784	24151.8
414.553	24221.8
420.315	24272.8
426.071	24300.8
431.821	24209.8
437.565	24221.8
443.302	24229.8
449.033	24148.8
454.758	24136.8
460.477	24011.8
466.189	23919.8
471.896	23928.8
477.596	23885.8
483.29	23798.8
488.978	23760.8
494.66	23660.8
500.335	23585.8
506.005	23323.8
511.668	22972.8
517.325	22706.8
522.977	22499.8
528.622	22366.8
534.261	22190.8
539.894	22138.8
545.521	22019.8
551.141	21873.8
556.756	21863.8
562.365	21719.8
567.968	21627.8
573.565	21520.8
579.155	21507.8
584.74	21398.8
590.319	21335.8
595.892	21261.8
601.459	21142.8
607.02	21053.8
612.575	21001.8
618.124	20804.8
623.667	20679.8
629.204	20587.8
634.735	20454.8
640.261	20431.8
645.781	20330.8
651.294	20286.8
656.802	20259.8
662.304	20205.8
667.8	20140.8
673.29	20114.8
678.775	20072.8
684.254	20047.8
689.726	19993.8
695.193	19900.8
700.655	19729.8
706.11	19717.8
711.56	19619.8
717.004	19543.8
722.442	19409.8
727.874	19321.8
733.301	19222.8
738.722	19265.8
744.137	19211.8
749.547	19143.8
754.951	19157.8
760.349	19180.8
765.741	19156.8
771.128	19217.8
776.509	19218.8
781.885	19209.8
787.254	19090.8
792.618	19027.8
797.977	18972.8
803.33	18797.8
808.677	18687.8
814.019	18602.8
819.355	18501.8
824.686	18457.8
830.011	18378.8
835.33	18324.8
840.644	18426.8
845.952	18440.8
851.255	18414.8
856.552	18423.8
861.844	18475.8
867.13	18376.8
872.41	18353.8
877.686	18171.8
882.955	18048.8
888.219	17941.8
893.478	17733.8
898.731	17454.8
903.979	17301.8
909.221	17155.8
914.458	17127.8
919.69	17142.8
924.916	17106.8
930.136	17201.8
935.351	17183.8
940.561	17230.8
945.766	17138.8
950.965	17095.8
956.158	16997.8
961.347	16802.8
966.529	16528.8
971.707	16375.8
976.879	16122.8
982.046	16071.8
987.208	16014.8
992.364	16007.8
997.515	16077.8
1002.66	16238.8
1007.801	16406.8
1012.936	16481.8
1018.066	16529.8
1023.19	16527.8
1028.309	16486.8
1033.423	16462.8
1038.532	16389.8
1043.636	16241.8
1048.734	16085.8
1053.827	15861.8
1058.915	15681.8
1063.998	15564.8
1069.075	15509.8
1074.147	15523.8
1079.214	15589.8
1084.276	15689.8
1089.333	15812.8
1094.385	15851.8
1099.431	15874.8
1104.472	15885.8
1109.509	15811.8
1114.54	15595.8
1119.565	15413.8
1124.586	15183.8
1129.602	15022.8
1134.613	14991.8
1139.618	14865.8
1144.619	14794.8
1149.614	14818.8
1154.604	14850.8
1159.589	14890.8
1164.57	14931.8
1169.545	14974.8
1174.515	14892.8
1179.48	14847.8
1184.44	14750.8
1189.395	14664.8
1194.345	14537.8
1199.29	14451.8
1204.23	14451.8
1209.165	14508.8
1214.095	14582.8
1219.021	14651.8
1223.941	14737.8
1228.856	14786.8
1233.766	14769.8
1238.672	14784.8
1243.572	14840.8
1248.467	14694.8
1253.358	14583.8
1258.244	14361.8
1263.124	14144.8
1268	13877.8
1272.871	13762.8
1277.737	13707.8
1282.599	13572.8
1287.455	13593.8
1292.306	13610.8
1297.153	13637.8
1301.995	13730.8
1306.832	13731.8
1311.664	13779.8
1316.491	13720.8
1321.314	13592.8
1326.132	13348.8
1330.945	13072.8
1335.753	12732.8
1340.556	12412.8
1345.354	12141.8
1350.148	12027.8
1354.937	11877.8
1359.722	11876.8
1364.501	12006.8
1369.276	12149.8
1374.046	12269.8
1378.811	12455.8
1383.572	12591.8
1388.327	12581.8
1393.079	12534.8
1397.825	12403.8
1402.567	12228.8
1407.304	12018.8
1412.036	11931.8
1416.764	11819.8
1421.487	11768.8
1426.205	11701.8
1430.919	11652.8
1435.628	11647.8
1440.333	11662.8
1445.032	11723.8
1449.727	11737.8
1454.418	11746.8
1459.104	11598.8
1463.785	11345.8
1468.462	11143.8
1473.134	10905.8
1477.802	10640.8
1482.465	10483.8
1487.123	10320.8
1491.777	10354.8
1496.426	10408.8
1501.071	10547.8
1505.711	10654.8
1510.347	10826.8
1514.978	11068.8
1519.604	11197.8
1524.226	11273.8
1528.844	11351.8
1533.457	11306.8
1538.065	11257.8
1542.669	11161.8
1547.269	11083.8
1551.864	11014.8
1556.454	10962.8
1561.041	10983.8
1565.622	11001.8
1570.199	11000.8
1574.772	11024.8
1579.34	11087.8
1583.904	11149.8
1588.464	11231.8
1593.019	11199.8
1597.569	11131.8
1602.115	11125.8
1606.657	11036.8
1611.195	10995.8
1615.728	10922.8
1620.256	10822.8
1624.78	10811.8
1629.3	10877.8
1633.816	10867.8
1638.327	10898.8
1642.834	10951.8
1647.336	11013.8
1651.834	11050.8
1656.328	11004.8
1660.817	10929.8
1665.302	10837.8
1669.783	10645.8
1674.259	10414.8
1678.732	10129.8
1683.199	9739.8
1687.663	9425.8
1692.122	9140.8
1696.577	8987.8
1701.028	9006.8
1705.474	9078.8
1709.917	9131.8
1714.355	9205.8
1718.788	9113.8
1723.218	8984.8
1727.643	8833.8
1732.064	8694.8
1736.481	8473.8
1740.893	8225.8
1745.301	8021.8
1749.705	7840.8
1754.105	7592.8
1758.501	7371.8
1762.893	7159.8
1767.28	7029.8
1771.663	6837.8
1776.042	6696.8
1780.417	6652.8
1784.787	6668.8
1789.154	6762.8
1793.516	6876.8
1797.874	7000.8
1802.228	7134.8
1806.578	7197.8
1810.924	7223.8
1815.266	7133.8
1819.603	7046.8
1823.937	6918.8
1828.266	6776.8
1832.591	6695.8
1836.913	6605.8
1841.23	6524.8
1845.543	6505.8
1849.852	6492.8
1854.156	6435.8
1858.457	6425.8
1862.754	6383.8
1867.047	6398.8
1871.335	6392.8
1875.62	6388.8
1879.9	6357.8
1884.177	6304.8
1888.449	6268.8
1892.718	6176.8
1896.982	6089.8
1901.243	6067.8
1905.499	6032.8
1909.752	6014.8
1914	6016.8
1918.245	5997.8
1922.485	6063.8
1926.722	6133.8
1930.954	6240.8
1935.183	6282.8
1939.408	6353.8
1943.628	6372.8
1947.845	6393.8
1952.058	6410.8
1956.267	6325.8
1960.472	6232.8
1964.673	6110.8
1968.87	6064.8
1973.063	5954.8
1977.252	5867.8
1981.438	5836.8
1985.619	5743.8
1989.797	5720.8
1993.971	5669.8
1998.14	5626.8
2002.306	5654.8
2006.469	5598.8
2010.627	5589.8
2014.781	5512.8
2018.932	5482.8
2023.078	5455.8
2027.221	5377.8
2031.36	5302.8
2035.495	5217.8
2039.627	5125.8
2043.754	5061.8
2047.878	5035.8
2051.998	4996.8
2056.114	4961.8
2060.226	4947.8
2064.334	4961.8
2068.439	5006.8
2072.54	5031.8
2076.637	5047.8
2080.73	5086.8
2084.82	5086.8
2088.906	5106.8
2092.988	5126.8
2097.066	5097.8
2101.14	5069.8
2105.211	5039.8
2109.278	5012.8
2113.342	4952.8
2117.401	4949.8
2121.457	4894.8
2125.509	4914.8
2129.558	4888.8
2133.602	4807.8
2137.643	4827.8
2141.681	4807.8
2145.714	4771.8
2149.744	4757.8
2153.77	4684.8
2157.793	4641.8
2161.812	4577.8
2165.827	4525.8
2169.838	4477.8
2173.846	4418.8
2177.851	4300.8
2181.851	4239.8
2185.848	4204.8
2189.841	4127.8
2193.831	4114.8
2197.817	4064.8
2201.799	4028.8
2205.778	4038.8
2209.753	4009.8
2213.725	4011.8
2217.693	4011.8
2221.657	3992.8
2225.618	3959.8
2229.575	3939.8
2233.529	3931.8
2237.479	3889.8
2241.425	3823.8
2245.368	3786.8
2249.307	3723.8
2253.243	3667.8
2257.175	3623.8
2261.104	3575.8
2265.029	3547.8
2268.95	3497.8
2272.868	3454.8
2276.783	3409.8
2280.694	3397.8
2284.601	3355.8
2288.505	3312.8
2292.405	3275.8
2296.302	3233.8
2300.195	3226.8
2304.085	3187.8
2307.971	3151.8
2311.854	3097.8
2315.734	3033.8
2319.609	3012.8
2323.482	2962.8
2327.351	2937.8
2331.216	2924.8
2335.078	2904.8
2338.937	2883.8
2342.792	2866.8
2346.643	2856.8
2350.492	2835.8
2354.336	2850.8
2358.178	2860.8
2362.015	2852.8
2365.85	2848.8
2369.681	2844.8
2373.508	2871.8
2377.333	2869.8
2381.153	2851.8
2384.971	2842.8
2388.785	2819.8
2392.595	2771.8
2396.402	2777.8
2400.206	2730.8
2404.007	2715.8
2407.804	2699.8
2411.597	2677.8
2415.388	2669.8
2419.174	2645.8
2422.958	2617.8
2426.738	2598.8
2430.515	2570.8
2434.289	2566.8
2438.059	2552.8
2441.825	2550.8
2445.589	2507.8
2449.349	2478.8
2453.106	2468.8
2456.859	2408.8
2460.61	2373.8
2464.356	2340.8
2468.1	2309.8
2471.84	2283.8
2475.577	2288.8
2479.311	2274.8
2483.041	2267.8
2486.768	2234.8
2490.492	2229.8
2494.213	2225.8
2497.93	2221.8
2501.644	2203.8
2505.355	2171.8
2509.062	2205.8
2512.766	2192.8
2516.467	2160.8
2520.165	2179.8
2523.859	2113.8
2527.551	2119.8
2531.239	2102.8
2534.923	2075.8
2538.605	2086.8
2542.283	2088.8
2545.958	2069.8
2549.63	2069.8
2553.299	2073.8
2556.964	2063.8
2560.626	2045.8
2564.285	2026.8
2567.941	2056.8
2571.594	2024.8
2575.243	1998.8
2578.89	1998.8
2582.533	1996.8
2586.173	1961.8
2589.809	1946.8
2593.443	1916.8
2597.073	1911.8
2600.701	1888.8
2604.325	1872.8
2607.946	1864.8
2611.564	1847.8
2615.178	1865.8
2618.79	1834.8
2622.398	1833.8
2626.004	1802.8
2629.606	1775.8
2633.205	1735.8
2636.801	1729.8
2640.394	1710.8
2643.983	1662.8
2647.57	1674.8
2651.153	1641.8
2654.734	1605.8
2658.311	1569.8
2661.885	1551.8
2665.456	1530.8
2669.025	1527.8
2672.589	1495.8
2676.151	1463.8
2679.71	1463.8
2683.266	1417.8
2686.819	1406.8
2690.368	1374.8
2693.915	1361.8
2697.458	1335.8
2700.999	1288.8
2704.536	1261.8
2708.071	1222.8
2711.602	1195.8
2715.13	1183.8
2718.656	1152.8
2722.178	1142.8
2725.697	1123.8
2729.214	1104.8
2732.727	1123.8
2736.237	1098.8
2739.744	1089.8
2743.249	1099.8
2746.75	1100.8
2750.248	1120.8
2753.743	1142.8
2757.236	1137.8
2760.725	1153.8
2764.211	1165.8
2767.695	1186.8
2771.175	1157.8
2774.652	1150.8
2778.127	1160.8
2781.598	1142.8
2785.067	1131.8
2788.532	1123.8
2791.995	1116.8
2795.455	1134.8
2798.911	1127.8
2802.365	1126.8
2805.816	1120.8
2809.264	1120.8
2812.709	1123.8
2816.151	1109.8
2819.59	1127.8
2823.026	1135.8
2826.46	1121.8
2829.89	1130.8
2833.318	1143.8
2836.742	1148.8
2840.164	1152.8
2843.583	1141.8
2846.999	1153.8
2850.412	1157.8
2853.822	1195.8
2857.229	1197.8
2860.634	1209.8
2864.035	1238.8
2867.434	1257.8
2870.83	1280.8
2874.223	1295.8
2877.613	1330.8
2881	1334.8
2884.385	1341.8
2887.766	1340.8
2891.145	1332.8
2894.521	1344.8
2897.894	1345.8
2901.264	1339.8
2904.631	1318.8
2907.996	1342.8
2911.358	1344.8
2914.717	1354.8
2918.073	1366.8
2921.426	1395.8
2924.777	1380.8
2928.124	1419.8
2931.469	1423.8
2934.811	1462.8
2938.15	1500.8
2941.487	1498.8
2944.821	1492.8
2948.152	1482.8
2951.48	1491.8
2954.805	1437.8
2958.128	1439.8
2961.447	1451.8
2964.765	1430.8
2968.079	1440.8
2971.39	1449.8
2974.699	1490.8
2978.005	1507.8
2981.308	1516.8
2984.609	1553.8
2987.907	1569.8
2991.202	1581.8
2994.494	1627.8
2997.784	1669.8
3001.07	1701.8
3004.355	1717.8
3007.636	1742.8
3010.915	1761.8
3014.191	1779.8
3017.464	1794.8
3020.734	1808.8
3024.002	1824.8
3027.267	1851.8
3030.53	1827.8
3033.789	1881.8
3037.046	1906.8
3040.301	1927.8
3043.552	1969.8
3046.801	1980.8
3050.048	2028.8
3053.291	2109.8
3056.532	2159.8
3059.771	2199.8
3063.006	2266.8
3066.239	2331.8
3069.469	2398.8
3072.697	2468.8
3075.922	2522.8
3079.144	2561.8
3082.364	2646.8
3085.581	2710.8
3088.795	2749.8
3092.007	2816.8
3095.216	2889.8
3098.423	2897.8
3101.627	2997.8
3104.828	3072.8
3108.026	3112.8
3111.222	3165.8
3114.416	3276.8
3117.607	3317.8
3120.795	3407.8
3123.98	3488.8
3127.163	3600.8
3130.344	3664.8
3133.521	3757.8
3136.696	3804.8
3139.869	3873.8
3143.039	3968.8
3146.206	4052.8
3149.371	4067.8
3152.533	4095.8
3155.693	4138.8
3158.85	4158.8
3162.005	4186.8
3165.157	4206.8
3168.306	4236.8
3171.453	4228.8
3174.597	4260.8
3177.739	4256.8
3180.878	4237.8
3184.014	4247.8
3187.149	4239.8
3190.28	4259.8
3193.409	4257.8
3196.536	4280.8
3199.659	4291.8
3202.781	4252.8
3205.9	4272.8
3209.016	4269.8
3212.13	4245.8
3215.241	4222.8
3218.35	4196.8
3221.456	4145.8
3224.56	4076.8
3227.661	4029.8
3230.76	3993.8
3233.856	3944.8
3236.95	3909.8
3240.041	3870.8
3243.13	3873.8
3246.216	3802.8
3249.3	3799.8
3252.382	3783.8
3255.46	3755.8
3258.537	3726.8
3261.611	3792.8
3264.682	3755.8
3267.751	3749.8
3270.818	3753.8
3273.882	3730.8
3276.943	3746.8
3280.002	3700.8
3283.059	3680.8
3286.113	3598.8
3289.165	3549.8
3292.214	3516.8
3295.261	3476.8
3298.306	3428.8
3301.348	3364.8
3304.387	3315.8
3307.425	3247.8
3310.459	3222.8
3313.492	3188.8
3316.521	3111.8
3319.549	3105.8
3322.574	3068.8
3325.597	3049.8
3328.617	3004.8
3331.635	3001.8
3334.65	2980.8
3337.663	2962.8
3340.674	2961.8
3343.682	2920.8
3346.688	2934.8
3349.691	2910.8
3352.692	2905.8
3355.691	2876.8
3358.687	2847.8
3361.681	2806.8
3364.673	2802.8
3367.662	2745.8
3370.649	2692.8
3373.633	2646.8
3376.615	2624.8
3379.595	2596.8
3382.572	2579.8
3385.547	2505.8
3388.52	2472.8
3391.49	2446.8
3394.458	2396.8
3397.424	2347.8
3400.387	2333.8
3403.348	2300.8
3406.307	2286.8
3409.263	2277.8
3412.217	2247.8
3415.168	2207.8
3418.118	2155.8
3421.065	2141.8
3424.009	2112.8
3426.951	2077.8
3429.891	2057.8
3432.829	2004.8
3435.764	1939.8
3438.697	1909.8
3441.628	1848.8
3444.557	1808.8
3447.483	1727.8
3450.407	1677.8
3453.328	1632.8
3456.247	1561.8
3459.164	1547.8
3462.079	1454.8
3464.991	1413.8
3467.902	1361.8
3470.809	1303.8
3473.715	1261.8
3476.618	1218.8
3479.519	1169.8
3482.418	1129.8
3485.315	1102.8
3488.209	1031.8
3491.101	1020.8
3493.99	972.8
3496.878	950.8
3499.763	883.8
3502.646	864.8
3505.527	825.8
3508.405	797.8
3511.281	737.8
3514.155	699.8
3517.027	667.8
3519.897	610.8
3522.764	569.8
3525.629	537.8
3528.492	487.8
3531.352	448.8
3534.211	401.8
3537.067	361.8
3539.921	325.8
3542.773	292.8
3545.622	263.8
3548.469	229.8
3551.315	188.8
3554.157	165.8
3556.998	132.8
3559.837	104.8
3562.673	87.8
3565.507	64.8
3568.339	35.8
3571.169	31.8
3573.996	9.8
3576.822	-17.2
3579.645	-48.2
3582.466	-69.2
3585.285	-83.2
3588.101	-107.2
3590.916	-124.2
3593.728	-145.2
3596.538	-165.2
3599.346	-190.2
3602.152	-204.2
3604.956	-210.2
3607.757	-238.2
3610.556	-254.2
3613.354	-266.2
3616.149	-280.2
3618.942	-291.2
3621.732	-305.2
3624.521	-320.2
3627.307	-328.2
3630.092	-342.2
3632.874	-354.2
3635.654	-368.2
3638.432	-365.2
3641.208	-380.2
3643.982	-396.2
3646.753	-395.2
3649.523	-414.2
3652.29	-424.2
3655.055	-419.2
3657.818	-437.2
3660.579	-451.2
3663.338	-460.2
3666.095	-470.2
3668.849	-476.2
3671.602	-485.2
3674.352	-492.2
3677.101	-498.2
3679.847	-508.2
3682.591	-516.2
3685.333	-527.2
3688.073	-526.2
3690.811	-537.2
3693.547	-539.2
3696.281	-545.2
3699.013	-550.2
3701.742	-560.2
3704.47	-562.2
3707.195	-572.2
3709.919	-570.2
3712.64	-581.2
3715.359	-577.2
3718.076	-583.2
3720.792	-580.2
3723.505	-587.2
3726.216	-595.2
3728.925	-598.2
3731.632	-602.2
3734.336	-604.2
3737.039	-599.2
3739.74	-604.2
3742.439	-615.2
3745.136	-613.2
3747.83	-609.2
3750.523	-614.2
3753.213	-614.2
3755.902	-624.2
3758.589	-615.2
3761.273	-625.2
3763.956	-627.2
3766.636	-630.2
3769.315	-633.2
3771.991	-635.2
3774.665	-641.2
3777.338	-637.2
3780.008	-639.2
3782.677	-646.2
3785.343	-638.2
3788.007	-640.2
3790.67	-641.2
3793.33	-638.2
3795.989	-651.2
3798.645	-642.2
3801.299	-643.2
3803.952	-648.2
3806.602	-654.2
3809.251	-658.2
3811.897	-654.2
3814.542	-657.2
3817.184	-650.2
3819.825	-650.2
3822.463	-648.2
3825.1	-661.2
3827.735	-653.2
3830.367	-650.2
3832.998	-662.2
3835.627	-664.2
3838.253	-668.2
3840.878	-669.2
3843.501	-666.2
3846.122	-657.2
3848.741	-665.2
3851.358	-662.2
3853.973	-666.2
3856.586	-667.2
3859.197	-666.2
3861.806	-671.2
3864.414	-667.2
3867.019	-667.2
3869.622	-664.2
3872.224	-653.2
3874.823	-648.2
3877.421	-632.2
3880.016	-614.2
3882.61	-588.2
3885.202	-579.2
3887.792	-594.2
3890.38	-637.2
3892.966	-657.2
3895.55	-661.2
3898.132	-681.2
3900.713	-680.2
3903.291	-680.2
3905.868	-678.2
3908.442	-678.2
3911.015	-683.2
3913.586	-678.2
3916.155	-680.2
3918.722	-680.2
3921.287	-681.2
3923.85	-687.2
3926.411	-685.2
3928.971	-694.2
3931.528	-689.2
3934.084	-684.2
3936.638	-683.2
3939.19	-684.2
3941.74	-681.2
3944.288	-685.2
3946.834	-679.2
3949.378	-681.2
3951.921	-680.2
3954.462	-684.2
3957	-680.2
3959.537	-688.2
3962.072	-681.2
3964.606	-682.2
3967.137	-686.2
3969.667	-683.2
3972.194	-677.2
3974.72	-685.2
3977.244	-671.2
3979.766	-673.2
3982.286	-674.2
3984.805	-670.2
3987.321	-668.2
3989.836	-671.2
3992.349	-667.2
3994.86	-668.2
3997.369	-674.2
3999.877	-667.2
4002.382	-670.2
4004.886	-667.2
4007.388	-664.2
4009.888	-665.2
4012.386	-669.2
4014.883	-664.2
4017.377	-665.2
4019.87	-664.2
4022.361	-665.2
4024.85	-671.2
4027.338	-670.2
4029.823	-667.2
4032.307	-671.2
4034.789	-669.2
4037.269	-669.2
4039.747	-673.2
4042.224	-672.2
4044.699	-676.2
4047.172	-671.2
4049.643	-670.2
4052.112	-678.2
4054.58	-680.2
4057.046	-678.2
4059.51	-674.2
4061.972	-668.2
4064.432	-673.2
4066.891	-672.2
4069.348	-666.2
4071.803	-667.2
4074.256	-670.2
4076.708	-665.2
4079.158	-673.2
4081.606	-671.2
4084.052	-674.2
4086.497	-666.2
4088.939	-667.2
4091.38	-668.2
4093.819	-669.2
4096.257	-703.2
4098.693	-707.2
4101.127	-706.2
4103.559	-705.2
4105.989	-409.2
4108.418	-384.2
4110.845	-363.2
4113.27	-334.2
4115.694	-292.2
4118.115	-238.2
4120.535	-665.2
4122.954	-675.2
4125.37	-664.2
4127.785	-672.2
4130.198	-675.2
4132.609	-677.2
4135.019	-708.2
4137.427	-710.2
4139.833	-708.2
4142.237	-706.2
