Data from 2018-2-14_conc=4_n=1_RamanShift_03.txt Node
Date: Wed Feb 14 13:25:55 IST 2018
User: aro
Spectrometer: QEPB0276
Trigger mode: 0
Integration Time (sec): 3.000000E1
Scans to average: 1
Electric dark correction enabled: true
Nonlinearity correction enabled: false
Boxcar width: 0
XAxis mode: Raman Shifts
Number of Pixels in Spectrum: 1044
>>>>>Begin Spectral Data<<<<<
160.701	-158.2
166.742	37.8
172.777	608.8
178.805	2379.8
184.826	6535.8
190.841	13678.8
196.849	21875.8
202.85	27489.8
208.845	29309.8
214.833	28928.8
220.815	28428.8
226.789	28316.8
232.758	28148.8
238.719	27998.8
244.674	27624.8
250.623	27090.8
256.565	26618.8
262.5	26034.8
268.429	25510.8
274.351	25149.8
280.267	24838.8
286.176	24598.8
292.079	24336.8
297.975	24062.8
303.865	23871.8
309.748	23792.8
315.625	23578.8
321.495	23506.8
327.359	23385.8
333.217	23317.8
339.068	23296.8
344.912	23281.8
350.751	23258.8
356.583	23202.8
362.408	23195.8
368.227	23167.8
374.04	23266.8
379.847	23246.8
385.647	23368.8
391.44	23518.8
397.228	23575.8
403.009	23723.8
408.784	23740.8
414.553	23825.8
420.315	23900.8
426.071	23916.8
431.821	23901.8
437.565	23790.8
443.302	23776.8
449.033	23730.8
454.758	23687.8
460.477	23696.8
466.189	23647.8
471.896	23570.8
477.596	23528.8
483.29	23507.8
488.978	23429.8
494.66	23347.8
500.335	23208.8
506.005	22974.8
511.668	22715.8
517.325	22467.8
522.977	22290.8
528.622	22061.8
534.261	21963.8
539.894	21812.8
545.521	21720.8
551.141	21682.8
556.756	21617.8
562.365	21502.8
567.968	21425.8
573.565	21315.8
579.155	21221.8
584.74	21179.8
590.319	21111.8
595.892	21066.8
601.459	20985.8
607.02	20880.8
612.575	20697.8
618.124	20637.8
623.667	20535.8
629.204	20470.8
634.735	20341.8
640.261	20204.8
645.781	20085.8
651.294	20159.8
656.802	20068.8
662.304	20002.8
667.8	20050.8
673.29	20026.8
678.775	19914.8
684.254	19836.8
689.726	19842.8
695.193	19715.8
700.655	19669.8
706.11	19602.8
711.56	19460.8
717.004	19403.8
722.442	19270.8
727.874	19247.8
733.301	19195.8
738.722	19051.8
744.137	19021.8
749.547	18993.8
754.951	19073.8
760.349	19049.8
765.741	19102.8
771.128	19054.8
776.509	19106.8
781.885	19085.8
787.254	19026.8
792.618	18908.8
797.977	18816.8
803.33	18737.8
808.677	18611.8
814.019	18500.8
819.355	18357.8
824.686	18351.8
830.011	18376.8
835.33	18300.8
840.644	18272.8
845.952	18313.8
851.255	18385.8
856.552	18388.8
861.844	18390.8
867.13	18291.8
872.41	18236.8
877.686	18110.8
882.955	18034.8
888.219	17819.8
893.478	17625.8
898.731	17450.8
903.979	17294.8
909.221	17144.8
914.458	17078.8
919.69	17076.8
924.916	17165.8
930.136	17161.8
935.351	17191.8
940.561	17181.8
945.766	17178.8
950.965	17089.8
956.158	16948.8
961.347	16767.8
966.529	16546.8
971.707	16346.8
976.879	16209.8
982.046	16052.8
987.208	16010.8
992.364	16004.8
997.515	16096.8
1002.66	16191.8
1007.801	16413.8
1012.936	16567.8
1018.066	16521.8
1023.19	16494.8
1028.309	16542.8
1033.423	16452.8
1038.532	16388.8
1043.636	16217.8
1048.734	16027.8
1053.827	15882.8
1058.915	15664.8
1063.998	15585.8
1069.075	15503.8
1074.147	15558.8
1079.214	15596.8
1084.276	15665.8
1089.333	15775.8
1094.385	15840.8
1099.431	15900.8
1104.472	15884.8
1109.509	15827.8
1114.54	15647.8
1119.565	15442.8
1124.586	15191.8
1129.602	15063.8
1134.613	14974.8
1139.618	14904.8
1144.619	14890.8
1149.614	14865.8
1154.604	14877.8
1159.589	14953.8
1164.57	14941.8
1169.545	15014.8
1174.515	14967.8
1179.48	14907.8
1184.44	14825.8
1189.395	14697.8
1194.345	14550.8
1199.29	14544.8
1204.23	14443.8
1209.165	14533.8
1214.095	14680.8
1219.021	14762.8
1223.941	14780.8
1228.856	14901.8
1233.766	14914.8
1238.672	14950.8
1243.572	14901.8
1248.467	14790.8
1253.358	14697.8
1258.244	14455.8
1263.124	14254.8
1268	14048.8
1272.871	13866.8
1277.737	13779.8
1282.599	13692.8
1287.455	13693.8
1292.306	13704.8
1297.153	13762.8
1301.995	13835.8
1306.832	13881.8
1311.664	13941.8
1316.491	13842.8
1321.314	13726.8
1326.132	13557.8
1330.945	13254.8
1335.753	12930.8
1340.556	12578.8
1345.354	12345.8
1350.148	12126.8
1354.937	12044.8
1359.722	12038.8
1364.501	12142.8
1369.276	12255.8
1374.046	12419.8
1378.811	12666.8
1383.572	12817.8
1388.327	12889.8
1393.079	12776.8
1397.825	12611.8
1402.567	12386.8
1407.304	12263.8
1412.036	12133.8
1416.764	12071.8
1421.487	11924.8
1426.205	11880.8
1430.919	11847.8
1435.628	11833.8
1440.333	11828.8
1445.032	11841.8
1449.727	11949.8
1454.418	11919.8
1459.104	11758.8
1463.785	11538.8
1468.462	11270.8
1473.134	11099.8
1477.802	10867.8
1482.465	10648.8
1487.123	10564.8
1491.777	10582.8
1496.426	10588.8
1501.071	10715.8
1505.711	10887.8
1510.347	11113.8
1514.978	11353.8
1519.604	11476.8
1524.226	11605.8
1528.844	11586.8
1533.457	11628.8
1538.065	11563.8
1542.669	11462.8
1547.269	11400.8
1551.864	11298.8
1556.454	11245.8
1561.041	11244.8
1565.622	11230.8
1570.199	11207.8
1574.772	11247.8
1579.34	11324.8
1583.904	11389.8
1588.464	11418.8
1593.019	11401.8
1597.569	11395.8
1602.115	11294.8
1606.657	11237.8
1611.195	11152.8
1615.728	11087.8
1620.256	10986.8
1624.78	11017.8
1629.3	11035.8
1633.816	11017.8
1638.327	11133.8
1642.834	11158.8
1647.336	11242.8
1651.834	11231.8
1656.328	11162.8
1660.817	11185.8
1665.302	11051.8
1669.783	10869.8
1674.259	10655.8
1678.732	10319.8
1683.199	10016.8
1687.663	9630.8
1692.122	9398.8
1696.577	9201.8
1701.028	9195.8
1705.474	9328.8
1709.917	9392.8
1714.355	9489.8
1718.788	9422.8
1723.218	9286.8
1727.643	9058.8
1732.064	8936.8
1736.481	8728.8
1740.893	8493.8
1745.301	8259.8
1749.705	8080.8
1754.105	7824.8
1758.501	7664.8
1762.893	7389.8
1767.28	7251.8
1771.663	7033.8
1776.042	6958.8
1780.417	6897.8
1784.787	6857.8
1789.154	6928.8
1793.516	7076.8
1797.874	7235.8
1802.228	7361.8
1806.578	7447.8
1810.924	7461.8
1815.266	7397.8
1819.603	7293.8
1823.937	7172.8
1828.266	7057.8
1832.591	6903.8
1836.913	6850.8
1841.23	6744.8
1845.543	6736.8
1849.852	6665.8
1854.156	6643.8
1858.457	6654.8
1862.754	6642.8
1867.047	6589.8
1871.335	6602.8
1875.62	6561.8
1879.9	6593.8
1884.177	6504.8
1888.449	6459.8
1892.718	6390.8
1896.982	6356.8
1901.243	6272.8
1905.499	6198.8
1909.752	6214.8
1914	6227.8
1918.245	6243.8
1922.485	6302.8
1926.722	6333.8
1930.954	6460.8
1935.183	6483.8
1939.408	6566.8
1943.628	6610.8
1947.845	6615.8
1952.058	6602.8
1956.267	6562.8
1960.472	6464.8
1964.673	6398.8
1968.87	6273.8
1973.063	6163.8
1977.252	6087.8
1981.438	6038.8
1985.619	5950.8
1989.797	5901.8
1993.971	5871.8
1998.14	5856.8
2002.306	5785.8
2006.469	5793.8
2010.627	5738.8
2014.781	5727.8
2018.932	5660.8
2023.078	5622.8
2027.221	5548.8
2031.36	5463.8
2035.495	5353.8
2039.627	5291.8
2043.754	5262.8
2047.878	5170.8
2051.998	5124.8
2056.114	5126.8
2060.226	5121.8
2064.334	5119.8
2068.439	5129.8
2072.54	5201.8
2076.637	5193.8
2080.73	5256.8
2084.82	5273.8
2088.906	5311.8
2092.988	5266.8
2097.066	5275.8
2101.14	5271.8
2105.211	5187.8
2109.278	5182.8
2113.342	5153.8
2117.401	5137.8
2121.457	5093.8
2125.509	5078.8
2129.558	5068.8
2133.602	5003.8
2137.643	4988.8
2141.681	4937.8
2145.714	4934.8
2149.744	4916.8
2153.77	4858.8
2157.793	4793.8
2161.812	4750.8
2165.827	4676.8
2169.838	4598.8
2173.846	4546.8
2177.851	4460.8
2181.851	4414.8
2185.848	4345.8
2189.841	4292.8
2193.831	4246.8
2197.817	4235.8
2201.799	4203.8
2205.778	4179.8
2209.753	4178.8
2213.725	4145.8
2217.693	4167.8
2221.657	4121.8
2225.618	4092.8
2229.575	4091.8
2233.529	4053.8
2237.479	4034.8
2241.425	3999.8
2245.368	3915.8
2249.307	3879.8
2253.243	3806.8
2257.175	3778.8
2261.104	3707.8
2265.029	3690.8
2268.95	3643.8
2272.868	3590.8
2276.783	3555.8
2280.694	3540.8
2284.601	3498.8
2288.505	3440.8
2292.405	3436.8
2296.302	3396.8
2300.195	3328.8
2304.085	3317.8
2307.971	3280.8
2311.854	3214.8
2315.734	3143.8
2319.609	3118.8
2323.482	3085.8
2327.351	3040.8
2331.216	3045.8
2335.078	3009.8
2338.937	2997.8
2342.792	2941.8
2346.643	2966.8
2350.492	2952.8
2354.336	2958.8
2358.178	2993.8
2362.015	2965.8
2365.85	2962.8
2369.681	2970.8
2373.508	2991.8
2377.333	2978.8
2381.153	2947.8
2384.971	2925.8
2388.785	2940.8
2392.595	2875.8
2396.402	2854.8
2400.206	2829.8
2404.007	2823.8
2407.804	2788.8
2411.597	2804.8
2415.388	2762.8
2419.174	2742.8
2422.958	2734.8
2426.738	2745.8
2430.515	2685.8
2434.289	2664.8
2438.059	2632.8
2441.825	2607.8
2445.589	2585.8
2449.349	2570.8
2453.106	2545.8
2456.859	2502.8
2460.61	2479.8
2464.356	2432.8
2468.1	2404.8
2471.84	2387.8
2475.577	2398.8
2479.311	2371.8
2483.041	2371.8
2486.768	2359.8
2490.492	2324.8
2494.213	2349.8
2497.93	2332.8
2501.644	2281.8
2505.355	2291.8
2509.062	2272.8
2512.766	2291.8
2516.467	2248.8
2520.165	2248.8
2523.859	2220.8
2527.551	2217.8
2531.239	2169.8
2534.923	2183.8
2538.605	2172.8
2542.283	2184.8
2545.958	2169.8
2549.63	2173.8
2553.299	2177.8
2556.964	2158.8
2560.626	2147.8
2564.285	2139.8
2567.941	2131.8
2571.594	2124.8
2575.243	2100.8
2578.89	2088.8
2582.533	2079.8
2586.173	2048.8
2589.809	2021.8
2593.443	2007.8
2597.073	1982.8
2600.701	1985.8
2604.325	1946.8
2607.946	1964.8
2611.564	1932.8
2615.178	1934.8
2618.79	1925.8
2622.398	1926.8
2626.004	1858.8
2629.606	1851.8
2633.205	1836.8
2636.801	1811.8
2640.394	1791.8
2643.983	1764.8
2647.57	1744.8
2651.153	1707.8
2654.734	1645.8
2658.311	1652.8
2661.885	1634.8
2665.456	1607.8
2669.025	1568.8
2672.589	1549.8
2676.151	1531.8
2679.71	1517.8
2683.266	1512.8
2686.819	1463.8
2690.368	1462.8
2693.915	1410.8
2697.458	1374.8
2700.999	1357.8
2704.536	1331.8
2708.071	1291.8
2711.602	1265.8
2715.13	1235.8
2718.656	1212.8
2722.178	1196.8
2725.697	1172.8
2729.214	1183.8
2732.727	1154.8
2736.237	1139.8
2739.744	1143.8
2743.249	1152.8
2746.75	1154.8
2750.248	1187.8
2753.743	1189.8
2757.236	1188.8
2760.725	1214.8
2764.211	1213.8
2767.695	1221.8
2771.175	1233.8
2774.652	1209.8
2778.127	1207.8
2781.598	1192.8
2785.067	1205.8
2788.532	1192.8
2791.995	1152.8
2795.455	1166.8
2798.911	1167.8
2802.365	1201.8
2805.816	1173.8
2809.264	1171.8
2812.709	1182.8
2816.151	1178.8
2819.59	1181.8
2823.026	1177.8
2826.46	1178.8
2829.89	1175.8
2833.318	1203.8
2836.742	1189.8
2840.164	1190.8
2843.583	1205.8
2846.999	1197.8
2850.412	1221.8
2853.822	1233.8
2857.229	1250.8
2860.634	1279.8
2864.035	1294.8
2867.434	1307.8
2870.83	1325.8
2874.223	1363.8
2877.613	1360.8
2881	1380.8
2884.385	1383.8
2887.766	1387.8
2891.145	1381.8
2894.521	1378.8
2897.894	1379.8
2901.264	1379.8
2904.631	1377.8
2907.996	1387.8
2911.358	1396.8
2914.717	1379.8
2918.073	1410.8
2921.426	1409.8
2924.777	1420.8
2928.124	1467.8
2931.469	1471.8
2934.811	1501.8
2938.15	1511.8
2941.487	1525.8
2944.821	1538.8
2948.152	1520.8
2951.48	1529.8
2954.805	1506.8
2958.128	1508.8
2961.447	1460.8
2964.765	1488.8
2968.079	1492.8
2971.39	1503.8
2974.699	1521.8
2978.005	1538.8
2981.308	1550.8
2984.609	1579.8
2987.907	1630.8
2991.202	1648.8
2994.494	1684.8
2997.784	1707.8
3001.07	1737.8
3004.355	1774.8
3007.636	1797.8
3010.915	1816.8
3014.191	1845.8
3017.464	1839.8
3020.734	1852.8
3024.002	1870.8
3027.267	1871.8
3030.53	1882.8
3033.789	1905.8
3037.046	1956.8
3040.301	1967.8
3043.552	2011.8
3046.801	2038.8
3050.048	2100.8
3053.291	2133.8
3056.532	2214.8
3059.771	2255.8
3063.006	2316.8
3066.239	2381.8
3069.469	2462.8
3072.697	2491.8
3075.922	2536.8
3079.144	2639.8
3082.364	2695.8
3085.581	2750.8
3088.795	2789.8
3092.007	2856.8
3095.216	2929.8
3098.423	2938.8
3101.627	3057.8
3104.828	3119.8
3108.026	3179.8
3111.222	3218.8
3114.416	3321.8
3117.607	3390.8
3120.795	3458.8
3123.98	3549.8
3127.163	3625.8
3130.344	3721.8
3133.521	3770.8
3136.696	3883.8
3139.869	3975.8
3143.039	4031.8
3146.206	4099.8
3149.371	4147.8
3152.533	4175.8
3155.693	4205.8
3158.85	4230.8
3162.005	4258.8
3165.157	4254.8
3168.306	4272.8
3171.453	4284.8
3174.597	4273.8
3177.739	4297.8
3180.878	4311.8
3184.014	4312.8
3187.149	4314.8
3190.28	4321.8
3193.409	4321.8
3196.536	4313.8
3199.659	4321.8
3202.781	4320.8
3205.9	4344.8
3209.016	4352.8
3212.13	4342.8
3215.241	4310.8
3218.35	4281.8
3221.456	4188.8
3224.56	4161.8
3227.661	4095.8
3230.76	4085.8
3233.856	4018.8
3236.95	3992.8
3240.041	3954.8
3243.13	3942.8
3246.216	3910.8
3249.3	3883.8
3252.382	3872.8
3255.46	3867.8
3258.537	3823.8
3261.611	3855.8
3264.682	3797.8
3267.751	3845.8
3270.818	3867.8
3273.882	3833.8
3276.943	3792.8
3280.002	3773.8
3283.059	3728.8
3286.113	3705.8
3289.165	3626.8
3292.214	3565.8
3295.261	3505.8
3298.306	3475.8
3301.348	3416.8
3304.387	3346.8
3307.425	3272.8
3310.459	3252.8
3313.492	3217.8
3316.521	3174.8
3319.549	3112.8
3322.574	3108.8
3325.597	3068.8
3328.617	3035.8
3331.635	3021.8
3334.65	3020.8
3337.663	2987.8
3340.674	2957.8
3343.682	2960.8
3346.688	2948.8
3349.691	2938.8
3352.692	2901.8
3355.691	2879.8
3358.687	2886.8
3361.681	2830.8
3364.673	2799.8
3367.662	2761.8
3370.649	2702.8
3373.633	2691.8
3376.615	2626.8
3379.595	2592.8
3382.572	2577.8
3385.547	2499.8
3388.52	2485.8
3391.49	2448.8
3394.458	2412.8
3397.424	2376.8
3400.387	2353.8
3403.348	2299.8
3406.307	2280.8
3409.263	2266.8
3412.217	2220.8
3415.168	2227.8
3418.118	2184.8
3421.065	2148.8
3424.009	2112.8
3426.951	2097.8
3429.891	2049.8
3432.829	2016.8
3435.764	1972.8
3438.697	1924.8
3441.628	1863.8
3444.557	1801.8
3447.483	1750.8
3450.407	1692.8
3453.328	1645.8
3456.247	1590.8
3459.164	1534.8
3462.079	1472.8
3464.991	1428.8
3467.902	1367.8
3470.809	1313.8
3473.715	1269.8
3476.618	1211.8
3479.519	1169.8
3482.418	1156.8
3485.315	1094.8
3488.209	1071.8
3491.101	1035.8
3493.99	986.8
3496.878	950.8
3499.763	930.8
3502.646	876.8
3505.527	844.8
3508.405	802.8
3511.281	749.8
3514.155	718.8
3517.027	661.8
3519.897	647.8
3522.764	569.8
3525.629	532.8
3528.492	489.8
3531.352	442.8
3534.211	407.8
3537.067	367.8
3539.921	332.8
3542.773	296.8
3545.622	270.8
3548.469	239.8
3551.315	212.8
3554.157	184.8
3556.998	132.8
3559.837	113.8
3562.673	83.8
3565.507	66.8
3568.339	33.8
3571.169	23.8
3573.996	-14.2
3576.822	-21.2
3579.645	-35.2
3582.466	-64.2
3585.285	-80.2
3588.101	-106.2
3590.916	-134.2
3593.728	-158.2
3596.538	-170.2
3599.346	-186.2
3602.152	-197.2
3604.956	-229.2
3607.757	-239.2
3610.556	-257.2
3613.354	-270.2
3616.149	-293.2
3618.942	-300.2
3621.732	-314.2
3624.521	-334.2
3627.307	-341.2
3630.092	-349.2
3632.874	-354.2
3635.654	-367.2
3638.432	-369.2
3641.208	-386.2
3643.982	-407.2
3646.753	-402.2
3649.523	-410.2
3652.29	-421.2
3655.055	-433.2
3657.818	-452.2
3660.579	-465.2
3663.338	-468.2
3666.095	-487.2
3668.849	-491.2
3671.602	-500.2
3674.352	-503.2
3677.101	-504.2
3679.847	-518.2
3682.591	-528.2
3685.333	-531.2
3688.073	-530.2
3690.811	-539.2
3693.547	-542.2
3696.281	-554.2
3699.013	-557.2
3701.742	-565.2
3704.47	-568.2
3707.195	-572.2
3709.919	-574.2
3712.64	-586.2
3715.359	-582.2
3718.076	-594.2
3720.792	-591.2
3723.505	-597.2
3726.216	-605.2
3728.925	-596.2
3731.632	-609.2
3734.336	-615.2
3737.039	-612.2
3739.74	-604.2
3742.439	-615.2
3745.136	-616.2
3747.83	-624.2
3750.523	-618.2
3753.213	-626.2
3755.902	-630.2
3758.589	-633.2
3761.273	-628.2
3763.956	-635.2
3766.636	-633.2
3769.315	-642.2
3771.991	-643.2
3774.665	-647.2
3777.338	-641.2
3780.008	-651.2
3782.677	-647.2
3785.343	-635.2
3788.007	-651.2
3790.67	-644.2
3793.33	-651.2
3795.989	-658.2
3798.645	-653.2
3801.299	-654.2
3803.952	-659.2
3806.602	-667.2
3809.251	-664.2
3811.897	-662.2
3814.542	-664.2
3817.184	-664.2
3819.825	-658.2
3822.463	-655.2
3825.1	-669.2
3827.735	-661.2
3830.367	-660.2
3832.998	-675.2
3835.627	-673.2
3838.253	-671.2
3840.878	-673.2
3843.501	-673.2
3846.122	-665.2
3848.741	-666.2
3851.358	-674.2
3853.973	-670.2
3856.586	-679.2
3859.197	-678.2
3861.806	-681.2
3864.414	-674.2
3867.019	-672.2
3869.622	-676.2
3872.224	-668.2
3874.823	-652.2
3877.421	-648.2
3880.016	-628.2
3882.61	-608.2
3885.202	-600.2
3887.792	-616.2
3890.38	-641.2
3892.966	-663.2
3895.55	-678.2
3898.132	-689.2
3900.713	-686.2
3903.291	-683.2
3905.868	-687.2
3908.442	-687.2
3911.015	-692.2
3913.586	-687.2
3916.155	-685.2
3918.722	-692.2
3921.287	-690.2
3923.85	-691.2
3926.411	-694.2
3928.971	-699.2
3931.528	-697.2
3934.084	-690.2
3936.638	-686.2
3939.19	-694.2
3941.74	-692.2
3944.288	-688.2
3946.834	-689.2
3949.378	-695.2
3951.921	-690.2
3954.462	-699.2
3957	-686.2
3959.537	-694.2
3962.072	-693.2
3964.606	-695.2
3967.137	-694.2
3969.667	-694.2
3972.194	-684.2
3974.72	-687.2
3977.244	-680.2
3979.766	-686.2
3982.286	-680.2
3984.805	-680.2
3987.321	-678.2
3989.836	-682.2
3992.349	-673.2
3994.86	-671.2
3997.369	-682.2
3999.877	-675.2
4002.382	-672.2
4004.886	-674.2
4007.388	-671.2
4009.888	-670.2
4012.386	-678.2
4014.883	-673.2
4017.377	-675.2
4019.87	-676.2
4022.361	-679.2
4024.85	-677.2
4027.338	-684.2
4029.823	-680.2
4032.307	-684.2
4034.789	-681.2
4037.269	-680.2
4039.747	-680.2
4042.224	-687.2
4044.699	-681.2
4047.172	-679.2
4049.643	-673.2
4052.112	-689.2
4054.58	-688.2
4057.046	-674.2
4059.51	-684.2
4061.972	-682.2
4064.432	-682.2
4066.891	-675.2
4069.348	-681.2
4071.803	-676.2
4074.256	-675.2
4076.708	-678.2
4079.158	-683.2
4081.606	-684.2
4084.052	-685.2
4086.497	-682.2
4088.939	-672.2
4091.38	-677.2
4093.819	-676.2
4096.257	-717.2
4098.693	-719.2
4101.127	-721.2
4103.559	-717.2
4105.989	-423.2
4108.418	-399.2
4110.845	-369.2
4113.27	-339.2
4115.694	-298.2
4118.115	-254.2
4120.535	-674.2
4122.954	-675.2
4125.37	-668.2
4127.785	-681.2
4130.198	-680.2
4132.609	-684.2
4135.019	-715.2
4137.427	-719.2
4139.833	-718.2
4142.237	-715.2
