Data from 2018-2-14_ethanol_n=1_RamanShift_04.txt Node
Date: Wed Feb 14 10:23:26 IST 2018
User: aro
Spectrometer: QEPB0276
Trigger mode: 0
Integration Time (sec): 3.000000E1
Scans to average: 1
Electric dark correction enabled: true
Nonlinearity correction enabled: false
Boxcar width: 0
XAxis mode: Raman Shifts
Number of Pixels in Spectrum: 1044
>>>>>Begin Spectral Data<<<<<
160.701	-44.5
166.742	31.5
172.777	241.5
178.805	887.5
184.826	2354.5
190.841	4764.5
196.849	7427.5
202.85	9200.5
208.845	9611.5
214.833	9346.5
220.815	9133.5
226.789	8983.5
232.758	8940.5
238.719	8868.5
244.674	8743.5
250.623	8667.5
256.565	8668.5
262.5	8677.5
268.429	8639.5
274.351	8563.5
280.267	8449.5
286.176	8279.5
292.079	8050.5
297.975	7744.5
303.865	7440.5
309.748	7183.5
315.625	6962.5
321.495	6820.5
327.359	6675.5
333.217	6618.5
339.068	6536.5
344.912	6473.5
350.751	6470.5
356.583	6503.5
362.408	6520.5
368.227	6585.5
374.04	6742.5
379.847	6916.5
385.647	7132.5
391.44	7424.5
397.228	7835.5
403.009	8374.5
408.784	9253.5
414.553	10606.5
420.315	12883.5
426.071	16232.5
431.821	19961.5
437.565	22476.5
443.302	22260.5
449.033	19835.5
454.758	16524.5
460.477	13644.5
466.189	11356.5
471.896	9835.5
477.596	8726.5
483.29	7948.5
488.978	7471.5
494.66	7078.5
500.335	6689.5
506.005	6356.5
511.668	5985.5
517.325	5681.5
522.977	5480.5
528.622	5263.5
534.261	5178.5
539.894	5095.5
545.521	4997.5
551.141	4933.5
556.756	4938.5
562.365	4881.5
567.968	4855.5
573.565	4835.5
579.155	4827.5
584.74	4790.5
590.319	4800.5
595.892	4816.5
601.459	4833.5
607.02	4826.5
612.575	4795.5
618.124	4810.5
623.667	4764.5
629.204	4735.5
634.735	4698.5
640.261	4697.5
645.781	4678.5
651.294	4682.5
656.802	4698.5
662.304	4668.5
667.8	4667.5
673.29	4657.5
678.775	4684.5
684.254	4658.5
689.726	4625.5
695.193	4631.5
700.655	4599.5
706.11	4613.5
711.56	4585.5
717.004	4572.5
722.442	4603.5
727.874	4580.5
733.301	4625.5
738.722	4648.5
744.137	4633.5
749.547	4725.5
754.951	4777.5
760.349	4852.5
765.741	4908.5
771.128	5028.5
776.509	5179.5
781.885	5340.5
787.254	5536.5
792.618	5709.5
797.977	5958.5
803.33	6307.5
808.677	6651.5
814.019	6924.5
819.355	7094.5
824.686	7212.5
830.011	7439.5
835.33	7789.5
840.644	8377.5
845.952	9259.5
851.255	10596.5
856.552	12697.5
861.844	16207.5
867.13	23239.5
872.41	38344.5
877.686	62799.5
882.955	62799.5
888.219	62797.5
893.478	62796.5
898.731	62802.5
903.979	54446.5
909.221	22802.5
914.458	15783.5
919.69	12277.5
924.916	10269.5
930.136	9003.5
935.351	8131.5
940.561	7559.5
945.766	7106.5
950.965	6780.5
956.158	6568.5
961.347	6357.5
966.529	6226.5
971.707	6157.5
976.879	6211.5
982.046	6274.5
987.208	6499.5
992.364	6816.5
997.515	7316.5
1002.66	7944.5
1007.801	8822.5
1012.936	10082.5
1018.066	11910.5
1023.19	14314.5
1028.309	17720.5
1033.423	22129.5
1038.532	27599.5
1043.636	34428.5
1048.734	42227.5
1053.827	48623.5
1058.915	49401.5
1063.998	43652.5
1069.075	35701.5
1074.147	30874.5
1079.214	30408.5
1084.276	33543.5
1089.333	39550.5
1094.385	46759.5
1099.431	51361.5
1104.472	49166.5
1109.509	40737.5
1114.54	31544.5
1119.565	25583.5
1124.586	22257.5
1129.602	19529.5
1134.613	16792.5
1139.618	14158.5
1144.619	12044.5
1149.614	10616.5
1154.604	9641.5
1159.589	8892.5
1164.57	8272.5
1169.545	7659.5
1174.515	7118.5
1179.48	6671.5
1184.44	6321.5
1189.395	6112.5
1194.345	5936.5
1199.29	5841.5
1204.23	5846.5
1209.165	5877.5
1214.095	5974.5
1219.021	6168.5
1223.941	6398.5
1228.856	6738.5
1233.766	7198.5
1238.672	7676.5
1243.572	8193.5
1248.467	8836.5
1253.358	9588.5
1258.244	10642.5
1263.124	12306.5
1268	15033.5
1272.871	18901.5
1277.737	23002.5
1282.599	24455.5
1287.455	22376.5
1292.306	18255.5
1297.153	14619.5
1301.995	12351.5
1306.832	11040.5
1311.664	10174.5
1316.491	9640.5
1321.314	9219.5
1326.132	8869.5
1330.945	8604.5
1335.753	8380.5
1340.556	8230.5
1345.354	8178.5
1350.148	8155.5
1354.937	8292.5
1359.722	8587.5
1364.501	8937.5
1369.276	9539.5
1374.046	10326.5
1378.811	11287.5
1383.572	12396.5
1388.327	13281.5
1393.079	13775.5
1397.825	14098.5
1402.567	14456.5
1407.304	15182.5
1412.036	16214.5
1416.764	17427.5
1421.487	18911.5
1426.205	20593.5
1430.919	22864.5
1435.628	25827.5
1440.333	30154.5
1445.032	36572.5
1449.727	45402.5
1454.418	54309.5
1459.104	59186.5
1463.785	56128.5
1468.462	46996.5
1473.134	37526.5
1477.802	31577.5
1482.465	29059.5
1487.123	27669.5
1491.777	25551.5
1496.426	22307.5
1501.071	18912.5
1505.711	16169.5
1510.347	14263.5
1514.978	12893.5
1519.604	11779.5
1524.226	10871.5
1528.844	10087.5
1533.457	9298.5
1538.065	8662.5
1542.669	8049.5
1547.269	7524.5
1551.864	7039.5
1556.454	6608.5
1561.041	6266.5
1565.622	5918.5
1570.199	5625.5
1574.772	5358.5
1579.34	5131.5
1583.904	4949.5
1588.464	4735.5
1593.019	4557.5
1597.569	4415.5
1602.115	4266.5
1606.657	4156.5
1611.195	4109.5
1615.728	4111.5
1620.256	4065.5
1624.78	3994.5
1629.3	3826.5
1633.816	3685.5
1638.327	3552.5
1642.834	3432.5
1647.336	3328.5
1651.834	3247.5
1656.328	3234.5
1660.817	3192.5
1665.302	3145.5
1669.783	3097.5
1674.259	3033.5
1678.732	3011.5
1683.199	2970.5
1687.663	2913.5
1692.122	2896.5
1696.577	2879.5
1701.028	2905.5
1705.474	2970.5
1709.917	2977.5
1714.355	3021.5
1718.788	2989.5
1723.218	2922.5
1727.643	2835.5
1732.064	2759.5
1736.481	2665.5
1740.893	2570.5
1745.301	2480.5
1749.705	2396.5
1754.105	2271.5
1758.501	2173.5
1762.893	2102.5
1767.28	2050.5
1771.663	1987.5
1776.042	1929.5
1780.417	1885.5
1784.787	1877.5
1789.154	1893.5
1793.516	1906.5
1797.874	1924.5
1802.228	1939.5
1806.578	1979.5
1810.924	1967.5
1815.266	1942.5
1819.603	1902.5
1823.937	1871.5
1828.266	1827.5
1832.591	1789.5
1836.913	1786.5
1841.23	1761.5
1845.543	1746.5
1849.852	1744.5
1854.156	1752.5
1858.457	1739.5
1862.754	1758.5
1867.047	1754.5
1871.335	1750.5
1875.62	1778.5
1879.9	1768.5
1884.177	1762.5
1888.449	1774.5
1892.718	1741.5
1896.982	1758.5
1901.243	1734.5
1905.499	1710.5
1909.752	1733.5
1914	1713.5
1918.245	1720.5
1922.485	1730.5
1926.722	1757.5
1930.954	1770.5
1935.183	1809.5
1939.408	1829.5
1943.628	1805.5
1947.845	1804.5
1952.058	1815.5
1956.267	1777.5
1960.472	1789.5
1964.673	1785.5
1968.87	1763.5
1973.063	1741.5
1977.252	1712.5
1981.438	1666.5
1985.619	1644.5
1989.797	1638.5
1993.971	1597.5
1998.14	1558.5
2002.306	1559.5
2006.469	1542.5
2010.627	1531.5
2014.781	1526.5
2018.932	1497.5
2023.078	1470.5
2027.221	1448.5
2031.36	1433.5
2035.495	1408.5
2039.627	1392.5
2043.754	1398.5
2047.878	1366.5
2051.998	1374.5
2056.114	1388.5
2060.226	1379.5
2064.334	1405.5
2068.439	1434.5
2072.54	1477.5
2076.637	1516.5
2080.73	1563.5
2084.82	1615.5
2088.906	1653.5
2092.988	1696.5
2097.066	1696.5
2101.14	1712.5
2105.211	1638.5
2109.278	1625.5
2113.342	1560.5
2117.401	1559.5
2121.457	1553.5
2125.509	1534.5
2129.558	1534.5
2133.602	1521.5
2137.643	1538.5
2141.681	1536.5
2145.714	1530.5
2149.744	1515.5
2153.77	1496.5
2157.793	1489.5
2161.812	1484.5
2165.827	1486.5
2169.838	1474.5
2173.846	1475.5
2177.851	1458.5
2181.851	1461.5
2185.848	1450.5
2189.841	1440.5
2193.831	1419.5
2197.817	1433.5
2201.799	1417.5
2205.778	1399.5
2209.753	1427.5
2213.725	1428.5
2217.693	1455.5
2221.657	1459.5
2225.618	1480.5
2229.575	1487.5
2233.529	1496.5
2237.479	1518.5
2241.425	1543.5
2245.368	1560.5
2249.307	1612.5
2253.243	1612.5
2257.175	1625.5
2261.104	1618.5
2265.029	1616.5
2268.95	1608.5
2272.868	1594.5
2276.783	1607.5
2280.694	1630.5
2284.601	1646.5
2288.505	1628.5
2292.405	1614.5
2296.302	1568.5
2300.195	1528.5
2304.085	1502.5
2307.971	1456.5
2311.854	1408.5
2315.734	1379.5
2319.609	1354.5
2323.482	1343.5
2327.351	1326.5
2331.216	1341.5
2335.078	1338.5
2338.937	1328.5
2342.792	1301.5
2346.643	1282.5
2350.492	1280.5
2354.336	1271.5
2358.178	1275.5
2362.015	1276.5
2365.85	1299.5
2369.681	1279.5
2373.508	1275.5
2377.333	1264.5
2381.153	1242.5
2384.971	1258.5
2388.785	1259.5
2392.595	1247.5
2396.402	1231.5
2400.206	1243.5
2404.007	1249.5
2407.804	1264.5
2411.597	1275.5
2415.388	1285.5
2419.174	1283.5
2422.958	1294.5
2426.738	1318.5
2430.515	1330.5
2434.289	1324.5
2438.059	1346.5
2441.825	1329.5
2445.589	1355.5
2449.349	1357.5
2453.106	1388.5
2456.859	1364.5
2460.61	1399.5
2464.356	1412.5
2468.1	1422.5
2471.84	1427.5
2475.577	1424.5
2479.311	1420.5
2483.041	1422.5
2486.768	1427.5
2490.492	1429.5
2494.213	1451.5
2497.93	1449.5
2501.644	1447.5
2505.355	1468.5
2509.062	1486.5
2512.766	1514.5
2516.467	1557.5
2520.165	1591.5
2523.859	1623.5
2527.551	1680.5
2531.239	1753.5
2534.923	1833.5
2538.605	1925.5
2542.283	2019.5
2545.958	2117.5
2549.63	2194.5
2553.299	2214.5
2556.964	2209.5
2560.626	2135.5
2564.285	2121.5
2567.941	2098.5
2571.594	2045.5
2575.243	2039.5
2578.89	2052.5
2582.533	2032.5
2586.173	2026.5
2589.809	2037.5
2593.443	2052.5
2597.073	2063.5
2600.701	2056.5
2604.325	2082.5
2607.946	2067.5
2611.564	2073.5
2615.178	2059.5
2618.79	2048.5
2622.398	2036.5
2626.004	2040.5
2629.606	2060.5
2633.205	2050.5
2636.801	2082.5
2640.394	2065.5
2643.983	2089.5
2647.57	2142.5
2651.153	2184.5
2654.734	2208.5
2658.311	2262.5
2661.885	2283.5
2665.456	2338.5
2669.025	2415.5
2672.589	2496.5
2676.151	2583.5
2679.71	2732.5
2683.266	2894.5
2686.819	3072.5
2690.368	3302.5
2693.915	3584.5
2697.458	3900.5
2700.999	4315.5
2704.536	4789.5
2708.071	5282.5
2711.602	5791.5
2715.13	6154.5
2718.656	6391.5
2722.178	6512.5
2725.697	6508.5
2729.214	6381.5
2732.727	6140.5
2736.237	5941.5
2739.744	5832.5
2743.249	5780.5
2746.75	5864.5
2750.248	5982.5
2753.743	6058.5
2757.236	6048.5
2760.725	5953.5
2764.211	5737.5
2767.695	5545.5
2771.175	5417.5
2774.652	5326.5
2778.127	5301.5
2781.598	5294.5
2785.067	5371.5
2788.532	5516.5
2791.995	5718.5
2795.455	5979.5
2798.911	6285.5
2802.365	6733.5
2805.816	7113.5
2809.264	7626.5
2812.709	8260.5
2816.151	8971.5
2819.59	9790.5
2823.026	10708.5
2826.46	11863.5
2829.89	13085.5
2833.318	14251.5
2836.742	15490.5
2840.164	16487.5
2843.583	17361.5
2846.999	18191.5
2850.412	19200.5
2853.822	20409.5
2857.229	21945.5
2860.634	23968.5
2864.035	26521.5
2867.434	29719.5
2870.83	33434.5
2874.223	37741.5
2877.613	41599.5
2881	44198.5
2884.385	45163.5
2887.766	44766.5
2891.145	43591.5
2894.521	41971.5
2897.894	40435.5
2901.264	38717.5
2904.631	37465.5
2907.996	36482.5
2911.358	36166.5
2914.717	36779.5
2918.073	38378.5
2921.426	41180.5
2924.777	45369.5
2928.124	50283.5
2931.469	53933.5
2934.811	54546.5
2938.15	51363.5
2941.487	46338.5
2944.821	40895.5
2948.152	36027.5
2951.48	31705.5
2954.805	28443.5
2958.128	26090.5
2961.447	24641.5
2964.765	23978.5
2968.079	24187.5
2971.39	24706.5
2974.699	25102.5
2978.005	24936.5
2981.308	23851.5
2984.609	21943.5
2987.907	19585.5
2991.202	17164.5
2994.494	15028.5
2997.784	13144.5
3001.07	11648.5
3004.355	10365.5
3007.636	9294.5
3010.915	8339.5
3014.191	7579.5
3017.464	6872.5
3020.734	6276.5
3024.002	5788.5
3027.267	5316.5
3030.53	4888.5
3033.789	4562.5
3037.046	4255.5
3040.301	3951.5
3043.552	3706.5
3046.801	3481.5
3050.048	3291.5
3053.291	3104.5
3056.532	2966.5
3059.771	2815.5
3063.006	2669.5
3066.239	2593.5
3069.469	2453.5
3072.697	2348.5
3075.922	2264.5
3079.144	2146.5
3082.364	2073.5
3085.581	1969.5
3088.795	1902.5
3092.007	1838.5
3095.216	1761.5
3098.423	1688.5
3101.627	1652.5
3104.828	1598.5
3108.026	1552.5
3111.222	1509.5
3114.416	1470.5
3117.607	1445.5
3120.795	1406.5
3123.98	1380.5
3127.163	1355.5
3130.344	1361.5
3133.521	1335.5
3136.696	1326.5
3139.869	1299.5
3143.039	1310.5
3146.206	1254.5
3149.371	1271.5
3152.533	1259.5
3155.693	1260.5
3158.85	1248.5
3162.005	1225.5
3165.157	1205.5
3168.306	1197.5
3171.453	1192.5
3174.597	1176.5
3177.739	1189.5
3180.878	1153.5
3184.014	1160.5
3187.149	1158.5
3190.28	1154.5
3193.409	1160.5
3196.536	1180.5
3199.659	1172.5
3202.781	1180.5
3205.9	1172.5
3209.016	1177.5
3212.13	1190.5
3215.241	1185.5
3218.35	1174.5
3221.456	1181.5
3224.56	1162.5
3227.661	1139.5
3230.76	1151.5
3233.856	1152.5
3236.95	1130.5
3240.041	1128.5
3243.13	1135.5
3246.216	1116.5
3249.3	1127.5
3252.382	1120.5
3255.46	1108.5
3258.537	1113.5
3261.611	1126.5
3264.682	1132.5
3267.751	1116.5
3270.818	1130.5
3273.882	1111.5
3276.943	1093.5
3280.002	1100.5
3283.059	1088.5
3286.113	1082.5
3289.165	1056.5
3292.214	1044.5
3295.261	1022.5
3298.306	1003.5
3301.348	966.5
3304.387	964.5
3307.425	947.5
3310.459	944.5
3313.492	922.5
3316.521	903.5
3319.549	897.5
3322.574	888.5
3325.597	875.5
3328.617	857.5
3331.635	876.5
3334.65	860.5
3337.663	843.5
3340.674	828.5
3343.682	833.5
3346.688	828.5
3349.691	827.5
3352.692	816.5
3355.691	806.5
3358.687	795.5
3361.681	785.5
3364.673	768.5
3367.662	758.5
3370.649	727.5
3373.633	714.5
3376.615	693.5
3379.595	676.5
3382.572	693.5
3385.547	668.5
3388.52	645.5
3391.49	626.5
3394.458	620.5
3397.424	606.5
3400.387	578.5
3403.348	565.5
3406.307	564.5
3409.263	545.5
3412.217	541.5
3415.168	520.5
3418.118	518.5
3421.065	498.5
3424.009	485.5
3426.951	479.5
3429.891	457.5
3432.829	431.5
3435.764	424.5
3438.697	406.5
3441.628	391.5
3444.557	383.5
3447.483	350.5
3450.407	331.5
3453.328	317.5
3456.247	297.5
3459.164	284.5
3462.079	266.5
3464.991	247.5
3467.902	231.5
3470.809	212.5
3473.715	194.5
3476.618	185.5
3479.519	168.5
3482.418	161.5
3485.315	152.5
3488.209	148.5
3491.101	132.5
3493.99	116.5
3496.878	109.5
3499.763	103.5
3502.646	82.5
3505.527	73.5
3508.405	61.5
3511.281	49.5
3514.155	46.5
3517.027	50.5
3519.897	28.5
3522.764	6.5
3525.629	6.5
3528.492	-14.5
3531.352	-19.5
3534.211	-34.5
3537.067	-37.5
3539.921	-48.5
3542.773	-65.5
3545.622	-67.5
3548.469	-69.5
3551.315	-69.5
3554.157	-79.5
3556.998	-97.5
3559.837	-94.5
3562.673	-103.5
3565.507	-119.5
3568.339	-118.5
3571.169	-123.5
3573.996	-128.5
3576.822	-127.5
3579.645	-135.5
3582.466	-139.5
3585.285	-141.5
3588.101	-147.5
3590.916	-152.5
3593.728	-155.5
3596.538	-159.5
3599.346	-169.5
3602.152	-170.5
3604.956	-164.5
3607.757	-175.5
3610.556	-182.5
3613.354	-182.5
3616.149	-184.5
3618.942	-188.5
3621.732	-180.5
3624.521	-195.5
3627.307	-188.5
3630.092	-193.5
3632.874	-196.5
3635.654	-201.5
3638.432	-192.5
3641.208	-204.5
3643.982	-207.5
3646.753	-201.5
3649.523	-198.5
3652.29	-205.5
3655.055	-204.5
3657.818	-210.5
3660.579	-216.5
3663.338	-220.5
3666.095	-218.5
3668.849	-221.5
3671.602	-221.5
3674.352	-229.5
3677.101	-218.5
3679.847	-224.5
3682.591	-227.5
3685.333	-221.5
3688.073	-223.5
3690.811	-222.5
3693.547	-226.5
3696.281	-225.5
3699.013	-228.5
3701.742	-227.5
3704.47	-227.5
3707.195	-232.5
3709.919	-236.5
3712.64	-226.5
3715.359	-228.5
3718.076	-226.5
3720.792	-228.5
3723.505	-226.5
3726.216	-236.5
3728.925	-227.5
3731.632	-237.5
3734.336	-235.5
3737.039	-239.5
3739.74	-232.5
3742.439	-233.5
3745.136	-236.5
3747.83	-239.5
3750.523	-233.5
3753.213	-233.5
3755.902	-233.5
3758.589	-239.5
3761.273	-242.5
3763.956	-240.5
3766.636	-236.5
3769.315	-241.5
3771.991	-242.5
3774.665	-246.5
3777.338	-240.5
3780.008	-242.5
3782.677	-246.5
3785.343	-238.5
3788.007	-238.5
3790.67	-243.5
3793.33	-244.5
3795.989	-244.5
3798.645	-239.5
3801.299	-238.5
3803.952	-249.5
3806.602	-250.5
3809.251	-250.5
3811.897	-250.5
3814.542	-248.5
3817.184	-242.5
3819.825	-240.5
3822.463	-246.5
3825.1	-244.5
3827.735	-237.5
3830.367	-247.5
3832.998	-250.5
3835.627	-252.5
3838.253	-253.5
3840.878	-254.5
3843.501	-246.5
3846.122	-241.5
3848.741	-247.5
3851.358	-239.5
3853.973	-248.5
3856.586	-248.5
3859.197	-251.5
3861.806	-252.5
3864.414	-253.5
3867.019	-245.5
3869.622	-248.5
3872.224	-243.5
3874.823	-227.5
3877.421	-211.5
3880.016	-194.5
3882.61	-177.5
3885.202	-176.5
3887.792	-186.5
3890.38	-215.5
3892.966	-237.5
3895.55	-242.5
3898.132	-261.5
3900.713	-260.5
3903.291	-255.5
3905.868	-253.5
3908.442	-256.5
3911.015	-260.5
3913.586	-253.5
3916.155	-255.5
3918.722	-262.5
3921.287	-256.5
3923.85	-263.5
3926.411	-256.5
3928.971	-260.5
3931.528	-256.5
3934.084	-256.5
3936.638	-255.5
3939.19	-253.5
3941.74	-256.5
3944.288	-260.5
3946.834	-252.5
3949.378	-258.5
3951.921	-260.5
3954.462	-263.5
3957	-259.5
3959.537	-254.5
3962.072	-259.5
3964.606	-260.5
3967.137	-260.5
3969.667	-255.5
3972.194	-255.5
3974.72	-258.5
3977.244	-248.5
3979.766	-251.5
3982.286	-263.5
3984.805	-254.5
3987.321	-257.5
3989.836	-260.5
3992.349	-256.5
3994.86	-251.5
3997.369	-257.5
3999.877	-252.5
4002.382	-252.5
4004.886	-249.5
4007.388	-249.5
4009.888	-249.5
4012.386	-253.5
4014.883	-251.5
4017.377	-255.5
4019.87	-256.5
4022.361	-258.5
4024.85	-258.5
4027.338	-258.5
4029.823	-255.5
4032.307	-255.5
4034.789	-251.5
4037.269	-247.5
4039.747	-257.5
4042.224	-252.5
4044.699	-256.5
4047.172	-256.5
4049.643	-258.5
4052.112	-261.5
4054.58	-259.5
4057.046	-258.5
4059.51	-257.5
4061.972	-257.5
4064.432	-258.5
4066.891	-253.5
4069.348	-250.5
4071.803	-249.5
4074.256	-255.5
4076.708	-252.5
4079.158	-252.5
4081.606	-257.5
4084.052	-259.5
4086.497	-256.5
4088.939	-247.5
4091.38	-246.5
4093.819	-242.5
4096.257	-280.5
4098.693	-282.5
4101.127	-277.5
4103.559	-280.5
4105.989	-112.5
4108.418	-102.5
4110.845	-101.5
4113.27	-92.5
4115.694	-87.5
4118.115	-75.5
4120.535	-247.5
4122.954	-244.5
4125.37	-240.5
4127.785	-250.5
4130.198	-251.5
4132.609	-252.5
4135.019	-281.5
4137.427	-278.5
4139.833	-282.5
4142.237	-273.5
