Data from 2018-2-14_conc=5_n=1_RamanShift_04.txt Node
Date: Wed Feb 14 14:05:25 IST 2018
User: aro
Spectrometer: QEPB0276
Trigger mode: 0
Integration Time (sec): 3.000000E1
Scans to average: 1
Electric dark correction enabled: true
Nonlinearity correction enabled: false
Boxcar width: 0
XAxis mode: Raman Shifts
Number of Pixels in Spectrum: 1044
>>>>>Begin Spectral Data<<<<<
160.701	-139.5
166.742	47.5
172.777	554.5
178.805	2095.5
184.826	5819.5
190.841	12087.5
196.849	19345.5
202.85	24381.5
208.845	25995.5
214.833	25841.5
220.815	25405.5
226.789	25301.5
232.758	25192.5
238.719	25066.5
244.674	24790.5
250.623	24396.5
256.565	23893.5
262.5	23432.5
268.429	23031.5
274.351	22759.5
280.267	22522.5
286.176	22227.5
292.079	22103.5
297.975	21905.5
303.865	21694.5
309.748	21595.5
315.625	21526.5
321.495	21364.5
327.359	21313.5
333.217	21284.5
339.068	21265.5
344.912	21201.5
350.751	21175.5
356.583	21136.5
362.408	21140.5
368.227	21127.5
374.04	21191.5
379.847	21182.5
385.647	21344.5
391.44	21359.5
397.228	21458.5
403.009	21533.5
408.784	21605.5
414.553	21681.5
420.315	21758.5
426.071	21779.5
431.821	21698.5
437.565	21681.5
443.302	21619.5
449.033	21607.5
454.758	21634.5
460.477	21565.5
466.189	21548.5
471.896	21476.5
477.596	21433.5
483.29	21388.5
488.978	21316.5
494.66	21269.5
500.335	21212.5
506.005	21026.5
511.668	20699.5
517.325	20498.5
522.977	20263.5
528.622	20140.5
534.261	20000.5
539.894	19962.5
545.521	19866.5
551.141	19802.5
556.756	19747.5
562.365	19686.5
567.968	19600.5
573.565	19460.5
579.155	19454.5
584.74	19349.5
590.319	19263.5
595.892	19254.5
601.459	19141.5
607.02	19082.5
612.575	18991.5
618.124	18889.5
623.667	18712.5
629.204	18651.5
634.735	18604.5
640.261	18552.5
645.781	18471.5
651.294	18421.5
656.802	18419.5
662.304	18406.5
667.8	18345.5
673.29	18298.5
678.775	18277.5
684.254	18200.5
689.726	18175.5
695.193	18185.5
700.655	18049.5
706.11	17988.5
711.56	17843.5
717.004	17764.5
722.442	17649.5
727.874	17630.5
733.301	17597.5
738.722	17484.5
744.137	17465.5
749.547	17483.5
754.951	17433.5
760.349	17410.5
765.741	17490.5
771.128	17480.5
776.509	17486.5
781.885	17514.5
787.254	17497.5
792.618	17378.5
797.977	17294.5
803.33	17198.5
808.677	17096.5
814.019	16968.5
819.355	16909.5
824.686	16848.5
830.011	16775.5
835.33	16788.5
840.644	16835.5
845.952	16775.5
851.255	16858.5
856.552	16863.5
861.844	16888.5
867.13	16805.5
872.41	16764.5
877.686	16682.5
882.955	16531.5
888.219	16447.5
893.478	16272.5
898.731	16012.5
903.979	15929.5
909.221	15751.5
914.458	15719.5
919.69	15742.5
924.916	15699.5
930.136	15857.5
935.351	15851.5
940.561	15815.5
945.766	15803.5
950.965	15777.5
956.158	15617.5
961.347	15475.5
966.529	15202.5
971.707	15035.5
976.879	14846.5
982.046	14793.5
987.208	14719.5
992.364	14734.5
997.515	14823.5
1002.66	14977.5
1007.801	15137.5
1012.936	15170.5
1018.066	15241.5
1023.19	15179.5
1028.309	15229.5
1033.423	15170.5
1038.532	15162.5
1043.636	14969.5
1048.734	14816.5
1053.827	14598.5
1058.915	14465.5
1063.998	14375.5
1069.075	14308.5
1074.147	14341.5
1079.214	14395.5
1084.276	14467.5
1089.333	14506.5
1094.385	14621.5
1099.431	14682.5
1104.472	14661.5
1109.509	14596.5
1114.54	14385.5
1119.565	14212.5
1124.586	14055.5
1129.602	13929.5
1134.613	13822.5
1139.618	13768.5
1144.619	13712.5
1149.614	13703.5
1154.604	13740.5
1159.589	13767.5
1164.57	13769.5
1169.545	13879.5
1174.515	13804.5
1179.48	13734.5
1184.44	13659.5
1189.395	13545.5
1194.345	13440.5
1199.29	13430.5
1204.23	13388.5
1209.165	13437.5
1214.095	13479.5
1219.021	13552.5
1223.941	13630.5
1228.856	13736.5
1233.766	13758.5
1238.672	13805.5
1243.572	13794.5
1248.467	13685.5
1253.358	13546.5
1258.244	13373.5
1263.124	13125.5
1268	12937.5
1272.871	12763.5
1277.737	12700.5
1282.599	12677.5
1287.455	12601.5
1292.306	12686.5
1297.153	12669.5
1301.995	12798.5
1306.832	12784.5
1311.664	12812.5
1316.491	12698.5
1321.314	12560.5
1326.132	12405.5
1330.945	12062.5
1335.753	11752.5
1340.556	11527.5
1345.354	11279.5
1350.148	11179.5
1354.937	11119.5
1359.722	11227.5
1364.501	11330.5
1369.276	11500.5
1374.046	11676.5
1378.811	11809.5
1383.572	11990.5
1388.327	11938.5
1393.079	11872.5
1397.825	11757.5
1402.567	11489.5
1407.304	11312.5
1412.036	11207.5
1416.764	11050.5
1421.487	11011.5
1426.205	10898.5
1430.919	10894.5
1435.628	10902.5
1440.333	10879.5
1445.032	10929.5
1449.727	10946.5
1454.418	10909.5
1459.104	10776.5
1463.785	10619.5
1468.462	10404.5
1473.134	10246.5
1477.802	10046.5
1482.465	9944.5
1487.123	9857.5
1491.777	9897.5
1496.426	9997.5
1501.071	10164.5
1505.711	10354.5
1510.347	10600.5
1514.978	10774.5
1519.604	10915.5
1524.226	10953.5
1528.844	10985.5
1533.457	10943.5
1538.065	10874.5
1542.669	10703.5
1547.269	10631.5
1551.864	10545.5
1556.454	10482.5
1561.041	10445.5
1565.622	10388.5
1570.199	10430.5
1574.772	10432.5
1579.34	10480.5
1583.904	10547.5
1588.464	10549.5
1593.019	10535.5
1597.569	10500.5
1602.115	10397.5
1606.657	10381.5
1611.195	10260.5
1615.728	10163.5
1620.256	10129.5
1624.78	10102.5
1629.3	10120.5
1633.816	10166.5
1638.327	10162.5
1642.834	10239.5
1647.336	10311.5
1651.834	10351.5
1656.328	10341.5
1660.817	10320.5
1665.302	10218.5
1669.783	10063.5
1674.259	9834.5
1678.732	9616.5
1683.199	9313.5
1687.663	9025.5
1692.122	8817.5
1696.577	8752.5
1701.028	8789.5
1705.474	8959.5
1709.917	9048.5
1714.355	9121.5
1718.788	9010.5
1723.218	8827.5
1727.643	8701.5
1732.064	8516.5
1736.481	8322.5
1740.893	8095.5
1745.301	7868.5
1749.705	7643.5
1754.105	7438.5
1758.501	7249.5
1762.893	6999.5
1767.28	6821.5
1771.663	6675.5
1776.042	6581.5
1780.417	6572.5
1784.787	6586.5
1789.154	6766.5
1793.516	6917.5
1797.874	7083.5
1802.228	7223.5
1806.578	7263.5
1810.924	7264.5
1815.266	7134.5
1819.603	7016.5
1823.937	6906.5
1828.266	6758.5
1832.591	6653.5
1836.913	6543.5
1841.23	6502.5
1845.543	6436.5
1849.852	6415.5
1854.156	6366.5
1858.457	6370.5
1862.754	6351.5
1867.047	6336.5
1871.335	6358.5
1875.62	6345.5
1879.9	6347.5
1884.177	6294.5
1888.449	6249.5
1892.718	6173.5
1896.982	6150.5
1901.243	6084.5
1905.499	6074.5
1909.752	6022.5
1914	6090.5
1918.245	6121.5
1922.485	6202.5
1926.722	6265.5
1930.954	6367.5
1935.183	6459.5
1939.408	6498.5
1943.628	6542.5
1947.845	6573.5
1952.058	6520.5
1956.267	6475.5
1960.472	6351.5
1964.673	6236.5
1968.87	6137.5
1973.063	6016.5
1977.252	5934.5
1981.438	5850.5
1985.619	5778.5
1989.797	5721.5
1993.971	5700.5
1998.14	5638.5
2002.306	5580.5
2006.469	5598.5
2010.627	5534.5
2014.781	5496.5
2018.932	5446.5
2023.078	5400.5
2027.221	5322.5
2031.36	5253.5
2035.495	5168.5
2039.627	5064.5
2043.754	5025.5
2047.878	4998.5
2051.998	4962.5
2056.114	4952.5
2060.226	4971.5
2064.334	4934.5
2068.439	5001.5
2072.54	5041.5
2076.637	5072.5
2080.73	5145.5
2084.82	5166.5
2088.906	5191.5
2092.988	5168.5
2097.066	5162.5
2101.14	5141.5
2105.211	5104.5
2109.278	5065.5
2113.342	5023.5
2117.401	4998.5
2121.457	4981.5
2125.509	4953.5
2129.558	4908.5
2133.602	4862.5
2137.643	4827.5
2141.681	4810.5
2145.714	4786.5
2149.744	4739.5
2153.77	4687.5
2157.793	4627.5
2161.812	4553.5
2165.827	4491.5
2169.838	4442.5
2173.846	4371.5
2177.851	4277.5
2181.851	4203.5
2185.848	4179.5
2189.841	4121.5
2193.831	4078.5
2197.817	4052.5
2201.799	4019.5
2205.778	4006.5
2209.753	4002.5
2213.725	3964.5
2217.693	3953.5
2221.657	3950.5
2225.618	3933.5
2229.575	3906.5
2233.529	3875.5
2237.479	3859.5
2241.425	3821.5
2245.368	3737.5
2249.307	3702.5
2253.243	3639.5
2257.175	3607.5
2261.104	3545.5
2265.029	3508.5
2268.95	3468.5
2272.868	3444.5
2276.783	3405.5
2280.694	3386.5
2284.601	3341.5
2288.505	3296.5
2292.405	3277.5
2296.302	3239.5
2300.195	3183.5
2304.085	3121.5
2307.971	3110.5
2311.854	3034.5
2315.734	3011.5
2319.609	2948.5
2323.482	2926.5
2327.351	2889.5
2331.216	2844.5
2335.078	2843.5
2338.937	2821.5
2342.792	2805.5
2346.643	2787.5
2350.492	2783.5
2354.336	2800.5
2358.178	2811.5
2362.015	2791.5
2365.85	2823.5
2369.681	2798.5
2373.508	2820.5
2377.333	2775.5
2381.153	2783.5
2384.971	2757.5
2388.785	2733.5
2392.595	2712.5
2396.402	2692.5
2400.206	2642.5
2404.007	2642.5
2407.804	2627.5
2411.597	2592.5
2415.388	2610.5
2419.174	2572.5
2422.958	2543.5
2426.738	2524.5
2430.515	2508.5
2434.289	2504.5
2438.059	2462.5
2441.825	2451.5
2445.589	2428.5
2449.349	2385.5
2453.106	2356.5
2456.859	2329.5
2460.61	2319.5
2464.356	2317.5
2468.1	2279.5
2471.84	2251.5
2475.577	2225.5
2479.311	2224.5
2483.041	2219.5
2486.768	2193.5
2490.492	2196.5
2494.213	2192.5
2497.93	2183.5
2501.644	2168.5
2505.355	2168.5
2509.062	2165.5
2512.766	2155.5
2516.467	2157.5
2520.165	2123.5
2523.859	2120.5
2527.551	2125.5
2531.239	2108.5
2534.923	2110.5
2538.605	2097.5
2542.283	2085.5
2545.958	2080.5
2549.63	2106.5
2553.299	2092.5
2556.964	2097.5
2560.626	2081.5
2564.285	2071.5
2567.941	2067.5
2571.594	2053.5
2575.243	2055.5
2578.89	2010.5
2582.533	2014.5
2586.173	1974.5
2589.809	1978.5
2593.443	1940.5
2597.073	1927.5
2600.701	1943.5
2604.325	1896.5
2607.946	1874.5
2611.564	1853.5
2615.178	1854.5
2618.79	1850.5
2622.398	1800.5
2626.004	1796.5
2629.606	1764.5
2633.205	1739.5
2636.801	1722.5
2640.394	1709.5
2643.983	1664.5
2647.57	1637.5
2651.153	1613.5
2654.734	1569.5
2658.311	1554.5
2661.885	1517.5
2665.456	1530.5
2669.025	1488.5
2672.589	1466.5
2676.151	1465.5
2679.71	1456.5
2683.266	1414.5
2686.819	1385.5
2690.368	1362.5
2693.915	1349.5
2697.458	1293.5
2700.999	1271.5
2704.536	1238.5
2708.071	1211.5
2711.602	1200.5
2715.13	1156.5
2718.656	1138.5
2722.178	1140.5
2725.697	1119.5
2729.214	1102.5
2732.727	1103.5
2736.237	1102.5
2739.744	1101.5
2743.249	1130.5
2746.75	1132.5
2750.248	1157.5
2753.743	1171.5
2757.236	1178.5
2760.725	1195.5
2764.211	1203.5
2767.695	1192.5
2771.175	1176.5
2774.652	1188.5
2778.127	1184.5
2781.598	1164.5
2785.067	1167.5
2788.532	1157.5
2791.995	1139.5
2795.455	1140.5
2798.911	1138.5
2802.365	1148.5
2805.816	1155.5
2809.264	1140.5
2812.709	1148.5
2816.151	1118.5
2819.59	1138.5
2823.026	1128.5
2826.46	1143.5
2829.89	1120.5
2833.318	1134.5
2836.742	1137.5
2840.164	1153.5
2843.583	1146.5
2846.999	1138.5
2850.412	1170.5
2853.822	1166.5
2857.229	1170.5
2860.634	1205.5
2864.035	1209.5
2867.434	1231.5
2870.83	1243.5
2874.223	1244.5
2877.613	1264.5
2881	1285.5
2884.385	1277.5
2887.766	1283.5
2891.145	1280.5
2894.521	1276.5
2897.894	1263.5
2901.264	1248.5
2904.631	1234.5
2907.996	1247.5
2911.358	1232.5
2914.717	1238.5
2918.073	1256.5
2921.426	1274.5
2924.777	1280.5
2928.124	1287.5
2931.469	1312.5
2934.811	1325.5
2938.15	1354.5
2941.487	1353.5
2944.821	1382.5
2948.152	1338.5
2951.48	1359.5
2954.805	1341.5
2958.128	1337.5
2961.447	1314.5
2964.765	1322.5
2968.079	1310.5
2971.39	1300.5
2974.699	1345.5
2978.005	1340.5
2981.308	1366.5
2984.609	1385.5
2987.907	1418.5
2991.202	1474.5
2994.494	1482.5
2997.784	1530.5
3001.07	1532.5
3004.355	1556.5
3007.636	1577.5
3010.915	1601.5
3014.191	1610.5
3017.464	1606.5
3020.734	1636.5
3024.002	1627.5
3027.267	1630.5
3030.53	1640.5
3033.789	1662.5
3037.046	1676.5
3040.301	1685.5
3043.552	1702.5
3046.801	1747.5
3050.048	1808.5
3053.291	1823.5
3056.532	1868.5
3059.771	1935.5
3063.006	1965.5
3066.239	2053.5
3069.469	2113.5
3072.697	2128.5
3075.922	2197.5
3079.144	2259.5
3082.364	2306.5
3085.581	2333.5
3088.795	2396.5
3092.007	2424.5
3095.216	2480.5
3098.423	2547.5
3101.627	2595.5
3104.828	2660.5
3108.026	2708.5
3111.222	2797.5
3114.416	2825.5
3117.607	2881.5
3120.795	2939.5
3123.98	3023.5
3127.163	3122.5
3130.344	3162.5
3133.521	3244.5
3136.696	3290.5
3139.869	3386.5
3143.039	3461.5
3146.206	3481.5
3149.371	3521.5
3152.533	3545.5
3155.693	3590.5
3158.85	3584.5
3162.005	3619.5
3165.157	3633.5
3168.306	3632.5
3171.453	3627.5
3174.597	3636.5
3177.739	3653.5
3180.878	3656.5
3184.014	3641.5
3187.149	3643.5
3190.28	3667.5
3193.409	3655.5
3196.536	3664.5
3199.659	3669.5
3202.781	3658.5
3205.9	3663.5
3209.016	3669.5
3212.13	3646.5
3215.241	3595.5
3218.35	3593.5
3221.456	3553.5
3224.56	3495.5
3227.661	3451.5
3230.76	3419.5
3233.856	3380.5
3236.95	3375.5
3240.041	3340.5
3243.13	3325.5
3246.216	3319.5
3249.3	3248.5
3252.382	3228.5
3255.46	3208.5
3258.537	3214.5
3261.611	3233.5
3264.682	3256.5
3267.751	3214.5
3270.818	3224.5
3273.882	3220.5
3276.943	3202.5
3280.002	3157.5
3283.059	3143.5
3286.113	3119.5
3289.165	3101.5
3292.214	3006.5
3295.261	2950.5
3298.306	2906.5
3301.348	2840.5
3304.387	2805.5
3307.425	2789.5
3310.459	2732.5
3313.492	2680.5
3316.521	2647.5
3319.549	2612.5
3322.574	2601.5
3325.597	2569.5
3328.617	2545.5
3331.635	2543.5
3334.65	2514.5
3337.663	2520.5
3340.674	2493.5
3343.682	2476.5
3346.688	2482.5
3349.691	2467.5
3352.692	2457.5
3355.691	2420.5
3358.687	2395.5
3361.681	2398.5
3364.673	2337.5
3367.662	2327.5
3370.649	2281.5
3373.633	2218.5
3376.615	2230.5
3379.595	2169.5
3382.572	2163.5
3385.547	2128.5
3388.52	2096.5
3391.49	2051.5
3394.458	2012.5
3397.424	1987.5
3400.387	1930.5
3403.348	1919.5
3406.307	1911.5
3409.263	1898.5
3412.217	1874.5
3415.168	1845.5
3418.118	1840.5
3421.065	1810.5
3424.009	1775.5
3426.951	1752.5
3429.891	1724.5
3432.829	1691.5
3435.764	1641.5
3438.697	1618.5
3441.628	1557.5
3444.557	1517.5
3447.483	1458.5
3450.407	1426.5
3453.328	1368.5
3456.247	1321.5
3459.164	1271.5
3462.079	1231.5
3464.991	1193.5
3467.902	1125.5
3470.809	1090.5
3473.715	1049.5
3476.618	1012.5
3479.519	981.5
3482.418	935.5
3485.315	919.5
3488.209	891.5
3491.101	839.5
3493.99	817.5
3496.878	792.5
3499.763	751.5
3502.646	735.5
3505.527	692.5
3508.405	636.5
3511.281	599.5
3514.155	581.5
3517.027	544.5
3519.897	509.5
3522.764	470.5
3525.629	432.5
3528.492	385.5
3531.352	357.5
3534.211	327.5
3537.067	292.5
3539.921	250.5
3542.773	219.5
3545.622	201.5
3548.469	177.5
3551.315	136.5
3554.157	120.5
3556.998	89.5
3559.837	78.5
3562.673	49.5
3565.507	31.5
3568.339	12.5
3571.169	-10.5
3573.996	-23.5
3576.822	-42.5
3579.645	-74.5
3582.466	-83.5
3585.285	-102.5
3588.101	-123.5
3590.916	-138.5
3593.728	-164.5
3596.538	-181.5
3599.346	-191.5
3602.152	-204.5
3604.956	-217.5
3607.757	-229.5
3610.556	-247.5
3613.354	-260.5
3616.149	-276.5
3618.942	-287.5
3621.732	-292.5
3624.521	-309.5
3627.307	-312.5
3630.092	-317.5
3632.874	-325.5
3635.654	-342.5
3638.432	-340.5
3641.208	-357.5
3643.982	-365.5
3646.753	-368.5
3649.523	-381.5
3652.29	-389.5
3655.055	-392.5
3657.818	-403.5
3660.579	-419.5
3663.338	-434.5
3666.095	-429.5
3668.849	-443.5
3671.602	-452.5
3674.352	-462.5
3677.101	-462.5
3679.847	-468.5
3682.591	-465.5
3685.333	-479.5
3688.073	-487.5
3690.811	-490.5
3693.547	-498.5
3696.281	-496.5
3699.013	-497.5
3701.742	-512.5
3704.47	-508.5
3707.195	-510.5
3709.919	-512.5
3712.64	-520.5
3715.359	-523.5
3718.076	-531.5
3720.792	-531.5
3723.505	-535.5
3726.216	-541.5
3728.925	-535.5
3731.632	-545.5
3734.336	-548.5
3737.039	-549.5
3739.74	-549.5
3742.439	-558.5
3745.136	-556.5
3747.83	-557.5
3750.523	-559.5
3753.213	-555.5
3755.902	-567.5
3758.589	-562.5
3761.273	-567.5
3763.956	-565.5
3766.636	-569.5
3769.315	-573.5
3771.991	-572.5
3774.665	-573.5
3777.338	-571.5
3780.008	-575.5
3782.677	-583.5
3785.343	-573.5
3788.007	-581.5
3790.67	-578.5
3793.33	-587.5
3795.989	-584.5
3798.645	-582.5
3801.299	-585.5
3803.952	-590.5
3806.602	-594.5
3809.251	-598.5
3811.897	-587.5
3814.542	-592.5
3817.184	-591.5
3819.825	-593.5
3822.463	-585.5
3825.1	-593.5
3827.735	-594.5
3830.367	-590.5
3832.998	-597.5
3835.627	-601.5
3838.253	-602.5
3840.878	-603.5
3843.501	-596.5
3846.122	-591.5
3848.741	-596.5
3851.358	-596.5
3853.973	-603.5
3856.586	-605.5
3859.197	-600.5
3861.806	-608.5
3864.414	-599.5
3867.019	-598.5
3869.622	-607.5
3872.224	-601.5
3874.823	-584.5
3877.421	-569.5
3880.016	-554.5
3882.61	-531.5
3885.202	-531.5
3887.792	-546.5
3890.38	-574.5
3892.966	-589.5
3895.55	-603.5
3898.132	-613.5
3900.713	-616.5
3903.291	-608.5
3905.868	-618.5
3908.442	-614.5
3911.015	-616.5
3913.586	-611.5
3916.155	-605.5
3918.722	-617.5
3921.287	-618.5
3923.85	-616.5
3926.411	-617.5
3928.971	-626.5
3931.528	-618.5
3934.084	-619.5
3936.638	-619.5
3939.19	-617.5
3941.74	-616.5
3944.288	-617.5
3946.834	-617.5
3949.378	-621.5
3951.921	-619.5
3954.462	-622.5
3957	-616.5
3959.537	-623.5
3962.072	-616.5
3964.606	-621.5
3967.137	-615.5
3969.667	-620.5
3972.194	-610.5
3974.72	-616.5
3977.244	-604.5
3979.766	-604.5
3982.286	-609.5
3984.805	-605.5
3987.321	-601.5
3989.836	-604.5
3992.349	-601.5
3994.86	-602.5
3997.369	-613.5
3999.877	-597.5
4002.382	-604.5
4004.886	-603.5
4007.388	-604.5
4009.888	-602.5
4012.386	-610.5
4014.883	-604.5
4017.377	-602.5
4019.87	-600.5
4022.361	-600.5
4024.85	-602.5
4027.338	-604.5
4029.823	-608.5
4032.307	-605.5
4034.789	-605.5
4037.269	-600.5
4039.747	-607.5
4042.224	-609.5
4044.699	-605.5
4047.172	-604.5
4049.643	-604.5
4052.112	-609.5
4054.58	-611.5
4057.046	-606.5
4059.51	-611.5
4061.972	-613.5
4064.432	-616.5
4066.891	-610.5
4069.348	-610.5
4071.803	-608.5
4074.256	-610.5
4076.708	-606.5
4079.158	-609.5
4081.606	-609.5
4084.052	-609.5
4086.497	-611.5
4088.939	-605.5
4091.38	-606.5
4093.819	-601.5
4096.257	-640.5
4098.693	-638.5
4101.127	-644.5
4103.559	-637.5
4105.989	-353.5
4108.418	-343.5
4110.845	-326.5
4113.27	-292.5
4115.694	-259.5
4118.115	-223.5
4120.535	-602.5
4122.954	-604.5
4125.37	-597.5
4127.785	-603.5
4130.198	-609.5
4132.609	-604.5
4135.019	-640.5
4137.427	-639.5
4139.833	-640.5
4142.237	-637.5
