Data from 2018-2-14_conc=0_n=5_RamanShift_05.txt Node
Date: Wed Feb 14 10:41:26 IST 2018
User: aro
Spectrometer: QEPB0276
Trigger mode: 0
Integration Time (sec): 3.000000E1
Scans to average: 1
Electric dark correction enabled: true
Nonlinearity correction enabled: false
Boxcar width: 0
XAxis mode: Raman Shifts
Number of Pixels in Spectrum: 1044
>>>>>Begin Spectral Data<<<<<
160.701	-141.2
166.742	33.8
172.777	558.8
178.805	2155.8
184.826	5926.8
190.841	12442.8
196.849	19894.8
202.85	25190.8
208.845	26952.8
214.833	26652.8
220.815	26185.8
226.789	25882.8
232.758	25792.8
238.719	25572.8
244.674	25196.8
250.623	24724.8
256.565	24183.8
262.5	23715.8
268.429	23216.8
274.351	22862.8
280.267	22541.8
286.176	22278.8
292.079	22016.8
297.975	21777.8
303.865	21639.8
309.748	21432.8
315.625	21309.8
321.495	21201.8
327.359	21145.8
333.217	21071.8
339.068	21015.8
344.912	21007.8
350.751	20993.8
356.583	20943.8
362.408	20928.8
368.227	20865.8
374.04	20972.8
379.847	21008.8
385.647	21036.8
391.44	21090.8
397.228	21205.8
403.009	21315.8
408.784	21359.8
414.553	21396.8
420.315	21502.8
426.071	21509.8
431.821	21498.8
437.565	21492.8
443.302	21539.8
449.033	21420.8
454.758	21369.8
460.477	21324.8
466.189	21263.8
471.896	21240.8
477.596	21178.8
483.29	21086.8
488.978	21128.8
494.66	20996.8
500.335	20885.8
506.005	20651.8
511.668	20437.8
517.325	20161.8
522.977	19961.8
528.622	19787.8
534.261	19676.8
539.894	19609.8
545.521	19540.8
551.141	19439.8
556.756	19362.8
562.365	19345.8
567.968	19206.8
573.565	19210.8
579.155	19071.8
584.74	19025.8
590.319	18942.8
595.892	18911.8
601.459	18772.8
607.02	18681.8
612.575	18559.8
618.124	18502.8
623.667	18369.8
629.204	18282.8
634.735	18249.8
640.261	18102.8
645.781	18031.8
651.294	18011.8
656.802	18015.8
662.304	18001.8
667.8	17958.8
673.29	17896.8
678.775	17866.8
684.254	17785.8
689.726	17735.8
695.193	17675.8
700.655	17547.8
706.11	17482.8
711.56	17463.8
717.004	17336.8
722.442	17280.8
727.874	17157.8
733.301	17152.8
738.722	17081.8
744.137	17051.8
749.547	17043.8
754.951	17048.8
760.349	17047.8
765.741	17067.8
771.128	17029.8
776.509	17068.8
781.885	17085.8
787.254	17073.8
792.618	16932.8
797.977	16824.8
803.33	16695.8
808.677	16592.8
814.019	16548.8
819.355	16440.8
824.686	16409.8
830.011	16356.8
835.33	16355.8
840.644	16333.8
845.952	16354.8
851.255	16367.8
856.552	16421.8
861.844	16408.8
867.13	16314.8
872.41	16255.8
877.686	16170.8
882.955	16090.8
888.219	15918.8
893.478	15741.8
898.731	15537.8
903.979	15409.8
909.221	15296.8
914.458	15170.8
919.69	15228.8
924.916	15246.8
930.136	15300.8
935.351	15332.8
940.561	15320.8
945.766	15266.8
950.965	15239.8
956.158	15116.8
961.347	14979.8
966.529	14744.8
971.707	14545.8
976.879	14355.8
982.046	14306.8
987.208	14260.8
992.364	14181.8
997.515	14309.8
1002.66	14455.8
1007.801	14622.8
1012.936	14719.8
1018.066	14729.8
1023.19	14691.8
1028.309	14695.8
1033.423	14686.8
1038.532	14562.8
1043.636	14449.8
1048.734	14293.8
1053.827	14084.8
1058.915	13968.8
1063.998	13881.8
1069.075	13829.8
1074.147	13857.8
1079.214	13896.8
1084.276	13934.8
1089.333	14048.8
1094.385	14089.8
1099.431	14181.8
1104.472	14157.8
1109.509	14046.8
1114.54	13889.8
1119.565	13694.8
1124.586	13558.8
1129.602	13406.8
1134.613	13319.8
1139.618	13225.8
1144.619	13207.8
1149.614	13181.8
1154.604	13169.8
1159.589	13304.8
1164.57	13280.8
1169.545	13350.8
1174.515	13270.8
1179.48	13239.8
1184.44	13100.8
1189.395	13039.8
1194.345	12900.8
1199.29	12901.8
1204.23	12840.8
1209.165	12916.8
1214.095	13001.8
1219.021	13064.8
1223.941	13140.8
1228.856	13212.8
1233.766	13228.8
1238.672	13235.8
1243.572	13241.8
1248.467	13154.8
1253.358	13007.8
1258.244	12843.8
1263.124	12584.8
1268	12389.8
1272.871	12273.8
1277.737	12184.8
1282.599	12116.8
1287.455	12110.8
1292.306	12115.8
1297.153	12160.8
1301.995	12251.8
1306.832	12299.8
1311.664	12321.8
1316.491	12222.8
1321.314	12141.8
1326.132	11957.8
1330.945	11710.8
1335.753	11467.8
1340.556	11171.8
1345.354	10928.8
1350.148	10762.8
1354.937	10670.8
1359.722	10676.8
1364.501	10747.8
1369.276	10866.8
1374.046	11004.8
1378.811	11123.8
1383.572	11268.8
1388.327	11308.8
1393.079	11236.8
1397.825	11151.8
1402.567	10944.8
1407.304	10781.8
1412.036	10610.8
1416.764	10611.8
1421.487	10585.8
1426.205	10478.8
1430.919	10455.8
1435.628	10469.8
1440.333	10458.8
1445.032	10421.8
1449.727	10522.8
1454.418	10506.8
1459.104	10399.8
1463.785	10221.8
1468.462	9958.8
1473.134	9778.8
1477.802	9584.8
1482.465	9456.8
1487.123	9380.8
1491.777	9322.8
1496.426	9332.8
1501.071	9499.8
1505.711	9628.8
1510.347	9794.8
1514.978	9946.8
1519.604	10113.8
1524.226	10200.8
1528.844	10204.8
1533.457	10136.8
1538.065	10143.8
1542.669	10104.8
1547.269	9932.8
1551.864	9932.8
1556.454	9846.8
1561.041	9858.8
1565.622	9879.8
1570.199	9881.8
1574.772	9964.8
1579.34	9981.8
1583.904	10084.8
1588.464	10078.8
1593.019	10073.8
1597.569	10015.8
1602.115	9949.8
1606.657	9905.8
1611.195	9877.8
1615.728	9811.8
1620.256	9798.8
1624.78	9789.8
1629.3	9779.8
1633.816	9805.8
1638.327	9858.8
1642.834	9956.8
1647.336	10005.8
1651.834	10000.8
1656.328	9973.8
1660.817	9927.8
1665.302	9825.8
1669.783	9656.8
1674.259	9449.8
1678.732	9188.8
1683.199	8905.8
1687.663	8566.8
1692.122	8340.8
1696.577	8190.8
1701.028	8171.8
1705.474	8241.8
1709.917	8345.8
1714.355	8344.8
1718.788	8279.8
1723.218	8152.8
1727.643	7992.8
1732.064	7827.8
1736.481	7681.8
1740.893	7440.8
1745.301	7301.8
1749.705	7093.8
1754.105	6868.8
1758.501	6684.8
1762.893	6488.8
1767.28	6355.8
1771.663	6209.8
1776.042	6113.8
1780.417	6045.8
1784.787	6032.8
1789.154	6143.8
1793.516	6250.8
1797.874	6338.8
1802.228	6454.8
1806.578	6517.8
1810.924	6491.8
1815.266	6479.8
1819.603	6343.8
1823.937	6278.8
1828.266	6159.8
1832.591	6024.8
1836.913	5978.8
1841.23	5939.8
1845.543	5875.8
1849.852	5845.8
1854.156	5817.8
1858.457	5791.8
1862.754	5808.8
1867.047	5761.8
1871.335	5786.8
1875.62	5795.8
1879.9	5770.8
1884.177	5705.8
1888.449	5691.8
1892.718	5616.8
1896.982	5574.8
1901.243	5541.8
1905.499	5488.8
1909.752	5454.8
1914	5452.8
1918.245	5472.8
1922.485	5527.8
1926.722	5625.8
1930.954	5632.8
1935.183	5738.8
1939.408	5794.8
1943.628	5816.8
1947.845	5841.8
1952.058	5815.8
1956.267	5784.8
1960.472	5675.8
1964.673	5637.8
1968.87	5520.8
1973.063	5410.8
1977.252	5345.8
1981.438	5286.8
1985.619	5261.8
1989.797	5196.8
1993.971	5154.8
1998.14	5147.8
2002.306	5090.8
2006.469	5098.8
2010.627	5045.8
2014.781	5015.8
2018.932	4983.8
2023.078	4957.8
2027.221	4859.8
2031.36	4808.8
2035.495	4699.8
2039.627	4634.8
2043.754	4606.8
2047.878	4572.8
2051.998	4545.8
2056.114	4507.8
2060.226	4527.8
2064.334	4531.8
2068.439	4533.8
2072.54	4581.8
2076.637	4631.8
2080.73	4669.8
2084.82	4647.8
2088.906	4670.8
2092.988	4703.8
2097.066	4680.8
2101.14	4631.8
2105.211	4620.8
2109.278	4575.8
2113.342	4567.8
2117.401	4513.8
2121.457	4485.8
2125.509	4501.8
2129.558	4477.8
2133.602	4449.8
2137.643	4402.8
2141.681	4382.8
2145.714	4362.8
2149.744	4340.8
2153.77	4306.8
2157.793	4261.8
2161.812	4196.8
2165.827	4129.8
2169.838	4070.8
2173.846	4024.8
2177.851	3928.8
2181.851	3872.8
2185.848	3833.8
2189.841	3784.8
2193.831	3741.8
2197.817	3696.8
2201.799	3718.8
2205.778	3674.8
2209.753	3650.8
2213.725	3656.8
2217.693	3641.8
2221.657	3621.8
2225.618	3611.8
2229.575	3585.8
2233.529	3580.8
2237.479	3538.8
2241.425	3497.8
2245.368	3448.8
2249.307	3402.8
2253.243	3350.8
2257.175	3307.8
2261.104	3240.8
2265.029	3219.8
2268.95	3200.8
2272.868	3144.8
2276.783	3098.8
2280.694	3075.8
2284.601	3051.8
2288.505	3026.8
2292.405	2994.8
2296.302	2947.8
2300.195	2940.8
2304.085	2903.8
2307.971	2867.8
2311.854	2801.8
2315.734	2766.8
2319.609	2732.8
2323.482	2694.8
2327.351	2656.8
2331.216	2659.8
2335.078	2648.8
2338.937	2603.8
2342.792	2588.8
2346.643	2587.8
2350.492	2591.8
2354.336	2570.8
2358.178	2593.8
2362.015	2609.8
2365.85	2589.8
2369.681	2591.8
2373.508	2602.8
2377.333	2592.8
2381.153	2567.8
2384.971	2567.8
2388.785	2547.8
2392.595	2537.8
2396.402	2499.8
2400.206	2480.8
2404.007	2464.8
2407.804	2452.8
2411.597	2434.8
2415.388	2436.8
2419.174	2397.8
2422.958	2382.8
2426.738	2382.8
2430.515	2352.8
2434.289	2318.8
2438.059	2300.8
2441.825	2277.8
2445.589	2256.8
2449.349	2242.8
2453.106	2218.8
2456.859	2169.8
2460.61	2160.8
2464.356	2133.8
2468.1	2108.8
2471.84	2106.8
2475.577	2064.8
2479.311	2076.8
2483.041	2033.8
2486.768	2021.8
2490.492	2021.8
2494.213	2018.8
2497.93	2034.8
2501.644	2000.8
2505.355	1985.8
2509.062	1996.8
2512.766	1977.8
2516.467	1981.8
2520.165	1958.8
2523.859	1952.8
2527.551	1945.8
2531.239	1930.8
2534.923	1911.8
2538.605	1892.8
2542.283	1904.8
2545.958	1886.8
2549.63	1907.8
2553.299	1915.8
2556.964	1856.8
2560.626	1868.8
2564.285	1846.8
2567.941	1867.8
2571.594	1851.8
2575.243	1832.8
2578.89	1823.8
2582.533	1796.8
2586.173	1783.8
2589.809	1772.8
2593.443	1742.8
2597.073	1762.8
2600.701	1734.8
2604.325	1721.8
2607.946	1719.8
2611.564	1698.8
2615.178	1676.8
2618.79	1666.8
2622.398	1643.8
2626.004	1629.8
2629.606	1614.8
2633.205	1584.8
2636.801	1558.8
2640.394	1557.8
2643.983	1528.8
2647.57	1511.8
2651.153	1484.8
2654.734	1433.8
2658.311	1425.8
2661.885	1422.8
2665.456	1382.8
2669.025	1406.8
2672.589	1351.8
2676.151	1354.8
2679.71	1347.8
2683.266	1316.8
2686.819	1279.8
2690.368	1267.8
2693.915	1230.8
2697.458	1205.8
2700.999	1181.8
2704.536	1148.8
2708.071	1120.8
2711.602	1109.8
2715.13	1080.8
2718.656	1067.8
2722.178	1037.8
2725.697	1009.8
2729.214	1027.8
2732.727	1009.8
2736.237	1006.8
2739.744	993.8
2743.249	1025.8
2746.75	1026.8
2750.248	1020.8
2753.743	1039.8
2757.236	1054.8
2760.725	1060.8
2764.211	1076.8
2767.695	1069.8
2771.175	1073.8
2774.652	1058.8
2778.127	1056.8
2781.598	1053.8
2785.067	1050.8
2788.532	1028.8
2791.995	1049.8
2795.455	1037.8
2798.911	1041.8
2802.365	1053.8
2805.816	1048.8
2809.264	1045.8
2812.709	1033.8
2816.151	1039.8
2819.59	1051.8
2823.026	1043.8
2826.46	1028.8
2829.89	1060.8
2833.318	1060.8
2836.742	1065.8
2840.164	1057.8
2843.583	1062.8
2846.999	1074.8
2850.412	1075.8
2853.822	1102.8
2857.229	1110.8
2860.634	1140.8
2864.035	1144.8
2867.434	1160.8
2870.83	1185.8
2874.223	1193.8
2877.613	1232.8
2881	1236.8
2884.385	1237.8
2887.766	1246.8
2891.145	1238.8
2894.521	1249.8
2897.894	1243.8
2901.264	1244.8
2904.631	1254.8
2907.996	1234.8
2911.358	1270.8
2914.717	1259.8
2918.073	1267.8
2921.426	1267.8
2924.777	1300.8
2928.124	1309.8
2931.469	1336.8
2934.811	1364.8
2938.15	1393.8
2941.487	1391.8
2944.821	1405.8
2948.152	1405.8
2951.48	1411.8
2954.805	1374.8
2958.128	1371.8
2961.447	1352.8
2964.765	1361.8
2968.079	1364.8
2971.39	1361.8
2974.699	1379.8
2978.005	1414.8
2981.308	1436.8
2984.609	1474.8
2987.907	1487.8
2991.202	1514.8
2994.494	1557.8
2997.784	1580.8
3001.07	1612.8
3004.355	1639.8
3007.636	1662.8
3010.915	1676.8
3014.191	1694.8
3017.464	1695.8
3020.734	1721.8
3024.002	1721.8
3027.267	1736.8
3030.53	1746.8
3033.789	1762.8
3037.046	1793.8
3040.301	1800.8
3043.552	1846.8
3046.801	1855.8
3050.048	1941.8
3053.291	1992.8
3056.532	2032.8
3059.771	2087.8
3063.006	2140.8
3066.239	2182.8
3069.469	2271.8
3072.697	2294.8
3075.922	2391.8
3079.144	2437.8
3082.364	2509.8
3085.581	2548.8
3088.795	2600.8
3092.007	2676.8
3095.216	2708.8
3098.423	2782.8
3101.627	2859.8
3104.828	2913.8
3108.026	2963.8
3111.222	3010.8
3114.416	3089.8
3117.607	3182.8
3120.795	3213.8
3123.98	3316.8
3127.163	3387.8
3130.344	3487.8
3133.521	3548.8
3136.696	3612.8
3139.869	3704.8
3143.039	3781.8
3146.206	3812.8
3149.371	3877.8
3152.533	3901.8
3155.693	3913.8
3158.85	3936.8
3162.005	3958.8
3165.157	3977.8
3168.306	3975.8
3171.453	3971.8
3174.597	4001.8
3177.739	4020.8
3180.878	4001.8
3184.014	4016.8
3187.149	4036.8
3190.28	4014.8
3193.409	4057.8
3196.536	4038.8
3199.659	4066.8
3202.781	4079.8
3205.9	4061.8
3209.016	4052.8
3212.13	4028.8
3215.241	3985.8
3218.35	3984.8
3221.456	3932.8
3224.56	3897.8
3227.661	3872.8
3230.76	3816.8
3233.856	3756.8
3236.95	3739.8
3240.041	3741.8
3243.13	3680.8
3246.216	3692.8
3249.3	3651.8
3252.382	3676.8
3255.46	3636.8
3258.537	3610.8
3261.611	3619.8
3264.682	3639.8
3267.751	3591.8
3270.818	3597.8
3273.882	3584.8
3276.943	3573.8
3280.002	3527.8
3283.059	3500.8
3286.113	3464.8
3289.165	3405.8
3292.214	3354.8
3295.261	3317.8
3298.306	3256.8
3301.348	3194.8
3304.387	3166.8
3307.425	3116.8
3310.459	3060.8
3313.492	3018.8
3316.521	2990.8
3319.549	2930.8
3322.574	2908.8
3325.597	2883.8
3328.617	2869.8
3331.635	2842.8
3334.65	2834.8
3337.663	2824.8
3340.674	2772.8
3343.682	2772.8
3346.688	2816.8
3349.691	2761.8
3352.692	2755.8
3355.691	2705.8
3358.687	2705.8
3361.681	2681.8
3364.673	2616.8
3367.662	2581.8
3370.649	2567.8
3373.633	2552.8
3376.615	2496.8
3379.595	2483.8
3382.572	2434.8
3385.547	2398.8
3388.52	2350.8
3391.49	2324.8
3394.458	2291.8
3397.424	2249.8
3400.387	2235.8
3403.348	2200.8
3406.307	2162.8
3409.263	2162.8
3412.217	2119.8
3415.168	2084.8
3418.118	2064.8
3421.065	2030.8
3424.009	2018.8
3426.951	1977.8
3429.891	1963.8
3432.829	1896.8
3435.764	1873.8
3438.697	1819.8
3441.628	1771.8
3444.557	1711.8
3447.483	1651.8
3450.407	1623.8
3453.328	1571.8
3456.247	1513.8
3459.164	1447.8
3462.079	1416.8
3464.991	1344.8
3467.902	1327.8
3470.809	1261.8
3473.715	1212.8
3476.618	1177.8
3479.519	1124.8
3482.418	1093.8
3485.315	1055.8
3488.209	1035.8
3491.101	990.8
3493.99	941.8
3496.878	922.8
3499.763	876.8
3502.646	848.8
3505.527	816.8
3508.405	776.8
3511.281	721.8
3514.155	685.8
3517.027	663.8
3519.897	623.8
3522.764	553.8
3525.629	540.8
3528.492	483.8
3531.352	448.8
3534.211	412.8
3537.067	378.8
3539.921	336.8
3542.773	297.8
3545.622	262.8
3548.469	235.8
3551.315	203.8
3554.157	172.8
3556.998	157.8
3559.837	135.8
3562.673	105.8
3565.507	82.8
3568.339	55.8
3571.169	42.8
3573.996	14.8
3576.822	0.8
3579.645	-27.2
3582.466	-46.2
3585.285	-63.2
3588.101	-78.2
3590.916	-105.2
3593.728	-129.2
3596.538	-142.2
3599.346	-155.2
3602.152	-175.2
3604.956	-183.2
3607.757	-204.2
3610.556	-226.2
3613.354	-233.2
3616.149	-246.2
3618.942	-259.2
3621.732	-273.2
3624.521	-281.2
3627.307	-289.2
3630.092	-304.2
3632.874	-318.2
3635.654	-327.2
3638.432	-333.2
3641.208	-342.2
3643.982	-354.2
3646.753	-349.2
3649.523	-366.2
3652.29	-375.2
3655.055	-384.2
3657.818	-399.2
3660.579	-401.2
3663.338	-416.2
3666.095	-429.2
3668.849	-438.2
3671.602	-445.2
3674.352	-448.2
3677.101	-456.2
3679.847	-470.2
3682.591	-472.2
3685.333	-478.2
3688.073	-475.2
3690.811	-487.2
3693.547	-491.2
3696.281	-495.2
3699.013	-501.2
3701.742	-501.2
3704.47	-514.2
3707.195	-517.2
3709.919	-518.2
3712.64	-519.2
3715.359	-530.2
3718.076	-526.2
3720.792	-538.2
3723.505	-533.2
3726.216	-547.2
3728.925	-542.2
3731.632	-543.2
3734.336	-543.2
3737.039	-555.2
3739.74	-550.2
3742.439	-555.2
3745.136	-564.2
3747.83	-568.2
3750.523	-563.2
3753.213	-547.2
3755.902	-568.2
3758.589	-575.2
3761.273	-568.2
3763.956	-574.2
3766.636	-574.2
3769.315	-580.2
3771.991	-578.2
3774.665	-583.2
3777.338	-583.2
3780.008	-588.2
3782.677	-587.2
3785.343	-579.2
3788.007	-592.2
3790.67	-585.2
3793.33	-591.2
3795.989	-597.2
3798.645	-583.2
3801.299	-593.2
3803.952	-601.2
3806.602	-601.2
3809.251	-602.2
3811.897	-598.2
3814.542	-596.2
3817.184	-597.2
3819.825	-597.2
3822.463	-592.2
3825.1	-606.2
3827.735	-599.2
3830.367	-594.2
3832.998	-612.2
3835.627	-609.2
3838.253	-608.2
3840.878	-610.2
3843.501	-607.2
3846.122	-602.2
3848.741	-605.2
3851.358	-606.2
3853.973	-606.2
3856.586	-610.2
3859.197	-614.2
3861.806	-614.2
3864.414	-610.2
3867.019	-611.2
3869.622	-611.2
3872.224	-604.2
3874.823	-590.2
3877.421	-573.2
3880.016	-548.2
3882.61	-531.2
3885.202	-528.2
3887.792	-551.2
3890.38	-579.2
3892.966	-602.2
3895.55	-602.2
3898.132	-625.2
3900.713	-625.2
3903.291	-619.2
3905.868	-627.2
3908.442	-621.2
3911.015	-629.2
3913.586	-618.2
3916.155	-621.2
3918.722	-625.2
3921.287	-625.2
3923.85	-628.2
3926.411	-626.2
3928.971	-634.2
3931.528	-634.2
3934.084	-626.2
3936.638	-629.2
3939.19	-631.2
3941.74	-626.2
3944.288	-629.2
3946.834	-620.2
3949.378	-625.2
3951.921	-624.2
3954.462	-629.2
3957	-628.2
3959.537	-625.2
3962.072	-628.2
3964.606	-629.2
3967.137	-629.2
3969.667	-627.2
3972.194	-623.2
3974.72	-631.2
3977.244	-620.2
3979.766	-614.2
3982.286	-620.2
3984.805	-612.2
3987.321	-609.2
3989.836	-615.2
3992.349	-610.2
3994.86	-614.2
3997.369	-618.2
3999.877	-612.2
4002.382	-617.2
4004.886	-615.2
4007.388	-614.2
4009.888	-606.2
4012.386	-619.2
4014.883	-614.2
4017.377	-609.2
4019.87	-609.2
4022.361	-608.2
4024.85	-611.2
4027.338	-610.2
4029.823	-615.2
4032.307	-621.2
4034.789	-615.2
4037.269	-616.2
4039.747	-614.2
4042.224	-618.2
4044.699	-618.2
4047.172	-621.2
4049.643	-613.2
4052.112	-625.2
4054.58	-620.2
4057.046	-616.2
4059.51	-618.2
4061.972	-617.2
4064.432	-620.2
4066.891	-617.2
4069.348	-620.2
4071.803	-614.2
4074.256	-615.2
4076.708	-617.2
4079.158	-616.2
4081.606	-619.2
4084.052	-621.2
4086.497	-615.2
4088.939	-611.2
4091.38	-614.2
4093.819	-608.2
4096.257	-646.2
4098.693	-649.2
4101.127	-652.2
4103.559	-649.2
4105.989	-372.2
4108.418	-346.2
4110.845	-331.2
4113.27	-298.2
4115.694	-266.2
4118.115	-219.2
4120.535	-611.2
4122.954	-611.2
4125.37	-601.2
4127.785	-614.2
4130.198	-619.2
4132.609	-622.2
4135.019	-653.2
4137.427	-651.2
4139.833	-654.2
4142.237	-648.2
