Data from 2018-2-14_conc=0_n=4_RamanShift_03.txt Node
Date: Wed Feb 14 10:36:56 IST 2018
User: aro
Spectrometer: QEPB0276
Trigger mode: 0
Integration Time (sec): 3.000000E1
Scans to average: 1
Electric dark correction enabled: true
Nonlinearity correction enabled: false
Boxcar width: 0
XAxis mode: Raman Shifts
Number of Pixels in Spectrum: 1044
>>>>>Begin Spectral Data<<<<<
160.701	-149.6
166.742	36.4
172.777	573.4
178.805	2205.4
184.826	6052.4
190.841	12628.4
196.849	20035.4
202.85	25430.4
208.845	27121.4
214.833	26856.4
220.815	26392.4
226.789	26184.4
232.758	26085.4
238.719	25946.4
244.674	25578.4
250.623	25168.4
256.565	24616.4
262.5	24159.4
268.429	23753.4
274.351	23373.4
280.267	23052.4
286.176	22799.4
292.079	22653.4
297.975	22423.4
303.865	22247.4
309.748	22047.4
315.625	21992.4
321.495	21822.4
327.359	21719.4
333.217	21710.4
339.068	21634.4
344.912	21656.4
350.751	21622.4
356.583	21560.4
362.408	21565.4
368.227	21553.4
374.04	21586.4
379.847	21631.4
385.647	21707.4
391.44	21852.4
397.228	21914.4
403.009	22009.4
408.784	22016.4
414.553	22063.4
420.315	22142.4
426.071	22156.4
431.821	22087.4
437.565	22131.4
443.302	22054.4
449.033	22061.4
454.758	22030.4
460.477	21978.4
466.189	21882.4
471.896	21910.4
477.596	21842.4
483.29	21822.4
488.978	21729.4
494.66	21689.4
500.335	21541.4
506.005	21375.4
511.668	21181.4
517.325	20919.4
522.977	20704.4
528.622	20556.4
534.261	20457.4
539.894	20450.4
545.521	20298.4
551.141	20184.4
556.756	20196.4
562.365	20070.4
567.968	20074.4
573.565	19954.4
579.155	19916.4
584.74	19807.4
590.319	19727.4
595.892	19694.4
601.459	19620.4
607.02	19592.4
612.575	19464.4
618.124	19328.4
623.667	19219.4
629.204	19089.4
634.735	19027.4
640.261	18930.4
645.781	18885.4
651.294	18903.4
656.802	18849.4
662.304	18774.4
667.8	18776.4
673.29	18764.4
678.775	18702.4
684.254	18635.4
689.726	18652.4
695.193	18556.4
700.655	18497.4
706.11	18363.4
711.56	18252.4
717.004	18200.4
722.442	18113.4
727.874	18131.4
733.301	17979.4
738.722	17921.4
744.137	17905.4
749.547	17893.4
754.951	17875.4
760.349	17913.4
765.741	17945.4
771.128	17933.4
776.509	17961.4
781.885	17949.4
787.254	17879.4
792.618	17816.4
797.977	17751.4
803.33	17620.4
808.677	17496.4
814.019	17407.4
819.355	17334.4
824.686	17217.4
830.011	17195.4
835.33	17193.4
840.644	17221.4
845.952	17304.4
851.255	17314.4
856.552	17333.4
861.844	17321.4
867.13	17244.4
872.41	17204.4
877.686	17065.4
882.955	16967.4
888.219	16869.4
893.478	16714.4
898.731	16494.4
903.979	16288.4
909.221	16214.4
914.458	16111.4
919.69	16108.4
924.916	16182.4
930.136	16260.4
935.351	16257.4
940.561	16236.4
945.766	16189.4
950.965	16131.4
956.158	16106.4
961.347	15900.4
966.529	15676.4
971.707	15452.4
976.879	15302.4
982.046	15194.4
987.208	15131.4
992.364	15126.4
997.515	15270.4
1002.66	15367.4
1007.801	15521.4
1012.936	15636.4
1018.066	15697.4
1023.19	15659.4
1028.309	15709.4
1033.423	15541.4
1038.532	15556.4
1043.636	15375.4
1048.734	15220.4
1053.827	15055.4
1058.915	14854.4
1063.998	14803.4
1069.075	14706.4
1074.147	14754.4
1079.214	14803.4
1084.276	14887.4
1089.333	15031.4
1094.385	15077.4
1099.431	15178.4
1104.472	15083.4
1109.509	15015.4
1114.54	14855.4
1119.565	14646.4
1124.586	14467.4
1129.602	14317.4
1134.613	14258.4
1139.618	14128.4
1144.619	14148.4
1149.614	14126.4
1154.604	14143.4
1159.589	14198.4
1164.57	14248.4
1169.545	14235.4
1174.515	14219.4
1179.48	14175.4
1184.44	14064.4
1189.395	13962.4
1194.345	13851.4
1199.29	13767.4
1204.23	13791.4
1209.165	13875.4
1214.095	13934.4
1219.021	13976.4
1223.941	14118.4
1228.856	14119.4
1233.766	14186.4
1238.672	14203.4
1243.572	14191.4
1248.467	14050.4
1253.358	13979.4
1258.244	13790.4
1263.124	13525.4
1268	13310.4
1272.871	13201.4
1277.737	13092.4
1282.599	13043.4
1287.455	13043.4
1292.306	13077.4
1297.153	13128.4
1301.995	13185.4
1306.832	13213.4
1311.664	13242.4
1316.491	13248.4
1321.314	13107.4
1326.132	12874.4
1330.945	12612.4
1335.753	12339.4
1340.556	11967.4
1345.354	11732.4
1350.148	11550.4
1354.937	11436.4
1359.722	11442.4
1364.501	11512.4
1369.276	11688.4
1374.046	11884.4
1378.811	12112.4
1383.572	12231.4
1388.327	12324.4
1393.079	12221.4
1397.825	12065.4
1402.567	11815.4
1407.304	11655.4
1412.036	11590.4
1416.764	11490.4
1421.487	11364.4
1426.205	11352.4
1430.919	11313.4
1435.628	11312.4
1440.333	11326.4
1445.032	11388.4
1449.727	11405.4
1454.418	11378.4
1459.104	11259.4
1463.785	11008.4
1468.462	10781.4
1473.134	10616.4
1477.802	10366.4
1482.465	10225.4
1487.123	10087.4
1491.777	10091.4
1496.426	10156.4
1501.071	10278.4
1505.711	10450.4
1510.347	10674.4
1514.978	10855.4
1519.604	11044.4
1524.226	11101.4
1528.844	11152.4
1533.457	11126.4
1538.065	11064.4
1542.669	10963.4
1547.269	10875.4
1551.864	10796.4
1556.454	10749.4
1561.041	10697.4
1565.622	10696.4
1570.199	10730.4
1574.772	10748.4
1579.34	10835.4
1583.904	10851.4
1588.464	10902.4
1593.019	10863.4
1597.569	10835.4
1602.115	10813.4
1606.657	10660.4
1611.195	10664.4
1615.728	10584.4
1620.256	10519.4
1624.78	10498.4
1629.3	10501.4
1633.816	10560.4
1638.327	10592.4
1642.834	10636.4
1647.336	10670.4
1651.834	10749.4
1656.328	10691.4
1660.817	10670.4
1665.302	10552.4
1669.783	10382.4
1674.259	10153.4
1678.732	9891.4
1683.199	9583.4
1687.663	9190.4
1692.122	8942.4
1696.577	8854.4
1701.028	8802.4
1705.474	8945.4
1709.917	9072.4
1714.355	9114.4
1718.788	9084.4
1723.218	8911.4
1727.643	8746.4
1732.064	8587.4
1736.481	8400.4
1740.893	8226.4
1745.301	7957.4
1749.705	7779.4
1754.105	7574.4
1758.501	7345.4
1762.893	7144.4
1767.28	6949.4
1771.663	6836.4
1776.042	6702.4
1780.417	6634.4
1784.787	6593.4
1789.154	6703.4
1793.516	6819.4
1797.874	6994.4
1802.228	7130.4
1806.578	7254.4
1810.924	7265.4
1815.266	7131.4
1819.603	7044.4
1823.937	6938.4
1828.266	6810.4
1832.591	6690.4
1836.913	6589.4
1841.23	6561.4
1845.543	6464.4
1849.852	6429.4
1854.156	6441.4
1858.457	6431.4
1862.754	6398.4
1867.047	6406.4
1871.335	6432.4
1875.62	6363.4
1879.9	6389.4
1884.177	6337.4
1888.449	6266.4
1892.718	6198.4
1896.982	6138.4
1901.243	6104.4
1905.499	6017.4
1909.752	6018.4
1914	6027.4
1918.245	6042.4
1922.485	6095.4
1926.722	6163.4
1930.954	6222.4
1935.183	6347.4
1939.408	6414.4
1943.628	6443.4
1947.845	6423.4
1952.058	6448.4
1956.267	6371.4
1960.472	6324.4
1964.673	6194.4
1968.87	6114.4
1973.063	6009.4
1977.252	5902.4
1981.438	5861.4
1985.619	5802.4
1989.797	5715.4
1993.971	5685.4
1998.14	5680.4
2002.306	5653.4
2006.469	5627.4
2010.627	5602.4
2014.781	5552.4
2018.932	5516.4
2023.078	5490.4
2027.221	5398.4
2031.36	5292.4
2035.495	5184.4
2039.627	5119.4
2043.754	5058.4
2047.878	5017.4
2051.998	4989.4
2056.114	4978.4
2060.226	4960.4
2064.334	4992.4
2068.439	5005.4
2072.54	4990.4
2076.637	5082.4
2080.73	5071.4
2084.82	5108.4
2088.906	5121.4
2092.988	5154.4
2097.066	5174.4
2101.14	5099.4
2105.211	5077.4
2109.278	5017.4
2113.342	5043.4
2117.401	5010.4
2121.457	4955.4
2125.509	4952.4
2129.558	4896.4
2133.602	4881.4
2137.643	4865.4
2141.681	4852.4
2145.714	4794.4
2149.744	4761.4
2153.77	4741.4
2157.793	4680.4
2161.812	4652.4
2165.827	4554.4
2169.838	4482.4
2173.846	4439.4
2177.851	4336.4
2181.851	4282.4
2185.848	4262.4
2189.841	4206.4
2193.831	4139.4
2197.817	4098.4
2201.799	4085.4
2205.778	4061.4
2209.753	4076.4
2213.725	4064.4
2217.693	4038.4
2221.657	4007.4
2225.618	4029.4
2229.575	3999.4
2233.529	3960.4
2237.479	3925.4
2241.425	3869.4
2245.368	3834.4
2249.307	3737.4
2253.243	3725.4
2257.175	3678.4
2261.104	3605.4
2265.029	3604.4
2268.95	3553.4
2272.868	3500.4
2276.783	3463.4
2280.694	3444.4
2284.601	3417.4
2288.505	3361.4
2292.405	3336.4
2296.302	3318.4
2300.195	3277.4
2304.085	3250.4
2307.971	3200.4
2311.854	3137.4
2315.734	3102.4
2319.609	3082.4
2323.482	3032.4
2327.351	2979.4
2331.216	2993.4
2335.078	2968.4
2338.937	2936.4
2342.792	2912.4
2346.643	2904.4
2350.492	2912.4
2354.336	2935.4
2358.178	2923.4
2362.015	2960.4
2365.85	2944.4
2369.681	2933.4
2373.508	2945.4
2377.333	2922.4
2381.153	2917.4
2384.971	2907.4
2388.785	2895.4
2392.595	2857.4
2396.402	2853.4
2400.206	2798.4
2404.007	2785.4
2407.804	2798.4
2411.597	2771.4
2415.388	2748.4
2419.174	2717.4
2422.958	2697.4
2426.738	2700.4
2430.515	2686.4
2434.289	2644.4
2438.059	2642.4
2441.825	2621.4
2445.589	2592.4
2449.349	2570.4
2453.106	2537.4
2456.859	2489.4
2460.61	2483.4
2464.356	2458.4
2468.1	2422.4
2471.84	2393.4
2475.577	2378.4
2479.311	2350.4
2483.041	2349.4
2486.768	2343.4
2490.492	2323.4
2494.213	2330.4
2497.93	2298.4
2501.644	2305.4
2505.355	2279.4
2509.062	2271.4
2512.766	2273.4
2516.467	2262.4
2520.165	2257.4
2523.859	2227.4
2527.551	2208.4
2531.239	2189.4
2534.923	2202.4
2538.605	2177.4
2542.283	2167.4
2545.958	2159.4
2549.63	2178.4
2553.299	2167.4
2556.964	2172.4
2560.626	2139.4
2564.285	2121.4
2567.941	2137.4
2571.594	2117.4
2575.243	2096.4
2578.89	2083.4
2582.533	2079.4
2586.173	2054.4
2589.809	2043.4
2593.443	2036.4
2597.073	2013.4
2600.701	1997.4
2604.325	1955.4
2607.946	1963.4
2611.564	1936.4
2615.178	1963.4
2618.79	1917.4
2622.398	1926.4
2626.004	1896.4
2629.606	1868.4
2633.205	1833.4
2636.801	1836.4
2640.394	1797.4
2643.983	1768.4
2647.57	1747.4
2651.153	1711.4
2654.734	1696.4
2658.311	1673.4
2661.885	1633.4
2665.456	1634.4
2669.025	1617.4
2672.589	1582.4
2676.151	1582.4
2679.71	1555.4
2683.266	1532.4
2686.819	1496.4
2690.368	1462.4
2693.915	1445.4
2697.458	1401.4
2700.999	1374.4
2704.536	1348.4
2708.071	1319.4
2711.602	1280.4
2715.13	1250.4
2718.656	1243.4
2722.178	1211.4
2725.697	1191.4
2729.214	1193.4
2732.727	1177.4
2736.237	1160.4
2739.744	1141.4
2743.249	1190.4
2746.75	1165.4
2750.248	1191.4
2753.743	1200.4
2757.236	1211.4
2760.725	1220.4
2764.211	1237.4
2767.695	1217.4
2771.175	1226.4
2774.652	1228.4
2778.127	1217.4
2781.598	1224.4
2785.067	1226.4
2788.532	1207.4
2791.995	1204.4
2795.455	1194.4
2798.911	1203.4
2802.365	1187.4
2805.816	1217.4
2809.264	1188.4
2812.709	1200.4
2816.151	1188.4
2819.59	1178.4
2823.026	1193.4
2826.46	1201.4
2829.89	1202.4
2833.318	1202.4
2836.742	1206.4
2840.164	1203.4
2843.583	1216.4
2846.999	1223.4
2850.412	1231.4
2853.822	1231.4
2857.229	1270.4
2860.634	1268.4
2864.035	1272.4
2867.434	1316.4
2870.83	1317.4
2874.223	1333.4
2877.613	1365.4
2881	1377.4
2884.385	1380.4
2887.766	1362.4
2891.145	1366.4
2894.521	1350.4
2897.894	1350.4
2901.264	1348.4
2904.631	1359.4
2907.996	1344.4
2911.358	1347.4
2914.717	1365.4
2918.073	1374.4
2921.426	1399.4
2924.777	1398.4
2928.124	1407.4
2931.469	1419.4
2934.811	1456.4
2938.15	1473.4
2941.487	1485.4
2944.821	1490.4
2948.152	1483.4
2951.48	1470.4
2954.805	1451.4
2958.128	1460.4
2961.447	1430.4
2964.765	1431.4
2968.079	1428.4
2971.39	1422.4
2974.699	1461.4
2978.005	1476.4
2981.308	1490.4
2984.609	1532.4
2987.907	1548.4
2991.202	1594.4
2994.494	1631.4
2997.784	1650.4
3001.07	1676.4
3004.355	1700.4
3007.636	1721.4
3010.915	1742.4
3014.191	1745.4
3017.464	1781.4
3020.734	1763.4
3024.002	1774.4
3027.267	1806.4
3030.53	1800.4
3033.789	1803.4
3037.046	1826.4
3040.301	1849.4
3043.552	1895.4
3046.801	1916.4
3050.048	1961.4
3053.291	2001.4
3056.532	2060.4
3059.771	2134.4
3063.006	2185.4
3066.239	2236.4
3069.469	2308.4
3072.697	2363.4
3075.922	2420.4
3079.144	2474.4
3082.364	2539.4
3085.581	2571.4
3088.795	2634.4
3092.007	2684.4
3095.216	2743.4
3098.423	2784.4
3101.627	2870.4
3104.828	2936.4
3108.026	2985.4
3111.222	3045.4
3114.416	3116.4
3117.607	3176.4
3120.795	3237.4
3123.98	3327.4
3127.163	3403.4
3130.344	3471.4
3133.521	3556.4
3136.696	3667.4
3139.869	3712.4
3143.039	3755.4
3146.206	3847.4
3149.371	3875.4
3152.533	3937.4
3155.693	3920.4
3158.85	3973.4
3162.005	3953.4
3165.157	3984.4
3168.306	3982.4
3171.453	3989.4
3174.597	3992.4
3177.739	3995.4
3180.878	3993.4
3184.014	4023.4
3187.149	3973.4
3190.28	4016.4
3193.409	4011.4
3196.536	3996.4
3199.659	4044.4
3202.781	4041.4
3205.9	4040.4
3209.016	4017.4
3212.13	4001.4
3215.241	4001.4
3218.35	3921.4
3221.456	3901.4
3224.56	3874.4
3227.661	3781.4
3230.76	3752.4
3233.856	3722.4
3236.95	3681.4
3240.041	3670.4
3243.13	3643.4
3246.216	3632.4
3249.3	3629.4
3252.382	3605.4
3255.46	3565.4
3258.537	3583.4
3261.611	3574.4
3264.682	3574.4
3267.751	3539.4
3270.818	3562.4
3273.882	3551.4
3276.943	3528.4
3280.002	3509.4
3283.059	3461.4
3286.113	3445.4
3289.165	3387.4
3292.214	3337.4
3295.261	3268.4
3298.306	3222.4
3301.348	3158.4
3304.387	3121.4
3307.425	3086.4
3310.459	3004.4
3313.492	2951.4
3316.521	2925.4
3319.549	2897.4
3322.574	2876.4
3325.597	2832.4
3328.617	2827.4
3331.635	2776.4
3334.65	2788.4
3337.663	2755.4
3340.674	2735.4
3343.682	2748.4
3346.688	2713.4
3349.691	2731.4
3352.692	2705.4
3355.691	2672.4
3358.687	2670.4
3361.681	2627.4
3364.673	2590.4
3367.662	2544.4
3370.649	2515.4
3373.633	2478.4
3376.615	2436.4
3379.595	2400.4
3382.572	2388.4
3385.547	2331.4
3388.52	2319.4
3391.49	2268.4
3394.458	2243.4
3397.424	2205.4
3400.387	2192.4
3403.348	2175.4
3406.307	2109.4
3409.263	2116.4
3412.217	2082.4
3415.168	2043.4
3418.118	2037.4
3421.065	1990.4
3424.009	2001.4
3426.951	1934.4
3429.891	1909.4
3432.829	1859.4
3435.764	1831.4
3438.697	1778.4
3441.628	1739.4
3444.557	1690.4
3447.483	1622.4
3450.407	1556.4
3453.328	1496.4
3456.247	1484.4
3459.164	1421.4
3462.079	1375.4
3464.991	1326.4
3467.902	1297.4
3470.809	1224.4
3473.715	1171.4
3476.618	1144.4
3479.519	1105.4
3482.418	1067.4
3485.315	1030.4
3488.209	977.4
3491.101	942.4
3493.99	920.4
3496.878	885.4
3499.763	848.4
3502.646	823.4
3505.527	773.4
3508.405	757.4
3511.281	696.4
3514.155	663.4
3517.027	645.4
3519.897	595.4
3522.764	547.4
3525.629	510.4
3528.492	473.4
3531.352	424.4
3534.211	387.4
3537.067	354.4
3539.921	308.4
3542.773	284.4
3545.622	241.4
3548.469	211.4
3551.315	198.4
3554.157	167.4
3556.998	137.4
3559.837	111.4
3562.673	94.4
3565.507	60.4
3568.339	43.4
3571.169	24.4
3573.996	-5.6
3576.822	-12.6
3579.645	-42.6
3582.466	-59.6
3585.285	-83.6
3588.101	-99.6
3590.916	-110.6
3593.728	-137.6
3596.538	-147.6
3599.346	-169.6
3602.152	-186.6
3604.956	-198.6
3607.757	-216.6
3610.556	-227.6
3613.354	-245.6
3616.149	-259.6
3618.942	-278.6
3621.732	-285.6
3624.521	-302.6
3627.307	-309.6
3630.092	-313.6
3632.874	-327.6
3635.654	-336.6
3638.432	-340.6
3641.208	-351.6
3643.982	-362.6
3646.753	-374.6
3649.523	-389.6
3652.29	-395.6
3655.055	-400.6
3657.818	-413.6
3660.579	-415.6
3663.338	-434.6
3666.095	-445.6
3668.849	-447.6
3671.602	-457.6
3674.352	-465.6
3677.101	-466.6
3679.847	-480.6
3682.591	-478.6
3685.333	-491.6
3688.073	-491.6
3690.811	-502.6
3693.547	-505.6
3696.281	-512.6
3699.013	-509.6
3701.742	-517.6
3704.47	-527.6
3707.195	-531.6
3709.919	-529.6
3712.64	-540.6
3715.359	-533.6
3718.076	-541.6
3720.792	-545.6
3723.505	-544.6
3726.216	-560.6
3728.925	-548.6
3731.632	-557.6
3734.336	-561.6
3737.039	-565.6
3739.74	-565.6
3742.439	-566.6
3745.136	-575.6
3747.83	-576.6
3750.523	-573.6
3753.213	-567.6
3755.902	-577.6
3758.589	-580.6
3761.273	-589.6
3763.956	-587.6
3766.636	-587.6
3769.315	-589.6
3771.991	-584.6
3774.665	-593.6
3777.338	-593.6
3780.008	-598.6
3782.677	-598.6
3785.343	-588.6
3788.007	-598.6
3790.67	-597.6
3793.33	-600.6
3795.989	-607.6
3798.645	-604.6
3801.299	-598.6
3803.952	-614.6
3806.602	-610.6
3809.251	-612.6
3811.897	-607.6
3814.542	-611.6
3817.184	-605.6
3819.825	-610.6
3822.463	-601.6
3825.1	-616.6
3827.735	-613.6
3830.367	-613.6
3832.998	-620.6
3835.627	-621.6
3838.253	-624.6
3840.878	-623.6
3843.501	-622.6
3846.122	-617.6
3848.741	-621.6
3851.358	-622.6
3853.973	-620.6
3856.586	-621.6
3859.197	-627.6
3861.806	-630.6
3864.414	-624.6
3867.019	-619.6
3869.622	-624.6
3872.224	-622.6
3874.823	-606.6
3877.421	-588.6
3880.016	-577.6
3882.61	-555.6
3885.202	-554.6
3887.792	-565.6
3890.38	-598.6
3892.966	-615.6
3895.55	-625.6
3898.132	-638.6
3900.713	-635.6
3903.291	-635.6
3905.868	-637.6
3908.442	-637.6
3911.015	-634.6
3913.586	-635.6
3916.155	-631.6
3918.722	-634.6
3921.287	-633.6
3923.85	-640.6
3926.411	-641.6
3928.971	-642.6
3931.528	-641.6
3934.084	-639.6
3936.638	-644.6
3939.19	-642.6
3941.74	-639.6
3944.288	-644.6
3946.834	-634.6
3949.378	-645.6
3951.921	-639.6
3954.462	-652.6
3957	-636.6
3959.537	-642.6
3962.072	-632.6
3964.606	-640.6
3967.137	-641.6
3969.667	-637.6
3972.194	-644.6
3974.72	-642.6
3977.244	-625.6
3979.766	-634.6
3982.286	-635.6
3984.805	-630.6
3987.321	-626.6
3989.836	-634.6
3992.349	-623.6
3994.86	-623.6
3997.369	-629.6
3999.877	-627.6
4002.382	-621.6
4004.886	-620.6
4007.388	-621.6
4009.888	-622.6
4012.386	-630.6
4014.883	-630.6
4017.377	-623.6
4019.87	-625.6
4022.361	-624.6
4024.85	-626.6
4027.338	-627.6
4029.823	-628.6
4032.307	-628.6
4034.789	-624.6
4037.269	-629.6
4039.747	-627.6
4042.224	-624.6
4044.699	-634.6
4047.172	-625.6
4049.643	-631.6
4052.112	-636.6
4054.58	-633.6
4057.046	-629.6
4059.51	-628.6
4061.972	-629.6
4064.432	-628.6
4066.891	-633.6
4069.348	-631.6
4071.803	-623.6
4074.256	-629.6
4076.708	-631.6
4079.158	-630.6
4081.606	-631.6
4084.052	-634.6
4086.497	-634.6
4088.939	-632.6
4091.38	-629.6
4093.819	-622.6
4096.257	-664.6
4098.693	-665.6
4101.127	-663.6
4103.559	-662.6
4105.989	-380.6
4108.418	-359.6
4110.845	-344.6
4113.27	-315.6
4115.694	-275.6
4118.115	-232.6
4120.535	-624.6
4122.954	-625.6
4125.37	-620.6
4127.785	-630.6
4130.198	-628.6
4132.609	-636.6
4135.019	-664.6
4137.427	-665.6
4139.833	-668.6
4142.237	-666.6
