Data from 2018-2-14_conc=0_n=7_RamanShift_02.txt Node
Date: Wed Feb 14 10:46:56 IST 2018
User: aro
Spectrometer: QEPB0276
Trigger mode: 0
Integration Time (sec): 3.000000E1
Scans to average: 1
Electric dark correction enabled: true
Nonlinearity correction enabled: false
Boxcar width: 0
XAxis mode: Raman Shifts
Number of Pixels in Spectrum: 1044
>>>>>Begin Spectral Data<<<<<
160.701	-142.5
166.742	50.5
172.777	578.5
178.805	2165.5
184.826	6016.5
190.841	12560.5
196.849	20186.5
202.85	25533.5
208.845	27340.5
214.833	27095.5
220.815	26508.5
226.789	26383.5
232.758	26241.5
238.719	26041.5
244.674	25646.5
250.623	25209.5
256.565	24717.5
262.5	24094.5
268.429	23706.5
274.351	23349.5
280.267	23007.5
286.176	22703.5
292.079	22494.5
297.975	22317.5
303.865	22010.5
309.748	21920.5
315.625	21742.5
321.495	21582.5
327.359	21574.5
333.217	21521.5
339.068	21495.5
344.912	21483.5
350.751	21430.5
356.583	21424.5
362.408	21376.5
368.227	21354.5
374.04	21344.5
379.847	21419.5
385.647	21562.5
391.44	21562.5
397.228	21719.5
403.009	21810.5
408.784	21857.5
414.553	21971.5
420.315	21970.5
426.071	22009.5
431.821	21961.5
437.565	21975.5
443.302	21961.5
449.033	21889.5
454.758	21890.5
460.477	21790.5
466.189	21744.5
471.896	21669.5
477.596	21640.5
483.29	21615.5
488.978	21583.5
494.66	21476.5
500.335	21374.5
506.005	21177.5
511.668	20871.5
517.325	20634.5
522.977	20451.5
528.622	20302.5
534.261	20164.5
539.894	20116.5
545.521	19971.5
551.141	19899.5
556.756	19855.5
562.365	19776.5
567.968	19690.5
573.565	19666.5
579.155	19554.5
584.74	19446.5
590.319	19393.5
595.892	19379.5
601.459	19315.5
607.02	19192.5
612.575	19076.5
618.124	18894.5
623.667	18836.5
629.204	18739.5
634.735	18611.5
640.261	18593.5
645.781	18489.5
651.294	18399.5
656.802	18447.5
662.304	18392.5
667.8	18369.5
673.29	18419.5
678.775	18262.5
684.254	18221.5
689.726	18186.5
695.193	18082.5
700.655	18047.5
706.11	17973.5
711.56	17849.5
717.004	17793.5
722.442	17696.5
727.874	17618.5
733.301	17544.5
738.722	17520.5
744.137	17493.5
749.547	17510.5
754.951	17436.5
760.349	17459.5
765.741	17493.5
771.128	17445.5
776.509	17528.5
781.885	17490.5
787.254	17429.5
792.618	17343.5
797.977	17236.5
803.33	17176.5
808.677	17046.5
814.019	16955.5
819.355	16841.5
824.686	16837.5
830.011	16733.5
835.33	16781.5
840.644	16718.5
845.952	16789.5
851.255	16795.5
856.552	16832.5
861.844	16821.5
867.13	16760.5
872.41	16668.5
877.686	16587.5
882.955	16485.5
888.219	16290.5
893.478	16147.5
898.731	15981.5
903.979	15850.5
909.221	15697.5
914.458	15618.5
919.69	15637.5
924.916	15649.5
930.136	15724.5
935.351	15723.5
940.561	15725.5
945.766	15633.5
950.965	15599.5
956.158	15499.5
961.347	15280.5
966.529	15128.5
971.707	14934.5
976.879	14790.5
982.046	14682.5
987.208	14593.5
992.364	14618.5
997.515	14661.5
1002.66	14812.5
1007.801	14964.5
1012.936	15087.5
1018.066	15110.5
1023.19	15117.5
1028.309	15061.5
1033.423	15025.5
1038.532	14995.5
1043.636	14814.5
1048.734	14624.5
1053.827	14458.5
1058.915	14323.5
1063.998	14208.5
1069.075	14161.5
1074.147	14148.5
1079.214	14231.5
1084.276	14318.5
1089.333	14416.5
1094.385	14498.5
1099.431	14457.5
1104.472	14519.5
1109.509	14412.5
1114.54	14255.5
1119.565	14072.5
1124.586	13943.5
1129.602	13727.5
1134.613	13676.5
1139.618	13571.5
1144.619	13581.5
1149.614	13518.5
1154.604	13571.5
1159.589	13633.5
1164.57	13622.5
1169.545	13647.5
1174.515	13661.5
1179.48	13547.5
1184.44	13440.5
1189.395	13393.5
1194.345	13276.5
1199.29	13228.5
1204.23	13204.5
1209.165	13304.5
1214.095	13330.5
1219.021	13434.5
1223.941	13468.5
1228.856	13557.5
1233.766	13569.5
1238.672	13627.5
1243.572	13604.5
1248.467	13509.5
1253.358	13336.5
1258.244	13144.5
1263.124	12939.5
1268	12773.5
1272.871	12590.5
1277.737	12529.5
1282.599	12397.5
1287.455	12463.5
1292.306	12436.5
1297.153	12490.5
1301.995	12594.5
1306.832	12608.5
1311.664	12621.5
1316.491	12592.5
1321.314	12457.5
1326.132	12308.5
1330.945	12047.5
1335.753	11726.5
1340.556	11472.5
1345.354	11212.5
1350.148	11042.5
1354.937	10967.5
1359.722	10944.5
1364.501	10930.5
1369.276	11114.5
1374.046	11285.5
1378.811	11403.5
1383.572	11539.5
1388.327	11590.5
1393.079	11574.5
1397.825	11383.5
1402.567	11223.5
1407.304	11092.5
1412.036	10985.5
1416.764	10864.5
1421.487	10828.5
1426.205	10747.5
1430.919	10738.5
1435.628	10716.5
1440.333	10769.5
1445.032	10768.5
1449.727	10845.5
1454.418	10840.5
1459.104	10674.5
1463.785	10495.5
1468.462	10264.5
1473.134	10068.5
1477.802	9858.5
1482.465	9723.5
1487.123	9614.5
1491.777	9589.5
1496.426	9578.5
1501.071	9694.5
1505.711	9830.5
1510.347	10025.5
1514.978	10198.5
1519.604	10310.5
1524.226	10441.5
1528.844	10459.5
1533.457	10431.5
1538.065	10399.5
1542.669	10307.5
1547.269	10228.5
1551.864	10176.5
1556.454	10165.5
1561.041	10126.5
1565.622	10086.5
1570.199	10089.5
1574.772	10245.5
1579.34	10254.5
1583.904	10261.5
1588.464	10358.5
1593.019	10343.5
1597.569	10324.5
1602.115	10240.5
1606.657	10200.5
1611.195	10138.5
1615.728	10056.5
1620.256	10008.5
1624.78	10042.5
1629.3	10052.5
1633.816	10045.5
1638.327	10086.5
1642.834	10175.5
1647.336	10224.5
1651.834	10241.5
1656.328	10204.5
1660.817	10184.5
1665.302	10072.5
1669.783	9869.5
1674.259	9666.5
1678.732	9389.5
1683.199	9076.5
1687.663	8804.5
1692.122	8554.5
1696.577	8406.5
1701.028	8366.5
1705.474	8371.5
1709.917	8452.5
1714.355	8532.5
1718.788	8477.5
1723.218	8324.5
1727.643	8198.5
1732.064	7987.5
1736.481	7852.5
1740.893	7653.5
1745.301	7461.5
1749.705	7225.5
1754.105	7040.5
1758.501	6832.5
1762.893	6664.5
1767.28	6525.5
1771.663	6376.5
1776.042	6256.5
1780.417	6228.5
1784.787	6189.5
1789.154	6275.5
1793.516	6381.5
1797.874	6496.5
1802.228	6599.5
1806.578	6699.5
1810.924	6708.5
1815.266	6633.5
1819.603	6518.5
1823.937	6391.5
1828.266	6317.5
1832.591	6228.5
1836.913	6128.5
1841.23	6052.5
1845.543	6003.5
1849.852	5975.5
1854.156	6001.5
1858.457	5959.5
1862.754	5950.5
1867.047	5969.5
1871.335	5943.5
1875.62	5940.5
1879.9	5922.5
1884.177	5853.5
1888.449	5782.5
1892.718	5771.5
1896.982	5728.5
1901.243	5620.5
1905.499	5616.5
1909.752	5629.5
1914	5591.5
1918.245	5615.5
1922.485	5627.5
1926.722	5754.5
1930.954	5772.5
1935.183	5858.5
1939.408	5928.5
1943.628	5938.5
1947.845	5948.5
1952.058	5951.5
1956.267	5888.5
1960.472	5817.5
1964.673	5751.5
1968.87	5617.5
1973.063	5516.5
1977.252	5468.5
1981.438	5389.5
1985.619	5327.5
1989.797	5327.5
1993.971	5279.5
1998.14	5245.5
2002.306	5241.5
2006.469	5228.5
2010.627	5210.5
2014.781	5158.5
2018.932	5103.5
2023.078	5065.5
2027.221	5003.5
2031.36	4916.5
2035.495	4850.5
2039.627	4798.5
2043.754	4705.5
2047.878	4665.5
2051.998	4627.5
2056.114	4609.5
2060.226	4648.5
2064.334	4647.5
2068.439	4663.5
2072.54	4675.5
2076.637	4729.5
2080.73	4744.5
2084.82	4783.5
2088.906	4781.5
2092.988	4803.5
2097.066	4754.5
2101.14	4766.5
2105.211	4742.5
2109.278	4685.5
2113.342	4640.5
2117.401	4600.5
2121.457	4575.5
2125.509	4579.5
2129.558	4534.5
2133.602	4512.5
2137.643	4495.5
2141.681	4469.5
2145.714	4438.5
2149.744	4413.5
2153.77	4382.5
2157.793	4341.5
2161.812	4295.5
2165.827	4189.5
2169.838	4141.5
2173.846	4055.5
2177.851	4024.5
2181.851	3947.5
2185.848	3941.5
2189.841	3854.5
2193.831	3806.5
2197.817	3774.5
2201.799	3787.5
2205.778	3750.5
2209.753	3751.5
2213.725	3743.5
2217.693	3696.5
2221.657	3731.5
2225.618	3705.5
2229.575	3692.5
2233.529	3659.5
2237.479	3605.5
2241.425	3558.5
2245.368	3525.5
2249.307	3449.5
2253.243	3432.5
2257.175	3409.5
2261.104	3354.5
2265.029	3304.5
2268.95	3274.5
2272.868	3230.5
2276.783	3196.5
2280.694	3156.5
2284.601	3134.5
2288.505	3118.5
2292.405	3054.5
2296.302	3036.5
2300.195	3021.5
2304.085	2957.5
2307.971	2893.5
2311.854	2865.5
2315.734	2815.5
2319.609	2771.5
2323.482	2758.5
2327.351	2710.5
2331.216	2704.5
2335.078	2703.5
2338.937	2670.5
2342.792	2628.5
2346.643	2642.5
2350.492	2642.5
2354.336	2646.5
2358.178	2669.5
2362.015	2672.5
2365.85	2656.5
2369.681	2650.5
2373.508	2662.5
2377.333	2642.5
2381.153	2638.5
2384.971	2626.5
2388.785	2614.5
2392.595	2598.5
2396.402	2568.5
2400.206	2566.5
2404.007	2514.5
2407.804	2497.5
2411.597	2487.5
2415.388	2503.5
2419.174	2490.5
2422.958	2445.5
2426.738	2436.5
2430.515	2402.5
2434.289	2399.5
2438.059	2364.5
2441.825	2334.5
2445.589	2310.5
2449.349	2302.5
2453.106	2265.5
2456.859	2237.5
2460.61	2201.5
2464.356	2162.5
2468.1	2168.5
2471.84	2135.5
2475.577	2128.5
2479.311	2104.5
2483.041	2089.5
2486.768	2074.5
2490.492	2084.5
2494.213	2065.5
2497.93	2060.5
2501.644	2070.5
2505.355	2038.5
2509.062	2019.5
2512.766	2016.5
2516.467	2002.5
2520.165	2001.5
2523.859	1971.5
2527.551	1981.5
2531.239	1965.5
2534.923	1926.5
2538.605	1931.5
2542.283	1947.5
2545.958	1956.5
2549.63	1918.5
2553.299	1919.5
2556.964	1906.5
2560.626	1900.5
2564.285	1912.5
2567.941	1892.5
2571.594	1903.5
2575.243	1863.5
2578.89	1852.5
2582.533	1846.5
2586.173	1825.5
2589.809	1806.5
2593.443	1791.5
2597.073	1777.5
2600.701	1779.5
2604.325	1756.5
2607.946	1735.5
2611.564	1724.5
2615.178	1715.5
2618.79	1697.5
2622.398	1674.5
2626.004	1690.5
2629.606	1654.5
2633.205	1615.5
2636.801	1603.5
2640.394	1572.5
2643.983	1546.5
2647.57	1559.5
2651.153	1511.5
2654.734	1483.5
2658.311	1464.5
2661.885	1427.5
2665.456	1421.5
2669.025	1408.5
2672.589	1382.5
2676.151	1363.5
2679.71	1365.5
2683.266	1333.5
2686.819	1308.5
2690.368	1289.5
2693.915	1259.5
2697.458	1241.5
2700.999	1190.5
2704.536	1175.5
2708.071	1158.5
2711.602	1145.5
2715.13	1102.5
2718.656	1084.5
2722.178	1066.5
2725.697	1051.5
2729.214	1047.5
2732.727	1034.5
2736.237	1031.5
2739.744	1025.5
2743.249	1033.5
2746.75	1050.5
2750.248	1053.5
2753.743	1056.5
2757.236	1071.5
2760.725	1080.5
2764.211	1111.5
2767.695	1076.5
2771.175	1080.5
2774.652	1091.5
2778.127	1081.5
2781.598	1079.5
2785.067	1055.5
2788.532	1059.5
2791.995	1057.5
2795.455	1062.5
2798.911	1057.5
2802.365	1068.5
2805.816	1050.5
2809.264	1051.5
2812.709	1052.5
2816.151	1056.5
2819.59	1064.5
2823.026	1034.5
2826.46	1047.5
2829.89	1044.5
2833.318	1064.5
2836.742	1069.5
2840.164	1057.5
2843.583	1079.5
2846.999	1079.5
2850.412	1086.5
2853.822	1097.5
2857.229	1129.5
2860.634	1149.5
2864.035	1170.5
2867.434	1186.5
2870.83	1204.5
2874.223	1212.5
2877.613	1228.5
2881	1248.5
2884.385	1254.5
2887.766	1254.5
2891.145	1243.5
2894.521	1252.5
2897.894	1241.5
2901.264	1269.5
2904.631	1280.5
2907.996	1262.5
2911.358	1270.5
2914.717	1273.5
2918.073	1278.5
2921.426	1299.5
2924.777	1305.5
2928.124	1344.5
2931.469	1364.5
2934.811	1370.5
2938.15	1405.5
2941.487	1412.5
2944.821	1421.5
2948.152	1405.5
2951.48	1403.5
2954.805	1385.5
2958.128	1380.5
2961.447	1384.5
2964.765	1378.5
2968.079	1368.5
2971.39	1388.5
2974.699	1410.5
2978.005	1438.5
2981.308	1445.5
2984.609	1471.5
2987.907	1512.5
2991.202	1515.5
2994.494	1563.5
2997.784	1589.5
3001.07	1609.5
3004.355	1631.5
3007.636	1662.5
3010.915	1671.5
3014.191	1710.5
3017.464	1715.5
3020.734	1720.5
3024.002	1740.5
3027.267	1736.5
3030.53	1745.5
3033.789	1761.5
3037.046	1801.5
3040.301	1819.5
3043.552	1864.5
3046.801	1910.5
3050.048	1954.5
3053.291	1996.5
3056.532	2032.5
3059.771	2096.5
3063.006	2178.5
3066.239	2229.5
3069.469	2280.5
3072.697	2360.5
3075.922	2400.5
3079.144	2474.5
3082.364	2545.5
3085.581	2575.5
3088.795	2619.5
3092.007	2707.5
3095.216	2735.5
3098.423	2818.5
3101.627	2846.5
3104.828	2919.5
3108.026	2987.5
3111.222	3040.5
3114.416	3095.5
3117.607	3169.5
3120.795	3258.5
3123.98	3337.5
3127.163	3436.5
3130.344	3492.5
3133.521	3584.5
3136.696	3641.5
3139.869	3704.5
3143.039	3790.5
3146.206	3830.5
3149.371	3891.5
3152.533	3940.5
3155.693	3937.5
3158.85	3956.5
3162.005	3981.5
3165.157	4005.5
3168.306	4033.5
3171.453	4050.5
3174.597	4036.5
3177.739	4067.5
3180.878	4037.5
3184.014	4075.5
3187.149	4038.5
3190.28	4089.5
3193.409	4052.5
3196.536	4097.5
3199.659	4099.5
3202.781	4074.5
3205.9	4106.5
3209.016	4077.5
3212.13	4066.5
3215.241	4048.5
3218.35	4012.5
3221.456	3948.5
3224.56	3925.5
3227.661	3877.5
3230.76	3843.5
3233.856	3800.5
3236.95	3757.5
3240.041	3723.5
3243.13	3696.5
3246.216	3676.5
3249.3	3668.5
3252.382	3657.5
3255.46	3653.5
3258.537	3627.5
3261.611	3594.5
3264.682	3624.5
3267.751	3595.5
3270.818	3612.5
3273.882	3613.5
3276.943	3571.5
3280.002	3536.5
3283.059	3510.5
3286.113	3460.5
3289.165	3421.5
3292.214	3370.5
3295.261	3316.5
3298.306	3282.5
3301.348	3215.5
3304.387	3177.5
3307.425	3115.5
3310.459	3088.5
3313.492	3038.5
3316.521	2965.5
3319.549	2960.5
3322.574	2919.5
3325.597	2878.5
3328.617	2892.5
3331.635	2848.5
3334.65	2837.5
3337.663	2850.5
3340.674	2814.5
3343.682	2814.5
3346.688	2760.5
3349.691	2799.5
3352.692	2769.5
3355.691	2728.5
3358.687	2730.5
3361.681	2689.5
3364.673	2657.5
3367.662	2615.5
3370.649	2571.5
3373.633	2555.5
3376.615	2501.5
3379.595	2473.5
3382.572	2431.5
3385.547	2401.5
3388.52	2352.5
3391.49	2318.5
3394.458	2288.5
3397.424	2245.5
3400.387	2255.5
3403.348	2213.5
3406.307	2183.5
3409.263	2148.5
3412.217	2133.5
3415.168	2108.5
3418.118	2092.5
3421.065	2042.5
3424.009	2035.5
3426.951	1988.5
3429.891	1963.5
3432.829	1907.5
3435.764	1858.5
3438.697	1844.5
3441.628	1763.5
3444.557	1711.5
3447.483	1658.5
3450.407	1612.5
3453.328	1574.5
3456.247	1508.5
3459.164	1457.5
3462.079	1409.5
3464.991	1379.5
3467.902	1333.5
3470.809	1269.5
3473.715	1219.5
3476.618	1173.5
3479.519	1134.5
3482.418	1095.5
3485.315	1045.5
3488.209	1019.5
3491.101	976.5
3493.99	951.5
3496.878	899.5
3499.763	879.5
3502.646	830.5
3505.527	793.5
3508.405	754.5
3511.281	726.5
3514.155	683.5
3517.027	653.5
3519.897	601.5
3522.764	551.5
3525.629	511.5
3528.492	476.5
3531.352	442.5
3534.211	404.5
3537.067	365.5
3539.921	320.5
3542.773	286.5
3545.622	249.5
3548.469	220.5
3551.315	210.5
3554.157	180.5
3556.998	156.5
3559.837	131.5
3562.673	97.5
3565.507	79.5
3568.339	39.5
3571.169	31.5
3573.996	9.5
3576.822	-6.5
3579.645	-27.5
3582.466	-52.5
3585.285	-65.5
3588.101	-90.5
3590.916	-106.5
3593.728	-129.5
3596.538	-151.5
3599.346	-171.5
3602.152	-179.5
3604.956	-188.5
3607.757	-213.5
3610.556	-234.5
3613.354	-239.5
3616.149	-260.5
3618.942	-269.5
3621.732	-279.5
3624.521	-294.5
3627.307	-304.5
3630.092	-319.5
3632.874	-321.5
3635.654	-332.5
3638.432	-335.5
3641.208	-352.5
3643.982	-359.5
3646.753	-361.5
3649.523	-377.5
3652.29	-377.5
3655.055	-388.5
3657.818	-403.5
3660.579	-414.5
3663.338	-426.5
3666.095	-438.5
3668.849	-447.5
3671.602	-455.5
3674.352	-463.5
3677.101	-466.5
3679.847	-478.5
3682.591	-478.5
3685.333	-490.5
3688.073	-493.5
3690.811	-498.5
3693.547	-502.5
3696.281	-514.5
3699.013	-513.5
3701.742	-516.5
3704.47	-520.5
3707.195	-534.5
3709.919	-533.5
3712.64	-538.5
3715.359	-540.5
3718.076	-543.5
3720.792	-545.5
3723.505	-545.5
3726.216	-558.5
3728.925	-551.5
3731.632	-563.5
3734.336	-560.5
3737.039	-569.5
3739.74	-560.5
3742.439	-565.5
3745.136	-572.5
3747.83	-581.5
3750.523	-578.5
3753.213	-561.5
3755.902	-586.5
3758.589	-581.5
3761.273	-582.5
3763.956	-593.5
3766.636	-590.5
3769.315	-588.5
3771.991	-588.5
3774.665	-599.5
3777.338	-586.5
3780.008	-601.5
3782.677	-604.5
3785.343	-593.5
3788.007	-600.5
3790.67	-600.5
3793.33	-606.5
3795.989	-606.5
3798.645	-606.5
3801.299	-604.5
3803.952	-608.5
3806.602	-616.5
3809.251	-619.5
3811.897	-613.5
3814.542	-611.5
3817.184	-605.5
3819.825	-606.5
3822.463	-608.5
3825.1	-619.5
3827.735	-609.5
3830.367	-614.5
3832.998	-622.5
3835.627	-624.5
3838.253	-626.5
3840.878	-627.5
3843.501	-622.5
3846.122	-618.5
3848.741	-618.5
3851.358	-618.5
3853.973	-615.5
3856.586	-623.5
3859.197	-619.5
3861.806	-628.5
3864.414	-623.5
3867.019	-618.5
3869.622	-623.5
3872.224	-623.5
3874.823	-609.5
3877.421	-596.5
3880.016	-576.5
3882.61	-544.5
3885.202	-536.5
3887.792	-557.5
3890.38	-594.5
3892.966	-607.5
3895.55	-622.5
3898.132	-636.5
3900.713	-639.5
3903.291	-630.5
3905.868	-635.5
3908.442	-642.5
3911.015	-641.5
3913.586	-636.5
3916.155	-631.5
3918.722	-641.5
3921.287	-634.5
3923.85	-640.5
3926.411	-637.5
3928.971	-647.5
3931.528	-644.5
3934.084	-643.5
3936.638	-637.5
3939.19	-641.5
3941.74	-639.5
3944.288	-643.5
3946.834	-637.5
3949.378	-641.5
3951.921	-636.5
3954.462	-648.5
3957	-645.5
3959.537	-642.5
3962.072	-638.5
3964.606	-640.5
3967.137	-640.5
3969.667	-640.5
3972.194	-632.5
3974.72	-641.5
3977.244	-628.5
3979.766	-626.5
3982.286	-629.5
3984.805	-626.5
3987.321	-633.5
3989.836	-628.5
3992.349	-630.5
3994.86	-624.5
3997.369	-630.5
3999.877	-619.5
4002.382	-622.5
4004.886	-626.5
4007.388	-620.5
4009.888	-626.5
4012.386	-627.5
4014.883	-620.5
4017.377	-623.5
4019.87	-624.5
4022.361	-627.5
4024.85	-629.5
4027.338	-630.5
4029.823	-629.5
4032.307	-631.5
4034.789	-629.5
4037.269	-622.5
4039.747	-627.5
4042.224	-630.5
4044.699	-625.5
4047.172	-630.5
4049.643	-628.5
4052.112	-631.5
4054.58	-632.5
4057.046	-632.5
4059.51	-630.5
4061.972	-636.5
4064.432	-633.5
4066.891	-632.5
4069.348	-632.5
4071.803	-625.5
4074.256	-628.5
4076.708	-622.5
4079.158	-624.5
4081.606	-633.5
4084.052	-636.5
4086.497	-627.5
4088.939	-623.5
4091.38	-628.5
4093.819	-625.5
4096.257	-663.5
4098.693	-662.5
4101.127	-666.5
4103.559	-662.5
4105.989	-375.5
4108.418	-351.5
4110.845	-338.5
4113.27	-301.5
4115.694	-276.5
4118.115	-225.5
4120.535	-626.5
4122.954	-627.5
4125.37	-623.5
4127.785	-632.5
4130.198	-628.5
4132.609	-635.5
4135.019	-664.5
4137.427	-664.5
4139.833	-664.5
4142.237	-658.5
