Data from 2018-2-14_conc=3_n=7_RamanShift_04.txt Node
Date: Wed Feb 14 12:04:26 IST 2018
User: aro
Spectrometer: QEPB0276
Trigger mode: 0
Integration Time (sec): 3.000000E1
Scans to average: 1
Electric dark correction enabled: true
Nonlinearity correction enabled: false
Boxcar width: 0
XAxis mode: Raman Shifts
Number of Pixels in Spectrum: 1044
>>>>>Begin Spectral Data<<<<<
160.701	-143.4
166.742	46.6
172.777	600.6
178.805	2319.6
184.826	6396.6
190.841	13460.6
196.849	21738.6
202.85	27704.6
208.845	29667.6
214.833	29471.6
220.815	29019.6
226.789	28712.6
232.758	28714.6
238.719	28579.6
244.674	28240.6
250.623	27729.6
256.565	27140.6
262.5	26686.6
268.429	26287.6
274.351	25877.6
280.267	25509.6
286.176	25282.6
292.079	25100.6
297.975	24781.6
303.865	24659.6
309.748	24480.6
315.625	24308.6
321.495	24217.6
327.359	24182.6
333.217	24140.6
339.068	24050.6
344.912	24049.6
350.751	23962.6
356.583	23950.6
362.408	23993.6
368.227	24030.6
374.04	24014.6
379.847	24021.6
385.647	24165.6
391.44	24227.6
397.228	24372.6
403.009	24457.6
408.784	24522.6
414.553	24562.6
420.315	24634.6
426.071	24643.6
431.821	24649.6
437.565	24652.6
443.302	24602.6
449.033	24562.6
454.758	24518.6
460.477	24459.6
466.189	24393.6
471.896	24345.6
477.596	24314.6
483.29	24259.6
488.978	24222.6
494.66	24158.6
500.335	24012.6
506.005	23787.6
511.668	23511.6
517.325	23245.6
522.977	23094.6
528.622	22882.6
534.261	22734.6
539.894	22643.6
545.521	22573.6
551.141	22523.6
556.756	22366.6
562.365	22294.6
567.968	22270.6
573.565	22129.6
579.155	22109.6
584.74	22036.6
590.319	21903.6
595.892	21793.6
601.459	21751.6
607.02	21652.6
612.575	21546.6
618.124	21467.6
623.667	21282.6
629.204	21262.6
634.735	21046.6
640.261	20993.6
645.781	20956.6
651.294	20908.6
656.802	20921.6
662.304	20865.6
667.8	20875.6
673.29	20815.6
678.775	20715.6
684.254	20739.6
689.726	20604.6
695.193	20611.6
700.655	20438.6
706.11	20385.6
711.56	20278.6
717.004	20152.6
722.442	20100.6
727.874	20012.6
733.301	19922.6
738.722	19917.6
744.137	19825.6
749.547	19855.6
754.951	19885.6
760.349	19837.6
765.741	19841.6
771.128	19848.6
776.509	19882.6
781.885	19865.6
787.254	19854.6
792.618	19761.6
797.977	19609.6
803.33	19464.6
808.677	19422.6
814.019	19306.6
819.355	19210.6
824.686	19088.6
830.011	19076.6
835.33	19025.6
840.644	19067.6
845.952	19091.6
851.255	19218.6
856.552	19178.6
861.844	19129.6
867.13	19125.6
872.41	19015.6
877.686	18952.6
882.955	18759.6
888.219	18671.6
893.478	18387.6
898.731	18243.6
903.979	18056.6
909.221	17905.6
914.458	17894.6
919.69	17896.6
924.916	17805.6
930.136	18018.6
935.351	17998.6
940.561	17991.6
945.766	17960.6
950.965	17881.6
956.158	17727.6
961.347	17537.6
966.529	17390.6
971.707	17153.6
976.879	16930.6
982.046	16812.6
987.208	16804.6
992.364	16746.6
997.515	16841.6
1002.66	16989.6
1007.801	17155.6
1012.936	17230.6
1018.066	17373.6
1023.19	17328.6
1028.309	17305.6
1033.423	17263.6
1038.532	17225.6
1043.636	17040.6
1048.734	16855.6
1053.827	16639.6
1058.915	16420.6
1063.998	16363.6
1069.075	16319.6
1074.147	16342.6
1079.214	16408.6
1084.276	16484.6
1089.333	16568.6
1094.385	16653.6
1099.431	16751.6
1104.472	16705.6
1109.509	16576.6
1114.54	16475.6
1119.565	16188.6
1124.586	16022.6
1129.602	15871.6
1134.613	15762.6
1139.618	15627.6
1144.619	15625.6
1149.614	15621.6
1154.604	15646.6
1159.589	15705.6
1164.57	15692.6
1169.545	15740.6
1174.515	15769.6
1179.48	15651.6
1184.44	15564.6
1189.395	15419.6
1194.345	15361.6
1199.29	15293.6
1204.23	15299.6
1209.165	15287.6
1214.095	15360.6
1219.021	15479.6
1223.941	15557.6
1228.856	15685.6
1233.766	15724.6
1238.672	15702.6
1243.572	15685.6
1248.467	15600.6
1253.358	15439.6
1258.244	15212.6
1263.124	14958.6
1268	14792.6
1272.871	14578.6
1277.737	14476.6
1282.599	14393.6
1287.455	14430.6
1292.306	14433.6
1297.153	14486.6
1301.995	14571.6
1306.832	14634.6
1311.664	14681.6
1316.491	14584.6
1321.314	14431.6
1326.132	14238.6
1330.945	13989.6
1335.753	13621.6
1340.556	13305.6
1345.354	12914.6
1350.148	12689.6
1354.937	12585.6
1359.722	12512.6
1364.501	12595.6
1369.276	12810.6
1374.046	13030.6
1378.811	13333.6
1383.572	13501.6
1388.327	13616.6
1393.079	13482.6
1397.825	13321.6
1402.567	13103.6
1407.304	12892.6
1412.036	12737.6
1416.764	12668.6
1421.487	12568.6
1426.205	12553.6
1430.919	12484.6
1435.628	12435.6
1440.333	12468.6
1445.032	12509.6
1449.727	12574.6
1454.418	12474.6
1459.104	12399.6
1463.785	12171.6
1468.462	11882.6
1473.134	11597.6
1477.802	11408.6
1482.465	11137.6
1487.123	10999.6
1491.777	11029.6
1496.426	11088.6
1501.071	11227.6
1505.711	11383.6
1510.347	11638.6
1514.978	11846.6
1519.604	12048.6
1524.226	12145.6
1528.844	12251.6
1533.457	12202.6
1538.065	12148.6
1542.669	12096.6
1547.269	11967.6
1551.864	11876.6
1556.454	11892.6
1561.041	11815.6
1565.622	11799.6
1570.199	11776.6
1574.772	11824.6
1579.34	11946.6
1583.904	11972.6
1588.464	11968.6
1593.019	11968.6
1597.569	11963.6
1602.115	11939.6
1606.657	11742.6
1611.195	11696.6
1615.728	11628.6
1620.256	11540.6
1624.78	11533.6
1629.3	11504.6
1633.816	11520.6
1638.327	11652.6
1642.834	11641.6
1647.336	11696.6
1651.834	11719.6
1656.328	11686.6
1660.817	11625.6
1665.302	11546.6
1669.783	11378.6
1674.259	11129.6
1678.732	10824.6
1683.199	10414.6
1687.663	10082.6
1692.122	9704.6
1696.577	9534.6
1701.028	9522.6
1705.474	9692.6
1709.917	9889.6
1714.355	10027.6
1718.788	9937.6
1723.218	9745.6
1727.643	9591.6
1732.064	9389.6
1736.481	9191.6
1740.893	8977.6
1745.301	8747.6
1749.705	8549.6
1754.105	8271.6
1758.501	8015.6
1762.893	7875.6
1767.28	7633.6
1771.663	7482.6
1776.042	7322.6
1780.417	7216.6
1784.787	7185.6
1789.154	7231.6
1793.516	7406.6
1797.874	7579.6
1802.228	7745.6
1806.578	7817.6
1810.924	7883.6
1815.266	7842.6
1819.603	7700.6
1823.937	7545.6
1828.266	7460.6
1832.591	7311.6
1836.913	7206.6
1841.23	7145.6
1845.543	7109.6
1849.852	7041.6
1854.156	7030.6
1858.457	7007.6
1862.754	7018.6
1867.047	6982.6
1871.335	6985.6
1875.62	6968.6
1879.9	6951.6
1884.177	6871.6
1888.449	6821.6
1892.718	6750.6
1896.982	6663.6
1901.243	6605.6
1905.499	6525.6
1909.752	6544.6
1914	6505.6
1918.245	6501.6
1922.485	6582.6
1926.722	6652.6
1930.954	6692.6
1935.183	6843.6
1939.408	6899.6
1943.628	6958.6
1947.845	6990.6
1952.058	6987.6
1956.267	6902.6
1960.472	6864.6
1964.673	6735.6
1968.87	6606.6
1973.063	6531.6
1977.252	6453.6
1981.438	6360.6
1985.619	6332.6
1989.797	6294.6
1993.971	6194.6
1998.14	6225.6
2002.306	6161.6
2006.469	6155.6
2010.627	6126.6
2014.781	6049.6
2018.932	6002.6
2023.078	5933.6
2027.221	5850.6
2031.36	5739.6
2035.495	5684.6
2039.627	5578.6
2043.754	5538.6
2047.878	5462.6
2051.998	5431.6
2056.114	5435.6
2060.226	5397.6
2064.334	5375.6
2068.439	5425.6
2072.54	5442.6
2076.637	5471.6
2080.73	5504.6
2084.82	5528.6
2088.906	5559.6
2092.988	5564.6
2097.066	5516.6
2101.14	5542.6
2105.211	5490.6
2109.278	5460.6
2113.342	5439.6
2117.401	5408.6
2121.457	5414.6
2125.509	5368.6
2129.558	5371.6
2133.602	5275.6
2137.643	5258.6
2141.681	5242.6
2145.714	5205.6
2149.744	5200.6
2153.77	5141.6
2157.793	5075.6
2161.812	5019.6
2165.827	4937.6
2169.838	4913.6
2173.846	4790.6
2177.851	4708.6
2181.851	4627.6
2185.848	4602.6
2189.841	4570.6
2193.831	4492.6
2197.817	4475.6
2201.799	4433.6
2205.778	4424.6
2209.753	4402.6
2213.725	4377.6
2217.693	4374.6
2221.657	4385.6
2225.618	4384.6
2229.575	4321.6
2233.529	4303.6
2237.479	4273.6
2241.425	4205.6
2245.368	4133.6
2249.307	4086.6
2253.243	4018.6
2257.175	3960.6
2261.104	3936.6
2265.029	3915.6
2268.95	3859.6
2272.868	3822.6
2276.783	3780.6
2280.694	3736.6
2284.601	3709.6
2288.505	3652.6
2292.405	3651.6
2296.302	3633.6
2300.195	3563.6
2304.085	3545.6
2307.971	3464.6
2311.854	3412.6
2315.734	3395.6
2319.609	3330.6
2323.482	3286.6
2327.351	3238.6
2331.216	3222.6
2335.078	3235.6
2338.937	3186.6
2342.792	3172.6
2346.643	3142.6
2350.492	3170.6
2354.336	3187.6
2358.178	3182.6
2362.015	3189.6
2365.85	3206.6
2369.681	3175.6
2373.508	3211.6
2377.333	3171.6
2381.153	3195.6
2384.971	3150.6
2388.785	3138.6
2392.595	3108.6
2396.402	3070.6
2400.206	3061.6
2404.007	3043.6
2407.804	3031.6
2411.597	2982.6
2415.388	2975.6
2419.174	2971.6
2422.958	2934.6
2426.738	2905.6
2430.515	2899.6
2434.289	2874.6
2438.059	2864.6
2441.825	2809.6
2445.589	2808.6
2449.349	2755.6
2453.106	2736.6
2456.859	2703.6
2460.61	2655.6
2464.356	2628.6
2468.1	2605.6
2471.84	2569.6
2475.577	2550.6
2479.311	2570.6
2483.041	2533.6
2486.768	2519.6
2490.492	2502.6
2494.213	2480.6
2497.93	2499.6
2501.644	2494.6
2505.355	2456.6
2509.062	2457.6
2512.766	2440.6
2516.467	2422.6
2520.165	2403.6
2523.859	2397.6
2527.551	2370.6
2531.239	2367.6
2534.923	2322.6
2538.605	2337.6
2542.283	2343.6
2545.958	2326.6
2549.63	2329.6
2553.299	2331.6
2556.964	2305.6
2560.626	2309.6
2564.285	2290.6
2567.941	2289.6
2571.594	2295.6
2575.243	2263.6
2578.89	2251.6
2582.533	2217.6
2586.173	2221.6
2589.809	2218.6
2593.443	2184.6
2597.073	2121.6
2600.701	2143.6
2604.325	2136.6
2607.946	2130.6
2611.564	2108.6
2615.178	2088.6
2618.79	2084.6
2622.398	2034.6
2626.004	2048.6
2629.606	2018.6
2633.205	1980.6
2636.801	1961.6
2640.394	1953.6
2643.983	1893.6
2647.57	1877.6
2651.153	1863.6
2654.734	1810.6
2658.311	1797.6
2661.885	1767.6
2665.456	1755.6
2669.025	1731.6
2672.589	1691.6
2676.151	1696.6
2679.71	1681.6
2683.266	1634.6
2686.819	1609.6
2690.368	1578.6
2693.915	1560.6
2697.458	1530.6
2700.999	1490.6
2704.536	1460.6
2708.071	1414.6
2711.602	1392.6
2715.13	1350.6
2718.656	1324.6
2722.178	1309.6
2725.697	1276.6
2729.214	1276.6
2732.727	1259.6
2736.237	1252.6
2739.744	1228.6
2743.249	1254.6
2746.75	1254.6
2750.248	1245.6
2753.743	1270.6
2757.236	1302.6
2760.725	1319.6
2764.211	1316.6
2767.695	1326.6
2771.175	1321.6
2774.652	1337.6
2778.127	1305.6
2781.598	1300.6
2785.067	1296.6
2788.532	1307.6
2791.995	1270.6
2795.455	1272.6
2798.911	1279.6
2802.365	1279.6
2805.816	1270.6
2809.264	1272.6
2812.709	1283.6
2816.151	1256.6
2819.59	1265.6
2823.026	1260.6
2826.46	1269.6
2829.89	1296.6
2833.318	1290.6
2836.742	1289.6
2840.164	1276.6
2843.583	1302.6
2846.999	1306.6
2850.412	1322.6
2853.822	1314.6
2857.229	1332.6
2860.634	1376.6
2864.035	1366.6
2867.434	1399.6
2870.83	1436.6
2874.223	1439.6
2877.613	1440.6
2881	1476.6
2884.385	1482.6
2887.766	1459.6
2891.145	1466.6
2894.521	1465.6
2897.894	1460.6
2901.264	1470.6
2904.631	1457.6
2907.996	1451.6
2911.358	1452.6
2914.717	1462.6
2918.073	1487.6
2921.426	1500.6
2924.777	1513.6
2928.124	1547.6
2931.469	1533.6
2934.811	1589.6
2938.15	1582.6
2941.487	1605.6
2944.821	1603.6
2948.152	1609.6
2951.48	1581.6
2954.805	1572.6
2958.128	1539.6
2961.447	1541.6
2964.765	1563.6
2968.079	1549.6
2971.39	1546.6
2974.699	1575.6
2978.005	1587.6
2981.308	1626.6
2984.609	1652.6
2987.907	1671.6
2991.202	1700.6
2994.494	1748.6
2997.784	1784.6
3001.07	1812.6
3004.355	1808.6
3007.636	1860.6
3010.915	1867.6
3014.191	1900.6
3017.464	1882.6
3020.734	1873.6
3024.002	1916.6
3027.267	1937.6
3030.53	1955.6
3033.789	1968.6
3037.046	1987.6
3040.301	2019.6
3043.552	2041.6
3046.801	2070.6
3050.048	2127.6
3053.291	2181.6
3056.532	2213.6
3059.771	2276.6
3063.006	2340.6
3066.239	2419.6
3069.469	2496.6
3072.697	2531.6
3075.922	2592.6
3079.144	2662.6
3082.364	2701.6
3085.581	2782.6
3088.795	2823.6
3092.007	2891.6
3095.216	2946.6
3098.423	2990.6
3101.627	3052.6
3104.828	3143.6
3108.026	3195.6
3111.222	3292.6
3114.416	3342.6
3117.607	3406.6
3120.795	3498.6
3123.98	3564.6
3127.163	3645.6
3130.344	3745.6
3133.521	3823.6
3136.696	3909.6
3139.869	3986.6
3143.039	4033.6
3146.206	4099.6
3149.371	4175.6
3152.533	4203.6
3155.693	4211.6
3158.85	4228.6
3162.005	4285.6
3165.157	4286.6
3168.306	4274.6
3171.453	4271.6
3174.597	4268.6
3177.739	4310.6
3180.878	4322.6
3184.014	4316.6
3187.149	4305.6
3190.28	4311.6
3193.409	4325.6
3196.536	4343.6
3199.659	4351.6
3202.781	4333.6
3205.9	4360.6
3209.016	4354.6
3212.13	4311.6
3215.241	4300.6
3218.35	4239.6
3221.456	4217.6
3224.56	4176.6
3227.661	4120.6
3230.76	4090.6
3233.856	4053.6
3236.95	3992.6
3240.041	3974.6
3243.13	3956.6
3246.216	3948.6
3249.3	3943.6
3252.382	3913.6
3255.46	3878.6
3258.537	3887.6
3261.611	3874.6
3264.682	3857.6
3267.751	3854.6
3270.818	3855.6
3273.882	3873.6
3276.943	3818.6
3280.002	3770.6
3283.059	3780.6
3286.113	3738.6
3289.165	3664.6
3292.214	3596.6
3295.261	3565.6
3298.306	3485.6
3301.348	3416.6
3304.387	3385.6
3307.425	3330.6
3310.459	3267.6
3313.492	3196.6
3316.521	3172.6
3319.549	3136.6
3322.574	3086.6
3325.597	3068.6
3328.617	3044.6
3331.635	3029.6
3334.65	3023.6
3337.663	2990.6
3340.674	2965.6
3343.682	2950.6
3346.688	2946.6
3349.691	2961.6
3352.692	2918.6
3355.691	2902.6
3358.687	2869.6
3361.681	2835.6
3364.673	2810.6
3367.662	2751.6
3370.649	2697.6
3373.633	2690.6
3376.615	2663.6
3379.595	2606.6
3382.572	2566.6
3385.547	2565.6
3388.52	2484.6
3391.49	2464.6
3394.458	2410.6
3397.424	2389.6
3400.387	2368.6
3403.348	2319.6
3406.307	2304.6
3409.263	2271.6
3412.217	2269.6
3415.168	2224.6
3418.118	2202.6
3421.065	2175.6
3424.009	2138.6
3426.951	2101.6
3429.891	2055.6
3432.829	2003.6
3435.764	1969.6
3438.697	1928.6
3441.628	1873.6
3444.557	1825.6
3447.483	1762.6
3450.407	1714.6
3453.328	1654.6
3456.247	1606.6
3459.164	1536.6
3462.079	1516.6
3464.991	1441.6
3467.902	1384.6
3470.809	1330.6
3473.715	1302.6
3476.618	1234.6
3479.519	1187.6
3482.418	1184.6
3485.315	1135.6
3488.209	1096.6
3491.101	1060.6
3493.99	1013.6
3496.878	960.6
3499.763	938.6
3502.646	907.6
3505.527	860.6
3508.405	824.6
3511.281	779.6
3514.155	734.6
3517.027	694.6
3519.897	659.6
3522.764	594.6
3525.629	551.6
3528.492	503.6
3531.352	472.6
3534.211	430.6
3537.067	382.6
3539.921	366.6
3542.773	305.6
3545.622	280.6
3548.469	245.6
3551.315	224.6
3554.157	197.6
3556.998	155.6
3559.837	136.6
3562.673	104.6
3565.507	79.6
3568.339	47.6
3571.169	31.6
3573.996	8.6
3576.822	-11.4
3579.645	-26.4
3582.466	-59.4
3585.285	-71.4
3588.101	-87.4
3590.916	-120.4
3593.728	-138.4
3596.538	-158.4
3599.346	-174.4
3602.152	-188.4
3604.956	-198.4
3607.757	-223.4
3610.556	-238.4
3613.354	-252.4
3616.149	-265.4
3618.942	-278.4
3621.732	-288.4
3624.521	-316.4
3627.307	-317.4
3630.092	-320.4
3632.874	-340.4
3635.654	-354.4
3638.432	-360.4
3641.208	-369.4
3643.982	-388.4
3646.753	-394.4
3649.523	-396.4
3652.29	-409.4
3655.055	-415.4
3657.818	-430.4
3660.579	-446.4
3663.338	-457.4
3666.095	-465.4
3668.849	-478.4
3671.602	-481.4
3674.352	-482.4
3677.101	-495.4
3679.847	-507.4
3682.591	-513.4
3685.333	-515.4
3688.073	-519.4
3690.811	-529.4
3693.547	-536.4
3696.281	-542.4
3699.013	-543.4
3701.742	-549.4
3704.47	-551.4
3707.195	-561.4
3709.919	-559.4
3712.64	-571.4
3715.359	-569.4
3718.076	-575.4
3720.792	-580.4
3723.505	-575.4
3726.216	-586.4
3728.925	-585.4
3731.632	-594.4
3734.336	-592.4
3737.039	-603.4
3739.74	-598.4
3742.439	-596.4
3745.136	-608.4
3747.83	-606.4
3750.523	-610.4
3753.213	-603.4
3755.902	-619.4
3758.589	-616.4
3761.273	-618.4
3763.956	-624.4
3766.636	-625.4
3769.315	-632.4
3771.991	-628.4
3774.665	-629.4
3777.338	-629.4
3780.008	-630.4
3782.677	-632.4
3785.343	-633.4
3788.007	-635.4
3790.67	-631.4
3793.33	-634.4
3795.989	-640.4
3798.645	-640.4
3801.299	-637.4
3803.952	-649.4
3806.602	-654.4
3809.251	-653.4
3811.897	-650.4
3814.542	-648.4
3817.184	-651.4
3819.825	-650.4
3822.463	-649.4
3825.1	-654.4
3827.735	-645.4
3830.367	-647.4
3832.998	-656.4
3835.627	-657.4
3838.253	-661.4
3840.878	-659.4
3843.501	-659.4
3846.122	-650.4
3848.741	-657.4
3851.358	-656.4
3853.973	-656.4
3856.586	-663.4
3859.197	-668.4
3861.806	-667.4
3864.414	-660.4
3867.019	-657.4
3869.622	-661.4
3872.224	-662.4
3874.823	-646.4
3877.421	-629.4
3880.016	-620.4
3882.61	-594.4
3885.202	-586.4
3887.792	-603.4
3890.38	-629.4
3892.966	-649.4
3895.55	-663.4
3898.132	-675.4
3900.713	-674.4
3903.291	-670.4
3905.868	-674.4
3908.442	-676.4
3911.015	-676.4
3913.586	-671.4
3916.155	-674.4
3918.722	-678.4
3921.287	-679.4
3923.85	-686.4
3926.411	-682.4
3928.971	-685.4
3931.528	-679.4
3934.084	-680.4
3936.638	-678.4
3939.19	-677.4
3941.74	-674.4
3944.288	-679.4
3946.834	-677.4
3949.378	-685.4
3951.921	-680.4
3954.462	-688.4
3957	-675.4
3959.537	-683.4
3962.072	-674.4
3964.606	-678.4
3967.137	-678.4
3969.667	-682.4
3972.194	-676.4
3974.72	-678.4
3977.244	-664.4
3979.766	-667.4
3982.286	-669.4
3984.805	-672.4
3987.321	-672.4
3989.836	-665.4
3992.349	-658.4
3994.86	-663.4
3997.369	-670.4
3999.877	-659.4
4002.382	-659.4
4004.886	-666.4
4007.388	-660.4
4009.888	-660.4
4012.386	-669.4
4014.883	-664.4
4017.377	-663.4
4019.87	-659.4
4022.361	-664.4
4024.85	-668.4
4027.338	-666.4
4029.823	-661.4
4032.307	-670.4
4034.789	-660.4
4037.269	-664.4
4039.747	-665.4
4042.224	-673.4
4044.699	-661.4
4047.172	-669.4
4049.643	-663.4
4052.112	-671.4
4054.58	-671.4
4057.046	-669.4
4059.51	-671.4
4061.972	-671.4
4064.432	-674.4
4066.891	-665.4
4069.348	-670.4
4071.803	-664.4
4074.256	-667.4
4076.708	-662.4
4079.158	-674.4
4081.606	-667.4
4084.052	-667.4
4086.497	-668.4
4088.939	-661.4
4091.38	-664.4
4093.819	-657.4
4096.257	-702.4
4098.693	-706.4
4101.127	-709.4
4103.559	-703.4
4105.989	-406.4
4108.418	-375.4
4110.845	-353.4
4113.27	-319.4
4115.694	-292.4
4118.115	-229.4
4120.535	-664.4
4122.954	-670.4
4125.37	-657.4
4127.785	-667.4
4130.198	-670.4
4132.609	-668.4
4135.019	-708.4
4137.427	-707.4
4139.833	-706.4
4142.237	-701.4
