Data from 2018-2-14_conc=4_n=7_RamanShift_01.txt Node
Date: Wed Feb 14 13:51:55 IST 2018
User: aro
Spectrometer: QEPB0276
Trigger mode: 0
Integration Time (sec): 3.000000E1
Scans to average: 1
Electric dark correction enabled: true
Nonlinearity correction enabled: false
Boxcar width: 0
XAxis mode: Raman Shifts
Number of Pixels in Spectrum: 1044
>>>>>Begin Spectral Data<<<<<
160.701	-125.5
166.742	47.5
172.777	514.5
178.805	2020.5
184.826	5589.5
190.841	11655.5
196.849	18634.5
202.85	23617.5
208.845	25168.5
214.833	24981.5
220.815	24476.5
226.789	24355.5
232.758	24170.5
238.719	23970.5
244.674	23648.5
250.623	23217.5
256.565	22743.5
262.5	22247.5
268.429	21809.5
274.351	21470.5
280.267	21211.5
286.176	20929.5
292.079	20724.5
297.975	20550.5
303.865	20373.5
309.748	20223.5
315.625	20073.5
321.495	19957.5
327.359	19866.5
333.217	19842.5
339.068	19871.5
344.912	19791.5
350.751	19832.5
356.583	19745.5
362.408	19757.5
368.227	19735.5
374.04	19822.5
379.847	19896.5
385.647	19882.5
391.44	19987.5
397.228	20103.5
403.009	20188.5
408.784	20215.5
414.553	20245.5
420.315	20329.5
426.071	20380.5
431.821	20298.5
437.565	20354.5
443.302	20335.5
449.033	20281.5
454.758	20209.5
460.477	20097.5
466.189	20082.5
471.896	20028.5
477.596	19942.5
483.29	19954.5
488.978	19919.5
494.66	19814.5
500.335	19695.5
506.005	19510.5
511.668	19212.5
517.325	18968.5
522.977	18744.5
528.622	18550.5
534.261	18467.5
539.894	18335.5
545.521	18232.5
551.141	18197.5
556.756	18182.5
562.365	18037.5
567.968	18016.5
573.565	17927.5
579.155	17843.5
584.74	17714.5
590.319	17630.5
595.892	17545.5
601.459	17516.5
607.02	17434.5
612.575	17375.5
618.124	17248.5
623.667	17178.5
629.204	17055.5
634.735	16929.5
640.261	16872.5
645.781	16866.5
651.294	16783.5
656.802	16785.5
662.304	16734.5
667.8	16670.5
673.29	16704.5
678.775	16644.5
684.254	16532.5
689.726	16548.5
695.193	16475.5
700.655	16333.5
706.11	16306.5
711.56	16192.5
717.004	16176.5
722.442	16089.5
727.874	15969.5
733.301	15992.5
738.722	15884.5
744.137	15845.5
749.547	15825.5
754.951	15821.5
760.349	15843.5
765.741	15879.5
771.128	15885.5
776.509	15882.5
781.885	15910.5
787.254	15867.5
792.618	15786.5
797.977	15725.5
803.33	15592.5
808.677	15498.5
814.019	15425.5
819.355	15343.5
824.686	15316.5
830.011	15256.5
835.33	15217.5
840.644	15207.5
845.952	15234.5
851.255	15339.5
856.552	15316.5
861.844	15220.5
867.13	15223.5
872.41	15113.5
877.686	15057.5
882.955	14955.5
888.219	14838.5
893.478	14666.5
898.731	14507.5
903.979	14299.5
909.221	14239.5
914.458	14151.5
919.69	14128.5
924.916	14126.5
930.136	14213.5
935.351	14248.5
940.561	14252.5
945.766	14267.5
950.965	14104.5
956.158	14087.5
961.347	13895.5
966.529	13697.5
971.707	13554.5
976.879	13389.5
982.046	13259.5
987.208	13210.5
992.364	13225.5
997.515	13294.5
1002.66	13431.5
1007.801	13600.5
1012.936	13683.5
1018.066	13672.5
1023.19	13654.5
1028.309	13641.5
1033.423	13629.5
1038.532	13579.5
1043.636	13410.5
1048.734	13274.5
1053.827	13136.5
1058.915	12964.5
1063.998	12880.5
1069.075	12886.5
1074.147	12879.5
1079.214	12899.5
1084.276	12971.5
1089.333	13029.5
1094.385	13101.5
1099.431	13136.5
1104.472	13178.5
1109.509	13025.5
1114.54	12906.5
1119.565	12730.5
1124.586	12572.5
1129.602	12467.5
1134.613	12339.5
1139.618	12280.5
1144.619	12270.5
1149.614	12271.5
1154.604	12293.5
1159.589	12332.5
1164.57	12346.5
1169.545	12369.5
1174.515	12406.5
1179.48	12317.5
1184.44	12199.5
1189.395	12161.5
1194.345	12009.5
1199.29	11974.5
1204.23	11976.5
1209.165	11999.5
1214.095	12069.5
1219.021	12104.5
1223.941	12167.5
1228.856	12212.5
1233.766	12290.5
1238.672	12281.5
1243.572	12261.5
1248.467	12177.5
1253.358	12074.5
1258.244	11867.5
1263.124	11704.5
1268	11572.5
1272.871	11409.5
1277.737	11304.5
1282.599	11210.5
1287.455	11246.5
1292.306	11218.5
1297.153	11325.5
1301.995	11328.5
1306.832	11369.5
1311.664	11385.5
1316.491	11331.5
1321.314	11233.5
1326.132	11047.5
1330.945	10869.5
1335.753	10577.5
1340.556	10290.5
1345.354	10132.5
1350.148	9987.5
1354.937	9908.5
1359.722	9880.5
1364.501	9908.5
1369.276	9984.5
1374.046	10051.5
1378.811	10181.5
1383.572	10238.5
1388.327	10295.5
1393.079	10252.5
1397.825	10140.5
1402.567	10058.5
1407.304	9945.5
1412.036	9856.5
1416.764	9801.5
1421.487	9732.5
1426.205	9677.5
1430.919	9619.5
1435.628	9565.5
1440.333	9628.5
1445.032	9657.5
1449.727	9677.5
1454.418	9748.5
1459.104	9548.5
1463.785	9359.5
1468.462	9145.5
1473.134	8979.5
1477.802	8747.5
1482.465	8622.5
1487.123	8512.5
1491.777	8472.5
1496.426	8476.5
1501.071	8581.5
1505.711	8704.5
1510.347	8828.5
1514.978	8975.5
1519.604	9126.5
1524.226	9171.5
1528.844	9235.5
1533.457	9202.5
1538.065	9147.5
1542.669	9105.5
1547.269	9010.5
1551.864	9021.5
1556.454	8994.5
1561.041	8981.5
1565.622	9012.5
1570.199	8974.5
1574.772	9061.5
1579.34	9077.5
1583.904	9177.5
1588.464	9197.5
1593.019	9225.5
1597.569	9157.5
1602.115	9151.5
1606.657	9062.5
1611.195	9060.5
1615.728	8996.5
1620.256	8910.5
1624.78	8913.5
1629.3	8933.5
1633.816	8953.5
1638.327	8992.5
1642.834	9044.5
1647.336	9063.5
1651.834	9070.5
1656.328	9027.5
1660.817	8982.5
1665.302	8905.5
1669.783	8731.5
1674.259	8497.5
1678.732	8221.5
1683.199	7964.5
1687.663	7723.5
1692.122	7443.5
1696.577	7350.5
1701.028	7288.5
1705.474	7295.5
1709.917	7354.5
1714.355	7357.5
1718.788	7341.5
1723.218	7235.5
1727.643	7102.5
1732.064	6988.5
1736.481	6856.5
1740.893	6675.5
1745.301	6517.5
1749.705	6331.5
1754.105	6137.5
1758.501	5961.5
1762.893	5765.5
1767.28	5657.5
1771.663	5490.5
1776.042	5374.5
1780.417	5310.5
1784.787	5306.5
1789.154	5387.5
1793.516	5454.5
1797.874	5534.5
1802.228	5622.5
1806.578	5697.5
1810.924	5693.5
1815.266	5632.5
1819.603	5604.5
1823.937	5493.5
1828.266	5409.5
1832.591	5361.5
1836.913	5259.5
1841.23	5214.5
1845.543	5186.5
1849.852	5161.5
1854.156	5133.5
1858.457	5143.5
1862.754	5128.5
1867.047	5112.5
1871.335	5082.5
1875.62	5101.5
1879.9	5091.5
1884.177	5032.5
1888.449	4948.5
1892.718	4899.5
1896.982	4871.5
1901.243	4818.5
1905.499	4772.5
1909.752	4745.5
1914	4740.5
1918.245	4761.5
1922.485	4803.5
1926.722	4820.5
1930.954	4902.5
1935.183	4938.5
1939.408	5018.5
1943.628	5005.5
1947.845	5048.5
1952.058	5058.5
1956.267	5023.5
1960.472	4944.5
1964.673	4857.5
1968.87	4817.5
1973.063	4712.5
1977.252	4681.5
1981.438	4634.5
1985.619	4549.5
1989.797	4523.5
1993.971	4515.5
1998.14	4479.5
2002.306	4476.5
2006.469	4456.5
2010.627	4440.5
2014.781	4386.5
2018.932	4368.5
2023.078	4303.5
2027.221	4281.5
2031.36	4204.5
2035.495	4144.5
2039.627	4057.5
2043.754	4002.5
2047.878	3959.5
2051.998	3949.5
2056.114	3944.5
2060.226	3924.5
2064.334	3939.5
2068.439	3910.5
2072.54	3937.5
2076.637	3963.5
2080.73	3974.5
2084.82	4017.5
2088.906	4002.5
2092.988	4061.5
2097.066	3979.5
2101.14	4003.5
2105.211	3987.5
2109.278	3974.5
2113.342	3930.5
2117.401	3907.5
2121.457	3883.5
2125.509	3879.5
2129.558	3874.5
2133.602	3824.5
2137.643	3822.5
2141.681	3792.5
2145.714	3787.5
2149.744	3748.5
2153.77	3729.5
2157.793	3689.5
2161.812	3663.5
2165.827	3614.5
2169.838	3527.5
2173.846	3487.5
2177.851	3433.5
2181.851	3346.5
2185.848	3355.5
2189.841	3288.5
2193.831	3269.5
2197.817	3245.5
2201.799	3219.5
2205.778	3200.5
2209.753	3190.5
2213.725	3146.5
2217.693	3151.5
2221.657	3164.5
2225.618	3172.5
2229.575	3143.5
2233.529	3088.5
2237.479	3103.5
2241.425	3051.5
2245.368	3010.5
2249.307	2954.5
2253.243	2916.5
2257.175	2877.5
2261.104	2871.5
2265.029	2809.5
2268.95	2766.5
2272.868	2756.5
2276.783	2758.5
2280.694	2707.5
2284.601	2651.5
2288.505	2647.5
2292.405	2627.5
2296.302	2594.5
2300.195	2560.5
2304.085	2528.5
2307.971	2510.5
2311.854	2434.5
2315.734	2421.5
2319.609	2382.5
2323.482	2355.5
2327.351	2354.5
2331.216	2337.5
2335.078	2320.5
2338.937	2311.5
2342.792	2290.5
2346.643	2273.5
2350.492	2299.5
2354.336	2287.5
2358.178	2310.5
2362.015	2289.5
2365.85	2318.5
2369.681	2316.5
2373.508	2292.5
2377.333	2306.5
2381.153	2290.5
2384.971	2290.5
2388.785	2273.5
2392.595	2260.5
2396.402	2249.5
2400.206	2230.5
2404.007	2200.5
2407.804	2171.5
2411.597	2166.5
2415.388	2148.5
2419.174	2136.5
2422.958	2125.5
2426.738	2118.5
2430.515	2098.5
2434.289	2034.5
2438.059	2071.5
2441.825	2041.5
2445.589	2011.5
2449.349	1993.5
2453.106	1977.5
2456.859	1950.5
2460.61	1913.5
2464.356	1896.5
2468.1	1871.5
2471.84	1860.5
2475.577	1841.5
2479.311	1832.5
2483.041	1809.5
2486.768	1803.5
2490.492	1790.5
2494.213	1781.5
2497.93	1788.5
2501.644	1768.5
2505.355	1758.5
2509.062	1762.5
2512.766	1734.5
2516.467	1733.5
2520.165	1703.5
2523.859	1694.5
2527.551	1700.5
2531.239	1685.5
2534.923	1652.5
2538.605	1646.5
2542.283	1645.5
2545.958	1647.5
2549.63	1656.5
2553.299	1651.5
2556.964	1628.5
2560.626	1642.5
2564.285	1632.5
2567.941	1642.5
2571.594	1604.5
2575.243	1620.5
2578.89	1604.5
2582.533	1579.5
2586.173	1570.5
2589.809	1560.5
2593.443	1541.5
2597.073	1535.5
2600.701	1505.5
2604.325	1504.5
2607.946	1483.5
2611.564	1471.5
2615.178	1468.5
2618.79	1455.5
2622.398	1459.5
2626.004	1447.5
2629.606	1411.5
2633.205	1385.5
2636.801	1369.5
2640.394	1360.5
2643.983	1344.5
2647.57	1336.5
2651.153	1305.5
2654.734	1281.5
2658.311	1261.5
2661.885	1236.5
2665.456	1234.5
2669.025	1222.5
2672.589	1200.5
2676.151	1175.5
2679.71	1168.5
2683.266	1146.5
2686.819	1112.5
2690.368	1100.5
2693.915	1075.5
2697.458	1047.5
2700.999	1013.5
2704.536	994.5
2708.071	971.5
2711.602	953.5
2715.13	936.5
2718.656	907.5
2722.178	882.5
2725.697	877.5
2729.214	866.5
2732.727	856.5
2736.237	855.5
2739.744	849.5
2743.249	853.5
2746.75	856.5
2750.248	872.5
2753.743	878.5
2757.236	893.5
2760.725	883.5
2764.211	902.5
2767.695	902.5
2771.175	890.5
2774.652	905.5
2778.127	889.5
2781.598	881.5
2785.067	871.5
2788.532	885.5
2791.995	877.5
2795.455	872.5
2798.911	866.5
2802.365	889.5
2805.816	876.5
2809.264	875.5
2812.709	878.5
2816.151	878.5
2819.59	893.5
2823.026	874.5
2826.46	903.5
2829.89	891.5
2833.318	898.5
2836.742	888.5
2840.164	900.5
2843.583	915.5
2846.999	927.5
2850.412	938.5
2853.822	940.5
2857.229	955.5
2860.634	975.5
2864.035	994.5
2867.434	1004.5
2870.83	1028.5
2874.223	1047.5
2877.613	1068.5
2881	1070.5
2884.385	1072.5
2887.766	1075.5
2891.145	1091.5
2894.521	1072.5
2897.894	1067.5
2901.264	1084.5
2904.631	1108.5
2907.996	1087.5
2911.358	1093.5
2914.717	1095.5
2918.073	1100.5
2921.426	1132.5
2924.777	1132.5
2928.124	1165.5
2931.469	1171.5
2934.811	1190.5
2938.15	1205.5
2941.487	1224.5
2944.821	1224.5
2948.152	1236.5
2951.48	1204.5
2954.805	1199.5
2958.128	1190.5
2961.447	1175.5
2964.765	1175.5
2968.079	1182.5
2971.39	1176.5
2974.699	1205.5
2978.005	1207.5
2981.308	1240.5
2984.609	1259.5
2987.907	1288.5
2991.202	1299.5
2994.494	1324.5
2997.784	1370.5
3001.07	1396.5
3004.355	1403.5
3007.636	1441.5
3010.915	1444.5
3014.191	1466.5
3017.464	1463.5
3020.734	1492.5
3024.002	1492.5
3027.267	1506.5
3030.53	1508.5
3033.789	1549.5
3037.046	1540.5
3040.301	1581.5
3043.552	1603.5
3046.801	1643.5
3050.048	1695.5
3053.291	1754.5
3056.532	1794.5
3059.771	1820.5
3063.006	1896.5
3066.239	1954.5
3069.469	2001.5
3072.697	2062.5
3075.922	2121.5
3079.144	2168.5
3082.364	2218.5
3085.581	2271.5
3088.795	2316.5
3092.007	2375.5
3095.216	2412.5
3098.423	2454.5
3101.627	2534.5
3104.828	2575.5
3108.026	2641.5
3111.222	2683.5
3114.416	2759.5
3117.607	2805.5
3120.795	2891.5
3123.98	2930.5
3127.163	3023.5
3130.344	3100.5
3133.521	3158.5
3136.696	3257.5
3139.869	3313.5
3143.039	3356.5
3146.206	3403.5
3149.371	3463.5
3152.533	3488.5
3155.693	3521.5
3158.85	3531.5
3162.005	3550.5
3165.157	3556.5
3168.306	3582.5
3171.453	3579.5
3174.597	3576.5
3177.739	3595.5
3180.878	3601.5
3184.014	3607.5
3187.149	3586.5
3190.28	3612.5
3193.409	3619.5
3196.536	3592.5
3199.659	3620.5
3202.781	3638.5
3205.9	3629.5
3209.016	3622.5
3212.13	3573.5
3215.241	3568.5
3218.35	3571.5
3221.456	3489.5
3224.56	3463.5
3227.661	3418.5
3230.76	3399.5
3233.856	3348.5
3236.95	3322.5
3240.041	3297.5
3243.13	3265.5
3246.216	3241.5
3249.3	3205.5
3252.382	3220.5
3255.46	3208.5
3258.537	3159.5
3261.611	3185.5
3264.682	3168.5
3267.751	3199.5
3270.818	3196.5
3273.882	3184.5
3276.943	3153.5
3280.002	3104.5
3283.059	3120.5
3286.113	3069.5
3289.165	3038.5
3292.214	2979.5
3295.261	2937.5
3298.306	2890.5
3301.348	2837.5
3304.387	2796.5
3307.425	2753.5
3310.459	2725.5
3313.492	2668.5
3316.521	2625.5
3319.549	2622.5
3322.574	2596.5
3325.597	2546.5
3328.617	2532.5
3331.635	2561.5
3334.65	2529.5
3337.663	2512.5
3340.674	2501.5
3343.682	2460.5
3346.688	2474.5
3349.691	2498.5
3352.692	2439.5
3355.691	2408.5
3358.687	2408.5
3361.681	2400.5
3364.673	2348.5
3367.662	2304.5
3370.649	2277.5
3373.633	2227.5
3376.615	2201.5
3379.595	2181.5
3382.572	2162.5
3385.547	2123.5
3388.52	2088.5
3391.49	2082.5
3394.458	2013.5
3397.424	1996.5
3400.387	1989.5
3403.348	1973.5
3406.307	1930.5
3409.263	1907.5
3412.217	1870.5
3415.168	1864.5
3418.118	1830.5
3421.065	1798.5
3424.009	1792.5
3426.951	1764.5
3429.891	1720.5
3432.829	1700.5
3435.764	1640.5
3438.697	1595.5
3441.628	1561.5
3444.557	1523.5
3447.483	1452.5
3450.407	1414.5
3453.328	1375.5
3456.247	1311.5
3459.164	1271.5
3462.079	1231.5
3464.991	1184.5
3467.902	1134.5
3470.809	1105.5
3473.715	1063.5
3476.618	1027.5
3479.519	994.5
3482.418	941.5
3485.315	909.5
3488.209	880.5
3491.101	850.5
3493.99	823.5
3496.878	791.5
3499.763	744.5
3502.646	729.5
3505.527	669.5
3508.405	647.5
3511.281	621.5
3514.155	579.5
3517.027	550.5
3519.897	514.5
3522.764	469.5
3525.629	437.5
3528.492	384.5
3531.352	357.5
3534.211	325.5
3537.067	280.5
3539.921	263.5
3542.773	224.5
3545.622	203.5
3548.469	186.5
3551.315	147.5
3554.157	141.5
3556.998	94.5
3559.837	89.5
3562.673	62.5
3565.507	46.5
3568.339	32.5
3571.169	8.5
3573.996	-12.5
3576.822	-29.5
3579.645	-52.5
3582.466	-54.5
3585.285	-90.5
3588.101	-109.5
3590.916	-112.5
3593.728	-146.5
3596.538	-160.5
3599.346	-182.5
3602.152	-183.5
3604.956	-191.5
3607.757	-226.5
3610.556	-229.5
3613.354	-241.5
3616.149	-262.5
3618.942	-263.5
3621.732	-273.5
3624.521	-289.5
3627.307	-296.5
3630.092	-299.5
3632.874	-316.5
3635.654	-313.5
3638.432	-330.5
3641.208	-335.5
3643.982	-345.5
3646.753	-347.5
3649.523	-361.5
3652.29	-363.5
3655.055	-371.5
3657.818	-384.5
3660.579	-397.5
3663.338	-406.5
3666.095	-414.5
3668.849	-425.5
3671.602	-423.5
3674.352	-436.5
3677.101	-435.5
3679.847	-459.5
3682.591	-451.5
3685.333	-464.5
3688.073	-454.5
3690.811	-474.5
3693.547	-472.5
3696.281	-471.5
3699.013	-479.5
3701.742	-484.5
3704.47	-486.5
3707.195	-490.5
3709.919	-491.5
3712.64	-503.5
3715.359	-495.5
3718.076	-505.5
3720.792	-509.5
3723.505	-511.5
3726.216	-516.5
3728.925	-518.5
3731.632	-524.5
3734.336	-527.5
3737.039	-530.5
3739.74	-527.5
3742.439	-521.5
3745.136	-535.5
3747.83	-537.5
3750.523	-538.5
3753.213	-540.5
3755.902	-542.5
3758.589	-542.5
3761.273	-544.5
3763.956	-542.5
3766.636	-544.5
3769.315	-552.5
3771.991	-545.5
3774.665	-554.5
3777.338	-553.5
3780.008	-551.5
3782.677	-559.5
3785.343	-551.5
3788.007	-555.5
3790.67	-556.5
3793.33	-564.5
3795.989	-559.5
3798.645	-559.5
3801.299	-563.5
3803.952	-564.5
3806.602	-575.5
3809.251	-575.5
3811.897	-569.5
3814.542	-570.5
3817.184	-573.5
3819.825	-567.5
3822.463	-567.5
3825.1	-573.5
3827.735	-566.5
3830.367	-566.5
3832.998	-576.5
3835.627	-578.5
3838.253	-574.5
3840.878	-577.5
3843.501	-576.5
3846.122	-570.5
3848.741	-572.5
3851.358	-573.5
3853.973	-577.5
3856.586	-575.5
3859.197	-581.5
3861.806	-579.5
3864.414	-581.5
3867.019	-574.5
3869.622	-578.5
3872.224	-574.5
3874.823	-558.5
3877.421	-550.5
3880.016	-536.5
3882.61	-520.5
3885.202	-523.5
3887.792	-532.5
3890.38	-555.5
3892.966	-569.5
3895.55	-583.5
3898.132	-586.5
3900.713	-593.5
3903.291	-585.5
3905.868	-590.5
3908.442	-590.5
3911.015	-593.5
3913.586	-586.5
3916.155	-592.5
3918.722	-595.5
3921.287	-591.5
3923.85	-595.5
3926.411	-595.5
3928.971	-600.5
3931.528	-596.5
3934.084	-596.5
3936.638	-594.5
3939.19	-594.5
3941.74	-594.5
3944.288	-596.5
3946.834	-586.5
3949.378	-592.5
3951.921	-595.5
3954.462	-593.5
3957	-591.5
3959.537	-593.5
3962.072	-592.5
3964.606	-592.5
3967.137	-587.5
3969.667	-594.5
3972.194	-586.5
3974.72	-595.5
3977.244	-581.5
3979.766	-582.5
3982.286	-587.5
3984.805	-586.5
3987.321	-582.5
3989.836	-584.5
3992.349	-579.5
3994.86	-581.5
3997.369	-587.5
3999.877	-580.5
4002.382	-580.5
4004.886	-573.5
4007.388	-575.5
4009.888	-576.5
4012.386	-581.5
4014.883	-578.5
4017.377	-579.5
4019.87	-576.5
4022.361	-577.5
4024.85	-580.5
4027.338	-580.5
4029.823	-584.5
4032.307	-585.5
4034.789	-580.5
4037.269	-579.5
4039.747	-582.5
4042.224	-585.5
4044.699	-587.5
4047.172	-584.5
4049.643	-581.5
4052.112	-585.5
4054.58	-587.5
4057.046	-586.5
4059.51	-587.5
4061.972	-585.5
4064.432	-588.5
4066.891	-583.5
4069.348	-579.5
4071.803	-576.5
4074.256	-583.5
4076.708	-579.5
4079.158	-582.5
4081.606	-588.5
4084.052	-581.5
4086.497	-584.5
4088.939	-576.5
4091.38	-586.5
4093.819	-578.5
4096.257	-612.5
4098.693	-615.5
4101.127	-617.5
4103.559	-614.5
4105.989	-343.5
4108.418	-331.5
4110.845	-308.5
4113.27	-287.5
4115.694	-251.5
4118.115	-212.5
4120.535	-581.5
4122.954	-579.5
4125.37	-576.5
4127.785	-584.5
4130.198	-582.5
4132.609	-585.5
4135.019	-616.5
4137.427	-614.5
4139.833	-615.5
4142.237	-610.5
