Data from 2018-2-14_conc=5_n=1_RamanShift_02.txt Node
Date: Wed Feb 14 14:04:25 IST 2018
User: aro
Spectrometer: QEPB0276
Trigger mode: 0
Integration Time (sec): 3.000000E1
Scans to average: 1
Electric dark correction enabled: true
Nonlinearity correction enabled: false
Boxcar width: 0
XAxis mode: Raman Shifts
Number of Pixels in Spectrum: 1044
>>>>>Begin Spectral Data<<<<<
160.701	-137.5
166.742	34.5
172.777	557.5
178.805	2106.5
184.826	5861.5
190.841	12202.5
196.849	19532.5
202.85	24657.5
208.845	26333.5
214.833	26005.5
220.815	25540.5
226.789	25400.5
232.758	25252.5
238.719	25065.5
244.674	24750.5
250.623	24225.5
256.565	23734.5
262.5	23149.5
268.429	22794.5
274.351	22421.5
280.267	22140.5
286.176	21849.5
292.079	21656.5
297.975	21412.5
303.865	21205.5
309.748	21079.5
315.625	20919.5
321.495	20781.5
327.359	20723.5
333.217	20652.5
339.068	20614.5
344.912	20598.5
350.751	20526.5
356.583	20579.5
362.408	20571.5
368.227	20555.5
374.04	20604.5
379.847	20566.5
385.647	20736.5
391.44	20771.5
397.228	20842.5
403.009	20957.5
408.784	21009.5
414.553	21112.5
420.315	21157.5
426.071	21084.5
431.821	21036.5
437.565	21093.5
443.302	21129.5
449.033	21022.5
454.758	20990.5
460.477	20896.5
466.189	20879.5
471.896	20815.5
477.596	20781.5
483.29	20730.5
488.978	20685.5
494.66	20606.5
500.335	20439.5
506.005	20266.5
511.668	20111.5
517.325	19805.5
522.977	19667.5
528.622	19441.5
534.261	19344.5
539.894	19222.5
545.521	19167.5
551.141	19157.5
556.756	19045.5
562.365	18971.5
567.968	18905.5
573.565	18797.5
579.155	18710.5
584.74	18653.5
590.319	18598.5
595.892	18533.5
601.459	18479.5
607.02	18448.5
612.575	18270.5
618.124	18196.5
623.667	18053.5
629.204	17939.5
634.735	17836.5
640.261	17835.5
645.781	17737.5
651.294	17728.5
656.802	17688.5
662.304	17634.5
667.8	17626.5
673.29	17676.5
678.775	17542.5
684.254	17490.5
689.726	17443.5
695.193	17386.5
700.655	17312.5
706.11	17216.5
711.56	17085.5
717.004	17020.5
722.442	16973.5
727.874	16946.5
733.301	16850.5
738.722	16823.5
744.137	16781.5
749.547	16837.5
754.951	16745.5
760.349	16754.5
765.741	16768.5
771.128	16781.5
776.509	16783.5
781.885	16834.5
787.254	16764.5
792.618	16665.5
797.977	16581.5
803.33	16522.5
808.677	16388.5
814.019	16315.5
819.355	16191.5
824.686	16117.5
830.011	16154.5
835.33	16126.5
840.644	16106.5
845.952	16123.5
851.255	16165.5
856.552	16208.5
861.844	16120.5
867.13	16134.5
872.41	16048.5
877.686	15916.5
882.955	15815.5
888.219	15754.5
893.478	15527.5
898.731	15335.5
903.979	15185.5
909.221	15085.5
914.458	14996.5
919.69	15017.5
924.916	15064.5
930.136	15118.5
935.351	15132.5
940.561	15142.5
945.766	15081.5
950.965	15028.5
956.158	14942.5
961.347	14731.5
966.529	14533.5
971.707	14418.5
976.879	14262.5
982.046	14124.5
987.208	14103.5
992.364	14112.5
997.515	14158.5
1002.66	14299.5
1007.801	14438.5
1012.936	14525.5
1018.066	14523.5
1023.19	14600.5
1028.309	14517.5
1033.423	14536.5
1038.532	14404.5
1043.636	14288.5
1048.734	14127.5
1053.827	13980.5
1058.915	13830.5
1063.998	13720.5
1069.075	13700.5
1074.147	13721.5
1079.214	13736.5
1084.276	13862.5
1089.333	13911.5
1094.385	13947.5
1099.431	14001.5
1104.472	14024.5
1109.509	13948.5
1114.54	13765.5
1119.565	13577.5
1124.586	13433.5
1129.602	13316.5
1134.613	13221.5
1139.618	13129.5
1144.619	13080.5
1149.614	13108.5
1154.604	13112.5
1159.589	13157.5
1164.57	13175.5
1169.545	13243.5
1174.515	13175.5
1179.48	13139.5
1184.44	13018.5
1189.395	12968.5
1194.345	12867.5
1199.29	12811.5
1204.23	12802.5
1209.165	12858.5
1214.095	12935.5
1219.021	12998.5
1223.941	13091.5
1228.856	13156.5
1233.766	13177.5
1238.672	13173.5
1243.572	13186.5
1248.467	13039.5
1253.358	12907.5
1258.244	12732.5
1263.124	12525.5
1268	12395.5
1272.871	12248.5
1277.737	12126.5
1282.599	12093.5
1287.455	12098.5
1292.306	12124.5
1297.153	12167.5
1301.995	12159.5
1306.832	12272.5
1311.664	12259.5
1316.491	12260.5
1321.314	12099.5
1326.132	11939.5
1330.945	11689.5
1335.753	11395.5
1340.556	11095.5
1345.354	10898.5
1350.148	10702.5
1354.937	10621.5
1359.722	10646.5
1364.501	10750.5
1369.276	10858.5
1374.046	11042.5
1378.811	11198.5
1383.572	11306.5
1388.327	11356.5
1393.079	11274.5
1397.825	11116.5
1402.567	10941.5
1407.304	10799.5
1412.036	10712.5
1416.764	10621.5
1421.487	10535.5
1426.205	10480.5
1430.919	10426.5
1435.628	10471.5
1440.333	10452.5
1445.032	10492.5
1449.727	10539.5
1454.418	10541.5
1459.104	10335.5
1463.785	10190.5
1468.462	9996.5
1473.134	9816.5
1477.802	9632.5
1482.465	9461.5
1487.123	9362.5
1491.777	9372.5
1496.426	9406.5
1501.071	9527.5
1505.711	9721.5
1510.347	9880.5
1514.978	10037.5
1519.604	10148.5
1524.226	10319.5
1528.844	10313.5
1533.457	10292.5
1538.065	10197.5
1542.669	10152.5
1547.269	10046.5
1551.864	10026.5
1556.454	9941.5
1561.041	9941.5
1565.622	9923.5
1570.199	9961.5
1574.772	9964.5
1579.34	10051.5
1583.904	10104.5
1588.464	10157.5
1593.019	10131.5
1597.569	10094.5
1602.115	10005.5
1606.657	9957.5
1611.195	9909.5
1615.728	9803.5
1620.256	9797.5
1624.78	9782.5
1629.3	9839.5
1633.816	9868.5
1638.327	9865.5
1642.834	9960.5
1647.336	9986.5
1651.834	10049.5
1656.328	10001.5
1660.817	10033.5
1665.302	9895.5
1669.783	9654.5
1674.259	9472.5
1678.732	9245.5
1683.199	8957.5
1687.663	8650.5
1692.122	8398.5
1696.577	8263.5
1701.028	8316.5
1705.474	8361.5
1709.917	8452.5
1714.355	8538.5
1718.788	8411.5
1723.218	8287.5
1727.643	8118.5
1732.064	7987.5
1736.481	7767.5
1740.893	7568.5
1745.301	7379.5
1749.705	7233.5
1754.105	7003.5
1758.501	6778.5
1762.893	6610.5
1767.28	6443.5
1771.663	6301.5
1776.042	6223.5
1780.417	6154.5
1784.787	6156.5
1789.154	6205.5
1793.516	6325.5
1797.874	6457.5
1802.228	6629.5
1806.578	6681.5
1810.924	6660.5
1815.266	6555.5
1819.603	6495.5
1823.937	6395.5
1828.266	6256.5
1832.591	6184.5
1836.913	6088.5
1841.23	6025.5
1845.543	6008.5
1849.852	5959.5
1854.156	5942.5
1858.457	5895.5
1862.754	5906.5
1867.047	5917.5
1871.335	5926.5
1875.62	5903.5
1879.9	5883.5
1884.177	5847.5
1888.449	5813.5
1892.718	5729.5
1896.982	5677.5
1901.243	5631.5
1905.499	5603.5
1909.752	5550.5
1914	5584.5
1918.245	5615.5
1922.485	5681.5
1926.722	5740.5
1930.954	5824.5
1935.183	5875.5
1939.408	5958.5
1943.628	5994.5
1947.845	5980.5
1952.058	5931.5
1956.267	5912.5
1960.472	5864.5
1964.673	5729.5
1968.87	5680.5
1973.063	5562.5
1977.252	5473.5
1981.438	5409.5
1985.619	5391.5
1989.797	5313.5
1993.971	5322.5
1998.14	5293.5
2002.306	5276.5
2006.469	5220.5
2010.627	5168.5
2014.781	5176.5
2018.932	5112.5
2023.078	5087.5
2027.221	5003.5
2031.36	4867.5
2035.495	4856.5
2039.627	4776.5
2043.754	4729.5
2047.878	4686.5
2051.998	4656.5
2056.114	4649.5
2060.226	4647.5
2064.334	4660.5
2068.439	4666.5
2072.54	4708.5
2076.637	4750.5
2080.73	4782.5
2084.82	4802.5
2088.906	4818.5
2092.988	4795.5
2097.066	4826.5
2101.14	4778.5
2105.211	4736.5
2109.278	4702.5
2113.342	4694.5
2117.401	4669.5
2121.457	4657.5
2125.509	4630.5
2129.558	4598.5
2133.602	4546.5
2137.643	4537.5
2141.681	4506.5
2145.714	4484.5
2149.744	4460.5
2153.77	4403.5
2157.793	4366.5
2161.812	4298.5
2165.827	4278.5
2169.838	4211.5
2173.846	4115.5
2177.851	4037.5
2181.851	4003.5
2185.848	3950.5
2189.841	3928.5
2193.831	3875.5
2197.817	3829.5
2201.799	3807.5
2205.778	3810.5
2209.753	3778.5
2213.725	3779.5
2217.693	3766.5
2221.657	3743.5
2225.618	3735.5
2229.575	3721.5
2233.529	3707.5
2237.479	3662.5
2241.425	3620.5
2245.368	3577.5
2249.307	3490.5
2253.243	3472.5
2257.175	3427.5
2261.104	3386.5
2265.029	3342.5
2268.95	3303.5
2272.868	3262.5
2276.783	3262.5
2280.694	3202.5
2284.601	3160.5
2288.505	3131.5
2292.405	3133.5
2296.302	3064.5
2300.195	3033.5
2304.085	3000.5
2307.971	2960.5
2311.854	2933.5
2315.734	2903.5
2319.609	2842.5
2323.482	2811.5
2327.351	2781.5
2331.216	2756.5
2335.078	2729.5
2338.937	2706.5
2342.792	2698.5
2346.643	2667.5
2350.492	2685.5
2354.336	2711.5
2358.178	2708.5
2362.015	2694.5
2365.85	2700.5
2369.681	2695.5
2373.508	2706.5
2377.333	2701.5
2381.153	2680.5
2384.971	2662.5
2388.785	2672.5
2392.595	2635.5
2396.402	2637.5
2400.206	2575.5
2404.007	2588.5
2407.804	2569.5
2411.597	2546.5
2415.388	2511.5
2419.174	2496.5
2422.958	2492.5
2426.738	2463.5
2430.515	2450.5
2434.289	2430.5
2438.059	2430.5
2441.825	2398.5
2445.589	2377.5
2449.349	2350.5
2453.106	2346.5
2456.859	2291.5
2460.61	2284.5
2464.356	2244.5
2468.1	2220.5
2471.84	2189.5
2475.577	2176.5
2479.311	2164.5
2483.041	2172.5
2486.768	2152.5
2490.492	2136.5
2494.213	2123.5
2497.93	2120.5
2501.644	2119.5
2505.355	2100.5
2509.062	2079.5
2512.766	2084.5
2516.467	2108.5
2520.165	2083.5
2523.859	2050.5
2527.551	2038.5
2531.239	2021.5
2534.923	2012.5
2538.605	1990.5
2542.283	2010.5
2545.958	2008.5
2549.63	2014.5
2553.299	2003.5
2556.964	2001.5
2560.626	1992.5
2564.285	1962.5
2567.941	1979.5
2571.594	1948.5
2575.243	1958.5
2578.89	1938.5
2582.533	1929.5
2586.173	1903.5
2589.809	1893.5
2593.443	1887.5
2597.073	1849.5
2600.701	1836.5
2604.325	1842.5
2607.946	1806.5
2611.564	1810.5
2615.178	1781.5
2618.79	1781.5
2622.398	1756.5
2626.004	1761.5
2629.606	1715.5
2633.205	1727.5
2636.801	1671.5
2640.394	1662.5
2643.983	1637.5
2647.57	1620.5
2651.153	1585.5
2654.734	1552.5
2658.311	1531.5
2661.885	1511.5
2665.456	1486.5
2669.025	1482.5
2672.589	1451.5
2676.151	1441.5
2679.71	1428.5
2683.266	1424.5
2686.819	1369.5
2690.368	1355.5
2693.915	1319.5
2697.458	1282.5
2700.999	1262.5
2704.536	1255.5
2708.071	1210.5
2711.602	1172.5
2715.13	1156.5
2718.656	1135.5
2722.178	1119.5
2725.697	1109.5
2729.214	1106.5
2732.727	1089.5
2736.237	1075.5
2739.744	1074.5
2743.249	1092.5
2746.75	1104.5
2750.248	1119.5
2753.743	1131.5
2757.236	1139.5
2760.725	1146.5
2764.211	1155.5
2767.695	1166.5
2771.175	1152.5
2774.652	1144.5
2778.127	1144.5
2781.598	1132.5
2785.067	1127.5
2788.532	1118.5
2791.995	1115.5
2795.455	1105.5
2798.911	1124.5
2802.365	1118.5
2805.816	1125.5
2809.264	1126.5
2812.709	1110.5
2816.151	1089.5
2819.59	1107.5
2823.026	1105.5
2826.46	1113.5
2829.89	1113.5
2833.318	1131.5
2836.742	1121.5
2840.164	1137.5
2843.583	1135.5
2846.999	1159.5
2850.412	1163.5
2853.822	1164.5
2857.229	1193.5
2860.634	1192.5
2864.035	1223.5
2867.434	1239.5
2870.83	1251.5
2874.223	1265.5
2877.613	1295.5
2881	1313.5
2884.385	1293.5
2887.766	1308.5
2891.145	1304.5
2894.521	1301.5
2897.894	1304.5
2901.264	1292.5
2904.631	1283.5
2907.996	1296.5
2911.358	1305.5
2914.717	1304.5
2918.073	1314.5
2921.426	1334.5
2924.777	1331.5
2928.124	1376.5
2931.469	1386.5
2934.811	1402.5
2938.15	1412.5
2941.487	1428.5
2944.821	1429.5
2948.152	1434.5
2951.48	1441.5
2954.805	1408.5
2958.128	1398.5
2961.447	1397.5
2964.765	1400.5
2968.079	1400.5
2971.39	1383.5
2974.699	1410.5
2978.005	1440.5
2981.308	1453.5
2984.609	1494.5
2987.907	1511.5
2991.202	1541.5
2994.494	1581.5
2997.784	1601.5
3001.07	1614.5
3004.355	1650.5
3007.636	1684.5
3010.915	1695.5
3014.191	1700.5
3017.464	1720.5
3020.734	1725.5
3024.002	1727.5
3027.267	1742.5
3030.53	1737.5
3033.789	1777.5
3037.046	1806.5
3040.301	1822.5
3043.552	1846.5
3046.801	1904.5
3050.048	1937.5
3053.291	1952.5
3056.532	2013.5
3059.771	2104.5
3063.006	2129.5
3066.239	2206.5
3069.469	2271.5
3072.697	2310.5
3075.922	2376.5
3079.144	2428.5
3082.364	2497.5
3085.581	2536.5
3088.795	2576.5
3092.007	2642.5
3095.216	2704.5
3098.423	2770.5
3101.627	2813.5
3104.828	2881.5
3108.026	2947.5
3111.222	3025.5
3114.416	3101.5
3117.607	3133.5
3120.795	3216.5
3123.98	3281.5
3127.163	3378.5
3130.344	3463.5
3133.521	3517.5
3136.696	3607.5
3139.869	3678.5
3143.039	3756.5
3146.206	3791.5
3149.371	3825.5
3152.533	3877.5
3155.693	3891.5
3158.85	3929.5
3162.005	3919.5
3165.157	3923.5
3168.306	3941.5
3171.453	3952.5
3174.597	3950.5
3177.739	3974.5
3180.878	3967.5
3184.014	3978.5
3187.149	3975.5
3190.28	3976.5
3193.409	3952.5
3196.536	3971.5
3199.659	3989.5
3202.781	4042.5
3205.9	3984.5
3209.016	4017.5
3212.13	3997.5
3215.241	3980.5
3218.35	3912.5
3221.456	3897.5
3224.56	3865.5
3227.661	3772.5
3230.76	3764.5
3233.856	3683.5
3236.95	3664.5
3240.041	3659.5
3243.13	3642.5
3246.216	3624.5
3249.3	3568.5
3252.382	3609.5
3255.46	3558.5
3258.537	3530.5
3261.611	3573.5
3264.682	3565.5
3267.751	3543.5
3270.818	3549.5
3273.882	3515.5
3276.943	3484.5
3280.002	3488.5
3283.059	3449.5
3286.113	3430.5
3289.165	3368.5
3292.214	3315.5
3295.261	3255.5
3298.306	3220.5
3301.348	3130.5
3304.387	3109.5
3307.425	3052.5
3310.459	3006.5
3313.492	2960.5
3316.521	2920.5
3319.549	2898.5
3322.574	2863.5
3325.597	2817.5
3328.617	2823.5
3331.635	2781.5
3334.65	2773.5
3337.663	2761.5
3340.674	2737.5
3343.682	2723.5
3346.688	2738.5
3349.691	2710.5
3352.692	2700.5
3355.691	2684.5
3358.687	2667.5
3361.681	2635.5
3364.673	2582.5
3367.662	2550.5
3370.649	2515.5
3373.633	2479.5
3376.615	2470.5
3379.595	2419.5
3382.572	2363.5
3385.547	2354.5
3388.52	2314.5
3391.49	2291.5
3394.458	2267.5
3397.424	2209.5
3400.387	2169.5
3403.348	2158.5
3406.307	2124.5
3409.263	2096.5
3412.217	2078.5
3415.168	2055.5
3418.118	2043.5
3421.065	1998.5
3424.009	1990.5
3426.951	1941.5
3429.891	1930.5
3432.829	1890.5
3435.764	1832.5
3438.697	1802.5
3441.628	1731.5
3444.557	1698.5
3447.483	1649.5
3450.407	1613.5
3453.328	1560.5
3456.247	1492.5
3459.164	1439.5
3462.079	1381.5
3464.991	1335.5
3467.902	1281.5
3470.809	1237.5
3473.715	1185.5
3476.618	1150.5
3479.519	1125.5
3482.418	1073.5
3485.315	1032.5
3488.209	1002.5
3491.101	972.5
3493.99	940.5
3496.878	898.5
3499.763	858.5
3502.646	825.5
3505.527	779.5
3508.405	754.5
3511.281	712.5
3514.155	689.5
3517.027	658.5
3519.897	610.5
3522.764	557.5
3525.629	525.5
3528.492	473.5
3531.352	436.5
3534.211	411.5
3537.067	369.5
3539.921	340.5
3542.773	297.5
3545.622	252.5
3548.469	232.5
3551.315	209.5
3554.157	199.5
3556.998	144.5
3559.837	133.5
3562.673	111.5
3565.507	73.5
3568.339	71.5
3571.169	51.5
3573.996	19.5
3576.822	2.5
3579.645	-13.5
3582.466	-40.5
3585.285	-50.5
3588.101	-83.5
3590.916	-96.5
3593.728	-118.5
3596.538	-132.5
3599.346	-148.5
3602.152	-171.5
3604.956	-183.5
3607.757	-207.5
3610.556	-218.5
3613.354	-218.5
3616.149	-253.5
3618.942	-248.5
3621.732	-265.5
3624.521	-275.5
3627.307	-285.5
3630.092	-291.5
3632.874	-316.5
3635.654	-324.5
3638.432	-320.5
3641.208	-333.5
3643.982	-346.5
3646.753	-347.5
3649.523	-357.5
3652.29	-360.5
3655.055	-379.5
3657.818	-386.5
3660.579	-396.5
3663.338	-417.5
3666.095	-419.5
3668.849	-433.5
3671.602	-430.5
3674.352	-435.5
3677.101	-446.5
3679.847	-460.5
3682.591	-463.5
3685.333	-473.5
3688.073	-470.5
3690.811	-475.5
3693.547	-483.5
3696.281	-489.5
3699.013	-498.5
3701.742	-492.5
3704.47	-504.5
3707.195	-514.5
3709.919	-508.5
3712.64	-518.5
3715.359	-515.5
3718.076	-516.5
3720.792	-521.5
3723.505	-523.5
3726.216	-538.5
3728.925	-529.5
3731.632	-537.5
3734.336	-542.5
3737.039	-545.5
3739.74	-547.5
3742.439	-545.5
3745.136	-553.5
3747.83	-557.5
3750.523	-559.5
3753.213	-568.5
3755.902	-565.5
3758.589	-560.5
3761.273	-563.5
3763.956	-570.5
3766.636	-570.5
3769.315	-567.5
3771.991	-566.5
3774.665	-573.5
3777.338	-569.5
3780.008	-576.5
3782.677	-579.5
3785.343	-570.5
3788.007	-574.5
3790.67	-576.5
3793.33	-580.5
3795.989	-579.5
3798.645	-580.5
3801.299	-577.5
3803.952	-586.5
3806.602	-589.5
3809.251	-590.5
3811.897	-590.5
3814.542	-591.5
3817.184	-585.5
3819.825	-586.5
3822.463	-590.5
3825.1	-595.5
3827.735	-585.5
3830.367	-586.5
3832.998	-596.5
3835.627	-597.5
3838.253	-598.5
3840.878	-604.5
3843.501	-599.5
3846.122	-595.5
3848.741	-601.5
3851.358	-589.5
3853.973	-598.5
3856.586	-604.5
3859.197	-605.5
3861.806	-603.5
3864.414	-598.5
3867.019	-599.5
3869.622	-605.5
3872.224	-598.5
3874.823	-586.5
3877.421	-573.5
3880.016	-557.5
3882.61	-547.5
3885.202	-542.5
3887.792	-551.5
3890.38	-578.5
3892.966	-594.5
3895.55	-605.5
3898.132	-615.5
3900.713	-621.5
3903.291	-616.5
3905.868	-614.5
3908.442	-613.5
3911.015	-615.5
3913.586	-608.5
3916.155	-610.5
3918.722	-619.5
3921.287	-611.5
3923.85	-621.5
3926.411	-616.5
3928.971	-623.5
3931.528	-618.5
3934.084	-618.5
3936.638	-617.5
3939.19	-616.5
3941.74	-615.5
3944.288	-623.5
3946.834	-613.5
3949.378	-620.5
3951.921	-618.5
3954.462	-627.5
3957	-620.5
3959.537	-620.5
3962.072	-622.5
3964.606	-620.5
3967.137	-617.5
3969.667	-619.5
3972.194	-613.5
3974.72	-623.5
3977.244	-610.5
3979.766	-608.5
3982.286	-605.5
3984.805	-603.5
3987.321	-607.5
3989.836	-605.5
3992.349	-603.5
3994.86	-600.5
3997.369	-614.5
3999.877	-601.5
4002.382	-603.5
4004.886	-600.5
4007.388	-600.5
4009.888	-603.5
4012.386	-608.5
4014.883	-605.5
4017.377	-601.5
4019.87	-599.5
4022.361	-602.5
4024.85	-610.5
4027.338	-607.5
4029.823	-610.5
4032.307	-610.5
4034.789	-606.5
4037.269	-603.5
4039.747	-607.5
4042.224	-610.5
4044.699	-606.5
4047.172	-609.5
4049.643	-601.5
4052.112	-610.5
4054.58	-610.5
4057.046	-615.5
4059.51	-605.5
4061.972	-609.5
4064.432	-614.5
4066.891	-610.5
4069.348	-603.5
4071.803	-601.5
4074.256	-608.5
4076.708	-606.5
4079.158	-606.5
4081.606	-606.5
4084.052	-616.5
4086.497	-609.5
4088.939	-606.5
4091.38	-606.5
4093.819	-604.5
4096.257	-636.5
4098.693	-640.5
4101.127	-646.5
4103.559	-636.5
4105.989	-368.5
4108.418	-350.5
4110.845	-331.5
4113.27	-299.5
4115.694	-264.5
4118.115	-219.5
4120.535	-608.5
4122.954	-607.5
4125.37	-600.5
4127.785	-604.5
4130.198	-609.5
4132.609	-612.5
4135.019	-639.5
4137.427	-643.5
4139.833	-639.5
4142.237	-638.5
