Data from 2018-2-14_conc=6_n=6_RamanShift_02.txt Node
Date: Wed Feb 14 15:02:25 IST 2018
User: aro
Spectrometer: QEPB0276
Trigger mode: 0
Integration Time (sec): 3.000000E1
Scans to average: 1
Electric dark correction enabled: true
Nonlinearity correction enabled: false
Boxcar width: 0
XAxis mode: Raman Shifts
Number of Pixels in Spectrum: 1044
>>>>>Begin Spectral Data<<<<<
160.701	-137.4
166.742	43.6
172.777	566.6
178.805	2167.6
184.826	6063.6
190.841	12760.6
196.849	20523.6
202.85	26103.6
208.845	27908.6
214.833	27577.6
220.815	27000.6
226.789	26833.6
232.758	26640.6
238.719	26357.6
244.674	25913.6
250.623	25420.6
256.565	24861.6
262.5	24274.6
268.429	23821.6
274.351	23438.6
280.267	23025.6
286.176	22716.6
292.079	22510.6
297.975	22219.6
303.865	22010.6
309.748	21837.6
315.625	21596.6
321.495	21518.6
327.359	21433.6
333.217	21382.6
339.068	21379.6
344.912	21333.6
350.751	21318.6
356.583	21198.6
362.408	21257.6
368.227	21295.6
374.04	21321.6
379.847	21347.6
385.647	21370.6
391.44	21460.6
397.228	21580.6
403.009	21673.6
408.784	21697.6
414.553	21743.6
420.315	21855.6
426.071	21836.6
431.821	21848.6
437.565	21802.6
443.302	21723.6
449.033	21766.6
454.758	21663.6
460.477	21601.6
466.189	21597.6
471.896	21464.6
477.596	21476.6
483.29	21317.6
488.978	21303.6
494.66	21271.6
500.335	21219.6
506.005	20884.6
511.668	20688.6
517.325	20410.6
522.977	20262.6
528.622	20076.6
534.261	19964.6
539.894	19801.6
545.521	19732.6
551.141	19665.6
556.756	19624.6
562.365	19489.6
567.968	19417.6
573.565	19361.6
579.155	19226.6
584.74	19174.6
590.319	19096.6
595.892	19052.6
601.459	18982.6
607.02	18843.6
612.575	18762.6
618.124	18623.6
623.667	18543.6
629.204	18433.6
634.735	18347.6
640.261	18301.6
645.781	18179.6
651.294	18143.6
656.802	18173.6
662.304	18073.6
667.8	18056.6
673.29	18026.6
678.775	18052.6
684.254	17862.6
689.726	17809.6
695.193	17772.6
700.655	17680.6
706.11	17623.6
711.56	17455.6
717.004	17396.6
722.442	17351.6
727.874	17283.6
733.301	17167.6
738.722	17221.6
744.137	17175.6
749.547	17107.6
754.951	17146.6
760.349	17151.6
765.741	17141.6
771.128	17085.6
776.509	17125.6
781.885	17163.6
787.254	17116.6
792.618	16975.6
797.977	16957.6
803.33	16841.6
808.677	16701.6
814.019	16647.6
819.355	16545.6
824.686	16425.6
830.011	16429.6
835.33	16381.6
840.644	16374.6
845.952	16374.6
851.255	16422.6
856.552	16495.6
861.844	16368.6
867.13	16410.6
872.41	16324.6
877.686	16298.6
882.955	16055.6
888.219	15980.6
893.478	15779.6
898.731	15565.6
903.979	15369.6
909.221	15341.6
914.458	15252.6
919.69	15275.6
924.916	15254.6
930.136	15290.6
935.351	15327.6
940.561	15337.6
945.766	15321.6
950.965	15183.6
956.158	15068.6
961.347	14990.6
966.529	14761.6
971.707	14589.6
976.879	14413.6
982.046	14259.6
987.208	14243.6
992.364	14225.6
997.515	14307.6
1002.66	14465.6
1007.801	14615.6
1012.936	14700.6
1018.066	14734.6
1023.19	14683.6
1028.309	14661.6
1033.423	14655.6
1038.532	14580.6
1043.636	14450.6
1048.734	14223.6
1053.827	14093.6
1058.915	13919.6
1063.998	13836.6
1069.075	13782.6
1074.147	13766.6
1079.214	13870.6
1084.276	13910.6
1089.333	14001.6
1094.385	14128.6
1099.431	14107.6
1104.472	14152.6
1109.509	14021.6
1114.54	13893.6
1119.565	13661.6
1124.586	13520.6
1129.602	13389.6
1134.613	13286.6
1139.618	13196.6
1144.619	13193.6
1149.614	13185.6
1154.604	13178.6
1159.589	13218.6
1164.57	13212.6
1169.545	13268.6
1174.515	13286.6
1179.48	13183.6
1184.44	13121.6
1189.395	13014.6
1194.345	12937.6
1199.29	12867.6
1204.23	12837.6
1209.165	12897.6
1214.095	12941.6
1219.021	13043.6
1223.941	13087.6
1228.856	13184.6
1233.766	13221.6
1238.672	13227.6
1243.572	13199.6
1248.467	13107.6
1253.358	12973.6
1258.244	12742.6
1263.124	12609.6
1268	12403.6
1272.871	12271.6
1277.737	12164.6
1282.599	12093.6
1287.455	12111.6
1292.306	12164.6
1297.153	12126.6
1301.995	12206.6
1306.832	12256.6
1311.664	12251.6
1316.491	12267.6
1321.314	12202.6
1326.132	11914.6
1330.945	11723.6
1335.753	11470.6
1340.556	11142.6
1345.354	10928.6
1350.148	10743.6
1354.937	10622.6
1359.722	10610.6
1364.501	10660.6
1369.276	10712.6
1374.046	10885.6
1378.811	11062.6
1383.572	11170.6
1388.327	11182.6
1393.079	11147.6
1397.825	11040.6
1402.567	10912.6
1407.304	10735.6
1412.036	10640.6
1416.764	10579.6
1421.487	10511.6
1426.205	10446.6
1430.919	10429.6
1435.628	10422.6
1440.333	10421.6
1445.032	10428.6
1449.727	10480.6
1454.418	10468.6
1459.104	10349.6
1463.785	10200.6
1468.462	9968.6
1473.134	9773.6
1477.802	9544.6
1482.465	9367.6
1487.123	9256.6
1491.777	9226.6
1496.426	9307.6
1501.071	9364.6
1505.711	9498.6
1510.347	9648.6
1514.978	9794.6
1519.604	9980.6
1524.226	10059.6
1528.844	10070.6
1533.457	10022.6
1538.065	10046.6
1542.669	9958.6
1547.269	9900.6
1551.864	9816.6
1556.454	9787.6
1561.041	9809.6
1565.622	9802.6
1570.199	9815.6
1574.772	9855.6
1579.34	9957.6
1583.904	10056.6
1588.464	10071.6
1593.019	10035.6
1597.569	10063.6
1602.115	10026.6
1606.657	9955.6
1611.195	9892.6
1615.728	9828.6
1620.256	9823.6
1624.78	9798.6
1629.3	9820.6
1633.816	9906.6
1638.327	9918.6
1642.834	9986.6
1647.336	10038.6
1651.834	10066.6
1656.328	9993.6
1660.817	9978.6
1665.302	9876.6
1669.783	9664.6
1674.259	9446.6
1678.732	9179.6
1683.199	8863.6
1687.663	8531.6
1692.122	8234.6
1696.577	8133.6
1701.028	8078.6
1705.474	8119.6
1709.917	8172.6
1714.355	8223.6
1718.788	8165.6
1723.218	8037.6
1727.643	7893.6
1732.064	7722.6
1736.481	7566.6
1740.893	7360.6
1745.301	7132.6
1749.705	6927.6
1754.105	6784.6
1758.501	6559.6
1762.893	6408.6
1767.28	6227.6
1771.663	6081.6
1776.042	5972.6
1780.417	5922.6
1784.787	5938.6
1789.154	6019.6
1793.516	6085.6
1797.874	6222.6
1802.228	6285.6
1806.578	6387.6
1810.924	6382.6
1815.266	6262.6
1819.603	6196.6
1823.937	6137.6
1828.266	6041.6
1832.591	5942.6
1836.913	5835.6
1841.23	5797.6
1845.543	5764.6
1849.852	5727.6
1854.156	5688.6
1858.457	5677.6
1862.754	5667.6
1867.047	5675.6
1871.335	5636.6
1875.62	5645.6
1879.9	5633.6
1884.177	5614.6
1888.449	5538.6
1892.718	5486.6
1896.982	5390.6
1901.243	5416.6
1905.499	5330.6
1909.752	5331.6
1914	5325.6
1918.245	5339.6
1922.485	5403.6
1926.722	5435.6
1930.954	5519.6
1935.183	5576.6
1939.408	5621.6
1943.628	5671.6
1947.845	5671.6
1952.058	5655.6
1956.267	5649.6
1960.472	5549.6
1964.673	5474.6
1968.87	5372.6
1973.063	5301.6
1977.252	5236.6
1981.438	5186.6
1985.619	5130.6
1989.797	5114.6
1993.971	5074.6
1998.14	5034.6
2002.306	5020.6
2006.469	4982.6
2010.627	4991.6
2014.781	4944.6
2018.932	4916.6
2023.078	4856.6
2027.221	4788.6
2031.36	4708.6
2035.495	4644.6
2039.627	4588.6
2043.754	4537.6
2047.878	4486.6
2051.998	4461.6
2056.114	4456.6
2060.226	4444.6
2064.334	4459.6
2068.439	4472.6
2072.54	4463.6
2076.637	4539.6
2080.73	4552.6
2084.82	4574.6
2088.906	4611.6
2092.988	4604.6
2097.066	4587.6
2101.14	4513.6
2105.211	4511.6
2109.278	4522.6
2113.342	4498.6
2117.401	4459.6
2121.457	4448.6
2125.509	4420.6
2129.558	4415.6
2133.602	4361.6
2137.643	4339.6
2141.681	4304.6
2145.714	4305.6
2149.744	4264.6
2153.77	4191.6
2157.793	4176.6
2161.812	4125.6
2165.827	4052.6
2169.838	3997.6
2173.846	3943.6
2177.851	3881.6
2181.851	3806.6
2185.848	3776.6
2189.841	3745.6
2193.831	3681.6
2197.817	3648.6
2201.799	3607.6
2205.778	3612.6
2209.753	3597.6
2213.725	3581.6
2217.693	3581.6
2221.657	3581.6
2225.618	3544.6
2229.575	3559.6
2233.529	3479.6
2237.479	3444.6
2241.425	3439.6
2245.368	3367.6
2249.307	3330.6
2253.243	3285.6
2257.175	3264.6
2261.104	3193.6
2265.029	3174.6
2268.95	3136.6
2272.868	3084.6
2276.783	3044.6
2280.694	3034.6
2284.601	3003.6
2288.505	2972.6
2292.405	2952.6
2296.302	2924.6
2300.195	2861.6
2304.085	2849.6
2307.971	2795.6
2311.854	2771.6
2315.734	2705.6
2319.609	2679.6
2323.482	2627.6
2327.351	2613.6
2331.216	2589.6
2335.078	2601.6
2338.937	2582.6
2342.792	2535.6
2346.643	2538.6
2350.492	2531.6
2354.336	2533.6
2358.178	2551.6
2362.015	2543.6
2365.85	2551.6
2369.681	2552.6
2373.508	2561.6
2377.333	2545.6
2381.153	2549.6
2384.971	2513.6
2388.785	2502.6
2392.595	2477.6
2396.402	2458.6
2400.206	2430.6
2404.007	2415.6
2407.804	2386.6
2411.597	2387.6
2415.388	2382.6
2419.174	2340.6
2422.958	2357.6
2426.738	2306.6
2430.515	2301.6
2434.289	2279.6
2438.059	2290.6
2441.825	2259.6
2445.589	2232.6
2449.349	2190.6
2453.106	2190.6
2456.859	2128.6
2460.61	2107.6
2464.356	2102.6
2468.1	2070.6
2471.84	2060.6
2475.577	2020.6
2479.311	2017.6
2483.041	2022.6
2486.768	1985.6
2490.492	1981.6
2494.213	1971.6
2497.93	1966.6
2501.644	1962.6
2505.355	1982.6
2509.062	1937.6
2512.766	1939.6
2516.467	1934.6
2520.165	1909.6
2523.859	1891.6
2527.551	1875.6
2531.239	1879.6
2534.923	1860.6
2538.605	1837.6
2542.283	1849.6
2545.958	1825.6
2549.63	1842.6
2553.299	1841.6
2556.964	1840.6
2560.626	1816.6
2564.285	1807.6
2567.941	1793.6
2571.594	1802.6
2575.243	1790.6
2578.89	1780.6
2582.533	1753.6
2586.173	1733.6
2589.809	1703.6
2593.443	1715.6
2597.073	1697.6
2600.701	1678.6
2604.325	1682.6
2607.946	1646.6
2611.564	1649.6
2615.178	1638.6
2618.79	1636.6
2622.398	1622.6
2626.004	1585.6
2629.606	1569.6
2633.205	1551.6
2636.801	1542.6
2640.394	1526.6
2643.983	1479.6
2647.57	1471.6
2651.153	1468.6
2654.734	1410.6
2658.311	1380.6
2661.885	1380.6
2665.456	1360.6
2669.025	1333.6
2672.589	1325.6
2676.151	1319.6
2679.71	1307.6
2683.266	1297.6
2686.819	1259.6
2690.368	1242.6
2693.915	1212.6
2697.458	1169.6
2700.999	1161.6
2704.536	1129.6
2708.071	1103.6
2711.602	1082.6
2715.13	1076.6
2718.656	1046.6
2722.178	1035.6
2725.697	1001.6
2729.214	1000.6
2732.727	996.6
2736.237	990.6
2739.744	975.6
2743.249	987.6
2746.75	997.6
2750.248	1002.6
2753.743	1019.6
2757.236	1046.6
2760.725	1037.6
2764.211	1047.6
2767.695	1061.6
2771.175	1050.6
2774.652	1059.6
2778.127	1032.6
2781.598	1027.6
2785.067	1015.6
2788.532	1022.6
2791.995	1022.6
2795.455	1017.6
2798.911	1021.6
2802.365	1023.6
2805.816	1019.6
2809.264	1025.6
2812.709	1017.6
2816.151	1013.6
2819.59	1029.6
2823.026	1006.6
2826.46	1023.6
2829.89	1024.6
2833.318	1035.6
2836.742	1040.6
2840.164	1034.6
2843.583	1070.6
2846.999	1078.6
2850.412	1073.6
2853.822	1088.6
2857.229	1096.6
2860.634	1118.6
2864.035	1160.6
2867.434	1168.6
2870.83	1199.6
2874.223	1219.6
2877.613	1220.6
2881	1246.6
2884.385	1265.6
2887.766	1263.6
2891.145	1269.6
2894.521	1245.6
2897.894	1269.6
2901.264	1255.6
2904.631	1275.6
2907.996	1289.6
2911.358	1297.6
2914.717	1294.6
2918.073	1308.6
2921.426	1331.6
2924.777	1337.6
2928.124	1354.6
2931.469	1389.6
2934.811	1421.6
2938.15	1433.6
2941.487	1459.6
2944.821	1460.6
2948.152	1462.6
2951.48	1449.6
2954.805	1426.6
2958.128	1436.6
2961.447	1406.6
2964.765	1421.6
2968.079	1412.6
2971.39	1443.6
2974.699	1447.6
2978.005	1463.6
2981.308	1503.6
2984.609	1527.6
2987.907	1558.6
2991.202	1589.6
2994.494	1629.6
2997.784	1648.6
3001.07	1693.6
3004.355	1707.6
3007.636	1729.6
3010.915	1758.6
3014.191	1785.6
3017.464	1784.6
3020.734	1815.6
3024.002	1819.6
3027.267	1820.6
3030.53	1834.6
3033.789	1869.6
3037.046	1871.6
3040.301	1919.6
3043.552	1938.6
3046.801	1996.6
3050.048	2034.6
3053.291	2096.6
3056.532	2142.6
3059.771	2204.6
3063.006	2278.6
3066.239	2327.6
3069.469	2386.6
3072.697	2453.6
3075.922	2544.6
3079.144	2598.6
3082.364	2643.6
3085.581	2727.6
3088.795	2767.6
3092.007	2803.6
3095.216	2891.6
3098.423	2940.6
3101.627	3020.6
3104.828	3069.6
3108.026	3116.6
3111.222	3229.6
3114.416	3292.6
3117.607	3368.6
3120.795	3442.6
3123.98	3511.6
3127.163	3643.6
3130.344	3712.6
3133.521	3801.6
3136.696	3884.6
3139.869	3945.6
3143.039	4037.6
3146.206	4079.6
3149.371	4120.6
3152.533	4201.6
3155.693	4192.6
3158.85	4208.6
3162.005	4246.6
3165.157	4262.6
3168.306	4261.6
3171.453	4307.6
3174.597	4277.6
3177.739	4311.6
3180.878	4304.6
3184.014	4328.6
3187.149	4315.6
3190.28	4321.6
3193.409	4350.6
3196.536	4351.6
3199.659	4342.6
3202.781	4361.6
3205.9	4366.6
3209.016	4358.6
3212.13	4321.6
3215.241	4298.6
3218.35	4263.6
3221.456	4236.6
3224.56	4204.6
3227.661	4140.6
3230.76	4094.6
3233.856	4089.6
3236.95	4012.6
3240.041	4003.6
3243.13	3975.6
3246.216	3959.6
3249.3	3939.6
3252.382	3937.6
3255.46	3933.6
3258.537	3878.6
3261.611	3889.6
3264.682	3894.6
3267.751	3923.6
3270.818	3874.6
3273.882	3886.6
3276.943	3877.6
3280.002	3814.6
3283.059	3809.6
3286.113	3756.6
3289.165	3706.6
3292.214	3646.6
3295.261	3584.6
3298.306	3531.6
3301.348	3450.6
3304.387	3421.6
3307.425	3355.6
3310.459	3329.6
3313.492	3241.6
3316.521	3200.6
3319.549	3186.6
3322.574	3157.6
3325.597	3135.6
3328.617	3082.6
3331.635	3103.6
3334.65	3050.6
3337.663	3032.6
3340.674	3007.6
3343.682	3025.6
3346.688	3002.6
3349.691	3011.6
3352.692	2954.6
3355.691	2964.6
3358.687	2908.6
3361.681	2909.6
3364.673	2857.6
3367.662	2805.6
3370.649	2766.6
3373.633	2736.6
3376.615	2714.6
3379.595	2669.6
3382.572	2627.6
3385.547	2597.6
3388.52	2549.6
3391.49	2504.6
3394.458	2481.6
3397.424	2452.6
3400.387	2433.6
3403.348	2373.6
3406.307	2355.6
3409.263	2317.6
3412.217	2301.6
3415.168	2286.6
3418.118	2260.6
3421.065	2216.6
3424.009	2212.6
3426.951	2163.6
3429.891	2143.6
3432.829	2065.6
3435.764	2045.6
3438.697	1980.6
3441.628	1924.6
3444.557	1881.6
3447.483	1806.6
3450.407	1782.6
3453.328	1721.6
3456.247	1670.6
3459.164	1603.6
3462.079	1550.6
3464.991	1489.6
3467.902	1420.6
3470.809	1392.6
3473.715	1348.6
3476.618	1292.6
3479.519	1253.6
3482.418	1219.6
3485.315	1169.6
3488.209	1115.6
3491.101	1085.6
3493.99	1055.6
3496.878	1010.6
3499.763	990.6
3502.646	942.6
3505.527	890.6
3508.405	869.6
3511.281	814.6
3514.155	783.6
3517.027	746.6
3519.897	698.6
3522.764	639.6
3525.629	587.6
3528.492	559.6
3531.352	502.6
3534.211	468.6
3537.067	433.6
3539.921	404.6
3542.773	354.6
3545.622	314.6
3548.469	286.6
3551.315	264.6
3554.157	239.6
3556.998	202.6
3559.837	181.6
3562.673	156.6
3565.507	117.6
3568.339	95.6
3571.169	79.6
3573.996	66.6
3576.822	27.6
3579.645	17.6
3582.466	-16.4
3585.285	-32.4
3588.101	-60.4
3590.916	-67.4
3593.728	-104.4
3596.538	-119.4
3599.346	-140.4
3602.152	-155.4
3604.956	-162.4
3607.757	-190.4
3610.556	-205.4
3613.354	-218.4
3616.149	-231.4
3618.942	-235.4
3621.732	-253.4
3624.521	-270.4
3627.307	-282.4
3630.092	-286.4
3632.874	-306.4
3635.654	-314.4
3638.432	-324.4
3641.208	-336.4
3643.982	-353.4
3646.753	-360.4
3649.523	-363.4
3652.29	-372.4
3655.055	-375.4
3657.818	-391.4
3660.579	-405.4
3663.338	-418.4
3666.095	-423.4
3668.849	-437.4
3671.602	-448.4
3674.352	-449.4
3677.101	-454.4
3679.847	-472.4
3682.591	-477.4
3685.333	-482.4
3688.073	-480.4
3690.811	-497.4
3693.547	-498.4
3696.281	-505.4
3699.013	-511.4
3701.742	-511.4
3704.47	-518.4
3707.195	-525.4
3709.919	-529.4
3712.64	-529.4
3715.359	-532.4
3718.076	-539.4
3720.792	-534.4
3723.505	-538.4
3726.216	-550.4
3728.925	-549.4
3731.632	-556.4
3734.336	-560.4
3737.039	-555.4
3739.74	-560.4
3742.439	-566.4
3745.136	-570.4
3747.83	-577.4
3750.523	-577.4
3753.213	-584.4
3755.902	-580.4
3758.589	-577.4
3761.273	-581.4
3763.956	-589.4
3766.636	-588.4
3769.315	-591.4
3771.991	-591.4
3774.665	-595.4
3777.338	-594.4
3780.008	-596.4
3782.677	-594.4
3785.343	-595.4
3788.007	-594.4
3790.67	-597.4
3793.33	-595.4
3795.989	-601.4
3798.645	-598.4
3801.299	-599.4
3803.952	-608.4
3806.602	-610.4
3809.251	-615.4
3811.897	-609.4
3814.542	-607.4
3817.184	-606.4
3819.825	-605.4
3822.463	-614.4
3825.1	-615.4
3827.735	-612.4
3830.367	-614.4
3832.998	-623.4
3835.627	-619.4
3838.253	-623.4
3840.878	-623.4
3843.501	-619.4
3846.122	-614.4
3848.741	-618.4
3851.358	-615.4
3853.973	-620.4
3856.586	-619.4
3859.197	-623.4
3861.806	-626.4
3864.414	-626.4
3867.019	-619.4
3869.622	-619.4
3872.224	-617.4
3874.823	-603.4
3877.421	-583.4
3880.016	-568.4
3882.61	-550.4
3885.202	-543.4
3887.792	-566.4
3890.38	-593.4
3892.966	-612.4
3895.55	-626.4
3898.132	-635.4
3900.713	-636.4
3903.291	-635.4
3905.868	-640.4
3908.442	-637.4
3911.015	-638.4
3913.586	-628.4
3916.155	-629.4
3918.722	-638.4
3921.287	-636.4
3923.85	-643.4
3926.411	-638.4
3928.971	-647.4
3931.528	-643.4
3934.084	-640.4
3936.638	-637.4
3939.19	-639.4
3941.74	-641.4
3944.288	-644.4
3946.834	-634.4
3949.378	-641.4
3951.921	-641.4
3954.462	-647.4
3957	-639.4
3959.537	-640.4
3962.072	-642.4
3964.606	-641.4
3967.137	-645.4
3969.667	-646.4
3972.194	-632.4
3974.72	-638.4
3977.244	-633.4
3979.766	-626.4
3982.286	-628.4
3984.805	-629.4
3987.321	-621.4
3989.836	-629.4
3992.349	-620.4
3994.86	-620.4
3997.369	-634.4
3999.877	-623.4
4002.382	-621.4
4004.886	-621.4
4007.388	-621.4
4009.888	-624.4
4012.386	-627.4
4014.883	-626.4
4017.377	-625.4
4019.87	-622.4
4022.361	-627.4
4024.85	-633.4
4027.338	-634.4
4029.823	-626.4
4032.307	-631.4
4034.789	-626.4
4037.269	-626.4
4039.747	-629.4
4042.224	-636.4
4044.699	-624.4
4047.172	-623.4
4049.643	-626.4
4052.112	-634.4
4054.58	-634.4
4057.046	-630.4
4059.51	-632.4
4061.972	-631.4
4064.432	-628.4
4066.891	-628.4
4069.348	-627.4
4071.803	-621.4
4074.256	-626.4
4076.708	-627.4
4079.158	-626.4
4081.606	-629.4
4084.052	-640.4
4086.497	-629.4
4088.939	-628.4
4091.38	-625.4
4093.819	-626.4
4096.257	-660.4
4098.693	-661.4
4101.127	-666.4
4103.559	-661.4
4105.989	-378.4
4108.418	-356.4
4110.845	-328.4
4113.27	-303.4
4115.694	-264.4
4118.115	-225.4
4120.535	-631.4
4122.954	-627.4
4125.37	-616.4
4127.785	-629.4
4130.198	-631.4
4132.609	-627.4
4135.019	-659.4
4137.427	-662.4
4139.833	-661.4
4142.237	-657.4
