Data from 2018-2-14_conc=3_n=5_RamanShift_03.txt Node
Date: Wed Feb 14 11:56:26 IST 2018
User: aro
Spectrometer: QEPB0276
Trigger mode: 0
Integration Time (sec): 3.000000E1
Scans to average: 1
Electric dark correction enabled: true
Nonlinearity correction enabled: false
Boxcar width: 0
XAxis mode: Raman Shifts
Number of Pixels in Spectrum: 1044
>>>>>Begin Spectral Data<<<<<
160.701	-138.4
166.742	51.6
172.777	585.6
178.805	2248.6
184.826	6252.6
190.841	13107.6
196.849	21207.6
202.85	26951.6
208.845	28848.6
214.833	28520.6
220.815	28073.6
226.789	27776.6
232.758	27639.6
238.719	27504.6
244.674	27092.6
250.623	26629.6
256.565	26005.6
262.5	25490.6
268.429	25000.6
274.351	24652.6
280.267	24255.6
286.176	24006.6
292.079	23826.6
297.975	23550.6
303.865	23340.6
309.748	23219.6
315.625	22982.6
321.495	22897.6
327.359	22729.6
333.217	22706.6
339.068	22722.6
344.912	22603.6
350.751	22617.6
356.583	22559.6
362.408	22596.6
368.227	22565.6
374.04	22548.6
379.847	22654.6
385.647	22758.6
391.44	22830.6
397.228	22951.6
403.009	23053.6
408.784	23113.6
414.553	23151.6
420.315	23239.6
426.071	23213.6
431.821	23273.6
437.565	23185.6
443.302	23122.6
449.033	23108.6
454.758	23024.6
460.477	22988.6
466.189	23016.6
471.896	22834.6
477.596	22855.6
483.29	22796.6
488.978	22729.6
494.66	22650.6
500.335	22508.6
506.005	22341.6
511.668	22088.6
517.325	21840.6
522.977	21650.6
528.622	21454.6
534.261	21283.6
539.894	21171.6
545.521	21120.6
551.141	21031.6
556.756	20978.6
562.365	20910.6
567.968	20823.6
573.565	20760.6
579.155	20689.6
584.74	20578.6
590.319	20496.6
595.892	20436.6
601.459	20321.6
607.02	20299.6
612.575	20241.6
618.124	20012.6
623.667	19958.6
629.204	19811.6
634.735	19749.6
640.261	19569.6
645.781	19532.6
651.294	19527.6
656.802	19476.6
662.304	19500.6
667.8	19432.6
673.29	19385.6
678.775	19335.6
684.254	19268.6
689.726	19208.6
695.193	19157.6
700.655	19085.6
706.11	18948.6
711.56	18905.6
717.004	18795.6
722.442	18653.6
727.874	18619.6
733.301	18551.6
738.722	18479.6
744.137	18541.6
749.547	18494.6
754.951	18496.6
760.349	18475.6
765.741	18518.6
771.128	18483.6
776.509	18546.6
781.885	18491.6
787.254	18467.6
792.618	18378.6
797.977	18249.6
803.33	18172.6
808.677	18068.6
814.019	17959.6
819.355	17798.6
824.686	17743.6
830.011	17725.6
835.33	17756.6
840.644	17728.6
845.952	17793.6
851.255	17812.6
856.552	17827.6
861.844	17768.6
867.13	17740.6
872.41	17710.6
877.686	17566.6
882.955	17440.6
888.219	17300.6
893.478	17119.6
898.731	16836.6
903.979	16772.6
909.221	16643.6
914.458	16553.6
919.69	16555.6
924.916	16537.6
930.136	16577.6
935.351	16705.6
940.561	16670.6
945.766	16623.6
950.965	16559.6
956.158	16413.6
961.347	16282.6
966.529	16086.6
971.707	15878.6
976.879	15685.6
982.046	15523.6
987.208	15464.6
992.364	15450.6
997.515	15574.6
1002.66	15703.6
1007.801	15846.6
1012.936	15964.6
1018.066	16032.6
1023.19	16010.6
1028.309	16000.6
1033.423	15977.6
1038.532	15863.6
1043.636	15717.6
1048.734	15520.6
1053.827	15370.6
1058.915	15218.6
1063.998	15067.6
1069.075	15079.6
1074.147	15069.6
1079.214	15037.6
1084.276	15212.6
1089.333	15307.6
1094.385	15356.6
1099.431	15427.6
1104.472	15405.6
1109.509	15365.6
1114.54	15176.6
1119.565	14957.6
1124.586	14755.6
1129.602	14606.6
1134.613	14510.6
1139.618	14421.6
1144.619	14379.6
1149.614	14331.6
1154.604	14395.6
1159.589	14443.6
1164.57	14502.6
1169.545	14465.6
1174.515	14512.6
1179.48	14419.6
1184.44	14333.6
1189.395	14185.6
1194.345	14150.6
1199.29	14038.6
1204.23	14038.6
1209.165	14088.6
1214.095	14159.6
1219.021	14244.6
1223.941	14272.6
1228.856	14401.6
1233.766	14408.6
1238.672	14461.6
1243.572	14439.6
1248.467	14316.6
1253.358	14180.6
1258.244	13981.6
1263.124	13786.6
1268	13546.6
1272.871	13430.6
1277.737	13292.6
1282.599	13224.6
1287.455	13238.6
1292.306	13234.6
1297.153	13306.6
1301.995	13356.6
1306.832	13399.6
1311.664	13492.6
1316.491	13416.6
1321.314	13216.6
1326.132	13108.6
1330.945	12788.6
1335.753	12505.6
1340.556	12140.6
1345.354	11910.6
1350.148	11704.6
1354.937	11591.6
1359.722	11558.6
1364.501	11647.6
1369.276	11769.6
1374.046	11925.6
1378.811	12142.6
1383.572	12294.6
1388.327	12351.6
1393.079	12353.6
1397.825	12098.6
1402.567	11975.6
1407.304	11818.6
1412.036	11654.6
1416.764	11606.6
1421.487	11532.6
1426.205	11457.6
1430.919	11387.6
1435.628	11415.6
1440.333	11450.6
1445.032	11473.6
1449.727	11489.6
1454.418	11477.6
1459.104	11331.6
1463.785	11162.6
1468.462	10889.6
1473.134	10630.6
1477.802	10422.6
1482.465	10262.6
1487.123	10147.6
1491.777	10170.6
1496.426	10184.6
1501.071	10291.6
1505.711	10394.6
1510.347	10631.6
1514.978	10822.6
1519.604	11014.6
1524.226	11110.6
1528.844	11169.6
1533.457	11124.6
1538.065	11063.6
1542.669	11020.6
1547.269	10922.6
1551.864	10861.6
1556.454	10804.6
1561.041	10765.6
1565.622	10760.6
1570.199	10796.6
1574.772	10845.6
1579.34	10915.6
1583.904	10988.6
1588.464	10996.6
1593.019	11040.6
1597.569	10957.6
1602.115	10935.6
1606.657	10812.6
1611.195	10786.6
1615.728	10705.6
1620.256	10624.6
1624.78	10646.6
1629.3	10583.6
1633.816	10673.6
1638.327	10736.6
1642.834	10718.6
1647.336	10838.6
1651.834	10884.6
1656.328	10809.6
1660.817	10760.6
1665.302	10707.6
1669.783	10548.6
1674.259	10279.6
1678.732	10027.6
1683.199	9635.6
1687.663	9324.6
1692.122	9018.6
1696.577	8856.6
1701.028	8843.6
1705.474	8905.6
1709.917	9055.6
1714.355	9111.6
1718.788	9028.6
1723.218	8868.6
1727.643	8695.6
1732.064	8553.6
1736.481	8383.6
1740.893	8153.6
1745.301	7923.6
1749.705	7734.6
1754.105	7514.6
1758.501	7301.6
1762.893	7142.6
1767.28	6912.6
1771.663	6755.6
1776.042	6645.6
1780.417	6561.6
1784.787	6562.6
1789.154	6665.6
1793.516	6747.6
1797.874	6902.6
1802.228	7040.6
1806.578	7107.6
1810.924	7130.6
1815.266	7081.6
1819.603	6921.6
1823.937	6865.6
1828.266	6746.6
1832.591	6652.6
1836.913	6550.6
1841.23	6452.6
1845.543	6421.6
1849.852	6401.6
1854.156	6358.6
1858.457	6343.6
1862.754	6364.6
1867.047	6311.6
1871.335	6313.6
1875.62	6308.6
1879.9	6271.6
1884.177	6245.6
1888.449	6210.6
1892.718	6109.6
1896.982	6034.6
1901.243	5982.6
1905.499	5979.6
1909.752	5946.6
1914	5928.6
1918.245	5980.6
1922.485	6005.6
1926.722	6057.6
1930.954	6173.6
1935.183	6246.6
1939.408	6295.6
1943.628	6282.6
1947.845	6321.6
1952.058	6319.6
1956.267	6250.6
1960.472	6213.6
1964.673	6125.6
1968.87	6010.6
1973.063	5907.6
1977.252	5828.6
1981.438	5792.6
1985.619	5755.6
1989.797	5670.6
1993.971	5636.6
1998.14	5619.6
2002.306	5602.6
2006.469	5581.6
2010.627	5548.6
2014.781	5502.6
2018.932	5454.6
2023.078	5419.6
2027.221	5338.6
2031.36	5251.6
2035.495	5195.6
2039.627	5093.6
2043.754	5038.6
2047.878	4960.6
2051.998	5004.6
2056.114	4963.6
2060.226	4966.6
2064.334	4938.6
2068.439	4977.6
2072.54	4973.6
2076.637	5021.6
2080.73	5040.6
2084.82	5082.6
2088.906	5105.6
2092.988	5137.6
2097.066	5083.6
2101.14	5043.6
2105.211	5039.6
2109.278	5021.6
2113.342	4963.6
2117.401	4948.6
2121.457	4909.6
2125.509	4876.6
2129.558	4877.6
2133.602	4853.6
2137.643	4812.6
2141.681	4822.6
2145.714	4770.6
2149.744	4743.6
2153.77	4710.6
2157.793	4636.6
2161.812	4595.6
2165.827	4531.6
2169.838	4462.6
2173.846	4400.6
2177.851	4307.6
2181.851	4246.6
2185.848	4197.6
2189.841	4141.6
2193.831	4114.6
2197.817	4084.6
2201.799	4060.6
2205.778	4065.6
2209.753	4031.6
2213.725	4025.6
2217.693	4025.6
2221.657	4017.6
2225.618	3992.6
2229.575	3981.6
2233.529	3944.6
2237.479	3865.6
2241.425	3840.6
2245.368	3779.6
2249.307	3715.6
2253.243	3688.6
2257.175	3627.6
2261.104	3614.6
2265.029	3558.6
2268.95	3522.6
2272.868	3466.6
2276.783	3470.6
2280.694	3415.6
2284.601	3356.6
2288.505	3344.6
2292.405	3319.6
2296.302	3278.6
2300.195	3257.6
2304.085	3196.6
2307.971	3159.6
2311.854	3145.6
2315.734	3077.6
2319.609	3031.6
2323.482	2982.6
2327.351	2957.6
2331.216	2950.6
2335.078	2930.6
2338.937	2899.6
2342.792	2876.6
2346.643	2884.6
2350.492	2892.6
2354.336	2873.6
2358.178	2909.6
2362.015	2908.6
2365.85	2932.6
2369.681	2888.6
2373.508	2916.6
2377.333	2868.6
2381.153	2848.6
2384.971	2873.6
2388.785	2846.6
2392.595	2815.6
2396.402	2803.6
2400.206	2778.6
2404.007	2734.6
2407.804	2732.6
2411.597	2720.6
2415.388	2688.6
2419.174	2652.6
2422.958	2680.6
2426.738	2652.6
2430.515	2635.6
2434.289	2605.6
2438.059	2575.6
2441.825	2591.6
2445.589	2527.6
2449.349	2499.6
2453.106	2502.6
2456.859	2434.6
2460.61	2428.6
2464.356	2383.6
2468.1	2366.6
2471.84	2330.6
2475.577	2301.6
2479.311	2294.6
2483.041	2264.6
2486.768	2271.6
2490.492	2267.6
2494.213	2268.6
2497.93	2263.6
2501.644	2262.6
2505.355	2232.6
2509.062	2226.6
2512.766	2211.6
2516.467	2180.6
2520.165	2173.6
2523.859	2152.6
2527.551	2142.6
2531.239	2156.6
2534.923	2142.6
2538.605	2119.6
2542.283	2115.6
2545.958	2121.6
2549.63	2124.6
2553.299	2102.6
2556.964	2095.6
2560.626	2092.6
2564.285	2086.6
2567.941	2070.6
2571.594	2043.6
2575.243	2042.6
2578.89	2044.6
2582.533	2012.6
2586.173	1996.6
2589.809	1973.6
2593.443	1982.6
2597.073	1953.6
2600.701	1953.6
2604.325	1926.6
2607.946	1923.6
2611.564	1889.6
2615.178	1881.6
2618.79	1879.6
2622.398	1860.6
2626.004	1848.6
2629.606	1818.6
2633.205	1812.6
2636.801	1778.6
2640.394	1741.6
2643.983	1725.6
2647.57	1683.6
2651.153	1665.6
2654.734	1635.6
2658.311	1628.6
2661.885	1576.6
2665.456	1601.6
2669.025	1570.6
2672.589	1530.6
2676.151	1545.6
2679.71	1509.6
2683.266	1499.6
2686.819	1453.6
2690.368	1427.6
2693.915	1403.6
2697.458	1387.6
2700.999	1335.6
2704.536	1310.6
2708.071	1300.6
2711.602	1247.6
2715.13	1221.6
2718.656	1206.6
2722.178	1179.6
2725.697	1153.6
2729.214	1145.6
2732.727	1143.6
2736.237	1145.6
2739.744	1129.6
2743.249	1147.6
2746.75	1150.6
2750.248	1156.6
2753.743	1180.6
2757.236	1192.6
2760.725	1196.6
2764.211	1202.6
2767.695	1215.6
2771.175	1185.6
2774.652	1207.6
2778.127	1182.6
2781.598	1190.6
2785.067	1166.6
2788.532	1184.6
2791.995	1175.6
2795.455	1152.6
2798.911	1167.6
2802.365	1174.6
2805.816	1190.6
2809.264	1160.6
2812.709	1178.6
2816.151	1170.6
2819.59	1156.6
2823.026	1160.6
2826.46	1175.6
2829.89	1171.6
2833.318	1175.6
2836.742	1172.6
2840.164	1176.6
2843.583	1187.6
2846.999	1199.6
2850.412	1215.6
2853.822	1231.6
2857.229	1237.6
2860.634	1263.6
2864.035	1290.6
2867.434	1290.6
2870.83	1312.6
2874.223	1343.6
2877.613	1380.6
2881	1361.6
2884.385	1413.6
2887.766	1383.6
2891.145	1379.6
2894.521	1377.6
2897.894	1397.6
2901.264	1369.6
2904.631	1394.6
2907.996	1390.6
2911.358	1384.6
2914.717	1385.6
2918.073	1412.6
2921.426	1436.6
2924.777	1442.6
2928.124	1453.6
2931.469	1489.6
2934.811	1499.6
2938.15	1529.6
2941.487	1545.6
2944.821	1572.6
2948.152	1533.6
2951.48	1538.6
2954.805	1529.6
2958.128	1508.6
2961.447	1508.6
2964.765	1489.6
2968.079	1507.6
2971.39	1487.6
2974.699	1545.6
2978.005	1544.6
2981.308	1583.6
2984.609	1613.6
2987.907	1640.6
2991.202	1656.6
2994.494	1697.6
2997.784	1737.6
3001.07	1772.6
3004.355	1787.6
3007.636	1839.6
3010.915	1844.6
3014.191	1852.6
3017.464	1852.6
3020.734	1896.6
3024.002	1886.6
3027.267	1890.6
3030.53	1898.6
3033.789	1941.6
3037.046	1955.6
3040.301	1981.6
3043.552	1994.6
3046.801	2040.6
3050.048	2099.6
3053.291	2126.6
3056.532	2233.6
3059.771	2252.6
3063.006	2331.6
3066.239	2381.6
3069.469	2473.6
3072.697	2524.6
3075.922	2582.6
3079.144	2627.6
3082.364	2713.6
3085.581	2768.6
3088.795	2843.6
3092.007	2897.6
3095.216	2922.6
3098.423	2995.6
3101.627	3092.6
3104.828	3117.6
3108.026	3197.6
3111.222	3285.6
3114.416	3364.6
3117.607	3440.6
3120.795	3494.6
3123.98	3575.6
3127.163	3657.6
3130.344	3728.6
3133.521	3853.6
3136.696	3930.6
3139.869	4002.6
3143.039	4073.6
3146.206	4133.6
3149.371	4164.6
3152.533	4233.6
3155.693	4233.6
3158.85	4262.6
3162.005	4280.6
3165.157	4295.6
3168.306	4297.6
3171.453	4315.6
3174.597	4347.6
3177.739	4374.6
3180.878	4328.6
3184.014	4348.6
3187.149	4347.6
3190.28	4353.6
3193.409	4330.6
3196.536	4343.6
3199.659	4379.6
3202.781	4368.6
3205.9	4392.6
3209.016	4379.6
3212.13	4358.6
3215.241	4363.6
3218.35	4313.6
3221.456	4245.6
3224.56	4245.6
3227.661	4159.6
3230.76	4105.6
3233.856	4096.6
3236.95	4039.6
3240.041	3990.6
3243.13	3976.6
3246.216	3951.6
3249.3	3973.6
3252.382	3928.6
3255.46	3918.6
3258.537	3885.6
3261.611	3892.6
3264.682	3914.6
3267.751	3894.6
3270.818	3881.6
3273.882	3885.6
3276.943	3826.6
3280.002	3846.6
3283.059	3782.6
3286.113	3757.6
3289.165	3674.6
3292.214	3638.6
3295.261	3585.6
3298.306	3492.6
3301.348	3437.6
3304.387	3385.6
3307.425	3364.6
3310.459	3283.6
3313.492	3280.6
3316.521	3210.6
3319.549	3174.6
3322.574	3161.6
3325.597	3121.6
3328.617	3077.6
3331.635	3075.6
3334.65	3077.6
3337.663	3035.6
3340.674	3010.6
3343.682	2988.6
3346.688	2997.6
3349.691	2975.6
3352.692	2966.6
3355.691	2940.6
3358.687	2926.6
3361.681	2896.6
3364.673	2840.6
3367.662	2803.6
3370.649	2736.6
3373.633	2742.6
3376.615	2670.6
3379.595	2638.6
3382.572	2597.6
3385.547	2564.6
3388.52	2520.6
3391.49	2503.6
3394.458	2459.6
3397.424	2426.6
3400.387	2404.6
3403.348	2364.6
3406.307	2322.6
3409.263	2304.6
3412.217	2287.6
3415.168	2268.6
3418.118	2211.6
3421.065	2235.6
3424.009	2175.6
3426.951	2143.6
3429.891	2109.6
3432.829	2071.6
3435.764	2009.6
3438.697	1956.6
3441.628	1922.6
3444.557	1855.6
3447.483	1799.6
3450.407	1759.6
3453.328	1676.6
3456.247	1636.6
3459.164	1565.6
3462.079	1514.6
3464.991	1482.6
3467.902	1415.6
3470.809	1366.6
3473.715	1310.6
3476.618	1278.6
3479.519	1222.6
3482.418	1200.6
3485.315	1141.6
3488.209	1114.6
3491.101	1066.6
3493.99	1028.6
3496.878	1002.6
3499.763	941.6
3502.646	914.6
3505.527	863.6
3508.405	844.6
3511.281	797.6
3514.155	743.6
3517.027	699.6
3519.897	670.6
3522.764	618.6
3525.629	581.6
3528.492	543.6
3531.352	483.6
3534.211	454.6
3537.067	406.6
3539.921	381.6
3542.773	329.6
3545.622	291.6
3548.469	266.6
3551.315	243.6
3554.157	206.6
3556.998	181.6
3559.837	156.6
3562.673	119.6
3565.507	112.6
3568.339	80.6
3571.169	55.6
3573.996	37.6
3576.822	18.6
3579.645	-10.4
3582.466	-30.4
3585.285	-46.4
3588.101	-67.4
3590.916	-89.4
3593.728	-122.4
3596.538	-120.4
3599.346	-150.4
3602.152	-178.4
3604.956	-188.4
3607.757	-206.4
3610.556	-226.4
3613.354	-231.4
3616.149	-256.4
3618.942	-265.4
3621.732	-278.4
3624.521	-295.4
3627.307	-291.4
3630.092	-309.4
3632.874	-331.4
3635.654	-327.4
3638.432	-344.4
3641.208	-348.4
3643.982	-363.4
3646.753	-377.4
3649.523	-384.4
3652.29	-395.4
3655.055	-395.4
3657.818	-420.4
3660.579	-423.4
3663.338	-443.4
3666.095	-443.4
3668.849	-458.4
3671.602	-461.4
3674.352	-468.4
3677.101	-476.4
3679.847	-488.4
3682.591	-494.4
3685.333	-502.4
3688.073	-506.4
3690.811	-512.4
3693.547	-521.4
3696.281	-519.4
3699.013	-521.4
3701.742	-530.4
3704.47	-540.4
3707.195	-553.4
3709.919	-542.4
3712.64	-550.4
3715.359	-547.4
3718.076	-557.4
3720.792	-555.4
3723.505	-561.4
3726.216	-568.4
3728.925	-565.4
3731.632	-575.4
3734.336	-584.4
3737.039	-585.4
3739.74	-579.4
3742.439	-586.4
3745.136	-591.4
3747.83	-592.4
3750.523	-596.4
3753.213	-569.4
3755.902	-597.4
3758.589	-602.4
3761.273	-603.4
3763.956	-605.4
3766.636	-605.4
3769.315	-605.4
3771.991	-607.4
3774.665	-610.4
3777.338	-613.4
3780.008	-612.4
3782.677	-617.4
3785.343	-609.4
3788.007	-619.4
3790.67	-612.4
3793.33	-623.4
3795.989	-624.4
3798.645	-621.4
3801.299	-616.4
3803.952	-631.4
3806.602	-637.4
3809.251	-633.4
3811.897	-631.4
3814.542	-633.4
3817.184	-630.4
3819.825	-622.4
3822.463	-630.4
3825.1	-631.4
3827.735	-629.4
3830.367	-625.4
3832.998	-638.4
3835.627	-646.4
3838.253	-637.4
3840.878	-641.4
3843.501	-639.4
3846.122	-634.4
3848.741	-637.4
3851.358	-639.4
3853.973	-641.4
3856.586	-646.4
3859.197	-649.4
3861.806	-648.4
3864.414	-642.4
3867.019	-641.4
3869.622	-647.4
3872.224	-639.4
3874.823	-618.4
3877.421	-603.4
3880.016	-589.4
3882.61	-575.4
3885.202	-566.4
3887.792	-584.4
3890.38	-607.4
3892.966	-631.4
3895.55	-641.4
3898.132	-653.4
3900.713	-656.4
3903.291	-653.4
3905.868	-658.4
3908.442	-655.4
3911.015	-658.4
3913.586	-655.4
3916.155	-656.4
3918.722	-663.4
3921.287	-659.4
3923.85	-659.4
3926.411	-660.4
3928.971	-667.4
3931.528	-659.4
3934.084	-658.4
3936.638	-661.4
3939.19	-662.4
3941.74	-660.4
3944.288	-659.4
3946.834	-653.4
3949.378	-664.4
3951.921	-659.4
3954.462	-665.4
3957	-660.4
3959.537	-659.4
3962.072	-661.4
3964.606	-661.4
3967.137	-660.4
3969.667	-659.4
3972.194	-652.4
3974.72	-656.4
3977.244	-648.4
3979.766	-648.4
3982.286	-655.4
3984.805	-646.4
3987.321	-645.4
3989.836	-648.4
3992.349	-644.4
3994.86	-641.4
3997.369	-652.4
3999.877	-649.4
4002.382	-645.4
4004.886	-644.4
4007.388	-646.4
4009.888	-641.4
4012.386	-652.4
4014.883	-647.4
4017.377	-639.4
4019.87	-642.4
4022.361	-646.4
4024.85	-642.4
4027.338	-652.4
4029.823	-647.4
4032.307	-650.4
4034.789	-644.4
4037.269	-647.4
4039.747	-645.4
4042.224	-650.4
4044.699	-651.4
4047.172	-646.4
4049.643	-644.4
4052.112	-653.4
4054.58	-651.4
4057.046	-652.4
4059.51	-663.4
4061.972	-653.4
4064.432	-658.4
4066.891	-654.4
4069.348	-645.4
4071.803	-645.4
4074.256	-645.4
4076.708	-643.4
4079.158	-657.4
4081.606	-647.4
4084.052	-656.4
4086.497	-649.4
4088.939	-646.4
4091.38	-646.4
4093.819	-648.4
4096.257	-681.4
4098.693	-685.4
4101.127	-683.4
4103.559	-684.4
4105.989	-385.4
4108.418	-363.4
4110.845	-348.4
4113.27	-320.4
4115.694	-275.4
4118.115	-219.4
4120.535	-645.4
4122.954	-651.4
4125.37	-638.4
4127.785	-652.4
4130.198	-653.4
4132.609	-655.4
4135.019	-685.4
4137.427	-688.4
4139.833	-690.4
4142.237	-683.4
