Data from 2018-2-14_conc=4_n=8_RamanShift_02.txt Node
Date: Wed Feb 14 13:53:25 IST 2018
User: aro
Spectrometer: QEPB0276
Trigger mode: 0
Integration Time (sec): 3.000000E1
Scans to average: 1
Electric dark correction enabled: true
Nonlinearity correction enabled: false
Boxcar width: 0
XAxis mode: Raman Shifts
Number of Pixels in Spectrum: 1044
>>>>>Begin Spectral Data<<<<<
160.701	-135.6
166.742	43.4
172.777	559.4
178.805	2131.4
184.826	5899.4
190.841	12294.4
196.849	19773.4
202.85	25005.4
208.845	26802.4
214.833	26537.4
220.815	26105.4
226.789	26046.4
232.758	25990.4
238.719	25769.4
244.674	25462.4
250.623	25047.4
256.565	24609.4
262.5	24077.4
268.429	23759.4
274.351	23410.4
280.267	23123.4
286.176	22859.4
292.079	22627.4
297.975	22481.4
303.865	22310.4
309.748	22224.4
315.625	22085.4
321.495	21981.4
327.359	21938.4
333.217	21904.4
339.068	21848.4
344.912	21856.4
350.751	21771.4
356.583	21822.4
362.408	21650.4
368.227	21805.4
374.04	21822.4
379.847	21919.4
385.647	21897.4
391.44	22002.4
397.228	22128.4
403.009	22162.4
408.784	22202.4
414.553	22302.4
420.315	22450.4
426.071	22429.4
431.821	22443.4
437.565	22402.4
443.302	22337.4
449.033	22303.4
454.758	22199.4
460.477	22193.4
466.189	22058.4
471.896	22110.4
477.596	21969.4
483.29	21999.4
488.978	21944.4
494.66	21890.4
500.335	21704.4
506.005	21497.4
511.668	21191.4
517.325	20907.4
522.977	20765.4
528.622	20568.4
534.261	20407.4
539.894	20311.4
545.521	20233.4
551.141	20204.4
556.756	20078.4
562.365	19982.4
567.968	19892.4
573.565	19810.4
579.155	19762.4
584.74	19655.4
590.319	19645.4
595.892	19532.4
601.459	19446.4
607.02	19348.4
612.575	19224.4
618.124	19149.4
623.667	19020.4
629.204	18980.4
634.735	18813.4
640.261	18732.4
645.781	18700.4
651.294	18711.4
656.802	18636.4
662.304	18605.4
667.8	18566.4
673.29	18599.4
678.775	18506.4
684.254	18362.4
689.726	18322.4
695.193	18283.4
700.655	18209.4
706.11	18109.4
711.56	18014.4
717.004	17894.4
722.442	17843.4
727.874	17722.4
733.301	17730.4
738.722	17621.4
744.137	17628.4
749.547	17621.4
754.951	17635.4
760.349	17614.4
765.741	17629.4
771.128	17669.4
776.509	17661.4
781.885	17645.4
787.254	17572.4
792.618	17526.4
797.977	17456.4
803.33	17316.4
808.677	17225.4
814.019	17087.4
819.355	17013.4
824.686	16914.4
830.011	16935.4
835.33	16908.4
840.644	16882.4
845.952	16826.4
851.255	16983.4
856.552	16957.4
861.844	16901.4
867.13	16833.4
872.41	16819.4
877.686	16723.4
882.955	16592.4
888.219	16447.4
893.478	16303.4
898.731	16057.4
903.979	15896.4
909.221	15783.4
914.458	15754.4
919.69	15734.4
924.916	15746.4
930.136	15786.4
935.351	15812.4
940.561	15776.4
945.766	15798.4
950.965	15722.4
956.158	15582.4
961.347	15439.4
966.529	15211.4
971.707	15056.4
976.879	14833.4
982.046	14703.4
987.208	14685.4
992.364	14673.4
997.515	14763.4
1002.66	14877.4
1007.801	15033.4
1012.936	15145.4
1018.066	15210.4
1023.19	15219.4
1028.309	15132.4
1033.423	15163.4
1038.532	15045.4
1043.636	14924.4
1048.734	14721.4
1053.827	14573.4
1058.915	14372.4
1063.998	14245.4
1069.075	14199.4
1074.147	14263.4
1079.214	14274.4
1084.276	14383.4
1089.333	14443.4
1094.385	14506.4
1099.431	14547.4
1104.472	14574.4
1109.509	14440.4
1114.54	14325.4
1119.565	14101.4
1124.586	13957.4
1129.602	13752.4
1134.613	13683.4
1139.618	13590.4
1144.619	13547.4
1149.614	13585.4
1154.604	13586.4
1159.589	13629.4
1164.57	13640.4
1169.545	13672.4
1174.515	13658.4
1179.48	13599.4
1184.44	13459.4
1189.395	13391.4
1194.345	13311.4
1199.29	13246.4
1204.23	13264.4
1209.165	13284.4
1214.095	13330.4
1219.021	13442.4
1223.941	13468.4
1228.856	13480.4
1233.766	13589.4
1238.672	13601.4
1243.572	13601.4
1248.467	13492.4
1253.358	13310.4
1258.244	13144.4
1263.124	12884.4
1268	12724.4
1272.871	12559.4
1277.737	12527.4
1282.599	12396.4
1287.455	12401.4
1292.306	12420.4
1297.153	12474.4
1301.995	12481.4
1306.832	12548.4
1311.664	12568.4
1316.491	12531.4
1321.314	12397.4
1326.132	12200.4
1330.945	11952.4
1335.753	11651.4
1340.556	11366.4
1345.354	11165.4
1350.148	10983.4
1354.937	10888.4
1359.722	10874.4
1364.501	10919.4
1369.276	10963.4
1374.046	11074.4
1378.811	11214.4
1383.572	11355.4
1388.327	11334.4
1393.079	11362.4
1397.825	11249.4
1402.567	11062.4
1407.304	10926.4
1412.036	10838.4
1416.764	10771.4
1421.487	10717.4
1426.205	10652.4
1430.919	10600.4
1435.628	10577.4
1440.333	10632.4
1445.032	10616.4
1449.727	10670.4
1454.418	10648.4
1459.104	10523.4
1463.785	10308.4
1468.462	10141.4
1473.134	9933.4
1477.802	9703.4
1482.465	9496.4
1487.123	9388.4
1491.777	9394.4
1496.426	9377.4
1501.071	9509.4
1505.711	9599.4
1510.347	9771.4
1514.978	9909.4
1519.604	10050.4
1524.226	10128.4
1528.844	10136.4
1533.457	10179.4
1538.065	10089.4
1542.669	10050.4
1547.269	9993.4
1551.864	9905.4
1556.454	9868.4
1561.041	9857.4
1565.622	9876.4
1570.199	9867.4
1574.772	9954.4
1579.34	10005.4
1583.904	10039.4
1588.464	10055.4
1593.019	10086.4
1597.569	10022.4
1602.115	9958.4
1606.657	9921.4
1611.195	9839.4
1615.728	9775.4
1620.256	9721.4
1624.78	9670.4
1629.3	9752.4
1633.816	9740.4
1638.327	9776.4
1642.834	9793.4
1647.336	9852.4
1651.834	9834.4
1656.328	9811.4
1660.817	9798.4
1665.302	9662.4
1669.783	9451.4
1674.259	9285.4
1678.732	8983.4
1683.199	8684.4
1687.663	8419.4
1692.122	8159.4
1696.577	7991.4
1701.028	8008.4
1705.474	7986.4
1709.917	8055.4
1714.355	8121.4
1718.788	8025.4
1723.218	7953.4
1727.643	7805.4
1732.064	7694.4
1736.481	7552.4
1740.893	7327.4
1745.301	7141.4
1749.705	6988.4
1754.105	6756.4
1758.501	6604.4
1762.893	6354.4
1767.28	6264.4
1771.663	6072.4
1776.042	6015.4
1780.417	5972.4
1784.787	5918.4
1789.154	5994.4
1793.516	6043.4
1797.874	6198.4
1802.228	6260.4
1806.578	6330.4
1810.924	6317.4
1815.266	6241.4
1819.603	6224.4
1823.937	6086.4
1828.266	6029.4
1832.591	5947.4
1836.913	5840.4
1841.23	5806.4
1845.543	5750.4
1849.852	5711.4
1854.156	5679.4
1858.457	5701.4
1862.754	5676.4
1867.047	5681.4
1871.335	5662.4
1875.62	5642.4
1879.9	5671.4
1884.177	5590.4
1888.449	5544.4
1892.718	5483.4
1896.982	5383.4
1901.243	5390.4
1905.499	5333.4
1909.752	5279.4
1914	5275.4
1918.245	5316.4
1922.485	5342.4
1926.722	5379.4
1930.954	5449.4
1935.183	5528.4
1939.408	5553.4
1943.628	5615.4
1947.845	5599.4
1952.058	5552.4
1956.267	5499.4
1960.472	5484.4
1964.673	5382.4
1968.87	5265.4
1973.063	5224.4
1977.252	5148.4
1981.438	5074.4
1985.619	5033.4
1989.797	4985.4
1993.971	4961.4
1998.14	4940.4
2002.306	4918.4
2006.469	4905.4
2010.627	4886.4
2014.781	4842.4
2018.932	4789.4
2023.078	4752.4
2027.221	4661.4
2031.36	4599.4
2035.495	4543.4
2039.627	4462.4
2043.754	4405.4
2047.878	4365.4
2051.998	4314.4
2056.114	4349.4
2060.226	4329.4
2064.334	4307.4
2068.439	4338.4
2072.54	4367.4
2076.637	4391.4
2080.73	4405.4
2084.82	4427.4
2088.906	4406.4
2092.988	4446.4
2097.066	4425.4
2101.14	4408.4
2105.211	4355.4
2109.278	4343.4
2113.342	4295.4
2117.401	4284.4
2121.457	4240.4
2125.509	4255.4
2129.558	4230.4
2133.602	4158.4
2137.643	4164.4
2141.681	4164.4
2145.714	4121.4
2149.744	4084.4
2153.77	4048.4
2157.793	4003.4
2161.812	3964.4
2165.827	3915.4
2169.838	3855.4
2173.846	3775.4
2177.851	3720.4
2181.851	3687.4
2185.848	3614.4
2189.841	3601.4
2193.831	3564.4
2197.817	3513.4
2201.799	3510.4
2205.778	3484.4
2209.753	3496.4
2213.725	3462.4
2217.693	3455.4
2221.657	3441.4
2225.618	3431.4
2229.575	3404.4
2233.529	3398.4
2237.479	3354.4
2241.425	3319.4
2245.368	3276.4
2249.307	3232.4
2253.243	3160.4
2257.175	3109.4
2261.104	3093.4
2265.029	3043.4
2268.95	3022.4
2272.868	3000.4
2276.783	2975.4
2280.694	2940.4
2284.601	2917.4
2288.505	2866.4
2292.405	2838.4
2296.302	2797.4
2300.195	2762.4
2304.085	2751.4
2307.971	2708.4
2311.854	2647.4
2315.734	2623.4
2319.609	2585.4
2323.482	2557.4
2327.351	2529.4
2331.216	2515.4
2335.078	2508.4
2338.937	2476.4
2342.792	2476.4
2346.643	2473.4
2350.492	2468.4
2354.336	2462.4
2358.178	2483.4
2362.015	2492.4
2365.85	2496.4
2369.681	2470.4
2373.508	2518.4
2377.333	2498.4
2381.153	2492.4
2384.971	2466.4
2388.785	2445.4
2392.595	2412.4
2396.402	2391.4
2400.206	2404.4
2404.007	2368.4
2407.804	2364.4
2411.597	2347.4
2415.388	2320.4
2419.174	2308.4
2422.958	2282.4
2426.738	2233.4
2430.515	2250.4
2434.289	2219.4
2438.059	2211.4
2441.825	2187.4
2445.589	2174.4
2449.349	2161.4
2453.106	2114.4
2456.859	2103.4
2460.61	2052.4
2464.356	2047.4
2468.1	2024.4
2471.84	1991.4
2475.577	1967.4
2479.311	1953.4
2483.041	1967.4
2486.768	1948.4
2490.492	1935.4
2494.213	1943.4
2497.93	1929.4
2501.644	1916.4
2505.355	1895.4
2509.062	1894.4
2512.766	1863.4
2516.467	1852.4
2520.165	1849.4
2523.859	1814.4
2527.551	1829.4
2531.239	1792.4
2534.923	1805.4
2538.605	1783.4
2542.283	1782.4
2545.958	1769.4
2549.63	1769.4
2553.299	1781.4
2556.964	1753.4
2560.626	1761.4
2564.285	1774.4
2567.941	1742.4
2571.594	1743.4
2575.243	1713.4
2578.89	1701.4
2582.533	1691.4
2586.173	1670.4
2589.809	1656.4
2593.443	1671.4
2597.073	1627.4
2600.701	1624.4
2604.325	1604.4
2607.946	1597.4
2611.564	1574.4
2615.178	1582.4
2618.79	1578.4
2622.398	1533.4
2626.004	1527.4
2629.606	1500.4
2633.205	1485.4
2636.801	1451.4
2640.394	1466.4
2643.983	1423.4
2647.57	1402.4
2651.153	1397.4
2654.734	1355.4
2658.311	1336.4
2661.885	1309.4
2665.456	1294.4
2669.025	1278.4
2672.589	1266.4
2676.151	1248.4
2679.71	1242.4
2683.266	1222.4
2686.819	1202.4
2690.368	1158.4
2693.915	1165.4
2697.458	1112.4
2700.999	1080.4
2704.536	1066.4
2708.071	1036.4
2711.602	1028.4
2715.13	977.4
2718.656	967.4
2722.178	971.4
2725.697	935.4
2729.214	933.4
2732.727	916.4
2736.237	908.4
2739.744	901.4
2743.249	916.4
2746.75	930.4
2750.248	930.4
2753.743	930.4
2757.236	967.4
2760.725	952.4
2764.211	955.4
2767.695	959.4
2771.175	941.4
2774.652	948.4
2778.127	945.4
2781.598	932.4
2785.067	932.4
2788.532	928.4
2791.995	909.4
2795.455	912.4
2798.911	915.4
2802.365	920.4
2805.816	939.4
2809.264	931.4
2812.709	907.4
2816.151	930.4
2819.59	949.4
2823.026	921.4
2826.46	931.4
2829.89	924.4
2833.318	931.4
2836.742	934.4
2840.164	944.4
2843.583	947.4
2846.999	974.4
2850.412	962.4
2853.822	992.4
2857.229	1003.4
2860.634	1014.4
2864.035	1016.4
2867.434	1044.4
2870.83	1074.4
2874.223	1067.4
2877.613	1094.4
2881	1109.4
2884.385	1111.4
2887.766	1119.4
2891.145	1110.4
2894.521	1095.4
2897.894	1106.4
2901.264	1133.4
2904.631	1114.4
2907.996	1107.4
2911.358	1120.4
2914.717	1111.4
2918.073	1135.4
2921.426	1138.4
2924.777	1146.4
2928.124	1165.4
2931.469	1183.4
2934.811	1213.4
2938.15	1228.4
2941.487	1239.4
2944.821	1242.4
2948.152	1236.4
2951.48	1241.4
2954.805	1217.4
2958.128	1200.4
2961.447	1179.4
2964.765	1187.4
2968.079	1186.4
2971.39	1192.4
2974.699	1208.4
2978.005	1228.4
2981.308	1248.4
2984.609	1262.4
2987.907	1281.4
2991.202	1301.4
2994.494	1341.4
2997.784	1359.4
3001.07	1397.4
3004.355	1399.4
3007.636	1428.4
3010.915	1469.4
3014.191	1474.4
3017.464	1467.4
3020.734	1501.4
3024.002	1484.4
3027.267	1514.4
3030.53	1518.4
3033.789	1554.4
3037.046	1554.4
3040.301	1590.4
3043.552	1630.4
3046.801	1655.4
3050.048	1694.4
3053.291	1724.4
3056.532	1782.4
3059.771	1821.4
3063.006	1888.4
3066.239	1939.4
3069.469	2014.4
3072.697	2033.4
3075.922	2079.4
3079.144	2135.4
3082.364	2202.4
3085.581	2253.4
3088.795	2287.4
3092.007	2344.4
3095.216	2388.4
3098.423	2445.4
3101.627	2471.4
3104.828	2531.4
3108.026	2626.4
3111.222	2660.4
3114.416	2722.4
3117.607	2797.4
3120.795	2828.4
3123.98	2907.4
3127.163	2992.4
3130.344	3064.4
3133.521	3132.4
3136.696	3186.4
3139.869	3244.4
3143.039	3311.4
3146.206	3348.4
3149.371	3414.4
3152.533	3441.4
3155.693	3484.4
3158.85	3486.4
3162.005	3515.4
3165.157	3516.4
3168.306	3531.4
3171.453	3552.4
3174.597	3534.4
3177.739	3554.4
3180.878	3532.4
3184.014	3558.4
3187.149	3557.4
3190.28	3559.4
3193.409	3545.4
3196.536	3579.4
3199.659	3555.4
3202.781	3562.4
3205.9	3555.4
3209.016	3567.4
3212.13	3555.4
3215.241	3513.4
3218.35	3483.4
3221.456	3449.4
3224.56	3418.4
3227.661	3356.4
3230.76	3341.4
3233.856	3297.4
3236.95	3242.4
3240.041	3212.4
3243.13	3192.4
3246.216	3180.4
3249.3	3154.4
3252.382	3132.4
3255.46	3143.4
3258.537	3099.4
3261.611	3125.4
3264.682	3121.4
3267.751	3099.4
3270.818	3113.4
3273.882	3110.4
3276.943	3113.4
3280.002	3067.4
3283.059	3033.4
3286.113	2993.4
3289.165	2956.4
3292.214	2905.4
3295.261	2888.4
3298.306	2833.4
3301.348	2799.4
3304.387	2738.4
3307.425	2693.4
3310.459	2653.4
3313.492	2630.4
3316.521	2601.4
3319.549	2571.4
3322.574	2541.4
3325.597	2515.4
3328.617	2498.4
3331.635	2494.4
3334.65	2469.4
3337.663	2458.4
3340.674	2415.4
3343.682	2431.4
3346.688	2428.4
3349.691	2392.4
3352.692	2411.4
3355.691	2389.4
3358.687	2375.4
3361.681	2343.4
3364.673	2296.4
3367.662	2296.4
3370.649	2243.4
3373.633	2225.4
3376.615	2162.4
3379.595	2124.4
3382.572	2110.4
3385.547	2102.4
3388.52	2060.4
3391.49	2033.4
3394.458	1986.4
3397.424	1968.4
3400.387	1927.4
3403.348	1911.4
3406.307	1891.4
3409.263	1843.4
3412.217	1835.4
3415.168	1823.4
3418.118	1790.4
3421.065	1757.4
3424.009	1751.4
3426.951	1721.4
3429.891	1670.4
3432.829	1635.4
3435.764	1613.4
3438.697	1586.4
3441.628	1560.4
3444.557	1632.4
3447.483	1618.4
3450.407	1487.4
3453.328	1340.4
3456.247	1287.4
3459.164	1237.4
3462.079	1182.4
3464.991	1140.4
3467.902	1098.4
3470.809	1052.4
3473.715	1005.4
3476.618	983.4
3479.519	932.4
3482.418	902.4
3485.315	865.4
3488.209	825.4
3491.101	798.4
3493.99	765.4
3496.878	723.4
3499.763	698.4
3502.646	676.4
3505.527	634.4
3508.405	624.4
3511.281	572.4
3514.155	518.4
3517.027	498.4
3519.897	455.4
3522.764	413.4
3525.629	392.4
3528.492	358.4
3531.352	322.4
3534.211	281.4
3537.067	256.4
3539.921	215.4
3542.773	179.4
3545.622	165.4
3548.469	141.4
3551.315	120.4
3554.157	98.4
3556.998	57.4
3559.837	41.4
3562.673	22.4
3565.507	-8.6
3568.339	-18.6
3571.169	-30.6
3573.996	-53.6
3576.822	-78.6
3579.645	-90.6
3582.466	-120.6
3585.285	-134.6
3588.101	-142.6
3590.916	-163.6
3593.728	-187.6
3596.538	-201.6
3599.346	-212.6
3602.152	-223.6
3604.956	-237.6
3607.757	-259.6
3610.556	-264.6
3613.354	-270.6
3616.149	-285.6
3618.942	-298.6
3621.732	-315.6
3624.521	-320.6
3627.307	-332.6
3630.092	-342.6
3632.874	-337.6
3635.654	-357.6
3638.432	-362.6
3641.208	-370.6
3643.982	-378.6
3646.753	-380.6
3649.523	-397.6
3652.29	-400.6
3655.055	-398.6
3657.818	-420.6
3660.579	-429.6
3663.338	-444.6
3666.095	-445.6
3668.849	-465.6
3671.602	-470.6
3674.352	-466.6
3677.101	-475.6
3679.847	-486.6
3682.591	-490.6
3685.333	-489.6
3688.073	-492.6
3690.811	-497.6
3693.547	-501.6
3696.281	-510.6
3699.013	-512.6
3701.742	-518.6
3704.47	-521.6
3707.195	-523.6
3709.919	-526.6
3712.64	-528.6
3715.359	-534.6
3718.076	-534.6
3720.792	-542.6
3723.505	-544.6
3726.216	-551.6
3728.925	-545.6
3731.632	-560.6
3734.336	-559.6
3737.039	-562.6
3739.74	-560.6
3742.439	-567.6
3745.136	-568.6
3747.83	-570.6
3750.523	-572.6
3753.213	-572.6
3755.902	-573.6
3758.589	-572.6
3761.273	-578.6
3763.956	-580.6
3766.636	-577.6
3769.315	-581.6
3771.991	-582.6
3774.665	-586.6
3777.338	-581.6
3780.008	-583.6
3782.677	-591.6
3785.343	-585.6
3788.007	-587.6
3790.67	-590.6
3793.33	-593.6
3795.989	-592.6
3798.645	-590.6
3801.299	-593.6
3803.952	-605.6
3806.602	-607.6
3809.251	-604.6
3811.897	-603.6
3814.542	-604.6
3817.184	-605.6
3819.825	-597.6
3822.463	-599.6
3825.1	-603.6
3827.735	-594.6
3830.367	-601.6
3832.998	-607.6
3835.627	-611.6
3838.253	-606.6
3840.878	-612.6
3843.501	-606.6
3846.122	-603.6
3848.741	-604.6
3851.358	-609.6
3853.973	-610.6
3856.586	-611.6
3859.197	-613.6
3861.806	-617.6
3864.414	-612.6
3867.019	-614.6
3869.622	-611.6
3872.224	-612.6
3874.823	-593.6
3877.421	-589.6
3880.016	-568.6
3882.61	-548.6
3885.202	-550.6
3887.792	-560.6
3890.38	-589.6
3892.966	-602.6
3895.55	-614.6
3898.132	-625.6
3900.713	-624.6
3903.291	-620.6
3905.868	-626.6
3908.442	-623.6
3911.015	-625.6
3913.586	-615.6
3916.155	-621.6
3918.722	-625.6
3921.287	-621.6
3923.85	-626.6
3926.411	-628.6
3928.971	-637.6
3931.528	-626.6
3934.084	-628.6
3936.638	-623.6
3939.19	-632.6
3941.74	-629.6
3944.288	-634.6
3946.834	-623.6
3949.378	-624.6
3951.921	-624.6
3954.462	-633.6
3957	-620.6
3959.537	-623.6
3962.072	-626.6
3964.606	-626.6
3967.137	-619.6
3969.667	-624.6
3972.194	-621.6
3974.72	-627.6
3977.244	-614.6
3979.766	-610.6
3982.286	-616.6
3984.805	-617.6
3987.321	-615.6
3989.836	-613.6
3992.349	-607.6
3994.86	-608.6
3997.369	-622.6
3999.877	-608.6
4002.382	-610.6
4004.886	-608.6
4007.388	-610.6
4009.888	-611.6
4012.386	-615.6
4014.883	-611.6
4017.377	-610.6
4019.87	-605.6
4022.361	-605.6
4024.85	-613.6
4027.338	-615.6
4029.823	-614.6
4032.307	-614.6
4034.789	-613.6
4037.269	-609.6
4039.747	-610.6
4042.224	-616.6
4044.699	-614.6
4047.172	-614.6
4049.643	-614.6
4052.112	-618.6
4054.58	-620.6
4057.046	-621.6
4059.51	-618.6
4061.972	-615.6
4064.432	-622.6
4066.891	-616.6
4069.348	-616.6
4071.803	-609.6
4074.256	-611.6
4076.708	-614.6
4079.158	-610.6
4081.606	-615.6
4084.052	-613.6
4086.497	-614.6
4088.939	-604.6
4091.38	-613.6
4093.819	-608.6
4096.257	-649.6
4098.693	-646.6
4101.127	-650.6
4103.559	-644.6
4105.989	-374.6
4108.418	-355.6
4110.845	-330.6
4113.27	-300.6
4115.694	-261.6
4118.115	-217.6
4120.535	-614.6
4122.954	-614.6
4125.37	-608.6
4127.785	-618.6
4130.198	-617.6
4132.609	-619.6
4135.019	-650.6
4137.427	-649.6
4139.833	-652.6
4142.237	-645.6
