Data from 2018-2-14_conc=2_n=2_RamanShift_04.txt Node
Date: Wed Feb 14 11:04:26 IST 2018
User: aro
Spectrometer: QEPB0276
Trigger mode: 0
Integration Time (sec): 3.000000E1
Scans to average: 1
Electric dark correction enabled: true
Nonlinearity correction enabled: false
Boxcar width: 0
XAxis mode: Raman Shifts
Number of Pixels in Spectrum: 1044
>>>>>Begin Spectral Data<<<<<
160.701	-138.4
166.742	56.6
172.777	593.6
178.805	2252.6
184.826	6259.6
190.841	13141.6
196.849	21112.6
202.85	26762.6
208.845	28743.6
214.833	28456.6
220.815	27900.6
226.789	27701.6
232.758	27576.6
238.719	27423.6
244.674	27021.6
250.623	26555.6
256.565	26028.6
262.5	25463.6
268.429	24998.6
274.351	24597.6
280.267	24267.6
286.176	23921.6
292.079	23706.6
297.975	23524.6
303.865	23208.6
309.748	23111.6
315.625	22969.6
321.495	22863.6
327.359	22774.6
333.217	22711.6
339.068	22686.6
344.912	22722.6
350.751	22609.6
356.583	22550.6
362.408	22509.6
368.227	22598.6
374.04	22642.6
379.847	22683.6
385.647	22756.6
391.44	22867.6
397.228	22890.6
403.009	22973.6
408.784	23105.6
414.553	23153.6
420.315	23207.6
426.071	23193.6
431.821	23196.6
437.565	23203.6
443.302	23186.6
449.033	23114.6
454.758	23071.6
460.477	22990.6
466.189	22957.6
471.896	22799.6
477.596	22808.6
483.29	22729.6
488.978	22756.6
494.66	22617.6
500.335	22523.6
506.005	22287.6
511.668	22020.6
517.325	21722.6
522.977	21535.6
528.622	21365.6
534.261	21166.6
539.894	21101.6
545.521	21029.6
551.141	20970.6
556.756	20948.6
562.365	20789.6
567.968	20677.6
573.565	20644.6
579.155	20565.6
584.74	20404.6
590.319	20373.6
595.892	20320.6
601.459	20245.6
607.02	20140.6
612.575	20014.6
618.124	19879.6
623.667	19754.6
629.204	19683.6
634.735	19517.6
640.261	19451.6
645.781	19483.6
651.294	19426.6
656.802	19406.6
662.304	19354.6
667.8	19298.6
673.29	19262.6
678.775	19250.6
684.254	19182.6
689.726	19085.6
695.193	19030.6
700.655	18940.6
706.11	18885.6
711.56	18762.6
717.004	18626.6
722.442	18554.6
727.874	18495.6
733.301	18481.6
738.722	18376.6
744.137	18343.6
749.547	18397.6
754.951	18318.6
760.349	18331.6
765.741	18377.6
771.128	18305.6
776.509	18355.6
781.885	18369.6
787.254	18296.6
792.618	18205.6
797.977	18096.6
803.33	18025.6
808.677	17913.6
814.019	17755.6
819.355	17734.6
824.686	17602.6
830.011	17544.6
835.33	17570.6
840.644	17571.6
845.952	17672.6
851.255	17664.6
856.552	17678.6
861.844	17624.6
867.13	17544.6
872.41	17511.6
877.686	17406.6
882.955	17299.6
888.219	17094.6
893.478	16956.6
898.731	16789.6
903.979	16523.6
909.221	16414.6
914.458	16419.6
919.69	16391.6
924.916	16391.6
930.136	16496.6
935.351	16495.6
940.561	16427.6
945.766	16410.6
950.965	16380.6
956.158	16297.6
961.347	16072.6
966.529	15880.6
971.707	15657.6
976.879	15486.6
982.046	15330.6
987.208	15318.6
992.364	15364.6
997.515	15404.6
1002.66	15526.6
1007.801	15699.6
1012.936	15730.6
1018.066	15750.6
1023.19	15815.6
1028.309	15822.6
1033.423	15725.6
1038.532	15704.6
1043.636	15565.6
1048.734	15361.6
1053.827	15157.6
1058.915	14989.6
1063.998	14878.6
1069.075	14829.6
1074.147	14878.6
1079.214	14887.6
1084.276	14980.6
1089.333	15116.6
1094.385	15144.6
1099.431	15195.6
1104.472	15215.6
1109.509	15129.6
1114.54	14961.6
1119.565	14760.6
1124.586	14552.6
1129.602	14405.6
1134.613	14301.6
1139.618	14204.6
1144.619	14214.6
1149.614	14215.6
1154.604	14247.6
1159.589	14249.6
1164.57	14306.6
1169.545	14294.6
1174.515	14289.6
1179.48	14253.6
1184.44	14146.6
1189.395	14009.6
1194.345	13916.6
1199.29	13838.6
1204.23	13868.6
1209.165	13884.6
1214.095	13962.6
1219.021	14044.6
1223.941	14074.6
1228.856	14199.6
1233.766	14234.6
1238.672	14220.6
1243.572	14233.6
1248.467	14151.6
1253.358	13965.6
1258.244	13740.6
1263.124	13601.6
1268	13393.6
1272.871	13218.6
1277.737	13123.6
1282.599	13021.6
1287.455	13043.6
1292.306	13053.6
1297.153	13068.6
1301.995	13215.6
1306.832	13195.6
1311.664	13236.6
1316.491	13185.6
1321.314	13096.6
1326.132	12865.6
1330.945	12602.6
1335.753	12313.6
1340.556	12008.6
1345.354	11749.6
1350.148	11595.6
1354.937	11489.6
1359.722	11524.6
1364.501	11582.6
1369.276	11733.6
1374.046	11852.6
1378.811	12002.6
1383.572	12124.6
1388.327	12174.6
1393.079	12129.6
1397.825	11973.6
1402.567	11813.6
1407.304	11597.6
1412.036	11476.6
1416.764	11412.6
1421.487	11356.6
1426.205	11277.6
1430.919	11270.6
1435.628	11238.6
1440.333	11261.6
1445.032	11276.6
1449.727	11331.6
1454.418	11271.6
1459.104	11178.6
1463.785	10965.6
1468.462	10782.6
1473.134	10547.6
1477.802	10347.6
1482.465	10164.6
1487.123	10028.6
1491.777	10064.6
1496.426	10086.6
1501.071	10194.6
1505.711	10396.6
1510.347	10580.6
1514.978	10746.6
1519.604	10865.6
1524.226	10987.6
1528.844	11029.6
1533.457	10974.6
1538.065	10875.6
1542.669	10851.6
1547.269	10782.6
1551.864	10684.6
1556.454	10668.6
1561.041	10644.6
1565.622	10656.6
1570.199	10634.6
1574.772	10726.6
1579.34	10788.6
1583.904	10801.6
1588.464	10867.6
1593.019	10850.6
1597.569	10810.6
1602.115	10774.6
1606.657	10663.6
1611.195	10662.6
1615.728	10568.6
1620.256	10493.6
1624.78	10495.6
1629.3	10499.6
1633.816	10545.6
1638.327	10617.6
1642.834	10657.6
1647.336	10667.6
1651.834	10691.6
1656.328	10714.6
1660.817	10655.6
1665.302	10585.6
1669.783	10370.6
1674.259	10187.6
1678.732	9872.6
1683.199	9547.6
1687.663	9208.6
1692.122	8962.6
1696.577	8821.6
1701.028	8763.6
1705.474	8896.6
1709.917	8938.6
1714.355	8992.6
1718.788	8887.6
1723.218	8746.6
1727.643	8629.6
1732.064	8428.6
1736.481	8278.6
1740.893	8031.6
1745.301	7831.6
1749.705	7623.6
1754.105	7433.6
1758.501	7197.6
1762.893	6986.6
1767.28	6826.6
1771.663	6640.6
1776.042	6550.6
1780.417	6487.6
1784.787	6520.6
1789.154	6593.6
1793.516	6690.6
1797.874	6847.6
1802.228	6970.6
1806.578	7036.6
1810.924	7014.6
1815.266	6980.6
1819.603	6829.6
1823.937	6742.6
1828.266	6630.6
1832.591	6515.6
1836.913	6432.6
1841.23	6352.6
1845.543	6331.6
1849.852	6246.6
1854.156	6264.6
1858.457	6252.6
1862.754	6237.6
1867.047	6251.6
1871.335	6245.6
1875.62	6210.6
1879.9	6200.6
1884.177	6163.6
1888.449	6060.6
1892.718	6031.6
1896.982	5985.6
1901.243	5946.6
1905.499	5882.6
1909.752	5866.6
1914	5865.6
1918.245	5930.6
1922.485	5973.6
1926.722	6035.6
1930.954	6117.6
1935.183	6165.6
1939.408	6247.6
1943.628	6229.6
1947.845	6259.6
1952.058	6213.6
1956.267	6187.6
1960.472	6090.6
1964.673	6024.6
1968.87	5921.6
1973.063	5827.6
1977.252	5760.6
1981.438	5667.6
1985.619	5632.6
1989.797	5521.6
1993.971	5515.6
1998.14	5501.6
2002.306	5481.6
2006.469	5469.6
2010.627	5406.6
2014.781	5384.6
2018.932	5365.6
2023.078	5273.6
2027.221	5213.6
2031.36	5160.6
2035.495	5056.6
2039.627	5006.6
2043.754	4951.6
2047.878	4882.6
2051.998	4859.6
2056.114	4849.6
2060.226	4849.6
2064.334	4851.6
2068.439	4865.6
2072.54	4880.6
2076.637	4929.6
2080.73	4949.6
2084.82	4990.6
2088.906	5012.6
2092.988	5035.6
2097.066	5006.6
2101.14	4990.6
2105.211	4935.6
2109.278	4892.6
2113.342	4874.6
2117.401	4847.6
2121.457	4801.6
2125.509	4776.6
2129.558	4749.6
2133.602	4734.6
2137.643	4684.6
2141.681	4663.6
2145.714	4631.6
2149.744	4608.6
2153.77	4590.6
2157.793	4539.6
2161.812	4462.6
2165.827	4399.6
2169.838	4343.6
2173.846	4274.6
2177.851	4207.6
2181.851	4122.6
2185.848	4075.6
2189.841	4029.6
2193.831	3986.6
2197.817	3942.6
2201.799	3927.6
2205.778	3938.6
2209.753	3893.6
2213.725	3880.6
2217.693	3877.6
2221.657	3867.6
2225.618	3870.6
2229.575	3846.6
2233.529	3810.6
2237.479	3780.6
2241.425	3738.6
2245.368	3693.6
2249.307	3616.6
2253.243	3559.6
2257.175	3524.6
2261.104	3434.6
2265.029	3416.6
2268.95	3383.6
2272.868	3337.6
2276.783	3341.6
2280.694	3289.6
2284.601	3264.6
2288.505	3221.6
2292.405	3177.6
2296.302	3175.6
2300.195	3113.6
2304.085	3101.6
2307.971	3065.6
2311.854	3015.6
2315.734	2964.6
2319.609	2906.6
2323.482	2855.6
2327.351	2857.6
2331.216	2824.6
2335.078	2803.6
2338.937	2774.6
2342.792	2759.6
2346.643	2750.6
2350.492	2783.6
2354.336	2764.6
2358.178	2743.6
2362.015	2772.6
2365.85	2761.6
2369.681	2764.6
2373.508	2779.6
2377.333	2780.6
2381.153	2732.6
2384.971	2744.6
2388.785	2701.6
2392.595	2670.6
2396.402	2666.6
2400.206	2618.6
2404.007	2610.6
2407.804	2619.6
2411.597	2591.6
2415.388	2556.6
2419.174	2572.6
2422.958	2504.6
2426.738	2501.6
2430.515	2492.6
2434.289	2472.6
2438.059	2466.6
2441.825	2434.6
2445.589	2399.6
2449.349	2370.6
2453.106	2339.6
2456.859	2338.6
2460.61	2307.6
2464.356	2265.6
2468.1	2240.6
2471.84	2209.6
2475.577	2211.6
2479.311	2193.6
2483.041	2167.6
2486.768	2158.6
2490.492	2158.6
2494.213	2158.6
2497.93	2143.6
2501.644	2139.6
2505.355	2125.6
2509.062	2098.6
2512.766	2100.6
2516.467	2105.6
2520.165	2086.6
2523.859	2060.6
2527.551	2061.6
2531.239	2044.6
2534.923	2045.6
2538.605	2011.6
2542.283	2044.6
2545.958	2012.6
2549.63	2019.6
2553.299	2011.6
2556.964	1995.6
2560.626	2028.6
2564.285	2001.6
2567.941	1969.6
2571.594	1972.6
2575.243	1958.6
2578.89	1933.6
2582.533	1944.6
2586.173	1916.6
2589.809	1910.6
2593.443	1881.6
2597.073	1866.6
2600.701	1837.6
2604.325	1814.6
2607.946	1811.6
2611.564	1789.6
2615.178	1799.6
2618.79	1769.6
2622.398	1755.6
2626.004	1749.6
2629.606	1727.6
2633.205	1688.6
2636.801	1678.6
2640.394	1659.6
2643.983	1595.6
2647.57	1594.6
2651.153	1588.6
2654.734	1547.6
2658.311	1536.6
2661.885	1481.6
2665.456	1491.6
2669.025	1469.6
2672.589	1436.6
2676.151	1447.6
2679.71	1405.6
2683.266	1384.6
2686.819	1375.6
2690.368	1352.6
2693.915	1330.6
2697.458	1285.6
2700.999	1265.6
2704.536	1210.6
2708.071	1212.6
2711.602	1197.6
2715.13	1146.6
2718.656	1121.6
2722.178	1102.6
2725.697	1092.6
2729.214	1078.6
2732.727	1079.6
2736.237	1076.6
2739.744	1056.6
2743.249	1065.6
2746.75	1096.6
2750.248	1109.6
2753.743	1120.6
2757.236	1131.6
2760.725	1134.6
2764.211	1138.6
2767.695	1123.6
2771.175	1136.6
2774.652	1115.6
2778.127	1110.6
2781.598	1129.6
2785.067	1101.6
2788.532	1106.6
2791.995	1124.6
2795.455	1106.6
2798.911	1112.6
2802.365	1101.6
2805.816	1122.6
2809.264	1105.6
2812.709	1098.6
2816.151	1109.6
2819.59	1116.6
2823.026	1089.6
2826.46	1102.6
2829.89	1112.6
2833.318	1118.6
2836.742	1126.6
2840.164	1119.6
2843.583	1118.6
2846.999	1135.6
2850.412	1147.6
2853.822	1176.6
2857.229	1179.6
2860.634	1205.6
2864.035	1215.6
2867.434	1236.6
2870.83	1262.6
2874.223	1281.6
2877.613	1306.6
2881	1322.6
2884.385	1327.6
2887.766	1357.6
2891.145	1323.6
2894.521	1308.6
2897.894	1327.6
2901.264	1311.6
2904.631	1335.6
2907.996	1328.6
2911.358	1327.6
2914.717	1347.6
2918.073	1366.6
2921.426	1365.6
2924.777	1387.6
2928.124	1398.6
2931.469	1425.6
2934.811	1448.6
2938.15	1479.6
2941.487	1472.6
2944.821	1485.6
2948.152	1473.6
2951.48	1479.6
2954.805	1450.6
2958.128	1457.6
2961.447	1451.6
2964.765	1454.6
2968.079	1445.6
2971.39	1449.6
2974.699	1471.6
2978.005	1483.6
2981.308	1508.6
2984.609	1560.6
2987.907	1577.6
2991.202	1597.6
2994.494	1646.6
2997.784	1665.6
3001.07	1726.6
3004.355	1719.6
3007.636	1784.6
3010.915	1762.6
3014.191	1792.6
3017.464	1791.6
3020.734	1810.6
3024.002	1819.6
3027.267	1840.6
3030.53	1845.6
3033.789	1878.6
3037.046	1889.6
3040.301	1927.6
3043.552	1955.6
3046.801	1992.6
3050.048	2034.6
3053.291	2125.6
3056.532	2152.6
3059.771	2200.6
3063.006	2268.6
3066.239	2331.6
3069.469	2426.6
3072.697	2481.6
3075.922	2519.6
3079.144	2608.6
3082.364	2648.6
3085.581	2714.6
3088.795	2783.6
3092.007	2820.6
3095.216	2876.6
3098.423	2963.6
3101.627	3033.6
3104.828	3088.6
3108.026	3158.6
3111.222	3211.6
3114.416	3317.6
3117.607	3363.6
3120.795	3427.6
3123.98	3533.6
3127.163	3593.6
3130.344	3706.6
3133.521	3801.6
3136.696	3863.6
3139.869	3959.6
3143.039	4015.6
3146.206	4065.6
3149.371	4120.6
3152.533	4162.6
3155.693	4209.6
3158.85	4201.6
3162.005	4235.6
3165.157	4248.6
3168.306	4238.6
3171.453	4273.6
3174.597	4285.6
3177.739	4284.6
3180.878	4268.6
3184.014	4276.6
3187.149	4302.6
3190.28	4311.6
3193.409	4315.6
3196.536	4310.6
3199.659	4310.6
3202.781	4333.6
3205.9	4328.6
3209.016	4309.6
3212.13	4304.6
3215.241	4275.6
3218.35	4234.6
3221.456	4150.6
3224.56	4129.6
3227.661	4101.6
3230.76	4050.6
3233.856	4016.6
3236.95	3970.6
3240.041	3935.6
3243.13	3901.6
3246.216	3874.6
3249.3	3873.6
3252.382	3861.6
3255.46	3842.6
3258.537	3836.6
3261.611	3847.6
3264.682	3849.6
3267.751	3833.6
3270.818	3836.6
3273.882	3799.6
3276.943	3791.6
3280.002	3756.6
3283.059	3732.6
3286.113	3693.6
3289.165	3638.6
3292.214	3586.6
3295.261	3509.6
3298.306	3483.6
3301.348	3420.6
3304.387	3359.6
3307.425	3329.6
3310.459	3232.6
3313.492	3218.6
3316.521	3173.6
3319.549	3122.6
3322.574	3102.6
3325.597	3081.6
3328.617	3060.6
3331.635	3031.6
3334.65	3006.6
3337.663	2989.6
3340.674	2980.6
3343.682	2975.6
3346.688	2945.6
3349.691	2938.6
3352.692	2912.6
3355.691	2897.6
3358.687	2900.6
3361.681	2870.6
3364.673	2811.6
3367.662	2784.6
3370.649	2742.6
3373.633	2710.6
3376.615	2655.6
3379.595	2587.6
3382.572	2579.6
3385.547	2533.6
3388.52	2484.6
3391.49	2497.6
3394.458	2449.6
3397.424	2381.6
3400.387	2356.6
3403.348	2338.6
3406.307	2311.6
3409.263	2287.6
3412.217	2258.6
3415.168	2241.6
3418.118	2209.6
3421.065	2159.6
3424.009	2151.6
3426.951	2102.6
3429.891	2074.6
3432.829	2031.6
3435.764	1984.6
3438.697	1937.6
3441.628	1874.6
3444.557	1836.6
3447.483	1772.6
3450.407	1728.6
3453.328	1668.6
3456.247	1594.6
3459.164	1555.6
3462.079	1471.6
3464.991	1447.6
3467.902	1404.6
3470.809	1344.6
3473.715	1295.6
3476.618	1261.6
3479.519	1206.6
3482.418	1163.6
3485.315	1123.6
3488.209	1095.6
3491.101	1038.6
3493.99	1009.6
3496.878	987.6
3499.763	920.6
3502.646	907.6
3505.527	861.6
3508.405	812.6
3511.281	767.6
3514.155	727.6
3517.027	718.6
3519.897	657.6
3522.764	596.6
3525.629	552.6
3528.492	508.6
3531.352	485.6
3534.211	439.6
3537.067	403.6
3539.921	356.6
3542.773	310.6
3545.622	295.6
3548.469	252.6
3551.315	241.6
3554.157	183.6
3556.998	164.6
3559.837	145.6
3562.673	100.6
3565.507	93.6
3568.339	69.6
3571.169	40.6
3573.996	22.6
3576.822	11.6
3579.645	-10.4
3582.466	-35.4
3585.285	-62.4
3588.101	-84.4
3590.916	-109.4
3593.728	-131.4
3596.538	-146.4
3599.346	-166.4
3602.152	-179.4
3604.956	-196.4
3607.757	-219.4
3610.556	-232.4
3613.354	-253.4
3616.149	-266.4
3618.942	-269.4
3621.732	-293.4
3624.521	-305.4
3627.307	-299.4
3630.092	-321.4
3632.874	-335.4
3635.654	-342.4
3638.432	-345.4
3641.208	-362.4
3643.982	-378.4
3646.753	-385.4
3649.523	-385.4
3652.29	-398.4
3655.055	-400.4
3657.818	-423.4
3660.579	-432.4
3663.338	-445.4
3666.095	-444.4
3668.849	-462.4
3671.602	-459.4
3674.352	-479.4
3677.101	-476.4
3679.847	-485.4
3682.591	-499.4
3685.333	-503.4
3688.073	-512.4
3690.811	-518.4
3693.547	-522.4
3696.281	-531.4
3699.013	-532.4
3701.742	-541.4
3704.47	-535.4
3707.195	-543.4
3709.919	-556.4
3712.64	-558.4
3715.359	-565.4
3718.076	-559.4
3720.792	-566.4
3723.505	-564.4
3726.216	-579.4
3728.925	-581.4
3731.632	-583.4
3734.336	-583.4
3737.039	-588.4
3739.74	-586.4
3742.439	-590.4
3745.136	-596.4
3747.83	-599.4
3750.523	-602.4
3753.213	-581.4
3755.902	-601.4
3758.589	-602.4
3761.273	-604.4
3763.956	-611.4
3766.636	-616.4
3769.315	-615.4
3771.991	-614.4
3774.665	-621.4
3777.338	-623.4
3780.008	-630.4
3782.677	-625.4
3785.343	-614.4
3788.007	-624.4
3790.67	-624.4
3793.33	-624.4
3795.989	-626.4
3798.645	-622.4
3801.299	-628.4
3803.952	-629.4
3806.602	-637.4
3809.251	-639.4
3811.897	-638.4
3814.542	-639.4
3817.184	-638.4
3819.825	-632.4
3822.463	-637.4
3825.1	-646.4
3827.735	-643.4
3830.367	-634.4
3832.998	-646.4
3835.627	-652.4
3838.253	-643.4
3840.878	-649.4
3843.501	-643.4
3846.122	-645.4
3848.741	-640.4
3851.358	-643.4
3853.973	-642.4
3856.586	-646.4
3859.197	-646.4
3861.806	-653.4
3864.414	-655.4
3867.019	-648.4
3869.622	-651.4
3872.224	-645.4
3874.823	-633.4
3877.421	-614.4
3880.016	-602.4
3882.61	-566.4
3885.202	-564.4
3887.792	-579.4
3890.38	-612.4
3892.966	-634.4
3895.55	-640.4
3898.132	-663.4
3900.713	-661.4
3903.291	-663.4
3905.868	-655.4
3908.442	-659.4
3911.015	-661.4
3913.586	-659.4
3916.155	-659.4
3918.722	-667.4
3921.287	-665.4
3923.85	-671.4
3926.411	-666.4
3928.971	-677.4
3931.528	-665.4
3934.084	-665.4
3936.638	-663.4
3939.19	-667.4
3941.74	-662.4
3944.288	-667.4
3946.834	-662.4
3949.378	-668.4
3951.921	-665.4
3954.462	-670.4
3957	-662.4
3959.537	-664.4
3962.072	-666.4
3964.606	-671.4
3967.137	-663.4
3969.667	-672.4
3972.194	-661.4
3974.72	-658.4
3977.244	-658.4
3979.766	-656.4
3982.286	-656.4
3984.805	-650.4
3987.321	-650.4
3989.836	-654.4
3992.349	-647.4
3994.86	-648.4
3997.369	-653.4
3999.877	-647.4
4002.382	-651.4
4004.886	-650.4
4007.388	-646.4
4009.888	-644.4
4012.386	-649.4
4014.883	-646.4
4017.377	-650.4
4019.87	-646.4
4022.361	-645.4
4024.85	-647.4
4027.338	-653.4
4029.823	-653.4
4032.307	-657.4
4034.789	-652.4
4037.269	-650.4
4039.747	-656.4
4042.224	-657.4
4044.699	-659.4
4047.172	-650.4
4049.643	-652.4
4052.112	-661.4
4054.58	-654.4
4057.046	-657.4
4059.51	-656.4
4061.972	-657.4
4064.432	-663.4
4066.891	-650.4
4069.348	-657.4
4071.803	-657.4
4074.256	-655.4
4076.708	-654.4
4079.158	-653.4
4081.606	-657.4
4084.052	-659.4
4086.497	-658.4
4088.939	-649.4
4091.38	-656.4
4093.819	-651.4
4096.257	-688.4
4098.693	-689.4
4101.127	-693.4
4103.559	-688.4
4105.989	-387.4
4108.418	-358.4
4110.845	-345.4
4113.27	-329.4
4115.694	-285.4
4118.115	-235.4
4120.535	-647.4
4122.954	-655.4
4125.37	-644.4
4127.785	-653.4
4130.198	-655.4
4132.609	-657.4
4135.019	-691.4
4137.427	-692.4
4139.833	-692.4
4142.237	-688.4
