Data from 2018-2-14_conc=5_n=5_RamanShift_03.txt Node
Date: Wed Feb 14 14:18:55 IST 2018
User: aro
Spectrometer: QEPB0276
Trigger mode: 0
Integration Time (sec): 3.000000E1
Scans to average: 1
Electric dark correction enabled: true
Nonlinearity correction enabled: false
Boxcar width: 0
XAxis mode: Raman Shifts
Number of Pixels in Spectrum: 1044
>>>>>Begin Spectral Data<<<<<
160.701	-117.8
166.742	46.2
172.777	513.2
178.805	1905.2
184.826	5312.2
190.841	11109.2
196.849	17793.2
202.85	22639.2
208.845	24224.2
214.833	23914.2
220.815	23644.2
226.789	23513.2
232.758	23315.2
238.719	23273.2
244.674	22917.2
250.623	22553.2
256.565	22160.2
262.5	21669.2
268.429	21294.2
274.351	20976.2
280.267	20743.2
286.176	20505.2
292.079	20343.2
297.975	20223.2
303.865	19993.2
309.748	19967.2
315.625	19804.2
321.495	19704.2
327.359	19670.2
333.217	19670.2
339.068	19618.2
344.912	19630.2
350.751	19585.2
356.583	19587.2
362.408	19633.2
368.227	19592.2
374.04	19628.2
379.847	19630.2
385.647	19779.2
391.44	19738.2
397.228	19901.2
403.009	19986.2
408.784	20050.2
414.553	20108.2
420.315	20063.2
426.071	20158.2
431.821	20084.2
437.565	20058.2
443.302	20090.2
449.033	20026.2
454.758	19918.2
460.477	19917.2
466.189	19866.2
471.896	19847.2
477.596	19777.2
483.29	19719.2
488.978	19734.2
494.66	19641.2
500.335	19501.2
506.005	19207.2
511.668	18994.2
517.325	18718.2
522.977	18586.2
528.622	18377.2
534.261	18270.2
539.894	18165.2
545.521	18090.2
551.141	17947.2
556.756	17917.2
562.365	17821.2
567.968	17767.2
573.565	17711.2
579.155	17651.2
584.74	17586.2
590.319	17509.2
595.892	17467.2
601.459	17419.2
607.02	17288.2
612.575	17149.2
618.124	17079.2
623.667	16944.2
629.204	16888.2
634.735	16771.2
640.261	16695.2
645.781	16714.2
651.294	16658.2
656.802	16629.2
662.304	16570.2
667.8	16506.2
673.29	16516.2
678.775	16519.2
684.254	16402.2
689.726	16360.2
695.193	16321.2
700.655	16281.2
706.11	16161.2
711.56	16032.2
717.004	15997.2
722.442	15948.2
727.874	15831.2
733.301	15814.2
738.722	15733.2
744.137	15682.2
749.547	15635.2
754.951	15673.2
760.349	15714.2
765.741	15715.2
771.128	15736.2
776.509	15739.2
781.885	15769.2
787.254	15728.2
792.618	15620.2
797.977	15506.2
803.33	15457.2
808.677	15344.2
814.019	15228.2
819.355	15156.2
824.686	15123.2
830.011	15067.2
835.33	15070.2
840.644	15055.2
845.952	15113.2
851.255	15110.2
856.552	15094.2
861.844	15104.2
867.13	15076.2
872.41	14994.2
877.686	14880.2
882.955	14817.2
888.219	14633.2
893.478	14499.2
898.731	14298.2
903.979	14161.2
909.221	14085.2
914.458	14029.2
919.69	14019.2
924.916	14005.2
930.136	14078.2
935.351	14088.2
940.561	14061.2
945.766	14073.2
950.965	13978.2
956.158	13865.2
961.347	13735.2
966.529	13559.2
971.707	13318.2
976.879	13238.2
982.046	13124.2
987.208	13062.2
992.364	13075.2
997.515	13104.2
1002.66	13235.2
1007.801	13407.2
1012.936	13478.2
1018.066	13475.2
1023.19	13520.2
1028.309	13482.2
1033.423	13451.2
1038.532	13408.2
1043.636	13262.2
1048.734	13141.2
1053.827	12935.2
1058.915	12789.2
1063.998	12680.2
1069.075	12701.2
1074.147	12664.2
1079.214	12743.2
1084.276	12832.2
1089.333	12837.2
1094.385	12938.2
1099.431	12968.2
1104.472	12977.2
1109.509	12877.2
1114.54	12743.2
1119.565	12560.2
1124.586	12426.2
1129.602	12285.2
1134.613	12199.2
1139.618	12067.2
1144.619	12065.2
1149.614	12079.2
1154.604	12106.2
1159.589	12161.2
1164.57	12146.2
1169.545	12138.2
1174.515	12173.2
1179.48	12084.2
1184.44	11975.2
1189.395	11911.2
1194.345	11807.2
1199.29	11747.2
1204.23	11773.2
1209.165	11783.2
1214.095	11942.2
1219.021	11946.2
1223.941	12015.2
1228.856	12057.2
1233.766	12061.2
1238.672	12074.2
1243.572	12086.2
1248.467	11997.2
1253.358	11834.2
1258.244	11665.2
1263.124	11460.2
1268	11351.2
1272.871	11167.2
1277.737	11110.2
1282.599	11027.2
1287.455	11033.2
1292.306	11059.2
1297.153	11113.2
1301.995	11161.2
1306.832	11176.2
1311.664	11173.2
1316.491	11119.2
1321.314	11029.2
1326.132	10839.2
1330.945	10642.2
1335.753	10392.2
1340.556	10122.2
1345.354	9965.2
1350.148	9813.2
1354.937	9727.2
1359.722	9606.2
1364.501	9643.2
1369.276	9696.2
1374.046	9815.2
1378.811	9904.2
1383.572	10042.2
1388.327	10066.2
1393.079	10005.2
1397.825	9946.2
1402.567	9799.2
1407.304	9680.2
1412.036	9646.2
1416.764	9534.2
1421.487	9473.2
1426.205	9458.2
1430.919	9391.2
1435.628	9423.2
1440.333	9422.2
1445.032	9415.2
1449.727	9491.2
1454.418	9452.2
1459.104	9341.2
1463.785	9139.2
1468.462	8975.2
1473.134	8795.2
1477.802	8598.2
1482.465	8449.2
1487.123	8263.2
1491.777	8275.2
1496.426	8262.2
1501.071	8330.2
1505.711	8423.2
1510.347	8585.2
1514.978	8704.2
1519.604	8795.2
1524.226	8851.2
1528.844	8903.2
1533.457	8913.2
1538.065	8887.2
1542.669	8812.2
1547.269	8802.2
1551.864	8706.2
1556.454	8718.2
1561.041	8691.2
1565.622	8634.2
1570.199	8734.2
1574.772	8778.2
1579.34	8829.2
1583.904	8842.2
1588.464	8928.2
1593.019	8907.2
1597.569	8871.2
1602.115	8856.2
1606.657	8796.2
1611.195	8711.2
1615.728	8657.2
1620.256	8651.2
1624.78	8593.2
1629.3	8599.2
1633.816	8593.2
1638.327	8684.2
1642.834	8681.2
1647.336	8714.2
1651.834	8701.2
1656.328	8677.2
1660.817	8624.2
1665.302	8530.2
1669.783	8378.2
1674.259	8170.2
1678.732	7972.2
1683.199	7668.2
1687.663	7381.2
1692.122	7169.2
1696.577	7056.2
1701.028	6960.2
1705.474	6939.2
1709.917	6987.2
1714.355	7017.2
1718.788	7009.2
1723.218	6955.2
1727.643	6834.2
1732.064	6714.2
1736.481	6590.2
1740.893	6428.2
1745.301	6302.2
1749.705	6097.2
1754.105	5945.2
1758.501	5744.2
1762.893	5586.2
1767.28	5448.2
1771.663	5346.2
1776.042	5232.2
1780.417	5167.2
1784.787	5151.2
1789.154	5157.2
1793.516	5210.2
1797.874	5303.2
1802.228	5400.2
1806.578	5461.2
1810.924	5462.2
1815.266	5409.2
1819.603	5349.2
1823.937	5274.2
1828.266	5211.2
1832.591	5145.2
1836.913	5096.2
1841.23	5005.2
1845.543	4977.2
1849.852	4969.2
1854.156	4926.2
1858.457	4937.2
1862.754	4962.2
1867.047	4920.2
1871.335	4915.2
1875.62	4932.2
1879.9	4867.2
1884.177	4838.2
1888.449	4798.2
1892.718	4732.2
1896.982	4676.2
1901.243	4641.2
1905.499	4564.2
1909.752	4577.2
1914	4558.2
1918.245	4549.2
1922.485	4585.2
1926.722	4652.2
1930.954	4667.2
1935.183	4706.2
1939.408	4755.2
1943.628	4771.2
1947.845	4796.2
1952.058	4782.2
1956.267	4778.2
1960.472	4718.2
1964.673	4640.2
1968.87	4564.2
1973.063	4494.2
1977.252	4461.2
1981.438	4411.2
1985.619	4334.2
1989.797	4313.2
1993.971	4291.2
1998.14	4292.2
2002.306	4225.2
2006.469	4233.2
2010.627	4223.2
2014.781	4206.2
2018.932	4175.2
2023.078	4125.2
2027.221	4053.2
2031.36	4015.2
2035.495	3912.2
2039.627	3850.2
2043.754	3838.2
2047.878	3790.2
2051.998	3745.2
2056.114	3728.2
2060.226	3740.2
2064.334	3729.2
2068.439	3755.2
2072.54	3758.2
2076.637	3756.2
2080.73	3816.2
2084.82	3818.2
2088.906	3815.2
2092.988	3822.2
2097.066	3808.2
2101.14	3810.2
2105.211	3743.2
2109.278	3745.2
2113.342	3724.2
2117.401	3696.2
2121.457	3693.2
2125.509	3651.2
2129.558	3626.2
2133.602	3621.2
2137.643	3589.2
2141.681	3596.2
2145.714	3573.2
2149.744	3549.2
2153.77	3518.2
2157.793	3493.2
2161.812	3436.2
2165.827	3394.2
2169.838	3358.2
2173.846	3306.2
2177.851	3225.2
2181.851	3212.2
2185.848	3140.2
2189.841	3103.2
2193.831	3088.2
2197.817	3076.2
2201.799	3028.2
2205.778	3036.2
2209.753	3054.2
2213.725	3033.2
2217.693	3004.2
2221.657	2996.2
2225.618	3001.2
2229.575	2965.2
2233.529	2946.2
2237.479	2932.2
2241.425	2889.2
2245.368	2835.2
2249.307	2797.2
2253.243	2766.2
2257.175	2720.2
2261.104	2688.2
2265.029	2672.2
2268.95	2629.2
2272.868	2599.2
2276.783	2597.2
2280.694	2531.2
2284.601	2534.2
2288.505	2513.2
2292.405	2470.2
2296.302	2450.2
2300.195	2455.2
2304.085	2422.2
2307.971	2386.2
2311.854	2339.2
2315.734	2312.2
2319.609	2274.2
2323.482	2255.2
2327.351	2217.2
2331.216	2213.2
2335.078	2214.2
2338.937	2192.2
2342.792	2159.2
2346.643	2161.2
2350.492	2169.2
2354.336	2196.2
2358.178	2190.2
2362.015	2206.2
2365.85	2208.2
2369.681	2179.2
2373.508	2195.2
2377.333	2192.2
2381.153	2179.2
2384.971	2171.2
2388.785	2160.2
2392.595	2155.2
2396.402	2116.2
2400.206	2113.2
2404.007	2105.2
2407.804	2082.2
2411.597	2081.2
2415.388	2057.2
2419.174	2059.2
2422.958	2015.2
2426.738	2009.2
2430.515	1993.2
2434.289	1956.2
2438.059	1960.2
2441.825	1918.2
2445.589	1909.2
2449.349	1918.2
2453.106	1869.2
2456.859	1851.2
2460.61	1832.2
2464.356	1814.2
2468.1	1807.2
2471.84	1759.2
2475.577	1754.2
2479.311	1716.2
2483.041	1733.2
2486.768	1716.2
2490.492	1704.2
2494.213	1703.2
2497.93	1701.2
2501.644	1684.2
2505.355	1674.2
2509.062	1644.2
2512.766	1631.2
2516.467	1643.2
2520.165	1630.2
2523.859	1602.2
2527.551	1579.2
2531.239	1581.2
2534.923	1578.2
2538.605	1557.2
2542.283	1555.2
2545.958	1548.2
2549.63	1544.2
2553.299	1567.2
2556.964	1544.2
2560.626	1545.2
2564.285	1526.2
2567.941	1524.2
2571.594	1531.2
2575.243	1512.2
2578.89	1485.2
2582.533	1473.2
2586.173	1472.2
2589.809	1448.2
2593.443	1446.2
2597.073	1433.2
2600.701	1422.2
2604.325	1425.2
2607.946	1406.2
2611.564	1374.2
2615.178	1371.2
2618.79	1364.2
2622.398	1357.2
2626.004	1321.2
2629.606	1332.2
2633.205	1313.2
2636.801	1283.2
2640.394	1270.2
2643.983	1250.2
2647.57	1234.2
2651.153	1219.2
2654.734	1183.2
2658.311	1184.2
2661.885	1126.2
2665.456	1142.2
2669.025	1133.2
2672.589	1122.2
2676.151	1076.2
2679.71	1103.2
2683.266	1067.2
2686.819	1052.2
2690.368	1036.2
2693.915	1013.2
2697.458	979.2
2700.999	956.2
2704.536	926.2
2708.071	900.2
2711.602	898.2
2715.13	867.2
2718.656	854.2
2722.178	837.2
2725.697	833.2
2729.214	810.2
2732.727	794.2
2736.237	807.2
2739.744	781.2
2743.249	795.2
2746.75	793.2
2750.248	789.2
2753.743	806.2
2757.236	822.2
2760.725	806.2
2764.211	811.2
2767.695	814.2
2771.175	819.2
2774.652	807.2
2778.127	810.2
2781.598	797.2
2785.067	813.2
2788.532	792.2
2791.995	783.2
2795.455	785.2
2798.911	792.2
2802.365	801.2
2805.816	778.2
2809.264	787.2
2812.709	806.2
2816.151	800.2
2819.59	811.2
2823.026	787.2
2826.46	801.2
2829.89	811.2
2833.318	788.2
2836.742	814.2
2840.164	811.2
2843.583	819.2
2846.999	837.2
2850.412	844.2
2853.822	846.2
2857.229	851.2
2860.634	880.2
2864.035	898.2
2867.434	915.2
2870.83	926.2
2874.223	946.2
2877.613	953.2
2881	956.2
2884.385	978.2
2887.766	972.2
2891.145	961.2
2894.521	946.2
2897.894	972.2
2901.264	979.2
2904.631	962.2
2907.996	977.2
2911.358	988.2
2914.717	991.2
2918.073	1006.2
2921.426	1007.2
2924.777	1017.2
2928.124	1040.2
2931.469	1040.2
2934.811	1065.2
2938.15	1095.2
2941.487	1087.2
2944.821	1103.2
2948.152	1104.2
2951.48	1096.2
2954.805	1070.2
2958.128	1059.2
2961.447	1066.2
2964.765	1064.2
2968.079	1051.2
2971.39	1063.2
2974.699	1085.2
2978.005	1087.2
2981.308	1095.2
2984.609	1109.2
2987.907	1114.2
2991.202	1168.2
2994.494	1187.2
2997.784	1207.2
3001.07	1246.2
3004.355	1246.2
3007.636	1278.2
3010.915	1282.2
3014.191	1298.2
3017.464	1299.2
3020.734	1333.2
3024.002	1332.2
3027.267	1350.2
3030.53	1351.2
3033.789	1364.2
3037.046	1391.2
3040.301	1417.2
3043.552	1453.2
3046.801	1470.2
3050.048	1503.2
3053.291	1556.2
3056.532	1581.2
3059.771	1645.2
3063.006	1694.2
3066.239	1740.2
3069.469	1801.2
3072.697	1840.2
3075.922	1871.2
3079.144	1937.2
3082.364	1982.2
3085.581	2017.2
3088.795	2058.2
3092.007	2125.2
3095.216	2154.2
3098.423	2193.2
3101.627	2244.2
3104.828	2292.2
3108.026	2333.2
3111.222	2403.2
3114.416	2450.2
3117.607	2483.2
3120.795	2562.2
3123.98	2623.2
3127.163	2723.2
3130.344	2752.2
3133.521	2818.2
3136.696	2884.2
3139.869	2941.2
3143.039	2981.2
3146.206	3057.2
3149.371	3064.2
3152.533	3056.2
3155.693	3129.2
3158.85	3129.2
3162.005	3173.2
3165.157	3131.2
3168.306	3190.2
3171.453	3186.2
3174.597	3180.2
3177.739	3196.2
3180.878	3207.2
3184.014	3206.2
3187.149	3193.2
3190.28	3216.2
3193.409	3197.2
3196.536	3214.2
3199.659	3213.2
3202.781	3199.2
3205.9	3213.2
3209.016	3206.2
3212.13	3182.2
3215.241	3173.2
3218.35	3152.2
3221.456	3117.2
3224.56	3093.2
3227.661	3046.2
3230.76	3018.2
3233.856	2980.2
3236.95	2939.2
3240.041	2915.2
3243.13	2886.2
3246.216	2856.2
3249.3	2823.2
3252.382	2824.2
3255.46	2800.2
3258.537	2799.2
3261.611	2827.2
3264.682	2805.2
3267.751	2781.2
3270.818	2817.2
3273.882	2777.2
3276.943	2796.2
3280.002	2774.2
3283.059	2729.2
3286.113	2722.2
3289.165	2677.2
3292.214	2624.2
3295.261	2588.2
3298.306	2548.2
3301.348	2493.2
3304.387	2446.2
3307.425	2442.2
3310.459	2415.2
3313.492	2357.2
3316.521	2333.2
3319.549	2293.2
3322.574	2304.2
3325.597	2277.2
3328.617	2239.2
3331.635	2262.2
3334.65	2222.2
3337.663	2202.2
3340.674	2205.2
3343.682	2207.2
3346.688	2196.2
3349.691	2204.2
3352.692	2169.2
3355.691	2153.2
3358.687	2143.2
3361.681	2117.2
3364.673	2099.2
3367.662	2054.2
3370.649	2028.2
3373.633	1987.2
3376.615	1968.2
3379.595	1935.2
3382.572	1917.2
3385.547	1870.2
3388.52	1878.2
3391.49	1817.2
3394.458	1798.2
3397.424	1773.2
3400.387	1749.2
3403.348	1733.2
3406.307	1717.2
3409.263	1660.2
3412.217	1660.2
3415.168	1631.2
3418.118	1620.2
3421.065	1582.2
3424.009	1572.2
3426.951	1553.2
3429.891	1516.2
3432.829	1487.2
3435.764	1449.2
3438.697	1410.2
3441.628	1378.2
3444.557	1323.2
3447.483	1286.2
3450.407	1252.2
3453.328	1197.2
3456.247	1172.2
3459.164	1118.2
3462.079	1065.2
3464.991	1028.2
3467.902	982.2
3470.809	952.2
3473.715	912.2
3476.618	882.2
3479.519	851.2
3482.418	809.2
3485.315	794.2
3488.209	765.2
3491.101	725.2
3493.99	701.2
3496.878	656.2
3499.763	636.2
3502.646	603.2
3505.527	575.2
3508.405	540.2
3511.281	520.2
3514.155	496.2
3517.027	464.2
3519.897	432.2
3522.764	388.2
3525.629	352.2
3528.492	320.2
3531.352	283.2
3534.211	252.2
3537.067	224.2
3539.921	194.2
3542.773	173.2
3545.622	141.2
3548.469	111.2
3551.315	113.2
3554.157	71.2
3556.998	50.2
3559.837	46.2
3562.673	22.2
3565.507	0.2
3568.339	-18.8
3571.169	-34.8
3573.996	-48.8
3576.822	-57.8
3579.645	-75.8
3582.466	-99.8
3585.285	-118.8
3588.101	-126.8
3590.916	-136.8
3593.728	-167.8
3596.538	-176.8
3599.346	-188.8
3602.152	-208.8
3604.956	-211.8
3607.757	-239.8
3610.556	-231.8
3613.354	-248.8
3616.149	-268.8
3618.942	-269.8
3621.732	-282.8
3624.521	-298.8
3627.307	-305.8
3630.092	-307.8
3632.874	-319.8
3635.654	-311.8
3638.432	-323.8
3641.208	-327.8
3643.982	-347.8
3646.753	-344.8
3649.523	-349.8
3652.29	-355.8
3655.055	-368.8
3657.818	-379.8
3660.579	-389.8
3663.338	-397.8
3666.095	-398.8
3668.849	-414.8
3671.602	-421.8
3674.352	-421.8
3677.101	-422.8
3679.847	-444.8
3682.591	-446.8
3685.333	-446.8
3688.073	-447.8
3690.811	-454.8
3693.547	-456.8
3696.281	-451.8
3699.013	-464.8
3701.742	-468.8
3704.47	-470.8
3707.195	-480.8
3709.919	-479.8
3712.64	-484.8
3715.359	-480.8
3718.076	-493.8
3720.792	-485.8
3723.505	-491.8
3726.216	-495.8
3728.925	-501.8
3731.632	-507.8
3734.336	-503.8
3737.039	-513.8
3739.74	-503.8
3742.439	-510.8
3745.136	-517.8
3747.83	-516.8
3750.523	-520.8
3753.213	-515.8
3755.902	-518.8
3758.589	-524.8
3761.273	-526.8
3763.956	-523.8
3766.636	-523.8
3769.315	-528.8
3771.991	-518.8
3774.665	-530.8
3777.338	-531.8
3780.008	-534.8
3782.677	-534.8
3785.343	-529.8
3788.007	-533.8
3790.67	-537.8
3793.33	-541.8
3795.989	-544.8
3798.645	-536.8
3801.299	-543.8
3803.952	-543.8
3806.602	-551.8
3809.251	-550.8
3811.897	-546.8
3814.542	-543.8
3817.184	-543.8
3819.825	-543.8
3822.463	-539.8
3825.1	-546.8
3827.735	-542.8
3830.367	-541.8
3832.998	-554.8
3835.627	-551.8
3838.253	-547.8
3840.878	-556.8
3843.501	-552.8
3846.122	-546.8
3848.741	-545.8
3851.358	-550.8
3853.973	-551.8
3856.586	-557.8
3859.197	-559.8
3861.806	-556.8
3864.414	-552.8
3867.019	-554.8
3869.622	-558.8
3872.224	-555.8
3874.823	-533.8
3877.421	-521.8
3880.016	-508.8
3882.61	-487.8
3885.202	-482.8
3887.792	-495.8
3890.38	-521.8
3892.966	-541.8
3895.55	-552.8
3898.132	-567.8
3900.713	-568.8
3903.291	-560.8
3905.868	-565.8
3908.442	-564.8
3911.015	-566.8
3913.586	-561.8
3916.155	-560.8
3918.722	-570.8
3921.287	-567.8
3923.85	-566.8
3926.411	-566.8
3928.971	-578.8
3931.528	-567.8
3934.084	-568.8
3936.638	-566.8
3939.19	-570.8
3941.74	-568.8
3944.288	-576.8
3946.834	-567.8
3949.378	-569.8
3951.921	-567.8
3954.462	-574.8
3957	-562.8
3959.537	-565.8
3962.072	-565.8
3964.606	-565.8
3967.137	-570.8
3969.667	-569.8
3972.194	-559.8
3974.72	-565.8
3977.244	-559.8
3979.766	-549.8
3982.286	-552.8
3984.805	-555.8
3987.321	-556.8
3989.836	-560.8
3992.349	-552.8
3994.86	-554.8
3997.369	-565.8
3999.877	-554.8
4002.382	-558.8
4004.886	-558.8
4007.388	-555.8
4009.888	-549.8
4012.386	-560.8
4014.883	-556.8
4017.377	-554.8
4019.87	-543.8
4022.361	-556.8
4024.85	-553.8
4027.338	-553.8
4029.823	-561.8
4032.307	-558.8
4034.789	-555.8
4037.269	-549.8
4039.747	-550.8
4042.224	-561.8
4044.699	-558.8
4047.172	-553.8
4049.643	-551.8
4052.112	-557.8
4054.58	-567.8
4057.046	-563.8
4059.51	-555.8
4061.972	-560.8
4064.432	-562.8
4066.891	-553.8
4069.348	-555.8
4071.803	-559.8
4074.256	-553.8
4076.708	-558.8
4079.158	-556.8
4081.606	-558.8
4084.052	-557.8
4086.497	-558.8
4088.939	-551.8
4091.38	-556.8
4093.819	-551.8
4096.257	-580.8
4098.693	-583.8
4101.127	-589.8
4103.559	-583.8
4105.989	-328.8
4108.418	-305.8
4110.845	-281.8
4113.27	-269.8
4115.694	-237.8
4118.115	-191.8
4120.535	-551.8
4122.954	-552.8
4125.37	-547.8
4127.785	-560.8
4130.198	-551.8
4132.609	-555.8
4135.019	-587.8
4137.427	-588.8
4139.833	-585.8
4142.237	-584.8
