Data from 2018-2-14_conc=5_n=4_RamanShift_02.txt Node
Date: Wed Feb 14 14:14:55 IST 2018
User: aro
Spectrometer: QEPB0276
Trigger mode: 0
Integration Time (sec): 3.000000E1
Scans to average: 1
Electric dark correction enabled: true
Nonlinearity correction enabled: false
Boxcar width: 0
XAxis mode: Raman Shifts
Number of Pixels in Spectrum: 1044
>>>>>Begin Spectral Data<<<<<
160.701	-134.5
166.742	47.5
172.777	573.5
178.805	2252.5
184.826	6261.5
190.841	13117.5
196.849	21107.5
202.85	26752.5
208.845	28555.5
214.833	28296.5
220.815	27697.5
226.789	27522.5
232.758	27295.5
238.719	27114.5
244.674	26745.5
250.623	26217.5
256.565	25680.5
262.5	25127.5
268.429	24629.5
274.351	24212.5
280.267	23840.5
286.176	23490.5
292.079	23289.5
297.975	23047.5
303.865	22835.5
309.748	22656.5
315.625	22495.5
321.495	22336.5
327.359	22347.5
333.217	22242.5
339.068	22203.5
344.912	22169.5
350.751	22148.5
356.583	22091.5
362.408	22110.5
368.227	22118.5
374.04	22087.5
379.847	22217.5
385.647	22205.5
391.44	22338.5
397.228	22377.5
403.009	22467.5
408.784	22558.5
414.553	22636.5
420.315	22752.5
426.071	22657.5
431.821	22693.5
437.565	22634.5
443.302	22584.5
449.033	22581.5
454.758	22537.5
460.477	22474.5
466.189	22481.5
471.896	22366.5
477.596	22288.5
483.29	22217.5
488.978	22208.5
494.66	22138.5
500.335	21988.5
506.005	21779.5
511.668	21488.5
517.325	21330.5
522.977	21128.5
528.622	20941.5
534.261	20775.5
539.894	20729.5
545.521	20596.5
551.141	20486.5
556.756	20470.5
562.365	20421.5
567.968	20282.5
573.565	20231.5
579.155	20146.5
584.74	20043.5
590.319	19999.5
595.892	19950.5
601.459	19837.5
607.02	19755.5
612.575	19555.5
618.124	19470.5
623.667	19319.5
629.204	19275.5
634.735	19189.5
640.261	19125.5
645.781	19004.5
651.294	18950.5
656.802	19002.5
662.304	18883.5
667.8	18841.5
673.29	18869.5
678.775	18797.5
684.254	18739.5
689.726	18730.5
695.193	18602.5
700.655	18535.5
706.11	18461.5
711.56	18313.5
717.004	18264.5
722.442	18151.5
727.874	18094.5
733.301	18003.5
738.722	17992.5
744.137	17925.5
749.547	17942.5
754.951	17966.5
760.349	17964.5
765.741	17890.5
771.128	17951.5
776.509	17945.5
781.885	17937.5
787.254	17910.5
792.618	17818.5
797.977	17685.5
803.33	17638.5
808.677	17474.5
814.019	17400.5
819.355	17328.5
824.686	17234.5
830.011	17103.5
835.33	17212.5
840.644	17170.5
845.952	17219.5
851.255	17249.5
856.552	17241.5
861.844	17251.5
867.13	17140.5
872.41	17102.5
877.686	16965.5
882.955	16888.5
888.219	16686.5
893.478	16555.5
898.731	16362.5
903.979	16187.5
909.221	16065.5
914.458	15982.5
919.69	15979.5
924.916	16073.5
930.136	16110.5
935.351	16115.5
940.561	16066.5
945.766	16072.5
950.965	15937.5
956.158	15871.5
961.347	15715.5
966.529	15494.5
971.707	15264.5
976.879	15128.5
982.046	14957.5
987.208	14972.5
992.364	14911.5
997.515	15009.5
1002.66	15120.5
1007.801	15358.5
1012.936	15428.5
1018.066	15377.5
1023.19	15441.5
1028.309	15359.5
1033.423	15397.5
1038.532	15330.5
1043.636	15165.5
1048.734	14986.5
1053.827	14773.5
1058.915	14613.5
1063.998	14543.5
1069.075	14473.5
1074.147	14441.5
1079.214	14541.5
1084.276	14599.5
1089.333	14709.5
1094.385	14766.5
1099.431	14824.5
1104.472	14841.5
1109.509	14777.5
1114.54	14565.5
1119.565	14353.5
1124.586	14189.5
1129.602	14073.5
1134.613	13951.5
1139.618	13813.5
1144.619	13868.5
1149.614	13843.5
1154.604	13861.5
1159.589	13888.5
1164.57	13930.5
1169.545	13943.5
1174.515	13944.5
1179.48	13841.5
1184.44	13750.5
1189.395	13670.5
1194.345	13575.5
1199.29	13482.5
1204.23	13475.5
1209.165	13525.5
1214.095	13578.5
1219.021	13706.5
1223.941	13709.5
1228.856	13820.5
1233.766	13844.5
1238.672	13898.5
1243.572	13867.5
1248.467	13716.5
1253.358	13553.5
1258.244	13419.5
1263.124	13226.5
1268	12999.5
1272.871	12832.5
1277.737	12780.5
1282.599	12698.5
1287.455	12722.5
1292.306	12706.5
1297.153	12784.5
1301.995	12804.5
1306.832	12895.5
1311.664	12895.5
1316.491	12896.5
1321.314	12785.5
1326.132	12577.5
1330.945	12346.5
1335.753	12009.5
1340.556	11701.5
1345.354	11486.5
1350.148	11308.5
1354.937	11230.5
1359.722	11194.5
1364.501	11308.5
1369.276	11356.5
1374.046	11568.5
1378.811	11753.5
1383.572	11895.5
1388.327	11920.5
1393.079	11853.5
1397.825	11713.5
1402.567	11526.5
1407.304	11319.5
1412.036	11238.5
1416.764	11130.5
1421.487	11074.5
1426.205	11027.5
1430.919	10950.5
1435.628	10970.5
1440.333	11015.5
1445.032	11002.5
1449.727	11097.5
1454.418	11070.5
1459.104	10919.5
1463.785	10732.5
1468.462	10586.5
1473.134	10304.5
1477.802	10145.5
1482.465	9966.5
1487.123	9814.5
1491.777	9846.5
1496.426	9923.5
1501.071	10002.5
1505.711	10178.5
1510.347	10340.5
1514.978	10552.5
1519.604	10672.5
1524.226	10803.5
1528.844	10825.5
1533.457	10795.5
1538.065	10722.5
1542.669	10639.5
1547.269	10542.5
1551.864	10496.5
1556.454	10444.5
1561.041	10424.5
1565.622	10410.5
1570.199	10471.5
1574.772	10459.5
1579.34	10558.5
1583.904	10627.5
1588.464	10642.5
1593.019	10655.5
1597.569	10597.5
1602.115	10558.5
1606.657	10501.5
1611.195	10463.5
1615.728	10429.5
1620.256	10345.5
1624.78	10352.5
1629.3	10340.5
1633.816	10410.5
1638.327	10486.5
1642.834	10472.5
1647.336	10599.5
1651.834	10613.5
1656.328	10598.5
1660.817	10536.5
1665.302	10458.5
1669.783	10272.5
1674.259	10069.5
1678.732	9791.5
1683.199	9479.5
1687.663	9149.5
1692.122	8894.5
1696.577	8726.5
1701.028	8718.5
1705.474	8763.5
1709.917	8825.5
1714.355	8868.5
1718.788	8752.5
1723.218	8666.5
1727.643	8484.5
1732.064	8334.5
1736.481	8107.5
1740.893	7918.5
1745.301	7682.5
1749.705	7490.5
1754.105	7287.5
1758.501	7074.5
1762.893	6863.5
1767.28	6732.5
1771.663	6594.5
1776.042	6462.5
1780.417	6396.5
1784.787	6398.5
1789.154	6439.5
1793.516	6596.5
1797.874	6713.5
1802.228	6874.5
1806.578	6928.5
1810.924	6901.5
1815.266	6824.5
1819.603	6756.5
1823.937	6608.5
1828.266	6502.5
1832.591	6369.5
1836.913	6325.5
1841.23	6266.5
1845.543	6219.5
1849.852	6154.5
1854.156	6166.5
1858.457	6127.5
1862.754	6129.5
1867.047	6110.5
1871.335	6136.5
1875.62	6128.5
1879.9	6088.5
1884.177	6023.5
1888.449	5983.5
1892.718	5957.5
1896.982	5875.5
1901.243	5859.5
1905.499	5784.5
1909.752	5781.5
1914	5811.5
1918.245	5804.5
1922.485	5872.5
1926.722	5940.5
1930.954	6004.5
1935.183	6069.5
1939.408	6136.5
1943.628	6143.5
1947.845	6135.5
1952.058	6118.5
1956.267	6101.5
1960.472	6019.5
1964.673	5919.5
1968.87	5822.5
1973.063	5760.5
1977.252	5619.5
1981.438	5573.5
1985.619	5512.5
1989.797	5465.5
1993.971	5477.5
1998.14	5439.5
2002.306	5404.5
2006.469	5393.5
2010.627	5366.5
2014.781	5324.5
2018.932	5291.5
2023.078	5249.5
2027.221	5152.5
2031.36	5059.5
2035.495	5048.5
2039.627	4943.5
2043.754	4909.5
2047.878	4842.5
2051.998	4826.5
2056.114	4840.5
2060.226	4803.5
2064.334	4845.5
2068.439	4844.5
2072.54	4878.5
2076.637	4916.5
2080.73	4942.5
2084.82	4945.5
2088.906	4972.5
2092.988	4988.5
2097.066	4946.5
2101.14	4931.5
2105.211	4907.5
2109.278	4893.5
2113.342	4799.5
2117.401	4811.5
2121.457	4763.5
2125.509	4776.5
2129.558	4758.5
2133.602	4704.5
2137.643	4662.5
2141.681	4654.5
2145.714	4652.5
2149.744	4585.5
2153.77	4540.5
2157.793	4497.5
2161.812	4465.5
2165.827	4383.5
2169.838	4296.5
2173.846	4238.5
2177.851	4177.5
2181.851	4099.5
2185.848	4044.5
2189.841	3990.5
2193.831	3986.5
2197.817	3902.5
2201.799	3912.5
2205.778	3891.5
2209.753	3857.5
2213.725	3845.5
2217.693	3869.5
2221.657	3850.5
2225.618	3854.5
2229.575	3837.5
2233.529	3792.5
2237.479	3761.5
2241.425	3715.5
2245.368	3623.5
2249.307	3607.5
2253.243	3551.5
2257.175	3515.5
2261.104	3435.5
2265.029	3392.5
2268.95	3393.5
2272.868	3336.5
2276.783	3327.5
2280.694	3277.5
2284.601	3230.5
2288.505	3185.5
2292.405	3170.5
2296.302	3135.5
2300.195	3082.5
2304.085	3060.5
2307.971	3000.5
2311.854	2965.5
2315.734	2930.5
2319.609	2870.5
2323.482	2819.5
2327.351	2798.5
2331.216	2782.5
2335.078	2764.5
2338.937	2752.5
2342.792	2729.5
2346.643	2713.5
2350.492	2736.5
2354.336	2720.5
2358.178	2737.5
2362.015	2727.5
2365.85	2741.5
2369.681	2744.5
2373.508	2723.5
2377.333	2751.5
2381.153	2721.5
2384.971	2698.5
2388.785	2674.5
2392.595	2656.5
2396.402	2623.5
2400.206	2634.5
2404.007	2600.5
2407.804	2590.5
2411.597	2548.5
2415.388	2549.5
2419.174	2497.5
2422.958	2496.5
2426.738	2480.5
2430.515	2483.5
2434.289	2443.5
2438.059	2420.5
2441.825	2402.5
2445.589	2352.5
2449.349	2334.5
2453.106	2332.5
2456.859	2299.5
2460.61	2289.5
2464.356	2235.5
2468.1	2229.5
2471.84	2205.5
2475.577	2195.5
2479.311	2183.5
2483.041	2182.5
2486.768	2155.5
2490.492	2155.5
2494.213	2143.5
2497.93	2130.5
2501.644	2116.5
2505.355	2115.5
2509.062	2106.5
2512.766	2091.5
2516.467	2091.5
2520.165	2049.5
2523.859	2022.5
2527.551	2019.5
2531.239	2036.5
2534.923	2020.5
2538.605	1986.5
2542.283	2010.5
2545.958	1982.5
2549.63	1989.5
2553.299	1997.5
2556.964	1986.5
2560.626	1984.5
2564.285	1951.5
2567.941	1960.5
2571.594	1954.5
2575.243	1945.5
2578.89	1906.5
2582.533	1911.5
2586.173	1873.5
2589.809	1888.5
2593.443	1865.5
2597.073	1836.5
2600.701	1836.5
2604.325	1794.5
2607.946	1794.5
2611.564	1772.5
2615.178	1776.5
2618.79	1758.5
2622.398	1750.5
2626.004	1731.5
2629.606	1710.5
2633.205	1684.5
2636.801	1650.5
2640.394	1630.5
2643.983	1604.5
2647.57	1597.5
2651.153	1566.5
2654.734	1536.5
2658.311	1517.5
2661.885	1491.5
2665.456	1480.5
2669.025	1459.5
2672.589	1421.5
2676.151	1422.5
2679.71	1417.5
2683.266	1375.5
2686.819	1347.5
2690.368	1327.5
2693.915	1277.5
2697.458	1267.5
2700.999	1256.5
2704.536	1232.5
2708.071	1175.5
2711.602	1179.5
2715.13	1134.5
2718.656	1133.5
2722.178	1116.5
2725.697	1093.5
2729.214	1068.5
2732.727	1077.5
2736.237	1063.5
2739.744	1061.5
2743.249	1071.5
2746.75	1091.5
2750.248	1082.5
2753.743	1080.5
2757.236	1116.5
2760.725	1118.5
2764.211	1129.5
2767.695	1130.5
2771.175	1126.5
2774.652	1136.5
2778.127	1128.5
2781.598	1114.5
2785.067	1105.5
2788.532	1094.5
2791.995	1098.5
2795.455	1101.5
2798.911	1103.5
2802.365	1092.5
2805.816	1103.5
2809.264	1094.5
2812.709	1089.5
2816.151	1095.5
2819.59	1114.5
2823.026	1098.5
2826.46	1113.5
2829.89	1116.5
2833.318	1124.5
2836.742	1123.5
2840.164	1111.5
2843.583	1130.5
2846.999	1159.5
2850.412	1176.5
2853.822	1174.5
2857.229	1171.5
2860.634	1222.5
2864.035	1223.5
2867.434	1247.5
2870.83	1269.5
2874.223	1280.5
2877.613	1320.5
2881	1324.5
2884.385	1355.5
2887.766	1329.5
2891.145	1338.5
2894.521	1339.5
2897.894	1335.5
2901.264	1333.5
2904.631	1351.5
2907.996	1337.5
2911.358	1370.5
2914.717	1353.5
2918.073	1375.5
2921.426	1388.5
2924.777	1393.5
2928.124	1430.5
2931.469	1463.5
2934.811	1481.5
2938.15	1497.5
2941.487	1489.5
2944.821	1527.5
2948.152	1537.5
2951.48	1516.5
2954.805	1517.5
2958.128	1481.5
2961.447	1473.5
2964.765	1484.5
2968.079	1487.5
2971.39	1497.5
2974.699	1514.5
2978.005	1548.5
2981.308	1568.5
2984.609	1600.5
2987.907	1633.5
2991.202	1662.5
2994.494	1715.5
2997.784	1742.5
3001.07	1761.5
3004.355	1797.5
3007.636	1824.5
3010.915	1851.5
3014.191	1861.5
3017.464	1849.5
3020.734	1890.5
3024.002	1882.5
3027.267	1899.5
3030.53	1914.5
3033.789	1943.5
3037.046	1965.5
3040.301	2012.5
3043.552	2045.5
3046.801	2066.5
3050.048	2113.5
3053.291	2164.5
3056.532	2219.5
3059.771	2284.5
3063.006	2368.5
3066.239	2438.5
3069.469	2508.5
3072.697	2546.5
3075.922	2614.5
3079.144	2700.5
3082.364	2782.5
3085.581	2833.5
3088.795	2877.5
3092.007	2921.5
3095.216	3034.5
3098.423	3058.5
3101.627	3152.5
3104.828	3208.5
3108.026	3274.5
3111.222	3364.5
3114.416	3444.5
3117.607	3508.5
3120.795	3583.5
3123.98	3681.5
3127.163	3778.5
3130.344	3842.5
3133.521	3949.5
3136.696	4038.5
3139.869	4110.5
3143.039	4224.5
3146.206	4239.5
3149.371	4274.5
3152.533	4335.5
3155.693	4381.5
3158.85	4393.5
3162.005	4381.5
3165.157	4456.5
3168.306	4426.5
3171.453	4441.5
3174.597	4464.5
3177.739	4462.5
3180.878	4464.5
3184.014	4492.5
3187.149	4500.5
3190.28	4476.5
3193.409	4513.5
3196.536	4512.5
3199.659	4505.5
3202.781	4532.5
3205.9	4521.5
3209.016	4510.5
3212.13	4495.5
3215.241	4462.5
3218.35	4444.5
3221.456	4389.5
3224.56	4313.5
3227.661	4294.5
3230.76	4270.5
3233.856	4216.5
3236.95	4201.5
3240.041	4199.5
3243.13	4116.5
3246.216	4112.5
3249.3	4118.5
3252.382	4080.5
3255.46	4061.5
3258.537	4024.5
3261.611	4044.5
3264.682	4025.5
3267.751	4054.5
3270.818	4039.5
3273.882	4018.5
3276.943	3993.5
3280.002	3977.5
3283.059	3920.5
3286.113	3872.5
3289.165	3830.5
3292.214	3778.5
3295.261	3674.5
3298.306	3637.5
3301.348	3590.5
3304.387	3533.5
3307.425	3457.5
3310.459	3414.5
3313.492	3368.5
3316.521	3326.5
3319.549	3291.5
3322.574	3254.5
3325.597	3213.5
3328.617	3199.5
3331.635	3202.5
3334.65	3174.5
3337.663	3132.5
3340.674	3149.5
3343.682	3111.5
3346.688	3134.5
3349.691	3092.5
3352.692	3083.5
3355.691	3059.5
3358.687	3052.5
3361.681	2981.5
3364.673	2934.5
3367.662	2913.5
3370.649	2844.5
3373.633	2838.5
3376.615	2781.5
3379.595	2751.5
3382.572	2693.5
3385.547	2678.5
3388.52	2630.5
3391.49	2617.5
3394.458	2544.5
3397.424	2524.5
3400.387	2499.5
3403.348	2472.5
3406.307	2432.5
3409.263	2421.5
3412.217	2385.5
3415.168	2346.5
3418.118	2326.5
3421.065	2312.5
3424.009	2276.5
3426.951	2244.5
3429.891	2201.5
3432.829	2126.5
3435.764	2102.5
3438.697	2050.5
3441.628	1995.5
3444.557	1936.5
3447.483	1863.5
3450.407	1819.5
3453.328	1776.5
3456.247	1723.5
3459.164	1635.5
3462.079	1604.5
3464.991	1554.5
3467.902	1502.5
3470.809	1429.5
3473.715	1389.5
3476.618	1346.5
3479.519	1291.5
3482.418	1267.5
3485.315	1204.5
3488.209	1179.5
3491.101	1143.5
3493.99	1093.5
3496.878	1045.5
3499.763	1041.5
3502.646	988.5
3505.527	942.5
3508.405	906.5
3511.281	851.5
3514.155	819.5
3517.027	770.5
3519.897	729.5
3522.764	666.5
3525.629	613.5
3528.492	573.5
3531.352	524.5
3534.211	487.5
3537.067	446.5
3539.921	412.5
3542.773	376.5
3545.622	334.5
3548.469	286.5
3551.315	265.5
3554.157	239.5
3556.998	202.5
3559.837	185.5
3562.673	164.5
3565.507	114.5
3568.339	100.5
3571.169	88.5
3573.996	63.5
3576.822	40.5
3579.645	9.5
3582.466	-3.5
3585.285	-24.5
3588.101	-57.5
3590.916	-71.5
3593.728	-107.5
3596.538	-108.5
3599.346	-135.5
3602.152	-171.5
3604.956	-176.5
3607.757	-186.5
3610.556	-206.5
3613.354	-215.5
3616.149	-234.5
3618.942	-255.5
3621.732	-268.5
3624.521	-281.5
3627.307	-302.5
3630.092	-307.5
3632.874	-317.5
3635.654	-327.5
3638.432	-330.5
3641.208	-350.5
3643.982	-358.5
3646.753	-372.5
3649.523	-365.5
3652.29	-380.5
3655.055	-384.5
3657.818	-407.5
3660.579	-420.5
3663.338	-433.5
3666.095	-435.5
3668.849	-454.5
3671.602	-460.5
3674.352	-466.5
3677.101	-475.5
3679.847	-488.5
3682.591	-490.5
3685.333	-505.5
3688.073	-501.5
3690.811	-509.5
3693.547	-515.5
3696.281	-523.5
3699.013	-520.5
3701.742	-531.5
3704.47	-537.5
3707.195	-540.5
3709.919	-539.5
3712.64	-553.5
3715.359	-554.5
3718.076	-554.5
3720.792	-558.5
3723.505	-560.5
3726.216	-568.5
3728.925	-565.5
3731.632	-573.5
3734.336	-580.5
3737.039	-578.5
3739.74	-582.5
3742.439	-581.5
3745.136	-587.5
3747.83	-592.5
3750.523	-593.5
3753.213	-591.5
3755.902	-600.5
3758.589	-600.5
3761.273	-605.5
3763.956	-604.5
3766.636	-611.5
3769.315	-614.5
3771.991	-613.5
3774.665	-620.5
3777.338	-616.5
3780.008	-620.5
3782.677	-617.5
3785.343	-607.5
3788.007	-621.5
3790.67	-619.5
3793.33	-618.5
3795.989	-621.5
3798.645	-615.5
3801.299	-622.5
3803.952	-627.5
3806.602	-636.5
3809.251	-640.5
3811.897	-631.5
3814.542	-629.5
3817.184	-633.5
3819.825	-626.5
3822.463	-629.5
3825.1	-635.5
3827.735	-636.5
3830.367	-633.5
3832.998	-648.5
3835.627	-646.5
3838.253	-644.5
3840.878	-648.5
3843.501	-638.5
3846.122	-639.5
3848.741	-639.5
3851.358	-640.5
3853.973	-638.5
3856.586	-642.5
3859.197	-648.5
3861.806	-645.5
3864.414	-645.5
3867.019	-640.5
3869.622	-646.5
3872.224	-638.5
3874.823	-625.5
3877.421	-608.5
3880.016	-601.5
3882.61	-571.5
3885.202	-565.5
3887.792	-585.5
3890.38	-613.5
3892.966	-635.5
3895.55	-644.5
3898.132	-665.5
3900.713	-664.5
3903.291	-655.5
3905.868	-661.5
3908.442	-657.5
3911.015	-661.5
3913.586	-655.5
3916.155	-658.5
3918.722	-657.5
3921.287	-655.5
3923.85	-659.5
3926.411	-660.5
3928.971	-667.5
3931.528	-658.5
3934.084	-665.5
3936.638	-663.5
3939.19	-663.5
3941.74	-657.5
3944.288	-671.5
3946.834	-660.5
3949.378	-661.5
3951.921	-661.5
3954.462	-670.5
3957	-659.5
3959.537	-668.5
3962.072	-661.5
3964.606	-664.5
3967.137	-656.5
3969.667	-664.5
3972.194	-656.5
3974.72	-657.5
3977.244	-650.5
3979.766	-650.5
3982.286	-652.5
3984.805	-646.5
3987.321	-644.5
3989.836	-648.5
3992.349	-638.5
3994.86	-640.5
3997.369	-661.5
3999.877	-644.5
4002.382	-650.5
4004.886	-648.5
4007.388	-642.5
4009.888	-650.5
4012.386	-649.5
4014.883	-648.5
4017.377	-648.5
4019.87	-643.5
4022.361	-647.5
4024.85	-652.5
4027.338	-648.5
4029.823	-654.5
4032.307	-650.5
4034.789	-645.5
4037.269	-645.5
4039.747	-649.5
4042.224	-651.5
4044.699	-653.5
4047.172	-647.5
4049.643	-646.5
4052.112	-656.5
4054.58	-652.5
4057.046	-648.5
4059.51	-654.5
4061.972	-653.5
4064.432	-655.5
4066.891	-653.5
4069.348	-649.5
4071.803	-651.5
4074.256	-646.5
4076.708	-651.5
4079.158	-654.5
4081.606	-653.5
4084.052	-652.5
4086.497	-650.5
4088.939	-648.5
4091.38	-648.5
4093.819	-648.5
4096.257	-686.5
4098.693	-685.5
4101.127	-684.5
4103.559	-684.5
4105.989	-396.5
4108.418	-378.5
4110.845	-350.5
4113.27	-321.5
4115.694	-284.5
4118.115	-229.5
4120.535	-650.5
4122.954	-647.5
4125.37	-642.5
4127.785	-650.5
4130.198	-652.5
4132.609	-654.5
4135.019	-681.5
4137.427	-685.5
4139.833	-687.5
4142.237	-684.5
