Data from 2018-2-14_conc=4_n=4_RamanShift_03.txt Node
Date: Wed Feb 14 13:37:55 IST 2018
User: aro
Spectrometer: QEPB0276
Trigger mode: 0
Integration Time (sec): 3.000000E1
Scans to average: 1
Electric dark correction enabled: true
Nonlinearity correction enabled: false
Boxcar width: 0
XAxis mode: Raman Shifts
Number of Pixels in Spectrum: 1044
>>>>>Begin Spectral Data<<<<<
160.701	-149.5
166.742	42.5
172.777	595.5
178.805	2295.5
184.826	6345.5
190.841	13264.5
196.849	21233.5
202.85	26867.5
208.845	28626.5
214.833	28245.5
220.815	27736.5
226.789	27570.5
232.758	27435.5
238.719	27171.5
244.674	26760.5
250.623	26254.5
256.565	25738.5
262.5	25174.5
268.429	24707.5
274.351	24282.5
280.267	23974.5
286.176	23743.5
292.079	23425.5
297.975	23190.5
303.865	23012.5
309.748	22814.5
315.625	22726.5
321.495	22547.5
327.359	22430.5
333.217	22445.5
339.068	22356.5
344.912	22370.5
350.751	22287.5
356.583	22257.5
362.408	22325.5
368.227	22266.5
374.04	22307.5
379.847	22359.5
385.647	22393.5
391.44	22467.5
397.228	22587.5
403.009	22714.5
408.784	22736.5
414.553	22844.5
420.315	22910.5
426.071	22871.5
431.821	22943.5
437.565	22851.5
443.302	22815.5
449.033	22758.5
454.758	22774.5
460.477	22685.5
466.189	22595.5
471.896	22563.5
477.596	22535.5
483.29	22483.5
488.978	22425.5
494.66	22356.5
500.335	22226.5
506.005	21979.5
511.668	21742.5
517.325	21469.5
522.977	21265.5
528.622	21098.5
534.261	21014.5
539.894	20867.5
545.521	20844.5
551.141	20760.5
556.756	20663.5
562.365	20581.5
567.968	20477.5
573.565	20430.5
579.155	20299.5
584.74	20289.5
590.319	20170.5
595.892	20072.5
601.459	20053.5
607.02	19928.5
612.575	19849.5
618.124	19728.5
623.667	19537.5
629.204	19539.5
634.735	19380.5
640.261	19324.5
645.781	19333.5
651.294	19171.5
656.802	19206.5
662.304	19139.5
667.8	19136.5
673.29	19073.5
678.775	19018.5
684.254	18972.5
689.726	18933.5
695.193	18880.5
700.655	18770.5
706.11	18692.5
711.56	18601.5
717.004	18481.5
722.442	18427.5
727.874	18283.5
733.301	18212.5
738.722	18199.5
744.137	18249.5
749.547	18182.5
754.951	18193.5
760.349	18189.5
765.741	18188.5
771.128	18161.5
776.509	18212.5
781.885	18211.5
787.254	18132.5
792.618	18094.5
797.977	17960.5
803.33	17829.5
808.677	17759.5
814.019	17673.5
819.355	17603.5
824.686	17455.5
830.011	17444.5
835.33	17435.5
840.644	17464.5
845.952	17458.5
851.255	17518.5
856.552	17542.5
861.844	17482.5
867.13	17447.5
872.41	17348.5
877.686	17285.5
882.955	17172.5
888.219	17009.5
893.478	16826.5
898.731	16609.5
903.979	16458.5
909.221	16318.5
914.458	16277.5
919.69	16269.5
924.916	16297.5
930.136	16373.5
935.351	16360.5
940.561	16393.5
945.766	16282.5
950.965	16239.5
956.158	16190.5
961.347	15994.5
966.529	15785.5
971.707	15599.5
976.879	15398.5
982.046	15250.5
987.208	15237.5
992.364	15173.5
997.515	15302.5
1002.66	15455.5
1007.801	15584.5
1012.936	15724.5
1018.066	15722.5
1023.19	15703.5
1028.309	15684.5
1033.423	15692.5
1038.532	15605.5
1043.636	15490.5
1048.734	15268.5
1053.827	15094.5
1058.915	14974.5
1063.998	14797.5
1069.075	14784.5
1074.147	14853.5
1079.214	14854.5
1084.276	14916.5
1089.333	15038.5
1094.385	15083.5
1099.431	15139.5
1104.472	15104.5
1109.509	15068.5
1114.54	14898.5
1119.565	14697.5
1124.586	14489.5
1129.602	14365.5
1134.613	14226.5
1139.618	14117.5
1144.619	14142.5
1149.614	14123.5
1154.604	14177.5
1159.589	14188.5
1164.57	14253.5
1169.545	14291.5
1174.515	14259.5
1179.48	14142.5
1184.44	14029.5
1189.395	13896.5
1194.345	13883.5
1199.29	13799.5
1204.23	13826.5
1209.165	13835.5
1214.095	13902.5
1219.021	13944.5
1223.941	14077.5
1228.856	14088.5
1233.766	14170.5
1238.672	14160.5
1243.572	14195.5
1248.467	14085.5
1253.358	13919.5
1258.244	13740.5
1263.124	13517.5
1268	13277.5
1272.871	13113.5
1277.737	13054.5
1282.599	12946.5
1287.455	13010.5
1292.306	12986.5
1297.153	13062.5
1301.995	13136.5
1306.832	13184.5
1311.664	13208.5
1316.491	13181.5
1321.314	13073.5
1326.132	12905.5
1330.945	12566.5
1335.753	12260.5
1340.556	11925.5
1345.354	11703.5
1350.148	11510.5
1354.937	11438.5
1359.722	11431.5
1364.501	11505.5
1369.276	11614.5
1374.046	11751.5
1378.811	12007.5
1383.572	12125.5
1388.327	12185.5
1393.079	12143.5
1397.825	11911.5
1402.567	11761.5
1407.304	11605.5
1412.036	11484.5
1416.764	11389.5
1421.487	11269.5
1426.205	11232.5
1430.919	11204.5
1435.628	11230.5
1440.333	11254.5
1445.032	11266.5
1449.727	11285.5
1454.418	11319.5
1459.104	11178.5
1463.785	10996.5
1468.462	10729.5
1473.134	10518.5
1477.802	10311.5
1482.465	10070.5
1487.123	10045.5
1491.777	10019.5
1496.426	10045.5
1501.071	10205.5
1505.711	10307.5
1510.347	10567.5
1514.978	10729.5
1519.604	10950.5
1524.226	10973.5
1528.844	10976.5
1533.457	10982.5
1538.065	10938.5
1542.669	10854.5
1547.269	10776.5
1551.864	10705.5
1556.454	10645.5
1561.041	10595.5
1565.622	10672.5
1570.199	10619.5
1574.772	10659.5
1579.34	10786.5
1583.904	10830.5
1588.464	10857.5
1593.019	10843.5
1597.569	10817.5
1602.115	10740.5
1606.657	10691.5
1611.195	10631.5
1615.728	10562.5
1620.256	10515.5
1624.78	10532.5
1629.3	10495.5
1633.816	10553.5
1638.327	10637.5
1642.834	10663.5
1647.336	10713.5
1651.834	10781.5
1656.328	10712.5
1660.817	10710.5
1665.302	10556.5
1669.783	10413.5
1674.259	10210.5
1678.732	9901.5
1683.199	9569.5
1687.663	9223.5
1692.122	8978.5
1696.577	8820.5
1701.028	8825.5
1705.474	8892.5
1709.917	8999.5
1714.355	9015.5
1718.788	8973.5
1723.218	8820.5
1727.643	8652.5
1732.064	8442.5
1736.481	8248.5
1740.893	8128.5
1745.301	7841.5
1749.705	7667.5
1754.105	7434.5
1758.501	7220.5
1762.893	7004.5
1767.28	6874.5
1771.663	6724.5
1776.042	6611.5
1780.417	6541.5
1784.787	6569.5
1789.154	6656.5
1793.516	6785.5
1797.874	6916.5
1802.228	7006.5
1806.578	7071.5
1810.924	7143.5
1815.266	6981.5
1819.603	6937.5
1823.937	6784.5
1828.266	6677.5
1832.591	6532.5
1836.913	6487.5
1841.23	6414.5
1845.543	6382.5
1849.852	6311.5
1854.156	6315.5
1858.457	6279.5
1862.754	6273.5
1867.047	6268.5
1871.335	6271.5
1875.62	6287.5
1879.9	6254.5
1884.177	6192.5
1888.449	6182.5
1892.718	6094.5
1896.982	6045.5
1901.243	5992.5
1905.499	5917.5
1909.752	5954.5
1914	5947.5
1918.245	5940.5
1922.485	6015.5
1926.722	6082.5
1930.954	6156.5
1935.183	6231.5
1939.408	6278.5
1943.628	6322.5
1947.845	6346.5
1952.058	6331.5
1956.267	6275.5
1960.472	6189.5
1964.673	6078.5
1968.87	5973.5
1973.063	5903.5
1977.252	5801.5
1981.438	5718.5
1985.619	5694.5
1989.797	5618.5
1993.971	5618.5
1998.14	5581.5
2002.306	5537.5
2006.469	5513.5
2010.627	5481.5
2014.781	5463.5
2018.932	5415.5
2023.078	5357.5
2027.221	5278.5
2031.36	5213.5
2035.495	5144.5
2039.627	5073.5
2043.754	5012.5
2047.878	4944.5
2051.998	4942.5
2056.114	4906.5
2060.226	4928.5
2064.334	4909.5
2068.439	4964.5
2072.54	4962.5
2076.637	5003.5
2080.73	5053.5
2084.82	5080.5
2088.906	5097.5
2092.988	5097.5
2097.066	5081.5
2101.14	5033.5
2105.211	5012.5
2109.278	4974.5
2113.342	4950.5
2117.401	4911.5
2121.457	4921.5
2125.509	4853.5
2129.558	4850.5
2133.602	4824.5
2137.643	4784.5
2141.681	4764.5
2145.714	4751.5
2149.744	4648.5
2153.77	4659.5
2157.793	4620.5
2161.812	4556.5
2165.827	4480.5
2169.838	4425.5
2173.846	4313.5
2177.851	4250.5
2181.851	4198.5
2185.848	4163.5
2189.841	4111.5
2193.831	4064.5
2197.817	4030.5
2201.799	4011.5
2205.778	3981.5
2209.753	4003.5
2213.725	3987.5
2217.693	3932.5
2221.657	3933.5
2225.618	3929.5
2229.575	3909.5
2233.529	3850.5
2237.479	3836.5
2241.425	3820.5
2245.368	3761.5
2249.307	3676.5
2253.243	3636.5
2257.175	3567.5
2261.104	3533.5
2265.029	3501.5
2268.95	3446.5
2272.868	3415.5
2276.783	3390.5
2280.694	3368.5
2284.601	3320.5
2288.505	3291.5
2292.405	3238.5
2296.302	3219.5
2300.195	3180.5
2304.085	3190.5
2307.971	3089.5
2311.854	3052.5
2315.734	3010.5
2319.609	2970.5
2323.482	2929.5
2327.351	2889.5
2331.216	2878.5
2335.078	2859.5
2338.937	2827.5
2342.792	2802.5
2346.643	2822.5
2350.492	2801.5
2354.336	2811.5
2358.178	2827.5
2362.015	2838.5
2365.85	2827.5
2369.681	2819.5
2373.508	2841.5
2377.333	2816.5
2381.153	2786.5
2384.971	2792.5
2388.785	2772.5
2392.595	2746.5
2396.402	2722.5
2400.206	2683.5
2404.007	2665.5
2407.804	2669.5
2411.597	2636.5
2415.388	2633.5
2419.174	2628.5
2422.958	2592.5
2426.738	2547.5
2430.515	2537.5
2434.289	2526.5
2438.059	2529.5
2441.825	2461.5
2445.589	2458.5
2449.349	2446.5
2453.106	2401.5
2456.859	2356.5
2460.61	2324.5
2464.356	2323.5
2468.1	2292.5
2471.84	2252.5
2475.577	2251.5
2479.311	2256.5
2483.041	2221.5
2486.768	2221.5
2490.492	2180.5
2494.213	2200.5
2497.93	2185.5
2501.644	2178.5
2505.355	2172.5
2509.062	2160.5
2512.766	2161.5
2516.467	2136.5
2520.165	2122.5
2523.859	2112.5
2527.551	2111.5
2531.239	2070.5
2534.923	2096.5
2538.605	2076.5
2542.283	2061.5
2545.958	2042.5
2549.63	2071.5
2553.299	2048.5
2556.964	2050.5
2560.626	2024.5
2564.285	2030.5
2567.941	2030.5
2571.594	2026.5
2575.243	1984.5
2578.89	1954.5
2582.533	1944.5
2586.173	1956.5
2589.809	1933.5
2593.443	1923.5
2597.073	1887.5
2600.701	1884.5
2604.325	1872.5
2607.946	1857.5
2611.564	1827.5
2615.178	1824.5
2618.79	1810.5
2622.398	1795.5
2626.004	1782.5
2629.606	1773.5
2633.205	1753.5
2636.801	1720.5
2640.394	1691.5
2643.983	1661.5
2647.57	1637.5
2651.153	1606.5
2654.734	1586.5
2658.311	1567.5
2661.885	1539.5
2665.456	1525.5
2669.025	1504.5
2672.589	1483.5
2676.151	1454.5
2679.71	1449.5
2683.266	1418.5
2686.819	1411.5
2690.368	1362.5
2693.915	1346.5
2697.458	1327.5
2700.999	1269.5
2704.536	1250.5
2708.071	1221.5
2711.602	1221.5
2715.13	1175.5
2718.656	1157.5
2722.178	1166.5
2725.697	1120.5
2729.214	1115.5
2732.727	1114.5
2736.237	1100.5
2739.744	1119.5
2743.249	1121.5
2746.75	1133.5
2750.248	1134.5
2753.743	1135.5
2757.236	1158.5
2760.725	1177.5
2764.211	1170.5
2767.695	1172.5
2771.175	1178.5
2774.652	1174.5
2778.127	1163.5
2781.598	1153.5
2785.067	1136.5
2788.532	1150.5
2791.995	1123.5
2795.455	1128.5
2798.911	1150.5
2802.365	1142.5
2805.816	1121.5
2809.264	1133.5
2812.709	1129.5
2816.151	1117.5
2819.59	1147.5
2823.026	1125.5
2826.46	1135.5
2829.89	1130.5
2833.318	1136.5
2836.742	1132.5
2840.164	1145.5
2843.583	1142.5
2846.999	1160.5
2850.412	1175.5
2853.822	1192.5
2857.229	1192.5
2860.634	1229.5
2864.035	1260.5
2867.434	1241.5
2870.83	1277.5
2874.223	1310.5
2877.613	1322.5
2881	1354.5
2884.385	1340.5
2887.766	1346.5
2891.145	1339.5
2894.521	1341.5
2897.894	1349.5
2901.264	1339.5
2904.631	1346.5
2907.996	1350.5
2911.358	1354.5
2914.717	1360.5
2918.073	1371.5
2921.426	1386.5
2924.777	1408.5
2928.124	1414.5
2931.469	1454.5
2934.811	1475.5
2938.15	1508.5
2941.487	1500.5
2944.821	1531.5
2948.152	1511.5
2951.48	1502.5
2954.805	1493.5
2958.128	1453.5
2961.447	1489.5
2964.765	1464.5
2968.079	1474.5
2971.39	1485.5
2974.699	1498.5
2978.005	1515.5
2981.308	1540.5
2984.609	1580.5
2987.907	1615.5
2991.202	1638.5
2994.494	1666.5
2997.784	1691.5
3001.07	1745.5
3004.355	1768.5
3007.636	1790.5
3010.915	1825.5
3014.191	1828.5
3017.464	1823.5
3020.734	1861.5
3024.002	1866.5
3027.267	1875.5
3030.53	1879.5
3033.789	1890.5
3037.046	1897.5
3040.301	1967.5
3043.552	1985.5
3046.801	2042.5
3050.048	2060.5
3053.291	2121.5
3056.532	2169.5
3059.771	2235.5
3063.006	2309.5
3066.239	2370.5
3069.469	2425.5
3072.697	2474.5
3075.922	2565.5
3079.144	2611.5
3082.364	2687.5
3085.581	2740.5
3088.795	2808.5
3092.007	2839.5
3095.216	2917.5
3098.423	2952.5
3101.627	3018.5
3104.828	3106.5
3108.026	3176.5
3111.222	3228.5
3114.416	3330.5
3117.607	3383.5
3120.795	3456.5
3123.98	3552.5
3127.163	3635.5
3130.344	3711.5
3133.521	3801.5
3136.696	3896.5
3139.869	3958.5
3143.039	4053.5
3146.206	4086.5
3149.371	4133.5
3152.533	4179.5
3155.693	4189.5
3158.85	4232.5
3162.005	4238.5
3165.157	4265.5
3168.306	4272.5
3171.453	4281.5
3174.597	4304.5
3177.739	4296.5
3180.878	4312.5
3184.014	4332.5
3187.149	4339.5
3190.28	4311.5
3193.409	4342.5
3196.536	4350.5
3199.659	4359.5
3202.781	4365.5
3205.9	4334.5
3209.016	4344.5
3212.13	4343.5
3215.241	4308.5
3218.35	4259.5
3221.456	4248.5
3224.56	4207.5
3227.661	4128.5
3230.76	4091.5
3233.856	4045.5
3236.95	4041.5
3240.041	3993.5
3243.13	3966.5
3246.216	3930.5
3249.3	3945.5
3252.382	3921.5
3255.46	3886.5
3258.537	3851.5
3261.611	3901.5
3264.682	3891.5
3267.751	3850.5
3270.818	3887.5
3273.882	3853.5
3276.943	3842.5
3280.002	3803.5
3283.059	3762.5
3286.113	3695.5
3289.165	3685.5
3292.214	3595.5
3295.261	3527.5
3298.306	3493.5
3301.348	3427.5
3304.387	3381.5
3307.425	3334.5
3310.459	3273.5
3313.492	3243.5
3316.521	3198.5
3319.549	3156.5
3322.574	3126.5
3325.597	3082.5
3328.617	3072.5
3331.635	3051.5
3334.65	3023.5
3337.663	3006.5
3340.674	2969.5
3343.682	2991.5
3346.688	2988.5
3349.691	2946.5
3352.692	2949.5
3355.691	2919.5
3358.687	2903.5
3361.681	2869.5
3364.673	2826.5
3367.662	2761.5
3370.649	2735.5
3373.633	2705.5
3376.615	2670.5
3379.595	2631.5
3382.572	2590.5
3385.547	2568.5
3388.52	2498.5
3391.49	2510.5
3394.458	2456.5
3397.424	2417.5
3400.387	2376.5
3403.348	2321.5
3406.307	2330.5
3409.263	2280.5
3412.217	2257.5
3415.168	2247.5
3418.118	2223.5
3421.065	2208.5
3424.009	2178.5
3426.951	2129.5
3429.891	2084.5
3432.829	2040.5
3435.764	2003.5
3438.697	1944.5
3441.628	1888.5
3444.557	1833.5
3447.483	1775.5
3450.407	1717.5
3453.328	1688.5
3456.247	1633.5
3459.164	1564.5
3462.079	1490.5
3464.991	1456.5
3467.902	1408.5
3470.809	1350.5
3473.715	1301.5
3476.618	1272.5
3479.519	1227.5
3482.418	1190.5
3485.315	1137.5
3488.209	1105.5
3491.101	1066.5
3493.99	1019.5
3496.878	992.5
3499.763	957.5
3502.646	909.5
3505.527	862.5
3508.405	837.5
3511.281	777.5
3514.155	754.5
3517.027	709.5
3519.897	659.5
3522.764	597.5
3525.629	559.5
3528.492	519.5
3531.352	486.5
3534.211	441.5
3537.067	399.5
3539.921	372.5
3542.773	323.5
3545.622	291.5
3548.469	264.5
3551.315	226.5
3554.157	216.5
3556.998	155.5
3559.837	140.5
3562.673	120.5
3565.507	87.5
3568.339	67.5
3571.169	49.5
3573.996	32.5
3576.822	1.5
3579.645	-13.5
3582.466	-33.5
3585.285	-62.5
3588.101	-90.5
3590.916	-110.5
3593.728	-134.5
3596.538	-143.5
3599.346	-161.5
3602.152	-181.5
3604.956	-202.5
3607.757	-214.5
3610.556	-240.5
3613.354	-246.5
3616.149	-261.5
3618.942	-273.5
3621.732	-284.5
3624.521	-297.5
3627.307	-303.5
3630.092	-326.5
3632.874	-327.5
3635.654	-347.5
3638.432	-354.5
3641.208	-357.5
3643.982	-372.5
3646.753	-383.5
3649.523	-399.5
3652.29	-395.5
3655.055	-417.5
3657.818	-426.5
3660.579	-433.5
3663.338	-451.5
3666.095	-461.5
3668.849	-464.5
3671.602	-476.5
3674.352	-486.5
3677.101	-493.5
3679.847	-500.5
3682.591	-507.5
3685.333	-511.5
3688.073	-515.5
3690.811	-530.5
3693.547	-523.5
3696.281	-530.5
3699.013	-537.5
3701.742	-538.5
3704.47	-544.5
3707.195	-559.5
3709.919	-559.5
3712.64	-559.5
3715.359	-561.5
3718.076	-567.5
3720.792	-565.5
3723.505	-565.5
3726.216	-584.5
3728.925	-581.5
3731.632	-584.5
3734.336	-591.5
3737.039	-595.5
3739.74	-592.5
3742.439	-594.5
3745.136	-600.5
3747.83	-606.5
3750.523	-605.5
3753.213	-598.5
3755.902	-608.5
3758.589	-615.5
3761.273	-606.5
3763.956	-613.5
3766.636	-613.5
3769.315	-619.5
3771.991	-622.5
3774.665	-626.5
3777.338	-619.5
3780.008	-626.5
3782.677	-620.5
3785.343	-621.5
3788.007	-626.5
3790.67	-627.5
3793.33	-630.5
3795.989	-631.5
3798.645	-625.5
3801.299	-632.5
3803.952	-641.5
3806.602	-646.5
3809.251	-647.5
3811.897	-641.5
3814.542	-645.5
3817.184	-645.5
3819.825	-645.5
3822.463	-643.5
3825.1	-644.5
3827.735	-640.5
3830.367	-641.5
3832.998	-650.5
3835.627	-650.5
3838.253	-651.5
3840.878	-654.5
3843.501	-653.5
3846.122	-648.5
3848.741	-649.5
3851.358	-650.5
3853.973	-652.5
3856.586	-650.5
3859.197	-656.5
3861.806	-658.5
3864.414	-649.5
3867.019	-652.5
3869.622	-651.5
3872.224	-652.5
3874.823	-636.5
3877.421	-622.5
3880.016	-607.5
3882.61	-596.5
3885.202	-585.5
3887.792	-606.5
3890.38	-628.5
3892.966	-648.5
3895.55	-656.5
3898.132	-665.5
3900.713	-670.5
3903.291	-664.5
3905.868	-664.5
3908.442	-666.5
3911.015	-667.5
3913.586	-661.5
3916.155	-662.5
3918.722	-664.5
3921.287	-661.5
3923.85	-671.5
3926.411	-671.5
3928.971	-673.5
3931.528	-670.5
3934.084	-671.5
3936.638	-668.5
3939.19	-671.5
3941.74	-670.5
3944.288	-676.5
3946.834	-670.5
3949.378	-673.5
3951.921	-670.5
3954.462	-675.5
3957	-669.5
3959.537	-671.5
3962.072	-669.5
3964.606	-676.5
3967.137	-673.5
3969.667	-673.5
3972.194	-663.5
3974.72	-669.5
3977.244	-661.5
3979.766	-658.5
3982.286	-660.5
3984.805	-656.5
3987.321	-655.5
3989.836	-657.5
3992.349	-653.5
3994.86	-655.5
3997.369	-662.5
3999.877	-653.5
4002.382	-652.5
4004.886	-650.5
4007.388	-651.5
4009.888	-656.5
4012.386	-660.5
4014.883	-656.5
4017.377	-655.5
4019.87	-656.5
4022.361	-654.5
4024.85	-658.5
4027.338	-662.5
4029.823	-662.5
4032.307	-663.5
4034.789	-656.5
4037.269	-656.5
4039.747	-662.5
4042.224	-664.5
4044.699	-661.5
4047.172	-658.5
4049.643	-656.5
4052.112	-661.5
4054.58	-664.5
4057.046	-664.5
4059.51	-664.5
4061.972	-662.5
4064.432	-662.5
4066.891	-659.5
4069.348	-659.5
4071.803	-655.5
4074.256	-654.5
4076.708	-659.5
4079.158	-661.5
4081.606	-662.5
4084.052	-665.5
4086.497	-661.5
4088.939	-655.5
4091.38	-661.5
4093.819	-658.5
4096.257	-692.5
4098.693	-697.5
4101.127	-697.5
4103.559	-693.5
4105.989	-404.5
4108.418	-378.5
4110.845	-359.5
4113.27	-338.5
4115.694	-297.5
4118.115	-243.5
4120.535	-660.5
4122.954	-659.5
4125.37	-651.5
4127.785	-658.5
4130.198	-659.5
4132.609	-661.5
4135.019	-696.5
4137.427	-696.5
4139.833	-695.5
4142.237	-695.5
