Data from 2018-2-14_conc=5_n=3_RamanShift_05.txt Node
Date: Wed Feb 14 14:12:55 IST 2018
User: aro
Spectrometer: QEPB0276
Trigger mode: 0
Integration Time (sec): 3.000000E1
Scans to average: 1
Electric dark correction enabled: true
Nonlinearity correction enabled: false
Boxcar width: 0
XAxis mode: Raman Shifts
Number of Pixels in Spectrum: 1044
>>>>>Begin Spectral Data<<<<<
160.701	-139.8
166.742	52.2
172.777	546.2
178.805	2077.2
184.826	5712.2
190.841	12045.2
196.849	19356.2
202.85	24560.2
208.845	26261.2
214.833	26019.2
220.815	25557.2
226.789	25379.2
232.758	25168.2
238.719	24997.2
244.674	24690.2
250.623	24223.2
256.565	23680.2
262.5	23269.2
268.429	22675.2
274.351	22352.2
280.267	22112.2
286.176	21861.2
292.079	21586.2
297.975	21360.2
303.865	21182.2
309.748	21004.2
315.625	20898.2
321.495	20697.2
327.359	20736.2
333.217	20655.2
339.068	20620.2
344.912	20548.2
350.751	20545.2
356.583	20479.2
362.408	20523.2
368.227	20550.2
374.04	20502.2
379.847	20570.2
385.647	20634.2
391.44	20726.2
397.228	20765.2
403.009	20995.2
408.784	20934.2
414.553	21002.2
420.315	21040.2
426.071	21149.2
431.821	21050.2
437.565	21075.2
443.302	21076.2
449.033	20987.2
454.758	20952.2
460.477	20889.2
466.189	20850.2
471.896	20735.2
477.596	20773.2
483.29	20701.2
488.978	20649.2
494.66	20599.2
500.335	20413.2
506.005	20219.2
511.668	19993.2
517.325	19733.2
522.977	19558.2
528.622	19349.2
534.261	19282.2
539.894	19149.2
545.521	19137.2
551.141	19041.2
556.756	18969.2
562.365	18861.2
567.968	18815.2
573.565	18699.2
579.155	18727.2
584.74	18642.2
590.319	18561.2
595.892	18503.2
601.459	18348.2
607.02	18280.2
612.575	18172.2
618.124	18117.2
623.667	18013.2
629.204	17882.2
634.735	17775.2
640.261	17731.2
645.781	17694.2
651.294	17622.2
656.802	17569.2
662.304	17569.2
667.8	17522.2
673.29	17531.2
678.775	17460.2
684.254	17404.2
689.726	17332.2
695.193	17241.2
700.655	17137.2
706.11	17121.2
711.56	17053.2
717.004	16908.2
722.442	16853.2
727.874	16752.2
733.301	16704.2
738.722	16592.2
744.137	16639.2
749.547	16643.2
754.951	16591.2
760.349	16604.2
765.741	16681.2
771.128	16591.2
776.509	16646.2
781.885	16633.2
787.254	16532.2
792.618	16545.2
797.977	16376.2
803.33	16303.2
808.677	16209.2
814.019	16103.2
819.355	16098.2
824.686	16013.2
830.011	15945.2
835.33	15934.2
840.644	15935.2
845.952	15968.2
851.255	15941.2
856.552	15999.2
861.844	15973.2
867.13	15921.2
872.41	15885.2
877.686	15759.2
882.955	15615.2
888.219	15508.2
893.478	15340.2
898.731	15127.2
903.979	15007.2
909.221	14905.2
914.458	14777.2
919.69	14839.2
924.916	14813.2
930.136	14899.2
935.351	14891.2
940.561	14938.2
945.766	14851.2
950.965	14841.2
956.158	14691.2
961.347	14574.2
966.529	14373.2
971.707	14136.2
976.879	14021.2
982.046	13873.2
987.208	13828.2
992.364	13833.2
997.515	13923.2
1002.66	14003.2
1007.801	14191.2
1012.936	14305.2
1018.066	14281.2
1023.19	14310.2
1028.309	14301.2
1033.423	14257.2
1038.532	14171.2
1043.636	14030.2
1048.734	13931.2
1053.827	13713.2
1058.915	13553.2
1063.998	13477.2
1069.075	13461.2
1074.147	13453.2
1079.214	13550.2
1084.276	13605.2
1089.333	13629.2
1094.385	13698.2
1099.431	13795.2
1104.472	13784.2
1109.509	13594.2
1114.54	13480.2
1119.565	13283.2
1124.586	13131.2
1129.602	13023.2
1134.613	12951.2
1139.618	12841.2
1144.619	12817.2
1149.614	12813.2
1154.604	12872.2
1159.589	12871.2
1164.57	12908.2
1169.545	12917.2
1174.515	12895.2
1179.48	12824.2
1184.44	12727.2
1189.395	12677.2
1194.345	12561.2
1199.29	12478.2
1204.23	12468.2
1209.165	12529.2
1214.095	12633.2
1219.021	12656.2
1223.941	12733.2
1228.856	12836.2
1233.766	12826.2
1238.672	12842.2
1243.572	12829.2
1248.467	12691.2
1253.358	12592.2
1258.244	12450.2
1263.124	12270.2
1268	12059.2
1272.871	11886.2
1277.737	11794.2
1282.599	11715.2
1287.455	11758.2
1292.306	11768.2
1297.153	11811.2
1301.995	11863.2
1306.832	11917.2
1311.664	11905.2
1316.491	11894.2
1321.314	11780.2
1326.132	11650.2
1330.945	11393.2
1335.753	11141.2
1340.556	10850.2
1345.354	10635.2
1350.148	10519.2
1354.937	10356.2
1359.722	10391.2
1364.501	10417.2
1369.276	10537.2
1374.046	10575.2
1378.811	10688.2
1383.572	10851.2
1388.327	10876.2
1393.079	10884.2
1397.825	10738.2
1402.567	10577.2
1407.304	10484.2
1412.036	10330.2
1416.764	10255.2
1421.487	10196.2
1426.205	10149.2
1430.919	10121.2
1435.628	10110.2
1440.333	10146.2
1445.032	10182.2
1449.727	10194.2
1454.418	10205.2
1459.104	10124.2
1463.785	9951.2
1468.462	9705.2
1473.134	9494.2
1477.802	9348.2
1482.465	9159.2
1487.123	9067.2
1491.777	9058.2
1496.426	9080.2
1501.071	9170.2
1505.711	9310.2
1510.347	9396.2
1514.978	9579.2
1519.604	9773.2
1524.226	9841.2
1528.844	9849.2
1533.457	9819.2
1538.065	9836.2
1542.669	9713.2
1547.269	9618.2
1551.864	9619.2
1556.454	9528.2
1561.041	9542.2
1565.622	9532.2
1570.199	9526.2
1574.772	9604.2
1579.34	9664.2
1583.904	9695.2
1588.464	9757.2
1593.019	9726.2
1597.569	9754.2
1602.115	9678.2
1606.657	9646.2
1611.195	9561.2
1615.728	9519.2
1620.256	9506.2
1624.78	9454.2
1629.3	9493.2
1633.816	9504.2
1638.327	9600.2
1642.834	9606.2
1647.336	9650.2
1651.834	9673.2
1656.328	9641.2
1660.817	9677.2
1665.302	9531.2
1669.783	9401.2
1674.259	9169.2
1678.732	8911.2
1683.199	8631.2
1687.663	8314.2
1692.122	8061.2
1696.577	7965.2
1701.028	7861.2
1705.474	7892.2
1709.917	7940.2
1714.355	7965.2
1718.788	7955.2
1723.218	7807.2
1727.643	7640.2
1732.064	7521.2
1736.481	7383.2
1740.893	7175.2
1745.301	7011.2
1749.705	6803.2
1754.105	6653.2
1758.501	6437.2
1762.893	6278.2
1767.28	6121.2
1771.663	6016.2
1776.042	5885.2
1780.417	5858.2
1784.787	5830.2
1789.154	5872.2
1793.516	5988.2
1797.874	6084.2
1802.228	6165.2
1806.578	6249.2
1810.924	6232.2
1815.266	6195.2
1819.603	6125.2
1823.937	6022.2
1828.266	5903.2
1832.591	5830.2
1836.913	5744.2
1841.23	5695.2
1845.543	5636.2
1849.852	5641.2
1854.156	5592.2
1858.457	5603.2
1862.754	5579.2
1867.047	5582.2
1871.335	5572.2
1875.62	5553.2
1879.9	5550.2
1884.177	5490.2
1888.449	5467.2
1892.718	5409.2
1896.982	5384.2
1901.243	5344.2
1905.499	5279.2
1909.752	5242.2
1914	5232.2
1918.245	5256.2
1922.485	5270.2
1926.722	5354.2
1930.954	5406.2
1935.183	5467.2
1939.408	5534.2
1943.628	5527.2
1947.845	5544.2
1952.058	5536.2
1956.267	5511.2
1960.472	5445.2
1964.673	5319.2
1968.87	5269.2
1973.063	5159.2
1977.252	5092.2
1981.438	5043.2
1985.619	4994.2
1989.797	4969.2
1993.971	4936.2
1998.14	4901.2
2002.306	4892.2
2006.469	4888.2
2010.627	4868.2
2014.781	4803.2
2018.932	4808.2
2023.078	4760.2
2027.221	4697.2
2031.36	4619.2
2035.495	4537.2
2039.627	4488.2
2043.754	4441.2
2047.878	4375.2
2051.998	4374.2
2056.114	4373.2
2060.226	4372.2
2064.334	4356.2
2068.439	4347.2
2072.54	4365.2
2076.637	4418.2
2080.73	4453.2
2084.82	4444.2
2088.906	4443.2
2092.988	4491.2
2097.066	4438.2
2101.14	4444.2
2105.211	4379.2
2109.278	4378.2
2113.342	4329.2
2117.401	4305.2
2121.457	4305.2
2125.509	4271.2
2129.558	4234.2
2133.602	4229.2
2137.643	4203.2
2141.681	4197.2
2145.714	4184.2
2149.744	4149.2
2153.77	4098.2
2157.793	4066.2
2161.812	4008.2
2165.827	3961.2
2169.838	3871.2
2173.846	3832.2
2177.851	3754.2
2181.851	3725.2
2185.848	3656.2
2189.841	3591.2
2193.831	3559.2
2197.817	3551.2
2201.799	3528.2
2205.778	3507.2
2209.753	3492.2
2213.725	3493.2
2217.693	3462.2
2221.657	3463.2
2225.618	3466.2
2229.575	3431.2
2233.529	3414.2
2237.479	3376.2
2241.425	3338.2
2245.368	3292.2
2249.307	3248.2
2253.243	3188.2
2257.175	3174.2
2261.104	3116.2
2265.029	3068.2
2268.95	3047.2
2272.868	3007.2
2276.783	2991.2
2280.694	2944.2
2284.601	2918.2
2288.505	2893.2
2292.405	2854.2
2296.302	2822.2
2300.195	2794.2
2304.085	2756.2
2307.971	2729.2
2311.854	2689.2
2315.734	2641.2
2319.609	2612.2
2323.482	2563.2
2327.351	2542.2
2331.216	2528.2
2335.078	2499.2
2338.937	2478.2
2342.792	2474.2
2346.643	2462.2
2350.492	2460.2
2354.336	2468.2
2358.178	2467.2
2362.015	2492.2
2365.85	2507.2
2369.681	2466.2
2373.508	2484.2
2377.333	2473.2
2381.153	2454.2
2384.971	2455.2
2388.785	2454.2
2392.595	2407.2
2396.402	2397.2
2400.206	2353.2
2404.007	2342.2
2407.804	2347.2
2411.597	2338.2
2415.388	2299.2
2419.174	2280.2
2422.958	2285.2
2426.738	2268.2
2430.515	2235.2
2434.289	2212.2
2438.059	2189.2
2441.825	2191.2
2445.589	2137.2
2449.349	2152.2
2453.106	2112.2
2456.859	2087.2
2460.61	2056.2
2464.356	2038.2
2468.1	2007.2
2471.84	1985.2
2475.577	1998.2
2479.311	1975.2
2483.041	1934.2
2486.768	1938.2
2490.492	1936.2
2494.213	1945.2
2497.93	1931.2
2501.644	1919.2
2505.355	1910.2
2509.062	1896.2
2512.766	1872.2
2516.467	1866.2
2520.165	1882.2
2523.859	1844.2
2527.551	1843.2
2531.239	1829.2
2534.923	1821.2
2538.605	1806.2
2542.283	1795.2
2545.958	1823.2
2549.63	1789.2
2553.299	1806.2
2556.964	1801.2
2560.626	1782.2
2564.285	1766.2
2567.941	1768.2
2571.594	1736.2
2575.243	1753.2
2578.89	1728.2
2582.533	1706.2
2586.173	1693.2
2589.809	1693.2
2593.443	1670.2
2597.073	1659.2
2600.701	1637.2
2604.325	1625.2
2607.946	1626.2
2611.564	1599.2
2615.178	1578.2
2618.79	1590.2
2622.398	1574.2
2626.004	1557.2
2629.606	1543.2
2633.205	1517.2
2636.801	1504.2
2640.394	1477.2
2643.983	1427.2
2647.57	1443.2
2651.153	1404.2
2654.734	1362.2
2658.311	1373.2
2661.885	1333.2
2665.456	1323.2
2669.025	1318.2
2672.589	1303.2
2676.151	1272.2
2679.71	1266.2
2683.266	1228.2
2686.819	1215.2
2690.368	1190.2
2693.915	1165.2
2697.458	1136.2
2700.999	1123.2
2704.536	1084.2
2708.071	1072.2
2711.602	1057.2
2715.13	1024.2
2718.656	992.2
2722.178	998.2
2725.697	977.2
2729.214	985.2
2732.727	971.2
2736.237	954.2
2739.744	954.2
2743.249	969.2
2746.75	975.2
2750.248	963.2
2753.743	960.2
2757.236	987.2
2760.725	987.2
2764.211	1000.2
2767.695	1005.2
2771.175	1001.2
2774.652	999.2
2778.127	980.2
2781.598	991.2
2785.067	976.2
2788.532	977.2
2791.995	968.2
2795.455	975.2
2798.911	979.2
2802.365	978.2
2805.816	958.2
2809.264	989.2
2812.709	963.2
2816.151	974.2
2819.59	979.2
2823.026	963.2
2826.46	982.2
2829.89	969.2
2833.318	987.2
2836.742	1000.2
2840.164	997.2
2843.583	1019.2
2846.999	1001.2
2850.412	1026.2
2853.822	1048.2
2857.229	1048.2
2860.634	1066.2
2864.035	1081.2
2867.434	1100.2
2870.83	1113.2
2874.223	1157.2
2877.613	1171.2
2881	1179.2
2884.385	1198.2
2887.766	1188.2
2891.145	1189.2
2894.521	1204.2
2897.894	1176.2
2901.264	1170.2
2904.631	1201.2
2907.996	1180.2
2911.358	1178.2
2914.717	1198.2
2918.073	1213.2
2921.426	1230.2
2924.777	1239.2
2928.124	1258.2
2931.469	1282.2
2934.811	1294.2
2938.15	1314.2
2941.487	1314.2
2944.821	1339.2
2948.152	1353.2
2951.48	1348.2
2954.805	1312.2
2958.128	1316.2
2961.447	1287.2
2964.765	1293.2
2968.079	1306.2
2971.39	1304.2
2974.699	1347.2
2978.005	1362.2
2981.308	1351.2
2984.609	1399.2
2987.907	1411.2
2991.202	1434.2
2994.494	1468.2
2997.784	1492.2
3001.07	1516.2
3004.355	1560.2
3007.636	1557.2
3010.915	1584.2
3014.191	1578.2
3017.464	1627.2
3020.734	1627.2
3024.002	1640.2
3027.267	1650.2
3030.53	1671.2
3033.789	1682.2
3037.046	1698.2
3040.301	1744.2
3043.552	1776.2
3046.801	1801.2
3050.048	1854.2
3053.291	1894.2
3056.532	1915.2
3059.771	1978.2
3063.006	2058.2
3066.239	2116.2
3069.469	2188.2
3072.697	2233.2
3075.922	2289.2
3079.144	2338.2
3082.364	2392.2
3085.581	2445.2
3088.795	2500.2
3092.007	2543.2
3095.216	2597.2
3098.423	2672.2
3101.627	2724.2
3104.828	2775.2
3108.026	2859.2
3111.222	2908.2
3114.416	2958.2
3117.607	3031.2
3120.795	3114.2
3123.98	3180.2
3127.163	3261.2
3130.344	3329.2
3133.521	3415.2
3136.696	3494.2
3139.869	3537.2
3143.039	3626.2
3146.206	3681.2
3149.371	3691.2
3152.533	3737.2
3155.693	3774.2
3158.85	3807.2
3162.005	3841.2
3165.157	3844.2
3168.306	3840.2
3171.453	3847.2
3174.597	3845.2
3177.739	3859.2
3180.878	3865.2
3184.014	3887.2
3187.149	3887.2
3190.28	3903.2
3193.409	3881.2
3196.536	3906.2
3199.659	3933.2
3202.781	3913.2
3205.9	3922.2
3209.016	3906.2
3212.13	3873.2
3215.241	3898.2
3218.35	3848.2
3221.456	3782.2
3224.56	3762.2
3227.661	3733.2
3230.76	3686.2
3233.856	3630.2
3236.95	3602.2
3240.041	3564.2
3243.13	3549.2
3246.216	3529.2
3249.3	3508.2
3252.382	3510.2
3255.46	3461.2
3258.537	3439.2
3261.611	3454.2
3264.682	3482.2
3267.751	3454.2
3270.818	3468.2
3273.882	3432.2
3276.943	3418.2
3280.002	3423.2
3283.059	3379.2
3286.113	3328.2
3289.165	3261.2
3292.214	3255.2
3295.261	3191.2
3298.306	3172.2
3301.348	3065.2
3304.387	3044.2
3307.425	2972.2
3310.459	2941.2
3313.492	2905.2
3316.521	2869.2
3319.549	2846.2
3322.574	2799.2
3325.597	2789.2
3328.617	2751.2
3331.635	2736.2
3334.65	2736.2
3337.663	2698.2
3340.674	2691.2
3343.682	2695.2
3346.688	2693.2
3349.691	2668.2
3352.692	2680.2
3355.691	2640.2
3358.687	2610.2
3361.681	2581.2
3364.673	2550.2
3367.662	2533.2
3370.649	2453.2
3373.633	2419.2
3376.615	2391.2
3379.595	2359.2
3382.572	2364.2
3385.547	2312.2
3388.52	2268.2
3391.49	2224.2
3394.458	2216.2
3397.424	2155.2
3400.387	2155.2
3403.348	2107.2
3406.307	2093.2
3409.263	2084.2
3412.217	2045.2
3415.168	2008.2
3418.118	2010.2
3421.065	1977.2
3424.009	1953.2
3426.951	1912.2
3429.891	1887.2
3432.829	1850.2
3435.764	1806.2
3438.697	1744.2
3441.628	1704.2
3444.557	1665.2
3447.483	1599.2
3450.407	1555.2
3453.328	1511.2
3456.247	1465.2
3459.164	1405.2
3462.079	1369.2
3464.991	1310.2
3467.902	1275.2
3470.809	1208.2
3473.715	1166.2
3476.618	1148.2
3479.519	1084.2
3482.418	1044.2
3485.315	1016.2
3488.209	971.2
3491.101	936.2
3493.99	903.2
3496.878	878.2
3499.763	839.2
3502.646	815.2
3505.527	759.2
3508.405	733.2
3511.281	680.2
3514.155	657.2
3517.027	616.2
3519.897	584.2
3522.764	540.2
3525.629	497.2
3528.492	452.2
3531.352	421.2
3534.211	385.2
3537.067	358.2
3539.921	310.2
3542.773	281.2
3545.622	254.2
3548.469	211.2
3551.315	200.2
3554.157	172.2
3556.998	145.2
3559.837	120.2
3562.673	91.2
3565.507	75.2
3568.339	48.2
3571.169	35.2
3573.996	8.2
3576.822	-7.8
3579.645	-27.8
3582.466	-47.8
3585.285	-66.8
3588.101	-93.8
3590.916	-95.8
3593.728	-125.8
3596.538	-130.8
3599.346	-162.8
3602.152	-175.8
3604.956	-183.8
3607.757	-213.8
3610.556	-227.8
3613.354	-228.8
3616.149	-255.8
3618.942	-265.8
3621.732	-273.8
3624.521	-284.8
3627.307	-287.8
3630.092	-289.8
3632.874	-314.8
3635.654	-314.8
3638.432	-317.8
3641.208	-330.8
3643.982	-352.8
3646.753	-351.8
3649.523	-361.8
3652.29	-361.8
3655.055	-369.8
3657.818	-389.8
3660.579	-399.8
3663.338	-417.8
3666.095	-416.8
3668.849	-438.8
3671.602	-443.8
3674.352	-443.8
3677.101	-446.8
3679.847	-459.8
3682.591	-466.8
3685.333	-466.8
3688.073	-472.8
3690.811	-475.8
3693.547	-477.8
3696.281	-486.8
3699.013	-497.8
3701.742	-499.8
3704.47	-496.8
3707.195	-505.8
3709.919	-512.8
3712.64	-520.8
3715.359	-510.8
3718.076	-520.8
3720.792	-525.8
3723.505	-524.8
3726.216	-532.8
3728.925	-527.8
3731.632	-541.8
3734.336	-540.8
3737.039	-544.8
3739.74	-535.8
3742.439	-549.8
3745.136	-552.8
3747.83	-550.8
3750.523	-548.8
3753.213	-546.8
3755.902	-557.8
3758.589	-556.8
3761.273	-561.8
3763.956	-564.8
3766.636	-565.8
3769.315	-566.8
3771.991	-566.8
3774.665	-572.8
3777.338	-564.8
3780.008	-572.8
3782.677	-569.8
3785.343	-572.8
3788.007	-574.8
3790.67	-572.8
3793.33	-573.8
3795.989	-578.8
3798.645	-576.8
3801.299	-577.8
3803.952	-582.8
3806.602	-586.8
3809.251	-591.8
3811.897	-587.8
3814.542	-590.8
3817.184	-583.8
3819.825	-584.8
3822.463	-587.8
3825.1	-596.8
3827.735	-587.8
3830.367	-591.8
3832.998	-596.8
3835.627	-598.8
3838.253	-597.8
3840.878	-599.8
3843.501	-594.8
3846.122	-589.8
3848.741	-593.8
3851.358	-595.8
3853.973	-592.8
3856.586	-597.8
3859.197	-597.8
3861.806	-600.8
3864.414	-591.8
3867.019	-597.8
3869.622	-597.8
3872.224	-594.8
3874.823	-584.8
3877.421	-568.8
3880.016	-552.8
3882.61	-524.8
3885.202	-529.8
3887.792	-538.8
3890.38	-573.8
3892.966	-593.8
3895.55	-601.8
3898.132	-612.8
3900.713	-617.8
3903.291	-611.8
3905.868	-608.8
3908.442	-614.8
3911.015	-612.8
3913.586	-610.8
3916.155	-605.8
3918.722	-608.8
3921.287	-609.8
3923.85	-615.8
3926.411	-608.8
3928.971	-620.8
3931.528	-612.8
3934.084	-612.8
3936.638	-608.8
3939.19	-613.8
3941.74	-614.8
3944.288	-615.8
3946.834	-610.8
3949.378	-618.8
3951.921	-614.8
3954.462	-613.8
3957	-615.8
3959.537	-617.8
3962.072	-612.8
3964.606	-612.8
3967.137	-612.8
3969.667	-620.8
3972.194	-608.8
3974.72	-610.8
3977.244	-609.8
3979.766	-600.8
3982.286	-605.8
3984.805	-597.8
3987.321	-603.8
3989.836	-602.8
3992.349	-589.8
3994.86	-594.8
3997.369	-607.8
3999.877	-591.8
4002.382	-591.8
4004.886	-594.8
4007.388	-596.8
4009.888	-596.8
4012.386	-601.8
4014.883	-601.8
4017.377	-603.8
4019.87	-599.8
4022.361	-603.8
4024.85	-602.8
4027.338	-602.8
4029.823	-602.8
4032.307	-605.8
4034.789	-600.8
4037.269	-601.8
4039.747	-606.8
4042.224	-604.8
4044.699	-601.8
4047.172	-599.8
4049.643	-595.8
4052.112	-605.8
4054.58	-605.8
4057.046	-604.8
4059.51	-603.8
4061.972	-604.8
4064.432	-606.8
4066.891	-599.8
4069.348	-594.8
4071.803	-596.8
4074.256	-603.8
4076.708	-603.8
4079.158	-605.8
4081.606	-606.8
4084.052	-608.8
4086.497	-607.8
4088.939	-605.8
4091.38	-600.8
4093.819	-599.8
4096.257	-628.8
4098.693	-633.8
4101.127	-635.8
4103.559	-629.8
4105.989	-362.8
4108.418	-347.8
4110.845	-318.8
4113.27	-294.8
4115.694	-261.8
4118.115	-215.8
4120.535	-600.8
4122.954	-600.8
4125.37	-598.8
4127.785	-598.8
4130.198	-600.8
4132.609	-604.8
4135.019	-634.8
4137.427	-634.8
4139.833	-634.8
4142.237	-631.8
