Data from 2018-2-14_conc=3_n=1_RamanShift_03.txt Node
Date: Wed Feb 14 11:43:26 IST 2018
User: aro
Spectrometer: QEPB0276
Trigger mode: 0
Integration Time (sec): 3.000000E1
Scans to average: 1
Electric dark correction enabled: true
Nonlinearity correction enabled: false
Boxcar width: 0
XAxis mode: Raman Shifts
Number of Pixels in Spectrum: 1044
>>>>>Begin Spectral Data<<<<<
160.701	-133.6
166.742	43.4
172.777	560.4
178.805	2134.4
184.826	5928.4
190.841	12351.4
196.849	19814.4
202.85	25089.4
208.845	26811.4
214.833	26555.4
220.815	26006.4
226.789	25870.4
232.758	25809.4
238.719	25619.4
244.674	25275.4
250.623	24900.4
256.565	24375.4
262.5	23875.4
268.429	23454.4
274.351	23122.4
280.267	22765.4
286.176	22540.4
292.079	22370.4
297.975	22126.4
303.865	21950.4
309.748	21821.4
315.625	21633.4
321.495	21540.4
327.359	21425.4
333.217	21480.4
339.068	21397.4
344.912	21407.4
350.751	21360.4
356.583	21369.4
362.408	21279.4
368.227	21373.4
374.04	21313.4
379.847	21435.4
385.647	21459.4
391.44	21565.4
397.228	21645.4
403.009	21724.4
408.784	21791.4
414.553	21792.4
420.315	21945.4
426.071	21965.4
431.821	21932.4
437.565	21943.4
443.302	21855.4
449.033	21878.4
454.758	21735.4
460.477	21733.4
466.189	21687.4
471.896	21623.4
477.596	21556.4
483.29	21535.4
488.978	21531.4
494.66	21469.4
500.335	21309.4
506.005	21102.4
511.668	20858.4
517.325	20640.4
522.977	20402.4
528.622	20249.4
534.261	20209.4
539.894	20086.4
545.521	20014.4
551.141	19941.4
556.756	19886.4
562.365	19785.4
567.968	19691.4
573.565	19659.4
579.155	19595.4
584.74	19531.4
590.319	19428.4
595.892	19337.4
601.459	19283.4
607.02	19214.4
612.575	19071.4
618.124	18913.4
623.667	18831.4
629.204	18773.4
634.735	18679.4
640.261	18627.4
645.781	18563.4
651.294	18498.4
656.802	18464.4
662.304	18440.4
667.8	18442.4
673.29	18438.4
678.775	18339.4
684.254	18375.4
689.726	18209.4
695.193	18125.4
700.655	18131.4
706.11	18004.4
711.56	17908.4
717.004	17841.4
722.442	17724.4
727.874	17674.4
733.301	17652.4
738.722	17591.4
744.137	17572.4
749.547	17501.4
754.951	17525.4
760.349	17530.4
765.741	17523.4
771.128	17566.4
776.509	17574.4
781.885	17551.4
787.254	17565.4
792.618	17475.4
797.977	17390.4
803.33	17241.4
808.677	17117.4
814.019	17024.4
819.355	16962.4
824.686	16891.4
830.011	16808.4
835.33	16839.4
840.644	16813.4
845.952	16875.4
851.255	16948.4
856.552	16953.4
861.844	16883.4
867.13	16894.4
872.41	16789.4
877.686	16729.4
882.955	16599.4
888.219	16437.4
893.478	16264.4
898.731	16041.4
903.979	15928.4
909.221	15826.4
914.458	15712.4
919.69	15764.4
924.916	15756.4
930.136	15862.4
935.351	15832.4
940.561	15835.4
945.766	15805.4
950.965	15678.4
956.158	15583.4
961.347	15440.4
966.529	15232.4
971.707	15108.4
976.879	14932.4
982.046	14788.4
987.208	14812.4
992.364	14716.4
997.515	14815.4
1002.66	14948.4
1007.801	15123.4
1012.936	15211.4
1018.066	15255.4
1023.19	15211.4
1028.309	15248.4
1033.423	15195.4
1038.532	15157.4
1043.636	14935.4
1048.734	14847.4
1053.827	14586.4
1058.915	14433.4
1063.998	14418.4
1069.075	14327.4
1074.147	14348.4
1079.214	14394.4
1084.276	14515.4
1089.333	14546.4
1094.385	14672.4
1099.431	14637.4
1104.472	14628.4
1109.509	14584.4
1114.54	14448.4
1119.565	14219.4
1124.586	14082.4
1129.602	13907.4
1134.613	13827.4
1139.618	13722.4
1144.619	13737.4
1149.614	13647.4
1154.604	13702.4
1159.589	13814.4
1164.57	13827.4
1169.545	13796.4
1174.515	13797.4
1179.48	13706.4
1184.44	13672.4
1189.395	13540.4
1194.345	13465.4
1199.29	13411.4
1204.23	13402.4
1209.165	13355.4
1214.095	13535.4
1219.021	13553.4
1223.941	13559.4
1228.856	13688.4
1233.766	13721.4
1238.672	13745.4
1243.572	13747.4
1248.467	13643.4
1253.358	13537.4
1258.244	13343.4
1263.124	13123.4
1268	12922.4
1272.871	12787.4
1277.737	12711.4
1282.599	12611.4
1287.455	12595.4
1292.306	12638.4
1297.153	12676.4
1301.995	12736.4
1306.832	12820.4
1311.664	12818.4
1316.491	12710.4
1321.314	12611.4
1326.132	12425.4
1330.945	12163.4
1335.753	11862.4
1340.556	11549.4
1345.354	11340.4
1350.148	11140.4
1354.937	10997.4
1359.722	10951.4
1364.501	11040.4
1369.276	11211.4
1374.046	11343.4
1378.811	11511.4
1383.572	11677.4
1388.327	11691.4
1393.079	11642.4
1397.825	11539.4
1402.567	11382.4
1407.304	11207.4
1412.036	11098.4
1416.764	11076.4
1421.487	10961.4
1426.205	10920.4
1430.919	10889.4
1435.628	10817.4
1440.333	10888.4
1445.032	10881.4
1449.727	10926.4
1454.418	10920.4
1459.104	10750.4
1463.785	10547.4
1468.462	10316.4
1473.134	10134.4
1477.802	9872.4
1482.465	9767.4
1487.123	9559.4
1491.777	9579.4
1496.426	9647.4
1501.071	9687.4
1505.711	9865.4
1510.347	10055.4
1514.978	10226.4
1519.604	10392.4
1524.226	10513.4
1528.844	10556.4
1533.457	10521.4
1538.065	10511.4
1542.669	10453.4
1547.269	10334.4
1551.864	10277.4
1556.454	10227.4
1561.041	10170.4
1565.622	10184.4
1570.199	10198.4
1574.772	10242.4
1579.34	10308.4
1583.904	10357.4
1588.464	10403.4
1593.019	10361.4
1597.569	10374.4
1602.115	10319.4
1606.657	10207.4
1611.195	10118.4
1615.728	10078.4
1620.256	10059.4
1624.78	10010.4
1629.3	10053.4
1633.816	10049.4
1638.327	10092.4
1642.834	10150.4
1647.336	10172.4
1651.834	10220.4
1656.328	10141.4
1660.817	10132.4
1665.302	10009.4
1669.783	9816.4
1674.259	9661.4
1678.732	9325.4
1683.199	9059.4
1687.663	8696.4
1692.122	8425.4
1696.577	8273.4
1701.028	8279.4
1705.474	8316.4
1709.917	8510.4
1714.355	8534.4
1718.788	8479.4
1723.218	8354.4
1727.643	8241.4
1732.064	8075.4
1736.481	7902.4
1740.893	7675.4
1745.301	7500.4
1749.705	7337.4
1754.105	7098.4
1758.501	6897.4
1762.893	6683.4
1767.28	6494.4
1771.663	6383.4
1776.042	6225.4
1780.417	6112.4
1784.787	6154.4
1789.154	6194.4
1793.516	6294.4
1797.874	6437.4
1802.228	6579.4
1806.578	6618.4
1810.924	6677.4
1815.266	6624.4
1819.603	6503.4
1823.937	6404.4
1828.266	6328.4
1832.591	6214.4
1836.913	6126.4
1841.23	6034.4
1845.543	5975.4
1849.852	5971.4
1854.156	5966.4
1858.457	5969.4
1862.754	5924.4
1867.047	5900.4
1871.335	5942.4
1875.62	5903.4
1879.9	5863.4
1884.177	5831.4
1888.449	5768.4
1892.718	5737.4
1896.982	5665.4
1901.243	5612.4
1905.499	5560.4
1909.752	5516.4
1914	5489.4
1918.245	5516.4
1922.485	5577.4
1926.722	5635.4
1930.954	5711.4
1935.183	5810.4
1939.408	5892.4
1943.628	5893.4
1947.845	5901.4
1952.058	5930.4
1956.267	5846.4
1960.472	5798.4
1964.673	5702.4
1968.87	5593.4
1973.063	5519.4
1977.252	5466.4
1981.438	5405.4
1985.619	5335.4
1989.797	5306.4
1993.971	5271.4
1998.14	5245.4
2002.306	5205.4
2006.469	5198.4
2010.627	5141.4
2014.781	5150.4
2018.932	5064.4
2023.078	5071.4
2027.221	4986.4
2031.36	4881.4
2035.495	4779.4
2039.627	4732.4
2043.754	4701.4
2047.878	4634.4
2051.998	4607.4
2056.114	4592.4
2060.226	4561.4
2064.334	4559.4
2068.439	4594.4
2072.54	4607.4
2076.637	4613.4
2080.73	4663.4
2084.82	4666.4
2088.906	4718.4
2092.988	4707.4
2097.066	4688.4
2101.14	4671.4
2105.211	4660.4
2109.278	4637.4
2113.342	4618.4
2117.401	4590.4
2121.457	4567.4
2125.509	4546.4
2129.558	4527.4
2133.602	4505.4
2137.643	4484.4
2141.681	4472.4
2145.714	4401.4
2149.744	4375.4
2153.77	4369.4
2157.793	4327.4
2161.812	4260.4
2165.827	4173.4
2169.838	4146.4
2173.846	4045.4
2177.851	4004.4
2181.851	3931.4
2185.848	3870.4
2189.841	3835.4
2193.831	3821.4
2197.817	3787.4
2201.799	3750.4
2205.778	3723.4
2209.753	3725.4
2213.725	3732.4
2217.693	3694.4
2221.657	3692.4
2225.618	3680.4
2229.575	3677.4
2233.529	3629.4
2237.479	3606.4
2241.425	3582.4
2245.368	3521.4
2249.307	3470.4
2253.243	3420.4
2257.175	3359.4
2261.104	3335.4
2265.029	3320.4
2268.95	3260.4
2272.868	3194.4
2276.783	3187.4
2280.694	3146.4
2284.601	3115.4
2288.505	3089.4
2292.405	3067.4
2296.302	3025.4
2300.195	2982.4
2304.085	2950.4
2307.971	2929.4
2311.854	2903.4
2315.734	2859.4
2319.609	2818.4
2323.482	2761.4
2327.351	2755.4
2331.216	2726.4
2335.078	2718.4
2338.937	2692.4
2342.792	2680.4
2346.643	2682.4
2350.492	2661.4
2354.336	2682.4
2358.178	2692.4
2362.015	2696.4
2365.85	2705.4
2369.681	2690.4
2373.508	2720.4
2377.333	2695.4
2381.153	2706.4
2384.971	2685.4
2388.785	2646.4
2392.595	2632.4
2396.402	2622.4
2400.206	2582.4
2404.007	2581.4
2407.804	2557.4
2411.597	2564.4
2415.388	2534.4
2419.174	2519.4
2422.958	2507.4
2426.738	2481.4
2430.515	2480.4
2434.289	2439.4
2438.059	2419.4
2441.825	2399.4
2445.589	2374.4
2449.349	2343.4
2453.106	2341.4
2456.859	2294.4
2460.61	2265.4
2464.356	2218.4
2468.1	2225.4
2471.84	2157.4
2475.577	2171.4
2479.311	2147.4
2483.041	2148.4
2486.768	2142.4
2490.492	2121.4
2494.213	2106.4
2497.93	2116.4
2501.644	2105.4
2505.355	2088.4
2509.062	2073.4
2512.766	2087.4
2516.467	2058.4
2520.165	2023.4
2523.859	2020.4
2527.551	2009.4
2531.239	2005.4
2534.923	1987.4
2538.605	1963.4
2542.283	1979.4
2545.958	1974.4
2549.63	1960.4
2553.299	1938.4
2556.964	1932.4
2560.626	1955.4
2564.285	1918.4
2567.941	1923.4
2571.594	1907.4
2575.243	1895.4
2578.89	1892.4
2582.533	1881.4
2586.173	1856.4
2589.809	1840.4
2593.443	1826.4
2597.073	1814.4
2600.701	1797.4
2604.325	1790.4
2607.946	1769.4
2611.564	1745.4
2615.178	1751.4
2618.79	1739.4
2622.398	1734.4
2626.004	1718.4
2629.606	1682.4
2633.205	1670.4
2636.801	1630.4
2640.394	1629.4
2643.983	1617.4
2647.57	1599.4
2651.153	1554.4
2654.734	1508.4
2658.311	1502.4
2661.885	1483.4
2665.456	1449.4
2669.025	1449.4
2672.589	1432.4
2676.151	1396.4
2679.71	1398.4
2683.266	1360.4
2686.819	1328.4
2690.368	1342.4
2693.915	1304.4
2697.458	1258.4
2700.999	1231.4
2704.536	1208.4
2708.071	1185.4
2711.602	1148.4
2715.13	1121.4
2718.656	1096.4
2722.178	1084.4
2725.697	1069.4
2729.214	1042.4
2732.727	1053.4
2736.237	1026.4
2739.744	1013.4
2743.249	1007.4
2746.75	1034.4
2750.248	1049.4
2753.743	1073.4
2757.236	1076.4
2760.725	1080.4
2764.211	1087.4
2767.695	1097.4
2771.175	1082.4
2774.652	1082.4
2778.127	1079.4
2781.598	1096.4
2785.067	1073.4
2788.532	1064.4
2791.995	1054.4
2795.455	1070.4
2798.911	1055.4
2802.365	1061.4
2805.816	1043.4
2809.264	1060.4
2812.709	1075.4
2816.151	1056.4
2819.59	1069.4
2823.026	1049.4
2826.46	1062.4
2829.89	1059.4
2833.318	1066.4
2836.742	1059.4
2840.164	1074.4
2843.583	1084.4
2846.999	1089.4
2850.412	1119.4
2853.822	1130.4
2857.229	1120.4
2860.634	1151.4
2864.035	1155.4
2867.434	1188.4
2870.83	1203.4
2874.223	1227.4
2877.613	1218.4
2881	1260.4
2884.385	1261.4
2887.766	1258.4
2891.145	1255.4
2894.521	1238.4
2897.894	1245.4
2901.264	1246.4
2904.631	1247.4
2907.996	1253.4
2911.358	1260.4
2914.717	1262.4
2918.073	1283.4
2921.426	1273.4
2924.777	1282.4
2928.124	1313.4
2931.469	1352.4
2934.811	1377.4
2938.15	1382.4
2941.487	1355.4
2944.821	1390.4
2948.152	1384.4
2951.48	1373.4
2954.805	1352.4
2958.128	1340.4
2961.447	1323.4
2964.765	1344.4
2968.079	1339.4
2971.39	1331.4
2974.699	1360.4
2978.005	1399.4
2981.308	1416.4
2984.609	1427.4
2987.907	1448.4
2991.202	1488.4
2994.494	1539.4
2997.784	1561.4
3001.07	1590.4
3004.355	1591.4
3007.636	1636.4
3010.915	1635.4
3014.191	1645.4
3017.464	1664.4
3020.734	1688.4
3024.002	1693.4
3027.267	1721.4
3030.53	1695.4
3033.789	1732.4
3037.046	1749.4
3040.301	1792.4
3043.552	1803.4
3046.801	1833.4
3050.048	1896.4
3053.291	1926.4
3056.532	1986.4
3059.771	2045.4
3063.006	2088.4
3066.239	2172.4
3069.469	2228.4
3072.697	2279.4
3075.922	2350.4
3079.144	2379.4
3082.364	2422.4
3085.581	2494.4
3088.795	2576.4
3092.007	2595.4
3095.216	2685.4
3098.423	2697.4
3101.627	2769.4
3104.828	2812.4
3108.026	2873.4
3111.222	2957.4
3114.416	3034.4
3117.607	3097.4
3120.795	3179.4
3123.98	3245.4
3127.163	3321.4
3130.344	3389.4
3133.521	3498.4
3136.696	3551.4
3139.869	3645.4
3143.039	3680.4
3146.206	3727.4
3149.371	3779.4
3152.533	3816.4
3155.693	3822.4
3158.85	3863.4
3162.005	3857.4
3165.157	3891.4
3168.306	3899.4
3171.453	3896.4
3174.597	3929.4
3177.739	3941.4
3180.878	3915.4
3184.014	3927.4
3187.149	3919.4
3190.28	3936.4
3193.409	3941.4
3196.536	3958.4
3199.659	3972.4
3202.781	3953.4
3205.9	3957.4
3209.016	3982.4
3212.13	3946.4
3215.241	3910.4
3218.35	3878.4
3221.456	3830.4
3224.56	3794.4
3227.661	3718.4
3230.76	3693.4
3233.856	3673.4
3236.95	3626.4
3240.041	3623.4
3243.13	3580.4
3246.216	3578.4
3249.3	3537.4
3252.382	3537.4
3255.46	3534.4
3258.537	3554.4
3261.611	3497.4
3264.682	3510.4
3267.751	3521.4
3270.818	3520.4
3273.882	3507.4
3276.943	3446.4
3280.002	3466.4
3283.059	3427.4
3286.113	3386.4
3289.165	3274.4
3292.214	3282.4
3295.261	3219.4
3298.306	3161.4
3301.348	3112.4
3304.387	3052.4
3307.425	2998.4
3310.459	2967.4
3313.492	2920.4
3316.521	2869.4
3319.549	2863.4
3322.574	2803.4
3325.597	2791.4
3328.617	2770.4
3331.635	2760.4
3334.65	2742.4
3337.663	2728.4
3340.674	2713.4
3343.682	2677.4
3346.688	2691.4
3349.691	2658.4
3352.692	2652.4
3355.691	2638.4
3358.687	2587.4
3361.681	2562.4
3364.673	2532.4
3367.662	2497.4
3370.649	2449.4
3373.633	2431.4
3376.615	2383.4
3379.595	2358.4
3382.572	2324.4
3385.547	2302.4
3388.52	2263.4
3391.49	2233.4
3394.458	2200.4
3397.424	2191.4
3400.387	2122.4
3403.348	2111.4
3406.307	2088.4
3409.263	2076.4
3412.217	2041.4
3415.168	2028.4
3418.118	1990.4
3421.065	1968.4
3424.009	1934.4
3426.951	1901.4
3429.891	1877.4
3432.829	1835.4
3435.764	1794.4
3438.697	1748.4
3441.628	1699.4
3444.557	1644.4
3447.483	1586.4
3450.407	1551.4
3453.328	1509.4
3456.247	1471.4
3459.164	1399.4
3462.079	1343.4
3464.991	1313.4
3467.902	1265.4
3470.809	1207.4
3473.715	1173.4
3476.618	1116.4
3479.519	1082.4
3482.418	1062.4
3485.315	1022.4
3488.209	1001.4
3491.101	942.4
3493.99	904.4
3496.878	864.4
3499.763	843.4
3502.646	808.4
3505.527	781.4
3508.405	753.4
3511.281	690.4
3514.155	645.4
3517.027	628.4
3519.897	584.4
3522.764	542.4
3525.629	511.4
3528.492	450.4
3531.352	429.4
3534.211	376.4
3537.067	336.4
3539.921	319.4
3542.773	284.4
3545.622	243.4
3548.469	228.4
3551.315	193.4
3554.157	167.4
3556.998	134.4
3559.837	114.4
3562.673	92.4
3565.507	65.4
3568.339	35.4
3571.169	27.4
3573.996	5.4
3576.822	-19.6
3579.645	-27.6
3582.466	-53.6
3585.285	-74.6
3588.101	-91.6
3590.916	-103.6
3593.728	-136.6
3596.538	-147.6
3599.346	-165.6
3602.152	-179.6
3604.956	-185.6
3607.757	-211.6
3610.556	-231.6
3613.354	-241.6
3616.149	-249.6
3618.942	-270.6
3621.732	-272.6
3624.521	-289.6
3627.307	-297.6
3630.092	-313.6
3632.874	-315.6
3635.654	-325.6
3638.432	-335.6
3641.208	-344.6
3643.982	-357.6
3646.753	-355.6
3649.523	-372.6
3652.29	-378.6
3655.055	-381.6
3657.818	-401.6
3660.579	-408.6
3663.338	-423.6
3666.095	-425.6
3668.849	-434.6
3671.602	-443.6
3674.352	-450.6
3677.101	-461.6
3679.847	-470.6
3682.591	-478.6
3685.333	-480.6
3688.073	-481.6
3690.811	-497.6
3693.547	-501.6
3696.281	-494.6
3699.013	-499.6
3701.742	-516.6
3704.47	-514.6
3707.195	-524.6
3709.919	-514.6
3712.64	-524.6
3715.359	-530.6
3718.076	-531.6
3720.792	-530.6
3723.505	-533.6
3726.216	-542.6
3728.925	-539.6
3731.632	-547.6
3734.336	-552.6
3737.039	-550.6
3739.74	-550.6
3742.439	-553.6
3745.136	-561.6
3747.83	-566.6
3750.523	-563.6
3753.213	-540.6
3755.902	-569.6
3758.589	-565.6
3761.273	-575.6
3763.956	-573.6
3766.636	-573.6
3769.315	-576.6
3771.991	-578.6
3774.665	-579.6
3777.338	-578.6
3780.008	-587.6
3782.677	-584.6
3785.343	-580.6
3788.007	-578.6
3790.67	-581.6
3793.33	-587.6
3795.989	-589.6
3798.645	-588.6
3801.299	-586.6
3803.952	-591.6
3806.602	-604.6
3809.251	-602.6
3811.897	-600.6
3814.542	-599.6
3817.184	-595.6
3819.825	-596.6
3822.463	-599.6
3825.1	-603.6
3827.735	-597.6
3830.367	-602.6
3832.998	-606.6
3835.627	-604.6
3838.253	-606.6
3840.878	-606.6
3843.501	-604.6
3846.122	-602.6
3848.741	-607.6
3851.358	-610.6
3853.973	-603.6
3856.586	-609.6
3859.197	-610.6
3861.806	-612.6
3864.414	-605.6
3867.019	-604.6
3869.622	-610.6
3872.224	-609.6
3874.823	-597.6
3877.421	-584.6
3880.016	-568.6
3882.61	-553.6
3885.202	-549.6
3887.792	-554.6
3890.38	-587.6
3892.966	-603.6
3895.55	-612.6
3898.132	-624.6
3900.713	-626.6
3903.291	-619.6
3905.868	-625.6
3908.442	-620.6
3911.015	-626.6
3913.586	-622.6
3916.155	-621.6
3918.722	-620.6
3921.287	-621.6
3923.85	-631.6
3926.411	-625.6
3928.971	-633.6
3931.528	-635.6
3934.084	-621.6
3936.638	-624.6
3939.19	-624.6
3941.74	-629.6
3944.288	-633.6
3946.834	-620.6
3949.378	-631.6
3951.921	-629.6
3954.462	-632.6
3957	-623.6
3959.537	-625.6
3962.072	-618.6
3964.606	-622.6
3967.137	-623.6
3969.667	-626.6
3972.194	-620.6
3974.72	-624.6
3977.244	-614.6
3979.766	-613.6
3982.286	-620.6
3984.805	-612.6
3987.321	-619.6
3989.836	-617.6
3992.349	-609.6
3994.86	-607.6
3997.369	-618.6
3999.877	-615.6
4002.382	-613.6
4004.886	-609.6
4007.388	-610.6
4009.888	-608.6
4012.386	-608.6
4014.883	-612.6
4017.377	-609.6
4019.87	-607.6
4022.361	-610.6
4024.85	-612.6
4027.338	-612.6
4029.823	-618.6
4032.307	-615.6
4034.789	-612.6
4037.269	-614.6
4039.747	-614.6
4042.224	-621.6
4044.699	-618.6
4047.172	-614.6
4049.643	-610.6
4052.112	-621.6
4054.58	-619.6
4057.046	-621.6
4059.51	-616.6
4061.972	-621.6
4064.432	-619.6
4066.891	-614.6
4069.348	-619.6
4071.803	-611.6
4074.256	-611.6
4076.708	-610.6
4079.158	-614.6
4081.606	-617.6
4084.052	-618.6
4086.497	-613.6
4088.939	-609.6
4091.38	-616.6
4093.819	-612.6
4096.257	-651.6
4098.693	-649.6
4101.127	-649.6
4103.559	-644.6
4105.989	-374.6
4108.418	-348.6
4110.845	-322.6
4113.27	-308.6
4115.694	-276.6
4118.115	-220.6
4120.535	-616.6
4122.954	-609.6
4125.37	-603.6
4127.785	-616.6
4130.198	-617.6
4132.609	-619.6
4135.019	-651.6
4137.427	-654.6
4139.833	-653.6
4142.237	-644.6
