Data from 2018-2-14_conc=5_n=10_RamanShift_02.txt Node
Date: Wed Feb 14 14:35:25 IST 2018
User: aro
Spectrometer: QEPB0276
Trigger mode: 0
Integration Time (sec): 3.000000E1
Scans to average: 1
Electric dark correction enabled: true
Nonlinearity correction enabled: false
Boxcar width: 0
XAxis mode: Raman Shifts
Number of Pixels in Spectrum: 1044
>>>>>Begin Spectral Data<<<<<
160.701	-148.8
166.742	41.2
172.777	605.2
178.805	2325.2
184.826	6360.2
190.841	13345.2
196.849	21576.2
202.85	27288.2
208.845	29290.2
214.833	29015.2
220.815	28440.2
226.789	28317.2
232.758	28135.2
238.719	28000.2
244.674	27656.2
250.623	27105.2
256.565	26598.2
262.5	26038.2
268.429	25589.2
274.351	25213.2
280.267	24837.2
286.176	24540.2
292.079	24368.2
297.975	24155.2
303.865	23950.2
309.748	23767.2
315.625	23621.2
321.495	23516.2
327.359	23377.2
333.217	23408.2
339.068	23339.2
344.912	23377.2
350.751	23316.2
356.583	23215.2
362.408	23207.2
368.227	23262.2
374.04	23291.2
379.847	23366.2
385.647	23417.2
391.44	23463.2
397.228	23656.2
403.009	23625.2
408.784	23727.2
414.553	23794.2
420.315	23934.2
426.071	23969.2
431.821	23868.2
437.565	23886.2
443.302	23907.2
449.033	23777.2
454.758	23800.2
460.477	23668.2
466.189	23657.2
471.896	23562.2
477.596	23475.2
483.29	23485.2
488.978	23413.2
494.66	23327.2
500.335	23220.2
506.005	23004.2
511.668	22750.2
517.325	22517.2
522.977	22250.2
528.622	22125.2
534.261	21926.2
539.894	21880.2
545.521	21761.2
551.141	21668.2
556.756	21554.2
562.365	21501.2
567.968	21480.2
573.565	21316.2
579.155	21299.2
584.74	21194.2
590.319	21115.2
595.892	20998.2
601.459	20968.2
607.02	20829.2
612.575	20708.2
618.124	20595.2
623.667	20467.2
629.204	20355.2
634.735	20256.2
640.261	20131.2
645.781	20145.2
651.294	20053.2
656.802	20061.2
662.304	19995.2
667.8	20014.2
673.29	19939.2
678.775	19888.2
684.254	19871.2
689.726	19845.2
695.193	19706.2
700.655	19658.2
706.11	19509.2
711.56	19423.2
717.004	19336.2
722.442	19192.2
727.874	19171.2
733.301	19095.2
738.722	19071.2
744.137	19034.2
749.547	19047.2
754.951	19028.2
760.349	19018.2
765.741	19088.2
771.128	19016.2
776.509	19025.2
781.885	19032.2
787.254	18994.2
792.618	18982.2
797.977	18791.2
803.33	18637.2
808.677	18615.2
814.019	18460.2
819.355	18393.2
824.686	18337.2
830.011	18279.2
835.33	18250.2
840.644	18229.2
845.952	18289.2
851.255	18312.2
856.552	18370.2
861.844	18313.2
867.13	18246.2
872.41	18163.2
877.686	18091.2
882.955	17989.2
888.219	17808.2
893.478	17602.2
898.731	17342.2
903.979	17175.2
909.221	17079.2
914.458	17023.2
919.69	17053.2
924.916	17058.2
930.136	17115.2
935.351	17184.2
940.561	17160.2
945.766	17107.2
950.965	17057.2
956.158	16908.2
961.347	16733.2
966.529	16630.2
971.707	16386.2
976.879	16118.2
982.046	15952.2
987.208	15938.2
992.364	15924.2
997.515	16054.2
1002.66	16170.2
1007.801	16317.2
1012.936	16467.2
1018.066	16465.2
1023.19	16499.2
1028.309	16421.2
1033.423	16426.2
1038.532	16345.2
1043.636	16218.2
1048.734	15973.2
1053.827	15799.2
1058.915	15599.2
1063.998	15513.2
1069.075	15481.2
1074.147	15478.2
1079.214	15563.2
1084.276	15621.2
1089.333	15702.2
1094.385	15804.2
1099.431	15833.2
1104.472	15841.2
1109.509	15727.2
1114.54	15579.2
1119.565	15372.2
1124.586	15194.2
1129.602	15016.2
1134.613	14901.2
1139.618	14858.2
1144.619	14771.2
1149.614	14797.2
1154.604	14799.2
1159.589	14850.2
1164.57	14869.2
1169.545	14885.2
1174.515	14902.2
1179.48	14854.2
1184.44	14697.2
1189.395	14616.2
1194.345	14536.2
1199.29	14458.2
1204.23	14479.2
1209.165	14459.2
1214.095	14589.2
1219.021	14592.2
1223.941	14697.2
1228.856	14792.2
1233.766	14833.2
1238.672	14828.2
1243.572	14838.2
1248.467	14692.2
1253.358	14562.2
1258.244	14325.2
1263.124	14148.2
1268	13939.2
1272.871	13755.2
1277.737	13640.2
1282.599	13602.2
1287.455	13587.2
1292.306	13623.2
1297.153	13572.2
1301.995	13745.2
1306.832	13775.2
1311.664	13771.2
1316.491	13778.2
1321.314	13633.2
1326.132	13378.2
1330.945	13162.2
1335.753	12831.2
1340.556	12487.2
1345.354	12229.2
1350.148	11979.2
1354.937	11940.2
1359.722	11884.2
1364.501	11988.2
1369.276	12078.2
1374.046	12288.2
1378.811	12522.2
1383.572	12642.2
1388.327	12658.2
1393.079	12624.2
1397.825	12463.2
1402.567	12272.2
1407.304	12168.2
1412.036	12002.2
1416.764	11895.2
1421.487	11850.2
1426.205	11766.2
1430.919	11736.2
1435.628	11684.2
1440.333	11731.2
1445.032	11775.2
1449.727	11781.2
1454.418	11790.2
1459.104	11654.2
1463.785	11375.2
1468.462	11192.2
1473.134	10978.2
1477.802	10775.2
1482.465	10599.2
1487.123	10443.2
1491.777	10429.2
1496.426	10479.2
1501.071	10623.2
1505.711	10769.2
1510.347	10956.2
1514.978	11172.2
1519.604	11327.2
1524.226	11413.2
1528.844	11511.2
1533.457	11440.2
1538.065	11352.2
1542.669	11283.2
1547.269	11162.2
1551.864	11104.2
1556.454	11090.2
1561.041	11063.2
1565.622	11057.2
1570.199	11078.2
1574.772	11122.2
1579.34	11204.2
1583.904	11258.2
1588.464	11284.2
1593.019	11289.2
1597.569	11229.2
1602.115	11162.2
1606.657	11077.2
1611.195	11018.2
1615.728	10994.2
1620.256	10929.2
1624.78	10899.2
1629.3	10929.2
1633.816	10960.2
1638.327	10996.2
1642.834	11042.2
1647.336	11101.2
1651.834	11132.2
1656.328	11079.2
1660.817	11070.2
1665.302	10965.2
1669.783	10780.2
1674.259	10577.2
1678.732	10223.2
1683.199	9942.2
1687.663	9572.2
1692.122	9235.2
1696.577	9123.2
1701.028	9105.2
1705.474	9174.2
1709.917	9227.2
1714.355	9330.2
1718.788	9269.2
1723.218	9098.2
1727.643	8934.2
1732.064	8747.2
1736.481	8572.2
1740.893	8379.2
1745.301	8167.2
1749.705	7922.2
1754.105	7692.2
1758.501	7498.2
1762.893	7275.2
1767.28	7119.2
1771.663	6956.2
1776.042	6834.2
1780.417	6817.2
1784.787	6795.2
1789.154	6851.2
1793.516	7009.2
1797.874	7163.2
1802.228	7280.2
1806.578	7337.2
1810.924	7327.2
1815.266	7253.2
1819.603	7111.2
1823.937	7010.2
1828.266	6932.2
1832.591	6824.2
1836.913	6713.2
1841.23	6648.2
1845.543	6594.2
1849.852	6578.2
1854.156	6539.2
1858.457	6572.2
1862.754	6537.2
1867.047	6515.2
1871.335	6504.2
1875.62	6470.2
1879.9	6476.2
1884.177	6436.2
1888.449	6357.2
1892.718	6276.2
1896.982	6236.2
1901.243	6199.2
1905.499	6116.2
1909.752	6125.2
1914	6136.2
1918.245	6156.2
1922.485	6184.2
1926.722	6316.2
1930.954	6342.2
1935.183	6389.2
1939.408	6461.2
1943.628	6490.2
1947.845	6559.2
1952.058	6516.2
1956.267	6453.2
1960.472	6383.2
1964.673	6262.2
1968.87	6136.2
1973.063	6095.2
1977.252	5978.2
1981.438	5940.2
1985.619	5901.2
1989.797	5821.2
1993.971	5800.2
1998.14	5774.2
2002.306	5729.2
2006.469	5716.2
2010.627	5700.2
2014.781	5631.2
2018.932	5588.2
2023.078	5559.2
2027.221	5475.2
2031.36	5377.2
2035.495	5326.2
2039.627	5227.2
2043.754	5187.2
2047.878	5090.2
2051.998	5068.2
2056.114	5073.2
2060.226	5084.2
2064.334	5103.2
2068.439	5107.2
2072.54	5132.2
2076.637	5152.2
2080.73	5191.2
2084.82	5206.2
2088.906	5231.2
2092.988	5247.2
2097.066	5215.2
2101.14	5177.2
2105.211	5130.2
2109.278	5156.2
2113.342	5105.2
2117.401	5083.2
2121.457	5060.2
2125.509	5014.2
2129.558	4974.2
2133.602	4973.2
2137.643	4899.2
2141.681	4892.2
2145.714	4847.2
2149.744	4840.2
2153.77	4801.2
2157.793	4732.2
2161.812	4692.2
2165.827	4650.2
2169.838	4577.2
2173.846	4479.2
2177.851	4414.2
2181.851	4331.2
2185.848	4290.2
2189.841	4258.2
2193.831	4172.2
2197.817	4144.2
2201.799	4135.2
2205.778	4115.2
2209.753	4084.2
2213.725	4083.2
2217.693	4059.2
2221.657	4039.2
2225.618	4057.2
2229.575	4038.2
2233.529	3994.2
2237.479	3955.2
2241.425	3937.2
2245.368	3877.2
2249.307	3790.2
2253.243	3752.2
2257.175	3676.2
2261.104	3632.2
2265.029	3640.2
2268.95	3588.2
2272.868	3535.2
2276.783	3507.2
2280.694	3453.2
2284.601	3422.2
2288.505	3392.2
2292.405	3391.2
2296.302	3326.2
2300.195	3305.2
2304.085	3269.2
2307.971	3207.2
2311.854	3141.2
2315.734	3121.2
2319.609	3061.2
2323.482	3024.2
2327.351	2996.2
2331.216	2963.2
2335.078	2953.2
2338.937	2934.2
2342.792	2899.2
2346.643	2898.2
2350.492	2915.2
2354.336	2908.2
2358.178	2905.2
2362.015	2920.2
2365.85	2913.2
2369.681	2941.2
2373.508	2921.2
2377.333	2919.2
2381.153	2927.2
2384.971	2879.2
2388.785	2870.2
2392.595	2833.2
2396.402	2812.2
2400.206	2802.2
2404.007	2761.2
2407.804	2743.2
2411.597	2744.2
2415.388	2717.2
2419.174	2695.2
2422.958	2675.2
2426.738	2667.2
2430.515	2623.2
2434.289	2605.2
2438.059	2556.2
2441.825	2580.2
2445.589	2540.2
2449.349	2516.2
2453.106	2488.2
2456.859	2453.2
2460.61	2461.2
2464.356	2398.2
2468.1	2363.2
2471.84	2361.2
2475.577	2324.2
2479.311	2307.2
2483.041	2314.2
2486.768	2287.2
2490.492	2280.2
2494.213	2280.2
2497.93	2269.2
2501.644	2260.2
2505.355	2217.2
2509.062	2222.2
2512.766	2214.2
2516.467	2202.2
2520.165	2201.2
2523.859	2163.2
2527.551	2152.2
2531.239	2146.2
2534.923	2169.2
2538.605	2127.2
2542.283	2111.2
2545.958	2115.2
2549.63	2113.2
2553.299	2127.2
2556.964	2106.2
2560.626	2120.2
2564.285	2083.2
2567.941	2091.2
2571.594	2072.2
2575.243	2069.2
2578.89	2066.2
2582.533	2023.2
2586.173	2015.2
2589.809	1998.2
2593.443	1999.2
2597.073	1967.2
2600.701	1934.2
2604.325	1919.2
2607.946	1916.2
2611.564	1905.2
2615.178	1885.2
2618.79	1872.2
2622.398	1864.2
2626.004	1828.2
2629.606	1828.2
2633.205	1802.2
2636.801	1778.2
2640.394	1754.2
2643.983	1720.2
2647.57	1676.2
2651.153	1662.2
2654.734	1647.2
2658.311	1622.2
2661.885	1574.2
2665.456	1572.2
2669.025	1566.2
2672.589	1520.2
2676.151	1528.2
2679.71	1499.2
2683.266	1487.2
2686.819	1464.2
2690.368	1433.2
2693.915	1387.2
2697.458	1373.2
2700.999	1338.2
2704.536	1289.2
2708.071	1279.2
2711.602	1237.2
2715.13	1210.2
2718.656	1203.2
2722.178	1181.2
2725.697	1153.2
2729.214	1159.2
2732.727	1156.2
2736.237	1130.2
2739.744	1136.2
2743.249	1134.2
2746.75	1156.2
2750.248	1159.2
2753.743	1169.2
2757.236	1199.2
2760.725	1197.2
2764.211	1193.2
2767.695	1199.2
2771.175	1199.2
2774.652	1196.2
2778.127	1197.2
2781.598	1179.2
2785.067	1183.2
2788.532	1164.2
2791.995	1163.2
2795.455	1153.2
2798.911	1162.2
2802.365	1176.2
2805.816	1172.2
2809.264	1169.2
2812.709	1150.2
2816.151	1152.2
2819.59	1155.2
2823.026	1133.2
2826.46	1156.2
2829.89	1164.2
2833.318	1159.2
2836.742	1181.2
2840.164	1173.2
2843.583	1185.2
2846.999	1200.2
2850.412	1209.2
2853.822	1211.2
2857.229	1234.2
2860.634	1252.2
2864.035	1269.2
2867.434	1287.2
2870.83	1296.2
2874.223	1335.2
2877.613	1369.2
2881	1357.2
2884.385	1388.2
2887.766	1387.2
2891.145	1375.2
2894.521	1362.2
2897.894	1373.2
2901.264	1356.2
2904.631	1354.2
2907.996	1363.2
2911.358	1381.2
2914.717	1391.2
2918.073	1411.2
2921.426	1401.2
2924.777	1433.2
2928.124	1443.2
2931.469	1466.2
2934.811	1503.2
2938.15	1510.2
2941.487	1532.2
2944.821	1547.2
2948.152	1536.2
2951.48	1528.2
2954.805	1501.2
2958.128	1483.2
2961.447	1483.2
2964.765	1476.2
2968.079	1491.2
2971.39	1489.2
2974.699	1510.2
2978.005	1553.2
2981.308	1574.2
2984.609	1596.2
2987.907	1625.2
2991.202	1638.2
2994.494	1675.2
2997.784	1718.2
3001.07	1742.2
3004.355	1777.2
3007.636	1797.2
3010.915	1823.2
3014.191	1840.2
3017.464	1853.2
3020.734	1865.2
3024.002	1844.2
3027.267	1889.2
3030.53	1887.2
3033.789	1915.2
3037.046	1944.2
3040.301	1966.2
3043.552	2004.2
3046.801	2044.2
3050.048	2082.2
3053.291	2117.2
3056.532	2203.2
3059.771	2223.2
3063.006	2311.2
3066.239	2400.2
3069.469	2422.2
3072.697	2516.2
3075.922	2570.2
3079.144	2624.2
3082.364	2675.2
3085.581	2752.2
3088.795	2803.2
3092.007	2850.2
3095.216	2936.2
3098.423	2979.2
3101.627	3053.2
3104.828	3097.2
3108.026	3164.2
3111.222	3241.2
3114.416	3298.2
3117.607	3390.2
3120.795	3493.2
3123.98	3566.2
3127.163	3640.2
3130.344	3755.2
3133.521	3804.2
3136.696	3884.2
3139.869	3970.2
3143.039	4019.2
3146.206	4102.2
3149.371	4143.2
3152.533	4165.2
3155.693	4227.2
3158.85	4219.2
3162.005	4237.2
3165.157	4276.2
3168.306	4275.2
3171.453	4275.2
3174.597	4306.2
3177.739	4325.2
3180.878	4326.2
3184.014	4319.2
3187.149	4326.2
3190.28	4298.2
3193.409	4329.2
3196.536	4327.2
3199.659	4367.2
3202.781	4330.2
3205.9	4376.2
3209.016	4356.2
3212.13	4314.2
3215.241	4345.2
3218.35	4283.2
3221.456	4242.2
3224.56	4207.2
3227.661	4141.2
3230.76	4140.2
3233.856	4076.2
3236.95	4032.2
3240.041	4007.2
3243.13	3953.2
3246.216	3968.2
3249.3	3920.2
3252.382	3934.2
3255.46	3908.2
3258.537	3841.2
3261.611	3905.2
3264.682	3893.2
3267.751	3878.2
3270.818	3885.2
3273.882	3868.2
3276.943	3832.2
3280.002	3812.2
3283.059	3782.2
3286.113	3715.2
3289.165	3663.2
3292.214	3626.2
3295.261	3554.2
3298.306	3506.2
3301.348	3442.2
3304.387	3415.2
3307.425	3339.2
3310.459	3306.2
3313.492	3237.2
3316.521	3201.2
3319.549	3154.2
3322.574	3146.2
3325.597	3123.2
3328.617	3104.2
3331.635	3079.2
3334.65	3032.2
3337.663	3004.2
3340.674	3018.2
3343.682	2992.2
3346.688	3010.2
3349.691	2971.2
3352.692	2943.2
3355.691	2914.2
3358.687	2929.2
3361.681	2878.2
3364.673	2840.2
3367.662	2759.2
3370.649	2753.2
3373.633	2719.2
3376.615	2690.2
3379.595	2627.2
3382.572	2627.2
3385.547	2568.2
3388.52	2533.2
3391.49	2481.2
3394.458	2464.2
3397.424	2451.2
3400.387	2373.2
3403.348	2348.2
3406.307	2341.2
3409.263	2294.2
3412.217	2296.2
3415.168	2271.2
3418.118	2231.2
3421.065	2206.2
3424.009	2150.2
3426.951	2116.2
3429.891	2096.2
3432.829	2073.2
3435.764	2034.2
3438.697	1977.2
3441.628	1909.2
3444.557	1835.2
3447.483	1756.2
3450.407	1728.2
3453.328	1703.2
3456.247	1630.2
3459.164	1574.2
3462.079	1539.2
3464.991	1482.2
3467.902	1409.2
3470.809	1363.2
3473.715	1306.2
3476.618	1246.2
3479.519	1227.2
3482.418	1181.2
3485.315	1126.2
3488.209	1099.2
3491.101	1049.2
3493.99	1032.2
3496.878	986.2
3499.763	952.2
3502.646	929.2
3505.527	884.2
3508.405	836.2
3511.281	787.2
3514.155	739.2
3517.027	708.2
3519.897	664.2
3522.764	617.2
3525.629	566.2
3528.492	519.2
3531.352	488.2
3534.211	443.2
3537.067	396.2
3539.921	381.2
3542.773	333.2
3545.622	293.2
3548.469	265.2
3551.315	221.2
3554.157	203.2
3556.998	171.2
3559.837	145.2
3562.673	119.2
3565.507	85.2
3568.339	61.2
3571.169	51.2
3573.996	23.2
3576.822	12.2
3579.645	-26.8
3582.466	-42.8
3585.285	-62.8
3588.101	-90.8
3590.916	-102.8
3593.728	-138.8
3596.538	-153.8
3599.346	-164.8
3602.152	-177.8
3604.956	-200.8
3607.757	-211.8
3610.556	-244.8
3613.354	-245.8
3616.149	-267.8
3618.942	-279.8
3621.732	-290.8
3624.521	-303.8
3627.307	-317.8
3630.092	-330.8
3632.874	-335.8
3635.654	-344.8
3638.432	-353.8
3641.208	-366.8
3643.982	-379.8
3646.753	-386.8
3649.523	-396.8
3652.29	-409.8
3655.055	-406.8
3657.818	-430.8
3660.579	-439.8
3663.338	-456.8
3666.095	-464.8
3668.849	-471.8
3671.602	-487.8
3674.352	-496.8
3677.101	-492.8
3679.847	-507.8
3682.591	-515.8
3685.333	-516.8
3688.073	-522.8
3690.811	-523.8
3693.547	-538.8
3696.281	-539.8
3699.013	-543.8
3701.742	-554.8
3704.47	-551.8
3707.195	-556.8
3709.919	-565.8
3712.64	-567.8
3715.359	-562.8
3718.076	-578.8
3720.792	-573.8
3723.505	-586.8
3726.216	-594.8
3728.925	-589.8
3731.632	-595.8
3734.336	-600.8
3737.039	-601.8
3739.74	-603.8
3742.439	-608.8
3745.136	-603.8
3747.83	-609.8
3750.523	-608.8
3753.213	-621.8
3755.902	-616.8
3758.589	-611.8
3761.273	-619.8
3763.956	-618.8
3766.636	-626.8
3769.315	-623.8
3771.991	-627.8
3774.665	-628.8
3777.338	-631.8
3780.008	-632.8
3782.677	-635.8
3785.343	-632.8
3788.007	-630.8
3790.67	-635.8
3793.33	-641.8
3795.989	-643.8
3798.645	-641.8
3801.299	-638.8
3803.952	-650.8
3806.602	-651.8
3809.251	-655.8
3811.897	-651.8
3814.542	-654.8
3817.184	-646.8
3819.825	-647.8
3822.463	-647.8
3825.1	-657.8
3827.735	-645.8
3830.367	-644.8
3832.998	-653.8
3835.627	-656.8
3838.253	-660.8
3840.878	-656.8
3843.501	-659.8
3846.122	-655.8
3848.741	-651.8
3851.358	-660.8
3853.973	-660.8
3856.586	-660.8
3859.197	-666.8
3861.806	-669.8
3864.414	-657.8
3867.019	-658.8
3869.622	-663.8
3872.224	-656.8
3874.823	-647.8
3877.421	-628.8
3880.016	-615.8
3882.61	-589.8
3885.202	-583.8
3887.792	-598.8
3890.38	-629.8
3892.966	-649.8
3895.55	-659.8
3898.132	-672.8
3900.713	-669.8
3903.291	-675.8
3905.868	-674.8
3908.442	-676.8
3911.015	-675.8
3913.586	-670.8
3916.155	-672.8
3918.722	-681.8
3921.287	-676.8
3923.85	-678.8
3926.411	-681.8
3928.971	-683.8
3931.528	-682.8
3934.084	-679.8
3936.638	-676.8
3939.19	-679.8
3941.74	-679.8
3944.288	-684.8
3946.834	-678.8
3949.378	-681.8
3951.921	-677.8
3954.462	-685.8
3957	-679.8
3959.537	-677.8
3962.072	-675.8
3964.606	-674.8
3967.137	-671.8
3969.667	-679.8
3972.194	-670.8
3974.72	-675.8
3977.244	-666.8
3979.766	-663.8
3982.286	-668.8
3984.805	-667.8
3987.321	-668.8
3989.836	-672.8
3992.349	-661.8
3994.86	-667.8
3997.369	-675.8
3999.877	-665.8
4002.382	-663.8
4004.886	-665.8
4007.388	-662.8
4009.888	-662.8
4012.386	-665.8
4014.883	-661.8
4017.377	-658.8
4019.87	-656.8
4022.361	-660.8
4024.85	-665.8
4027.338	-667.8
4029.823	-669.8
4032.307	-664.8
4034.789	-658.8
4037.269	-661.8
4039.747	-666.8
4042.224	-670.8
4044.699	-667.8
4047.172	-661.8
4049.643	-663.8
4052.112	-672.8
4054.58	-671.8
4057.046	-671.8
4059.51	-668.8
4061.972	-674.8
4064.432	-673.8
4066.891	-672.8
4069.348	-666.8
4071.803	-660.8
4074.256	-663.8
4076.708	-663.8
4079.158	-670.8
4081.606	-669.8
4084.052	-671.8
4086.497	-668.8
4088.939	-658.8
4091.38	-664.8
4093.819	-660.8
4096.257	-700.8
4098.693	-703.8
4101.127	-707.8
4103.559	-705.8
4105.989	-403.8
4108.418	-385.8
4110.845	-354.8
4113.27	-332.8
4115.694	-296.8
4118.115	-237.8
4120.535	-661.8
4122.954	-664.8
4125.37	-660.8
4127.785	-664.8
4130.198	-670.8
4132.609	-672.8
4135.019	-705.8
4137.427	-707.8
4139.833	-706.8
4142.237	-702.8
