Data from 2018-2-14_conc=0_n=5_RamanShift_03.txt Node
Date: Wed Feb 14 10:40:26 IST 2018
User: aro
Spectrometer: QEPB0276
Trigger mode: 0
Integration Time (sec): 3.000000E1
Scans to average: 1
Electric dark correction enabled: true
Nonlinearity correction enabled: false
Boxcar width: 0
XAxis mode: Raman Shifts
Number of Pixels in Spectrum: 1044
>>>>>Begin Spectral Data<<<<<
160.701	-143.1
166.742	38.9
172.777	531.9
178.805	2062.9
184.826	5667.9
190.841	11856.9
196.849	18969.9
202.85	23915.9
208.845	25477.9
214.833	25217.9
220.815	24755.9
226.789	24502.9
232.758	24424.9
238.719	24217.9
244.674	23837.9
250.623	23443.9
256.565	22931.9
262.5	22390.9
268.429	22028.9
274.351	21634.9
280.267	21408.9
286.176	21083.9
292.079	20923.9
297.975	20680.9
303.865	20477.9
309.748	20310.9
315.625	20203.9
321.495	20104.9
327.359	19972.9
333.217	19933.9
339.068	19894.9
344.912	19919.9
350.751	19876.9
356.583	19809.9
362.408	19830.9
368.227	19865.9
374.04	19809.9
379.847	19868.9
385.647	19859.9
391.44	20056.9
397.228	20098.9
403.009	20198.9
408.784	20210.9
414.553	20337.9
420.315	20275.9
426.071	20354.9
431.821	20279.9
437.565	20279.9
443.302	20299.9
449.033	20236.9
454.758	20248.9
460.477	20215.9
466.189	20111.9
471.896	20110.9
477.596	20057.9
483.29	19973.9
488.978	19976.9
494.66	19877.9
500.335	19789.9
506.005	19598.9
511.668	19282.9
517.325	19126.9
522.977	18946.9
528.622	18803.9
534.261	18815.9
539.894	18626.9
545.521	18604.9
551.141	18511.9
556.756	18438.9
562.365	18337.9
567.968	18292.9
573.565	18224.9
579.155	18140.9
584.74	18061.9
590.319	18053.9
595.892	17948.9
601.459	17891.9
607.02	17810.9
612.575	17711.9
618.124	17586.9
623.667	17437.9
629.204	17454.9
634.735	17374.9
640.261	17272.9
645.781	17209.9
651.294	17222.9
656.802	17135.9
662.304	17100.9
667.8	17101.9
673.29	17073.9
678.775	17009.9
684.254	16924.9
689.726	16939.9
695.193	16889.9
700.655	16759.9
706.11	16733.9
711.56	16636.9
717.004	16608.9
722.442	16460.9
727.874	16386.9
733.301	16396.9
738.722	16292.9
744.137	16291.9
749.547	16288.9
754.951	16294.9
760.349	16264.9
765.741	16339.9
771.128	16304.9
776.509	16322.9
781.885	16307.9
787.254	16257.9
792.618	16184.9
797.977	16085.9
803.33	16028.9
808.677	15913.9
814.019	15840.9
819.355	15765.9
824.686	15653.9
830.011	15659.9
835.33	15682.9
840.644	15682.9
845.952	15710.9
851.255	15701.9
856.552	15685.9
861.844	15714.9
867.13	15645.9
872.41	15605.9
877.686	15524.9
882.955	15456.9
888.219	15347.9
893.478	15112.9
898.731	14925.9
903.979	14750.9
909.221	14706.9
914.458	14649.9
919.69	14613.9
924.916	14671.9
930.136	14714.9
935.351	14775.9
940.561	14704.9
945.766	14688.9
950.965	14579.9
956.158	14521.9
961.347	14417.9
966.529	14163.9
971.707	14047.9
976.879	13808.9
982.046	13781.9
987.208	13686.9
992.364	13723.9
997.515	13817.9
1002.66	13942.9
1007.801	14103.9
1012.936	14196.9
1018.066	14235.9
1023.19	14184.9
1028.309	14129.9
1033.423	14143.9
1038.532	14053.9
1043.636	13963.9
1048.734	13808.9
1053.827	13640.9
1058.915	13459.9
1063.998	13363.9
1069.075	13362.9
1074.147	13368.9
1079.214	13394.9
1084.276	13486.9
1089.333	13576.9
1094.385	13633.9
1099.431	13714.9
1104.472	13654.9
1109.509	13565.9
1114.54	13484.9
1119.565	13295.9
1124.586	13115.9
1129.602	12998.9
1134.613	12927.9
1139.618	12803.9
1144.619	12784.9
1149.614	12753.9
1154.604	12828.9
1159.589	12865.9
1164.57	12887.9
1169.545	12898.9
1174.515	12896.9
1179.48	12830.9
1184.44	12747.9
1189.395	12595.9
1194.345	12566.9
1199.29	12470.9
1204.23	12480.9
1209.165	12568.9
1214.095	12618.9
1219.021	12653.9
1223.941	12753.9
1228.856	12864.9
1233.766	12870.9
1238.672	12865.9
1243.572	12883.9
1248.467	12837.9
1253.358	12642.9
1258.244	12459.9
1263.124	12274.9
1268	12058.9
1272.871	11923.9
1277.737	11894.9
1282.599	11795.9
1287.455	11804.9
1292.306	11827.9
1297.153	11862.9
1301.995	11942.9
1306.832	11997.9
1311.664	11997.9
1316.491	11953.9
1321.314	11797.9
1326.132	11662.9
1330.945	11472.9
1335.753	11152.9
1340.556	10895.9
1345.354	10689.9
1350.148	10488.9
1354.937	10402.9
1359.722	10417.9
1364.501	10441.9
1369.276	10534.9
1374.046	10749.9
1378.811	10892.9
1383.572	11035.9
1388.327	11102.9
1393.079	11041.9
1397.825	10892.9
1402.567	10698.9
1407.304	10571.9
1412.036	10486.9
1416.764	10378.9
1421.487	10319.9
1426.205	10260.9
1430.919	10224.9
1435.628	10222.9
1440.333	10257.9
1445.032	10275.9
1449.727	10314.9
1454.418	10303.9
1459.104	10210.9
1463.785	9996.9
1468.462	9795.9
1473.134	9615.9
1477.802	9417.9
1482.465	9197.9
1487.123	9206.9
1491.777	9182.9
1496.426	9217.9
1501.071	9343.9
1505.711	9451.9
1510.347	9660.9
1514.978	9768.9
1519.604	9916.9
1524.226	10074.9
1528.844	10065.9
1533.457	10010.9
1538.065	10013.9
1542.669	9930.9
1547.269	9836.9
1551.864	9783.9
1556.454	9762.9
1561.041	9693.9
1565.622	9706.9
1570.199	9683.9
1574.772	9745.9
1579.34	9852.9
1583.904	9894.9
1588.464	9945.9
1593.019	9930.9
1597.569	9873.9
1602.115	9830.9
1606.657	9764.9
1611.195	9686.9
1615.728	9647.9
1620.256	9579.9
1624.78	9592.9
1629.3	9593.9
1633.816	9635.9
1638.327	9675.9
1642.834	9753.9
1647.336	9792.9
1651.834	9772.9
1656.328	9764.9
1660.817	9745.9
1665.302	9612.9
1669.783	9471.9
1674.259	9313.9
1678.732	9047.9
1683.199	8748.9
1687.663	8432.9
1692.122	8153.9
1696.577	8081.9
1701.028	8026.9
1705.474	8111.9
1709.917	8236.9
1714.355	8303.9
1718.788	8188.9
1723.218	8066.9
1727.643	7958.9
1732.064	7762.9
1736.481	7601.9
1740.893	7424.9
1745.301	7235.9
1749.705	7012.9
1754.105	6846.9
1758.501	6644.9
1762.893	6447.9
1767.28	6290.9
1771.663	6140.9
1776.042	6051.9
1780.417	6019.9
1784.787	6001.9
1789.154	6066.9
1793.516	6190.9
1797.874	6327.9
1802.228	6417.9
1806.578	6537.9
1810.924	6501.9
1815.266	6458.9
1819.603	6356.9
1823.937	6245.9
1828.266	6151.9
1832.591	6023.9
1836.913	5955.9
1841.23	5902.9
1845.543	5897.9
1849.852	5839.9
1854.156	5828.9
1858.457	5789.9
1862.754	5839.9
1867.047	5750.9
1871.335	5790.9
1875.62	5771.9
1879.9	5737.9
1884.177	5712.9
1888.449	5685.9
1892.718	5621.9
1896.982	5560.9
1901.243	5487.9
1905.499	5457.9
1909.752	5445.9
1914	5437.9
1918.245	5459.9
1922.485	5524.9
1926.722	5615.9
1930.954	5672.9
1935.183	5732.9
1939.408	5837.9
1943.628	5833.9
1947.845	5823.9
1952.058	5820.9
1956.267	5796.9
1960.472	5689.9
1964.673	5633.9
1968.87	5526.9
1973.063	5423.9
1977.252	5344.9
1981.438	5305.9
1985.619	5232.9
1989.797	5233.9
1993.971	5173.9
1998.14	5170.9
2002.306	5128.9
2006.469	5105.9
2010.627	5077.9
2014.781	5046.9
2018.932	5019.9
2023.078	4950.9
2027.221	4874.9
2031.36	4809.9
2035.495	4736.9
2039.627	4663.9
2043.754	4635.9
2047.878	4595.9
2051.998	4553.9
2056.114	4548.9
2060.226	4564.9
2064.334	4557.9
2068.439	4573.9
2072.54	4596.9
2076.637	4623.9
2080.73	4653.9
2084.82	4697.9
2088.906	4713.9
2092.988	4711.9
2097.066	4672.9
2101.14	4673.9
2105.211	4629.9
2109.278	4589.9
2113.342	4593.9
2117.401	4584.9
2121.457	4525.9
2125.509	4526.9
2129.558	4472.9
2133.602	4483.9
2137.643	4437.9
2141.681	4428.9
2145.714	4378.9
2149.744	4367.9
2153.77	4308.9
2157.793	4274.9
2161.812	4224.9
2165.827	4139.9
2169.838	4092.9
2173.846	4021.9
2177.851	3975.9
2181.851	3899.9
2185.848	3886.9
2189.841	3806.9
2193.831	3763.9
2197.817	3736.9
2201.799	3728.9
2205.778	3710.9
2209.753	3710.9
2213.725	3651.9
2217.693	3698.9
2221.657	3680.9
2225.618	3650.9
2229.575	3617.9
2233.529	3615.9
2237.479	3578.9
2241.425	3534.9
2245.368	3509.9
2249.307	3431.9
2253.243	3413.9
2257.175	3357.9
2261.104	3287.9
2265.029	3286.9
2268.95	3233.9
2272.868	3205.9
2276.783	3171.9
2280.694	3181.9
2284.601	3112.9
2288.505	3084.9
2292.405	3050.9
2296.302	3015.9
2300.195	2958.9
2304.085	2953.9
2307.971	2912.9
2311.854	2881.9
2315.734	2847.9
2319.609	2790.9
2323.482	2766.9
2327.351	2732.9
2331.216	2718.9
2335.078	2703.9
2338.937	2698.9
2342.792	2655.9
2346.643	2620.9
2350.492	2663.9
2354.336	2660.9
2358.178	2676.9
2362.015	2685.9
2365.85	2701.9
2369.681	2666.9
2373.508	2691.9
2377.333	2679.9
2381.153	2667.9
2384.971	2641.9
2388.785	2610.9
2392.595	2600.9
2396.402	2618.9
2400.206	2547.9
2404.007	2542.9
2407.804	2535.9
2411.597	2502.9
2415.388	2490.9
2419.174	2512.9
2422.958	2482.9
2426.738	2455.9
2430.515	2464.9
2434.289	2420.9
2438.059	2417.9
2441.825	2390.9
2445.589	2360.9
2449.349	2324.9
2453.106	2308.9
2456.859	2262.9
2460.61	2253.9
2464.356	2236.9
2468.1	2208.9
2471.84	2170.9
2475.577	2169.9
2479.311	2149.9
2483.041	2145.9
2486.768	2132.9
2490.492	2116.9
2494.213	2122.9
2497.93	2118.9
2501.644	2111.9
2505.355	2107.9
2509.062	2098.9
2512.766	2092.9
2516.467	2079.9
2520.165	2040.9
2523.859	2022.9
2527.551	2044.9
2531.239	2018.9
2534.923	1994.9
2538.605	1994.9
2542.283	1996.9
2545.958	1964.9
2549.63	1985.9
2553.299	1990.9
2556.964	1981.9
2560.626	1971.9
2564.285	1969.9
2567.941	1968.9
2571.594	1947.9
2575.243	1908.9
2578.89	1907.9
2582.533	1903.9
2586.173	1886.9
2589.809	1887.9
2593.443	1840.9
2597.073	1834.9
2600.701	1833.9
2604.325	1826.9
2607.946	1805.9
2611.564	1770.9
2615.178	1783.9
2618.79	1763.9
2622.398	1743.9
2626.004	1731.9
2629.606	1711.9
2633.205	1687.9
2636.801	1667.9
2640.394	1631.9
2643.983	1615.9
2647.57	1600.9
2651.153	1585.9
2654.734	1527.9
2658.311	1534.9
2661.885	1466.9
2665.456	1478.9
2669.025	1472.9
2672.589	1447.9
2676.151	1442.9
2679.71	1418.9
2683.266	1398.9
2686.819	1377.9
2690.368	1348.9
2693.915	1329.9
2697.458	1289.9
2700.999	1247.9
2704.536	1249.9
2708.071	1194.9
2711.602	1180.9
2715.13	1162.9
2718.656	1128.9
2722.178	1126.9
2725.697	1095.9
2729.214	1095.9
2732.727	1096.9
2736.237	1076.9
2739.744	1078.9
2743.249	1086.9
2746.75	1085.9
2750.248	1098.9
2753.743	1118.9
2757.236	1132.9
2760.725	1127.9
2764.211	1142.9
2767.695	1145.9
2771.175	1143.9
2774.652	1140.9
2778.127	1123.9
2781.598	1114.9
2785.067	1112.9
2788.532	1117.9
2791.995	1115.9
2795.455	1120.9
2798.911	1103.9
2802.365	1109.9
2805.816	1096.9
2809.264	1098.9
2812.709	1097.9
2816.151	1086.9
2819.59	1097.9
2823.026	1103.9
2826.46	1117.9
2829.89	1125.9
2833.318	1112.9
2836.742	1122.9
2840.164	1126.9
2843.583	1138.9
2846.999	1142.9
2850.412	1157.9
2853.822	1156.9
2857.229	1191.9
2860.634	1183.9
2864.035	1201.9
2867.434	1219.9
2870.83	1246.9
2874.223	1244.9
2877.613	1285.9
2881	1270.9
2884.385	1310.9
2887.766	1297.9
2891.145	1277.9
2894.521	1288.9
2897.894	1280.9
2901.264	1269.9
2904.631	1278.9
2907.996	1275.9
2911.358	1296.9
2914.717	1286.9
2918.073	1300.9
2921.426	1298.9
2924.777	1314.9
2928.124	1350.9
2931.469	1376.9
2934.811	1397.9
2938.15	1413.9
2941.487	1409.9
2944.821	1426.9
2948.152	1416.9
2951.48	1383.9
2954.805	1407.9
2958.128	1386.9
2961.447	1358.9
2964.765	1366.9
2968.079	1372.9
2971.39	1383.9
2974.699	1408.9
2978.005	1401.9
2981.308	1450.9
2984.609	1471.9
2987.907	1489.9
2991.202	1520.9
2994.494	1551.9
2997.784	1598.9
3001.07	1608.9
3004.355	1628.9
3007.636	1662.9
3010.915	1669.9
3014.191	1682.9
3017.464	1689.9
3020.734	1715.9
3024.002	1706.9
3027.267	1721.9
3030.53	1738.9
3033.789	1764.9
3037.046	1774.9
3040.301	1799.9
3043.552	1841.9
3046.801	1864.9
3050.048	1885.9
3053.291	1962.9
3056.532	2010.9
3059.771	2062.9
3063.006	2093.9
3066.239	2175.9
3069.469	2220.9
3072.697	2263.9
3075.922	2334.9
3079.144	2387.9
3082.364	2433.9
3085.581	2496.9
3088.795	2536.9
3092.007	2585.9
3095.216	2638.9
3098.423	2702.9
3101.627	2780.9
3104.828	2816.9
3108.026	2892.9
3111.222	2953.9
3114.416	3016.9
3117.607	3090.9
3120.795	3153.9
3123.98	3228.9
3127.163	3306.9
3130.344	3370.9
3133.521	3444.9
3136.696	3528.9
3139.869	3604.9
3143.039	3656.9
3146.206	3724.9
3149.371	3748.9
3152.533	3764.9
3155.693	3792.9
3158.85	3821.9
3162.005	3858.9
3165.157	3831.9
3168.306	3841.9
3171.453	3837.9
3174.597	3884.9
3177.739	3886.9
3180.878	3886.9
3184.014	3877.9
3187.149	3896.9
3190.28	3907.9
3193.409	3904.9
3196.536	3897.9
3199.659	3912.9
3202.781	3933.9
3205.9	3945.9
3209.016	3913.9
3212.13	3899.9
3215.241	3871.9
3218.35	3837.9
3221.456	3794.9
3224.56	3743.9
3227.661	3738.9
3230.76	3673.9
3233.856	3637.9
3236.95	3616.9
3240.041	3591.9
3243.13	3563.9
3246.216	3545.9
3249.3	3506.9
3252.382	3513.9
3255.46	3518.9
3258.537	3502.9
3261.611	3494.9
3264.682	3504.9
3267.751	3495.9
3270.818	3472.9
3273.882	3457.9
3276.943	3429.9
3280.002	3427.9
3283.059	3375.9
3286.113	3358.9
3289.165	3301.9
3292.214	3238.9
3295.261	3195.9
3298.306	3137.9
3301.348	3101.9
3304.387	3067.9
3307.425	3005.9
3310.459	2947.9
3313.492	2891.9
3316.521	2869.9
3319.549	2850.9
3322.574	2777.9
3325.597	2785.9
3328.617	2737.9
3331.635	2728.9
3334.65	2710.9
3337.663	2676.9
3340.674	2668.9
3343.682	2663.9
3346.688	2648.9
3349.691	2640.9
3352.692	2626.9
3355.691	2631.9
3358.687	2576.9
3361.681	2561.9
3364.673	2529.9
3367.662	2495.9
3370.649	2445.9
3373.633	2419.9
3376.615	2402.9
3379.595	2343.9
3382.572	2329.9
3385.547	2275.9
3388.52	2257.9
3391.49	2209.9
3394.458	2198.9
3397.424	2182.9
3400.387	2123.9
3403.348	2097.9
3406.307	2086.9
3409.263	2062.9
3412.217	2031.9
3415.168	2010.9
3418.118	1994.9
3421.065	1953.9
3424.009	1931.9
3426.951	1910.9
3429.891	1868.9
3432.829	1822.9
3435.764	1796.9
3438.697	1750.9
3441.628	1682.9
3444.557	1639.9
3447.483	1590.9
3450.407	1551.9
3453.328	1493.9
3456.247	1442.9
3459.164	1398.9
3462.079	1348.9
3464.991	1306.9
3467.902	1248.9
3470.809	1204.9
3473.715	1156.9
3476.618	1117.9
3479.519	1099.9
3482.418	1038.9
3485.315	1018.9
3488.209	979.9
3491.101	953.9
3493.99	910.9
3496.878	872.9
3499.763	844.9
3502.646	813.9
3505.527	771.9
3508.405	751.9
3511.281	703.9
3514.155	669.9
3517.027	626.9
3519.897	601.9
3522.764	545.9
3525.629	498.9
3528.492	458.9
3531.352	421.9
3534.211	395.9
3537.067	350.9
3539.921	336.9
3542.773	277.9
3545.622	259.9
3548.469	237.9
3551.315	212.9
3554.157	173.9
3556.998	145.9
3559.837	121.9
3562.673	107.9
3565.507	75.9
3568.339	58.9
3571.169	33.9
3573.996	16.9
3576.822	8.9
3579.645	-24.1
3582.466	-45.1
3585.285	-58.1
3588.101	-74.1
3590.916	-91.1
3593.728	-122.1
3596.538	-138.1
3599.346	-144.1
3602.152	-161.1
3604.956	-176.1
3607.757	-194.1
3610.556	-212.1
3613.354	-222.1
3616.149	-232.1
3618.942	-255.1
3621.732	-251.1
3624.521	-265.1
3627.307	-279.1
3630.092	-291.1
3632.874	-302.1
3635.654	-306.1
3638.432	-314.1
3641.208	-325.1
3643.982	-336.1
3646.753	-334.1
3649.523	-347.1
3652.29	-357.1
3655.055	-362.1
3657.818	-381.1
3660.579	-393.1
3663.338	-402.1
3666.095	-403.1
3668.849	-420.1
3671.602	-432.1
3674.352	-436.1
3677.101	-436.1
3679.847	-447.1
3682.591	-453.1
3685.333	-457.1
3688.073	-462.1
3690.811	-465.1
3693.547	-465.1
3696.281	-468.1
3699.013	-478.1
3701.742	-484.1
3704.47	-486.1
3707.195	-495.1
3709.919	-501.1
3712.64	-505.1
3715.359	-499.1
3718.076	-504.1
3720.792	-513.1
3723.505	-510.1
3726.216	-519.1
3728.925	-521.1
3731.632	-522.1
3734.336	-525.1
3737.039	-528.1
3739.74	-526.1
3742.439	-532.1
3745.136	-532.1
3747.83	-542.1
3750.523	-536.1
3753.213	-526.1
3755.902	-536.1
3758.589	-543.1
3761.273	-543.1
3763.956	-545.1
3766.636	-549.1
3769.315	-548.1
3771.991	-551.1
3774.665	-555.1
3777.338	-554.1
3780.008	-557.1
3782.677	-565.1
3785.343	-554.1
3788.007	-566.1
3790.67	-568.1
3793.33	-563.1
3795.989	-565.1
3798.645	-562.1
3801.299	-563.1
3803.952	-566.1
3806.602	-573.1
3809.251	-574.1
3811.897	-575.1
3814.542	-575.1
3817.184	-570.1
3819.825	-566.1
3822.463	-574.1
3825.1	-579.1
3827.735	-576.1
3830.367	-573.1
3832.998	-580.1
3835.627	-581.1
3838.253	-579.1
3840.878	-585.1
3843.501	-585.1
3846.122	-577.1
3848.741	-580.1
3851.358	-579.1
3853.973	-583.1
3856.586	-584.1
3859.197	-585.1
3861.806	-588.1
3864.414	-587.1
3867.019	-588.1
3869.622	-588.1
3872.224	-576.1
3874.823	-565.1
3877.421	-553.1
3880.016	-535.1
3882.61	-518.1
3885.202	-508.1
3887.792	-528.1
3890.38	-555.1
3892.966	-575.1
3895.55	-589.1
3898.132	-605.1
3900.713	-600.1
3903.291	-596.1
3905.868	-602.1
3908.442	-602.1
3911.015	-600.1
3913.586	-593.1
3916.155	-597.1
3918.722	-599.1
3921.287	-596.1
3923.85	-607.1
3926.411	-597.1
3928.971	-605.1
3931.528	-605.1
3934.084	-605.1
3936.638	-599.1
3939.19	-600.1
3941.74	-597.1
3944.288	-606.1
3946.834	-601.1
3949.378	-602.1
3951.921	-592.1
3954.462	-607.1
3957	-599.1
3959.537	-602.1
3962.072	-600.1
3964.606	-600.1
3967.137	-600.1
3969.667	-606.1
3972.194	-598.1
3974.72	-605.1
3977.244	-590.1
3979.766	-591.1
3982.286	-592.1
3984.805	-595.1
3987.321	-591.1
3989.836	-591.1
3992.349	-586.1
3994.86	-586.1
3997.369	-596.1
3999.877	-588.1
4002.382	-592.1
4004.886	-588.1
4007.388	-587.1
4009.888	-589.1
4012.386	-596.1
4014.883	-586.1
4017.377	-589.1
4019.87	-584.1
4022.361	-589.1
4024.85	-587.1
4027.338	-589.1
4029.823	-591.1
4032.307	-595.1
4034.789	-585.1
4037.269	-592.1
4039.747	-591.1
4042.224	-596.1
4044.699	-593.1
4047.172	-590.1
4049.643	-593.1
4052.112	-598.1
4054.58	-600.1
4057.046	-597.1
4059.51	-594.1
4061.972	-588.1
4064.432	-591.1
4066.891	-584.1
4069.348	-589.1
4071.803	-586.1
4074.256	-592.1
4076.708	-588.1
4079.158	-588.1
4081.606	-594.1
4084.052	-593.1
4086.497	-595.1
4088.939	-594.1
4091.38	-591.1
4093.819	-588.1
4096.257	-621.1
4098.693	-622.1
4101.127	-622.1
4103.559	-624.1
4105.989	-360.1
4108.418	-339.1
4110.845	-323.1
4113.27	-287.1
4115.694	-260.1
4118.115	-217.1
4120.535	-589.1
4122.954	-591.1
4125.37	-587.1
4127.785	-591.1
4130.198	-598.1
4132.609	-593.1
4135.019	-621.1
4137.427	-623.1
4139.833	-625.1
4142.237	-621.1
