Data from 2018-2-14_conc=4_n=10_RamanShift_04.txt Node
Date: Wed Feb 14 14:01:25 IST 2018
User: aro
Spectrometer: QEPB0276
Trigger mode: 0
Integration Time (sec): 3.000000E1
Scans to average: 1
Electric dark correction enabled: true
Nonlinearity correction enabled: false
Boxcar width: 0
XAxis mode: Raman Shifts
Number of Pixels in Spectrum: 1044
>>>>>Begin Spectral Data<<<<<
160.701	-106.4
166.742	38.6
172.777	458.6
178.805	1720.6
184.826	4753.6
190.841	9845.6
196.849	15798.6
202.85	19933.6
208.845	21327.6
214.833	21165.6
220.815	20836.6
226.789	20753.6
232.758	20648.6
238.719	20551.6
244.674	20289.6
250.623	19965.6
256.565	19677.6
262.5	19161.6
268.429	18908.6
274.351	18665.6
280.267	18428.6
286.176	18229.6
292.079	18162.6
297.975	18022.6
303.865	17787.6
309.748	17722.6
315.625	17644.6
321.495	17498.6
327.359	17500.6
333.217	17440.6
339.068	17454.6
344.912	17451.6
350.751	17466.6
356.583	17438.6
362.408	17372.6
368.227	17416.6
374.04	17445.6
379.847	17469.6
385.647	17516.6
391.44	17561.6
397.228	17652.6
403.009	17754.6
408.784	17800.6
414.553	17822.6
420.315	17845.6
426.071	17912.6
431.821	17891.6
437.565	17852.6
443.302	17827.6
449.033	17841.6
454.758	17769.6
460.477	17719.6
466.189	17651.6
471.896	17599.6
477.596	17536.6
483.29	17524.6
488.978	17496.6
494.66	17480.6
500.335	17364.6
506.005	17150.6
511.668	16894.6
517.325	16715.6
522.977	16514.6
528.622	16419.6
534.261	16282.6
539.894	16202.6
545.521	16152.6
551.141	16082.6
556.756	16032.6
562.365	15989.6
567.968	15934.6
573.565	15817.6
579.155	15815.6
584.74	15740.6
590.319	15637.6
595.892	15608.6
601.459	15612.6
607.02	15465.6
612.575	15375.6
618.124	15289.6
623.667	15215.6
629.204	15181.6
634.735	15070.6
640.261	14943.6
645.781	14978.6
651.294	14923.6
656.802	14917.6
662.304	14882.6
667.8	14812.6
673.29	14830.6
678.775	14791.6
684.254	14732.6
689.726	14707.6
695.193	14642.6
700.655	14572.6
706.11	14523.6
711.56	14455.6
717.004	14361.6
722.442	14303.6
727.874	14304.6
733.301	14218.6
738.722	14175.6
744.137	14117.6
749.547	14108.6
754.951	14120.6
760.349	14165.6
765.741	14100.6
771.128	14156.6
776.509	14168.6
781.885	14155.6
787.254	14099.6
792.618	14070.6
797.977	13944.6
803.33	13915.6
808.677	13824.6
814.019	13733.6
819.355	13631.6
824.686	13589.6
830.011	13612.6
835.33	13556.6
840.644	13527.6
845.952	13562.6
851.255	13634.6
856.552	13684.6
861.844	13565.6
867.13	13592.6
872.41	13570.6
877.686	13412.6
882.955	13340.6
888.219	13215.6
893.478	13046.6
898.731	12931.6
903.979	12807.6
909.221	12656.6
914.458	12627.6
919.69	12594.6
924.916	12695.6
930.136	12767.6
935.351	12765.6
940.561	12763.6
945.766	12679.6
950.965	12660.6
956.158	12567.6
961.347	12438.6
966.529	12251.6
971.707	12117.6
976.879	11971.6
982.046	11901.6
987.208	11843.6
992.364	11861.6
997.515	11914.6
1002.66	11998.6
1007.801	12123.6
1012.936	12209.6
1018.066	12185.6
1023.19	12285.6
1028.309	12236.6
1033.423	12223.6
1038.532	12137.6
1043.636	12023.6
1048.734	11874.6
1053.827	11787.6
1058.915	11636.6
1063.998	11516.6
1069.075	11531.6
1074.147	11522.6
1079.214	11601.6
1084.276	11614.6
1089.333	11728.6
1094.385	11744.6
1099.431	11748.6
1104.472	11775.6
1109.509	11738.6
1114.54	11520.6
1119.565	11434.6
1124.586	11250.6
1129.602	11195.6
1134.613	11047.6
1139.618	11018.6
1144.619	11020.6
1149.614	11010.6
1154.604	11031.6
1159.589	11053.6
1164.57	11072.6
1169.545	11112.6
1174.515	11043.6
1179.48	11008.6
1184.44	10957.6
1189.395	10847.6
1194.345	10788.6
1199.29	10745.6
1204.23	10707.6
1209.165	10719.6
1214.095	10845.6
1219.021	10902.6
1223.941	10899.6
1228.856	11028.6
1233.766	11002.6
1238.672	11024.6
1243.572	11016.6
1248.467	10955.6
1253.358	10808.6
1258.244	10682.6
1263.124	10498.6
1268	10341.6
1272.871	10214.6
1277.737	10098.6
1282.599	10062.6
1287.455	10057.6
1292.306	10099.6
1297.153	10105.6
1301.995	10200.6
1306.832	10240.6
1311.664	10194.6
1316.491	10133.6
1321.314	10060.6
1326.132	9949.6
1330.945	9772.6
1335.753	9533.6
1340.556	9246.6
1345.354	9121.6
1350.148	8943.6
1354.937	8914.6
1359.722	8854.6
1364.501	8860.6
1369.276	8904.6
1374.046	9014.6
1378.811	9094.6
1383.572	9246.6
1388.327	9263.6
1393.079	9214.6
1397.825	9160.6
1402.567	9011.6
1407.304	8895.6
1412.036	8825.6
1416.764	8758.6
1421.487	8698.6
1426.205	8669.6
1430.919	8643.6
1435.628	8650.6
1440.333	8665.6
1445.032	8659.6
1449.727	8709.6
1454.418	8730.6
1459.104	8587.6
1463.785	8425.6
1468.462	8256.6
1473.134	8075.6
1477.802	7918.6
1482.465	7814.6
1487.123	7712.6
1491.777	7709.6
1496.426	7714.6
1501.071	7751.6
1505.711	7849.6
1510.347	7971.6
1514.978	8072.6
1519.604	8173.6
1524.226	8241.6
1528.844	8287.6
1533.457	8268.6
1538.065	8226.6
1542.669	8201.6
1547.269	8106.6
1551.864	8098.6
1556.454	8076.6
1561.041	8019.6
1565.622	8043.6
1570.199	8028.6
1574.772	8081.6
1579.34	8121.6
1583.904	8171.6
1588.464	8208.6
1593.019	8229.6
1597.569	8203.6
1602.115	8113.6
1606.657	8043.6
1611.195	8027.6
1615.728	7972.6
1620.256	7940.6
1624.78	7945.6
1629.3	7955.6
1633.816	7899.6
1638.327	7995.6
1642.834	8024.6
1647.336	8059.6
1651.834	8011.6
1656.328	8022.6
1660.817	7991.6
1665.302	7911.6
1669.783	7760.6
1674.259	7585.6
1678.732	7379.6
1683.199	7122.6
1687.663	6890.6
1692.122	6715.6
1696.577	6575.6
1701.028	6507.6
1705.474	6548.6
1709.917	6609.6
1714.355	6653.6
1718.788	6632.6
1723.218	6538.6
1727.643	6436.6
1732.064	6351.6
1736.481	6191.6
1740.893	6067.6
1745.301	5888.6
1749.705	5747.6
1754.105	5580.6
1758.501	5409.6
1762.893	5266.6
1767.28	5165.6
1771.663	5015.6
1776.042	4927.6
1780.417	4874.6
1784.787	4847.6
1789.154	4919.6
1793.516	4966.6
1797.874	5040.6
1802.228	5138.6
1806.578	5208.6
1810.924	5237.6
1815.266	5133.6
1819.603	5097.6
1823.937	5000.6
1828.266	4902.6
1832.591	4869.6
1836.913	4829.6
1841.23	4761.6
1845.543	4747.6
1849.852	4723.6
1854.156	4707.6
1858.457	4662.6
1862.754	4658.6
1867.047	4673.6
1871.335	4658.6
1875.62	4646.6
1879.9	4658.6
1884.177	4598.6
1888.449	4551.6
1892.718	4499.6
1896.982	4470.6
1901.243	4411.6
1905.499	4352.6
1909.752	4363.6
1914	4352.6
1918.245	4374.6
1922.485	4399.6
1926.722	4452.6
1930.954	4484.6
1935.183	4549.6
1939.408	4590.6
1943.628	4597.6
1947.845	4619.6
1952.058	4642.6
1956.267	4579.6
1960.472	4485.6
1964.673	4466.6
1968.87	4348.6
1973.063	4303.6
1977.252	4250.6
1981.438	4193.6
1985.619	4148.6
1989.797	4122.6
1993.971	4094.6
1998.14	4091.6
2002.306	4053.6
2006.469	4037.6
2010.627	4054.6
2014.781	3980.6
2018.932	3974.6
2023.078	3905.6
2027.221	3852.6
2031.36	3807.6
2035.495	3727.6
2039.627	3684.6
2043.754	3677.6
2047.878	3611.6
2051.998	3586.6
2056.114	3561.6
2060.226	3568.6
2064.334	3570.6
2068.439	3556.6
2072.54	3601.6
2076.637	3623.6
2080.73	3623.6
2084.82	3655.6
2088.906	3663.6
2092.988	3677.6
2097.066	3661.6
2101.14	3630.6
2105.211	3615.6
2109.278	3600.6
2113.342	3578.6
2117.401	3556.6
2121.457	3520.6
2125.509	3516.6
2129.558	3480.6
2133.602	3449.6
2137.643	3443.6
2141.681	3435.6
2145.714	3415.6
2149.744	3387.6
2153.77	3373.6
2157.793	3330.6
2161.812	3295.6
2165.827	3241.6
2169.838	3194.6
2173.846	3148.6
2177.851	3096.6
2181.851	3057.6
2185.848	2996.6
2189.841	2971.6
2193.831	2939.6
2197.817	2908.6
2201.799	2910.6
2205.778	2893.6
2209.753	2897.6
2213.725	2870.6
2217.693	2865.6
2221.657	2850.6
2225.618	2871.6
2229.575	2825.6
2233.529	2797.6
2237.479	2789.6
2241.425	2722.6
2245.368	2706.6
2249.307	2662.6
2253.243	2635.6
2257.175	2600.6
2261.104	2554.6
2265.029	2538.6
2268.95	2535.6
2272.868	2482.6
2276.783	2478.6
2280.694	2419.6
2284.601	2399.6
2288.505	2403.6
2292.405	2357.6
2296.302	2323.6
2300.195	2309.6
2304.085	2298.6
2307.971	2266.6
2311.854	2217.6
2315.734	2192.6
2319.609	2162.6
2323.482	2150.6
2327.351	2113.6
2331.216	2092.6
2335.078	2090.6
2338.937	2061.6
2342.792	2058.6
2346.643	2092.6
2350.492	2055.6
2354.336	2080.6
2358.178	2084.6
2362.015	2084.6
2365.85	2110.6
2369.681	2088.6
2373.508	2116.6
2377.333	2105.6
2381.153	2126.6
2384.971	2086.6
2388.785	2067.6
2392.595	2044.6
2396.402	2033.6
2400.206	2019.6
2404.007	2007.6
2407.804	1984.6
2411.597	1980.6
2415.388	1962.6
2419.174	1942.6
2422.958	1937.6
2426.738	1944.6
2430.515	1918.6
2434.289	1886.6
2438.059	1894.6
2441.825	1866.6
2445.589	1838.6
2449.349	1831.6
2453.106	1799.6
2456.859	1765.6
2460.61	1776.6
2464.356	1746.6
2468.1	1752.6
2471.84	1724.6
2475.577	1688.6
2479.311	1674.6
2483.041	1666.6
2486.768	1653.6
2490.492	1654.6
2494.213	1667.6
2497.93	1644.6
2501.644	1638.6
2505.355	1619.6
2509.062	1616.6
2512.766	1600.6
2516.467	1590.6
2520.165	1583.6
2523.859	1562.6
2527.551	1550.6
2531.239	1559.6
2534.923	1547.6
2538.605	1542.6
2542.283	1522.6
2545.958	1528.6
2549.63	1526.6
2553.299	1532.6
2556.964	1517.6
2560.626	1506.6
2564.285	1490.6
2567.941	1511.6
2571.594	1494.6
2575.243	1498.6
2578.89	1472.6
2582.533	1491.6
2586.173	1446.6
2589.809	1431.6
2593.443	1410.6
2597.073	1420.6
2600.701	1385.6
2604.325	1385.6
2607.946	1381.6
2611.564	1359.6
2615.178	1361.6
2618.79	1320.6
2622.398	1341.6
2626.004	1305.6
2629.606	1311.6
2633.205	1282.6
2636.801	1254.6
2640.394	1248.6
2643.983	1221.6
2647.57	1205.6
2651.153	1195.6
2654.734	1173.6
2658.311	1153.6
2661.885	1106.6
2665.456	1122.6
2669.025	1101.6
2672.589	1097.6
2676.151	1076.6
2679.71	1075.6
2683.266	1047.6
2686.819	1029.6
2690.368	1014.6
2693.915	992.6
2697.458	957.6
2700.999	943.6
2704.536	925.6
2708.071	900.6
2711.602	886.6
2715.13	873.6
2718.656	846.6
2722.178	823.6
2725.697	797.6
2729.214	806.6
2732.727	803.6
2736.237	797.6
2739.744	782.6
2743.249	806.6
2746.75	793.6
2750.248	792.6
2753.743	793.6
2757.236	812.6
2760.725	817.6
2764.211	818.6
2767.695	811.6
2771.175	820.6
2774.652	816.6
2778.127	809.6
2781.598	809.6
2785.067	802.6
2788.532	812.6
2791.995	790.6
2795.455	801.6
2798.911	814.6
2802.365	812.6
2805.816	796.6
2809.264	795.6
2812.709	799.6
2816.151	790.6
2819.59	797.6
2823.026	813.6
2826.46	808.6
2829.89	813.6
2833.318	805.6
2836.742	804.6
2840.164	811.6
2843.583	830.6
2846.999	821.6
2850.412	829.6
2853.822	836.6
2857.229	842.6
2860.634	891.6
2864.035	882.6
2867.434	895.6
2870.83	905.6
2874.223	929.6
2877.613	936.6
2881	934.6
2884.385	948.6
2887.766	948.6
2891.145	938.6
2894.521	932.6
2897.894	934.6
2901.264	930.6
2904.631	940.6
2907.996	935.6
2911.358	932.6
2914.717	948.6
2918.073	950.6
2921.426	956.6
2924.777	965.6
2928.124	968.6
2931.469	1005.6
2934.811	1004.6
2938.15	1029.6
2941.487	1027.6
2944.821	1031.6
2948.152	1032.6
2951.48	1022.6
2954.805	1012.6
2958.128	1004.6
2961.447	993.6
2964.765	978.6
2968.079	981.6
2971.39	1000.6
2974.699	1000.6
2978.005	1015.6
2981.308	1048.6
2984.609	1044.6
2987.907	1071.6
2991.202	1103.6
2994.494	1112.6
2997.784	1131.6
3001.07	1144.6
3004.355	1185.6
3007.636	1196.6
3010.915	1201.6
3014.191	1216.6
3017.464	1214.6
3020.734	1233.6
3024.002	1232.6
3027.267	1252.6
3030.53	1238.6
3033.789	1272.6
3037.046	1283.6
3040.301	1305.6
3043.552	1310.6
3046.801	1352.6
3050.048	1376.6
3053.291	1408.6
3056.532	1462.6
3059.771	1492.6
3063.006	1551.6
3066.239	1595.6
3069.469	1631.6
3072.697	1658.6
3075.922	1691.6
3079.144	1753.6
3082.364	1783.6
3085.581	1828.6
3088.795	1863.6
3092.007	1914.6
3095.216	1939.6
3098.423	1982.6
3101.627	2034.6
3104.828	2083.6
3108.026	2123.6
3111.222	2173.6
3114.416	2208.6
3117.607	2273.6
3120.795	2320.6
3123.98	2371.6
3127.163	2432.6
3130.344	2473.6
3133.521	2550.6
3136.696	2617.6
3139.869	2664.6
3143.039	2709.6
3146.206	2746.6
3149.371	2770.6
3152.533	2814.6
3155.693	2805.6
3158.85	2840.6
3162.005	2857.6
3165.157	2836.6
3168.306	2861.6
3171.453	2857.6
3174.597	2868.6
3177.739	2870.6
3180.878	2890.6
3184.014	2879.6
3187.149	2881.6
3190.28	2888.6
3193.409	2874.6
3196.536	2907.6
3199.659	2888.6
3202.781	2910.6
3205.9	2899.6
3209.016	2881.6
3212.13	2876.6
3215.241	2852.6
3218.35	2861.6
3221.456	2823.6
3224.56	2790.6
3227.661	2738.6
3230.76	2700.6
3233.856	2677.6
3236.95	2667.6
3240.041	2622.6
3243.13	2612.6
3246.216	2612.6
3249.3	2577.6
3252.382	2578.6
3255.46	2560.6
3258.537	2557.6
3261.611	2576.6
3264.682	2565.6
3267.751	2551.6
3270.818	2552.6
3273.882	2552.6
3276.943	2555.6
3280.002	2529.6
3283.059	2502.6
3286.113	2451.6
3289.165	2435.6
3292.214	2387.6
3295.261	2335.6
3298.306	2301.6
3301.348	2295.6
3304.387	2242.6
3307.425	2225.6
3310.459	2155.6
3313.492	2122.6
3316.521	2077.6
3319.549	2084.6
3322.574	2041.6
3325.597	2033.6
3328.617	2033.6
3331.635	1980.6
3334.65	2005.6
3337.663	1994.6
3340.674	1988.6
3343.682	1975.6
3346.688	1966.6
3349.691	1950.6
3352.692	1952.6
3355.691	1927.6
3358.687	1905.6
3361.681	1898.6
3364.673	1841.6
3367.662	1836.6
3370.649	1802.6
3373.633	1788.6
3376.615	1759.6
3379.595	1731.6
3382.572	1697.6
3385.547	1687.6
3388.52	1662.6
3391.49	1624.6
3394.458	1608.6
3397.424	1583.6
3400.387	1565.6
3403.348	1550.6
3406.307	1531.6
3409.263	1507.6
3412.217	1485.6
3415.168	1476.6
3418.118	1457.6
3421.065	1450.6
3424.009	1412.6
3426.951	1386.6
3429.891	1379.6
3432.829	1339.6
3435.764	1318.6
3438.697	1275.6
3441.628	1239.6
3444.557	1208.6
3447.483	1156.6
3450.407	1127.6
3453.328	1086.6
3456.247	1043.6
3459.164	1023.6
3462.079	968.6
3464.991	932.6
3467.902	893.6
3470.809	862.6
3473.715	828.6
3476.618	786.6
3479.519	765.6
3482.418	737.6
3485.315	711.6
3488.209	693.6
3491.101	666.6
3493.99	622.6
3496.878	610.6
3499.763	590.6
3502.646	550.6
3505.527	527.6
3508.405	495.6
3511.281	463.6
3514.155	443.6
3517.027	414.6
3519.897	413.6
3522.764	342.6
3525.629	341.6
3528.492	295.6
3531.352	271.6
3534.211	229.6
3537.067	232.6
3539.921	187.6
3542.773	172.6
3545.622	134.6
3548.469	118.6
3551.315	108.6
3554.157	87.6
3556.998	57.6
3559.837	36.6
3562.673	13.6
3565.507	4.6
3568.339	-13.4
3571.169	-21.4
3573.996	-41.4
3576.822	-54.4
3579.645	-72.4
3582.466	-84.4
3585.285	-92.4
3588.101	-108.4
3590.916	-122.4
3593.728	-148.4
3596.538	-160.4
3599.346	-166.4
3602.152	-171.4
3604.956	-193.4
3607.757	-201.4
3610.556	-216.4
3613.354	-230.4
3616.149	-242.4
3618.942	-243.4
3621.732	-255.4
3624.521	-260.4
3627.307	-270.4
3630.092	-282.4
3632.874	-284.4
3635.654	-286.4
3638.432	-297.4
3641.208	-302.4
3643.982	-310.4
3646.753	-321.4
3649.523	-328.4
3652.29	-328.4
3655.055	-326.4
3657.818	-345.4
3660.579	-354.4
3663.338	-360.4
3666.095	-359.4
3668.849	-377.4
3671.602	-385.4
3674.352	-380.4
3677.101	-385.4
3679.847	-398.4
3682.591	-402.4
3685.333	-403.4
3688.073	-402.4
3690.811	-410.4
3693.547	-412.4
3696.281	-419.4
3699.013	-420.4
3701.742	-427.4
3704.47	-426.4
3707.195	-431.4
3709.919	-437.4
3712.64	-435.4
3715.359	-434.4
3718.076	-441.4
3720.792	-444.4
3723.505	-439.4
3726.216	-449.4
3728.925	-448.4
3731.632	-453.4
3734.336	-447.4
3737.039	-457.4
3739.74	-454.4
3742.439	-456.4
3745.136	-458.4
3747.83	-467.4
3750.523	-458.4
3753.213	-470.4
3755.902	-465.4
3758.589	-468.4
3761.273	-474.4
3763.956	-473.4
3766.636	-472.4
3769.315	-478.4
3771.991	-483.4
3774.665	-485.4
3777.338	-474.4
3780.008	-482.4
3782.677	-481.4
3785.343	-481.4
3788.007	-480.4
3790.67	-479.4
3793.33	-484.4
3795.989	-481.4
3798.645	-483.4
3801.299	-482.4
3803.952	-484.4
3806.602	-493.4
3809.251	-494.4
3811.897	-488.4
3814.542	-492.4
3817.184	-492.4
3819.825	-488.4
3822.463	-487.4
3825.1	-498.4
3827.735	-482.4
3830.367	-490.4
3832.998	-500.4
3835.627	-504.4
3838.253	-498.4
3840.878	-503.4
3843.501	-493.4
3846.122	-496.4
3848.741	-494.4
3851.358	-490.4
3853.973	-498.4
3856.586	-500.4
3859.197	-502.4
3861.806	-502.4
3864.414	-500.4
3867.019	-495.4
3869.622	-498.4
3872.224	-492.4
3874.823	-478.4
3877.421	-468.4
3880.016	-455.4
3882.61	-433.4
3885.202	-428.4
3887.792	-448.4
3890.38	-471.4
3892.966	-487.4
3895.55	-500.4
3898.132	-510.4
3900.713	-514.4
3903.291	-506.4
3905.868	-507.4
3908.442	-509.4
3911.015	-510.4
3913.586	-505.4
3916.155	-507.4
3918.722	-514.4
3921.287	-511.4
3923.85	-507.4
3926.411	-510.4
3928.971	-519.4
3931.528	-512.4
3934.084	-510.4
3936.638	-508.4
3939.19	-514.4
3941.74	-512.4
3944.288	-514.4
3946.834	-507.4
3949.378	-508.4
3951.921	-512.4
3954.462	-517.4
3957	-513.4
3959.537	-516.4
3962.072	-516.4
3964.606	-515.4
3967.137	-508.4
3969.667	-513.4
3972.194	-509.4
3974.72	-514.4
3977.244	-507.4
3979.766	-502.4
3982.286	-507.4
3984.805	-504.4
3987.321	-503.4
3989.836	-506.4
3992.349	-497.4
3994.86	-495.4
3997.369	-509.4
3999.877	-499.4
4002.382	-495.4
4004.886	-496.4
4007.388	-504.4
4009.888	-498.4
4012.386	-505.4
4014.883	-499.4
4017.377	-503.4
4019.87	-498.4
4022.361	-500.4
4024.85	-504.4
4027.338	-505.4
4029.823	-505.4
4032.307	-507.4
4034.789	-496.4
4037.269	-500.4
4039.747	-500.4
4042.224	-499.4
4044.699	-504.4
4047.172	-501.4
4049.643	-499.4
4052.112	-507.4
4054.58	-509.4
4057.046	-506.4
4059.51	-509.4
4061.972	-510.4
4064.432	-507.4
4066.891	-507.4
4069.348	-506.4
4071.803	-503.4
4074.256	-500.4
4076.708	-503.4
4079.158	-506.4
4081.606	-506.4
4084.052	-506.4
4086.497	-505.4
4088.939	-498.4
4091.38	-500.4
4093.819	-494.4
4096.257	-528.4
4098.693	-527.4
4101.127	-534.4
4103.559	-528.4
4105.989	-300.4
4108.418	-277.4
4110.845	-266.4
4113.27	-242.4
4115.694	-217.4
4118.115	-176.4
4120.535	-501.4
4122.954	-502.4
4125.37	-491.4
4127.785	-504.4
4130.198	-501.4
4132.609	-505.4
4135.019	-529.4
4137.427	-528.4
4139.833	-528.4
4142.237	-525.4
