Data from 2018-2-14_conc=5_n=9_RamanShift_03.txt Node
Date: Wed Feb 14 14:32:25 IST 2018
User: aro
Spectrometer: QEPB0276
Trigger mode: 0
Integration Time (sec): 3.000000E1
Scans to average: 1
Electric dark correction enabled: true
Nonlinearity correction enabled: false
Boxcar width: 0
XAxis mode: Raman Shifts
Number of Pixels in Spectrum: 1044
>>>>>Begin Spectral Data<<<<<
160.701	-113.8
166.742	42.2
172.777	472.2
178.805	1729.2
184.826	4792.2
190.841	9988.2
196.849	15990.2
202.85	20344.2
208.845	21798.2
214.833	21567.2
220.815	21146.2
226.789	21128.2
232.758	20954.2
238.719	20829.2
244.674	20549.2
250.623	20220.2
256.565	19847.2
262.5	19380.2
268.429	19045.2
274.351	18797.2
280.267	18588.2
286.176	18382.2
292.079	18216.2
297.975	18078.2
303.865	17892.2
309.748	17792.2
315.625	17702.2
321.495	17584.2
327.359	17511.2
333.217	17503.2
339.068	17491.2
344.912	17457.2
350.751	17501.2
356.583	17459.2
362.408	17378.2
368.227	17416.2
374.04	17426.2
379.847	17518.2
385.647	17566.2
391.44	17625.2
397.228	17763.2
403.009	17774.2
408.784	17827.2
414.553	17840.2
420.315	17915.2
426.071	17925.2
431.821	17903.2
437.565	17872.2
443.302	17907.2
449.033	17918.2
454.758	17796.2
460.477	17761.2
466.189	17697.2
471.896	17655.2
477.596	17577.2
483.29	17567.2
488.978	17561.2
494.66	17471.2
500.335	17378.2
506.005	17105.2
511.668	16923.2
517.325	16633.2
522.977	16408.2
528.622	16298.2
534.261	16167.2
539.894	16089.2
545.521	15981.2
551.141	15909.2
556.756	15880.2
562.365	15794.2
567.968	15802.2
573.565	15706.2
579.155	15673.2
584.74	15573.2
590.319	15485.2
595.892	15489.2
601.459	15386.2
607.02	15351.2
612.575	15212.2
618.124	15159.2
623.667	14987.2
629.204	14956.2
634.735	14851.2
640.261	14815.2
645.781	14780.2
651.294	14710.2
656.802	14733.2
662.304	14713.2
667.8	14638.2
673.29	14634.2
678.775	14598.2
684.254	14548.2
689.726	14514.2
695.193	14471.2
700.655	14364.2
706.11	14360.2
711.56	14224.2
717.004	14185.2
722.442	14132.2
727.874	14071.2
733.301	14038.2
738.722	14022.2
744.137	13968.2
749.547	13944.2
754.951	13971.2
760.349	13946.2
765.741	13946.2
771.128	13979.2
776.509	13994.2
781.885	13987.2
787.254	13960.2
792.618	13936.2
797.977	13860.2
803.33	13776.2
808.677	13718.2
814.019	13603.2
819.355	13513.2
824.686	13459.2
830.011	13431.2
835.33	13462.2
840.644	13412.2
845.952	13428.2
851.255	13443.2
856.552	13484.2
861.844	13468.2
867.13	13360.2
872.41	13323.2
877.686	13283.2
882.955	13153.2
888.219	13076.2
893.478	12942.2
898.731	12743.2
903.979	12598.2
909.221	12548.2
914.458	12533.2
919.69	12528.2
924.916	12595.2
930.136	12559.2
935.351	12594.2
940.561	12548.2
945.766	12545.2
950.965	12509.2
956.158	12418.2
961.347	12276.2
966.529	12158.2
971.707	11962.2
976.879	11838.2
982.046	11724.2
987.208	11745.2
992.364	11738.2
997.515	11797.2
1002.66	11849.2
1007.801	12004.2
1012.936	12080.2
1018.066	12084.2
1023.19	12078.2
1028.309	12124.2
1033.423	12038.2
1038.532	11996.2
1043.636	11900.2
1048.734	11780.2
1053.827	11561.2
1058.915	11549.2
1063.998	11428.2
1069.075	11389.2
1074.147	11372.2
1079.214	11454.2
1084.276	11515.2
1089.333	11574.2
1094.385	11596.2
1099.431	11682.2
1104.472	11690.2
1109.509	11569.2
1114.54	11434.2
1119.565	11271.2
1124.586	11134.2
1129.602	11032.2
1134.613	10985.2
1139.618	10879.2
1144.619	10850.2
1149.614	10880.2
1154.604	10845.2
1159.589	10929.2
1164.57	10925.2
1169.545	10959.2
1174.515	11006.2
1179.48	10886.2
1184.44	10860.2
1189.395	10785.2
1194.345	10662.2
1199.29	10685.2
1204.23	10599.2
1209.165	10667.2
1214.095	10742.2
1219.021	10770.2
1223.941	10824.2
1228.856	10880.2
1233.766	10929.2
1238.672	10918.2
1243.572	10901.2
1248.467	10827.2
1253.358	10728.2
1258.244	10560.2
1263.124	10417.2
1268	10282.2
1272.871	10094.2
1277.737	10094.2
1282.599	9983.2
1287.455	10002.2
1292.306	10017.2
1297.153	10031.2
1301.995	10069.2
1306.832	10144.2
1311.664	10140.2
1316.491	10125.2
1321.314	9995.2
1326.132	9900.2
1330.945	9708.2
1335.753	9419.2
1340.556	9227.2
1345.354	9064.2
1350.148	8891.2
1354.937	8811.2
1359.722	8784.2
1364.501	8840.2
1369.276	8939.2
1374.046	9001.2
1378.811	9100.2
1383.572	9227.2
1388.327	9238.2
1393.079	9215.2
1397.825	9113.2
1402.567	9013.2
1407.304	8870.2
1412.036	8765.2
1416.764	8746.2
1421.487	8729.2
1426.205	8671.2
1430.919	8608.2
1435.628	8609.2
1440.333	8631.2
1445.032	8657.2
1449.727	8701.2
1454.418	8657.2
1459.104	8558.2
1463.785	8436.2
1468.462	8242.2
1473.134	8044.2
1477.802	7920.2
1482.465	7789.2
1487.123	7702.2
1491.777	7674.2
1496.426	7685.2
1501.071	7739.2
1505.711	7851.2
1510.347	8010.2
1514.978	8149.2
1519.604	8217.2
1524.226	8335.2
1528.844	8342.2
1533.457	8311.2
1538.065	8302.2
1542.669	8239.2
1547.269	8223.2
1551.864	8151.2
1556.454	8129.2
1561.041	8102.2
1565.622	8090.2
1570.199	8124.2
1574.772	8203.2
1579.34	8206.2
1583.904	8240.2
1588.464	8273.2
1593.019	8278.2
1597.569	8256.2
1602.115	8211.2
1606.657	8133.2
1611.195	8081.2
1615.728	8060.2
1620.256	8002.2
1624.78	8024.2
1629.3	7973.2
1633.816	8032.2
1638.327	8074.2
1642.834	8100.2
1647.336	8128.2
1651.834	8157.2
1656.328	8119.2
1660.817	8130.2
1665.302	8019.2
1669.783	7882.2
1674.259	7727.2
1678.732	7512.2
1683.199	7283.2
1687.663	7026.2
1692.122	6791.2
1696.577	6687.2
1701.028	6673.2
1705.474	6704.2
1709.917	6735.2
1714.355	6769.2
1718.788	6745.2
1723.218	6651.2
1727.643	6537.2
1732.064	6431.2
1736.481	6267.2
1740.893	6160.2
1745.301	5960.2
1749.705	5816.2
1754.105	5666.2
1758.501	5474.2
1762.893	5332.2
1767.28	5219.2
1771.663	5104.2
1776.042	4998.2
1780.417	4974.2
1784.787	4939.2
1789.154	4991.2
1793.516	5027.2
1797.874	5126.2
1802.228	5209.2
1806.578	5275.2
1810.924	5272.2
1815.266	5238.2
1819.603	5196.2
1823.937	5140.2
1828.266	5063.2
1832.591	4965.2
1836.913	4929.2
1841.23	4863.2
1845.543	4807.2
1849.852	4782.2
1854.156	4784.2
1858.457	4780.2
1862.754	4764.2
1867.047	4749.2
1871.335	4760.2
1875.62	4737.2
1879.9	4743.2
1884.177	4698.2
1888.449	4645.2
1892.718	4597.2
1896.982	4587.2
1901.243	4519.2
1905.499	4493.2
1909.752	4471.2
1914	4452.2
1918.245	4466.2
1922.485	4531.2
1926.722	4565.2
1930.954	4597.2
1935.183	4649.2
1939.408	4698.2
1943.628	4718.2
1947.845	4770.2
1952.058	4747.2
1956.267	4710.2
1960.472	4656.2
1964.673	4602.2
1968.87	4518.2
1973.063	4448.2
1977.252	4373.2
1981.438	4344.2
1985.619	4295.2
1989.797	4265.2
1993.971	4258.2
1998.14	4226.2
2002.306	4184.2
2006.469	4176.2
2010.627	4172.2
2014.781	4135.2
2018.932	4121.2
2023.078	4085.2
2027.221	3999.2
2031.36	3923.2
2035.495	3901.2
2039.627	3821.2
2043.754	3796.2
2047.878	3750.2
2051.998	3724.2
2056.114	3713.2
2060.226	3699.2
2064.334	3706.2
2068.439	3692.2
2072.54	3765.2
2076.637	3779.2
2080.73	3803.2
2084.82	3801.2
2088.906	3820.2
2092.988	3851.2
2097.066	3794.2
2101.14	3792.2
2105.211	3800.2
2109.278	3764.2
2113.342	3722.2
2117.401	3709.2
2121.457	3681.2
2125.509	3658.2
2129.558	3651.2
2133.602	3626.2
2137.643	3631.2
2141.681	3596.2
2145.714	3582.2
2149.744	3562.2
2153.77	3529.2
2157.793	3474.2
2161.812	3445.2
2165.827	3407.2
2169.838	3345.2
2173.846	3286.2
2177.851	3246.2
2181.851	3226.2
2185.848	3161.2
2189.841	3139.2
2193.831	3097.2
2197.817	3080.2
2201.799	3049.2
2205.778	3051.2
2209.753	3055.2
2213.725	3048.2
2217.693	3027.2
2221.657	3009.2
2225.618	3023.2
2229.575	3001.2
2233.529	2971.2
2237.479	2918.2
2241.425	2920.2
2245.368	2868.2
2249.307	2842.2
2253.243	2802.2
2257.175	2735.2
2261.104	2739.2
2265.029	2711.2
2268.95	2671.2
2272.868	2641.2
2276.783	2642.2
2280.694	2606.2
2284.601	2570.2
2288.505	2549.2
2292.405	2532.2
2296.302	2504.2
2300.195	2466.2
2304.085	2440.2
2307.971	2424.2
2311.854	2389.2
2315.734	2347.2
2319.609	2334.2
2323.482	2278.2
2327.351	2268.2
2331.216	2250.2
2335.078	2260.2
2338.937	2233.2
2342.792	2216.2
2346.643	2199.2
2350.492	2220.2
2354.336	2233.2
2358.178	2232.2
2362.015	2228.2
2365.85	2236.2
2369.681	2230.2
2373.508	2254.2
2377.333	2222.2
2381.153	2222.2
2384.971	2208.2
2388.785	2189.2
2392.595	2177.2
2396.402	2187.2
2400.206	2127.2
2404.007	2113.2
2407.804	2130.2
2411.597	2111.2
2415.388	2105.2
2419.174	2071.2
2422.958	2069.2
2426.738	2063.2
2430.515	2037.2
2434.289	2023.2
2438.059	2017.2
2441.825	1993.2
2445.589	1965.2
2449.349	1944.2
2453.106	1932.2
2456.859	1900.2
2460.61	1889.2
2464.356	1853.2
2468.1	1835.2
2471.84	1806.2
2475.577	1810.2
2479.311	1787.2
2483.041	1779.2
2486.768	1775.2
2490.492	1761.2
2494.213	1767.2
2497.93	1734.2
2501.644	1742.2
2505.355	1743.2
2509.062	1721.2
2512.766	1727.2
2516.467	1729.2
2520.165	1698.2
2523.859	1693.2
2527.551	1661.2
2531.239	1673.2
2534.923	1641.2
2538.605	1635.2
2542.283	1650.2
2545.958	1626.2
2549.63	1635.2
2553.299	1622.2
2556.964	1620.2
2560.626	1636.2
2564.285	1617.2
2567.941	1604.2
2571.594	1607.2
2575.243	1604.2
2578.89	1596.2
2582.533	1567.2
2586.173	1573.2
2589.809	1536.2
2593.443	1545.2
2597.073	1511.2
2600.701	1506.2
2604.325	1495.2
2607.946	1478.2
2611.564	1474.2
2615.178	1471.2
2618.79	1437.2
2622.398	1462.2
2626.004	1418.2
2629.606	1405.2
2633.205	1394.2
2636.801	1375.2
2640.394	1350.2
2643.983	1324.2
2647.57	1308.2
2651.153	1289.2
2654.734	1275.2
2658.311	1257.2
2661.885	1238.2
2665.456	1220.2
2669.025	1198.2
2672.589	1188.2
2676.151	1175.2
2679.71	1171.2
2683.266	1134.2
2686.819	1130.2
2690.368	1102.2
2693.915	1089.2
2697.458	1059.2
2700.999	1025.2
2704.536	1006.2
2708.071	984.2
2711.602	969.2
2715.13	946.2
2718.656	924.2
2722.178	917.2
2725.697	895.2
2729.214	895.2
2732.727	877.2
2736.237	860.2
2739.744	864.2
2743.249	874.2
2746.75	884.2
2750.248	882.2
2753.743	892.2
2757.236	912.2
2760.725	910.2
2764.211	904.2
2767.695	907.2
2771.175	906.2
2774.652	915.2
2778.127	898.2
2781.598	918.2
2785.067	879.2
2788.532	904.2
2791.995	880.2
2795.455	883.2
2798.911	899.2
2802.365	885.2
2805.816	885.2
2809.264	892.2
2812.709	892.2
2816.151	870.2
2819.59	890.2
2823.026	879.2
2826.46	900.2
2829.89	891.2
2833.318	891.2
2836.742	896.2
2840.164	898.2
2843.583	905.2
2846.999	920.2
2850.412	929.2
2853.822	938.2
2857.229	945.2
2860.634	955.2
2864.035	976.2
2867.434	979.2
2870.83	993.2
2874.223	1009.2
2877.613	1029.2
2881	1036.2
2884.385	1042.2
2887.766	1046.2
2891.145	1042.2
2894.521	1034.2
2897.894	1035.2
2901.264	1022.2
2904.631	1045.2
2907.996	1015.2
2911.358	1032.2
2914.717	1054.2
2918.073	1052.2
2921.426	1051.2
2924.777	1068.2
2928.124	1088.2
2931.469	1098.2
2934.811	1122.2
2938.15	1134.2
2941.487	1146.2
2944.821	1162.2
2948.152	1131.2
2951.48	1133.2
2954.805	1118.2
2958.128	1089.2
2961.447	1094.2
2964.765	1119.2
2968.079	1083.2
2971.39	1103.2
2974.699	1123.2
2978.005	1134.2
2981.308	1159.2
2984.609	1172.2
2987.907	1182.2
2991.202	1199.2
2994.494	1244.2
2997.784	1263.2
3001.07	1272.2
3004.355	1297.2
3007.636	1327.2
3010.915	1331.2
3014.191	1339.2
3017.464	1347.2
3020.734	1375.2
3024.002	1366.2
3027.267	1382.2
3030.53	1373.2
3033.789	1406.2
3037.046	1421.2
3040.301	1427.2
3043.552	1469.2
3046.801	1481.2
3050.048	1519.2
3053.291	1568.2
3056.532	1594.2
3059.771	1646.2
3063.006	1685.2
3066.239	1759.2
3069.469	1784.2
3072.697	1832.2
3075.922	1863.2
3079.144	1905.2
3082.364	1948.2
3085.581	2017.2
3088.795	2039.2
3092.007	2091.2
3095.216	2116.2
3098.423	2176.2
3101.627	2208.2
3104.828	2301.2
3108.026	2311.2
3111.222	2372.2
3114.416	2422.2
3117.607	2453.2
3120.795	2530.2
3123.98	2605.2
3127.163	2663.2
3130.344	2737.2
3133.521	2759.2
3136.696	2832.2
3139.869	2893.2
3143.039	2963.2
3146.206	2984.2
3149.371	3019.2
3152.533	3064.2
3155.693	3079.2
3158.85	3066.2
3162.005	3087.2
3165.157	3104.2
3168.306	3121.2
3171.453	3108.2
3174.597	3117.2
3177.739	3147.2
3180.878	3128.2
3184.014	3151.2
3187.149	3150.2
3190.28	3141.2
3193.409	3131.2
3196.536	3155.2
3199.659	3131.2
3202.781	3129.2
3205.9	3158.2
3209.016	3143.2
3212.13	3133.2
3215.241	3096.2
3218.35	3107.2
3221.456	3044.2
3224.56	3011.2
3227.661	2959.2
3230.76	2946.2
3233.856	2913.2
3236.95	2896.2
3240.041	2880.2
3243.13	2847.2
3246.216	2847.2
3249.3	2829.2
3252.382	2807.2
3255.46	2786.2
3258.537	2765.2
3261.611	2786.2
3264.682	2786.2
3267.751	2793.2
3270.818	2771.2
3273.882	2777.2
3276.943	2758.2
3280.002	2720.2
3283.059	2704.2
3286.113	2680.2
3289.165	2671.2
3292.214	2585.2
3295.261	2541.2
3298.306	2527.2
3301.348	2477.2
3304.387	2452.2
3307.425	2392.2
3310.459	2360.2
3313.492	2320.2
3316.521	2312.2
3319.549	2268.2
3322.574	2241.2
3325.597	2213.2
3328.617	2210.2
3331.635	2192.2
3334.65	2190.2
3337.663	2160.2
3340.674	2163.2
3343.682	2136.2
3346.688	2142.2
3349.691	2130.2
3352.692	2114.2
3355.691	2104.2
3358.687	2084.2
3361.681	2075.2
3364.673	2040.2
3367.662	2005.2
3370.649	1977.2
3373.633	1965.2
3376.615	1934.2
3379.595	1902.2
3382.572	1879.2
3385.547	1856.2
3388.52	1822.2
3391.49	1775.2
3394.458	1756.2
3397.424	1741.2
3400.387	1725.2
3403.348	1703.2
3406.307	1691.2
3409.263	1663.2
3412.217	1640.2
3415.168	1638.2
3418.118	1597.2
3421.065	1562.2
3424.009	1560.2
3426.951	1526.2
3429.891	1495.2
3432.829	1444.2
3435.764	1429.2
3438.697	1390.2
3441.628	1367.2
3444.557	1303.2
3447.483	1283.2
3450.407	1245.2
3453.328	1202.2
3456.247	1166.2
3459.164	1125.2
3462.079	1072.2
3464.991	1035.2
3467.902	989.2
3470.809	950.2
3473.715	937.2
3476.618	889.2
3479.519	849.2
3482.418	834.2
3485.315	818.2
3488.209	789.2
3491.101	731.2
3493.99	710.2
3496.878	695.2
3499.763	663.2
3502.646	648.2
3505.527	615.2
3508.405	581.2
3511.281	539.2
3514.155	512.2
3517.027	491.2
3519.897	451.2
3522.764	421.2
3525.629	385.2
3528.492	357.2
3531.352	323.2
3534.211	308.2
3537.067	273.2
3539.921	241.2
3542.773	214.2
3545.622	191.2
3548.469	163.2
3551.315	154.2
3554.157	117.2
3556.998	93.2
3559.837	84.2
3562.673	76.2
3565.507	35.2
3568.339	15.2
3571.169	12.2
3573.996	-10.8
3576.822	-16.8
3579.645	-32.8
3582.466	-52.8
3585.285	-69.8
3588.101	-83.8
3590.916	-102.8
3593.728	-126.8
3596.538	-120.8
3599.346	-148.8
3602.152	-159.8
3604.956	-169.8
3607.757	-181.8
3610.556	-192.8
3613.354	-201.8
3616.149	-208.8
3618.942	-221.8
3621.732	-220.8
3624.521	-241.8
3627.307	-251.8
3630.092	-250.8
3632.874	-266.8
3635.654	-277.8
3638.432	-273.8
3641.208	-284.8
3643.982	-296.8
3646.753	-307.8
3649.523	-317.8
3652.29	-317.8
3655.055	-319.8
3657.818	-322.8
3660.579	-340.8
3663.338	-353.8
3666.095	-351.8
3668.849	-367.8
3671.602	-371.8
3674.352	-377.8
3677.101	-380.8
3679.847	-384.8
3682.591	-395.8
3685.333	-396.8
3688.073	-392.8
3690.811	-406.8
3693.547	-408.8
3696.281	-407.8
3699.013	-417.8
3701.742	-421.8
3704.47	-417.8
3707.195	-431.8
3709.919	-431.8
3712.64	-439.8
3715.359	-433.8
3718.076	-441.8
3720.792	-447.8
3723.505	-445.8
3726.216	-447.8
3728.925	-450.8
3731.632	-454.8
3734.336	-456.8
3737.039	-450.8
3739.74	-452.8
3742.439	-462.8
3745.136	-457.8
3747.83	-466.8
3750.523	-464.8
3753.213	-467.8
3755.902	-468.8
3758.589	-471.8
3761.273	-473.8
3763.956	-472.8
3766.636	-471.8
3769.315	-474.8
3771.991	-476.8
3774.665	-482.8
3777.338	-483.8
3780.008	-481.8
3782.677	-483.8
3785.343	-481.8
3788.007	-483.8
3790.67	-484.8
3793.33	-482.8
3795.989	-484.8
3798.645	-484.8
3801.299	-486.8
3803.952	-488.8
3806.602	-492.8
3809.251	-496.8
3811.897	-489.8
3814.542	-489.8
3817.184	-485.8
3819.825	-491.8
3822.463	-488.8
3825.1	-494.8
3827.735	-494.8
3830.367	-490.8
3832.998	-500.8
3835.627	-500.8
3838.253	-499.8
3840.878	-505.8
3843.501	-502.8
3846.122	-495.8
3848.741	-498.8
3851.358	-494.8
3853.973	-494.8
3856.586	-496.8
3859.197	-504.8
3861.806	-504.8
3864.414	-495.8
3867.019	-495.8
3869.622	-499.8
3872.224	-495.8
3874.823	-482.8
3877.421	-464.8
3880.016	-442.8
3882.61	-428.8
3885.202	-418.8
3887.792	-437.8
3890.38	-470.8
3892.966	-489.8
3895.55	-501.8
3898.132	-512.8
3900.713	-514.8
3903.291	-514.8
3905.868	-511.8
3908.442	-513.8
3911.015	-518.8
3913.586	-509.8
3916.155	-510.8
3918.722	-517.8
3921.287	-513.8
3923.85	-514.8
3926.411	-513.8
3928.971	-521.8
3931.528	-515.8
3934.084	-513.8
3936.638	-512.8
3939.19	-515.8
3941.74	-511.8
3944.288	-519.8
3946.834	-511.8
3949.378	-510.8
3951.921	-519.8
3954.462	-520.8
3957	-508.8
3959.537	-518.8
3962.072	-519.8
3964.606	-512.8
3967.137	-513.8
3969.667	-518.8
3972.194	-511.8
3974.72	-515.8
3977.244	-507.8
3979.766	-503.8
3982.286	-504.8
3984.805	-507.8
3987.321	-505.8
3989.836	-503.8
3992.349	-499.8
3994.86	-499.8
3997.369	-514.8
3999.877	-501.8
4002.382	-502.8
4004.886	-500.8
4007.388	-499.8
4009.888	-500.8
4012.386	-505.8
4014.883	-504.8
4017.377	-502.8
4019.87	-499.8
4022.361	-503.8
4024.85	-504.8
4027.338	-502.8
4029.823	-506.8
4032.307	-508.8
4034.789	-503.8
4037.269	-503.8
4039.747	-501.8
4042.224	-506.8
4044.699	-507.8
4047.172	-507.8
4049.643	-500.8
4052.112	-508.8
4054.58	-506.8
4057.046	-509.8
4059.51	-506.8
4061.972	-506.8
4064.432	-511.8
4066.891	-502.8
4069.348	-504.8
4071.803	-501.8
4074.256	-505.8
4076.708	-499.8
4079.158	-505.8
4081.606	-512.8
4084.052	-511.8
4086.497	-510.8
4088.939	-502.8
4091.38	-502.8
4093.819	-505.8
4096.257	-530.8
4098.693	-531.8
4101.127	-534.8
4103.559	-532.8
4105.989	-290.8
4108.418	-257.8
4110.845	-254.8
4113.27	-231.8
4115.694	-203.8
4118.115	-181.8
4120.535	-504.8
4122.954	-508.8
4125.37	-501.8
4127.785	-504.8
4130.198	-503.8
4132.609	-507.8
4135.019	-533.8
4137.427	-532.8
4139.833	-534.8
4142.237	-528.8
