Data from 2018-2-14_conc=4_n=9_RamanShift_02.txt Node
Date: Wed Feb 14 13:56:55 IST 2018
User: aro
Spectrometer: QEPB0276
Trigger mode: 0
Integration Time (sec): 3.000000E1
Scans to average: 1
Electric dark correction enabled: true
Nonlinearity correction enabled: false
Boxcar width: 0
XAxis mode: Raman Shifts
Number of Pixels in Spectrum: 1044
>>>>>Begin Spectral Data<<<<<
160.701	-144.5
166.742	39.5
172.777	572.5
178.805	2209.5
184.826	6097.5
190.841	12726.5
196.849	20404.5
202.85	25876.5
208.845	27641.5
214.833	27343.5
220.815	26835.5
226.789	26805.5
232.758	26606.5
238.719	26385.5
244.674	26010.5
250.623	25584.5
256.565	25048.5
262.5	24555.5
268.429	24068.5
274.351	23684.5
280.267	23416.5
286.176	23148.5
292.079	22871.5
297.975	22706.5
303.865	22544.5
309.748	22375.5
315.625	22252.5
321.495	22089.5
327.359	22026.5
333.217	21908.5
339.068	21944.5
344.912	21951.5
350.751	21894.5
356.583	21907.5
362.408	21843.5
368.227	21877.5
374.04	21820.5
379.847	21912.5
385.647	22082.5
391.44	22125.5
397.228	22210.5
403.009	22316.5
408.784	22360.5
414.553	22429.5
420.315	22462.5
426.071	22461.5
431.821	22447.5
437.565	22412.5
443.302	22437.5
449.033	22371.5
454.758	22345.5
460.477	22298.5
466.189	22180.5
471.896	22145.5
477.596	22087.5
483.29	22068.5
488.978	21983.5
494.66	21945.5
500.335	21838.5
506.005	21583.5
511.668	21312.5
517.325	21068.5
522.977	20863.5
528.622	20688.5
534.261	20580.5
539.894	20403.5
545.521	20399.5
551.141	20291.5
556.756	20215.5
562.365	20165.5
567.968	20049.5
573.565	20021.5
579.155	20007.5
584.74	19888.5
590.319	19816.5
595.892	19689.5
601.459	19633.5
607.02	19545.5
612.575	19445.5
618.124	19260.5
623.667	19182.5
629.204	19071.5
634.735	19023.5
640.261	18954.5
645.781	18882.5
651.294	18893.5
656.802	18821.5
662.304	18799.5
667.8	18740.5
673.29	18694.5
678.775	18699.5
684.254	18617.5
689.726	18574.5
695.193	18463.5
700.655	18401.5
706.11	18300.5
711.56	18176.5
717.004	18116.5
722.442	18051.5
727.874	17966.5
733.301	17913.5
738.722	17850.5
744.137	17850.5
749.547	17859.5
754.951	17793.5
760.349	17760.5
765.741	17869.5
771.128	17832.5
776.509	17834.5
781.885	17873.5
787.254	17814.5
792.618	17766.5
797.977	17663.5
803.33	17515.5
808.677	17385.5
814.019	17284.5
819.355	17248.5
824.686	17187.5
830.011	17105.5
835.33	17118.5
840.644	17109.5
845.952	17163.5
851.255	17199.5
856.552	17234.5
861.844	17167.5
867.13	17151.5
872.41	17065.5
877.686	16950.5
882.955	16854.5
888.219	16736.5
893.478	16529.5
898.731	16325.5
903.979	16183.5
909.221	16059.5
914.458	15979.5
919.69	15959.5
924.916	16052.5
930.136	16132.5
935.351	16067.5
940.561	16069.5
945.766	16068.5
950.965	15963.5
956.158	15882.5
961.347	15713.5
966.529	15518.5
971.707	15295.5
976.879	15125.5
982.046	14969.5
987.208	14954.5
992.364	14993.5
997.515	15091.5
1002.66	15142.5
1007.801	15405.5
1012.936	15457.5
1018.066	15476.5
1023.19	15495.5
1028.309	15507.5
1033.423	15452.5
1038.532	15285.5
1043.636	15262.5
1048.734	15062.5
1053.827	14844.5
1058.915	14649.5
1063.998	14600.5
1069.075	14543.5
1074.147	14544.5
1079.214	14631.5
1084.276	14724.5
1089.333	14798.5
1094.385	14896.5
1099.431	14914.5
1104.472	14908.5
1109.509	14801.5
1114.54	14659.5
1119.565	14380.5
1124.586	14296.5
1129.602	14127.5
1134.613	13988.5
1139.618	13971.5
1144.619	13925.5
1149.614	13902.5
1154.604	13887.5
1159.589	13958.5
1164.57	13986.5
1169.545	14027.5
1174.515	14018.5
1179.48	13954.5
1184.44	13875.5
1189.395	13726.5
1194.345	13654.5
1199.29	13571.5
1204.23	13581.5
1209.165	13634.5
1214.095	13660.5
1219.021	13737.5
1223.941	13839.5
1228.856	13952.5
1233.766	13925.5
1238.672	14003.5
1243.572	13946.5
1248.467	13860.5
1253.358	13729.5
1258.244	13522.5
1263.124	13314.5
1268	13156.5
1272.871	12923.5
1277.737	12850.5
1282.599	12812.5
1287.455	12820.5
1292.306	12837.5
1297.153	12897.5
1301.995	12935.5
1306.832	12959.5
1311.664	12985.5
1316.491	12982.5
1321.314	12936.5
1326.132	12649.5
1330.945	12405.5
1335.753	12113.5
1340.556	11816.5
1345.354	11612.5
1350.148	11452.5
1354.937	11353.5
1359.722	11314.5
1364.501	11387.5
1369.276	11460.5
1374.046	11532.5
1378.811	11683.5
1383.572	11875.5
1388.327	11919.5
1393.079	11865.5
1397.825	11742.5
1402.567	11548.5
1407.304	11422.5
1412.036	11349.5
1416.764	11198.5
1421.487	11161.5
1426.205	11086.5
1430.919	11083.5
1435.628	11094.5
1440.333	11116.5
1445.032	11094.5
1449.727	11143.5
1454.418	11150.5
1459.104	11055.5
1463.785	10834.5
1468.462	10649.5
1473.134	10423.5
1477.802	10185.5
1482.465	10063.5
1487.123	9887.5
1491.777	9885.5
1496.426	9979.5
1501.071	10068.5
1505.711	10195.5
1510.347	10351.5
1514.978	10536.5
1519.604	10696.5
1524.226	10737.5
1528.844	10753.5
1533.457	10750.5
1538.065	10690.5
1542.669	10621.5
1547.269	10536.5
1551.864	10501.5
1556.454	10469.5
1561.041	10424.5
1565.622	10402.5
1570.199	10428.5
1574.772	10503.5
1579.34	10575.5
1583.904	10633.5
1588.464	10685.5
1593.019	10617.5
1597.569	10632.5
1602.115	10514.5
1606.657	10496.5
1611.195	10461.5
1615.728	10356.5
1620.256	10260.5
1624.78	10317.5
1629.3	10324.5
1633.816	10388.5
1638.327	10407.5
1642.834	10503.5
1647.336	10544.5
1651.834	10570.5
1656.328	10517.5
1660.817	10466.5
1665.302	10416.5
1669.783	10189.5
1674.259	10038.5
1678.732	9737.5
1683.199	9403.5
1687.663	9093.5
1692.122	8863.5
1696.577	8673.5
1701.028	8612.5
1705.474	8657.5
1709.917	8710.5
1714.355	8774.5
1718.788	8741.5
1723.218	8625.5
1727.643	8426.5
1732.064	8313.5
1736.481	8077.5
1740.893	7919.5
1745.301	7748.5
1749.705	7497.5
1754.105	7329.5
1758.501	7084.5
1762.893	6894.5
1767.28	6749.5
1771.663	6627.5
1776.042	6478.5
1780.417	6426.5
1784.787	6398.5
1789.154	6457.5
1793.516	6548.5
1797.874	6635.5
1802.228	6793.5
1806.578	6840.5
1810.924	6864.5
1815.266	6782.5
1819.603	6701.5
1823.937	6609.5
1828.266	6533.5
1832.591	6415.5
1836.913	6345.5
1841.23	6293.5
1845.543	6202.5
1849.852	6198.5
1854.156	6151.5
1858.457	6181.5
1862.754	6180.5
1867.047	6163.5
1871.335	6110.5
1875.62	6122.5
1879.9	6089.5
1884.177	6050.5
1888.449	6015.5
1892.718	5933.5
1896.982	5878.5
1901.243	5852.5
1905.499	5815.5
1909.752	5758.5
1914	5762.5
1918.245	5747.5
1922.485	5871.5
1926.722	5914.5
1930.954	5933.5
1935.183	5984.5
1939.408	6072.5
1943.628	6086.5
1947.845	6102.5
1952.058	6102.5
1956.267	6053.5
1960.472	5972.5
1964.673	5867.5
1968.87	5790.5
1973.063	5704.5
1977.252	5632.5
1981.438	5569.5
1985.619	5524.5
1989.797	5475.5
1993.971	5457.5
1998.14	5426.5
2002.306	5375.5
2006.469	5384.5
2010.627	5360.5
2014.781	5315.5
2018.932	5272.5
2023.078	5235.5
2027.221	5140.5
2031.36	5077.5
2035.495	4998.5
2039.627	4912.5
2043.754	4867.5
2047.878	4822.5
2051.998	4796.5
2056.114	4781.5
2060.226	4775.5
2064.334	4759.5
2068.439	4774.5
2072.54	4816.5
2076.637	4815.5
2080.73	4837.5
2084.82	4919.5
2088.906	4924.5
2092.988	4910.5
2097.066	4888.5
2101.14	4892.5
2105.211	4824.5
2109.278	4791.5
2113.342	4785.5
2117.401	4741.5
2121.457	4722.5
2125.509	4702.5
2129.558	4657.5
2133.602	4634.5
2137.643	4598.5
2141.681	4589.5
2145.714	4569.5
2149.744	4509.5
2153.77	4537.5
2157.793	4484.5
2161.812	4418.5
2165.827	4334.5
2169.838	4280.5
2173.846	4198.5
2177.851	4124.5
2181.851	4073.5
2185.848	3998.5
2189.841	3991.5
2193.831	3938.5
2197.817	3921.5
2201.799	3902.5
2205.778	3899.5
2209.753	3875.5
2213.725	3826.5
2217.693	3833.5
2221.657	3836.5
2225.618	3823.5
2229.575	3800.5
2233.529	3758.5
2237.479	3722.5
2241.425	3697.5
2245.368	3665.5
2249.307	3584.5
2253.243	3558.5
2257.175	3500.5
2261.104	3423.5
2265.029	3406.5
2268.95	3375.5
2272.868	3334.5
2276.783	3296.5
2280.694	3263.5
2284.601	3239.5
2288.505	3183.5
2292.405	3148.5
2296.302	3137.5
2300.195	3112.5
2304.085	3080.5
2307.971	3015.5
2311.854	2970.5
2315.734	2947.5
2319.609	2895.5
2323.482	2855.5
2327.351	2806.5
2331.216	2784.5
2335.078	2791.5
2338.937	2768.5
2342.792	2724.5
2346.643	2742.5
2350.492	2764.5
2354.336	2736.5
2358.178	2748.5
2362.015	2745.5
2365.85	2779.5
2369.681	2783.5
2373.508	2777.5
2377.333	2782.5
2381.153	2765.5
2384.971	2720.5
2388.785	2712.5
2392.595	2699.5
2396.402	2692.5
2400.206	2630.5
2404.007	2652.5
2407.804	2630.5
2411.597	2614.5
2415.388	2607.5
2419.174	2555.5
2422.958	2538.5
2426.738	2526.5
2430.515	2544.5
2434.289	2501.5
2438.059	2462.5
2441.825	2468.5
2445.589	2407.5
2449.349	2438.5
2453.106	2399.5
2456.859	2356.5
2460.61	2307.5
2464.356	2305.5
2468.1	2300.5
2471.84	2253.5
2475.577	2231.5
2479.311	2220.5
2483.041	2227.5
2486.768	2201.5
2490.492	2179.5
2494.213	2201.5
2497.93	2174.5
2501.644	2199.5
2505.355	2146.5
2509.062	2159.5
2512.766	2118.5
2516.467	2107.5
2520.165	2114.5
2523.859	2092.5
2527.551	2076.5
2531.239	2066.5
2534.923	2051.5
2538.605	2027.5
2542.283	2038.5
2545.958	2023.5
2549.63	2043.5
2553.299	2010.5
2556.964	2015.5
2560.626	2010.5
2564.285	1983.5
2567.941	1975.5
2571.594	1959.5
2575.243	1972.5
2578.89	1960.5
2582.533	1940.5
2586.173	1941.5
2589.809	1895.5
2593.443	1895.5
2597.073	1876.5
2600.701	1856.5
2604.325	1833.5
2607.946	1829.5
2611.564	1792.5
2615.178	1821.5
2618.79	1781.5
2622.398	1754.5
2626.004	1774.5
2629.606	1743.5
2633.205	1731.5
2636.801	1681.5
2640.394	1672.5
2643.983	1637.5
2647.57	1622.5
2651.153	1618.5
2654.734	1564.5
2658.311	1546.5
2661.885	1525.5
2665.456	1500.5
2669.025	1481.5
2672.589	1448.5
2676.151	1449.5
2679.71	1430.5
2683.266	1414.5
2686.819	1386.5
2690.368	1355.5
2693.915	1346.5
2697.458	1337.5
2700.999	1285.5
2704.536	1253.5
2708.071	1223.5
2711.602	1215.5
2715.13	1174.5
2718.656	1161.5
2722.178	1139.5
2725.697	1131.5
2729.214	1092.5
2732.727	1097.5
2736.237	1092.5
2739.744	1085.5
2743.249	1095.5
2746.75	1087.5
2750.248	1083.5
2753.743	1096.5
2757.236	1123.5
2760.725	1131.5
2764.211	1119.5
2767.695	1139.5
2771.175	1134.5
2774.652	1134.5
2778.127	1122.5
2781.598	1124.5
2785.067	1127.5
2788.532	1113.5
2791.995	1086.5
2795.455	1114.5
2798.911	1107.5
2802.365	1109.5
2805.816	1109.5
2809.264	1112.5
2812.709	1080.5
2816.151	1110.5
2819.59	1096.5
2823.026	1099.5
2826.46	1122.5
2829.89	1115.5
2833.318	1128.5
2836.742	1111.5
2840.164	1123.5
2843.583	1131.5
2846.999	1137.5
2850.412	1153.5
2853.822	1175.5
2857.229	1161.5
2860.634	1211.5
2864.035	1246.5
2867.434	1214.5
2870.83	1283.5
2874.223	1270.5
2877.613	1304.5
2881	1314.5
2884.385	1326.5
2887.766	1301.5
2891.145	1316.5
2894.521	1304.5
2897.894	1317.5
2901.264	1302.5
2904.631	1323.5
2907.996	1322.5
2911.358	1334.5
2914.717	1313.5
2918.073	1336.5
2921.426	1353.5
2924.777	1364.5
2928.124	1383.5
2931.469	1432.5
2934.811	1435.5
2938.15	1461.5
2941.487	1458.5
2944.821	1458.5
2948.152	1480.5
2951.48	1461.5
2954.805	1446.5
2958.128	1416.5
2961.447	1412.5
2964.765	1415.5
2968.079	1432.5
2971.39	1426.5
2974.699	1442.5
2978.005	1479.5
2981.308	1498.5
2984.609	1517.5
2987.907	1550.5
2991.202	1582.5
2994.494	1601.5
2997.784	1652.5
3001.07	1674.5
3004.355	1680.5
3007.636	1724.5
3010.915	1729.5
3014.191	1747.5
3017.464	1748.5
3020.734	1776.5
3024.002	1772.5
3027.267	1781.5
3030.53	1794.5
3033.789	1813.5
3037.046	1830.5
3040.301	1863.5
3043.552	1906.5
3046.801	1959.5
3050.048	1991.5
3053.291	2033.5
3056.532	2102.5
3059.771	2141.5
3063.006	2192.5
3066.239	2261.5
3069.469	2336.5
3072.697	2412.5
3075.922	2457.5
3079.144	2518.5
3082.364	2553.5
3085.581	2617.5
3088.795	2679.5
3092.007	2728.5
3095.216	2797.5
3098.423	2844.5
3101.627	2928.5
3104.828	2975.5
3108.026	3027.5
3111.222	3107.5
3114.416	3197.5
3117.607	3263.5
3120.795	3325.5
3123.98	3383.5
3127.163	3480.5
3130.344	3582.5
3133.521	3662.5
3136.696	3715.5
3139.869	3816.5
3143.039	3870.5
3146.206	3919.5
3149.371	3967.5
3152.533	4015.5
3155.693	4010.5
3158.85	4062.5
3162.005	4097.5
3165.157	4070.5
3168.306	4092.5
3171.453	4104.5
3174.597	4098.5
3177.739	4105.5
3180.878	4103.5
3184.014	4152.5
3187.149	4154.5
3190.28	4143.5
3193.409	4144.5
3196.536	4174.5
3199.659	4157.5
3202.781	4164.5
3205.9	4176.5
3209.016	4150.5
3212.13	4142.5
3215.241	4151.5
3218.35	4101.5
3221.456	4055.5
3224.56	4005.5
3227.661	3946.5
3230.76	3916.5
3233.856	3858.5
3236.95	3837.5
3240.041	3832.5
3243.13	3806.5
3246.216	3769.5
3249.3	3773.5
3252.382	3729.5
3255.46	3724.5
3258.537	3679.5
3261.611	3717.5
3264.682	3719.5
3267.751	3704.5
3270.818	3692.5
3273.882	3680.5
3276.943	3649.5
3280.002	3620.5
3283.059	3603.5
3286.113	3552.5
3289.165	3514.5
3292.214	3480.5
3295.261	3376.5
3298.306	3348.5
3301.348	3294.5
3304.387	3249.5
3307.425	3164.5
3310.459	3141.5
3313.492	3087.5
3316.521	3027.5
3319.549	3024.5
3322.574	2970.5
3325.597	2963.5
3328.617	2950.5
3331.635	2925.5
3334.65	2905.5
3337.663	2879.5
3340.674	2831.5
3343.682	2862.5
3346.688	2849.5
3349.691	2833.5
3352.692	2813.5
3355.691	2791.5
3358.687	2782.5
3361.681	2749.5
3364.673	2717.5
3367.662	2673.5
3370.649	2627.5
3373.633	2608.5
3376.615	2559.5
3379.595	2520.5
3382.572	2510.5
3385.547	2447.5
3388.52	2430.5
3391.49	2408.5
3394.458	2343.5
3397.424	2315.5
3400.387	2270.5
3403.348	2245.5
3406.307	2235.5
3409.263	2212.5
3412.217	2172.5
3415.168	2156.5
3418.118	2131.5
3421.065	2096.5
3424.009	2066.5
3426.951	2069.5
3429.891	1976.5
3432.829	1945.5
3435.764	1931.5
3438.697	1889.5
3441.628	1827.5
3444.557	1755.5
3447.483	1699.5
3450.407	1677.5
3453.328	1616.5
3456.247	1555.5
3459.164	1495.5
3462.079	1459.5
3464.991	1413.5
3467.902	1367.5
3470.809	1289.5
3473.715	1254.5
3476.618	1221.5
3479.519	1173.5
3482.418	1132.5
3485.315	1104.5
3488.209	1056.5
3491.101	1006.5
3493.99	993.5
3496.878	948.5
3499.763	927.5
3502.646	881.5
3505.527	823.5
3508.405	808.5
3511.281	751.5
3514.155	724.5
3517.027	677.5
3519.897	636.5
3522.764	572.5
3525.629	550.5
3528.492	499.5
3531.352	472.5
3534.211	418.5
3537.067	382.5
3539.921	342.5
3542.773	314.5
3545.622	268.5
3548.469	251.5
3551.315	218.5
3554.157	194.5
3556.998	151.5
3559.837	144.5
3562.673	118.5
3565.507	78.5
3568.339	72.5
3571.169	51.5
3573.996	23.5
3576.822	7.5
3579.645	-19.5
3582.466	-32.5
3585.285	-48.5
3588.101	-72.5
3590.916	-88.5
3593.728	-125.5
3596.538	-141.5
3599.346	-156.5
3602.152	-178.5
3604.956	-193.5
3607.757	-217.5
3610.556	-225.5
3613.354	-234.5
3616.149	-255.5
3618.942	-267.5
3621.732	-277.5
3624.521	-296.5
3627.307	-307.5
3630.092	-308.5
3632.874	-329.5
3635.654	-337.5
3638.432	-338.5
3641.208	-346.5
3643.982	-368.5
3646.753	-364.5
3649.523	-371.5
3652.29	-378.5
3655.055	-385.5
3657.818	-404.5
3660.579	-414.5
3663.338	-428.5
3666.095	-440.5
3668.849	-451.5
3671.602	-457.5
3674.352	-467.5
3677.101	-468.5
3679.847	-477.5
3682.591	-483.5
3685.333	-493.5
3688.073	-498.5
3690.811	-505.5
3693.547	-508.5
3696.281	-509.5
3699.013	-516.5
3701.742	-527.5
3704.47	-533.5
3707.195	-534.5
3709.919	-536.5
3712.64	-536.5
3715.359	-544.5
3718.076	-534.5
3720.792	-545.5
3723.505	-547.5
3726.216	-553.5
3728.925	-555.5
3731.632	-563.5
3734.336	-565.5
3737.039	-571.5
3739.74	-570.5
3742.439	-568.5
3745.136	-576.5
3747.83	-579.5
3750.523	-575.5
3753.213	-579.5
3755.902	-585.5
3758.589	-592.5
3761.273	-588.5
3763.956	-592.5
3766.636	-592.5
3769.315	-596.5
3771.991	-599.5
3774.665	-601.5
3777.338	-597.5
3780.008	-603.5
3782.677	-603.5
3785.343	-592.5
3788.007	-601.5
3790.67	-603.5
3793.33	-608.5
3795.989	-607.5
3798.645	-604.5
3801.299	-607.5
3803.952	-611.5
3806.602	-622.5
3809.251	-621.5
3811.897	-614.5
3814.542	-616.5
3817.184	-613.5
3819.825	-611.5
3822.463	-613.5
3825.1	-617.5
3827.735	-613.5
3830.367	-619.5
3832.998	-625.5
3835.627	-623.5
3838.253	-627.5
3840.878	-630.5
3843.501	-623.5
3846.122	-622.5
3848.741	-618.5
3851.358	-625.5
3853.973	-624.5
3856.586	-629.5
3859.197	-629.5
3861.806	-629.5
3864.414	-628.5
3867.019	-625.5
3869.622	-624.5
3872.224	-624.5
3874.823	-613.5
3877.421	-597.5
3880.016	-586.5
3882.61	-559.5
3885.202	-552.5
3887.792	-575.5
3890.38	-597.5
3892.966	-616.5
3895.55	-630.5
3898.132	-642.5
3900.713	-645.5
3903.291	-635.5
3905.868	-642.5
3908.442	-637.5
3911.015	-646.5
3913.586	-641.5
3916.155	-640.5
3918.722	-647.5
3921.287	-646.5
3923.85	-648.5
3926.411	-639.5
3928.971	-651.5
3931.528	-643.5
3934.084	-644.5
3936.638	-638.5
3939.19	-647.5
3941.74	-641.5
3944.288	-646.5
3946.834	-636.5
3949.378	-645.5
3951.921	-642.5
3954.462	-648.5
3957	-646.5
3959.537	-641.5
3962.072	-642.5
3964.606	-648.5
3967.137	-649.5
3969.667	-650.5
3972.194	-642.5
3974.72	-640.5
3977.244	-644.5
3979.766	-638.5
3982.286	-635.5
3984.805	-638.5
3987.321	-629.5
3989.836	-633.5
3992.349	-624.5
3994.86	-625.5
3997.369	-641.5
3999.877	-629.5
4002.382	-624.5
4004.886	-626.5
4007.388	-625.5
4009.888	-626.5
4012.386	-630.5
4014.883	-627.5
4017.377	-630.5
4019.87	-629.5
4022.361	-631.5
4024.85	-631.5
4027.338	-632.5
4029.823	-630.5
4032.307	-634.5
4034.789	-631.5
4037.269	-631.5
4039.747	-630.5
4042.224	-636.5
4044.699	-641.5
4047.172	-632.5
4049.643	-634.5
4052.112	-636.5
4054.58	-639.5
4057.046	-639.5
4059.51	-634.5
4061.972	-633.5
4064.432	-637.5
4066.891	-631.5
4069.348	-630.5
4071.803	-628.5
4074.256	-631.5
4076.708	-629.5
4079.158	-635.5
4081.606	-632.5
4084.052	-637.5
4086.497	-632.5
4088.939	-628.5
4091.38	-629.5
4093.819	-628.5
4096.257	-666.5
4098.693	-666.5
4101.127	-667.5
4103.559	-664.5
4105.989	-389.5
4108.418	-356.5
4110.845	-342.5
4113.27	-317.5
4115.694	-281.5
4118.115	-235.5
4120.535	-629.5
4122.954	-633.5
4125.37	-622.5
4127.785	-630.5
4130.198	-641.5
4132.609	-637.5
4135.019	-669.5
4137.427	-670.5
4139.833	-669.5
4142.237	-667.5
