Data from 2018-2-14_conc=5_n=7_RamanShift_03.txt Node
Date: Wed Feb 14 14:25:25 IST 2018
User: aro
Spectrometer: QEPB0276
Trigger mode: 0
Integration Time (sec): 3.000000E1
Scans to average: 1
Electric dark correction enabled: true
Nonlinearity correction enabled: false
Boxcar width: 0
XAxis mode: Raman Shifts
Number of Pixels in Spectrum: 1044
>>>>>Begin Spectral Data<<<<<
160.701	-144.1
166.742	46.9
172.777	588.9
178.805	2255.9
184.826	6242.9
190.841	13114.9
196.849	21107.9
202.85	26696.9
208.845	28541.9
214.833	28301.9
220.815	27806.9
226.789	27618.9
232.758	27491.9
238.719	27210.9
244.674	26825.9
250.623	26432.9
256.565	25852.9
262.5	25381.9
268.429	24926.9
274.351	24556.9
280.267	24236.9
286.176	23838.9
292.079	23691.9
297.975	23456.9
303.865	23236.9
309.748	23129.9
315.625	22902.9
321.495	22819.9
327.359	22715.9
333.217	22687.9
339.068	22621.9
344.912	22614.9
350.751	22583.9
356.583	22522.9
362.408	22569.9
368.227	22523.9
374.04	22555.9
379.847	22652.9
385.647	22721.9
391.44	22774.9
397.228	22800.9
403.009	22970.9
408.784	22990.9
414.553	23037.9
420.315	23180.9
426.071	23201.9
431.821	23146.9
437.565	23138.9
443.302	23117.9
449.033	23053.9
454.758	23001.9
460.477	22994.9
466.189	22935.9
471.896	22832.9
477.596	22833.9
483.29	22747.9
488.978	22739.9
494.66	22607.9
500.335	22514.9
506.005	22220.9
511.668	22021.9
517.325	21778.9
522.977	21608.9
528.622	21457.9
534.261	21262.9
539.894	21264.9
545.521	21117.9
551.141	21096.9
556.756	20971.9
562.365	20890.9
567.968	20922.9
573.565	20755.9
579.155	20623.9
584.74	20580.9
590.319	20547.9
595.892	20449.9
601.459	20339.9
607.02	20241.9
612.575	20102.9
618.124	19984.9
623.667	19857.9
629.204	19835.9
634.735	19714.9
640.261	19639.9
645.781	19603.9
651.294	19471.9
656.802	19492.9
662.304	19480.9
667.8	19436.9
673.29	19403.9
678.775	19389.9
684.254	19307.9
689.726	19196.9
695.193	19157.9
700.655	19058.9
706.11	18996.9
711.56	18864.9
717.004	18794.9
722.442	18704.9
727.874	18631.9
733.301	18575.9
738.722	18508.9
744.137	18467.9
749.547	18475.9
754.951	18453.9
760.349	18531.9
765.741	18464.9
771.128	18425.9
776.509	18498.9
781.885	18463.9
787.254	18497.9
792.618	18358.9
797.977	18271.9
803.33	18160.9
808.677	18035.9
814.019	17960.9
819.355	17855.9
824.686	17763.9
830.011	17787.9
835.33	17726.9
840.644	17705.9
845.952	17719.9
851.255	17799.9
856.552	17821.9
861.844	17776.9
867.13	17724.9
872.41	17694.9
877.686	17543.9
882.955	17468.9
888.219	17334.9
893.478	17149.9
898.731	16910.9
903.979	16731.9
909.221	16560.9
914.458	16538.9
919.69	16592.9
924.916	16571.9
930.136	16635.9
935.351	16641.9
940.561	16617.9
945.766	16653.9
950.965	16537.9
956.158	16396.9
961.347	16252.9
966.529	16041.9
971.707	15870.9
976.879	15661.9
982.046	15500.9
987.208	15435.9
992.364	15497.9
997.515	15587.9
1002.66	15703.9
1007.801	15903.9
1012.936	15986.9
1018.066	15994.9
1023.19	15949.9
1028.309	16004.9
1033.423	15980.9
1038.532	15869.9
1043.636	15724.9
1048.734	15591.9
1053.827	15390.9
1058.915	15154.9
1063.998	15087.9
1069.075	15034.9
1074.147	15085.9
1079.214	15112.9
1084.276	15187.9
1089.333	15278.9
1094.385	15349.9
1099.431	15416.9
1104.472	15432.9
1109.509	15267.9
1114.54	15125.9
1119.565	14932.9
1124.586	14778.9
1129.602	14593.9
1134.613	14516.9
1139.618	14377.9
1144.619	14364.9
1149.614	14402.9
1154.604	14414.9
1159.589	14457.9
1164.57	14448.9
1169.545	14522.9
1174.515	14485.9
1179.48	14434.9
1184.44	14319.9
1189.395	14185.9
1194.345	14113.9
1199.29	14079.9
1204.23	14034.9
1209.165	14077.9
1214.095	14184.9
1219.021	14218.9
1223.941	14323.9
1228.856	14401.9
1233.766	14442.9
1238.672	14443.9
1243.572	14469.9
1248.467	14391.9
1253.358	14175.9
1258.244	13989.9
1263.124	13748.9
1268	13552.9
1272.871	13456.9
1277.737	13284.9
1282.599	13248.9
1287.455	13295.9
1292.306	13297.9
1297.153	13311.9
1301.995	13410.9
1306.832	13458.9
1311.664	13499.9
1316.491	13428.9
1321.314	13315.9
1326.132	13139.9
1330.945	12842.9
1335.753	12531.9
1340.556	12208.9
1345.354	11904.9
1350.148	11741.9
1354.937	11633.9
1359.722	11626.9
1364.501	11708.9
1369.276	11823.9
1374.046	12036.9
1378.811	12290.9
1383.572	12372.9
1388.327	12448.9
1393.079	12382.9
1397.825	12226.9
1402.567	12038.9
1407.304	11843.9
1412.036	11783.9
1416.764	11646.9
1421.487	11551.9
1426.205	11550.9
1430.919	11432.9
1435.628	11466.9
1440.333	11490.9
1445.032	11507.9
1449.727	11534.9
1454.418	11523.9
1459.104	11381.9
1463.785	11196.9
1468.462	10926.9
1473.134	10719.9
1477.802	10522.9
1482.465	10370.9
1487.123	10220.9
1491.777	10246.9
1496.426	10303.9
1501.071	10419.9
1505.711	10566.9
1510.347	10740.9
1514.978	10911.9
1519.604	11117.9
1524.226	11196.9
1528.844	11283.9
1533.457	11224.9
1538.065	11160.9
1542.669	11059.9
1547.269	11028.9
1551.864	10883.9
1556.454	10862.9
1561.041	10823.9
1565.622	10841.9
1570.199	10871.9
1574.772	10877.9
1579.34	11001.9
1583.904	11064.9
1588.464	11049.9
1593.019	11031.9
1597.569	10992.9
1602.115	10960.9
1606.657	10907.9
1611.195	10834.9
1615.728	10770.9
1620.256	10684.9
1624.78	10699.9
1629.3	10697.9
1633.816	10764.9
1638.327	10797.9
1642.834	10819.9
1647.336	10909.9
1651.834	10943.9
1656.328	10918.9
1660.817	10827.9
1665.302	10775.9
1669.783	10557.9
1674.259	10328.9
1678.732	10069.9
1683.199	9721.9
1687.663	9399.9
1692.122	9096.9
1696.577	8931.9
1701.028	8919.9
1705.474	9022.9
1709.917	9154.9
1714.355	9210.9
1718.788	9169.9
1723.218	8990.9
1727.643	8842.9
1732.064	8652.9
1736.481	8462.9
1740.893	8232.9
1745.301	8031.9
1749.705	7787.9
1754.105	7570.9
1758.501	7363.9
1762.893	7192.9
1767.28	6986.9
1771.663	6864.9
1776.042	6744.9
1780.417	6661.9
1784.787	6638.9
1789.154	6741.9
1793.516	6838.9
1797.874	7005.9
1802.228	7144.9
1806.578	7245.9
1810.924	7205.9
1815.266	7160.9
1819.603	7062.9
1823.937	6957.9
1828.266	6780.9
1832.591	6696.9
1836.913	6602.9
1841.23	6555.9
1845.543	6499.9
1849.852	6465.9
1854.156	6443.9
1858.457	6445.9
1862.754	6385.9
1867.047	6422.9
1871.335	6405.9
1875.62	6404.9
1879.9	6363.9
1884.177	6330.9
1888.449	6273.9
1892.718	6225.9
1896.982	6129.9
1901.243	6098.9
1905.499	6038.9
1909.752	6031.9
1914	6015.9
1918.245	6036.9
1922.485	6128.9
1926.722	6184.9
1930.954	6269.9
1935.183	6321.9
1939.408	6387.9
1943.628	6453.9
1947.845	6475.9
1952.058	6414.9
1956.267	6346.9
1960.472	6312.9
1964.673	6202.9
1968.87	6080.9
1973.063	6025.9
1977.252	5905.9
1981.438	5872.9
1985.619	5777.9
1989.797	5776.9
1993.971	5711.9
1998.14	5672.9
2002.306	5663.9
2006.469	5627.9
2010.627	5601.9
2014.781	5562.9
2018.932	5522.9
2023.078	5466.9
2027.221	5370.9
2031.36	5298.9
2035.495	5230.9
2039.627	5157.9
2043.754	5101.9
2047.878	5034.9
2051.998	5045.9
2056.114	4975.9
2060.226	5003.9
2064.334	4978.9
2068.439	5018.9
2072.54	5040.9
2076.637	5094.9
2080.73	5141.9
2084.82	5158.9
2088.906	5158.9
2092.988	5191.9
2097.066	5147.9
2101.14	5149.9
2105.211	5115.9
2109.278	5039.9
2113.342	5033.9
2117.401	4991.9
2121.457	4972.9
2125.509	4963.9
2129.558	4900.9
2133.602	4869.9
2137.643	4865.9
2141.681	4840.9
2145.714	4812.9
2149.744	4765.9
2153.77	4755.9
2157.793	4693.9
2161.812	4642.9
2165.827	4563.9
2169.838	4487.9
2173.846	4402.9
2177.851	4326.9
2181.851	4293.9
2185.848	4209.9
2189.841	4185.9
2193.831	4101.9
2197.817	4116.9
2201.799	4073.9
2205.778	4051.9
2209.753	4059.9
2213.725	4026.9
2217.693	4008.9
2221.657	4022.9
2225.618	4020.9
2229.575	3959.9
2233.529	3952.9
2237.479	3924.9
2241.425	3853.9
2245.368	3806.9
2249.307	3742.9
2253.243	3694.9
2257.175	3634.9
2261.104	3577.9
2265.029	3553.9
2268.95	3510.9
2272.868	3491.9
2276.783	3463.9
2280.694	3462.9
2284.601	3363.9
2288.505	3348.9
2292.405	3332.9
2296.302	3268.9
2300.195	3242.9
2304.085	3214.9
2307.971	3149.9
2311.854	3106.9
2315.734	3071.9
2319.609	3027.9
2323.482	2994.9
2327.351	2946.9
2331.216	2936.9
2335.078	2910.9
2338.937	2897.9
2342.792	2882.9
2346.643	2861.9
2350.492	2852.9
2354.336	2887.9
2358.178	2874.9
2362.015	2882.9
2365.85	2868.9
2369.681	2858.9
2373.508	2892.9
2377.333	2887.9
2381.153	2835.9
2384.971	2828.9
2388.785	2817.9
2392.595	2796.9
2396.402	2764.9
2400.206	2735.9
2404.007	2716.9
2407.804	2710.9
2411.597	2709.9
2415.388	2670.9
2419.174	2660.9
2422.958	2631.9
2426.738	2599.9
2430.515	2582.9
2434.289	2570.9
2438.059	2596.9
2441.825	2541.9
2445.589	2506.9
2449.349	2469.9
2453.106	2470.9
2456.859	2423.9
2460.61	2405.9
2464.356	2386.9
2468.1	2335.9
2471.84	2326.9
2475.577	2312.9
2479.311	2295.9
2483.041	2267.9
2486.768	2274.9
2490.492	2255.9
2494.213	2259.9
2497.93	2236.9
2501.644	2243.9
2505.355	2236.9
2509.062	2214.9
2512.766	2182.9
2516.467	2202.9
2520.165	2177.9
2523.859	2159.9
2527.551	2139.9
2531.239	2142.9
2534.923	2124.9
2538.605	2114.9
2542.283	2110.9
2545.958	2116.9
2549.63	2118.9
2553.299	2096.9
2556.964	2097.9
2560.626	2065.9
2564.285	2081.9
2567.941	2063.9
2571.594	2066.9
2575.243	2043.9
2578.89	2027.9
2582.533	2016.9
2586.173	1988.9
2589.809	1971.9
2593.443	1975.9
2597.073	1953.9
2600.701	1914.9
2604.325	1901.9
2607.946	1895.9
2611.564	1900.9
2615.178	1884.9
2618.79	1841.9
2622.398	1821.9
2626.004	1826.9
2629.606	1803.9
2633.205	1795.9
2636.801	1758.9
2640.394	1726.9
2643.983	1707.9
2647.57	1680.9
2651.153	1661.9
2654.734	1616.9
2658.311	1608.9
2661.885	1574.9
2665.456	1560.9
2669.025	1539.9
2672.589	1518.9
2676.151	1509.9
2679.71	1498.9
2683.266	1463.9
2686.819	1453.9
2690.368	1409.9
2693.915	1378.9
2697.458	1344.9
2700.999	1314.9
2704.536	1288.9
2708.071	1256.9
2711.602	1250.9
2715.13	1203.9
2718.656	1184.9
2722.178	1177.9
2725.697	1152.9
2729.214	1137.9
2732.727	1127.9
2736.237	1136.9
2739.744	1116.9
2743.249	1130.9
2746.75	1142.9
2750.248	1133.9
2753.743	1172.9
2757.236	1197.9
2760.725	1202.9
2764.211	1200.9
2767.695	1205.9
2771.175	1199.9
2774.652	1182.9
2778.127	1185.9
2781.598	1175.9
2785.067	1166.9
2788.532	1166.9
2791.995	1148.9
2795.455	1155.9
2798.911	1156.9
2802.365	1166.9
2805.816	1161.9
2809.264	1163.9
2812.709	1157.9
2816.151	1146.9
2819.59	1162.9
2823.026	1168.9
2826.46	1170.9
2829.89	1168.9
2833.318	1160.9
2836.742	1182.9
2840.164	1155.9
2843.583	1197.9
2846.999	1188.9
2850.412	1205.9
2853.822	1189.9
2857.229	1225.9
2860.634	1246.9
2864.035	1263.9
2867.434	1282.9
2870.83	1301.9
2874.223	1313.9
2877.613	1349.9
2881	1362.9
2884.385	1368.9
2887.766	1369.9
2891.145	1366.9
2894.521	1360.9
2897.894	1362.9
2901.264	1353.9
2904.631	1351.9
2907.996	1342.9
2911.358	1369.9
2914.717	1365.9
2918.073	1390.9
2921.426	1404.9
2924.777	1432.9
2928.124	1430.9
2931.469	1455.9
2934.811	1480.9
2938.15	1490.9
2941.487	1512.9
2944.821	1497.9
2948.152	1511.9
2951.48	1496.9
2954.805	1517.9
2958.128	1479.9
2961.447	1461.9
2964.765	1467.9
2968.079	1450.9
2971.39	1464.9
2974.699	1504.9
2978.005	1536.9
2981.308	1556.9
2984.609	1578.9
2987.907	1599.9
2991.202	1626.9
2994.494	1666.9
2997.784	1707.9
3001.07	1738.9
3004.355	1746.9
3007.636	1771.9
3010.915	1784.9
3014.191	1806.9
3017.464	1823.9
3020.734	1845.9
3024.002	1829.9
3027.267	1841.9
3030.53	1868.9
3033.789	1874.9
3037.046	1900.9
3040.301	1927.9
3043.552	1955.9
3046.801	1988.9
3050.048	2020.9
3053.291	2089.9
3056.532	2146.9
3059.771	2211.9
3063.006	2259.9
3066.239	2340.9
3069.469	2406.9
3072.697	2463.9
3075.922	2527.9
3079.144	2595.9
3082.364	2634.9
3085.581	2704.9
3088.795	2757.9
3092.007	2799.9
3095.216	2862.9
3098.423	2898.9
3101.627	2985.9
3104.828	3062.9
3108.026	3122.9
3111.222	3183.9
3114.416	3246.9
3117.607	3335.9
3120.795	3420.9
3123.98	3473.9
3127.163	3612.9
3130.344	3667.9
3133.521	3757.9
3136.696	3799.9
3139.869	3892.9
3143.039	3965.9
3146.206	4040.9
3149.371	4097.9
3152.533	4135.9
3155.693	4132.9
3158.85	4143.9
3162.005	4182.9
3165.157	4180.9
3168.306	4189.9
3171.453	4209.9
3174.597	4216.9
3177.739	4238.9
3180.878	4246.9
3184.014	4244.9
3187.149	4253.9
3190.28	4266.9
3193.409	4259.9
3196.536	4295.9
3199.659	4267.9
3202.781	4295.9
3205.9	4284.9
3209.016	4285.9
3212.13	4256.9
3215.241	4234.9
3218.35	4181.9
3221.456	4134.9
3224.56	4117.9
3227.661	4061.9
3230.76	4006.9
3233.856	3967.9
3236.95	3941.9
3240.041	3929.9
3243.13	3907.9
3246.216	3862.9
3249.3	3866.9
3252.382	3830.9
3255.46	3829.9
3258.537	3789.9
3261.611	3810.9
3264.682	3797.9
3267.751	3823.9
3270.818	3789.9
3273.882	3814.9
3276.943	3747.9
3280.002	3741.9
3283.059	3698.9
3286.113	3657.9
3289.165	3619.9
3292.214	3585.9
3295.261	3482.9
3298.306	3429.9
3301.348	3369.9
3304.387	3335.9
3307.425	3285.9
3310.459	3234.9
3313.492	3176.9
3316.521	3115.9
3319.549	3091.9
3322.574	3041.9
3325.597	3055.9
3328.617	3038.9
3331.635	2993.9
3334.65	2988.9
3337.663	2961.9
3340.674	2932.9
3343.682	2931.9
3346.688	2938.9
3349.691	2886.9
3352.692	2895.9
3355.691	2859.9
3358.687	2841.9
3361.681	2816.9
3364.673	2792.9
3367.662	2732.9
3370.649	2671.9
3373.633	2652.9
3376.615	2636.9
3379.595	2602.9
3382.572	2541.9
3385.547	2507.9
3388.52	2477.9
3391.49	2428.9
3394.458	2413.9
3397.424	2361.9
3400.387	2340.9
3403.348	2296.9
3406.307	2259.9
3409.263	2274.9
3412.217	2237.9
3415.168	2204.9
3418.118	2179.9
3421.065	2167.9
3424.009	2102.9
3426.951	2075.9
3429.891	2056.9
3432.829	2023.9
3435.764	1966.9
3438.697	1918.9
3441.628	1858.9
3444.557	1809.9
3447.483	1755.9
3450.407	1681.9
3453.328	1651.9
3456.247	1604.9
3459.164	1542.9
3462.079	1476.9
3464.991	1428.9
3467.902	1381.9
3470.809	1331.9
3473.715	1280.9
3476.618	1229.9
3479.519	1200.9
3482.418	1159.9
3485.315	1107.9
3488.209	1086.9
3491.101	1043.9
3493.99	1007.9
3496.878	957.9
3499.763	942.9
3502.646	910.9
3505.527	854.9
3508.405	811.9
3511.281	776.9
3514.155	730.9
3517.027	697.9
3519.897	653.9
3522.764	608.9
3525.629	566.9
3528.492	505.9
3531.352	469.9
3534.211	423.9
3537.067	396.9
3539.921	345.9
3542.773	309.9
3545.622	295.9
3548.469	253.9
3551.315	228.9
3554.157	191.9
3556.998	156.9
3559.837	134.9
3562.673	112.9
3565.507	98.9
3568.339	62.9
3571.169	47.9
3573.996	18.9
3576.822	14.9
3579.645	0.9
3582.466	-42.1
3585.285	-68.1
3588.101	-87.1
3590.916	-106.1
3593.728	-129.1
3596.538	-142.1
3599.346	-164.1
3602.152	-186.1
3604.956	-193.1
3607.757	-214.1
3610.556	-229.1
3613.354	-247.1
3616.149	-261.1
3618.942	-267.1
3621.732	-285.1
3624.521	-305.1
3627.307	-309.1
3630.092	-316.1
3632.874	-339.1
3635.654	-346.1
3638.432	-348.1
3641.208	-352.1
3643.982	-367.1
3646.753	-373.1
3649.523	-386.1
3652.29	-392.1
3655.055	-397.1
3657.818	-415.1
3660.579	-423.1
3663.338	-446.1
3666.095	-449.1
3668.849	-458.1
3671.602	-471.1
3674.352	-481.1
3677.101	-477.1
3679.847	-497.1
3682.591	-504.1
3685.333	-511.1
3688.073	-505.1
3690.811	-515.1
3693.547	-517.1
3696.281	-529.1
3699.013	-536.1
3701.742	-539.1
3704.47	-542.1
3707.195	-558.1
3709.919	-545.1
3712.64	-555.1
3715.359	-557.1
3718.076	-561.1
3720.792	-565.1
3723.505	-556.1
3726.216	-562.1
3728.925	-568.1
3731.632	-583.1
3734.336	-580.1
3737.039	-584.1
3739.74	-583.1
3742.439	-589.1
3745.136	-587.1
3747.83	-597.1
3750.523	-588.1
3753.213	-599.1
3755.902	-599.1
3758.589	-605.1
3761.273	-606.1
3763.956	-608.1
3766.636	-608.1
3769.315	-611.1
3771.991	-610.1
3774.665	-612.1
3777.338	-615.1
3780.008	-616.1
3782.677	-615.1
3785.343	-611.1
3788.007	-617.1
3790.67	-620.1
3793.33	-618.1
3795.989	-624.1
3798.645	-621.1
3801.299	-630.1
3803.952	-633.1
3806.602	-635.1
3809.251	-635.1
3811.897	-635.1
3814.542	-636.1
3817.184	-631.1
3819.825	-635.1
3822.463	-630.1
3825.1	-640.1
3827.735	-632.1
3830.367	-635.1
3832.998	-642.1
3835.627	-642.1
3838.253	-639.1
3840.878	-648.1
3843.501	-642.1
3846.122	-636.1
3848.741	-644.1
3851.358	-640.1
3853.973	-636.1
3856.586	-642.1
3859.197	-647.1
3861.806	-642.1
3864.414	-644.1
3867.019	-645.1
3869.622	-645.1
3872.224	-642.1
3874.823	-630.1
3877.421	-608.1
3880.016	-589.1
3882.61	-570.1
3885.202	-562.1
3887.792	-593.1
3890.38	-621.1
3892.966	-640.1
3895.55	-643.1
3898.132	-661.1
3900.713	-661.1
3903.291	-657.1
3905.868	-661.1
3908.442	-664.1
3911.015	-658.1
3913.586	-655.1
3916.155	-656.1
3918.722	-656.1
3921.287	-658.1
3923.85	-668.1
3926.411	-656.1
3928.971	-663.1
3931.528	-665.1
3934.084	-663.1
3936.638	-660.1
3939.19	-667.1
3941.74	-657.1
3944.288	-667.1
3946.834	-661.1
3949.378	-665.1
3951.921	-663.1
3954.462	-667.1
3957	-656.1
3959.537	-660.1
3962.072	-663.1
3964.606	-665.1
3967.137	-663.1
3969.667	-663.1
3972.194	-654.1
3974.72	-656.1
3977.244	-646.1
3979.766	-652.1
3982.286	-652.1
3984.805	-649.1
3987.321	-650.1
3989.836	-649.1
3992.349	-644.1
3994.86	-647.1
3997.369	-658.1
3999.877	-646.1
4002.382	-647.1
4004.886	-647.1
4007.388	-647.1
4009.888	-649.1
4012.386	-651.1
4014.883	-645.1
4017.377	-647.1
4019.87	-646.1
4022.361	-644.1
4024.85	-645.1
4027.338	-653.1
4029.823	-648.1
4032.307	-647.1
4034.789	-641.1
4037.269	-646.1
4039.747	-645.1
4042.224	-647.1
4044.699	-654.1
4047.172	-647.1
4049.643	-647.1
4052.112	-651.1
4054.58	-654.1
4057.046	-654.1
4059.51	-657.1
4061.972	-655.1
4064.432	-655.1
4066.891	-648.1
4069.348	-653.1
4071.803	-646.1
4074.256	-650.1
4076.708	-648.1
4079.158	-652.1
4081.606	-654.1
4084.052	-656.1
4086.497	-652.1
4088.939	-649.1
4091.38	-646.1
4093.819	-649.1
4096.257	-686.1
4098.693	-687.1
4101.127	-686.1
4103.559	-683.1
4105.989	-395.1
4108.418	-372.1
4110.845	-341.1
4113.27	-315.1
4115.694	-280.1
4118.115	-232.1
4120.535	-651.1
4122.954	-647.1
4125.37	-645.1
4127.785	-650.1
4130.198	-654.1
4132.609	-650.1
4135.019	-685.1
4137.427	-690.1
4139.833	-689.1
4142.237	-683.1
