Data from 2018-2-14_conc=0_n=6_RamanShift_01.txt Node
Date: Wed Feb 14 10:42:56 IST 2018
User: aro
Spectrometer: QEPB0276
Trigger mode: 0
Integration Time (sec): 3.000000E1
Scans to average: 1
Electric dark correction enabled: true
Nonlinearity correction enabled: false
Boxcar width: 0
XAxis mode: Raman Shifts
Number of Pixels in Spectrum: 1044
>>>>>Begin Spectral Data<<<<<
160.701	-141.5
166.742	45.5
172.777	581.5
178.805	2169.5
184.826	6014.5
190.841	12587.5
196.849	20158.5
202.85	25623.5
208.845	27382.5
214.833	27094.5
220.815	26638.5
226.789	26459.5
232.758	26322.5
238.719	26264.5
244.674	25846.5
250.623	25421.5
256.565	24905.5
262.5	24365.5
268.429	23955.5
274.351	23563.5
280.267	23279.5
286.176	23063.5
292.079	22835.5
297.975	22605.5
303.865	22401.5
309.748	22259.5
315.625	22156.5
321.495	22008.5
327.359	21867.5
333.217	21887.5
339.068	21849.5
344.912	21869.5
350.751	21848.5
356.583	21749.5
362.408	21798.5
368.227	21816.5
374.04	21854.5
379.847	21827.5
385.647	21979.5
391.44	22056.5
397.228	22121.5
403.009	22213.5
408.784	22261.5
414.553	22343.5
420.315	22358.5
426.071	22450.5
431.821	22358.5
437.565	22409.5
443.302	22367.5
449.033	22317.5
454.758	22243.5
460.477	22194.5
466.189	22219.5
471.896	22013.5
477.596	22021.5
483.29	21964.5
488.978	21915.5
494.66	21876.5
500.335	21744.5
506.005	21568.5
511.668	21350.5
517.325	21030.5
522.977	20832.5
528.622	20767.5
534.261	20620.5
539.894	20502.5
545.521	20379.5
551.141	20379.5
556.756	20273.5
562.365	20246.5
567.968	20092.5
573.565	20019.5
579.155	19993.5
584.74	19884.5
590.319	19791.5
595.892	19774.5
601.459	19689.5
607.02	19639.5
612.575	19501.5
618.124	19339.5
623.667	19280.5
629.204	19156.5
634.735	19096.5
640.261	18969.5
645.781	18957.5
651.294	18917.5
656.802	18874.5
662.304	18839.5
667.8	18794.5
673.29	18821.5
678.775	18738.5
684.254	18692.5
689.726	18583.5
695.193	18570.5
700.655	18390.5
706.11	18321.5
711.56	18313.5
717.004	18229.5
722.442	18091.5
727.874	18038.5
733.301	17956.5
738.722	17941.5
744.137	17942.5
749.547	17901.5
754.951	17904.5
760.349	17891.5
765.741	17926.5
771.128	17940.5
776.509	17989.5
781.885	17968.5
787.254	17909.5
792.618	17842.5
797.977	17735.5
803.33	17601.5
808.677	17464.5
814.019	17395.5
819.355	17295.5
824.686	17226.5
830.011	17157.5
835.33	17179.5
840.644	17179.5
845.952	17164.5
851.255	17276.5
856.552	17270.5
861.844	17282.5
867.13	17186.5
872.41	17116.5
877.686	17043.5
882.955	16910.5
888.219	16760.5
893.478	16651.5
898.731	16424.5
903.979	16201.5
909.221	16111.5
914.458	16062.5
919.69	16043.5
924.916	16104.5
930.136	16164.5
935.351	16193.5
940.561	16235.5
945.766	16203.5
950.965	16046.5
956.158	15947.5
961.347	15836.5
966.529	15587.5
971.707	15398.5
976.879	15274.5
982.046	15110.5
987.208	15108.5
992.364	15074.5
997.515	15140.5
1002.66	15309.5
1007.801	15423.5
1012.936	15532.5
1018.066	15609.5
1023.19	15552.5
1028.309	15546.5
1033.423	15567.5
1038.532	15424.5
1043.636	15305.5
1048.734	15144.5
1053.827	14987.5
1058.915	14858.5
1063.998	14652.5
1069.075	14631.5
1074.147	14639.5
1079.214	14672.5
1084.276	14774.5
1089.333	14882.5
1094.385	14962.5
1099.431	14973.5
1104.472	15010.5
1109.509	14877.5
1114.54	14720.5
1119.565	14525.5
1124.586	14401.5
1129.602	14266.5
1134.613	14092.5
1139.618	14048.5
1144.619	14002.5
1149.614	14024.5
1154.604	14026.5
1159.589	14070.5
1164.57	14145.5
1169.545	14091.5
1174.515	14056.5
1179.48	14016.5
1184.44	13964.5
1189.395	13818.5
1194.345	13698.5
1199.29	13707.5
1204.23	13645.5
1209.165	13764.5
1214.095	13768.5
1219.021	13882.5
1223.941	13898.5
1228.856	14000.5
1233.766	14059.5
1238.672	14102.5
1243.572	14052.5
1248.467	13966.5
1253.358	13764.5
1258.244	13577.5
1263.124	13437.5
1268	13172.5
1272.871	13022.5
1277.737	12960.5
1282.599	12862.5
1287.455	12885.5
1292.306	12874.5
1297.153	12908.5
1301.995	12997.5
1306.832	13079.5
1311.664	13028.5
1316.491	13033.5
1321.314	12936.5
1326.132	12741.5
1330.945	12464.5
1335.753	12126.5
1340.556	11865.5
1345.354	11636.5
1350.148	11380.5
1354.937	11283.5
1359.722	11244.5
1364.501	11341.5
1369.276	11457.5
1374.046	11598.5
1378.811	11762.5
1383.572	11920.5
1388.327	11968.5
1393.079	11935.5
1397.825	11839.5
1402.567	11614.5
1407.304	11447.5
1412.036	11342.5
1416.764	11220.5
1421.487	11229.5
1426.205	11162.5
1430.919	11090.5
1435.628	11108.5
1440.333	11132.5
1445.032	11132.5
1449.727	11141.5
1454.418	11177.5
1459.104	11027.5
1463.785	10795.5
1468.462	10578.5
1473.134	10371.5
1477.802	10165.5
1482.465	9971.5
1487.123	9851.5
1491.777	9841.5
1496.426	9888.5
1501.071	10043.5
1505.711	10140.5
1510.347	10310.5
1514.978	10530.5
1519.604	10663.5
1524.226	10800.5
1528.844	10791.5
1533.457	10710.5
1538.065	10724.5
1542.669	10624.5
1547.269	10555.5
1551.864	10499.5
1556.454	10445.5
1561.041	10409.5
1565.622	10459.5
1570.199	10476.5
1574.772	10509.5
1579.34	10609.5
1583.904	10620.5
1588.464	10653.5
1593.019	10649.5
1597.569	10611.5
1602.115	10546.5
1606.657	10507.5
1611.195	10416.5
1615.728	10360.5
1620.256	10294.5
1624.78	10279.5
1629.3	10284.5
1633.816	10323.5
1638.327	10342.5
1642.834	10408.5
1647.336	10453.5
1651.834	10477.5
1656.328	10503.5
1660.817	10399.5
1665.302	10307.5
1669.783	10154.5
1674.259	9894.5
1678.732	9630.5
1683.199	9319.5
1687.663	8981.5
1692.122	8758.5
1696.577	8573.5
1701.028	8577.5
1705.474	8623.5
1709.917	8694.5
1714.355	8716.5
1718.788	8722.5
1723.218	8588.5
1727.643	8404.5
1732.064	8281.5
1736.481	8067.5
1740.893	7868.5
1745.301	7688.5
1749.705	7460.5
1754.105	7311.5
1758.501	7065.5
1762.893	6879.5
1767.28	6706.5
1771.663	6560.5
1776.042	6479.5
1780.417	6390.5
1784.787	6426.5
1789.154	6462.5
1793.516	6586.5
1797.874	6709.5
1802.228	6799.5
1806.578	6859.5
1810.924	6884.5
1815.266	6811.5
1819.603	6763.5
1823.937	6644.5
1828.266	6553.5
1832.591	6423.5
1836.913	6333.5
1841.23	6237.5
1845.543	6211.5
1849.852	6226.5
1854.156	6194.5
1858.457	6170.5
1862.754	6168.5
1867.047	6165.5
1871.335	6097.5
1875.62	6133.5
1879.9	6124.5
1884.177	6060.5
1888.449	5994.5
1892.718	5929.5
1896.982	5895.5
1901.243	5835.5
1905.499	5783.5
1909.752	5773.5
1914	5747.5
1918.245	5797.5
1922.485	5835.5
1926.722	5897.5
1930.954	5973.5
1935.183	6055.5
1939.408	6098.5
1943.628	6130.5
1947.845	6144.5
1952.058	6150.5
1956.267	6041.5
1960.472	5950.5
1964.673	5904.5
1968.87	5807.5
1973.063	5689.5
1977.252	5639.5
1981.438	5591.5
1985.619	5544.5
1989.797	5493.5
1993.971	5489.5
1998.14	5410.5
2002.306	5390.5
2006.469	5385.5
2010.627	5387.5
2014.781	5310.5
2018.932	5274.5
2023.078	5218.5
2027.221	5158.5
2031.36	5098.5
2035.495	4997.5
2039.627	4940.5
2043.754	4880.5
2047.878	4825.5
2051.998	4783.5
2056.114	4759.5
2060.226	4760.5
2064.334	4781.5
2068.439	4803.5
2072.54	4815.5
2076.637	4877.5
2080.73	4915.5
2084.82	4917.5
2088.906	4944.5
2092.988	4921.5
2097.066	4918.5
2101.14	4864.5
2105.211	4824.5
2109.278	4819.5
2113.342	4817.5
2117.401	4733.5
2121.457	4732.5
2125.509	4711.5
2129.558	4671.5
2133.602	4647.5
2137.643	4625.5
2141.681	4593.5
2145.714	4587.5
2149.744	4538.5
2153.77	4498.5
2157.793	4467.5
2161.812	4393.5
2165.827	4367.5
2169.838	4331.5
2173.846	4197.5
2177.851	4155.5
2181.851	4104.5
2185.848	4042.5
2189.841	4001.5
2193.831	3985.5
2197.817	3929.5
2201.799	3905.5
2205.778	3876.5
2209.753	3878.5
2213.725	3853.5
2217.693	3857.5
2221.657	3853.5
2225.618	3858.5
2229.575	3796.5
2233.529	3776.5
2237.479	3751.5
2241.425	3691.5
2245.368	3667.5
2249.307	3605.5
2253.243	3538.5
2257.175	3521.5
2261.104	3463.5
2265.029	3420.5
2268.95	3370.5
2272.868	3356.5
2276.783	3314.5
2280.694	3271.5
2284.601	3270.5
2288.505	3206.5
2292.405	3183.5
2296.302	3163.5
2300.195	3120.5
2304.085	3058.5
2307.971	3028.5
2311.854	2982.5
2315.734	2953.5
2319.609	2916.5
2323.482	2885.5
2327.351	2829.5
2331.216	2807.5
2335.078	2798.5
2338.937	2790.5
2342.792	2788.5
2346.643	2772.5
2350.492	2752.5
2354.336	2756.5
2358.178	2751.5
2362.015	2772.5
2365.85	2772.5
2369.681	2794.5
2373.508	2785.5
2377.333	2779.5
2381.153	2749.5
2384.971	2744.5
2388.785	2725.5
2392.595	2696.5
2396.402	2698.5
2400.206	2657.5
2404.007	2623.5
2407.804	2631.5
2411.597	2584.5
2415.388	2583.5
2419.174	2578.5
2422.958	2561.5
2426.738	2530.5
2430.515	2517.5
2434.289	2468.5
2438.059	2490.5
2441.825	2457.5
2445.589	2409.5
2449.349	2417.5
2453.106	2371.5
2456.859	2343.5
2460.61	2304.5
2464.356	2291.5
2468.1	2279.5
2471.84	2236.5
2475.577	2225.5
2479.311	2228.5
2483.041	2192.5
2486.768	2192.5
2490.492	2182.5
2494.213	2184.5
2497.93	2171.5
2501.644	2140.5
2505.355	2145.5
2509.062	2108.5
2512.766	2104.5
2516.467	2130.5
2520.165	2083.5
2523.859	2083.5
2527.551	2065.5
2531.239	2033.5
2534.923	2024.5
2538.605	2038.5
2542.283	2021.5
2545.958	2030.5
2549.63	2024.5
2553.299	2028.5
2556.964	2021.5
2560.626	1978.5
2564.285	1991.5
2567.941	1980.5
2571.594	1960.5
2575.243	1976.5
2578.89	1967.5
2582.533	1926.5
2586.173	1922.5
2589.809	1908.5
2593.443	1891.5
2597.073	1877.5
2600.701	1847.5
2604.325	1835.5
2607.946	1823.5
2611.564	1816.5
2615.178	1821.5
2618.79	1797.5
2622.398	1758.5
2626.004	1765.5
2629.606	1713.5
2633.205	1712.5
2636.801	1694.5
2640.394	1677.5
2643.983	1641.5
2647.57	1630.5
2651.153	1590.5
2654.734	1567.5
2658.311	1520.5
2661.885	1527.5
2665.456	1497.5
2669.025	1484.5
2672.589	1458.5
2676.151	1444.5
2679.71	1436.5
2683.266	1421.5
2686.819	1390.5
2690.368	1351.5
2693.915	1330.5
2697.458	1301.5
2700.999	1279.5
2704.536	1214.5
2708.071	1224.5
2711.602	1202.5
2715.13	1158.5
2718.656	1131.5
2722.178	1131.5
2725.697	1102.5
2729.214	1095.5
2732.727	1095.5
2736.237	1096.5
2739.744	1080.5
2743.249	1092.5
2746.75	1110.5
2750.248	1104.5
2753.743	1114.5
2757.236	1132.5
2760.725	1148.5
2764.211	1148.5
2767.695	1134.5
2771.175	1138.5
2774.652	1128.5
2778.127	1121.5
2781.598	1138.5
2785.067	1123.5
2788.532	1117.5
2791.995	1118.5
2795.455	1113.5
2798.911	1094.5
2802.365	1109.5
2805.816	1107.5
2809.264	1095.5
2812.709	1107.5
2816.151	1097.5
2819.59	1103.5
2823.026	1109.5
2826.46	1094.5
2829.89	1119.5
2833.318	1111.5
2836.742	1105.5
2840.164	1097.5
2843.583	1122.5
2846.999	1121.5
2850.412	1163.5
2853.822	1154.5
2857.229	1174.5
2860.634	1198.5
2864.035	1186.5
2867.434	1213.5
2870.83	1237.5
2874.223	1259.5
2877.613	1277.5
2881	1298.5
2884.385	1284.5
2887.766	1304.5
2891.145	1284.5
2894.521	1284.5
2897.894	1291.5
2901.264	1282.5
2904.631	1298.5
2907.996	1289.5
2911.358	1309.5
2914.717	1295.5
2918.073	1318.5
2921.426	1327.5
2924.777	1335.5
2928.124	1340.5
2931.469	1374.5
2934.811	1396.5
2938.15	1399.5
2941.487	1416.5
2944.821	1438.5
2948.152	1428.5
2951.48	1420.5
2954.805	1394.5
2958.128	1388.5
2961.447	1387.5
2964.765	1395.5
2968.079	1399.5
2971.39	1401.5
2974.699	1404.5
2978.005	1449.5
2981.308	1455.5
2984.609	1488.5
2987.907	1506.5
2991.202	1543.5
2994.494	1576.5
2997.784	1617.5
3001.07	1625.5
3004.355	1643.5
3007.636	1679.5
3010.915	1710.5
3014.191	1709.5
3017.464	1714.5
3020.734	1736.5
3024.002	1736.5
3027.267	1751.5
3030.53	1748.5
3033.789	1787.5
3037.046	1812.5
3040.301	1825.5
3043.552	1868.5
3046.801	1897.5
3050.048	1916.5
3053.291	1963.5
3056.532	2037.5
3059.771	2099.5
3063.006	2159.5
3066.239	2207.5
3069.469	2285.5
3072.697	2334.5
3075.922	2373.5
3079.144	2462.5
3082.364	2504.5
3085.581	2542.5
3088.795	2613.5
3092.007	2643.5
3095.216	2732.5
3098.423	2763.5
3101.627	2851.5
3104.828	2880.5
3108.026	2940.5
3111.222	3019.5
3114.416	3076.5
3117.607	3138.5
3120.795	3208.5
3123.98	3285.5
3127.163	3364.5
3130.344	3470.5
3133.521	3529.5
3136.696	3580.5
3139.869	3657.5
3143.039	3751.5
3146.206	3793.5
3149.371	3840.5
3152.533	3892.5
3155.693	3905.5
3158.85	3957.5
3162.005	3938.5
3165.157	3970.5
3168.306	3955.5
3171.453	3976.5
3174.597	3971.5
3177.739	3992.5
3180.878	3965.5
3184.014	3994.5
3187.149	3997.5
3190.28	4005.5
3193.409	4015.5
3196.536	4031.5
3199.659	4038.5
3202.781	4029.5
3205.9	4057.5
3209.016	4020.5
3212.13	4026.5
3215.241	3997.5
3218.35	3928.5
3221.456	3905.5
3224.56	3850.5
3227.661	3835.5
3230.76	3771.5
3233.856	3770.5
3236.95	3728.5
3240.041	3671.5
3243.13	3654.5
3246.216	3649.5
3249.3	3610.5
3252.382	3593.5
3255.46	3580.5
3258.537	3582.5
3261.611	3561.5
3264.682	3564.5
3267.751	3533.5
3270.818	3551.5
3273.882	3538.5
3276.943	3521.5
3280.002	3519.5
3283.059	3447.5
3286.113	3429.5
3289.165	3365.5
3292.214	3330.5
3295.261	3298.5
3298.306	3215.5
3301.348	3154.5
3304.387	3101.5
3307.425	3076.5
3310.459	3026.5
3313.492	2988.5
3316.521	2904.5
3319.549	2923.5
3322.574	2860.5
3325.597	2858.5
3328.617	2822.5
3331.635	2807.5
3334.65	2791.5
3337.663	2774.5
3340.674	2783.5
3343.682	2741.5
3346.688	2719.5
3349.691	2726.5
3352.692	2702.5
3355.691	2701.5
3358.687	2661.5
3361.681	2634.5
3364.673	2591.5
3367.662	2558.5
3370.649	2531.5
3373.633	2488.5
3376.615	2466.5
3379.595	2411.5
3382.572	2399.5
3385.547	2362.5
3388.52	2319.5
3391.49	2272.5
3394.458	2244.5
3397.424	2224.5
3400.387	2206.5
3403.348	2152.5
3406.307	2143.5
3409.263	2121.5
3412.217	2096.5
3415.168	2055.5
3418.118	2046.5
3421.065	2022.5
3424.009	1979.5
3426.951	1928.5
3429.891	1910.5
3432.829	1865.5
3435.764	1822.5
3438.697	1782.5
3441.628	1746.5
3444.557	1698.5
3447.483	1635.5
3450.407	1593.5
3453.328	1531.5
3456.247	1489.5
3459.164	1440.5
3462.079	1390.5
3464.991	1336.5
3467.902	1276.5
3470.809	1219.5
3473.715	1170.5
3476.618	1152.5
3479.519	1102.5
3482.418	1051.5
3485.315	1035.5
3488.209	981.5
3491.101	958.5
3493.99	930.5
3496.878	882.5
3499.763	840.5
3502.646	813.5
3505.527	786.5
3508.405	749.5
3511.281	698.5
3514.155	649.5
3517.027	626.5
3519.897	587.5
3522.764	551.5
3525.629	497.5
3528.492	453.5
3531.352	418.5
3534.211	381.5
3537.067	352.5
3539.921	330.5
3542.773	277.5
3545.622	242.5
3548.469	223.5
3551.315	194.5
3554.157	158.5
3556.998	135.5
3559.837	114.5
3562.673	80.5
3565.507	56.5
3568.339	40.5
3571.169	25.5
3573.996	-3.5
3576.822	-13.5
3579.645	-35.5
3582.466	-57.5
3585.285	-76.5
3588.101	-92.5
3590.916	-107.5
3593.728	-139.5
3596.538	-145.5
3599.346	-170.5
3602.152	-183.5
3604.956	-215.5
3607.757	-224.5
3610.556	-243.5
3613.354	-249.5
3616.149	-258.5
3618.942	-275.5
3621.732	-285.5
3624.521	-299.5
3627.307	-312.5
3630.092	-317.5
3632.874	-335.5
3635.654	-335.5
3638.432	-337.5
3641.208	-357.5
3643.982	-373.5
3646.753	-365.5
3649.523	-389.5
3652.29	-396.5
3655.055	-388.5
3657.818	-415.5
3660.579	-426.5
3663.338	-435.5
3666.095	-443.5
3668.849	-454.5
3671.602	-454.5
3674.352	-466.5
3677.101	-463.5
3679.847	-481.5
3682.591	-484.5
3685.333	-494.5
3688.073	-492.5
3690.811	-500.5
3693.547	-504.5
3696.281	-515.5
3699.013	-520.5
3701.742	-523.5
3704.47	-521.5
3707.195	-527.5
3709.919	-536.5
3712.64	-538.5
3715.359	-537.5
3718.076	-540.5
3720.792	-549.5
3723.505	-546.5
3726.216	-560.5
3728.925	-551.5
3731.632	-566.5
3734.336	-567.5
3737.039	-569.5
3739.74	-560.5
3742.439	-573.5
3745.136	-571.5
3747.83	-579.5
3750.523	-575.5
3753.213	-551.5
3755.902	-584.5
3758.589	-583.5
3761.273	-586.5
3763.956	-584.5
3766.636	-589.5
3769.315	-586.5
3771.991	-585.5
3774.665	-600.5
3777.338	-597.5
3780.008	-593.5
3782.677	-600.5
3785.343	-590.5
3788.007	-598.5
3790.67	-600.5
3793.33	-601.5
3795.989	-604.5
3798.645	-602.5
3801.299	-602.5
3803.952	-609.5
3806.602	-622.5
3809.251	-615.5
3811.897	-613.5
3814.542	-617.5
3817.184	-611.5
3819.825	-612.5
3822.463	-610.5
3825.1	-610.5
3827.735	-610.5
3830.367	-609.5
3832.998	-615.5
3835.627	-618.5
3838.253	-619.5
3840.878	-622.5
3843.501	-621.5
3846.122	-620.5
3848.741	-616.5
3851.358	-618.5
3853.973	-620.5
3856.586	-626.5
3859.197	-624.5
3861.806	-633.5
3864.414	-623.5
3867.019	-624.5
3869.622	-617.5
3872.224	-621.5
3874.823	-603.5
3877.421	-591.5
3880.016	-572.5
3882.61	-545.5
3885.202	-545.5
3887.792	-562.5
3890.38	-594.5
3892.966	-616.5
3895.55	-622.5
3898.132	-638.5
3900.713	-643.5
3903.291	-636.5
3905.868	-636.5
3908.442	-637.5
3911.015	-639.5
3913.586	-633.5
3916.155	-628.5
3918.722	-632.5
3921.287	-632.5
3923.85	-639.5
3926.411	-640.5
3928.971	-649.5
3931.528	-638.5
3934.084	-642.5
3936.638	-638.5
3939.19	-638.5
3941.74	-637.5
3944.288	-645.5
3946.834	-638.5
3949.378	-641.5
3951.921	-639.5
3954.462	-645.5
3957	-637.5
3959.537	-640.5
3962.072	-635.5
3964.606	-640.5
3967.137	-640.5
3969.667	-639.5
3972.194	-636.5
3974.72	-636.5
3977.244	-630.5
3979.766	-626.5
3982.286	-628.5
3984.805	-628.5
3987.321	-624.5
3989.836	-630.5
3992.349	-622.5
3994.86	-621.5
3997.369	-630.5
3999.877	-622.5
4002.382	-619.5
4004.886	-616.5
4007.388	-623.5
4009.888	-621.5
4012.386	-631.5
4014.883	-624.5
4017.377	-620.5
4019.87	-619.5
4022.361	-624.5
4024.85	-624.5
4027.338	-629.5
4029.823	-625.5
4032.307	-627.5
4034.789	-624.5
4037.269	-627.5
4039.747	-627.5
4042.224	-627.5
4044.699	-630.5
4047.172	-624.5
4049.643	-628.5
4052.112	-634.5
4054.58	-636.5
4057.046	-630.5
4059.51	-638.5
4061.972	-634.5
4064.432	-635.5
4066.891	-630.5
4069.348	-626.5
4071.803	-621.5
4074.256	-629.5
4076.708	-625.5
4079.158	-622.5
4081.606	-633.5
4084.052	-631.5
4086.497	-631.5
4088.939	-629.5
4091.38	-631.5
4093.819	-629.5
4096.257	-658.5
4098.693	-666.5
4101.127	-668.5
4103.559	-664.5
4105.989	-380.5
4108.418	-355.5
4110.845	-341.5
4113.27	-311.5
4115.694	-276.5
4118.115	-210.5
4120.535	-626.5
4122.954	-628.5
4125.37	-621.5
4127.785	-630.5
4130.198	-629.5
4132.609	-628.5
4135.019	-663.5
4137.427	-663.5
4139.833	-665.5
4142.237	-662.5
