Data from 2018-2-14_conc=3_n=5_RamanShift_05.txt Node
Date: Wed Feb 14 11:57:26 IST 2018
User: aro
Spectrometer: QEPB0276
Trigger mode: 0
Integration Time (sec): 3.000000E1
Scans to average: 1
Electric dark correction enabled: true
Nonlinearity correction enabled: false
Boxcar width: 0
XAxis mode: Raman Shifts
Number of Pixels in Spectrum: 1044
>>>>>Begin Spectral Data<<<<<
160.701	-148.1
166.742	41.9
172.777	575.9
178.805	2253.9
184.826	6171.9
190.841	12961.9
196.849	20905.9
202.85	26511.9
208.845	28301.9
214.833	28160.9
220.815	27632.9
226.789	27414.9
232.758	27385.9
238.719	27185.9
244.674	26856.9
250.623	26334.9
256.565	25834.9
262.5	25241.9
268.429	24812.9
274.351	24503.9
280.267	24193.9
286.176	23908.9
292.079	23681.9
297.975	23455.9
303.865	23218.9
309.748	23096.9
315.625	22981.9
321.495	22846.9
327.359	22781.9
333.217	22721.9
339.068	22712.9
344.912	22674.9
350.751	22654.9
356.583	22611.9
362.408	22615.9
368.227	22587.9
374.04	22612.9
379.847	22631.9
385.647	22691.9
391.44	22759.9
397.228	22956.9
403.009	23160.9
408.784	23276.9
414.553	23178.9
420.315	23223.9
426.071	23222.9
431.821	23224.9
437.565	23194.9
443.302	23118.9
449.033	23117.9
454.758	23081.9
460.477	23007.9
466.189	22971.9
471.896	22878.9
477.596	22899.9
483.29	22828.9
488.978	22812.9
494.66	22701.9
500.335	22599.9
506.005	22327.9
511.668	22062.9
517.325	21855.9
522.977	21667.9
528.622	21480.9
534.261	21463.9
539.894	21340.9
545.521	21178.9
551.141	21138.9
556.756	21093.9
562.365	20968.9
567.968	20914.9
573.565	20858.9
579.155	20790.9
584.74	20684.9
590.319	20593.9
595.892	20514.9
601.459	20508.9
607.02	20335.9
612.575	20228.9
618.124	20095.9
623.667	19995.9
629.204	19902.9
634.735	19834.9
640.261	19732.9
645.781	19722.9
651.294	19648.9
656.802	19628.9
662.304	19603.9
667.8	19531.9
673.29	19577.9
678.775	19481.9
684.254	19440.9
689.726	19353.9
695.193	19283.9
700.655	19204.9
706.11	19124.9
711.56	18971.9
717.004	18889.9
722.442	18866.9
727.874	18748.9
733.301	18688.9
738.722	18627.9
744.137	18672.9
749.547	18686.9
754.951	18618.9
760.349	18687.9
765.741	18638.9
771.128	18659.9
776.509	18648.9
781.885	18638.9
787.254	18604.9
792.618	18491.9
797.977	18420.9
803.33	18306.9
808.677	18154.9
814.019	18068.9
819.355	17989.9
824.686	17909.9
830.011	17883.9
835.33	17927.9
840.644	17876.9
845.952	17947.9
851.255	17896.9
856.552	17978.9
861.844	17958.9
867.13	17905.9
872.41	17855.9
877.686	17779.9
882.955	17640.9
888.219	17489.9
893.478	17281.9
898.731	17090.9
903.979	16855.9
909.221	16761.9
914.458	16695.9
919.69	16675.9
924.916	16782.9
930.136	16829.9
935.351	16820.9
940.561	16810.9
945.766	16772.9
950.965	16728.9
956.158	16644.9
961.347	16438.9
966.529	16261.9
971.707	16048.9
976.879	15842.9
982.046	15702.9
987.208	15712.9
992.364	15679.9
997.515	15739.9
1002.66	15860.9
1007.801	16058.9
1012.936	16143.9
1018.066	16192.9
1023.19	16163.9
1028.309	16198.9
1033.423	16113.9
1038.532	16104.9
1043.636	15920.9
1048.734	15740.9
1053.827	15496.9
1058.915	15385.9
1063.998	15252.9
1069.075	15249.9
1074.147	15217.9
1079.214	15335.9
1084.276	15389.9
1089.333	15475.9
1094.385	15552.9
1099.431	15590.9
1104.472	15607.9
1109.509	15444.9
1114.54	15348.9
1119.565	15086.9
1124.586	14925.9
1129.602	14756.9
1134.613	14675.9
1139.618	14556.9
1144.619	14554.9
1149.614	14574.9
1154.604	14652.9
1159.589	14593.9
1164.57	14692.9
1169.545	14752.9
1174.515	14686.9
1179.48	14616.9
1184.44	14501.9
1189.395	14399.9
1194.345	14303.9
1199.29	14238.9
1204.23	14197.9
1209.165	14281.9
1214.095	14332.9
1219.021	14434.9
1223.941	14461.9
1228.856	14597.9
1233.766	14668.9
1238.672	14648.9
1243.572	14607.9
1248.467	14531.9
1253.358	14360.9
1258.244	14186.9
1263.124	13931.9
1268	13716.9
1272.871	13578.9
1277.737	13460.9
1282.599	13393.9
1287.455	13391.9
1292.306	13424.9
1297.153	13477.9
1301.995	13586.9
1306.832	13585.9
1311.664	13580.9
1316.491	13563.9
1321.314	13440.9
1326.132	13249.9
1330.945	12962.9
1335.753	12645.9
1340.556	12242.9
1345.354	12033.9
1350.148	11775.9
1354.937	11706.9
1359.722	11664.9
1364.501	11744.9
1369.276	11900.9
1374.046	12129.9
1378.811	12329.9
1383.572	12522.9
1388.327	12555.9
1393.079	12479.9
1397.825	12330.9
1402.567	12136.9
1407.304	11966.9
1412.036	11867.9
1416.764	11700.9
1421.487	11693.9
1426.205	11606.9
1430.919	11542.9
1435.628	11573.9
1440.333	11569.9
1445.032	11653.9
1449.727	11618.9
1454.418	11607.9
1459.104	11482.9
1463.785	11232.9
1468.462	11029.9
1473.134	10745.9
1477.802	10571.9
1482.465	10376.9
1487.123	10227.9
1491.777	10263.9
1496.426	10247.9
1501.071	10387.9
1505.711	10589.9
1510.347	10745.9
1514.978	10975.9
1519.604	11154.9
1524.226	11262.9
1528.844	11260.9
1533.457	11262.9
1538.065	11236.9
1542.669	11151.9
1547.269	11064.9
1551.864	10946.9
1556.454	10955.9
1561.041	10899.9
1565.622	10874.9
1570.199	10901.9
1574.772	10988.9
1579.34	10986.9
1583.904	11110.9
1588.464	11131.9
1593.019	11098.9
1597.569	11050.9
1602.115	10970.9
1606.657	10935.9
1611.195	10861.9
1615.728	10768.9
1620.256	10696.9
1624.78	10707.9
1629.3	10694.9
1633.816	10721.9
1638.327	10764.9
1642.834	10859.9
1647.336	10906.9
1651.834	10922.9
1656.328	10875.9
1660.817	10842.9
1665.302	10688.9
1669.783	10544.9
1674.259	10310.9
1678.732	9984.9
1683.199	9687.9
1687.663	9296.9
1692.122	9021.9
1696.577	8857.9
1701.028	8851.9
1705.474	8933.9
1709.917	9167.9
1714.355	9236.9
1718.788	9133.9
1723.218	8952.9
1727.643	8808.9
1732.064	8639.9
1736.481	8455.9
1740.893	8265.9
1745.301	8049.9
1749.705	7852.9
1754.105	7589.9
1758.501	7416.9
1762.893	7198.9
1767.28	7027.9
1771.663	6851.9
1776.042	6690.9
1780.417	6656.9
1784.787	6618.9
1789.154	6688.9
1793.516	6843.9
1797.874	6989.9
1802.228	7143.9
1806.578	7189.9
1810.924	7227.9
1815.266	7171.9
1819.603	7067.9
1823.937	6933.9
1828.266	6830.9
1832.591	6723.9
1836.913	6622.9
1841.23	6524.9
1845.543	6512.9
1849.852	6448.9
1854.156	6449.9
1858.457	6419.9
1862.754	6396.9
1867.047	6429.9
1871.335	6408.9
1875.62	6366.9
1879.9	6354.9
1884.177	6342.9
1888.449	6269.9
1892.718	6161.9
1896.982	6143.9
1901.243	6078.9
1905.499	5995.9
1909.752	6007.9
1914	6015.9
1918.245	6002.9
1922.485	6048.9
1926.722	6126.9
1930.954	6157.9
1935.183	6316.9
1939.408	6365.9
1943.628	6380.9
1947.845	6406.9
1952.058	6403.9
1956.267	6363.9
1960.472	6264.9
1964.673	6165.9
1968.87	6097.9
1973.063	5939.9
1977.252	5912.9
1981.438	5844.9
1985.619	5807.9
1989.797	5727.9
1993.971	5708.9
1998.14	5675.9
2002.306	5641.9
2006.469	5633.9
2010.627	5602.9
2014.781	5555.9
2018.932	5501.9
2023.078	5447.9
2027.221	5381.9
2031.36	5273.9
2035.495	5211.9
2039.627	5140.9
2043.754	5066.9
2047.878	5019.9
2051.998	4997.9
2056.114	4971.9
2060.226	4974.9
2064.334	4988.9
2068.439	5012.9
2072.54	5011.9
2076.637	5056.9
2080.73	5105.9
2084.82	5089.9
2088.906	5108.9
2092.988	5164.9
2097.066	5095.9
2101.14	5104.9
2105.211	5039.9
2109.278	5046.9
2113.342	5000.9
2117.401	4943.9
2121.457	4958.9
2125.509	4931.9
2129.558	4893.9
2133.602	4890.9
2137.643	4863.9
2141.681	4812.9
2145.714	4779.9
2149.744	4774.9
2153.77	4743.9
2157.793	4689.9
2161.812	4616.9
2165.827	4546.9
2169.838	4493.9
2173.846	4411.9
2177.851	4357.9
2181.851	4297.9
2185.848	4238.9
2189.841	4187.9
2193.831	4129.9
2197.817	4102.9
2201.799	4073.9
2205.778	4062.9
2209.753	4103.9
2213.725	4053.9
2217.693	4027.9
2221.657	3991.9
2225.618	4020.9
2229.575	3982.9
2233.529	3974.9
2237.479	3903.9
2241.425	3872.9
2245.368	3798.9
2249.307	3760.9
2253.243	3707.9
2257.175	3659.9
2261.104	3605.9
2265.029	3557.9
2268.95	3542.9
2272.868	3510.9
2276.783	3500.9
2280.694	3449.9
2284.601	3416.9
2288.505	3350.9
2292.405	3350.9
2296.302	3315.9
2300.195	3265.9
2304.085	3245.9
2307.971	3184.9
2311.854	3140.9
2315.734	3105.9
2319.609	3059.9
2323.482	3025.9
2327.351	2998.9
2331.216	2950.9
2335.078	2958.9
2338.937	2919.9
2342.792	2898.9
2346.643	2902.9
2350.492	2917.9
2354.336	2914.9
2358.178	2907.9
2362.015	2922.9
2365.85	2928.9
2369.681	2916.9
2373.508	2920.9
2377.333	2902.9
2381.153	2905.9
2384.971	2894.9
2388.785	2889.9
2392.595	2838.9
2396.402	2821.9
2400.206	2797.9
2404.007	2795.9
2407.804	2749.9
2411.597	2737.9
2415.388	2739.9
2419.174	2724.9
2422.958	2689.9
2426.738	2679.9
2430.515	2650.9
2434.289	2621.9
2438.059	2626.9
2441.825	2608.9
2445.589	2546.9
2449.349	2525.9
2453.106	2485.9
2456.859	2467.9
2460.61	2429.9
2464.356	2400.9
2468.1	2396.9
2471.84	2362.9
2475.577	2320.9
2479.311	2323.9
2483.041	2314.9
2486.768	2290.9
2490.492	2283.9
2494.213	2299.9
2497.93	2279.9
2501.644	2267.9
2505.355	2255.9
2509.062	2245.9
2512.766	2240.9
2516.467	2234.9
2520.165	2226.9
2523.859	2183.9
2527.551	2181.9
2531.239	2150.9
2534.923	2155.9
2538.605	2144.9
2542.283	2129.9
2545.958	2131.9
2549.63	2132.9
2553.299	2137.9
2556.964	2112.9
2560.626	2098.9
2564.285	2084.9
2567.941	2091.9
2571.594	2072.9
2575.243	2040.9
2578.89	2044.9
2582.533	2040.9
2586.173	2010.9
2589.809	2017.9
2593.443	1993.9
2597.073	1961.9
2600.701	1969.9
2604.325	1941.9
2607.946	1932.9
2611.564	1913.9
2615.178	1918.9
2618.79	1906.9
2622.398	1881.9
2626.004	1862.9
2629.606	1810.9
2633.205	1797.9
2636.801	1779.9
2640.394	1778.9
2643.983	1734.9
2647.57	1715.9
2651.153	1680.9
2654.734	1650.9
2658.311	1620.9
2661.885	1623.9
2665.456	1576.9
2669.025	1570.9
2672.589	1548.9
2676.151	1529.9
2679.71	1534.9
2683.266	1512.9
2686.819	1473.9
2690.368	1425.9
2693.915	1407.9
2697.458	1386.9
2700.999	1344.9
2704.536	1317.9
2708.071	1291.9
2711.602	1255.9
2715.13	1215.9
2718.656	1206.9
2722.178	1188.9
2725.697	1161.9
2729.214	1164.9
2732.727	1140.9
2736.237	1137.9
2739.744	1125.9
2743.249	1134.9
2746.75	1142.9
2750.248	1154.9
2753.743	1163.9
2757.236	1187.9
2760.725	1207.9
2764.211	1187.9
2767.695	1205.9
2771.175	1196.9
2774.652	1187.9
2778.127	1187.9
2781.598	1184.9
2785.067	1180.9
2788.532	1177.9
2791.995	1156.9
2795.455	1171.9
2798.911	1170.9
2802.365	1165.9
2805.816	1152.9
2809.264	1148.9
2812.709	1157.9
2816.151	1154.9
2819.59	1158.9
2823.026	1150.9
2826.46	1146.9
2829.89	1149.9
2833.318	1166.9
2836.742	1168.9
2840.164	1159.9
2843.583	1193.9
2846.999	1196.9
2850.412	1186.9
2853.822	1209.9
2857.229	1217.9
2860.634	1236.9
2864.035	1248.9
2867.434	1286.9
2870.83	1301.9
2874.223	1316.9
2877.613	1323.9
2881	1353.9
2884.385	1367.9
2887.766	1371.9
2891.145	1349.9
2894.521	1351.9
2897.894	1353.9
2901.264	1352.9
2904.631	1360.9
2907.996	1338.9
2911.358	1355.9
2914.717	1370.9
2918.073	1377.9
2921.426	1392.9
2924.777	1397.9
2928.124	1404.9
2931.469	1439.9
2934.811	1462.9
2938.15	1457.9
2941.487	1465.9
2944.821	1496.9
2948.152	1492.9
2951.48	1484.9
2954.805	1459.9
2958.128	1446.9
2961.447	1428.9
2964.765	1442.9
2968.079	1423.9
2971.39	1435.9
2974.699	1456.9
2978.005	1468.9
2981.308	1510.9
2984.609	1519.9
2987.907	1537.9
2991.202	1595.9
2994.494	1639.9
2997.784	1649.9
3001.07	1670.9
3004.355	1691.9
3007.636	1736.9
3010.915	1762.9
3014.191	1772.9
3017.464	1747.9
3020.734	1806.9
3024.002	1789.9
3027.267	1824.9
3030.53	1801.9
3033.789	1836.9
3037.046	1863.9
3040.301	1887.9
3043.552	1921.9
3046.801	1951.9
3050.048	1994.9
3053.291	2063.9
3056.532	2081.9
3059.771	2154.9
3063.006	2209.9
3066.239	2274.9
3069.469	2324.9
3072.697	2401.9
3075.922	2466.9
3079.144	2504.9
3082.364	2573.9
3085.581	2622.9
3088.795	2662.9
3092.007	2730.9
3095.216	2775.9
3098.423	2851.9
3101.627	2913.9
3104.828	2963.9
3108.026	3011.9
3111.222	3097.9
3114.416	3161.9
3117.607	3210.9
3120.795	3303.9
3123.98	3384.9
3127.163	3452.9
3130.344	3522.9
3133.521	3625.9
3136.696	3708.9
3139.869	3767.9
3143.039	3858.9
3146.206	3881.9
3149.371	3942.9
3152.533	3968.9
3155.693	3994.9
3158.85	4020.9
3162.005	4025.9
3165.157	4030.9
3168.306	4059.9
3171.453	4059.9
3174.597	4091.9
3177.739	4073.9
3180.878	4063.9
3184.014	4075.9
3187.149	4075.9
3190.28	4118.9
3193.409	4121.9
3196.536	4123.9
3199.659	4114.9
3202.781	4137.9
3205.9	4123.9
3209.016	4097.9
3212.13	4081.9
3215.241	4063.9
3218.35	4009.9
3221.456	3988.9
3224.56	3969.9
3227.661	3895.9
3230.76	3859.9
3233.856	3837.9
3236.95	3803.9
3240.041	3733.9
3243.13	3752.9
3246.216	3701.9
3249.3	3689.9
3252.382	3674.9
3255.46	3660.9
3258.537	3675.9
3261.611	3674.9
3264.682	3662.9
3267.751	3644.9
3270.818	3637.9
3273.882	3639.9
3276.943	3592.9
3280.002	3568.9
3283.059	3546.9
3286.113	3520.9
3289.165	3449.9
3292.214	3427.9
3295.261	3344.9
3298.306	3300.9
3301.348	3252.9
3304.387	3171.9
3307.425	3132.9
3310.459	3083.9
3313.492	3050.9
3316.521	3014.9
3319.549	2984.9
3322.574	2914.9
3325.597	2908.9
3328.617	2886.9
3331.635	2893.9
3334.65	2864.9
3337.663	2834.9
3340.674	2818.9
3343.682	2792.9
3346.688	2816.9
3349.691	2773.9
3352.692	2764.9
3355.691	2740.9
3358.687	2712.9
3361.681	2673.9
3364.673	2655.9
3367.662	2624.9
3370.649	2565.9
3373.633	2536.9
3376.615	2516.9
3379.595	2475.9
3382.572	2416.9
3385.547	2388.9
3388.52	2363.9
3391.49	2327.9
3394.458	2278.9
3397.424	2256.9
3400.387	2223.9
3403.348	2199.9
3406.307	2152.9
3409.263	2146.9
3412.217	2114.9
3415.168	2112.9
3418.118	2093.9
3421.065	2033.9
3424.009	2030.9
3426.951	1997.9
3429.891	1963.9
3432.829	1890.9
3435.764	1857.9
3438.697	1817.9
3441.628	1794.9
3444.557	1720.9
3447.483	1649.9
3450.407	1615.9
3453.328	1555.9
3456.247	1499.9
3459.164	1455.9
3462.079	1386.9
3464.991	1362.9
3467.902	1306.9
3470.809	1241.9
3473.715	1212.9
3476.618	1153.9
3479.519	1117.9
3482.418	1089.9
3485.315	1047.9
3488.209	1019.9
3491.101	990.9
3493.99	946.9
3496.878	890.9
3499.763	889.9
3502.646	848.9
3505.527	798.9
3508.405	759.9
3511.281	695.9
3514.155	666.9
3517.027	636.9
3519.897	600.9
3522.764	541.9
3525.629	519.9
3528.492	461.9
3531.352	436.9
3534.211	381.9
3537.067	351.9
3539.921	333.9
3542.773	280.9
3545.622	246.9
3548.469	216.9
3551.315	203.9
3554.157	165.9
3556.998	149.9
3559.837	112.9
3562.673	84.9
3565.507	66.9
3568.339	43.9
3571.169	19.9
3573.996	-3.1
3576.822	-15.1
3579.645	-43.1
3582.466	-73.1
3585.285	-80.1
3588.101	-112.1
3590.916	-128.1
3593.728	-156.1
3596.538	-160.1
3599.346	-182.1
3602.152	-197.1
3604.956	-204.1
3607.757	-241.1
3610.556	-242.1
3613.354	-246.1
3616.149	-272.1
3618.942	-280.1
3621.732	-295.1
3624.521	-305.1
3627.307	-317.1
3630.092	-331.1
3632.874	-342.1
3635.654	-361.1
3638.432	-357.1
3641.208	-358.1
3643.982	-387.1
3646.753	-391.1
3649.523	-396.1
3652.29	-399.1
3655.055	-403.1
3657.818	-417.1
3660.579	-424.1
3663.338	-436.1
3666.095	-450.1
3668.849	-457.1
3671.602	-471.1
3674.352	-471.1
3677.101	-479.1
3679.847	-489.1
3682.591	-494.1
3685.333	-504.1
3688.073	-506.1
3690.811	-514.1
3693.547	-518.1
3696.281	-520.1
3699.013	-535.1
3701.742	-536.1
3704.47	-537.1
3707.195	-550.1
3709.919	-548.1
3712.64	-545.1
3715.359	-555.1
3718.076	-563.1
3720.792	-560.1
3723.505	-560.1
3726.216	-569.1
3728.925	-565.1
3731.632	-575.1
3734.336	-581.1
3737.039	-589.1
3739.74	-579.1
3742.439	-593.1
3745.136	-587.1
3747.83	-590.1
3750.523	-593.1
3753.213	-575.1
3755.902	-597.1
3758.589	-594.1
3761.273	-601.1
3763.956	-601.1
3766.636	-607.1
3769.315	-605.1
3771.991	-607.1
3774.665	-611.1
3777.338	-611.1
3780.008	-614.1
3782.677	-610.1
3785.343	-611.1
3788.007	-612.1
3790.67	-615.1
3793.33	-617.1
3795.989	-624.1
3798.645	-617.1
3801.299	-623.1
3803.952	-629.1
3806.602	-630.1
3809.251	-632.1
3811.897	-622.1
3814.542	-627.1
3817.184	-624.1
3819.825	-621.1
3822.463	-624.1
3825.1	-629.1
3827.735	-623.1
3830.367	-628.1
3832.998	-637.1
3835.627	-637.1
3838.253	-638.1
3840.878	-641.1
3843.501	-639.1
3846.122	-641.1
3848.741	-638.1
3851.358	-636.1
3853.973	-639.1
3856.586	-637.1
3859.197	-642.1
3861.806	-648.1
3864.414	-641.1
3867.019	-637.1
3869.622	-638.1
3872.224	-634.1
3874.823	-626.1
3877.421	-610.1
3880.016	-595.1
3882.61	-576.1
3885.202	-578.1
3887.792	-585.1
3890.38	-619.1
3892.966	-631.1
3895.55	-643.1
3898.132	-656.1
3900.713	-655.1
3903.291	-658.1
3905.868	-652.1
3908.442	-654.1
3911.015	-656.1
3913.586	-652.1
3916.155	-651.1
3918.722	-650.1
3921.287	-651.1
3923.85	-654.1
3926.411	-654.1
3928.971	-664.1
3931.528	-654.1
3934.084	-657.1
3936.638	-658.1
3939.19	-660.1
3941.74	-652.1
3944.288	-662.1
3946.834	-654.1
3949.378	-662.1
3951.921	-659.1
3954.462	-664.1
3957	-658.1
3959.537	-657.1
3962.072	-654.1
3964.606	-663.1
3967.137	-659.1
3969.667	-662.1
3972.194	-654.1
3974.72	-652.1
3977.244	-642.1
3979.766	-640.1
3982.286	-644.1
3984.805	-641.1
3987.321	-644.1
3989.836	-647.1
3992.349	-641.1
3994.86	-640.1
3997.369	-646.1
3999.877	-641.1
4002.382	-639.1
4004.886	-642.1
4007.388	-641.1
4009.888	-640.1
4012.386	-644.1
4014.883	-641.1
4017.377	-647.1
4019.87	-644.1
4022.361	-640.1
4024.85	-644.1
4027.338	-646.1
4029.823	-647.1
4032.307	-645.1
4034.789	-634.1
4037.269	-648.1
4039.747	-648.1
4042.224	-645.1
4044.699	-640.1
4047.172	-647.1
4049.643	-640.1
4052.112	-648.1
4054.58	-648.1
4057.046	-654.1
4059.51	-647.1
4061.972	-654.1
4064.432	-650.1
4066.891	-642.1
4069.348	-649.1
4071.803	-642.1
4074.256	-644.1
4076.708	-644.1
4079.158	-648.1
4081.606	-647.1
4084.052	-648.1
4086.497	-646.1
4088.939	-640.1
4091.38	-641.1
4093.819	-634.1
4096.257	-680.1
4098.693	-677.1
4101.127	-682.1
4103.559	-676.1
4105.989	-394.1
4108.418	-374.1
4110.845	-342.1
4113.27	-319.1
4115.694	-288.1
4118.115	-237.1
4120.535	-639.1
4122.954	-644.1
4125.37	-642.1
4127.785	-645.1
4130.198	-650.1
4132.609	-646.1
4135.019	-678.1
4137.427	-684.1
4139.833	-682.1
4142.237	-679.1
