Data from 2018-2-14_conc=6_n=8_RamanShift_05.txt Node
Date: Wed Feb 14 15:09:55 IST 2018
User: aro
Spectrometer: QEPB0276
Trigger mode: 0
Integration Time (sec): 3.000000E1
Scans to average: 1
Electric dark correction enabled: true
Nonlinearity correction enabled: false
Boxcar width: 0
XAxis mode: Raman Shifts
Number of Pixels in Spectrum: 1044
>>>>>Begin Spectral Data<<<<<
160.701	-133.4
166.742	52.6
172.777	532.6
178.805	2080.6
184.826	5652.6
190.841	11839.6
196.849	18963.6
202.85	24052.6
208.845	25788.6
214.833	25577.6
220.815	25100.6
226.789	25003.6
232.758	24934.6
238.719	24744.6
244.674	24525.6
250.623	24208.6
256.565	23714.6
262.5	23281.6
268.429	22796.6
274.351	22590.6
280.267	22271.6
286.176	22114.6
292.079	21910.6
297.975	21727.6
303.865	21573.6
309.748	21400.6
315.625	21284.6
321.495	21204.6
327.359	21081.6
333.217	21144.6
339.068	21079.6
344.912	21044.6
350.751	21014.6
356.583	20986.6
362.408	20974.6
368.227	21083.6
374.04	21051.6
379.847	21110.6
385.647	21194.6
391.44	21256.6
397.228	21318.6
403.009	21413.6
408.784	21450.6
414.553	21567.6
420.315	21568.6
426.071	21631.6
431.821	21656.6
437.565	21630.6
443.302	21580.6
449.033	21528.6
454.758	21513.6
460.477	21431.6
466.189	21410.6
471.896	21269.6
477.596	21290.6
483.29	21171.6
488.978	21137.6
494.66	21127.6
500.335	20936.6
506.005	20721.6
511.668	20507.6
517.325	20240.6
522.977	20042.6
528.622	19895.6
534.261	19768.6
539.894	19732.6
545.521	19577.6
551.141	19530.6
556.756	19510.6
562.365	19400.6
567.968	19389.6
573.565	19240.6
579.155	19144.6
584.74	19072.6
590.319	18978.6
595.892	19011.6
601.459	18889.6
607.02	18823.6
612.575	18693.6
618.124	18578.6
623.667	18401.6
629.204	18353.6
634.735	18246.6
640.261	18217.6
645.781	18126.6
651.294	18130.6
656.802	18099.6
662.304	18021.6
667.8	18068.6
673.29	18047.6
678.775	17960.6
684.254	17917.6
689.726	17869.6
695.193	17749.6
700.655	17729.6
706.11	17613.6
711.56	17481.6
717.004	17438.6
722.442	17372.6
727.874	17314.6
733.301	17239.6
738.722	17215.6
744.137	17159.6
749.547	17126.6
754.951	17140.6
760.349	17128.6
765.741	17181.6
771.128	17154.6
776.509	17194.6
781.885	17198.6
787.254	17115.6
792.618	17019.6
797.977	16961.6
803.33	16848.6
808.677	16739.6
814.019	16685.6
819.355	16624.6
824.686	16553.6
830.011	16423.6
835.33	16445.6
840.644	16483.6
845.952	16485.6
851.255	16519.6
856.552	16581.6
861.844	16555.6
867.13	16470.6
872.41	16413.6
877.686	16304.6
882.955	16184.6
888.219	16070.6
893.478	15892.6
898.731	15697.6
903.979	15525.6
909.221	15438.6
914.458	15380.6
919.69	15398.6
924.916	15381.6
930.136	15481.6
935.351	15516.6
940.561	15507.6
945.766	15430.6
950.965	15427.6
956.158	15282.6
961.347	15124.6
966.529	14918.6
971.707	14766.6
976.879	14559.6
982.046	14420.6
987.208	14385.6
992.364	14394.6
997.515	14509.6
1002.66	14626.6
1007.801	14783.6
1012.936	14900.6
1018.066	14875.6
1023.19	14891.6
1028.309	14917.6
1033.423	14822.6
1038.532	14760.6
1043.636	14602.6
1048.734	14466.6
1053.827	14263.6
1058.915	14110.6
1063.998	13996.6
1069.075	13980.6
1074.147	13993.6
1079.214	14085.6
1084.276	14163.6
1089.333	14231.6
1094.385	14275.6
1099.431	14331.6
1104.472	14264.6
1109.509	14217.6
1114.54	14026.6
1119.565	13903.6
1124.586	13702.6
1129.602	13548.6
1134.613	13447.6
1139.618	13445.6
1144.619	13320.6
1149.614	13377.6
1154.604	13408.6
1159.589	13443.6
1164.57	13439.6
1169.545	13494.6
1174.515	13477.6
1179.48	13380.6
1184.44	13328.6
1189.395	13213.6
1194.345	13111.6
1199.29	13032.6
1204.23	13038.6
1209.165	13080.6
1214.095	13164.6
1219.021	13217.6
1223.941	13270.6
1228.856	13340.6
1233.766	13371.6
1238.672	13424.6
1243.572	13334.6
1248.467	13283.6
1253.358	13112.6
1258.244	12919.6
1263.124	12721.6
1268	12588.6
1272.871	12448.6
1277.737	12289.6
1282.599	12241.6
1287.455	12248.6
1292.306	12300.6
1297.153	12290.6
1301.995	12378.6
1306.832	12441.6
1311.664	12412.6
1316.491	12372.6
1321.314	12259.6
1326.132	12081.6
1330.945	11855.6
1335.753	11540.6
1340.556	11250.6
1345.354	11069.6
1350.148	10870.6
1354.937	10827.6
1359.722	10757.6
1364.501	10787.6
1369.276	10919.6
1374.046	11035.6
1378.811	11181.6
1383.572	11260.6
1388.327	11325.6
1393.079	11250.6
1397.825	11160.6
1402.567	10982.6
1407.304	10851.6
1412.036	10741.6
1416.764	10680.6
1421.487	10668.6
1426.205	10570.6
1430.919	10510.6
1435.628	10543.6
1440.333	10528.6
1445.032	10570.6
1449.727	10617.6
1454.418	10582.6
1459.104	10462.6
1463.785	10238.6
1468.462	10040.6
1473.134	9861.6
1477.802	9642.6
1482.465	9498.6
1487.123	9328.6
1491.777	9347.6
1496.426	9373.6
1501.071	9468.6
1505.711	9622.6
1510.347	9779.6
1514.978	9968.6
1519.604	10108.6
1524.226	10175.6
1528.844	10191.6
1533.457	10187.6
1538.065	10137.6
1542.669	10068.6
1547.269	9961.6
1551.864	9867.6
1556.454	9861.6
1561.041	9870.6
1565.622	9831.6
1570.199	9851.6
1574.772	9920.6
1579.34	9933.6
1583.904	9998.6
1588.464	10055.6
1593.019	10066.6
1597.569	9985.6
1602.115	9948.6
1606.657	9869.6
1611.195	9795.6
1615.728	9754.6
1620.256	9704.6
1624.78	9612.6
1629.3	9677.6
1633.816	9718.6
1638.327	9754.6
1642.834	9786.6
1647.336	9831.6
1651.834	9824.6
1656.328	9810.6
1660.817	9756.6
1665.302	9619.6
1669.783	9491.6
1674.259	9285.6
1678.732	9049.6
1683.199	8706.6
1687.663	8442.6
1692.122	8192.6
1696.577	8062.6
1701.028	8002.6
1705.474	8104.6
1709.917	8134.6
1714.355	8208.6
1718.788	8182.6
1723.218	8053.6
1727.643	7946.6
1732.064	7792.6
1736.481	7636.6
1740.893	7444.6
1745.301	7253.6
1749.705	7094.6
1754.105	6850.6
1758.501	6682.6
1762.893	6461.6
1767.28	6327.6
1771.663	6187.6
1776.042	6074.6
1780.417	5985.6
1784.787	5972.6
1789.154	6036.6
1793.516	6151.6
1797.874	6264.6
1802.228	6345.6
1806.578	6414.6
1810.924	6413.6
1815.266	6381.6
1819.603	6339.6
1823.937	6232.6
1828.266	6109.6
1832.591	5985.6
1836.913	5948.6
1841.23	5854.6
1845.543	5816.6
1849.852	5820.6
1854.156	5801.6
1858.457	5797.6
1862.754	5785.6
1867.047	5726.6
1871.335	5715.6
1875.62	5741.6
1879.9	5733.6
1884.177	5675.6
1888.449	5605.6
1892.718	5559.6
1896.982	5507.6
1901.243	5440.6
1905.499	5402.6
1909.752	5367.6
1914	5387.6
1918.245	5391.6
1922.485	5458.6
1926.722	5515.6
1930.954	5499.6
1935.183	5627.6
1939.408	5677.6
1943.628	5699.6
1947.845	5727.6
1952.058	5711.6
1956.267	5648.6
1960.472	5618.6
1964.673	5489.6
1968.87	5399.6
1973.063	5323.6
1977.252	5257.6
1981.438	5233.6
1985.619	5109.6
1989.797	5130.6
1993.971	5085.6
1998.14	5034.6
2002.306	5029.6
2006.469	5011.6
2010.627	4969.6
2014.781	4944.6
2018.932	4868.6
2023.078	4809.6
2027.221	4755.6
2031.36	4695.6
2035.495	4606.6
2039.627	4562.6
2043.754	4506.6
2047.878	4449.6
2051.998	4398.6
2056.114	4379.6
2060.226	4392.6
2064.334	4371.6
2068.439	4402.6
2072.54	4450.6
2076.637	4436.6
2080.73	4495.6
2084.82	4517.6
2088.906	4541.6
2092.988	4543.6
2097.066	4502.6
2101.14	4502.6
2105.211	4469.6
2109.278	4454.6
2113.342	4420.6
2117.401	4379.6
2121.457	4339.6
2125.509	4351.6
2129.558	4330.6
2133.602	4290.6
2137.643	4271.6
2141.681	4252.6
2145.714	4223.6
2149.744	4191.6
2153.77	4153.6
2157.793	4133.6
2161.812	4033.6
2165.827	4021.6
2169.838	3953.6
2173.846	3896.6
2177.851	3811.6
2181.851	3763.6
2185.848	3696.6
2189.841	3699.6
2193.831	3641.6
2197.817	3590.6
2201.799	3588.6
2205.778	3569.6
2209.753	3563.6
2213.725	3559.6
2217.693	3522.6
2221.657	3534.6
2225.618	3533.6
2229.575	3515.6
2233.529	3480.6
2237.479	3435.6
2241.425	3381.6
2245.368	3345.6
2249.307	3305.6
2253.243	3248.6
2257.175	3193.6
2261.104	3143.6
2265.029	3136.6
2268.95	3093.6
2272.868	3045.6
2276.783	3026.6
2280.694	2995.6
2284.601	2985.6
2288.505	2928.6
2292.405	2914.6
2296.302	2874.6
2300.195	2858.6
2304.085	2810.6
2307.971	2774.6
2311.854	2745.6
2315.734	2706.6
2319.609	2663.6
2323.482	2643.6
2327.351	2614.6
2331.216	2579.6
2335.078	2571.6
2338.937	2562.6
2342.792	2524.6
2346.643	2537.6
2350.492	2535.6
2354.336	2529.6
2358.178	2538.6
2362.015	2580.6
2365.85	2565.6
2369.681	2588.6
2373.508	2555.6
2377.333	2578.6
2381.153	2555.6
2384.971	2531.6
2388.785	2518.6
2392.595	2487.6
2396.402	2494.6
2400.206	2452.6
2404.007	2449.6
2407.804	2446.6
2411.597	2422.6
2415.388	2393.6
2419.174	2380.6
2422.958	2380.6
2426.738	2363.6
2430.515	2345.6
2434.289	2309.6
2438.059	2272.6
2441.825	2280.6
2445.589	2248.6
2449.349	2204.6
2453.106	2194.6
2456.859	2162.6
2460.61	2132.6
2464.356	2116.6
2468.1	2082.6
2471.84	2064.6
2475.577	2039.6
2479.311	2030.6
2483.041	2039.6
2486.768	2006.6
2490.492	1976.6
2494.213	2002.6
2497.93	1994.6
2501.644	1971.6
2505.355	1966.6
2509.062	1973.6
2512.766	1959.6
2516.467	1935.6
2520.165	1930.6
2523.859	1906.6
2527.551	1896.6
2531.239	1893.6
2534.923	1881.6
2538.605	1864.6
2542.283	1865.6
2545.958	1859.6
2549.63	1853.6
2553.299	1860.6
2556.964	1852.6
2560.626	1823.6
2564.285	1828.6
2567.941	1833.6
2571.594	1806.6
2575.243	1784.6
2578.89	1776.6
2582.533	1796.6
2586.173	1757.6
2589.809	1760.6
2593.443	1724.6
2597.073	1722.6
2600.701	1724.6
2604.325	1701.6
2607.946	1683.6
2611.564	1669.6
2615.178	1656.6
2618.79	1647.6
2622.398	1636.6
2626.004	1612.6
2629.606	1591.6
2633.205	1577.6
2636.801	1553.6
2640.394	1537.6
2643.983	1482.6
2647.57	1497.6
2651.153	1468.6
2654.734	1420.6
2658.311	1403.6
2661.885	1374.6
2665.456	1360.6
2669.025	1342.6
2672.589	1340.6
2676.151	1345.6
2679.71	1322.6
2683.266	1291.6
2686.819	1264.6
2690.368	1232.6
2693.915	1218.6
2697.458	1190.6
2700.999	1158.6
2704.536	1127.6
2708.071	1105.6
2711.602	1087.6
2715.13	1040.6
2718.656	1037.6
2722.178	1013.6
2725.697	990.6
2729.214	990.6
2732.727	981.6
2736.237	968.6
2739.744	961.6
2743.249	947.6
2746.75	968.6
2750.248	978.6
2753.743	993.6
2757.236	1004.6
2760.725	1007.6
2764.211	1006.6
2767.695	1032.6
2771.175	1016.6
2774.652	1016.6
2778.127	1004.6
2781.598	995.6
2785.067	1001.6
2788.532	1002.6
2791.995	976.6
2795.455	988.6
2798.911	986.6
2802.365	986.6
2805.816	993.6
2809.264	981.6
2812.709	990.6
2816.151	980.6
2819.59	971.6
2823.026	969.6
2826.46	998.6
2829.89	991.6
2833.318	1002.6
2836.742	996.6
2840.164	993.6
2843.583	1004.6
2846.999	1013.6
2850.412	999.6
2853.822	1033.6
2857.229	1062.6
2860.634	1052.6
2864.035	1083.6
2867.434	1102.6
2870.83	1109.6
2874.223	1138.6
2877.613	1140.6
2881	1158.6
2884.385	1152.6
2887.766	1167.6
2891.145	1142.6
2894.521	1143.6
2897.894	1163.6
2901.264	1136.6
2904.631	1145.6
2907.996	1137.6
2911.358	1136.6
2914.717	1162.6
2918.073	1164.6
2921.426	1188.6
2924.777	1199.6
2928.124	1197.6
2931.469	1227.6
2934.811	1254.6
2938.15	1268.6
2941.487	1257.6
2944.821	1264.6
2948.152	1264.6
2951.48	1270.6
2954.805	1247.6
2958.128	1226.6
2961.447	1212.6
2964.765	1204.6
2968.079	1214.6
2971.39	1237.6
2974.699	1240.6
2978.005	1257.6
2981.308	1276.6
2984.609	1314.6
2987.907	1330.6
2991.202	1341.6
2994.494	1383.6
2997.784	1409.6
3001.07	1442.6
3004.355	1441.6
3007.636	1468.6
3010.915	1493.6
3014.191	1499.6
3017.464	1497.6
3020.734	1517.6
3024.002	1532.6
3027.267	1527.6
3030.53	1542.6
3033.789	1555.6
3037.046	1592.6
3040.301	1605.6
3043.552	1632.6
3046.801	1678.6
3050.048	1712.6
3053.291	1761.6
3056.532	1771.6
3059.771	1842.6
3063.006	1895.6
3066.239	1957.6
3069.469	2040.6
3072.697	2064.6
3075.922	2101.6
3079.144	2149.6
3082.364	2210.6
3085.581	2253.6
3088.795	2308.6
3092.007	2352.6
3095.216	2397.6
3098.423	2431.6
3101.627	2514.6
3104.828	2536.6
3108.026	2594.6
3111.222	2657.6
3114.416	2732.6
3117.607	2787.6
3120.795	2848.6
3123.98	2930.6
3127.163	2985.6
3130.344	3061.6
3133.521	3120.6
3136.696	3213.6
3139.869	3268.6
3143.039	3302.6
3146.206	3375.6
3149.371	3399.6
3152.533	3444.6
3155.693	3462.6
3158.85	3467.6
3162.005	3493.6
3165.157	3499.6
3168.306	3503.6
3171.453	3523.6
3174.597	3547.6
3177.739	3535.6
3180.878	3547.6
3184.014	3532.6
3187.149	3554.6
3190.28	3567.6
3193.409	3542.6
3196.536	3557.6
3199.659	3555.6
3202.781	3586.6
3205.9	3574.6
3209.016	3582.6
3212.13	3553.6
3215.241	3519.6
3218.35	3474.6
3221.456	3449.6
3224.56	3421.6
3227.661	3378.6
3230.76	3324.6
3233.856	3304.6
3236.95	3277.6
3240.041	3244.6
3243.13	3212.6
3246.216	3195.6
3249.3	3189.6
3252.382	3180.6
3255.46	3146.6
3258.537	3114.6
3261.611	3151.6
3264.682	3128.6
3267.751	3140.6
3270.818	3139.6
3273.882	3117.6
3276.943	3117.6
3280.002	3101.6
3283.059	3046.6
3286.113	3005.6
3289.165	2963.6
3292.214	2936.6
3295.261	2891.6
3298.306	2849.6
3301.348	2773.6
3304.387	2748.6
3307.425	2711.6
3310.459	2649.6
3313.492	2613.6
3316.521	2583.6
3319.549	2564.6
3322.574	2523.6
3325.597	2501.6
3328.617	2502.6
3331.635	2473.6
3334.65	2454.6
3337.663	2455.6
3340.674	2443.6
3343.682	2427.6
3346.688	2437.6
3349.691	2421.6
3352.692	2392.6
3355.691	2372.6
3358.687	2351.6
3361.681	2333.6
3364.673	2273.6
3367.662	2240.6
3370.649	2234.6
3373.633	2207.6
3376.615	2168.6
3379.595	2131.6
3382.572	2114.6
3385.547	2082.6
3388.52	2031.6
3391.49	1995.6
3394.458	1969.6
3397.424	1950.6
3400.387	1936.6
3403.348	1902.6
3406.307	1881.6
3409.263	1846.6
3412.217	1854.6
3415.168	1809.6
3418.118	1806.6
3421.065	1772.6
3424.009	1744.6
3426.951	1712.6
3429.891	1679.6
3432.829	1642.6
3435.764	1587.6
3438.697	1568.6
3441.628	1510.6
3444.557	1478.6
3447.483	1413.6
3450.407	1396.6
3453.328	1347.6
3456.247	1302.6
3459.164	1230.6
3462.079	1212.6
3464.991	1157.6
3467.902	1097.6
3470.809	1072.6
3473.715	1027.6
3476.618	992.6
3479.519	945.6
3482.418	942.6
3485.315	883.6
3488.209	859.6
3491.101	823.6
3493.99	781.6
3496.878	743.6
3499.763	722.6
3502.646	699.6
3505.527	662.6
3508.405	633.6
3511.281	580.6
3514.155	547.6
3517.027	528.6
3519.897	479.6
3522.764	439.6
3525.629	413.6
3528.492	368.6
3531.352	333.6
3534.211	314.6
3537.067	275.6
3539.921	238.6
3542.773	204.6
3545.622	177.6
3548.469	150.6
3551.315	132.6
3554.157	115.6
3556.998	83.6
3559.837	57.6
3562.673	45.6
3565.507	9.6
3568.339	-1.4
3571.169	-15.4
3573.996	-33.4
3576.822	-41.4
3579.645	-73.4
3582.466	-94.4
3585.285	-111.4
3588.101	-123.4
3590.916	-146.4
3593.728	-155.4
3596.538	-173.4
3599.346	-200.4
3602.152	-216.4
3604.956	-215.4
3607.757	-235.4
3610.556	-248.4
3613.354	-254.4
3616.149	-274.4
3618.942	-288.4
3621.732	-292.4
3624.521	-306.4
3627.307	-316.4
3630.092	-334.4
3632.874	-335.4
3635.654	-341.4
3638.432	-341.4
3641.208	-355.4
3643.982	-364.4
3646.753	-379.4
3649.523	-384.4
3652.29	-383.4
3655.055	-390.4
3657.818	-403.4
3660.579	-416.4
3663.338	-424.4
3666.095	-432.4
3668.849	-447.4
3671.602	-447.4
3674.352	-448.4
3677.101	-454.4
3679.847	-469.4
3682.591	-467.4
3685.333	-476.4
3688.073	-475.4
3690.811	-495.4
3693.547	-491.4
3696.281	-495.4
3699.013	-500.4
3701.742	-510.4
3704.47	-506.4
3707.195	-514.4
3709.919	-514.4
3712.64	-517.4
3715.359	-516.4
3718.076	-527.4
3720.792	-520.4
3723.505	-523.4
3726.216	-529.4
3728.925	-534.4
3731.632	-538.4
3734.336	-545.4
3737.039	-544.4
3739.74	-539.4
3742.439	-547.4
3745.136	-544.4
3747.83	-553.4
3750.523	-551.4
3753.213	-565.4
3755.902	-557.4
3758.589	-559.4
3761.273	-558.4
3763.956	-568.4
3766.636	-564.4
3769.315	-569.4
3771.991	-564.4
3774.665	-570.4
3777.338	-571.4
3780.008	-574.4
3782.677	-572.4
3785.343	-566.4
3788.007	-574.4
3790.67	-572.4
3793.33	-579.4
3795.989	-578.4
3798.645	-575.4
3801.299	-575.4
3803.952	-590.4
3806.602	-592.4
3809.251	-591.4
3811.897	-585.4
3814.542	-587.4
3817.184	-577.4
3819.825	-583.4
3822.463	-585.4
3825.1	-590.4
3827.735	-581.4
3830.367	-586.4
3832.998	-591.4
3835.627	-598.4
3838.253	-594.4
3840.878	-597.4
3843.501	-595.4
3846.122	-586.4
3848.741	-596.4
3851.358	-590.4
3853.973	-592.4
3856.586	-595.4
3859.197	-604.4
3861.806	-603.4
3864.414	-593.4
3867.019	-596.4
3869.622	-596.4
3872.224	-592.4
3874.823	-571.4
3877.421	-557.4
3880.016	-543.4
3882.61	-523.4
3885.202	-523.4
3887.792	-537.4
3890.38	-566.4
3892.966	-583.4
3895.55	-592.4
3898.132	-614.4
3900.713	-612.4
3903.291	-611.4
3905.868	-613.4
3908.442	-613.4
3911.015	-614.4
3913.586	-606.4
3916.155	-606.4
3918.722	-611.4
3921.287	-606.4
3923.85	-612.4
3926.411	-610.4
3928.971	-614.4
3931.528	-613.4
3934.084	-603.4
3936.638	-608.4
3939.19	-609.4
3941.74	-610.4
3944.288	-610.4
3946.834	-603.4
3949.378	-615.4
3951.921	-612.4
3954.462	-621.4
3957	-609.4
3959.537	-612.4
3962.072	-608.4
3964.606	-612.4
3967.137	-607.4
3969.667	-617.4
3972.194	-604.4
3974.72	-609.4
3977.244	-603.4
3979.766	-599.4
3982.286	-599.4
3984.805	-603.4
3987.321	-603.4
3989.836	-601.4
3992.349	-596.4
3994.86	-589.4
3997.369	-605.4
3999.877	-595.4
4002.382	-597.4
4004.886	-599.4
4007.388	-597.4
4009.888	-600.4
4012.386	-608.4
4014.883	-600.4
4017.377	-594.4
4019.87	-595.4
4022.361	-599.4
4024.85	-595.4
4027.338	-597.4
4029.823	-600.4
4032.307	-601.4
4034.789	-597.4
4037.269	-595.4
4039.747	-598.4
4042.224	-602.4
4044.699	-600.4
4047.172	-601.4
4049.643	-598.4
4052.112	-608.4
4054.58	-605.4
4057.046	-606.4
4059.51	-602.4
4061.972	-605.4
4064.432	-603.4
4066.891	-602.4
4069.348	-595.4
4071.803	-596.4
4074.256	-596.4
4076.708	-601.4
4079.158	-603.4
4081.606	-604.4
4084.052	-600.4
4086.497	-600.4
4088.939	-595.4
4091.38	-598.4
4093.819	-596.4
4096.257	-634.4
4098.693	-632.4
4101.127	-638.4
4103.559	-634.4
4105.989	-365.4
4108.418	-338.4
4110.845	-325.4
4113.27	-295.4
4115.694	-252.4
4118.115	-213.4
4120.535	-597.4
4122.954	-595.4
4125.37	-594.4
4127.785	-602.4
4130.198	-600.4
4132.609	-601.4
4135.019	-633.4
4137.427	-633.4
4139.833	-635.4
4142.237	-630.4
