Data from 2018-2-14_conc=6_n=7_RamanShift_01.txt Node
Date: Wed Feb 14 15:04:55 IST 2018
User: aro
Spectrometer: QEPB0276
Trigger mode: 0
Integration Time (sec): 3.000000E1
Scans to average: 1
Electric dark correction enabled: true
Nonlinearity correction enabled: false
Boxcar width: 0
XAxis mode: Raman Shifts
Number of Pixels in Spectrum: 1044
>>>>>Begin Spectral Data<<<<<
160.701	-141.5
166.742	49.5
172.777	604.5
178.805	2288.5
184.826	6414.5
190.841	13423.5
196.849	21762.5
202.85	27722.5
208.845	29602.5
214.833	29389.5
220.815	28801.5
226.789	28612.5
232.758	28392.5
238.719	28153.5
244.674	27767.5
250.623	27339.5
256.565	26635.5
262.5	26049.5
268.429	25544.5
274.351	25191.5
280.267	24780.5
286.176	24627.5
292.079	24313.5
297.975	24059.5
303.865	23873.5
309.748	23703.5
315.625	23475.5
321.495	23330.5
327.359	23342.5
333.217	23181.5
339.068	23159.5
344.912	23154.5
350.751	23083.5
356.583	23091.5
362.408	23120.5
368.227	23101.5
374.04	23086.5
379.847	23140.5
385.647	23306.5
391.44	23367.5
397.228	23445.5
403.009	23541.5
408.784	23610.5
414.553	23598.5
420.315	23754.5
426.071	23699.5
431.821	23696.5
437.565	23667.5
443.302	23646.5
449.033	23571.5
454.758	23481.5
460.477	23492.5
466.189	23460.5
471.896	23351.5
477.596	23268.5
483.29	23216.5
488.978	23274.5
494.66	23146.5
500.335	22971.5
506.005	22772.5
511.668	22451.5
517.325	22244.5
522.977	22015.5
528.622	21847.5
534.261	21662.5
539.894	21614.5
545.521	21537.5
551.141	21431.5
556.756	21324.5
562.365	21228.5
567.968	21139.5
573.565	21122.5
579.155	20983.5
584.74	20887.5
590.319	20823.5
595.892	20774.5
601.459	20687.5
607.02	20532.5
612.575	20465.5
618.124	20277.5
623.667	20153.5
629.204	20205.5
634.735	19936.5
640.261	19911.5
645.781	19863.5
651.294	19824.5
656.802	19767.5
662.304	19685.5
667.8	19722.5
673.29	19627.5
678.775	19574.5
684.254	19590.5
689.726	19487.5
695.193	19398.5
700.655	19302.5
706.11	19249.5
711.56	19155.5
717.004	18985.5
722.442	18929.5
727.874	18856.5
733.301	18793.5
738.722	18704.5
744.137	18661.5
749.547	18682.5
754.951	18672.5
760.349	18647.5
765.741	18689.5
771.128	18725.5
776.509	18702.5
781.885	18727.5
787.254	18638.5
792.618	18502.5
797.977	18423.5
803.33	18348.5
808.677	18204.5
814.019	18176.5
819.355	18001.5
824.686	17931.5
830.011	17860.5
835.33	17862.5
840.644	17884.5
845.952	17906.5
851.255	17936.5
856.552	17947.5
861.844	17897.5
867.13	17835.5
872.41	17764.5
877.686	17710.5
882.955	17554.5
888.219	17357.5
893.478	17150.5
898.731	16967.5
903.979	16839.5
909.221	16641.5
914.458	16604.5
919.69	16611.5
924.916	16597.5
930.136	16739.5
935.351	16718.5
940.561	16701.5
945.766	16631.5
950.965	16582.5
956.158	16496.5
961.347	16285.5
966.529	16107.5
971.707	15836.5
976.879	15639.5
982.046	15585.5
987.208	15479.5
992.364	15525.5
997.515	15583.5
1002.66	15751.5
1007.801	15924.5
1012.936	15976.5
1018.066	16004.5
1023.19	16015.5
1028.309	16013.5
1033.423	15965.5
1038.532	15821.5
1043.636	15746.5
1048.734	15571.5
1053.827	15351.5
1058.915	15177.5
1063.998	15062.5
1069.075	15026.5
1074.147	15029.5
1079.214	15106.5
1084.276	15204.5
1089.333	15282.5
1094.385	15275.5
1099.431	15348.5
1104.472	15372.5
1109.509	15241.5
1114.54	15070.5
1119.565	14890.5
1124.586	14740.5
1129.602	14544.5
1134.613	14398.5
1139.618	14369.5
1144.619	14300.5
1149.614	14339.5
1154.604	14354.5
1159.589	14356.5
1164.57	14418.5
1169.545	14458.5
1174.515	14390.5
1179.48	14316.5
1184.44	14252.5
1189.395	14147.5
1194.345	14001.5
1199.29	13968.5
1204.23	13954.5
1209.165	14026.5
1214.095	14075.5
1219.021	14118.5
1223.941	14215.5
1228.856	14282.5
1233.766	14287.5
1238.672	14364.5
1243.572	14353.5
1248.467	14203.5
1253.358	14048.5
1258.244	13882.5
1263.124	13647.5
1268	13444.5
1272.871	13347.5
1277.737	13192.5
1282.599	13129.5
1287.455	13133.5
1292.306	13131.5
1297.153	13215.5
1301.995	13269.5
1306.832	13216.5
1311.664	13264.5
1316.491	13264.5
1321.314	13143.5
1326.132	12946.5
1330.945	12651.5
1335.753	12393.5
1340.556	12095.5
1345.354	11886.5
1350.148	11669.5
1354.937	11561.5
1359.722	11536.5
1364.501	11601.5
1369.276	11693.5
1374.046	11848.5
1378.811	11938.5
1383.572	12096.5
1388.327	12143.5
1393.079	12091.5
1397.825	11973.5
1402.567	11750.5
1407.304	11655.5
1412.036	11555.5
1416.764	11409.5
1421.487	11341.5
1426.205	11315.5
1430.919	11286.5
1435.628	11301.5
1440.333	11304.5
1445.032	11324.5
1449.727	11350.5
1454.418	11351.5
1459.104	11228.5
1463.785	11078.5
1468.462	10810.5
1473.134	10585.5
1477.802	10377.5
1482.465	10190.5
1487.123	10054.5
1491.777	10047.5
1496.426	10071.5
1501.071	10153.5
1505.711	10285.5
1510.347	10496.5
1514.978	10677.5
1519.604	10820.5
1524.226	10870.5
1528.844	10948.5
1533.457	10922.5
1538.065	10897.5
1542.669	10810.5
1547.269	10714.5
1551.864	10650.5
1556.454	10610.5
1561.041	10610.5
1565.622	10645.5
1570.199	10627.5
1574.772	10685.5
1579.34	10732.5
1583.904	10800.5
1588.464	10843.5
1593.019	10835.5
1597.569	10858.5
1602.115	10768.5
1606.657	10742.5
1611.195	10626.5
1615.728	10602.5
1620.256	10546.5
1624.78	10555.5
1629.3	10539.5
1633.816	10609.5
1638.327	10643.5
1642.834	10720.5
1647.336	10783.5
1651.834	10783.5
1656.328	10747.5
1660.817	10724.5
1665.302	10600.5
1669.783	10475.5
1674.259	10214.5
1678.732	9878.5
1683.199	9625.5
1687.663	9256.5
1692.122	8982.5
1696.577	8843.5
1701.028	8754.5
1705.474	8804.5
1709.917	8849.5
1714.355	8869.5
1718.788	8811.5
1723.218	8677.5
1727.643	8521.5
1732.064	8351.5
1736.481	8186.5
1740.893	7961.5
1745.301	7723.5
1749.705	7534.5
1754.105	7315.5
1758.501	7124.5
1762.893	6901.5
1767.28	6814.5
1771.663	6635.5
1776.042	6536.5
1780.417	6493.5
1784.787	6496.5
1789.154	6511.5
1793.516	6614.5
1797.874	6733.5
1802.228	6820.5
1806.578	6925.5
1810.924	6905.5
1815.266	6810.5
1819.603	6768.5
1823.937	6619.5
1828.266	6519.5
1832.591	6416.5
1836.913	6307.5
1841.23	6300.5
1845.543	6238.5
1849.852	6206.5
1854.156	6165.5
1858.457	6136.5
1862.754	6184.5
1867.047	6139.5
1871.335	6150.5
1875.62	6159.5
1879.9	6102.5
1884.177	6069.5
1888.449	6022.5
1892.718	5974.5
1896.982	5939.5
1901.243	5846.5
1905.499	5816.5
1909.752	5812.5
1914	5781.5
1918.245	5790.5
1922.485	5822.5
1926.722	5930.5
1930.954	5991.5
1935.183	6033.5
1939.408	6115.5
1943.628	6136.5
1947.845	6142.5
1952.058	6124.5
1956.267	6061.5
1960.472	5983.5
1964.673	5932.5
1968.87	5814.5
1973.063	5699.5
1977.252	5652.5
1981.438	5554.5
1985.619	5545.5
1989.797	5471.5
1993.971	5440.5
1998.14	5445.5
2002.306	5416.5
2006.469	5408.5
2010.627	5343.5
2014.781	5337.5
2018.932	5291.5
2023.078	5278.5
2027.221	5136.5
2031.36	5129.5
2035.495	5014.5
2039.627	4912.5
2043.754	4877.5
2047.878	4856.5
2051.998	4790.5
2056.114	4782.5
2060.226	4818.5
2064.334	4800.5
2068.439	4771.5
2072.54	4831.5
2076.637	4882.5
2080.73	4888.5
2084.82	4934.5
2088.906	4950.5
2092.988	4962.5
2097.066	4924.5
2101.14	4909.5
2105.211	4869.5
2109.278	4822.5
2113.342	4843.5
2117.401	4771.5
2121.457	4742.5
2125.509	4739.5
2129.558	4704.5
2133.602	4660.5
2137.643	4626.5
2141.681	4621.5
2145.714	4586.5
2149.744	4573.5
2153.77	4528.5
2157.793	4488.5
2161.812	4436.5
2165.827	4350.5
2169.838	4290.5
2173.846	4213.5
2177.851	4129.5
2181.851	4108.5
2185.848	4024.5
2189.841	3994.5
2193.831	3967.5
2197.817	3901.5
2201.799	3876.5
2205.778	3843.5
2209.753	3846.5
2213.725	3859.5
2217.693	3853.5
2221.657	3805.5
2225.618	3792.5
2229.575	3791.5
2233.529	3724.5
2237.479	3717.5
2241.425	3685.5
2245.368	3630.5
2249.307	3551.5
2253.243	3510.5
2257.175	3473.5
2261.104	3396.5
2265.029	3388.5
2268.95	3344.5
2272.868	3314.5
2276.783	3278.5
2280.694	3224.5
2284.601	3209.5
2288.505	3192.5
2292.405	3131.5
2296.302	3111.5
2300.195	3040.5
2304.085	3025.5
2307.971	2974.5
2311.854	2936.5
2315.734	2902.5
2319.609	2869.5
2323.482	2836.5
2327.351	2773.5
2331.216	2755.5
2335.078	2742.5
2338.937	2712.5
2342.792	2691.5
2346.643	2692.5
2350.492	2711.5
2354.336	2709.5
2358.178	2695.5
2362.015	2701.5
2365.85	2693.5
2369.681	2710.5
2373.508	2703.5
2377.333	2696.5
2381.153	2689.5
2384.971	2678.5
2388.785	2656.5
2392.595	2611.5
2396.402	2582.5
2400.206	2564.5
2404.007	2565.5
2407.804	2542.5
2411.597	2542.5
2415.388	2511.5
2419.174	2477.5
2422.958	2462.5
2426.738	2468.5
2430.515	2436.5
2434.289	2430.5
2438.059	2417.5
2441.825	2380.5
2445.589	2357.5
2449.349	2325.5
2453.106	2301.5
2456.859	2263.5
2460.61	2221.5
2464.356	2203.5
2468.1	2194.5
2471.84	2149.5
2475.577	2140.5
2479.311	2130.5
2483.041	2122.5
2486.768	2113.5
2490.492	2083.5
2494.213	2101.5
2497.93	2079.5
2501.644	2087.5
2505.355	2068.5
2509.062	2048.5
2512.766	2046.5
2516.467	2045.5
2520.165	2035.5
2523.859	2004.5
2527.551	2000.5
2531.239	1974.5
2534.923	1952.5
2538.605	1969.5
2542.283	1943.5
2545.958	1956.5
2549.63	1947.5
2553.299	1930.5
2556.964	1929.5
2560.626	1919.5
2564.285	1914.5
2567.941	1909.5
2571.594	1877.5
2575.243	1890.5
2578.89	1859.5
2582.533	1842.5
2586.173	1834.5
2589.809	1831.5
2593.443	1787.5
2597.073	1776.5
2600.701	1764.5
2604.325	1747.5
2607.946	1732.5
2611.564	1732.5
2615.178	1713.5
2618.79	1716.5
2622.398	1714.5
2626.004	1667.5
2629.606	1629.5
2633.205	1641.5
2636.801	1607.5
2640.394	1587.5
2643.983	1545.5
2647.57	1539.5
2651.153	1507.5
2654.734	1488.5
2658.311	1450.5
2661.885	1424.5
2665.456	1420.5
2669.025	1415.5
2672.589	1379.5
2676.151	1383.5
2679.71	1360.5
2683.266	1343.5
2686.819	1325.5
2690.368	1304.5
2693.915	1270.5
2697.458	1248.5
2700.999	1199.5
2704.536	1167.5
2708.071	1149.5
2711.602	1137.5
2715.13	1107.5
2718.656	1108.5
2722.178	1081.5
2725.697	1083.5
2729.214	1039.5
2732.727	1046.5
2736.237	1056.5
2739.744	1025.5
2743.249	1065.5
2746.75	1056.5
2750.248	1054.5
2753.743	1070.5
2757.236	1087.5
2760.725	1093.5
2764.211	1096.5
2767.695	1083.5
2771.175	1070.5
2774.652	1075.5
2778.127	1090.5
2781.598	1062.5
2785.067	1061.5
2788.532	1070.5
2791.995	1063.5
2795.455	1059.5
2798.911	1070.5
2802.365	1062.5
2805.816	1062.5
2809.264	1059.5
2812.709	1057.5
2816.151	1034.5
2819.59	1054.5
2823.026	1062.5
2826.46	1068.5
2829.89	1074.5
2833.318	1080.5
2836.742	1077.5
2840.164	1077.5
2843.583	1091.5
2846.999	1085.5
2850.412	1105.5
2853.822	1124.5
2857.229	1139.5
2860.634	1155.5
2864.035	1185.5
2867.434	1209.5
2870.83	1238.5
2874.223	1243.5
2877.613	1287.5
2881	1301.5
2884.385	1317.5
2887.766	1300.5
2891.145	1299.5
2894.521	1305.5
2897.894	1306.5
2901.264	1289.5
2904.631	1317.5
2907.996	1337.5
2911.358	1310.5
2914.717	1343.5
2918.073	1333.5
2921.426	1376.5
2924.777	1381.5
2928.124	1390.5
2931.469	1434.5
2934.811	1457.5
2938.15	1467.5
2941.487	1500.5
2944.821	1506.5
2948.152	1500.5
2951.48	1522.5
2954.805	1480.5
2958.128	1478.5
2961.447	1475.5
2964.765	1476.5
2968.079	1469.5
2971.39	1503.5
2974.699	1512.5
2978.005	1516.5
2981.308	1536.5
2984.609	1553.5
2987.907	1612.5
2991.202	1638.5
2994.494	1691.5
2997.784	1710.5
3001.07	1746.5
3004.355	1755.5
3007.636	1795.5
3010.915	1808.5
3014.191	1840.5
3017.464	1842.5
3020.734	1859.5
3024.002	1852.5
3027.267	1916.5
3030.53	1909.5
3033.789	1923.5
3037.046	1941.5
3040.301	1980.5
3043.552	2016.5
3046.801	2063.5
3050.048	2095.5
3053.291	2166.5
3056.532	2228.5
3059.771	2266.5
3063.006	2358.5
3066.239	2420.5
3069.469	2509.5
3072.697	2569.5
3075.922	2637.5
3079.144	2699.5
3082.364	2745.5
3085.581	2802.5
3088.795	2865.5
3092.007	2904.5
3095.216	3008.5
3098.423	3051.5
3101.627	3124.5
3104.828	3205.5
3108.026	3251.5
3111.222	3344.5
3114.416	3407.5
3117.607	3474.5
3120.795	3578.5
3123.98	3647.5
3127.163	3741.5
3130.344	3854.5
3133.521	3915.5
3136.696	4021.5
3139.869	4066.5
3143.039	4141.5
3146.206	4215.5
3149.371	4299.5
3152.533	4311.5
3155.693	4341.5
3158.85	4379.5
3162.005	4403.5
3165.157	4397.5
3168.306	4451.5
3171.453	4445.5
3174.597	4442.5
3177.739	4473.5
3180.878	4452.5
3184.014	4490.5
3187.149	4457.5
3190.28	4498.5
3193.409	4509.5
3196.536	4509.5
3199.659	4536.5
3202.781	4548.5
3205.9	4532.5
3209.016	4523.5
3212.13	4483.5
3215.241	4470.5
3218.35	4438.5
3221.456	4396.5
3224.56	4356.5
3227.661	4301.5
3230.76	4278.5
3233.856	4209.5
3236.95	4165.5
3240.041	4129.5
3243.13	4157.5
3246.216	4083.5
3249.3	4089.5
3252.382	4055.5
3255.46	4035.5
3258.537	3986.5
3261.611	4056.5
3264.682	4039.5
3267.751	4012.5
3270.818	4012.5
3273.882	4019.5
3276.943	3979.5
3280.002	3969.5
3283.059	3885.5
3286.113	3887.5
3289.165	3821.5
3292.214	3769.5
3295.261	3689.5
3298.306	3651.5
3301.348	3595.5
3304.387	3535.5
3307.425	3488.5
3310.459	3419.5
3313.492	3382.5
3316.521	3355.5
3319.549	3283.5
3322.574	3267.5
3325.597	3244.5
3328.617	3211.5
3331.635	3199.5
3334.65	3175.5
3337.663	3141.5
3340.674	3135.5
3343.682	3121.5
3346.688	3128.5
3349.691	3102.5
3352.692	3075.5
3355.691	3056.5
3358.687	3045.5
3361.681	2983.5
3364.673	2959.5
3367.662	2930.5
3370.649	2881.5
3373.633	2855.5
3376.615	2795.5
3379.595	2729.5
3382.572	2716.5
3385.547	2688.5
3388.52	2640.5
3391.49	2607.5
3394.458	2570.5
3397.424	2529.5
3400.387	2504.5
3403.348	2474.5
3406.307	2425.5
3409.263	2413.5
3412.217	2414.5
3415.168	2351.5
3418.118	2333.5
3421.065	2299.5
3424.009	2265.5
3426.951	2231.5
3429.891	2212.5
3432.829	2139.5
3435.764	2100.5
3438.697	2050.5
3441.628	1994.5
3444.557	1938.5
3447.483	1884.5
3450.407	1834.5
3453.328	1765.5
3456.247	1703.5
3459.164	1639.5
3462.079	1582.5
3464.991	1537.5
3467.902	1475.5
3470.809	1444.5
3473.715	1377.5
3476.618	1325.5
3479.519	1294.5
3482.418	1250.5
3485.315	1205.5
3488.209	1146.5
3491.101	1128.5
3493.99	1091.5
3496.878	1045.5
3499.763	1014.5
3502.646	972.5
3505.527	932.5
3508.405	881.5
3511.281	834.5
3514.155	785.5
3517.027	755.5
3519.897	713.5
3522.764	648.5
3525.629	613.5
3528.492	562.5
3531.352	520.5
3534.211	487.5
3537.067	439.5
3539.921	403.5
3542.773	366.5
3545.622	330.5
3548.469	295.5
3551.315	257.5
3554.157	216.5
3556.998	196.5
3559.837	164.5
3562.673	141.5
3565.507	102.5
3568.339	92.5
3571.169	74.5
3573.996	44.5
3576.822	26.5
3579.645	3.5
3582.466	-21.5
3585.285	-46.5
3588.101	-77.5
3590.916	-92.5
3593.728	-103.5
3596.538	-122.5
3599.346	-154.5
3602.152	-169.5
3604.956	-176.5
3607.757	-194.5
3610.556	-231.5
3613.354	-226.5
3616.149	-254.5
3618.942	-258.5
3621.732	-266.5
3624.521	-298.5
3627.307	-296.5
3630.092	-307.5
3632.874	-327.5
3635.654	-333.5
3638.432	-341.5
3641.208	-366.5
3643.982	-370.5
3646.753	-374.5
3649.523	-392.5
3652.29	-401.5
3655.055	-409.5
3657.818	-415.5
3660.579	-428.5
3663.338	-457.5
3666.095	-445.5
3668.849	-464.5
3671.602	-470.5
3674.352	-474.5
3677.101	-486.5
3679.847	-501.5
3682.591	-504.5
3685.333	-511.5
3688.073	-510.5
3690.811	-523.5
3693.547	-525.5
3696.281	-533.5
3699.013	-536.5
3701.742	-541.5
3704.47	-550.5
3707.195	-560.5
3709.919	-557.5
3712.64	-565.5
3715.359	-568.5
3718.076	-572.5
3720.792	-570.5
3723.505	-568.5
3726.216	-589.5
3728.925	-581.5
3731.632	-591.5
3734.336	-591.5
3737.039	-593.5
3739.74	-600.5
3742.439	-592.5
3745.136	-594.5
3747.83	-604.5
3750.523	-603.5
3753.213	-613.5
3755.902	-607.5
3758.589	-609.5
3761.273	-617.5
3763.956	-618.5
3766.636	-614.5
3769.315	-626.5
3771.991	-628.5
3774.665	-627.5
3777.338	-626.5
3780.008	-631.5
3782.677	-631.5
3785.343	-626.5
3788.007	-632.5
3790.67	-629.5
3793.33	-636.5
3795.989	-636.5
3798.645	-627.5
3801.299	-631.5
3803.952	-646.5
3806.602	-640.5
3809.251	-646.5
3811.897	-643.5
3814.542	-644.5
3817.184	-639.5
3819.825	-641.5
3822.463	-639.5
3825.1	-650.5
3827.735	-643.5
3830.367	-645.5
3832.998	-657.5
3835.627	-657.5
3838.253	-652.5
3840.878	-655.5
3843.501	-656.5
3846.122	-654.5
3848.741	-655.5
3851.358	-656.5
3853.973	-655.5
3856.586	-661.5
3859.197	-654.5
3861.806	-661.5
3864.414	-660.5
3867.019	-656.5
3869.622	-656.5
3872.224	-649.5
3874.823	-639.5
3877.421	-613.5
3880.016	-605.5
3882.61	-581.5
3885.202	-577.5
3887.792	-591.5
3890.38	-620.5
3892.966	-641.5
3895.55	-651.5
3898.132	-669.5
3900.713	-672.5
3903.291	-667.5
3905.868	-670.5
3908.442	-668.5
3911.015	-673.5
3913.586	-669.5
3916.155	-670.5
3918.722	-677.5
3921.287	-669.5
3923.85	-674.5
3926.411	-677.5
3928.971	-682.5
3931.528	-676.5
3934.084	-677.5
3936.638	-671.5
3939.19	-675.5
3941.74	-677.5
3944.288	-681.5
3946.834	-669.5
3949.378	-672.5
3951.921	-679.5
3954.462	-679.5
3957	-671.5
3959.537	-669.5
3962.072	-672.5
3964.606	-675.5
3967.137	-678.5
3969.667	-679.5
3972.194	-666.5
3974.72	-673.5
3977.244	-664.5
3979.766	-665.5
3982.286	-665.5
3984.805	-668.5
3987.321	-662.5
3989.836	-657.5
3992.349	-657.5
3994.86	-655.5
3997.369	-665.5
3999.877	-657.5
4002.382	-658.5
4004.886	-653.5
4007.388	-653.5
4009.888	-656.5
4012.386	-663.5
4014.883	-658.5
4017.377	-658.5
4019.87	-653.5
4022.361	-657.5
4024.85	-661.5
4027.338	-661.5
4029.823	-664.5
4032.307	-657.5
4034.789	-659.5
4037.269	-658.5
4039.747	-663.5
4042.224	-666.5
4044.699	-663.5
4047.172	-659.5
4049.643	-658.5
4052.112	-668.5
4054.58	-669.5
4057.046	-663.5
4059.51	-661.5
4061.972	-663.5
4064.432	-667.5
4066.891	-667.5
4069.348	-657.5
4071.803	-656.5
4074.256	-660.5
4076.708	-661.5
4079.158	-658.5
4081.606	-664.5
4084.052	-666.5
4086.497	-663.5
4088.939	-652.5
4091.38	-654.5
4093.819	-655.5
4096.257	-694.5
4098.693	-699.5
4101.127	-700.5
4103.559	-697.5
4105.989	-390.5
4108.418	-378.5
4110.845	-350.5
4113.27	-325.5
4115.694	-282.5
4118.115	-238.5
4120.535	-662.5
4122.954	-660.5
4125.37	-653.5
4127.785	-663.5
4130.198	-665.5
4132.609	-667.5
4135.019	-701.5
4137.427	-701.5
4139.833	-700.5
4142.237	-697.5
