Data from 2018-2-14_conc=3_n=10_RamanShift_03.txt Node
Date: Wed Feb 14 12:13:26 IST 2018
User: aro
Spectrometer: QEPB0276
Trigger mode: 0
Integration Time (sec): 3.000000E1
Scans to average: 1
Electric dark correction enabled: true
Nonlinearity correction enabled: false
Boxcar width: 0
XAxis mode: Raman Shifts
Number of Pixels in Spectrum: 1044
>>>>>Begin Spectral Data<<<<<
160.701	-142.2
166.742	43.8
172.777	576.8
178.805	2182.8
184.826	6062.8
190.841	12719.8
196.849	20505.8
202.85	25965.8
208.845	27789.8
214.833	27461.8
220.815	26990.8
226.789	26670.8
232.758	26507.8
238.719	26385.8
244.674	25930.8
250.623	25521.8
256.565	24942.8
262.5	24411.8
268.429	23941.8
274.351	23562.8
280.267	23186.8
286.176	22877.8
292.079	22690.8
297.975	22428.8
303.865	22219.8
309.748	22058.8
315.625	21918.8
321.495	21750.8
327.359	21681.8
333.217	21602.8
339.068	21591.8
344.912	21561.8
350.751	21586.8
356.583	21511.8
362.408	21419.8
368.227	21439.8
374.04	21487.8
379.847	21562.8
385.647	21621.8
391.44	21631.8
397.228	21771.8
403.009	21865.8
408.784	21962.8
414.553	21989.8
420.315	22061.8
426.071	22101.8
431.821	22008.8
437.565	22016.8
443.302	21928.8
449.033	21908.8
454.758	21872.8
460.477	21825.8
466.189	21769.8
471.896	21730.8
477.596	21677.8
483.29	21629.8
488.978	21677.8
494.66	21530.8
500.335	21463.8
506.005	21188.8
511.668	20938.8
517.325	20737.8
522.977	20564.8
528.622	20386.8
534.261	20268.8
539.894	20197.8
545.521	20102.8
551.141	20017.8
556.756	20016.8
562.365	19849.8
567.968	19801.8
573.565	19742.8
579.155	19624.8
584.74	19537.8
590.319	19489.8
595.892	19407.8
601.459	19348.8
607.02	19233.8
612.575	19108.8
618.124	18999.8
623.667	18861.8
629.204	18812.8
634.735	18756.8
640.261	18639.8
645.781	18507.8
651.294	18530.8
656.802	18512.8
662.304	18453.8
667.8	18439.8
673.29	18486.8
678.775	18360.8
684.254	18367.8
689.726	18301.8
695.193	18199.8
700.655	18094.8
706.11	18019.8
711.56	17941.8
717.004	17892.8
722.442	17797.8
727.874	17680.8
733.301	17701.8
738.722	17603.8
744.137	17601.8
749.547	17562.8
754.951	17573.8
760.349	17552.8
765.741	17525.8
771.128	17548.8
776.509	17577.8
781.885	17546.8
787.254	17480.8
792.618	17413.8
797.977	17350.8
803.33	17196.8
808.677	17073.8
814.019	16989.8
819.355	16879.8
824.686	16881.8
830.011	16811.8
835.33	16841.8
840.644	16841.8
845.952	16836.8
851.255	16887.8
856.552	16908.8
861.844	16880.8
867.13	16864.8
872.41	16752.8
877.686	16730.8
882.955	16537.8
888.219	16378.8
893.478	16204.8
898.731	15984.8
903.979	15881.8
909.221	15745.8
914.458	15720.8
919.69	15640.8
924.916	15707.8
930.136	15777.8
935.351	15762.8
940.561	15775.8
945.766	15753.8
950.965	15684.8
956.158	15567.8
961.347	15366.8
966.529	15166.8
971.707	14979.8
976.879	14832.8
982.046	14706.8
987.208	14637.8
992.364	14679.8
997.515	14704.8
1002.66	14861.8
1007.801	14997.8
1012.936	15155.8
1018.066	15176.8
1023.19	15133.8
1028.309	15107.8
1033.423	15054.8
1038.532	15057.8
1043.636	14890.8
1048.734	14723.8
1053.827	14537.8
1058.915	14393.8
1063.998	14289.8
1069.075	14191.8
1074.147	14224.8
1079.214	14270.8
1084.276	14386.8
1089.333	14458.8
1094.385	14544.8
1099.431	14565.8
1104.472	14552.8
1109.509	14443.8
1114.54	14278.8
1119.565	14114.8
1124.586	13883.8
1129.602	13841.8
1134.613	13693.8
1139.618	13641.8
1144.619	13569.8
1149.614	13561.8
1154.604	13636.8
1159.589	13582.8
1164.57	13668.8
1169.545	13697.8
1174.515	13677.8
1179.48	13618.8
1184.44	13562.8
1189.395	13403.8
1194.345	13282.8
1199.29	13278.8
1204.23	13257.8
1209.165	13306.8
1214.095	13359.8
1219.021	13461.8
1223.941	13541.8
1228.856	13516.8
1233.766	13602.8
1238.672	13604.8
1243.572	13631.8
1248.467	13528.8
1253.358	13409.8
1258.244	13205.8
1263.124	13018.8
1268	12788.8
1272.871	12657.8
1277.737	12572.8
1282.599	12535.8
1287.455	12490.8
1292.306	12485.8
1297.153	12554.8
1301.995	12628.8
1306.832	12662.8
1311.664	12656.8
1316.491	12578.8
1321.314	12539.8
1326.132	12332.8
1330.945	12081.8
1335.753	11794.8
1340.556	11477.8
1345.354	11251.8
1350.148	11072.8
1354.937	11026.8
1359.722	11016.8
1364.501	11094.8
1369.276	11250.8
1374.046	11418.8
1378.811	11609.8
1383.572	11754.8
1388.327	11784.8
1393.079	11665.8
1397.825	11533.8
1402.567	11347.8
1407.304	11201.8
1412.036	11037.8
1416.764	10991.8
1421.487	10861.8
1426.205	10787.8
1430.919	10826.8
1435.628	10766.8
1440.333	10778.8
1445.032	10810.8
1449.727	10888.8
1454.418	10838.8
1459.104	10768.8
1463.785	10575.8
1468.462	10352.8
1473.134	10131.8
1477.802	9946.8
1482.465	9764.8
1487.123	9665.8
1491.777	9679.8
1496.426	9767.8
1501.071	9913.8
1505.711	10037.8
1510.347	10229.8
1514.978	10443.8
1519.604	10609.8
1524.226	10649.8
1528.844	10678.8
1533.457	10629.8
1538.065	10626.8
1542.669	10509.8
1547.269	10417.8
1551.864	10346.8
1556.454	10328.8
1561.041	10248.8
1565.622	10269.8
1570.199	10295.8
1574.772	10365.8
1579.34	10343.8
1583.904	10439.8
1588.464	10477.8
1593.019	10457.8
1597.569	10437.8
1602.115	10389.8
1606.657	10309.8
1611.195	10263.8
1615.728	10200.8
1620.256	10165.8
1624.78	10126.8
1629.3	10141.8
1633.816	10185.8
1638.327	10269.8
1642.834	10314.8
1647.336	10359.8
1651.834	10378.8
1656.328	10395.8
1660.817	10371.8
1665.302	10297.8
1669.783	10101.8
1674.259	9918.8
1678.732	9652.8
1683.199	9309.8
1687.663	8947.8
1692.122	8750.8
1696.577	8602.8
1701.028	8611.8
1705.474	8693.8
1709.917	8754.8
1714.355	8810.8
1718.788	8768.8
1723.218	8633.8
1727.643	8413.8
1732.064	8238.8
1736.481	8069.8
1740.893	7845.8
1745.301	7639.8
1749.705	7445.8
1754.105	7205.8
1758.501	7039.8
1762.893	6785.8
1767.28	6620.8
1771.663	6498.8
1776.042	6402.8
1780.417	6361.8
1784.787	6369.8
1789.154	6431.8
1793.516	6565.8
1797.874	6701.8
1802.228	6833.8
1806.578	6913.8
1810.924	6874.8
1815.266	6837.8
1819.603	6718.8
1823.937	6618.8
1828.266	6490.8
1832.591	6389.8
1836.913	6279.8
1841.23	6239.8
1845.543	6157.8
1849.852	6181.8
1854.156	6134.8
1858.457	6094.8
1862.754	6087.8
1867.047	6120.8
1871.335	6061.8
1875.62	6066.8
1879.9	6035.8
1884.177	6001.8
1888.449	5959.8
1892.718	5899.8
1896.982	5878.8
1901.243	5830.8
1905.499	5787.8
1909.752	5777.8
1914	5767.8
1918.245	5819.8
1922.485	5875.8
1926.722	5950.8
1930.954	6006.8
1935.183	6092.8
1939.408	6143.8
1943.628	6193.8
1947.845	6186.8
1952.058	6185.8
1956.267	6118.8
1960.472	6056.8
1964.673	5943.8
1968.87	5848.8
1973.063	5733.8
1977.252	5677.8
1981.438	5587.8
1985.619	5519.8
1989.797	5460.8
1993.971	5426.8
1998.14	5425.8
2002.306	5411.8
2006.469	5386.8
2010.627	5340.8
2014.781	5323.8
2018.932	5280.8
2023.078	5212.8
2027.221	5133.8
2031.36	5068.8
2035.495	5010.8
2039.627	4949.8
2043.754	4905.8
2047.878	4813.8
2051.998	4783.8
2056.114	4786.8
2060.226	4791.8
2064.334	4808.8
2068.439	4824.8
2072.54	4858.8
2076.637	4886.8
2080.73	4932.8
2084.82	4965.8
2088.906	4974.8
2092.988	4976.8
2097.066	4981.8
2101.14	4968.8
2105.211	4893.8
2109.278	4895.8
2113.342	4811.8
2117.401	4806.8
2121.457	4791.8
2125.509	4754.8
2129.558	4712.8
2133.602	4706.8
2137.643	4665.8
2141.681	4648.8
2145.714	4635.8
2149.744	4588.8
2153.77	4559.8
2157.793	4521.8
2161.812	4415.8
2165.827	4383.8
2169.838	4301.8
2173.846	4219.8
2177.851	4148.8
2181.851	4087.8
2185.848	4039.8
2189.841	3992.8
2193.831	3942.8
2197.817	3908.8
2201.799	3905.8
2205.778	3874.8
2209.753	3862.8
2213.725	3835.8
2217.693	3839.8
2221.657	3838.8
2225.618	3840.8
2229.575	3790.8
2233.529	3776.8
2237.479	3731.8
2241.425	3694.8
2245.368	3624.8
2249.307	3584.8
2253.243	3544.8
2257.175	3466.8
2261.104	3437.8
2265.029	3401.8
2268.95	3381.8
2272.868	3317.8
2276.783	3274.8
2280.694	3256.8
2284.601	3243.8
2288.505	3191.8
2292.405	3145.8
2296.302	3156.8
2300.195	3088.8
2304.085	3022.8
2307.971	3006.8
2311.854	2973.8
2315.734	2904.8
2319.609	2880.8
2323.482	2852.8
2327.351	2774.8
2331.216	2780.8
2335.078	2762.8
2338.937	2737.8
2342.792	2713.8
2346.643	2715.8
2350.492	2693.8
2354.336	2691.8
2358.178	2723.8
2362.015	2740.8
2365.85	2709.8
2369.681	2722.8
2373.508	2722.8
2377.333	2719.8
2381.153	2689.8
2384.971	2685.8
2388.785	2662.8
2392.595	2636.8
2396.402	2621.8
2400.206	2595.8
2404.007	2582.8
2407.804	2568.8
2411.597	2544.8
2415.388	2507.8
2419.174	2483.8
2422.958	2494.8
2426.738	2472.8
2430.515	2457.8
2434.289	2444.8
2438.059	2420.8
2441.825	2392.8
2445.589	2384.8
2449.349	2350.8
2453.106	2342.8
2456.859	2275.8
2460.61	2265.8
2464.356	2236.8
2468.1	2200.8
2471.84	2177.8
2475.577	2175.8
2479.311	2167.8
2483.041	2158.8
2486.768	2141.8
2490.492	2131.8
2494.213	2136.8
2497.93	2126.8
2501.644	2107.8
2505.355	2132.8
2509.062	2075.8
2512.766	2081.8
2516.467	2090.8
2520.165	2058.8
2523.859	2066.8
2527.551	2040.8
2531.239	2042.8
2534.923	2010.8
2538.605	2001.8
2542.283	2007.8
2545.958	2004.8
2549.63	2022.8
2553.299	1994.8
2556.964	2001.8
2560.626	1958.8
2564.285	1965.8
2567.941	1989.8
2571.594	1964.8
2575.243	1930.8
2578.89	1923.8
2582.533	1910.8
2586.173	1884.8
2589.809	1873.8
2593.443	1862.8
2597.073	1857.8
2600.701	1840.8
2604.325	1817.8
2607.946	1785.8
2611.564	1795.8
2615.178	1780.8
2618.79	1772.8
2622.398	1747.8
2626.004	1709.8
2629.606	1708.8
2633.205	1668.8
2636.801	1669.8
2640.394	1634.8
2643.983	1619.8
2647.57	1592.8
2651.153	1557.8
2654.734	1543.8
2658.311	1514.8
2661.885	1484.8
2665.456	1450.8
2669.025	1464.8
2672.589	1442.8
2676.151	1422.8
2679.71	1411.8
2683.266	1383.8
2686.819	1356.8
2690.368	1311.8
2693.915	1312.8
2697.458	1295.8
2700.999	1240.8
2704.536	1220.8
2708.071	1196.8
2711.602	1160.8
2715.13	1131.8
2718.656	1119.8
2722.178	1107.8
2725.697	1091.8
2729.214	1072.8
2732.727	1063.8
2736.237	1062.8
2739.744	1051.8
2743.249	1087.8
2746.75	1102.8
2750.248	1085.8
2753.743	1114.8
2757.236	1153.8
2760.725	1144.8
2764.211	1158.8
2767.695	1160.8
2771.175	1139.8
2774.652	1144.8
2778.127	1139.8
2781.598	1136.8
2785.067	1133.8
2788.532	1106.8
2791.995	1109.8
2795.455	1114.8
2798.911	1111.8
2802.365	1129.8
2805.816	1105.8
2809.264	1111.8
2812.709	1106.8
2816.151	1111.8
2819.59	1117.8
2823.026	1130.8
2826.46	1117.8
2829.89	1124.8
2833.318	1132.8
2836.742	1110.8
2840.164	1137.8
2843.583	1141.8
2846.999	1153.8
2850.412	1163.8
2853.822	1173.8
2857.229	1167.8
2860.634	1203.8
2864.035	1238.8
2867.434	1240.8
2870.83	1258.8
2874.223	1297.8
2877.613	1295.8
2881	1329.8
2884.385	1337.8
2887.766	1335.8
2891.145	1324.8
2894.521	1308.8
2897.894	1313.8
2901.264	1310.8
2904.631	1345.8
2907.996	1331.8
2911.358	1350.8
2914.717	1341.8
2918.073	1359.8
2921.426	1370.8
2924.777	1390.8
2928.124	1400.8
2931.469	1435.8
2934.811	1453.8
2938.15	1476.8
2941.487	1455.8
2944.821	1485.8
2948.152	1484.8
2951.48	1486.8
2954.805	1462.8
2958.128	1466.8
2961.447	1448.8
2964.765	1449.8
2968.079	1471.8
2971.39	1462.8
2974.699	1481.8
2978.005	1515.8
2981.308	1568.8
2984.609	1580.8
2987.907	1588.8
2991.202	1635.8
2994.494	1675.8
2997.784	1687.8
3001.07	1717.8
3004.355	1741.8
3007.636	1786.8
3010.915	1801.8
3014.191	1826.8
3017.464	1833.8
3020.734	1861.8
3024.002	1831.8
3027.267	1861.8
3030.53	1890.8
3033.789	1905.8
3037.046	1883.8
3040.301	1942.8
3043.552	1985.8
3046.801	2008.8
3050.048	2051.8
3053.291	2115.8
3056.532	2155.8
3059.771	2227.8
3063.006	2315.8
3066.239	2344.8
3069.469	2422.8
3072.697	2484.8
3075.922	2569.8
3079.144	2624.8
3082.364	2665.8
3085.581	2744.8
3088.795	2769.8
3092.007	2850.8
3095.216	2910.8
3098.423	2960.8
3101.627	3055.8
3104.828	3102.8
3108.026	3153.8
3111.222	3229.8
3114.416	3307.8
3117.607	3375.8
3120.795	3484.8
3123.98	3542.8
3127.163	3650.8
3130.344	3747.8
3133.521	3837.8
3136.696	3898.8
3139.869	3956.8
3143.039	4042.8
3146.206	4093.8
3149.371	4142.8
3152.533	4210.8
3155.693	4229.8
3158.85	4265.8
3162.005	4246.8
3165.157	4257.8
3168.306	4295.8
3171.453	4248.8
3174.597	4292.8
3177.739	4297.8
3180.878	4324.8
3184.014	4313.8
3187.149	4309.8
3190.28	4319.8
3193.409	4350.8
3196.536	4345.8
3199.659	4332.8
3202.781	4359.8
3205.9	4342.8
3209.016	4370.8
3212.13	4291.8
3215.241	4311.8
3218.35	4284.8
3221.456	4221.8
3224.56	4187.8
3227.661	4158.8
3230.76	4078.8
3233.856	4087.8
3236.95	4031.8
3240.041	3979.8
3243.13	3955.8
3246.216	3970.8
3249.3	3936.8
3252.382	3908.8
3255.46	3892.8
3258.537	3882.8
3261.611	3888.8
3264.682	3896.8
3267.751	3888.8
3270.818	3905.8
3273.882	3841.8
3276.943	3842.8
3280.002	3793.8
3283.059	3778.8
3286.113	3734.8
3289.165	3690.8
3292.214	3611.8
3295.261	3593.8
3298.306	3502.8
3301.348	3455.8
3304.387	3399.8
3307.425	3321.8
3310.459	3285.8
3313.492	3224.8
3316.521	3176.8
3319.549	3142.8
3322.574	3114.8
3325.597	3104.8
3328.617	3083.8
3331.635	3034.8
3334.65	3014.8
3337.663	3009.8
3340.674	2996.8
3343.682	2987.8
3346.688	2988.8
3349.691	2968.8
3352.692	2953.8
3355.691	2928.8
3358.687	2903.8
3361.681	2847.8
3364.673	2808.8
3367.662	2773.8
3370.649	2733.8
3373.633	2704.8
3376.615	2658.8
3379.595	2625.8
3382.572	2599.8
3385.547	2571.8
3388.52	2520.8
3391.49	2486.8
3394.458	2454.8
3397.424	2411.8
3400.387	2371.8
3403.348	2376.8
3406.307	2325.8
3409.263	2311.8
3412.217	2266.8
3415.168	2241.8
3418.118	2233.8
3421.065	2203.8
3424.009	2175.8
3426.951	2143.8
3429.891	2119.8
3432.829	2024.8
3435.764	2010.8
3438.697	1956.8
3441.628	1892.8
3444.557	1864.8
3447.483	1810.8
3450.407	1750.8
3453.328	1701.8
3456.247	1636.8
3459.164	1586.8
3462.079	1538.8
3464.991	1476.8
3467.902	1411.8
3470.809	1369.8
3473.715	1332.8
3476.618	1275.8
3479.519	1214.8
3482.418	1192.8
3485.315	1160.8
3488.209	1102.8
3491.101	1084.8
3493.99	1023.8
3496.878	1002.8
3499.763	961.8
3502.646	946.8
3505.527	891.8
3508.405	863.8
3511.281	825.8
3514.155	760.8
3517.027	725.8
3519.897	689.8
3522.764	640.8
3525.629	599.8
3528.492	534.8
3531.352	485.8
3534.211	466.8
3537.067	412.8
3539.921	369.8
3542.773	336.8
3545.622	295.8
3548.469	283.8
3551.315	246.8
3554.157	215.8
3556.998	182.8
3559.837	167.8
3562.673	145.8
3565.507	109.8
3568.339	86.8
3571.169	85.8
3573.996	49.8
3576.822	24.8
3579.645	-1.2
3582.466	-12.2
3585.285	-42.2
3588.101	-50.2
3590.916	-84.2
3593.728	-110.2
3596.538	-123.2
3599.346	-146.2
3602.152	-159.2
3604.956	-168.2
3607.757	-198.2
3610.556	-209.2
3613.354	-222.2
3616.149	-238.2
3618.942	-248.2
3621.732	-269.2
3624.521	-283.2
3627.307	-288.2
3630.092	-295.2
3632.874	-310.2
3635.654	-318.2
3638.432	-326.2
3641.208	-339.2
3643.982	-350.2
3646.753	-354.2
3649.523	-365.2
3652.29	-375.2
3655.055	-387.2
3657.818	-400.2
3660.579	-408.2
3663.338	-431.2
3666.095	-432.2
3668.849	-446.2
3671.602	-456.2
3674.352	-458.2
3677.101	-464.2
3679.847	-482.2
3682.591	-482.2
3685.333	-485.2
3688.073	-485.2
3690.811	-499.2
3693.547	-495.2
3696.281	-506.2
3699.013	-508.2
3701.742	-520.2
3704.47	-521.2
3707.195	-527.2
3709.919	-533.2
3712.64	-535.2
3715.359	-538.2
3718.076	-546.2
3720.792	-546.2
3723.505	-547.2
3726.216	-557.2
3728.925	-552.2
3731.632	-564.2
3734.336	-563.2
3737.039	-567.2
3739.74	-562.2
3742.439	-568.2
3745.136	-570.2
3747.83	-575.2
3750.523	-573.2
3753.213	-555.2
3755.902	-581.2
3758.589	-580.2
3761.273	-584.2
3763.956	-587.2
3766.636	-589.2
3769.315	-591.2
3771.991	-591.2
3774.665	-600.2
3777.338	-599.2
3780.008	-605.2
3782.677	-600.2
3785.343	-595.2
3788.007	-600.2
3790.67	-605.2
3793.33	-609.2
3795.989	-607.2
3798.645	-603.2
3801.299	-603.2
3803.952	-611.2
3806.602	-617.2
3809.251	-613.2
3811.897	-613.2
3814.542	-611.2
3817.184	-614.2
3819.825	-607.2
3822.463	-610.2
3825.1	-621.2
3827.735	-617.2
3830.367	-621.2
3832.998	-628.2
3835.627	-626.2
3838.253	-621.2
3840.878	-633.2
3843.501	-626.2
3846.122	-619.2
3848.741	-622.2
3851.358	-625.2
3853.973	-623.2
3856.586	-621.2
3859.197	-629.2
3861.806	-629.2
3864.414	-629.2
3867.019	-612.2
3869.622	-624.2
3872.224	-618.2
3874.823	-612.2
3877.421	-598.2
3880.016	-577.2
3882.61	-565.2
3885.202	-564.2
3887.792	-575.2
3890.38	-602.2
3892.966	-618.2
3895.55	-631.2
3898.132	-642.2
3900.713	-645.2
3903.291	-640.2
3905.868	-639.2
3908.442	-642.2
3911.015	-642.2
3913.586	-634.2
3916.155	-637.2
3918.722	-644.2
3921.287	-636.2
3923.85	-642.2
3926.411	-641.2
3928.971	-651.2
3931.528	-647.2
3934.084	-643.2
3936.638	-644.2
3939.19	-643.2
3941.74	-638.2
3944.288	-645.2
3946.834	-642.2
3949.378	-646.2
3951.921	-641.2
3954.462	-647.2
3957	-642.2
3959.537	-643.2
3962.072	-645.2
3964.606	-641.2
3967.137	-638.2
3969.667	-643.2
3972.194	-639.2
3974.72	-640.2
3977.244	-631.2
3979.766	-627.2
3982.286	-636.2
3984.805	-634.2
3987.321	-630.2
3989.836	-637.2
3992.349	-628.2
3994.86	-626.2
3997.369	-636.2
3999.877	-628.2
4002.382	-623.2
4004.886	-629.2
4007.388	-630.2
4009.888	-629.2
4012.386	-625.2
4014.883	-624.2
4017.377	-630.2
4019.87	-622.2
4022.361	-627.2
4024.85	-632.2
4027.338	-633.2
4029.823	-633.2
4032.307	-632.2
4034.789	-632.2
4037.269	-624.2
4039.747	-635.2
4042.224	-634.2
4044.699	-639.2
4047.172	-627.2
4049.643	-631.2
4052.112	-635.2
4054.58	-634.2
4057.046	-638.2
4059.51	-637.2
4061.972	-634.2
4064.432	-637.2
4066.891	-629.2
4069.348	-634.2
4071.803	-626.2
4074.256	-634.2
4076.708	-632.2
4079.158	-636.2
4081.606	-635.2
4084.052	-643.2
4086.497	-637.2
4088.939	-630.2
4091.38	-637.2
4093.819	-627.2
4096.257	-665.2
4098.693	-668.2
4101.127	-668.2
4103.559	-663.2
4105.989	-392.2
4108.418	-369.2
4110.845	-333.2
4113.27	-309.2
4115.694	-279.2
4118.115	-220.2
4120.535	-634.2
4122.954	-628.2
4125.37	-627.2
4127.785	-628.2
4130.198	-635.2
4132.609	-635.2
4135.019	-665.2
4137.427	-669.2
4139.833	-665.2
4142.237	-661.2
