Data from 2018-2-14_conc=4_n=5_RamanShift_04.txt Node
Date: Wed Feb 14 13:41:55 IST 2018
User: aro
Spectrometer: QEPB0276
Trigger mode: 0
Integration Time (sec): 3.000000E1
Scans to average: 1
Electric dark correction enabled: true
Nonlinearity correction enabled: false
Boxcar width: 0
XAxis mode: Raman Shifts
Number of Pixels in Spectrum: 1044
>>>>>Begin Spectral Data<<<<<
160.701	-138.5
166.742	48.5
172.777	585.5
178.805	2284.5
184.826	6363.5
190.841	13317.5
196.849	21294.5
202.85	26962.5
208.845	28773.5
214.833	28395.5
220.815	27929.5
226.789	27748.5
232.758	27613.5
238.719	27438.5
244.674	26953.5
250.623	26511.5
256.565	25936.5
262.5	25369.5
268.429	24908.5
274.351	24535.5
280.267	24157.5
286.176	23928.5
292.079	23745.5
297.975	23458.5
303.865	23271.5
309.748	23064.5
315.625	22876.5
321.495	22732.5
327.359	22673.5
333.217	22669.5
339.068	22575.5
344.912	22605.5
350.751	22607.5
356.583	22536.5
362.408	22589.5
368.227	22506.5
374.04	22563.5
379.847	22625.5
385.647	22690.5
391.44	22741.5
397.228	22888.5
403.009	22953.5
408.784	23004.5
414.553	23101.5
420.315	23163.5
426.071	23211.5
431.821	23122.5
437.565	23192.5
443.302	23122.5
449.033	23081.5
454.758	22983.5
460.477	22927.5
466.189	22913.5
471.896	22882.5
477.596	22878.5
483.29	22795.5
488.978	22735.5
494.66	22643.5
500.335	22474.5
506.005	22272.5
511.668	21984.5
517.325	21720.5
522.977	21576.5
528.622	21386.5
534.261	21173.5
539.894	21165.5
545.521	20953.5
551.141	20889.5
556.756	20910.5
562.365	20772.5
567.968	20698.5
573.565	20597.5
579.155	20511.5
584.74	20424.5
590.319	20397.5
595.892	20307.5
601.459	20234.5
607.02	20151.5
612.575	19985.5
618.124	19904.5
623.667	19799.5
629.204	19689.5
634.735	19546.5
640.261	19524.5
645.781	19458.5
651.294	19423.5
656.802	19421.5
662.304	19306.5
667.8	19335.5
673.29	19290.5
678.775	19169.5
684.254	19186.5
689.726	19161.5
695.193	19079.5
700.655	18936.5
706.11	18849.5
711.56	18741.5
717.004	18620.5
722.442	18615.5
727.874	18512.5
733.301	18477.5
738.722	18461.5
744.137	18395.5
749.547	18395.5
754.951	18342.5
760.349	18400.5
765.741	18376.5
771.128	18396.5
776.509	18434.5
781.885	18432.5
787.254	18366.5
792.618	18288.5
797.977	18200.5
803.33	18084.5
808.677	17919.5
814.019	17836.5
819.355	17780.5
824.686	17703.5
830.011	17672.5
835.33	17680.5
840.644	17691.5
845.952	17617.5
851.255	17689.5
856.552	17735.5
861.844	17693.5
867.13	17634.5
872.41	17603.5
877.686	17483.5
882.955	17419.5
888.219	17180.5
893.478	17055.5
898.731	16788.5
903.979	16618.5
909.221	16524.5
914.458	16448.5
919.69	16495.5
924.916	16514.5
930.136	16592.5
935.351	16560.5
940.561	16543.5
945.766	16535.5
950.965	16438.5
956.158	16334.5
961.347	16163.5
966.529	15995.5
971.707	15748.5
976.879	15585.5
982.046	15426.5
987.208	15421.5
992.364	15375.5
997.515	15486.5
1002.66	15571.5
1007.801	15774.5
1012.936	15919.5
1018.066	15902.5
1023.19	15892.5
1028.309	15899.5
1033.423	15848.5
1038.532	15799.5
1043.636	15690.5
1048.734	15515.5
1053.827	15289.5
1058.915	15105.5
1063.998	15036.5
1069.075	14994.5
1074.147	15024.5
1079.214	15046.5
1084.276	15114.5
1089.333	15217.5
1094.385	15309.5
1099.431	15339.5
1104.472	15301.5
1109.509	15253.5
1114.54	15034.5
1119.565	14867.5
1124.586	14686.5
1129.602	14561.5
1134.613	14430.5
1139.618	14323.5
1144.619	14348.5
1149.614	14299.5
1154.604	14333.5
1159.589	14359.5
1164.57	14426.5
1169.545	14437.5
1174.515	14438.5
1179.48	14338.5
1184.44	14243.5
1189.395	14148.5
1194.345	14065.5
1199.29	14006.5
1204.23	14011.5
1209.165	14067.5
1214.095	14079.5
1219.021	14225.5
1223.941	14255.5
1228.856	14330.5
1233.766	14375.5
1238.672	14391.5
1243.572	14383.5
1248.467	14251.5
1253.358	14139.5
1258.244	13952.5
1263.124	13762.5
1268	13551.5
1272.871	13350.5
1277.737	13283.5
1282.599	13140.5
1287.455	13175.5
1292.306	13234.5
1297.153	13226.5
1301.995	13349.5
1306.832	13393.5
1311.664	13400.5
1316.491	13398.5
1321.314	13273.5
1326.132	13124.5
1330.945	12791.5
1335.753	12508.5
1340.556	12184.5
1345.354	11933.5
1350.148	11748.5
1354.937	11584.5
1359.722	11602.5
1364.501	11618.5
1369.276	11708.5
1374.046	11858.5
1378.811	12052.5
1383.572	12268.5
1388.327	12319.5
1393.079	12268.5
1397.825	12128.5
1402.567	11912.5
1407.304	11783.5
1412.036	11602.5
1416.764	11562.5
1421.487	11498.5
1426.205	11469.5
1430.919	11366.5
1435.628	11386.5
1440.333	11425.5
1445.032	11457.5
1449.727	11519.5
1454.418	11459.5
1459.104	11351.5
1463.785	11144.5
1468.462	10950.5
1473.134	10737.5
1477.802	10470.5
1482.465	10325.5
1487.123	10166.5
1491.777	10104.5
1496.426	10133.5
1501.071	10277.5
1505.711	10370.5
1510.347	10604.5
1514.978	10802.5
1519.604	10897.5
1524.226	10994.5
1528.844	11080.5
1533.457	11040.5
1538.065	11017.5
1542.669	10950.5
1547.269	10888.5
1551.864	10793.5
1556.454	10768.5
1561.041	10708.5
1565.622	10700.5
1570.199	10804.5
1574.772	10839.5
1579.34	10892.5
1583.904	10969.5
1588.464	10981.5
1593.019	10956.5
1597.569	10961.5
1602.115	10922.5
1606.657	10826.5
1611.195	10759.5
1615.728	10698.5
1620.256	10641.5
1624.78	10664.5
1629.3	10668.5
1633.816	10711.5
1638.327	10760.5
1642.834	10819.5
1647.336	10882.5
1651.834	10899.5
1656.328	10899.5
1660.817	10774.5
1665.302	10687.5
1669.783	10480.5
1674.259	10296.5
1678.732	10007.5
1683.199	9635.5
1687.663	9327.5
1692.122	9026.5
1696.577	8874.5
1701.028	8797.5
1705.474	8836.5
1709.917	9004.5
1714.355	8972.5
1718.788	8939.5
1723.218	8816.5
1727.643	8655.5
1732.064	8515.5
1736.481	8307.5
1740.893	8106.5
1745.301	7856.5
1749.705	7686.5
1754.105	7503.5
1758.501	7319.5
1762.893	7081.5
1767.28	6927.5
1771.663	6753.5
1776.042	6642.5
1780.417	6581.5
1784.787	6547.5
1789.154	6648.5
1793.516	6737.5
1797.874	6838.5
1802.228	6945.5
1806.578	7011.5
1810.924	7020.5
1815.266	6944.5
1819.603	6916.5
1823.937	6779.5
1828.266	6660.5
1832.591	6588.5
1836.913	6469.5
1841.23	6424.5
1845.543	6348.5
1849.852	6330.5
1854.156	6332.5
1858.457	6323.5
1862.754	6293.5
1867.047	6303.5
1871.335	6287.5
1875.62	6271.5
1879.9	6241.5
1884.177	6217.5
1888.449	6145.5
1892.718	6066.5
1896.982	6048.5
1901.243	5973.5
1905.499	5905.5
1909.752	5900.5
1914	5880.5
1918.245	5904.5
1922.485	5960.5
1926.722	6036.5
1930.954	6087.5
1935.183	6141.5
1939.408	6209.5
1943.628	6234.5
1947.845	6229.5
1952.058	6265.5
1956.267	6193.5
1960.472	6136.5
1964.673	6028.5
1968.87	5935.5
1973.063	5847.5
1977.252	5762.5
1981.438	5723.5
1985.619	5687.5
1989.797	5620.5
1993.971	5579.5
1998.14	5541.5
2002.306	5528.5
2006.469	5548.5
2010.627	5501.5
2014.781	5479.5
2018.932	5422.5
2023.078	5396.5
2027.221	5294.5
2031.36	5227.5
2035.495	5175.5
2039.627	5061.5
2043.754	5022.5
2047.878	4949.5
2051.998	4910.5
2056.114	4915.5
2060.226	4916.5
2064.334	4866.5
2068.439	4911.5
2072.54	4946.5
2076.637	4973.5
2080.73	5014.5
2084.82	5019.5
2088.906	5070.5
2092.988	5060.5
2097.066	5028.5
2101.14	5000.5
2105.211	5011.5
2109.278	4953.5
2113.342	4900.5
2117.401	4873.5
2121.457	4850.5
2125.509	4850.5
2129.558	4831.5
2133.602	4788.5
2137.643	4764.5
2141.681	4743.5
2145.714	4728.5
2149.744	4706.5
2153.77	4637.5
2157.793	4609.5
2161.812	4551.5
2165.827	4505.5
2169.838	4428.5
2173.846	4346.5
2177.851	4280.5
2181.851	4219.5
2185.848	4152.5
2189.841	4121.5
2193.831	4102.5
2197.817	4054.5
2201.799	4011.5
2205.778	3987.5
2209.753	3976.5
2213.725	3980.5
2217.693	3974.5
2221.657	3969.5
2225.618	3950.5
2229.575	3914.5
2233.529	3871.5
2237.479	3844.5
2241.425	3800.5
2245.368	3755.5
2249.307	3683.5
2253.243	3673.5
2257.175	3601.5
2261.104	3550.5
2265.029	3540.5
2268.95	3496.5
2272.868	3444.5
2276.783	3409.5
2280.694	3343.5
2284.601	3348.5
2288.505	3307.5
2292.405	3253.5
2296.302	3258.5
2300.195	3197.5
2304.085	3174.5
2307.971	3139.5
2311.854	3076.5
2315.734	3046.5
2319.609	2991.5
2323.482	2959.5
2327.351	2936.5
2331.216	2878.5
2335.078	2897.5
2338.937	2860.5
2342.792	2849.5
2346.643	2825.5
2350.492	2841.5
2354.336	2823.5
2358.178	2838.5
2362.015	2827.5
2365.85	2866.5
2369.681	2860.5
2373.508	2882.5
2377.333	2864.5
2381.153	2849.5
2384.971	2833.5
2388.785	2812.5
2392.595	2794.5
2396.402	2772.5
2400.206	2748.5
2404.007	2721.5
2407.804	2712.5
2411.597	2688.5
2415.388	2682.5
2419.174	2650.5
2422.958	2655.5
2426.738	2619.5
2430.515	2598.5
2434.289	2595.5
2438.059	2561.5
2441.825	2560.5
2445.589	2491.5
2449.349	2490.5
2453.106	2476.5
2456.859	2431.5
2460.61	2376.5
2464.356	2372.5
2468.1	2339.5
2471.84	2328.5
2475.577	2302.5
2479.311	2270.5
2483.041	2280.5
2486.768	2272.5
2490.492	2249.5
2494.213	2262.5
2497.93	2247.5
2501.644	2225.5
2505.355	2177.5
2509.062	2202.5
2512.766	2183.5
2516.467	2179.5
2520.165	2145.5
2523.859	2154.5
2527.551	2125.5
2531.239	2110.5
2534.923	2115.5
2538.605	2101.5
2542.283	2089.5
2545.958	2088.5
2549.63	2061.5
2553.299	2068.5
2556.964	2058.5
2560.626	2042.5
2564.285	2045.5
2567.941	2029.5
2571.594	2047.5
2575.243	2010.5
2578.89	1989.5
2582.533	1991.5
2586.173	1953.5
2589.809	1959.5
2593.443	1932.5
2597.073	1916.5
2600.701	1902.5
2604.325	1902.5
2607.946	1882.5
2611.564	1872.5
2615.178	1852.5
2618.79	1856.5
2622.398	1840.5
2626.004	1824.5
2629.606	1801.5
2633.205	1780.5
2636.801	1737.5
2640.394	1748.5
2643.983	1688.5
2647.57	1666.5
2651.153	1648.5
2654.734	1616.5
2658.311	1608.5
2661.885	1582.5
2665.456	1550.5
2669.025	1533.5
2672.589	1515.5
2676.151	1500.5
2679.71	1487.5
2683.266	1479.5
2686.819	1436.5
2690.368	1413.5
2693.915	1381.5
2697.458	1353.5
2700.999	1324.5
2704.536	1280.5
2708.071	1260.5
2711.602	1244.5
2715.13	1220.5
2718.656	1194.5
2722.178	1162.5
2725.697	1160.5
2729.214	1129.5
2732.727	1143.5
2736.237	1126.5
2739.744	1114.5
2743.249	1125.5
2746.75	1130.5
2750.248	1124.5
2753.743	1143.5
2757.236	1155.5
2760.725	1171.5
2764.211	1161.5
2767.695	1182.5
2771.175	1189.5
2774.652	1172.5
2778.127	1148.5
2781.598	1166.5
2785.067	1159.5
2788.532	1145.5
2791.995	1154.5
2795.455	1150.5
2798.911	1154.5
2802.365	1159.5
2805.816	1164.5
2809.264	1151.5
2812.709	1134.5
2816.151	1127.5
2819.59	1138.5
2823.026	1144.5
2826.46	1152.5
2829.89	1156.5
2833.318	1156.5
2836.742	1152.5
2840.164	1161.5
2843.583	1178.5
2846.999	1165.5
2850.412	1199.5
2853.822	1200.5
2857.229	1216.5
2860.634	1246.5
2864.035	1268.5
2867.434	1297.5
2870.83	1310.5
2874.223	1307.5
2877.613	1348.5
2881	1351.5
2884.385	1387.5
2887.766	1368.5
2891.145	1355.5
2894.521	1373.5
2897.894	1369.5
2901.264	1371.5
2904.631	1371.5
2907.996	1358.5
2911.358	1368.5
2914.717	1376.5
2918.073	1395.5
2921.426	1415.5
2924.777	1412.5
2928.124	1449.5
2931.469	1445.5
2934.811	1472.5
2938.15	1523.5
2941.487	1533.5
2944.821	1546.5
2948.152	1538.5
2951.48	1525.5
2954.805	1521.5
2958.128	1506.5
2961.447	1484.5
2964.765	1486.5
2968.079	1473.5
2971.39	1498.5
2974.699	1508.5
2978.005	1558.5
2981.308	1553.5
2984.609	1596.5
2987.907	1629.5
2991.202	1638.5
2994.494	1684.5
2997.784	1738.5
3001.07	1746.5
3004.355	1777.5
3007.636	1790.5
3010.915	1820.5
3014.191	1833.5
3017.464	1832.5
3020.734	1848.5
3024.002	1866.5
3027.267	1872.5
3030.53	1903.5
3033.789	1927.5
3037.046	1939.5
3040.301	1964.5
3043.552	1997.5
3046.801	2039.5
3050.048	2092.5
3053.291	2128.5
3056.532	2196.5
3059.771	2248.5
3063.006	2289.5
3066.239	2391.5
3069.469	2463.5
3072.697	2505.5
3075.922	2592.5
3079.144	2622.5
3082.364	2696.5
3085.581	2748.5
3088.795	2820.5
3092.007	2850.5
3095.216	2916.5
3098.423	2987.5
3101.627	3073.5
3104.828	3113.5
3108.026	3170.5
3111.222	3234.5
3114.416	3349.5
3117.607	3402.5
3120.795	3474.5
3123.98	3547.5
3127.163	3661.5
3130.344	3736.5
3133.521	3817.5
3136.696	3875.5
3139.869	3983.5
3143.039	4061.5
3146.206	4115.5
3149.371	4130.5
3152.533	4194.5
3155.693	4220.5
3158.85	4244.5
3162.005	4262.5
3165.157	4250.5
3168.306	4275.5
3171.453	4290.5
3174.597	4313.5
3177.739	4322.5
3180.878	4303.5
3184.014	4323.5
3187.149	4341.5
3190.28	4346.5
3193.409	4361.5
3196.536	4356.5
3199.659	4338.5
3202.781	4383.5
3205.9	4356.5
3209.016	4355.5
3212.13	4352.5
3215.241	4327.5
3218.35	4319.5
3221.456	4238.5
3224.56	4234.5
3227.661	4171.5
3230.76	4123.5
3233.856	4076.5
3236.95	4060.5
3240.041	4037.5
3243.13	3966.5
3246.216	3975.5
3249.3	3931.5
3252.382	3933.5
3255.46	3929.5
3258.537	3861.5
3261.611	3893.5
3264.682	3924.5
3267.751	3901.5
3270.818	3921.5
3273.882	3886.5
3276.943	3854.5
3280.002	3831.5
3283.059	3787.5
3286.113	3765.5
3289.165	3700.5
3292.214	3636.5
3295.261	3570.5
3298.306	3527.5
3301.348	3480.5
3304.387	3408.5
3307.425	3362.5
3310.459	3311.5
3313.492	3266.5
3316.521	3196.5
3319.549	3175.5
3322.574	3147.5
3325.597	3113.5
3328.617	3096.5
3331.635	3088.5
3334.65	3054.5
3337.663	3066.5
3340.674	3018.5
3343.682	3005.5
3346.688	2999.5
3349.691	2993.5
3352.692	2958.5
3355.691	2952.5
3358.687	2910.5
3361.681	2877.5
3364.673	2847.5
3367.662	2795.5
3370.649	2766.5
3373.633	2729.5
3376.615	2688.5
3379.595	2641.5
3382.572	2596.5
3385.547	2561.5
3388.52	2537.5
3391.49	2518.5
3394.458	2447.5
3397.424	2436.5
3400.387	2388.5
3403.348	2373.5
3406.307	2354.5
3409.263	2315.5
3412.217	2287.5
3415.168	2259.5
3418.118	2240.5
3421.065	2208.5
3424.009	2198.5
3426.951	2135.5
3429.891	2092.5
3432.829	2058.5
3435.764	1998.5
3438.697	1972.5
3441.628	1889.5
3444.557	1861.5
3447.483	1803.5
3450.407	1758.5
3453.328	1692.5
3456.247	1640.5
3459.164	1559.5
3462.079	1517.5
3464.991	1480.5
3467.902	1406.5
3470.809	1363.5
3473.715	1320.5
3476.618	1283.5
3479.519	1228.5
3482.418	1199.5
3485.315	1162.5
3488.209	1110.5
3491.101	1083.5
3493.99	1045.5
3496.878	993.5
3499.763	960.5
3502.646	920.5
3505.527	889.5
3508.405	843.5
3511.281	782.5
3514.155	762.5
3517.027	725.5
3519.897	682.5
3522.764	625.5
3525.629	579.5
3528.492	524.5
3531.352	492.5
3534.211	459.5
3537.067	429.5
3539.921	378.5
3542.773	337.5
3545.622	307.5
3548.469	260.5
3551.315	244.5
3554.157	215.5
3556.998	171.5
3559.837	166.5
3562.673	128.5
3565.507	95.5
3568.339	80.5
3571.169	50.5
3573.996	37.5
3576.822	12.5
3579.645	-15.5
3582.466	-33.5
3585.285	-44.5
3588.101	-68.5
3590.916	-93.5
3593.728	-115.5
3596.538	-123.5
3599.346	-155.5
3602.152	-162.5
3604.956	-188.5
3607.757	-202.5
3610.556	-216.5
3613.354	-241.5
3616.149	-253.5
3618.942	-273.5
3621.732	-269.5
3624.521	-307.5
3627.307	-304.5
3630.092	-310.5
3632.874	-321.5
3635.654	-331.5
3638.432	-345.5
3641.208	-352.5
3643.982	-367.5
3646.753	-359.5
3649.523	-385.5
3652.29	-392.5
3655.055	-403.5
3657.818	-417.5
3660.579	-426.5
3663.338	-443.5
3666.095	-448.5
3668.849	-460.5
3671.602	-465.5
3674.352	-475.5
3677.101	-475.5
3679.847	-501.5
3682.591	-501.5
3685.333	-507.5
3688.073	-505.5
3690.811	-517.5
3693.547	-521.5
3696.281	-524.5
3699.013	-529.5
3701.742	-536.5
3704.47	-542.5
3707.195	-552.5
3709.919	-547.5
3712.64	-561.5
3715.359	-554.5
3718.076	-568.5
3720.792	-567.5
3723.505	-567.5
3726.216	-576.5
3728.925	-577.5
3731.632	-577.5
3734.336	-584.5
3737.039	-591.5
3739.74	-588.5
3742.439	-588.5
3745.136	-591.5
3747.83	-602.5
3750.523	-597.5
3753.213	-580.5
3755.902	-608.5
3758.589	-605.5
3761.273	-605.5
3763.956	-606.5
3766.636	-616.5
3769.315	-617.5
3771.991	-612.5
3774.665	-623.5
3777.338	-623.5
3780.008	-625.5
3782.677	-621.5
3785.343	-622.5
3788.007	-621.5
3790.67	-625.5
3793.33	-629.5
3795.989	-635.5
3798.645	-629.5
3801.299	-630.5
3803.952	-633.5
3806.602	-640.5
3809.251	-640.5
3811.897	-636.5
3814.542	-638.5
3817.184	-639.5
3819.825	-633.5
3822.463	-636.5
3825.1	-640.5
3827.735	-634.5
3830.367	-639.5
3832.998	-642.5
3835.627	-647.5
3838.253	-641.5
3840.878	-650.5
3843.501	-647.5
3846.122	-647.5
3848.741	-647.5
3851.358	-646.5
3853.973	-643.5
3856.586	-653.5
3859.197	-650.5
3861.806	-656.5
3864.414	-649.5
3867.019	-650.5
3869.622	-649.5
3872.224	-648.5
3874.823	-637.5
3877.421	-613.5
3880.016	-597.5
3882.61	-589.5
3885.202	-589.5
3887.792	-596.5
3890.38	-628.5
3892.966	-643.5
3895.55	-651.5
3898.132	-665.5
3900.713	-670.5
3903.291	-662.5
3905.868	-666.5
3908.442	-664.5
3911.015	-666.5
3913.586	-662.5
3916.155	-656.5
3918.722	-668.5
3921.287	-666.5
3923.85	-671.5
3926.411	-664.5
3928.971	-677.5
3931.528	-669.5
3934.084	-669.5
3936.638	-672.5
3939.19	-675.5
3941.74	-667.5
3944.288	-674.5
3946.834	-671.5
3949.378	-671.5
3951.921	-668.5
3954.462	-677.5
3957	-664.5
3959.537	-663.5
3962.072	-670.5
3964.606	-664.5
3967.137	-663.5
3969.667	-672.5
3972.194	-659.5
3974.72	-666.5
3977.244	-656.5
3979.766	-656.5
3982.286	-657.5
3984.805	-658.5
3987.321	-656.5
3989.836	-657.5
3992.349	-656.5
3994.86	-652.5
3997.369	-662.5
3999.877	-649.5
4002.382	-654.5
4004.886	-652.5
4007.388	-649.5
4009.888	-652.5
4012.386	-656.5
4014.883	-652.5
4017.377	-653.5
4019.87	-653.5
4022.361	-650.5
4024.85	-654.5
4027.338	-654.5
4029.823	-655.5
4032.307	-659.5
4034.789	-652.5
4037.269	-651.5
4039.747	-654.5
4042.224	-661.5
4044.699	-657.5
4047.172	-658.5
4049.643	-656.5
4052.112	-660.5
4054.58	-660.5
4057.046	-663.5
4059.51	-659.5
4061.972	-664.5
4064.432	-667.5
4066.891	-663.5
4069.348	-660.5
4071.803	-650.5
4074.256	-656.5
4076.708	-653.5
4079.158	-655.5
4081.606	-656.5
4084.052	-657.5
4086.497	-658.5
4088.939	-654.5
4091.38	-654.5
4093.819	-654.5
4096.257	-688.5
4098.693	-691.5
4101.127	-697.5
4103.559	-690.5
4105.989	-402.5
4108.418	-370.5
4110.845	-346.5
4113.27	-324.5
4115.694	-290.5
4118.115	-236.5
4120.535	-654.5
4122.954	-654.5
4125.37	-649.5
4127.785	-655.5
4130.198	-661.5
4132.609	-659.5
4135.019	-692.5
4137.427	-697.5
4139.833	-696.5
4142.237	-693.5
