Data from 2018-2-14_conc=0_n=5_RamanShift_04.txt Node
Date: Wed Feb 14 10:40:56 IST 2018
User: aro
Spectrometer: QEPB0276
Trigger mode: 0
Integration Time (sec): 3.000000E1
Scans to average: 1
Electric dark correction enabled: true
Nonlinearity correction enabled: false
Boxcar width: 0
XAxis mode: Raman Shifts
Number of Pixels in Spectrum: 1044
>>>>>Begin Spectral Data<<<<<
160.701	-146.4
166.742	37.6
172.777	551.6
178.805	2115.6
184.826	5844.6
190.841	12207.6
196.849	19506.6
202.85	24645.6
208.845	26327.6
214.833	25958.6
220.815	25485.6
226.789	25282.6
232.758	25155.6
238.719	24879.6
244.674	24568.6
250.623	24104.6
256.565	23533.6
262.5	22981.6
268.429	22622.6
274.351	22277.6
280.267	21883.6
286.176	21673.6
292.079	21359.6
297.975	21159.6
303.865	21006.6
309.748	20816.6
315.625	20736.6
321.495	20614.6
327.359	20530.6
333.217	20443.6
339.068	20353.6
344.912	20403.6
350.751	20389.6
356.583	20404.6
362.408	20356.6
368.227	20305.6
374.04	20361.6
379.847	20387.6
385.647	20468.6
391.44	20552.6
397.228	20618.6
403.009	20701.6
408.784	20767.6
414.553	20894.6
420.315	20909.6
426.071	20942.6
431.821	20900.6
437.565	20888.6
443.302	20884.6
449.033	20814.6
454.758	20779.6
460.477	20708.6
466.189	20681.6
471.896	20608.6
477.596	20525.6
483.29	20545.6
488.978	20474.6
494.66	20395.6
500.335	20266.6
506.005	20016.6
511.668	19790.6
517.325	19587.6
522.977	19411.6
528.622	19306.6
534.261	19097.6
539.894	19025.6
545.521	19019.6
551.141	18862.6
556.756	18785.6
562.365	18789.6
567.968	18686.6
573.565	18579.6
579.155	18525.6
584.74	18464.6
590.319	18356.6
595.892	18309.6
601.459	18255.6
607.02	18085.6
612.575	18039.6
618.124	17991.6
623.667	17838.6
629.204	17736.6
634.735	17614.6
640.261	17567.6
645.781	17554.6
651.294	17496.6
656.802	17524.6
662.304	17452.6
667.8	17431.6
673.29	17396.6
678.775	17371.6
684.254	17263.6
689.726	17219.6
695.193	17148.6
700.655	17016.6
706.11	17022.6
711.56	16826.6
717.004	16859.6
722.442	16744.6
727.874	16691.6
733.301	16608.6
738.722	16564.6
744.137	16544.6
749.547	16546.6
754.951	16563.6
760.349	16497.6
765.741	16542.6
771.128	16538.6
776.509	16547.6
781.885	16593.6
787.254	16528.6
792.618	16398.6
797.977	16308.6
803.33	16243.6
808.677	16120.6
814.019	16061.6
819.355	15959.6
824.686	15913.6
830.011	15862.6
835.33	15839.6
840.644	15825.6
845.952	15830.6
851.255	15905.6
856.552	15913.6
861.844	15892.6
867.13	15826.6
872.41	15815.6
877.686	15719.6
882.955	15541.6
888.219	15483.6
893.478	15231.6
898.731	15106.6
903.979	14981.6
909.221	14807.6
914.458	14770.6
919.69	14776.6
924.916	14823.6
930.136	14853.6
935.351	14873.6
940.561	14845.6
945.766	14849.6
950.965	14752.6
956.158	14647.6
961.347	14506.6
966.529	14284.6
971.707	14075.6
976.879	13961.6
982.046	13873.6
987.208	13727.6
992.364	13761.6
997.515	13894.6
1002.66	14015.6
1007.801	14149.6
1012.936	14258.6
1018.066	14209.6
1023.19	14266.6
1028.309	14295.6
1033.423	14196.6
1038.532	14122.6
1043.636	14044.6
1048.734	13866.6
1053.827	13706.6
1058.915	13491.6
1063.998	13394.6
1069.075	13371.6
1074.147	13396.6
1079.214	13409.6
1084.276	13511.6
1089.333	13591.6
1094.385	13678.6
1099.431	13704.6
1104.472	13727.6
1109.509	13641.6
1114.54	13427.6
1119.565	13316.6
1124.586	13147.6
1129.602	13019.6
1134.613	12981.6
1139.618	12839.6
1144.619	12827.6
1149.614	12762.6
1154.604	12777.6
1159.589	12873.6
1164.57	12878.6
1169.545	12882.6
1174.515	12894.6
1179.48	12818.6
1184.44	12708.6
1189.395	12601.6
1194.345	12586.6
1199.29	12506.6
1204.23	12462.6
1209.165	12499.6
1214.095	12586.6
1219.021	12634.6
1223.941	12735.6
1228.856	12792.6
1233.766	12859.6
1238.672	12860.6
1243.572	12783.6
1248.467	12761.6
1253.358	12601.6
1258.244	12432.6
1263.124	12235.6
1268	12036.6
1272.871	11914.6
1277.737	11798.6
1282.599	11758.6
1287.455	11737.6
1292.306	11772.6
1297.153	11795.6
1301.995	11865.6
1306.832	11915.6
1311.664	11973.6
1316.491	11890.6
1321.314	11750.6
1326.132	11616.6
1330.945	11361.6
1335.753	11071.6
1340.556	10792.6
1345.354	10556.6
1350.148	10431.6
1354.937	10339.6
1359.722	10340.6
1364.501	10358.6
1369.276	10520.6
1374.046	10686.6
1378.811	10747.6
1383.572	10938.6
1388.327	10916.6
1393.079	10898.6
1397.825	10732.6
1402.567	10559.6
1407.304	10443.6
1412.036	10406.6
1416.764	10276.6
1421.487	10187.6
1426.205	10141.6
1430.919	10134.6
1435.628	10076.6
1440.333	10135.6
1445.032	10131.6
1449.727	10188.6
1454.418	10155.6
1459.104	10033.6
1463.785	9891.6
1468.462	9695.6
1473.134	9475.6
1477.802	9277.6
1482.465	9129.6
1487.123	9013.6
1491.777	8999.6
1496.426	9060.6
1501.071	9141.6
1505.711	9324.6
1510.347	9450.6
1514.978	9663.6
1519.604	9780.6
1524.226	9837.6
1528.844	9862.6
1533.457	9854.6
1538.065	9786.6
1542.669	9750.6
1547.269	9643.6
1551.864	9617.6
1556.454	9574.6
1561.041	9554.6
1565.622	9549.6
1570.199	9592.6
1574.772	9554.6
1579.34	9655.6
1583.904	9711.6
1588.464	9775.6
1593.019	9718.6
1597.569	9738.6
1602.115	9671.6
1606.657	9606.6
1611.195	9563.6
1615.728	9533.6
1620.256	9442.6
1624.78	9442.6
1629.3	9495.6
1633.816	9532.6
1638.327	9569.6
1642.834	9631.6
1647.336	9687.6
1651.834	9630.6
1656.328	9625.6
1660.817	9576.6
1665.302	9473.6
1669.783	9302.6
1674.259	9155.6
1678.732	8866.6
1683.199	8568.6
1687.663	8247.6
1692.122	7998.6
1696.577	7923.6
1701.028	7900.6
1705.474	7937.6
1709.917	8032.6
1714.355	8043.6
1718.788	7993.6
1723.218	7868.6
1727.643	7666.6
1732.064	7549.6
1736.481	7341.6
1740.893	7227.6
1745.301	7019.6
1749.705	6812.6
1754.105	6601.6
1758.501	6413.6
1762.893	6249.6
1767.28	6074.6
1771.663	5937.6
1776.042	5845.6
1780.417	5764.6
1784.787	5801.6
1789.154	5888.6
1793.516	5951.6
1797.874	6090.6
1802.228	6208.6
1806.578	6261.6
1810.924	6287.6
1815.266	6210.6
1819.603	6124.6
1823.937	6010.6
1828.266	5906.6
1832.591	5820.6
1836.913	5749.6
1841.23	5673.6
1845.543	5655.6
1849.852	5597.6
1854.156	5584.6
1858.457	5545.6
1862.754	5556.6
1867.047	5576.6
1871.335	5539.6
1875.62	5525.6
1879.9	5522.6
1884.177	5474.6
1888.449	5449.6
1892.718	5390.6
1896.982	5292.6
1901.243	5294.6
1905.499	5231.6
1909.752	5223.6
1914	5222.6
1918.245	5203.6
1922.485	5300.6
1926.722	5330.6
1930.954	5399.6
1935.183	5468.6
1939.408	5553.6
1943.628	5538.6
1947.845	5596.6
1952.058	5584.6
1956.267	5534.6
1960.472	5452.6
1964.673	5335.6
1968.87	5261.6
1973.063	5200.6
1977.252	5173.6
1981.438	5063.6
1985.619	5002.6
1989.797	5003.6
1993.971	4946.6
1998.14	4877.6
2002.306	4911.6
2006.469	4874.6
2010.627	4857.6
2014.781	4829.6
2018.932	4794.6
2023.078	4743.6
2027.221	4691.6
2031.36	4618.6
2035.495	4540.6
2039.627	4463.6
2043.754	4404.6
2047.878	4393.6
2051.998	4361.6
2056.114	4313.6
2060.226	4341.6
2064.334	4336.6
2068.439	4339.6
2072.54	4390.6
2076.637	4398.6
2080.73	4461.6
2084.82	4480.6
2088.906	4487.6
2092.988	4509.6
2097.066	4454.6
2101.14	4429.6
2105.211	4425.6
2109.278	4417.6
2113.342	4353.6
2117.401	4318.6
2121.457	4331.6
2125.509	4287.6
2129.558	4266.6
2133.602	4226.6
2137.643	4231.6
2141.681	4208.6
2145.714	4183.6
2149.744	4138.6
2153.77	4132.6
2157.793	4051.6
2161.812	4025.6
2165.827	3964.6
2169.838	3916.6
2173.846	3809.6
2177.851	3761.6
2181.851	3721.6
2185.848	3688.6
2189.841	3612.6
2193.831	3572.6
2197.817	3545.6
2201.799	3546.6
2205.778	3524.6
2209.753	3526.6
2213.725	3502.6
2217.693	3502.6
2221.657	3467.6
2225.618	3481.6
2229.575	3454.6
2233.529	3407.6
2237.479	3390.6
2241.425	3338.6
2245.368	3296.6
2249.307	3247.6
2253.243	3212.6
2257.175	3146.6
2261.104	3114.6
2265.029	3068.6
2268.95	3030.6
2272.868	3032.6
2276.783	2991.6
2280.694	2941.6
2284.601	2933.6
2288.505	2901.6
2292.405	2832.6
2296.302	2850.6
2300.195	2825.6
2304.085	2804.6
2307.971	2708.6
2311.854	2704.6
2315.734	2650.6
2319.609	2626.6
2323.482	2565.6
2327.351	2557.6
2331.216	2535.6
2335.078	2524.6
2338.937	2499.6
2342.792	2481.6
2346.643	2464.6
2350.492	2466.6
2354.336	2469.6
2358.178	2490.6
2362.015	2494.6
2365.85	2499.6
2369.681	2508.6
2373.508	2522.6
2377.333	2502.6
2381.153	2468.6
2384.971	2480.6
2388.785	2444.6
2392.595	2438.6
2396.402	2412.6
2400.206	2389.6
2404.007	2371.6
2407.804	2357.6
2411.597	2347.6
2415.388	2311.6
2419.174	2329.6
2422.958	2276.6
2426.738	2269.6
2430.515	2254.6
2434.289	2220.6
2438.059	2233.6
2441.825	2196.6
2445.589	2176.6
2449.349	2153.6
2453.106	2111.6
2456.859	2079.6
2460.61	2040.6
2464.356	2046.6
2468.1	2015.6
2471.84	2008.6
2475.577	1975.6
2479.311	1972.6
2483.041	1960.6
2486.768	1972.6
2490.492	1927.6
2494.213	1961.6
2497.93	1935.6
2501.644	1925.6
2505.355	1914.6
2509.062	1901.6
2512.766	1911.6
2516.467	1881.6
2520.165	1860.6
2523.859	1849.6
2527.551	1845.6
2531.239	1845.6
2534.923	1828.6
2538.605	1827.6
2542.283	1812.6
2545.958	1822.6
2549.63	1819.6
2553.299	1806.6
2556.964	1802.6
2560.626	1795.6
2564.285	1758.6
2567.941	1797.6
2571.594	1768.6
2575.243	1767.6
2578.89	1729.6
2582.533	1706.6
2586.173	1697.6
2589.809	1688.6
2593.443	1685.6
2597.073	1651.6
2600.701	1657.6
2604.325	1645.6
2607.946	1628.6
2611.564	1619.6
2615.178	1592.6
2618.79	1604.6
2622.398	1573.6
2626.004	1573.6
2629.606	1541.6
2633.205	1530.6
2636.801	1502.6
2640.394	1493.6
2643.983	1447.6
2647.57	1431.6
2651.153	1425.6
2654.734	1389.6
2658.311	1353.6
2661.885	1357.6
2665.456	1336.6
2669.025	1314.6
2672.589	1306.6
2676.151	1303.6
2679.71	1261.6
2683.266	1248.6
2686.819	1219.6
2690.368	1201.6
2693.915	1170.6
2697.458	1150.6
2700.999	1134.6
2704.536	1102.6
2708.071	1070.6
2711.602	1057.6
2715.13	1022.6
2718.656	1014.6
2722.178	985.6
2725.697	982.6
2729.214	979.6
2732.727	977.6
2736.237	937.6
2739.744	944.6
2743.249	963.6
2746.75	970.6
2750.248	981.6
2753.743	998.6
2757.236	1015.6
2760.725	1025.6
2764.211	1014.6
2767.695	1022.6
2771.175	1026.6
2774.652	1025.6
2778.127	1021.6
2781.598	1001.6
2785.067	983.6
2788.532	1005.6
2791.995	991.6
2795.455	993.6
2798.911	985.6
2802.365	1000.6
2805.816	990.6
2809.264	987.6
2812.709	1000.6
2816.151	987.6
2819.59	985.6
2823.026	984.6
2826.46	994.6
2829.89	985.6
2833.318	985.6
2836.742	1016.6
2840.164	1000.6
2843.583	1008.6
2846.999	1028.6
2850.412	1048.6
2853.822	1038.6
2857.229	1061.6
2860.634	1080.6
2864.035	1108.6
2867.434	1111.6
2870.83	1130.6
2874.223	1157.6
2877.613	1166.6
2881	1193.6
2884.385	1194.6
2887.766	1177.6
2891.145	1182.6
2894.521	1197.6
2897.894	1185.6
2901.264	1194.6
2904.631	1251.6
2907.996	1217.6
2911.358	1208.6
2914.717	1197.6
2918.073	1234.6
2921.426	1243.6
2924.777	1244.6
2928.124	1272.6
2931.469	1282.6
2934.811	1326.6
2938.15	1342.6
2941.487	1345.6
2944.821	1357.6
2948.152	1364.6
2951.48	1355.6
2954.805	1340.6
2958.128	1336.6
2961.447	1322.6
2964.765	1329.6
2968.079	1329.6
2971.39	1312.6
2974.699	1363.6
2978.005	1367.6
2981.308	1385.6
2984.609	1454.6
2987.907	1437.6
2991.202	1475.6
2994.494	1519.6
2997.784	1556.6
3001.07	1556.6
3004.355	1586.6
3007.636	1617.6
3010.915	1637.6
3014.191	1652.6
3017.464	1653.6
3020.734	1675.6
3024.002	1660.6
3027.267	1706.6
3030.53	1698.6
3033.789	1733.6
3037.046	1733.6
3040.301	1749.6
3043.552	1827.6
3046.801	1853.6
3050.048	1877.6
3053.291	1924.6
3056.532	1994.6
3059.771	2048.6
3063.006	2117.6
3066.239	2155.6
3069.469	2230.6
3072.697	2273.6
3075.922	2341.6
3079.144	2387.6
3082.364	2447.6
3085.581	2494.6
3088.795	2540.6
3092.007	2626.6
3095.216	2667.6
3098.423	2729.6
3101.627	2822.6
3104.828	2820.6
3108.026	2894.6
3111.222	2997.6
3114.416	3075.6
3117.607	3110.6
3120.795	3166.6
3123.98	3261.6
3127.163	3332.6
3130.344	3436.6
3133.521	3475.6
3136.696	3603.6
3139.869	3640.6
3143.039	3692.6
3146.206	3775.6
3149.371	3800.6
3152.533	3843.6
3155.693	3893.6
3158.85	3886.6
3162.005	3927.6
3165.157	3926.6
3168.306	3929.6
3171.453	3943.6
3174.597	3963.6
3177.739	3982.6
3180.878	3980.6
3184.014	3976.6
3187.149	3971.6
3190.28	3964.6
3193.409	3966.6
3196.536	3998.6
3199.659	4022.6
3202.781	3961.6
3205.9	4005.6
3209.016	4000.6
3212.13	4004.6
3215.241	3944.6
3218.35	3914.6
3221.456	3874.6
3224.56	3848.6
3227.661	3818.6
3230.76	3772.6
3233.856	3719.6
3236.95	3702.6
3240.041	3652.6
3243.13	3635.6
3246.216	3623.6
3249.3	3605.6
3252.382	3572.6
3255.46	3589.6
3258.537	3565.6
3261.611	3566.6
3264.682	3560.6
3267.751	3580.6
3270.818	3584.6
3273.882	3513.6
3276.943	3521.6
3280.002	3494.6
3283.059	3457.6
3286.113	3388.6
3289.165	3363.6
3292.214	3316.6
3295.261	3263.6
3298.306	3212.6
3301.348	3181.6
3304.387	3129.6
3307.425	3048.6
3310.459	2999.6
3313.492	2985.6
3316.521	2925.6
3319.549	2900.6
3322.574	2867.6
3325.597	2838.6
3328.617	2836.6
3331.635	2809.6
3334.65	2781.6
3337.663	2779.6
3340.674	2742.6
3343.682	2763.6
3346.688	2741.6
3349.691	2719.6
3352.692	2717.6
3355.691	2684.6
3358.687	2671.6
3361.681	2626.6
3364.673	2610.6
3367.662	2577.6
3370.649	2522.6
3373.633	2497.6
3376.615	2471.6
3379.595	2420.6
3382.572	2388.6
3385.547	2352.6
3388.52	2342.6
3391.49	2285.6
3394.458	2242.6
3397.424	2220.6
3400.387	2188.6
3403.348	2163.6
3406.307	2155.6
3409.263	2116.6
3412.217	2080.6
3415.168	2090.6
3418.118	2034.6
3421.065	1999.6
3424.009	1997.6
3426.951	1949.6
3429.891	1923.6
3432.829	1892.6
3435.764	1840.6
3438.697	1778.6
3441.628	1723.6
3444.557	1688.6
3447.483	1628.6
3450.407	1572.6
3453.328	1544.6
3456.247	1486.6
3459.164	1434.6
3462.079	1381.6
3464.991	1324.6
3467.902	1283.6
3470.809	1243.6
3473.715	1209.6
3476.618	1148.6
3479.519	1117.6
3482.418	1086.6
3485.315	1031.6
3488.209	1017.6
3491.101	971.6
3493.99	939.6
3496.878	905.6
3499.763	881.6
3502.646	835.6
3505.527	787.6
3508.405	755.6
3511.281	694.6
3514.155	680.6
3517.027	644.6
3519.897	616.6
3522.764	549.6
3525.629	520.6
3528.492	491.6
3531.352	433.6
3534.211	396.6
3537.067	364.6
3539.921	317.6
3542.773	301.6
3545.622	257.6
3548.469	240.6
3551.315	200.6
3554.157	176.6
3556.998	154.6
3559.837	135.6
3562.673	112.6
3565.507	75.6
3568.339	53.6
3571.169	41.6
3573.996	24.6
3576.822	7.6
3579.645	-20.4
3582.466	-41.4
3585.285	-57.4
3588.101	-81.4
3590.916	-99.4
3593.728	-126.4
3596.538	-132.4
3599.346	-159.4
3602.152	-175.4
3604.956	-179.4
3607.757	-192.4
3610.556	-225.4
3613.354	-232.4
3616.149	-243.4
3618.942	-253.4
3621.732	-273.4
3624.521	-280.4
3627.307	-294.4
3630.092	-295.4
3632.874	-306.4
3635.654	-320.4
3638.432	-329.4
3641.208	-339.4
3643.982	-349.4
3646.753	-360.4
3649.523	-357.4
3652.29	-365.4
3655.055	-369.4
3657.818	-392.4
3660.579	-391.4
3663.338	-410.4
3666.095	-419.4
3668.849	-434.4
3671.602	-438.4
3674.352	-448.4
3677.101	-448.4
3679.847	-462.4
3682.591	-468.4
3685.333	-476.4
3688.073	-479.4
3690.811	-477.4
3693.547	-485.4
3696.281	-491.4
3699.013	-491.4
3701.742	-500.4
3704.47	-507.4
3707.195	-518.4
3709.919	-511.4
3712.64	-520.4
3715.359	-518.4
3718.076	-529.4
3720.792	-523.4
3723.505	-531.4
3726.216	-539.4
3728.925	-534.4
3731.632	-539.4
3734.336	-542.4
3737.039	-543.4
3739.74	-538.4
3742.439	-548.4
3745.136	-546.4
3747.83	-559.4
3750.523	-551.4
3753.213	-541.4
3755.902	-562.4
3758.589	-565.4
3761.273	-558.4
3763.956	-570.4
3766.636	-569.4
3769.315	-574.4
3771.991	-571.4
3774.665	-574.4
3777.338	-568.4
3780.008	-578.4
3782.677	-577.4
3785.343	-577.4
3788.007	-576.4
3790.67	-579.4
3793.33	-584.4
3795.989	-582.4
3798.645	-579.4
3801.299	-582.4
3803.952	-587.4
3806.602	-594.4
3809.251	-591.4
3811.897	-586.4
3814.542	-594.4
3817.184	-584.4
3819.825	-587.4
3822.463	-594.4
3825.1	-598.4
3827.735	-587.4
3830.367	-592.4
3832.998	-596.4
3835.627	-596.4
3838.253	-607.4
3840.878	-603.4
3843.501	-599.4
3846.122	-600.4
3848.741	-592.4
3851.358	-601.4
3853.973	-594.4
3856.586	-605.4
3859.197	-604.4
3861.806	-606.4
3864.414	-596.4
3867.019	-600.4
3869.622	-596.4
3872.224	-600.4
3874.823	-582.4
3877.421	-566.4
3880.016	-546.4
3882.61	-522.4
3885.202	-524.4
3887.792	-542.4
3890.38	-573.4
3892.966	-590.4
3895.55	-600.4
3898.132	-612.4
3900.713	-615.4
3903.291	-609.4
3905.868	-610.4
3908.442	-610.4
3911.015	-616.4
3913.586	-614.4
3916.155	-613.4
3918.722	-615.4
3921.287	-613.4
3923.85	-622.4
3926.411	-618.4
3928.971	-621.4
3931.528	-618.4
3934.084	-618.4
3936.638	-611.4
3939.19	-621.4
3941.74	-618.4
3944.288	-620.4
3946.834	-617.4
3949.378	-618.4
3951.921	-615.4
3954.462	-627.4
3957	-618.4
3959.537	-618.4
3962.072	-619.4
3964.606	-619.4
3967.137	-622.4
3969.667	-619.4
3972.194	-612.4
3974.72	-613.4
3977.244	-607.4
3979.766	-606.4
3982.286	-613.4
3984.805	-606.4
3987.321	-606.4
3989.836	-607.4
3992.349	-604.4
3994.86	-604.4
3997.369	-615.4
3999.877	-604.4
4002.382	-598.4
4004.886	-602.4
4007.388	-601.4
4009.888	-605.4
4012.386	-606.4
4014.883	-601.4
4017.377	-604.4
4019.87	-602.4
4022.361	-600.4
4024.85	-602.4
4027.338	-605.4
4029.823	-611.4
4032.307	-612.4
4034.789	-604.4
4037.269	-604.4
4039.747	-606.4
4042.224	-608.4
4044.699	-609.4
4047.172	-602.4
4049.643	-607.4
4052.112	-614.4
4054.58	-610.4
4057.046	-608.4
4059.51	-611.4
4061.972	-616.4
4064.432	-611.4
4066.891	-610.4
4069.348	-609.4
4071.803	-607.4
4074.256	-609.4
4076.708	-603.4
4079.158	-607.4
4081.606	-610.4
4084.052	-615.4
4086.497	-607.4
4088.939	-601.4
4091.38	-605.4
4093.819	-604.4
4096.257	-639.4
4098.693	-640.4
4101.127	-641.4
4103.559	-640.4
4105.989	-362.4
4108.418	-344.4
4110.845	-323.4
4113.27	-291.4
4115.694	-262.4
4118.115	-225.4
4120.535	-606.4
4122.954	-607.4
4125.37	-600.4
4127.785	-608.4
4130.198	-609.4
4132.609	-612.4
4135.019	-640.4
4137.427	-640.4
4139.833	-641.4
4142.237	-636.4
