Data from 2018-2-14_conc=2_n=5_RamanShift_03.txt Node
Date: Wed Feb 14 11:15:26 IST 2018
User: aro
Spectrometer: QEPB0276
Trigger mode: 0
Integration Time (sec): 3.000000E1
Scans to average: 1
Electric dark correction enabled: true
Nonlinearity correction enabled: false
Boxcar width: 0
XAxis mode: Raman Shifts
Number of Pixels in Spectrum: 1044
>>>>>Begin Spectral Data<<<<<
160.701	-148.5
166.742	39.5
172.777	610.5
178.805	2299.5
184.826	6384.5
190.841	13406.5
196.849	21581.5
202.85	27402.5
208.845	29333.5
214.833	29143.5
220.815	28569.5
226.789	28339.5
232.758	28218.5
238.719	27964.5
244.674	27633.5
250.623	27147.5
256.565	26500.5
262.5	25989.5
268.429	25561.5
274.351	25065.5
280.267	24765.5
286.176	24512.5
292.079	24255.5
297.975	24025.5
303.865	23755.5
309.748	23612.5
315.625	23470.5
321.495	23317.5
327.359	23278.5
333.217	23127.5
339.068	23188.5
344.912	23149.5
350.751	23134.5
356.583	23086.5
362.408	23072.5
368.227	23108.5
374.04	23147.5
379.847	23216.5
385.647	23217.5
391.44	23324.5
397.228	23371.5
403.009	23534.5
408.784	23585.5
414.553	23648.5
420.315	23725.5
426.071	23692.5
431.821	23711.5
437.565	23705.5
443.302	23696.5
449.033	23578.5
454.758	23588.5
460.477	23492.5
466.189	23420.5
471.896	23396.5
477.596	23323.5
483.29	23256.5
488.978	23206.5
494.66	23150.5
500.335	23006.5
506.005	22735.5
511.668	22485.5
517.325	22140.5
522.977	21982.5
528.622	21882.5
534.261	21736.5
539.894	21641.5
545.521	21516.5
551.141	21418.5
556.756	21307.5
562.365	21297.5
567.968	21192.5
573.565	21084.5
579.155	21065.5
584.74	20863.5
590.319	20823.5
595.892	20729.5
601.459	20681.5
607.02	20566.5
612.575	20480.5
618.124	20368.5
623.667	20214.5
629.204	20126.5
634.735	20000.5
640.261	19908.5
645.781	19942.5
651.294	19876.5
656.802	19783.5
662.304	19729.5
667.8	19703.5
673.29	19664.5
678.775	19665.5
684.254	19562.5
689.726	19511.5
695.193	19440.5
700.655	19283.5
706.11	19187.5
711.56	19190.5
717.004	19032.5
722.442	18925.5
727.874	18864.5
733.301	18839.5
738.722	18774.5
744.137	18715.5
749.547	18752.5
754.951	18739.5
760.349	18707.5
765.741	18712.5
771.128	18768.5
776.509	18837.5
781.885	18751.5
787.254	18685.5
792.618	18606.5
797.977	18529.5
803.33	18317.5
808.677	18281.5
814.019	18191.5
819.355	18087.5
824.686	17985.5
830.011	17942.5
835.33	17950.5
840.644	17884.5
845.952	17913.5
851.255	17981.5
856.552	17999.5
861.844	17921.5
867.13	17911.5
872.41	17866.5
877.686	17749.5
882.955	17649.5
888.219	17451.5
893.478	17307.5
898.731	17084.5
903.979	16895.5
909.221	16737.5
914.458	16702.5
919.69	16690.5
924.916	16775.5
930.136	16821.5
935.351	16840.5
940.561	16807.5
945.766	16742.5
950.965	16608.5
956.158	16588.5
961.347	16339.5
966.529	16216.5
971.707	15970.5
976.879	15783.5
982.046	15662.5
987.208	15667.5
992.364	15638.5
997.515	15707.5
1002.66	15836.5
1007.801	16003.5
1012.936	16125.5
1018.066	16124.5
1023.19	16108.5
1028.309	16139.5
1033.423	16083.5
1038.532	15981.5
1043.636	15848.5
1048.734	15657.5
1053.827	15424.5
1058.915	15305.5
1063.998	15165.5
1069.075	15163.5
1074.147	15162.5
1079.214	15241.5
1084.276	15338.5
1089.333	15367.5
1094.385	15429.5
1099.431	15494.5
1104.472	15480.5
1109.509	15369.5
1114.54	15231.5
1119.565	15013.5
1124.586	14811.5
1129.602	14672.5
1134.613	14564.5
1139.618	14493.5
1144.619	14416.5
1149.614	14422.5
1154.604	14475.5
1159.589	14519.5
1164.57	14512.5
1169.545	14636.5
1174.515	14539.5
1179.48	14480.5
1184.44	14411.5
1189.395	14292.5
1194.345	14160.5
1199.29	14154.5
1204.23	14014.5
1209.165	14199.5
1214.095	14231.5
1219.021	14252.5
1223.941	14324.5
1228.856	14390.5
1233.766	14490.5
1238.672	14519.5
1243.572	14434.5
1248.467	14404.5
1253.358	14193.5
1258.244	13984.5
1263.124	13780.5
1268	13642.5
1272.871	13421.5
1277.737	13326.5
1282.599	13271.5
1287.455	13209.5
1292.306	13265.5
1297.153	13319.5
1301.995	13354.5
1306.832	13428.5
1311.664	13421.5
1316.491	13398.5
1321.314	13285.5
1326.132	13071.5
1330.945	12810.5
1335.753	12479.5
1340.556	12156.5
1345.354	11926.5
1350.148	11721.5
1354.937	11610.5
1359.722	11617.5
1364.501	11619.5
1369.276	11770.5
1374.046	11917.5
1378.811	12085.5
1383.572	12198.5
1388.327	12242.5
1393.079	12239.5
1397.825	12052.5
1402.567	11903.5
1407.304	11705.5
1412.036	11636.5
1416.764	11549.5
1421.487	11503.5
1426.205	11403.5
1430.919	11417.5
1435.628	11376.5
1440.333	11382.5
1445.032	11411.5
1449.727	11465.5
1454.418	11439.5
1459.104	11312.5
1463.785	11136.5
1468.462	10885.5
1473.134	10581.5
1477.802	10353.5
1482.465	10228.5
1487.123	10154.5
1491.777	10067.5
1496.426	10097.5
1501.071	10205.5
1505.711	10355.5
1510.347	10565.5
1514.978	10708.5
1519.604	10891.5
1524.226	10959.5
1528.844	10982.5
1533.457	11018.5
1538.065	10880.5
1542.669	10866.5
1547.269	10796.5
1551.864	10732.5
1556.454	10707.5
1561.041	10673.5
1565.622	10669.5
1570.199	10683.5
1574.772	10800.5
1579.34	10790.5
1583.904	10890.5
1588.464	10894.5
1593.019	10920.5
1597.569	10872.5
1602.115	10820.5
1606.657	10770.5
1611.195	10748.5
1615.728	10631.5
1620.256	10604.5
1624.78	10549.5
1629.3	10611.5
1633.816	10652.5
1638.327	10681.5
1642.834	10681.5
1647.336	10798.5
1651.834	10808.5
1656.328	10765.5
1660.817	10688.5
1665.302	10587.5
1669.783	10453.5
1674.259	10186.5
1678.732	9885.5
1683.199	9547.5
1687.663	9219.5
1692.122	8952.5
1696.577	8760.5
1701.028	8731.5
1705.474	8735.5
1709.917	8850.5
1714.355	8885.5
1718.788	8822.5
1723.218	8629.5
1727.643	8556.5
1732.064	8403.5
1736.481	8208.5
1740.893	8011.5
1745.301	7791.5
1749.705	7582.5
1754.105	7347.5
1758.501	7140.5
1762.893	6962.5
1767.28	6808.5
1771.663	6639.5
1776.042	6574.5
1780.417	6457.5
1784.787	6454.5
1789.154	6476.5
1793.516	6614.5
1797.874	6709.5
1802.228	6824.5
1806.578	6910.5
1810.924	6896.5
1815.266	6904.5
1819.603	6772.5
1823.937	6673.5
1828.266	6583.5
1832.591	6450.5
1836.913	6359.5
1841.23	6319.5
1845.543	6261.5
1849.852	6219.5
1854.156	6206.5
1858.457	6193.5
1862.754	6181.5
1867.047	6197.5
1871.335	6168.5
1875.62	6155.5
1879.9	6165.5
1884.177	6083.5
1888.449	6069.5
1892.718	5954.5
1896.982	5920.5
1901.243	5850.5
1905.499	5812.5
1909.752	5783.5
1914	5780.5
1918.245	5774.5
1922.485	5823.5
1926.722	5889.5
1930.954	5939.5
1935.183	6020.5
1939.408	6114.5
1943.628	6152.5
1947.845	6123.5
1952.058	6109.5
1956.267	6067.5
1960.472	5994.5
1964.673	5891.5
1968.87	5802.5
1973.063	5710.5
1977.252	5653.5
1981.438	5588.5
1985.619	5492.5
1989.797	5505.5
1993.971	5477.5
1998.14	5430.5
2002.306	5430.5
2006.469	5414.5
2010.627	5376.5
2014.781	5366.5
2018.932	5303.5
2023.078	5284.5
2027.221	5188.5
2031.36	5106.5
2035.495	5046.5
2039.627	4941.5
2043.754	4896.5
2047.878	4841.5
2051.998	4802.5
2056.114	4773.5
2060.226	4741.5
2064.334	4782.5
2068.439	4780.5
2072.54	4837.5
2076.637	4844.5
2080.73	4872.5
2084.82	4922.5
2088.906	4912.5
2092.988	4901.5
2097.066	4898.5
2101.14	4882.5
2105.211	4806.5
2109.278	4813.5
2113.342	4752.5
2117.401	4764.5
2121.457	4730.5
2125.509	4724.5
2129.558	4706.5
2133.602	4657.5
2137.643	4627.5
2141.681	4639.5
2145.714	4595.5
2149.744	4562.5
2153.77	4521.5
2157.793	4495.5
2161.812	4410.5
2165.827	4354.5
2169.838	4309.5
2173.846	4239.5
2177.851	4148.5
2181.851	4125.5
2185.848	4044.5
2189.841	4014.5
2193.831	3942.5
2197.817	3943.5
2201.799	3899.5
2205.778	3891.5
2209.753	3871.5
2213.725	3839.5
2217.693	3863.5
2221.657	3841.5
2225.618	3827.5
2229.575	3850.5
2233.529	3765.5
2237.479	3736.5
2241.425	3694.5
2245.368	3628.5
2249.307	3595.5
2253.243	3544.5
2257.175	3492.5
2261.104	3426.5
2265.029	3428.5
2268.95	3372.5
2272.868	3339.5
2276.783	3311.5
2280.694	3283.5
2284.601	3229.5
2288.505	3204.5
2292.405	3157.5
2296.302	3144.5
2300.195	3112.5
2304.085	3072.5
2307.971	3013.5
2311.854	2987.5
2315.734	2932.5
2319.609	2883.5
2323.482	2862.5
2327.351	2822.5
2331.216	2835.5
2335.078	2808.5
2338.937	2775.5
2342.792	2751.5
2346.643	2757.5
2350.492	2751.5
2354.336	2754.5
2358.178	2759.5
2362.015	2768.5
2365.85	2754.5
2369.681	2766.5
2373.508	2774.5
2377.333	2769.5
2381.153	2729.5
2384.971	2765.5
2388.785	2714.5
2392.595	2694.5
2396.402	2678.5
2400.206	2652.5
2404.007	2603.5
2407.804	2630.5
2411.597	2595.5
2415.388	2568.5
2419.174	2554.5
2422.958	2537.5
2426.738	2519.5
2430.515	2492.5
2434.289	2484.5
2438.059	2471.5
2441.825	2439.5
2445.589	2415.5
2449.349	2394.5
2453.106	2353.5
2456.859	2328.5
2460.61	2312.5
2464.356	2278.5
2468.1	2244.5
2471.84	2254.5
2475.577	2201.5
2479.311	2176.5
2483.041	2173.5
2486.768	2164.5
2490.492	2155.5
2494.213	2167.5
2497.93	2149.5
2501.644	2134.5
2505.355	2119.5
2509.062	2117.5
2512.766	2103.5
2516.467	2107.5
2520.165	2092.5
2523.859	2053.5
2527.551	2046.5
2531.239	2022.5
2534.923	2006.5
2538.605	2003.5
2542.283	1995.5
2545.958	2002.5
2549.63	1984.5
2553.299	1988.5
2556.964	1975.5
2560.626	1969.5
2564.285	1952.5
2567.941	1967.5
2571.594	1929.5
2575.243	1932.5
2578.89	1925.5
2582.533	1893.5
2586.173	1897.5
2589.809	1866.5
2593.443	1865.5
2597.073	1828.5
2600.701	1825.5
2604.325	1806.5
2607.946	1816.5
2611.564	1789.5
2615.178	1768.5
2618.79	1762.5
2622.398	1756.5
2626.004	1726.5
2629.606	1708.5
2633.205	1674.5
2636.801	1681.5
2640.394	1648.5
2643.983	1620.5
2647.57	1590.5
2651.153	1586.5
2654.734	1547.5
2658.311	1529.5
2661.885	1500.5
2665.456	1477.5
2669.025	1467.5
2672.589	1428.5
2676.151	1424.5
2679.71	1398.5
2683.266	1382.5
2686.819	1383.5
2690.368	1324.5
2693.915	1319.5
2697.458	1275.5
2700.999	1237.5
2704.536	1224.5
2708.071	1198.5
2711.602	1170.5
2715.13	1122.5
2718.656	1131.5
2722.178	1097.5
2725.697	1088.5
2729.214	1075.5
2732.727	1056.5
2736.237	1050.5
2739.744	1070.5
2743.249	1043.5
2746.75	1079.5
2750.248	1066.5
2753.743	1067.5
2757.236	1114.5
2760.725	1126.5
2764.211	1122.5
2767.695	1125.5
2771.175	1110.5
2774.652	1099.5
2778.127	1100.5
2781.598	1091.5
2785.067	1079.5
2788.532	1080.5
2791.995	1092.5
2795.455	1086.5
2798.911	1091.5
2802.365	1082.5
2805.816	1089.5
2809.264	1086.5
2812.709	1082.5
2816.151	1087.5
2819.59	1099.5
2823.026	1080.5
2826.46	1091.5
2829.89	1091.5
2833.318	1090.5
2836.742	1090.5
2840.164	1092.5
2843.583	1107.5
2846.999	1117.5
2850.412	1135.5
2853.822	1149.5
2857.229	1159.5
2860.634	1181.5
2864.035	1207.5
2867.434	1217.5
2870.83	1244.5
2874.223	1288.5
2877.613	1284.5
2881	1310.5
2884.385	1318.5
2887.766	1330.5
2891.145	1318.5
2894.521	1321.5
2897.894	1298.5
2901.264	1316.5
2904.631	1315.5
2907.996	1320.5
2911.358	1315.5
2914.717	1346.5
2918.073	1370.5
2921.426	1361.5
2924.777	1394.5
2928.124	1410.5
2931.469	1447.5
2934.811	1458.5
2938.15	1478.5
2941.487	1491.5
2944.821	1485.5
2948.152	1488.5
2951.48	1495.5
2954.805	1458.5
2958.128	1459.5
2961.447	1436.5
2964.765	1429.5
2968.079	1437.5
2971.39	1450.5
2974.699	1466.5
2978.005	1505.5
2981.308	1535.5
2984.609	1547.5
2987.907	1559.5
2991.202	1591.5
2994.494	1630.5
2997.784	1680.5
3001.07	1693.5
3004.355	1724.5
3007.636	1769.5
3010.915	1761.5
3014.191	1760.5
3017.464	1785.5
3020.734	1828.5
3024.002	1822.5
3027.267	1855.5
3030.53	1854.5
3033.789	1868.5
3037.046	1917.5
3040.301	1928.5
3043.552	1967.5
3046.801	2013.5
3050.048	2047.5
3053.291	2118.5
3056.532	2177.5
3059.771	2221.5
3063.006	2292.5
3066.239	2359.5
3069.469	2409.5
3072.697	2482.5
3075.922	2543.5
3079.144	2605.5
3082.364	2687.5
3085.581	2735.5
3088.795	2774.5
3092.007	2869.5
3095.216	2895.5
3098.423	2958.5
3101.627	3056.5
3104.828	3109.5
3108.026	3164.5
3111.222	3249.5
3114.416	3311.5
3117.607	3392.5
3120.795	3492.5
3123.98	3533.5
3127.163	3650.5
3130.344	3719.5
3133.521	3814.5
3136.696	3884.5
3139.869	3961.5
3143.039	4025.5
3146.206	4112.5
3149.371	4151.5
3152.533	4179.5
3155.693	4187.5
3158.85	4198.5
3162.005	4275.5
3165.157	4273.5
3168.306	4271.5
3171.453	4270.5
3174.597	4314.5
3177.739	4302.5
3180.878	4316.5
3184.014	4330.5
3187.149	4291.5
3190.28	4367.5
3193.409	4338.5
3196.536	4356.5
3199.659	4346.5
3202.781	4362.5
3205.9	4369.5
3209.016	4346.5
3212.13	4307.5
3215.241	4299.5
3218.35	4274.5
3221.456	4220.5
3224.56	4181.5
3227.661	4121.5
3230.76	4089.5
3233.856	4048.5
3236.95	4017.5
3240.041	3934.5
3243.13	3958.5
3246.216	3906.5
3249.3	3891.5
3252.382	3885.5
3255.46	3856.5
3258.537	3860.5
3261.611	3852.5
3264.682	3883.5
3267.751	3864.5
3270.818	3830.5
3273.882	3841.5
3276.943	3800.5
3280.002	3769.5
3283.059	3738.5
3286.113	3695.5
3289.165	3636.5
3292.214	3610.5
3295.261	3544.5
3298.306	3485.5
3301.348	3451.5
3304.387	3383.5
3307.425	3321.5
3310.459	3274.5
3313.492	3208.5
3316.521	3184.5
3319.549	3135.5
3322.574	3118.5
3325.597	3096.5
3328.617	3081.5
3331.635	3069.5
3334.65	3046.5
3337.663	3036.5
3340.674	2992.5
3343.682	3016.5
3346.688	2984.5
3349.691	2999.5
3352.692	2958.5
3355.691	2929.5
3358.687	2913.5
3361.681	2884.5
3364.673	2815.5
3367.662	2785.5
3370.649	2753.5
3373.633	2727.5
3376.615	2675.5
3379.595	2650.5
3382.572	2613.5
3385.547	2577.5
3388.52	2526.5
3391.49	2494.5
3394.458	2436.5
3397.424	2414.5
3400.387	2392.5
3403.348	2359.5
3406.307	2335.5
3409.263	2285.5
3412.217	2281.5
3415.168	2277.5
3418.118	2227.5
3421.065	2209.5
3424.009	2172.5
3426.951	2112.5
3429.891	2091.5
3432.829	2038.5
3435.764	2015.5
3438.697	1977.5
3441.628	1891.5
3444.557	1856.5
3447.483	1786.5
3450.407	1723.5
3453.328	1682.5
3456.247	1613.5
3459.164	1562.5
3462.079	1519.5
3464.991	1450.5
3467.902	1403.5
3470.809	1354.5
3473.715	1298.5
3476.618	1246.5
3479.519	1216.5
3482.418	1175.5
3485.315	1117.5
3488.209	1087.5
3491.101	1061.5
3493.99	1026.5
3496.878	972.5
3499.763	947.5
3502.646	904.5
3505.527	849.5
3508.405	818.5
3511.281	767.5
3514.155	744.5
3517.027	694.5
3519.897	648.5
3522.764	600.5
3525.629	567.5
3528.492	518.5
3531.352	479.5
3534.211	442.5
3537.067	384.5
3539.921	360.5
3542.773	320.5
3545.622	276.5
3548.469	268.5
3551.315	232.5
3554.157	189.5
3556.998	153.5
3559.837	143.5
3562.673	103.5
3565.507	76.5
3568.339	62.5
3571.169	31.5
3573.996	19.5
3576.822	-3.5
3579.645	-13.5
3582.466	-57.5
3585.285	-56.5
3588.101	-90.5
3590.916	-111.5
3593.728	-129.5
3596.538	-145.5
3599.346	-169.5
3602.152	-195.5
3604.956	-200.5
3607.757	-222.5
3610.556	-242.5
3613.354	-250.5
3616.149	-267.5
3618.942	-280.5
3621.732	-279.5
3624.521	-306.5
3627.307	-315.5
3630.092	-327.5
3632.874	-332.5
3635.654	-342.5
3638.432	-359.5
3641.208	-357.5
3643.982	-376.5
3646.753	-389.5
3649.523	-404.5
3652.29	-403.5
3655.055	-412.5
3657.818	-427.5
3660.579	-435.5
3663.338	-458.5
3666.095	-454.5
3668.849	-466.5
3671.602	-478.5
3674.352	-486.5
3677.101	-498.5
3679.847	-503.5
3682.591	-507.5
3685.333	-519.5
3688.073	-517.5
3690.811	-524.5
3693.547	-531.5
3696.281	-536.5
3699.013	-548.5
3701.742	-544.5
3704.47	-554.5
3707.195	-565.5
3709.919	-564.5
3712.64	-563.5
3715.359	-571.5
3718.076	-571.5
3720.792	-572.5
3723.505	-571.5
3726.216	-586.5
3728.925	-581.5
3731.632	-584.5
3734.336	-590.5
3737.039	-594.5
3739.74	-593.5
3742.439	-595.5
3745.136	-601.5
3747.83	-608.5
3750.523	-609.5
3753.213	-595.5
3755.902	-611.5
3758.589	-614.5
3761.273	-618.5
3763.956	-623.5
3766.636	-619.5
3769.315	-621.5
3771.991	-620.5
3774.665	-622.5
3777.338	-629.5
3780.008	-632.5
3782.677	-627.5
3785.343	-627.5
3788.007	-632.5
3790.67	-634.5
3793.33	-636.5
3795.989	-637.5
3798.645	-635.5
3801.299	-634.5
3803.952	-643.5
3806.602	-649.5
3809.251	-654.5
3811.897	-644.5
3814.542	-643.5
3817.184	-641.5
3819.825	-642.5
3822.463	-636.5
3825.1	-652.5
3827.735	-641.5
3830.367	-644.5
3832.998	-645.5
3835.627	-656.5
3838.253	-662.5
3840.878	-657.5
3843.501	-657.5
3846.122	-658.5
3848.741	-651.5
3851.358	-658.5
3853.973	-652.5
3856.586	-658.5
3859.197	-656.5
3861.806	-658.5
3864.414	-659.5
3867.019	-652.5
3869.622	-657.5
3872.224	-648.5
3874.823	-634.5
3877.421	-628.5
3880.016	-609.5
3882.61	-585.5
3885.202	-586.5
3887.792	-595.5
3890.38	-629.5
3892.966	-647.5
3895.55	-657.5
3898.132	-669.5
3900.713	-669.5
3903.291	-667.5
3905.868	-670.5
3908.442	-666.5
3911.015	-671.5
3913.586	-666.5
3916.155	-669.5
3918.722	-671.5
3921.287	-669.5
3923.85	-676.5
3926.411	-670.5
3928.971	-680.5
3931.528	-677.5
3934.084	-676.5
3936.638	-673.5
3939.19	-673.5
3941.74	-672.5
3944.288	-675.5
3946.834	-668.5
3949.378	-674.5
3951.921	-675.5
3954.462	-680.5
3957	-666.5
3959.537	-675.5
3962.072	-671.5
3964.606	-670.5
3967.137	-674.5
3969.667	-677.5
3972.194	-663.5
3974.72	-671.5
3977.244	-661.5
3979.766	-655.5
3982.286	-664.5
3984.805	-661.5
3987.321	-658.5
3989.836	-660.5
3992.349	-653.5
3994.86	-658.5
3997.369	-665.5
3999.877	-656.5
4002.382	-659.5
4004.886	-658.5
4007.388	-652.5
4009.888	-651.5
4012.386	-662.5
4014.883	-657.5
4017.377	-659.5
4019.87	-651.5
4022.361	-653.5
4024.85	-657.5
4027.338	-660.5
4029.823	-660.5
4032.307	-660.5
4034.789	-661.5
4037.269	-658.5
4039.747	-661.5
4042.224	-664.5
4044.699	-661.5
4047.172	-667.5
4049.643	-668.5
4052.112	-664.5
4054.58	-668.5
4057.046	-663.5
4059.51	-664.5
4061.972	-668.5
4064.432	-665.5
4066.891	-662.5
4069.348	-658.5
4071.803	-656.5
4074.256	-663.5
4076.708	-663.5
4079.158	-662.5
4081.606	-663.5
4084.052	-665.5
4086.497	-666.5
4088.939	-660.5
4091.38	-661.5
4093.819	-658.5
4096.257	-701.5
4098.693	-699.5
4101.127	-700.5
4103.559	-696.5
4105.989	-409.5
4108.418	-378.5
4110.845	-353.5
4113.27	-325.5
4115.694	-290.5
4118.115	-237.5
4120.535	-658.5
4122.954	-659.5
4125.37	-654.5
4127.785	-662.5
4130.198	-665.5
4132.609	-665.5
4135.019	-698.5
4137.427	-702.5
4139.833	-700.5
4142.237	-699.5
