Data from 2018-2-14_conc=4_n=6_RamanShift_01.txt Node
Date: Wed Feb 14 13:43:25 IST 2018
User: aro
Spectrometer: QEPB0276
Trigger mode: 0
Integration Time (sec): 3.000000E1
Scans to average: 1
Electric dark correction enabled: true
Nonlinearity correction enabled: false
Boxcar width: 0
XAxis mode: Raman Shifts
Number of Pixels in Spectrum: 1044
>>>>>Begin Spectral Data<<<<<
160.701	-151.5
166.742	41.5
172.777	600.5
178.805	2238.5
184.826	6227.5
190.841	13035.5
196.849	20935.5
202.85	26464.5
208.845	28317.5
214.833	28050.5
220.815	27594.5
226.789	27419.5
232.758	27299.5
238.719	27158.5
244.674	26870.5
250.623	26278.5
256.565	25851.5
262.5	25356.5
268.429	24844.5
274.351	24577.5
280.267	24225.5
286.176	24008.5
292.079	23795.5
297.975	23560.5
303.865	23352.5
309.748	23207.5
315.625	22999.5
321.495	22913.5
327.359	22872.5
333.217	22862.5
339.068	22792.5
344.912	22788.5
350.751	22751.5
356.583	22682.5
362.408	22695.5
368.227	22728.5
374.04	22754.5
379.847	22841.5
385.647	22868.5
391.44	22922.5
397.228	23076.5
403.009	23115.5
408.784	23154.5
414.553	23256.5
420.315	23285.5
426.071	23321.5
431.821	23337.5
437.565	23329.5
443.302	23254.5
449.033	23191.5
454.758	23187.5
460.477	23215.5
466.189	23139.5
471.896	23036.5
477.596	22920.5
483.29	22885.5
488.978	22867.5
494.66	22855.5
500.335	22660.5
506.005	22442.5
511.668	22171.5
517.325	21920.5
522.977	21755.5
528.622	21618.5
534.261	21510.5
539.894	21397.5
545.521	21264.5
551.141	21218.5
556.756	21167.5
562.365	21047.5
567.968	21005.5
573.565	20906.5
579.155	20782.5
584.74	20771.5
590.319	20625.5
595.892	20536.5
601.459	20492.5
607.02	20425.5
612.575	20296.5
618.124	20167.5
623.667	20065.5
629.204	20009.5
634.735	19812.5
640.261	19775.5
645.781	19788.5
651.294	19677.5
656.802	19669.5
662.304	19646.5
667.8	19572.5
673.29	19608.5
678.775	19502.5
684.254	19430.5
689.726	19430.5
695.193	19374.5
700.655	19206.5
706.11	19147.5
711.56	19107.5
717.004	18966.5
722.442	18846.5
727.874	18795.5
733.301	18729.5
738.722	18684.5
744.137	18634.5
749.547	18694.5
754.951	18668.5
760.349	18573.5
765.741	18629.5
771.128	18627.5
776.509	18660.5
781.885	18708.5
787.254	18616.5
792.618	18531.5
797.977	18416.5
803.33	18295.5
808.677	18193.5
814.019	18088.5
819.355	18007.5
824.686	17930.5
830.011	17899.5
835.33	17900.5
840.644	17907.5
845.952	17904.5
851.255	17972.5
856.552	17973.5
861.844	17973.5
867.13	17891.5
872.41	17837.5
877.686	17785.5
882.955	17617.5
888.219	17452.5
893.478	17257.5
898.731	17084.5
903.979	16910.5
909.221	16823.5
914.458	16728.5
919.69	16682.5
924.916	16727.5
930.136	16833.5
935.351	16810.5
940.561	16793.5
945.766	16762.5
950.965	16702.5
956.158	16584.5
961.347	16383.5
966.529	16217.5
971.707	16031.5
976.879	15810.5
982.046	15668.5
987.208	15649.5
992.364	15653.5
997.515	15700.5
1002.66	15868.5
1007.801	16057.5
1012.936	16152.5
1018.066	16194.5
1023.19	16149.5
1028.309	16156.5
1033.423	16090.5
1038.532	16053.5
1043.636	15903.5
1048.734	15685.5
1053.827	15499.5
1058.915	15361.5
1063.998	15196.5
1069.075	15244.5
1074.147	15186.5
1079.214	15272.5
1084.276	15349.5
1089.333	15438.5
1094.385	15535.5
1099.431	15514.5
1104.472	15551.5
1109.509	15451.5
1114.54	15300.5
1119.565	15121.5
1124.586	14913.5
1129.602	14785.5
1134.613	14711.5
1139.618	14537.5
1144.619	14464.5
1149.614	14541.5
1154.604	14572.5
1159.589	14539.5
1164.57	14636.5
1169.545	14679.5
1174.515	14630.5
1179.48	14557.5
1184.44	14450.5
1189.395	14323.5
1194.345	14244.5
1199.29	14152.5
1204.23	14147.5
1209.165	14203.5
1214.095	14271.5
1219.021	14361.5
1223.941	14351.5
1228.856	14493.5
1233.766	14516.5
1238.672	14541.5
1243.572	14546.5
1248.467	14387.5
1253.358	14279.5
1258.244	14072.5
1263.124	13865.5
1268	13678.5
1272.871	13467.5
1277.737	13394.5
1282.599	13331.5
1287.455	13326.5
1292.306	13309.5
1297.153	13344.5
1301.995	13456.5
1306.832	13574.5
1311.664	13492.5
1316.491	13531.5
1321.314	13356.5
1326.132	13149.5
1330.945	12914.5
1335.753	12484.5
1340.556	12210.5
1345.354	11946.5
1350.148	11718.5
1354.937	11657.5
1359.722	11605.5
1364.501	11703.5
1369.276	11834.5
1374.046	11991.5
1378.811	12224.5
1383.572	12301.5
1388.327	12400.5
1393.079	12326.5
1397.825	12215.5
1402.567	11985.5
1407.304	11800.5
1412.036	11709.5
1416.764	11639.5
1421.487	11560.5
1426.205	11504.5
1430.919	11461.5
1435.628	11433.5
1440.333	11427.5
1445.032	11469.5
1449.727	11534.5
1454.418	11470.5
1459.104	11390.5
1463.785	11146.5
1468.462	10884.5
1473.134	10684.5
1477.802	10481.5
1482.465	10223.5
1487.123	10127.5
1491.777	10127.5
1496.426	10155.5
1501.071	10266.5
1505.711	10417.5
1510.347	10614.5
1514.978	10804.5
1519.604	10930.5
1524.226	11086.5
1528.844	11130.5
1533.457	11078.5
1538.065	11078.5
1542.669	10974.5
1547.269	10857.5
1551.864	10845.5
1556.454	10821.5
1561.041	10747.5
1565.622	10792.5
1570.199	10728.5
1574.772	10810.5
1579.34	10873.5
1583.904	10929.5
1588.464	10990.5
1593.019	10929.5
1597.569	10943.5
1602.115	10850.5
1606.657	10730.5
1611.195	10726.5
1615.728	10591.5
1620.256	10539.5
1624.78	10558.5
1629.3	10551.5
1633.816	10630.5
1638.327	10661.5
1642.834	10663.5
1647.336	10742.5
1651.834	10751.5
1656.328	10682.5
1660.817	10673.5
1665.302	10514.5
1669.783	10319.5
1674.259	10169.5
1678.732	9848.5
1683.199	9496.5
1687.663	9144.5
1692.122	8892.5
1696.577	8766.5
1701.028	8776.5
1705.474	8840.5
1709.917	8925.5
1714.355	8994.5
1718.788	8948.5
1723.218	8829.5
1727.643	8685.5
1732.064	8491.5
1736.481	8280.5
1740.893	8104.5
1745.301	7882.5
1749.705	7649.5
1754.105	7480.5
1758.501	7265.5
1762.893	7042.5
1767.28	6882.5
1771.663	6755.5
1776.042	6595.5
1780.417	6512.5
1784.787	6522.5
1789.154	6592.5
1793.516	6723.5
1797.874	6859.5
1802.228	6948.5
1806.578	7057.5
1810.924	7069.5
1815.266	7011.5
1819.603	6912.5
1823.937	6788.5
1828.266	6683.5
1832.591	6602.5
1836.913	6487.5
1841.23	6448.5
1845.543	6358.5
1849.852	6342.5
1854.156	6308.5
1858.457	6301.5
1862.754	6293.5
1867.047	6312.5
1871.335	6284.5
1875.62	6260.5
1879.9	6240.5
1884.177	6178.5
1888.449	6138.5
1892.718	6077.5
1896.982	6007.5
1901.243	5934.5
1905.499	5898.5
1909.752	5880.5
1914	5861.5
1918.245	5908.5
1922.485	5961.5
1926.722	6024.5
1930.954	6078.5
1935.183	6158.5
1939.408	6237.5
1943.628	6287.5
1947.845	6299.5
1952.058	6297.5
1956.267	6224.5
1960.472	6162.5
1964.673	6054.5
1968.87	5981.5
1973.063	5888.5
1977.252	5792.5
1981.438	5721.5
1985.619	5663.5
1989.797	5626.5
1993.971	5594.5
1998.14	5527.5
2002.306	5542.5
2006.469	5487.5
2010.627	5471.5
2014.781	5415.5
2018.932	5394.5
2023.078	5325.5
2027.221	5250.5
2031.36	5178.5
2035.495	5103.5
2039.627	5005.5
2043.754	4975.5
2047.878	4899.5
2051.998	4885.5
2056.114	4873.5
2060.226	4846.5
2064.334	4841.5
2068.439	4879.5
2072.54	4876.5
2076.637	4917.5
2080.73	4953.5
2084.82	4998.5
2088.906	5021.5
2092.988	5020.5
2097.066	4993.5
2101.14	4937.5
2105.211	4917.5
2109.278	4912.5
2113.342	4897.5
2117.401	4855.5
2121.457	4800.5
2125.509	4799.5
2129.558	4793.5
2133.602	4746.5
2137.643	4717.5
2141.681	4708.5
2145.714	4661.5
2149.744	4618.5
2153.77	4622.5
2157.793	4562.5
2161.812	4516.5
2165.827	4451.5
2169.838	4391.5
2173.846	4313.5
2177.851	4243.5
2181.851	4172.5
2185.848	4110.5
2189.841	4095.5
2193.831	4010.5
2197.817	3991.5
2201.799	3975.5
2205.778	3987.5
2209.753	3954.5
2213.725	3937.5
2217.693	3927.5
2221.657	3917.5
2225.618	3898.5
2229.575	3906.5
2233.529	3838.5
2237.479	3806.5
2241.425	3777.5
2245.368	3698.5
2249.307	3648.5
2253.243	3603.5
2257.175	3549.5
2261.104	3500.5
2265.029	3469.5
2268.95	3448.5
2272.868	3409.5
2276.783	3378.5
2280.694	3338.5
2284.601	3321.5
2288.505	3260.5
2292.405	3256.5
2296.302	3193.5
2300.195	3165.5
2304.085	3147.5
2307.971	3093.5
2311.854	3026.5
2315.734	3013.5
2319.609	2960.5
2323.482	2904.5
2327.351	2896.5
2331.216	2876.5
2335.078	2865.5
2338.937	2832.5
2342.792	2805.5
2346.643	2796.5
2350.492	2797.5
2354.336	2850.5
2358.178	2819.5
2362.015	2833.5
2365.85	2829.5
2369.681	2836.5
2373.508	2840.5
2377.333	2815.5
2381.153	2816.5
2384.971	2800.5
2388.785	2805.5
2392.595	2742.5
2396.402	2734.5
2400.206	2719.5
2404.007	2726.5
2407.804	2685.5
2411.597	2672.5
2415.388	2652.5
2419.174	2628.5
2422.958	2620.5
2426.738	2579.5
2430.515	2564.5
2434.289	2548.5
2438.059	2532.5
2441.825	2524.5
2445.589	2476.5
2449.349	2442.5
2453.106	2397.5
2456.859	2393.5
2460.61	2369.5
2464.356	2329.5
2468.1	2292.5
2471.84	2273.5
2475.577	2260.5
2479.311	2242.5
2483.041	2228.5
2486.768	2216.5
2490.492	2235.5
2494.213	2223.5
2497.93	2188.5
2501.644	2197.5
2505.355	2180.5
2509.062	2149.5
2512.766	2164.5
2516.467	2156.5
2520.165	2132.5
2523.859	2092.5
2527.551	2095.5
2531.239	2101.5
2534.923	2084.5
2538.605	2058.5
2542.283	2052.5
2545.958	2050.5
2549.63	2079.5
2553.299	2061.5
2556.964	2039.5
2560.626	2018.5
2564.285	2026.5
2567.941	2030.5
2571.594	2009.5
2575.243	1999.5
2578.89	1985.5
2582.533	1951.5
2586.173	1942.5
2589.809	1921.5
2593.443	1943.5
2597.073	1918.5
2600.701	1892.5
2604.325	1888.5
2607.946	1852.5
2611.564	1853.5
2615.178	1840.5
2618.79	1814.5
2622.398	1800.5
2626.004	1791.5
2629.606	1757.5
2633.205	1742.5
2636.801	1734.5
2640.394	1708.5
2643.983	1680.5
2647.57	1660.5
2651.153	1629.5
2654.734	1577.5
2658.311	1568.5
2661.885	1572.5
2665.456	1537.5
2669.025	1499.5
2672.589	1483.5
2676.151	1490.5
2679.71	1452.5
2683.266	1430.5
2686.819	1395.5
2690.368	1377.5
2693.915	1358.5
2697.458	1331.5
2700.999	1296.5
2704.536	1263.5
2708.071	1240.5
2711.602	1212.5
2715.13	1181.5
2718.656	1160.5
2722.178	1133.5
2725.697	1103.5
2729.214	1097.5
2732.727	1104.5
2736.237	1097.5
2739.744	1101.5
2743.249	1087.5
2746.75	1113.5
2750.248	1099.5
2753.743	1125.5
2757.236	1150.5
2760.725	1135.5
2764.211	1173.5
2767.695	1167.5
2771.175	1138.5
2774.652	1130.5
2778.127	1150.5
2781.598	1129.5
2785.067	1129.5
2788.532	1111.5
2791.995	1112.5
2795.455	1121.5
2798.911	1126.5
2802.365	1103.5
2805.816	1105.5
2809.264	1122.5
2812.709	1118.5
2816.151	1114.5
2819.59	1123.5
2823.026	1111.5
2826.46	1107.5
2829.89	1097.5
2833.318	1116.5
2836.742	1132.5
2840.164	1120.5
2843.583	1138.5
2846.999	1134.5
2850.412	1158.5
2853.822	1166.5
2857.229	1197.5
2860.634	1187.5
2864.035	1210.5
2867.434	1241.5
2870.83	1254.5
2874.223	1263.5
2877.613	1292.5
2881	1314.5
2884.385	1300.5
2887.766	1317.5
2891.145	1297.5
2894.521	1294.5
2897.894	1283.5
2901.264	1314.5
2904.631	1309.5
2907.996	1304.5
2911.358	1300.5
2914.717	1326.5
2918.073	1307.5
2921.426	1344.5
2924.777	1360.5
2928.124	1375.5
2931.469	1405.5
2934.811	1425.5
2938.15	1420.5
2941.487	1425.5
2944.821	1455.5
2948.152	1446.5
2951.48	1434.5
2954.805	1417.5
2958.128	1401.5
2961.447	1390.5
2964.765	1388.5
2968.079	1370.5
2971.39	1388.5
2974.699	1413.5
2978.005	1436.5
2981.308	1456.5
2984.609	1475.5
2987.907	1510.5
2991.202	1539.5
2994.494	1550.5
2997.784	1579.5
3001.07	1637.5
3004.355	1669.5
3007.636	1691.5
3010.915	1707.5
3014.191	1726.5
3017.464	1726.5
3020.734	1725.5
3024.002	1733.5
3027.267	1755.5
3030.53	1756.5
3033.789	1779.5
3037.046	1808.5
3040.301	1815.5
3043.552	1869.5
3046.801	1887.5
3050.048	1936.5
3053.291	2002.5
3056.532	2020.5
3059.771	2083.5
3063.006	2150.5
3066.239	2213.5
3069.469	2290.5
3072.697	2330.5
3075.922	2400.5
3079.144	2463.5
3082.364	2493.5
3085.581	2537.5
3088.795	2611.5
3092.007	2645.5
3095.216	2709.5
3098.423	2760.5
3101.627	2834.5
3104.828	2888.5
3108.026	2942.5
3111.222	3002.5
3114.416	3071.5
3117.607	3162.5
3120.795	3261.5
3123.98	3290.5
3127.163	3393.5
3130.344	3454.5
3133.521	3552.5
3136.696	3611.5
3139.869	3698.5
3143.039	3751.5
3146.206	3787.5
3149.371	3835.5
3152.533	3876.5
3155.693	3920.5
3158.85	3913.5
3162.005	3942.5
3165.157	3945.5
3168.306	3986.5
3171.453	3962.5
3174.597	3972.5
3177.739	4015.5
3180.878	3973.5
3184.014	3987.5
3187.149	3992.5
3190.28	3989.5
3193.409	3992.5
3196.536	4012.5
3199.659	4030.5
3202.781	4023.5
3205.9	4043.5
3209.016	4066.5
3212.13	4017.5
3215.241	3968.5
3218.35	3955.5
3221.456	3881.5
3224.56	3870.5
3227.661	3802.5
3230.76	3757.5
3233.856	3739.5
3236.95	3718.5
3240.041	3699.5
3243.13	3641.5
3246.216	3620.5
3249.3	3622.5
3252.382	3598.5
3255.46	3597.5
3258.537	3533.5
3261.611	3562.5
3264.682	3565.5
3267.751	3558.5
3270.818	3556.5
3273.882	3528.5
3276.943	3532.5
3280.002	3497.5
3283.059	3504.5
3286.113	3435.5
3289.165	3391.5
3292.214	3336.5
3295.261	3276.5
3298.306	3220.5
3301.348	3175.5
3304.387	3123.5
3307.425	3072.5
3310.459	3008.5
3313.492	3003.5
3316.521	2941.5
3319.549	2914.5
3322.574	2884.5
3325.597	2851.5
3328.617	2838.5
3331.635	2839.5
3334.65	2795.5
3337.663	2785.5
3340.674	2771.5
3343.682	2739.5
3346.688	2772.5
3349.691	2734.5
3352.692	2722.5
3355.691	2718.5
3358.687	2674.5
3361.681	2653.5
3364.673	2643.5
3367.662	2577.5
3370.649	2520.5
3373.633	2488.5
3376.615	2464.5
3379.595	2437.5
3382.572	2408.5
3385.547	2379.5
3388.52	2321.5
3391.49	2288.5
3394.458	2247.5
3397.424	2220.5
3400.387	2182.5
3403.348	2182.5
3406.307	2140.5
3409.263	2107.5
3412.217	2101.5
3415.168	2053.5
3418.118	2039.5
3421.065	2009.5
3424.009	1973.5
3426.951	1957.5
3429.891	1914.5
3432.829	1883.5
3435.764	1843.5
3438.697	1784.5
3441.628	1743.5
3444.557	1694.5
3447.483	1621.5
3450.407	1587.5
3453.328	1550.5
3456.247	1499.5
3459.164	1425.5
3462.079	1381.5
3464.991	1324.5
3467.902	1269.5
3470.809	1225.5
3473.715	1184.5
3476.618	1131.5
3479.519	1095.5
3482.418	1070.5
3485.315	1020.5
3488.209	998.5
3491.101	957.5
3493.99	922.5
3496.878	872.5
3499.763	848.5
3502.646	812.5
3505.527	761.5
3508.405	744.5
3511.281	693.5
3514.155	650.5
3517.027	637.5
3519.897	589.5
3522.764	537.5
3525.629	494.5
3528.492	458.5
3531.352	409.5
3534.211	386.5
3537.067	337.5
3539.921	312.5
3542.773	268.5
3545.622	242.5
3548.469	197.5
3551.315	172.5
3554.157	156.5
3556.998	113.5
3559.837	94.5
3562.673	67.5
3565.507	40.5
3568.339	21.5
3571.169	10.5
3573.996	-9.5
3576.822	-30.5
3579.645	-42.5
3582.466	-67.5
3585.285	-79.5
3588.101	-116.5
3590.916	-130.5
3593.728	-151.5
3596.538	-153.5
3599.346	-187.5
3602.152	-205.5
3604.956	-221.5
3607.757	-238.5
3610.556	-255.5
3613.354	-258.5
3616.149	-287.5
3618.942	-286.5
3621.732	-300.5
3624.521	-317.5
3627.307	-325.5
3630.092	-338.5
3632.874	-350.5
3635.654	-360.5
3638.432	-363.5
3641.208	-367.5
3643.982	-378.5
3646.753	-385.5
3649.523	-395.5
3652.29	-400.5
3655.055	-413.5
3657.818	-422.5
3660.579	-436.5
3663.338	-451.5
3666.095	-454.5
3668.849	-468.5
3671.602	-476.5
3674.352	-475.5
3677.101	-485.5
3679.847	-495.5
3682.591	-502.5
3685.333	-512.5
3688.073	-514.5
3690.811	-519.5
3693.547	-515.5
3696.281	-527.5
3699.013	-531.5
3701.742	-537.5
3704.47	-539.5
3707.195	-546.5
3709.919	-548.5
3712.64	-557.5
3715.359	-550.5
3718.076	-556.5
3720.792	-564.5
3723.505	-561.5
3726.216	-571.5
3728.925	-574.5
3731.632	-575.5
3734.336	-580.5
3737.039	-586.5
3739.74	-584.5
3742.439	-587.5
3745.136	-592.5
3747.83	-596.5
3750.523	-592.5
3753.213	-582.5
3755.902	-607.5
3758.589	-602.5
3761.273	-605.5
3763.956	-598.5
3766.636	-607.5
3769.315	-609.5
3771.991	-608.5
3774.665	-608.5
3777.338	-609.5
3780.008	-612.5
3782.677	-616.5
3785.343	-614.5
3788.007	-610.5
3790.67	-617.5
3793.33	-618.5
3795.989	-622.5
3798.645	-617.5
3801.299	-620.5
3803.952	-629.5
3806.602	-632.5
3809.251	-633.5
3811.897	-630.5
3814.542	-631.5
3817.184	-630.5
3819.825	-627.5
3822.463	-626.5
3825.1	-636.5
3827.735	-630.5
3830.367	-630.5
3832.998	-636.5
3835.627	-637.5
3838.253	-639.5
3840.878	-639.5
3843.501	-640.5
3846.122	-633.5
3848.741	-637.5
3851.358	-636.5
3853.973	-637.5
3856.586	-639.5
3859.197	-647.5
3861.806	-648.5
3864.414	-641.5
3867.019	-640.5
3869.622	-642.5
3872.224	-640.5
3874.823	-621.5
3877.421	-616.5
3880.016	-600.5
3882.61	-584.5
3885.202	-582.5
3887.792	-595.5
3890.38	-623.5
3892.966	-633.5
3895.55	-643.5
3898.132	-658.5
3900.713	-657.5
3903.291	-653.5
3905.868	-650.5
3908.442	-655.5
3911.015	-654.5
3913.586	-649.5
3916.155	-650.5
3918.722	-661.5
3921.287	-659.5
3923.85	-657.5
3926.411	-663.5
3928.971	-668.5
3931.528	-659.5
3934.084	-665.5
3936.638	-658.5
3939.19	-660.5
3941.74	-660.5
3944.288	-661.5
3946.834	-662.5
3949.378	-659.5
3951.921	-661.5
3954.462	-667.5
3957	-661.5
3959.537	-651.5
3962.072	-654.5
3964.606	-660.5
3967.137	-655.5
3969.667	-659.5
3972.194	-651.5
3974.72	-652.5
3977.244	-641.5
3979.766	-646.5
3982.286	-653.5
3984.805	-645.5
3987.321	-644.5
3989.836	-650.5
3992.349	-638.5
3994.86	-641.5
3997.369	-653.5
3999.877	-642.5
4002.382	-640.5
4004.886	-643.5
4007.388	-645.5
4009.888	-642.5
4012.386	-642.5
4014.883	-645.5
4017.377	-647.5
4019.87	-643.5
4022.361	-642.5
4024.85	-648.5
4027.338	-639.5
4029.823	-649.5
4032.307	-649.5
4034.789	-642.5
4037.269	-642.5
4039.747	-642.5
4042.224	-645.5
4044.699	-645.5
4047.172	-643.5
4049.643	-644.5
4052.112	-655.5
4054.58	-647.5
4057.046	-649.5
4059.51	-647.5
4061.972	-650.5
4064.432	-652.5
4066.891	-641.5
4069.348	-647.5
4071.803	-648.5
4074.256	-646.5
4076.708	-648.5
4079.158	-645.5
4081.606	-649.5
4084.052	-648.5
4086.497	-653.5
4088.939	-639.5
4091.38	-645.5
4093.819	-645.5
4096.257	-681.5
4098.693	-680.5
4101.127	-684.5
4103.559	-679.5
4105.989	-389.5
4108.418	-377.5
4110.845	-353.5
4113.27	-320.5
4115.694	-286.5
4118.115	-244.5
4120.535	-641.5
4122.954	-645.5
4125.37	-639.5
4127.785	-649.5
4130.198	-650.5
4132.609	-646.5
4135.019	-683.5
4137.427	-683.5
4139.833	-683.5
4142.237	-678.5
