Data from 2018-2-14_conc=5_n=1_RamanShift_01.txt Node
Date: Wed Feb 14 14:03:55 IST 2018
User: aro
Spectrometer: QEPB0276
Trigger mode: 0
Integration Time (sec): 3.000000E1
Scans to average: 1
Electric dark correction enabled: true
Nonlinearity correction enabled: false
Boxcar width: 0
XAxis mode: Raman Shifts
Number of Pixels in Spectrum: 1044
>>>>>Begin Spectral Data<<<<<
160.701	-144.6
166.742	35.4
172.777	538.4
178.805	2054.4
184.826	5633.4
190.841	11756.4
196.849	18932.4
202.85	23850.4
208.845	25463.4
214.833	25173.4
220.815	24681.4
226.789	24560.4
232.758	24563.4
238.719	24291.4
244.674	24022.4
250.623	23509.4
256.565	23045.4
262.5	22532.4
268.429	22115.4
274.351	21767.4
280.267	21523.4
286.176	21240.4
292.079	21065.4
297.975	20840.4
303.865	20691.4
309.748	20524.4
315.625	20397.4
321.495	20258.4
327.359	20206.4
333.217	20146.4
339.068	20095.4
344.912	20129.4
350.751	20096.4
356.583	20063.4
362.408	20085.4
368.227	20050.4
374.04	20072.4
379.847	20091.4
385.647	20181.4
391.44	20193.4
397.228	20307.4
403.009	20403.4
408.784	20486.4
414.553	20472.4
420.315	20576.4
426.071	20626.4
431.821	20577.4
437.565	20596.4
443.302	20470.4
449.033	20498.4
454.758	20407.4
460.477	20390.4
466.189	20427.4
471.896	20294.4
477.596	20230.4
483.29	20259.4
488.978	20210.4
494.66	20115.4
500.335	20056.4
506.005	19820.4
511.668	19572.4
517.325	19345.4
522.977	19183.4
528.622	19014.4
534.261	18900.4
539.894	18856.4
545.521	18762.4
551.141	18721.4
556.756	18644.4
562.365	18565.4
567.968	18532.4
573.565	18341.4
579.155	18371.4
584.74	18259.4
590.319	18204.4
595.892	18162.4
601.459	18082.4
607.02	17987.4
612.575	17864.4
618.124	17744.4
623.667	17697.4
629.204	17582.4
634.735	17501.4
640.261	17411.4
645.781	17395.4
651.294	17358.4
656.802	17354.4
662.304	17315.4
667.8	17242.4
673.29	17251.4
678.775	17219.4
684.254	17129.4
689.726	17096.4
695.193	17017.4
700.655	16917.4
706.11	16888.4
711.56	16754.4
717.004	16712.4
722.442	16634.4
727.874	16612.4
733.301	16494.4
738.722	16483.4
744.137	16483.4
749.547	16477.4
754.951	16426.4
760.349	16419.4
765.741	16435.4
771.128	16466.4
776.509	16484.4
781.885	16480.4
787.254	16412.4
792.618	16319.4
797.977	16222.4
803.33	16156.4
808.677	16052.4
814.019	15997.4
819.355	15882.4
824.686	15806.4
830.011	15789.4
835.33	15770.4
840.644	15824.4
845.952	15771.4
851.255	15853.4
856.552	15821.4
861.844	15796.4
867.13	15794.4
872.41	15689.4
877.686	15628.4
882.955	15593.4
888.219	15387.4
893.478	15256.4
898.731	15072.4
903.979	14903.4
909.221	14804.4
914.458	14736.4
919.69	14713.4
924.916	14845.4
930.136	14913.4
935.351	14824.4
940.561	14851.4
945.766	14805.4
950.965	14703.4
956.158	14596.4
961.347	14455.4
966.529	14340.4
971.707	14081.4
976.879	13983.4
982.046	13844.4
987.208	13796.4
992.364	13760.4
997.515	13899.4
1002.66	13973.4
1007.801	14172.4
1012.936	14258.4
1018.066	14310.4
1023.19	14250.4
1028.309	14266.4
1033.423	14251.4
1038.532	14190.4
1043.636	13998.4
1048.734	13830.4
1053.827	13692.4
1058.915	13583.4
1063.998	13457.4
1069.075	13435.4
1074.147	13412.4
1079.214	13467.4
1084.276	13615.4
1089.333	13621.4
1094.385	13692.4
1099.431	13748.4
1104.472	13747.4
1109.509	13683.4
1114.54	13546.4
1119.565	13371.4
1124.586	13148.4
1129.602	13018.4
1134.613	12950.4
1139.618	12885.4
1144.619	12843.4
1149.614	12820.4
1154.604	12887.4
1159.589	12883.4
1164.57	12938.4
1169.545	12915.4
1174.515	13002.4
1179.48	12883.4
1184.44	12807.4
1189.395	12681.4
1194.345	12625.4
1199.29	12535.4
1204.23	12582.4
1209.165	12587.4
1214.095	12677.4
1219.021	12766.4
1223.941	12810.4
1228.856	12894.4
1233.766	12865.4
1238.672	12945.4
1243.572	12928.4
1248.467	12809.4
1253.358	12671.4
1258.244	12468.4
1263.124	12314.4
1268	12145.4
1272.871	11988.4
1277.737	11945.4
1282.599	11831.4
1287.455	11884.4
1292.306	11854.4
1297.153	11872.4
1301.995	11949.4
1306.832	12016.4
1311.664	11996.4
1316.491	11955.4
1321.314	11882.4
1326.132	11685.4
1330.945	11425.4
1335.753	11139.4
1340.556	10862.4
1345.354	10667.4
1350.148	10508.4
1354.937	10465.4
1359.722	10380.4
1364.501	10489.4
1369.276	10645.4
1374.046	10847.4
1378.811	10989.4
1383.572	11143.4
1388.327	11172.4
1393.079	11092.4
1397.825	10948.4
1402.567	10735.4
1407.304	10578.4
1412.036	10474.4
1416.764	10406.4
1421.487	10360.4
1426.205	10248.4
1430.919	10206.4
1435.628	10242.4
1440.333	10272.4
1445.032	10296.4
1449.727	10282.4
1454.418	10264.4
1459.104	10204.4
1463.785	10004.4
1468.462	9806.4
1473.134	9604.4
1477.802	9387.4
1482.465	9290.4
1487.123	9166.4
1491.777	9202.4
1496.426	9263.4
1501.071	9342.4
1505.711	9543.4
1510.347	9723.4
1514.978	9883.4
1519.604	10008.4
1524.226	10081.4
1528.844	10096.4
1533.457	10072.4
1538.065	10031.4
1542.669	9961.4
1547.269	9876.4
1551.864	9826.4
1556.454	9757.4
1561.041	9767.4
1565.622	9722.4
1570.199	9732.4
1574.772	9776.4
1579.34	9812.4
1583.904	9920.4
1588.464	9932.4
1593.019	9911.4
1597.569	9916.4
1602.115	9807.4
1606.657	9749.4
1611.195	9716.4
1615.728	9648.4
1620.256	9605.4
1624.78	9621.4
1629.3	9553.4
1633.816	9635.4
1638.327	9672.4
1642.834	9735.4
1647.336	9788.4
1651.834	9802.4
1656.328	9770.4
1660.817	9746.4
1665.302	9632.4
1669.783	9498.4
1674.259	9299.4
1678.732	9067.4
1683.199	8748.4
1687.663	8457.4
1692.122	8220.4
1696.577	8109.4
1701.028	8128.4
1705.474	8210.4
1709.917	8299.4
1714.355	8314.4
1718.788	8284.4
1723.218	8122.4
1727.643	7946.4
1732.064	7858.4
1736.481	7646.4
1740.893	7423.4
1745.301	7256.4
1749.705	7048.4
1754.105	6860.4
1758.501	6652.4
1762.893	6456.4
1767.28	6321.4
1771.663	6185.4
1776.042	6090.4
1780.417	6058.4
1784.787	6089.4
1789.154	6111.4
1793.516	6219.4
1797.874	6393.4
1802.228	6489.4
1806.578	6551.4
1810.924	6586.4
1815.266	6518.4
1819.603	6412.4
1823.937	6290.4
1828.266	6201.4
1832.591	6064.4
1836.913	5998.4
1841.23	5939.4
1845.543	5892.4
1849.852	5888.4
1854.156	5818.4
1858.457	5821.4
1862.754	5816.4
1867.047	5813.4
1871.335	5795.4
1875.62	5802.4
1879.9	5768.4
1884.177	5761.4
1888.449	5717.4
1892.718	5659.4
1896.982	5617.4
1901.243	5554.4
1905.499	5493.4
1909.752	5511.4
1914	5509.4
1918.245	5527.4
1922.485	5612.4
1926.722	5681.4
1930.954	5720.4
1935.183	5765.4
1939.408	5856.4
1943.628	5876.4
1947.845	5940.4
1952.058	5859.4
1956.267	5803.4
1960.472	5736.4
1964.673	5651.4
1968.87	5551.4
1973.063	5482.4
1977.252	5386.4
1981.438	5342.4
1985.619	5280.4
1989.797	5233.4
1993.971	5213.4
1998.14	5172.4
2002.306	5156.4
2006.469	5103.4
2010.627	5085.4
2014.781	5089.4
2018.932	5040.4
2023.078	5000.4
2027.221	4913.4
2031.36	4844.4
2035.495	4752.4
2039.627	4694.4
2043.754	4641.4
2047.878	4580.4
2051.998	4592.4
2056.114	4604.4
2060.226	4584.4
2064.334	4571.4
2068.439	4606.4
2072.54	4631.4
2076.637	4671.4
2080.73	4702.4
2084.82	4715.4
2088.906	4747.4
2092.988	4755.4
2097.066	4739.4
2101.14	4683.4
2105.211	4688.4
2109.278	4634.4
2113.342	4626.4
2117.401	4589.4
2121.457	4542.4
2125.509	4548.4
2129.558	4502.4
2133.602	4512.4
2137.643	4465.4
2141.681	4411.4
2145.714	4428.4
2149.744	4390.4
2153.77	4334.4
2157.793	4300.4
2161.812	4228.4
2165.827	4184.4
2169.838	4131.4
2173.846	4041.4
2177.851	3973.4
2181.851	3933.4
2185.848	3900.4
2189.841	3830.4
2193.831	3811.4
2197.817	3754.4
2201.799	3737.4
2205.778	3722.4
2209.753	3716.4
2213.725	3707.4
2217.693	3657.4
2221.657	3684.4
2225.618	3670.4
2229.575	3662.4
2233.529	3610.4
2237.479	3596.4
2241.425	3546.4
2245.368	3514.4
2249.307	3441.4
2253.243	3425.4
2257.175	3341.4
2261.104	3316.4
2265.029	3259.4
2268.95	3247.4
2272.868	3227.4
2276.783	3172.4
2280.694	3139.4
2284.601	3106.4
2288.505	3102.4
2292.405	3059.4
2296.302	3032.4
2300.195	2996.4
2304.085	2951.4
2307.971	2917.4
2311.854	2873.4
2315.734	2835.4
2319.609	2779.4
2323.482	2749.4
2327.351	2725.4
2331.216	2702.4
2335.078	2683.4
2338.937	2669.4
2342.792	2660.4
2346.643	2637.4
2350.492	2643.4
2354.336	2661.4
2358.178	2651.4
2362.015	2659.4
2365.85	2653.4
2369.681	2623.4
2373.508	2665.4
2377.333	2663.4
2381.153	2626.4
2384.971	2633.4
2388.785	2609.4
2392.595	2575.4
2396.402	2557.4
2400.206	2550.4
2404.007	2510.4
2407.804	2513.4
2411.597	2491.4
2415.388	2487.4
2419.174	2456.4
2422.958	2461.4
2426.738	2426.4
2430.515	2403.4
2434.289	2359.4
2438.059	2381.4
2441.825	2360.4
2445.589	2331.4
2449.349	2299.4
2453.106	2274.4
2456.859	2224.4
2460.61	2215.4
2464.356	2183.4
2468.1	2186.4
2471.84	2129.4
2475.577	2102.4
2479.311	2119.4
2483.041	2122.4
2486.768	2118.4
2490.492	2087.4
2494.213	2099.4
2497.93	2087.4
2501.644	2076.4
2505.355	2047.4
2509.062	2050.4
2512.766	2053.4
2516.467	2039.4
2520.165	2008.4
2523.859	2012.4
2527.551	1993.4
2531.239	1971.4
2534.923	1990.4
2538.605	1971.4
2542.283	1967.4
2545.958	1937.4
2549.63	1964.4
2553.299	1961.4
2556.964	1962.4
2560.626	1946.4
2564.285	1946.4
2567.941	1925.4
2571.594	1931.4
2575.243	1912.4
2578.89	1889.4
2582.533	1908.4
2586.173	1872.4
2589.809	1864.4
2593.443	1832.4
2597.073	1811.4
2600.701	1782.4
2604.325	1769.4
2607.946	1784.4
2611.564	1759.4
2615.178	1764.4
2618.79	1746.4
2622.398	1743.4
2626.004	1713.4
2629.606	1696.4
2633.205	1669.4
2636.801	1647.4
2640.394	1616.4
2643.983	1590.4
2647.57	1589.4
2651.153	1554.4
2654.734	1497.4
2658.311	1483.4
2661.885	1477.4
2665.456	1463.4
2669.025	1435.4
2672.589	1413.4
2676.151	1410.4
2679.71	1390.4
2683.266	1355.4
2686.819	1333.4
2690.368	1328.4
2693.915	1264.4
2697.458	1264.4
2700.999	1224.4
2704.536	1200.4
2708.071	1192.4
2711.602	1158.4
2715.13	1103.4
2718.656	1114.4
2722.178	1108.4
2725.697	1081.4
2729.214	1087.4
2732.727	1059.4
2736.237	1049.4
2739.744	1036.4
2743.249	1071.4
2746.75	1052.4
2750.248	1085.4
2753.743	1113.4
2757.236	1123.4
2760.725	1137.4
2764.211	1131.4
2767.695	1147.4
2771.175	1127.4
2774.652	1119.4
2778.127	1100.4
2781.598	1097.4
2785.067	1105.4
2788.532	1084.4
2791.995	1064.4
2795.455	1079.4
2798.911	1083.4
2802.365	1085.4
2805.816	1090.4
2809.264	1089.4
2812.709	1087.4
2816.151	1092.4
2819.59	1093.4
2823.026	1079.4
2826.46	1090.4
2829.89	1094.4
2833.318	1093.4
2836.742	1098.4
2840.164	1101.4
2843.583	1112.4
2846.999	1117.4
2850.412	1124.4
2853.822	1123.4
2857.229	1127.4
2860.634	1155.4
2864.035	1183.4
2867.434	1212.4
2870.83	1213.4
2874.223	1226.4
2877.613	1257.4
2881	1270.4
2884.385	1260.4
2887.766	1271.4
2891.145	1265.4
2894.521	1253.4
2897.894	1253.4
2901.264	1253.4
2904.631	1247.4
2907.996	1261.4
2911.358	1240.4
2914.717	1259.4
2918.073	1280.4
2921.426	1280.4
2924.777	1297.4
2928.124	1296.4
2931.469	1337.4
2934.811	1356.4
2938.15	1375.4
2941.487	1372.4
2944.821	1376.4
2948.152	1380.4
2951.48	1375.4
2954.805	1347.4
2958.128	1366.4
2961.447	1333.4
2964.765	1333.4
2968.079	1307.4
2971.39	1336.4
2974.699	1358.4
2978.005	1381.4
2981.308	1409.4
2984.609	1453.4
2987.907	1462.4
2991.202	1480.4
2994.494	1504.4
2997.784	1546.4
3001.07	1561.4
3004.355	1592.4
3007.636	1605.4
3010.915	1635.4
3014.191	1641.4
3017.464	1658.4
3020.734	1689.4
3024.002	1675.4
3027.267	1699.4
3030.53	1674.4
3033.789	1709.4
3037.046	1718.4
3040.301	1749.4
3043.552	1782.4
3046.801	1823.4
3050.048	1835.4
3053.291	1914.4
3056.532	1935.4
3059.771	1992.4
3063.006	2051.4
3066.239	2111.4
3069.469	2200.4
3072.697	2228.4
3075.922	2273.4
3079.144	2333.4
3082.364	2368.4
3085.581	2421.4
3088.795	2494.4
3092.007	2539.4
3095.216	2601.4
3098.423	2634.4
3101.627	2722.4
3104.828	2751.4
3108.026	2826.4
3111.222	2878.4
3114.416	2956.4
3117.607	3018.4
3120.795	3055.4
3123.98	3128.4
3127.163	3243.4
3130.344	3313.4
3133.521	3378.4
3136.696	3437.4
3139.869	3539.4
3143.039	3579.4
3146.206	3617.4
3149.371	3642.4
3152.533	3715.4
3155.693	3721.4
3158.85	3745.4
3162.005	3740.4
3165.157	3768.4
3168.306	3759.4
3171.453	3776.4
3174.597	3802.4
3177.739	3771.4
3180.878	3806.4
3184.014	3831.4
3187.149	3803.4
3190.28	3811.4
3193.409	3823.4
3196.536	3812.4
3199.659	3840.4
3202.781	3808.4
3205.9	3845.4
3209.016	3807.4
3212.13	3786.4
3215.241	3805.4
3218.35	3743.4
3221.456	3704.4
3224.56	3676.4
3227.661	3567.4
3230.76	3588.4
3233.856	3563.4
3236.95	3557.4
3240.041	3517.4
3243.13	3472.4
3246.216	3471.4
3249.3	3428.4
3252.382	3415.4
3255.46	3411.4
3258.537	3357.4
3261.611	3395.4
3264.682	3411.4
3267.751	3400.4
3270.818	3391.4
3273.882	3397.4
3276.943	3351.4
3280.002	3332.4
3283.059	3307.4
3286.113	3250.4
3289.165	3217.4
3292.214	3160.4
3295.261	3109.4
3298.306	3069.4
3301.348	3033.4
3304.387	2978.4
3307.425	2908.4
3310.459	2885.4
3313.492	2821.4
3316.521	2803.4
3319.549	2742.4
3322.574	2733.4
3325.597	2728.4
3328.617	2675.4
3331.635	2671.4
3334.65	2649.4
3337.663	2622.4
3340.674	2609.4
3343.682	2622.4
3346.688	2615.4
3349.691	2592.4
3352.692	2570.4
3355.691	2576.4
3358.687	2544.4
3361.681	2514.4
3364.673	2468.4
3367.662	2446.4
3370.649	2387.4
3373.633	2356.4
3376.615	2358.4
3379.595	2300.4
3382.572	2272.4
3385.547	2240.4
3388.52	2200.4
3391.49	2169.4
3394.458	2127.4
3397.424	2097.4
3400.387	2061.4
3403.348	2069.4
3406.307	2023.4
3409.263	2002.4
3412.217	1967.4
3415.168	1976.4
3418.118	1922.4
3421.065	1911.4
3424.009	1877.4
3426.951	1835.4
3429.891	1805.4
3432.829	1777.4
3435.764	1719.4
3438.697	1686.4
3441.628	1642.4
3444.557	1612.4
3447.483	1551.4
3450.407	1528.4
3453.328	1463.4
3456.247	1434.4
3459.164	1359.4
3462.079	1318.4
3464.991	1276.4
3467.902	1226.4
3470.809	1184.4
3473.715	1134.4
3476.618	1099.4
3479.519	1054.4
3482.418	1011.4
3485.315	990.4
3488.209	966.4
3491.101	916.4
3493.99	903.4
3496.878	847.4
3499.763	825.4
3502.646	796.4
3505.527	760.4
3508.405	714.4
3511.281	672.4
3514.155	632.4
3517.027	618.4
3519.897	585.4
3522.764	539.4
3525.629	491.4
3528.492	452.4
3531.352	412.4
3534.211	374.4
3537.067	333.4
3539.921	302.4
3542.773	275.4
3545.622	242.4
3548.469	221.4
3551.315	195.4
3554.157	170.4
3556.998	125.4
3559.837	115.4
3562.673	92.4
3565.507	72.4
3568.339	41.4
3571.169	37.4
3573.996	9.4
3576.822	-5.6
3579.645	-30.6
3582.466	-38.6
3585.285	-67.6
3588.101	-92.6
3590.916	-100.6
3593.728	-126.6
3596.538	-137.6
3599.346	-152.6
3602.152	-164.6
3604.956	-183.6
3607.757	-206.6
3610.556	-221.6
3613.354	-228.6
3616.149	-246.6
3618.942	-258.6
3621.732	-269.6
3624.521	-281.6
3627.307	-277.6
3630.092	-293.6
3632.874	-308.6
3635.654	-311.6
3638.432	-320.6
3641.208	-322.6
3643.982	-339.6
3646.753	-345.6
3649.523	-351.6
3652.29	-362.6
3655.055	-364.6
3657.818	-379.6
3660.579	-387.6
3663.338	-408.6
3666.095	-409.6
3668.849	-417.6
3671.602	-423.6
3674.352	-430.6
3677.101	-432.6
3679.847	-445.6
3682.591	-453.6
3685.333	-453.6
3688.073	-465.6
3690.811	-469.6
3693.547	-472.6
3696.281	-475.6
3699.013	-485.6
3701.742	-492.6
3704.47	-487.6
3707.195	-504.6
3709.919	-497.6
3712.64	-506.6
3715.359	-504.6
3718.076	-509.6
3720.792	-508.6
3723.505	-512.6
3726.216	-520.6
3728.925	-511.6
3731.632	-524.6
3734.336	-524.6
3737.039	-524.6
3739.74	-524.6
3742.439	-535.6
3745.136	-531.6
3747.83	-540.6
3750.523	-538.6
3753.213	-543.6
3755.902	-547.6
3758.589	-544.6
3761.273	-552.6
3763.956	-548.6
3766.636	-549.6
3769.315	-561.6
3771.991	-553.6
3774.665	-555.6
3777.338	-555.6
3780.008	-559.6
3782.677	-558.6
3785.343	-555.6
3788.007	-565.6
3790.67	-554.6
3793.33	-563.6
3795.989	-563.6
3798.645	-559.6
3801.299	-564.6
3803.952	-574.6
3806.602	-575.6
3809.251	-575.6
3811.897	-571.6
3814.542	-577.6
3817.184	-576.6
3819.825	-576.6
3822.463	-570.6
3825.1	-579.6
3827.735	-571.6
3830.367	-573.6
3832.998	-576.6
3835.627	-577.6
3838.253	-584.6
3840.878	-586.6
3843.501	-578.6
3846.122	-572.6
3848.741	-573.6
3851.358	-577.6
3853.973	-584.6
3856.586	-583.6
3859.197	-589.6
3861.806	-585.6
3864.414	-578.6
3867.019	-582.6
3869.622	-583.6
3872.224	-581.6
3874.823	-567.6
3877.421	-555.6
3880.016	-544.6
3882.61	-530.6
3885.202	-527.6
3887.792	-535.6
3890.38	-560.6
3892.966	-575.6
3895.55	-590.6
3898.132	-595.6
3900.713	-597.6
3903.291	-593.6
3905.868	-598.6
3908.442	-594.6
3911.015	-595.6
3913.586	-598.6
3916.155	-593.6
3918.722	-601.6
3921.287	-598.6
3923.85	-606.6
3926.411	-595.6
3928.971	-608.6
3931.528	-606.6
3934.084	-600.6
3936.638	-606.6
3939.19	-604.6
3941.74	-606.6
3944.288	-605.6
3946.834	-598.6
3949.378	-599.6
3951.921	-599.6
3954.462	-609.6
3957	-600.6
3959.537	-604.6
3962.072	-604.6
3964.606	-600.6
3967.137	-596.6
3969.667	-602.6
3972.194	-591.6
3974.72	-602.6
3977.244	-585.6
3979.766	-584.6
3982.286	-590.6
3984.805	-588.6
3987.321	-588.6
3989.836	-592.6
3992.349	-585.6
3994.86	-584.6
3997.369	-598.6
3999.877	-585.6
4002.382	-585.6
4004.886	-591.6
4007.388	-585.6
4009.888	-588.6
4012.386	-591.6
4014.883	-587.6
4017.377	-585.6
4019.87	-588.6
4022.361	-586.6
4024.85	-584.6
4027.338	-586.6
4029.823	-588.6
4032.307	-592.6
4034.789	-581.6
4037.269	-588.6
4039.747	-585.6
4042.224	-590.6
4044.699	-590.6
4047.172	-590.6
4049.643	-587.6
4052.112	-596.6
4054.58	-589.6
4057.046	-599.6
4059.51	-591.6
4061.972	-596.6
4064.432	-592.6
4066.891	-586.6
4069.348	-590.6
4071.803	-587.6
4074.256	-593.6
4076.708	-587.6
4079.158	-589.6
4081.606	-589.6
4084.052	-592.6
4086.497	-594.6
4088.939	-589.6
4091.38	-590.6
4093.819	-588.6
4096.257	-621.6
4098.693	-620.6
4101.127	-626.6
4103.559	-620.6
4105.989	-369.6
4108.418	-338.6
4110.845	-321.6
4113.27	-299.6
4115.694	-260.6
4118.115	-211.6
4120.535	-588.6
4122.954	-592.6
4125.37	-581.6
4127.785	-589.6
4130.198	-589.6
4132.609	-587.6
4135.019	-621.6
4137.427	-622.6
4139.833	-621.6
4142.237	-617.6
