Data from 2018-2-14_conc=6_n=2_RamanShift_04.txt Node
Date: Wed Feb 14 14:47:25 IST 2018
User: aro
Spectrometer: QEPB0276
Trigger mode: 0
Integration Time (sec): 3.000000E1
Scans to average: 1
Electric dark correction enabled: true
Nonlinearity correction enabled: false
Boxcar width: 0
XAxis mode: Raman Shifts
Number of Pixels in Spectrum: 1044
>>>>>Begin Spectral Data<<<<<
160.701	-137.4
166.742	48.6
172.777	568.6
178.805	2183.6
184.826	6023.6
190.841	12542.6
196.849	20175.6
202.85	25629.6
208.845	27416.6
214.833	27128.6
220.815	26795.6
226.789	26607.6
232.758	26445.6
238.719	26301.6
244.674	26048.6
250.623	25486.6
256.565	25011.6
262.5	24488.6
268.429	24124.6
274.351	23723.6
280.267	23463.6
286.176	23196.6
292.079	22972.6
297.975	22833.6
303.865	22568.6
309.748	22486.6
315.625	22306.6
321.495	22245.6
327.359	22142.6
333.217	22112.6
339.068	22073.6
344.912	22036.6
350.751	21995.6
356.583	22041.6
362.408	22005.6
368.227	22033.6
374.04	22097.6
379.847	22140.6
385.647	22203.6
391.44	22286.6
397.228	22368.6
403.009	22444.6
408.784	22501.6
414.553	22610.6
420.315	22653.6
426.071	22654.6
431.821	22638.6
437.565	22557.6
443.302	22535.6
449.033	22482.6
454.758	22420.6
460.477	22446.6
466.189	22404.6
471.896	22317.6
477.596	22263.6
483.29	22185.6
488.978	22166.6
494.66	22098.6
500.335	21948.6
506.005	21634.6
511.668	21398.6
517.325	21142.6
522.977	20934.6
528.622	20738.6
534.261	20611.6
539.894	20500.6
545.521	20376.6
551.141	20336.6
556.756	20224.6
562.365	20112.6
567.968	20064.6
573.565	20018.6
579.155	19970.6
584.74	19838.6
590.319	19770.6
595.892	19679.6
601.459	19590.6
607.02	19556.6
612.575	19408.6
618.124	19312.6
623.667	19172.6
629.204	19064.6
634.735	19014.6
640.261	18882.6
645.781	18845.6
651.294	18780.6
656.802	18762.6
662.304	18710.6
667.8	18728.6
673.29	18629.6
678.775	18611.6
684.254	18570.6
689.726	18496.6
695.193	18439.6
700.655	18344.6
706.11	18215.6
711.56	18204.6
717.004	18076.6
722.442	17955.6
727.874	17895.6
733.301	17822.6
738.722	17766.6
744.137	17734.6
749.547	17716.6
754.951	17730.6
760.349	17705.6
765.741	17674.6
771.128	17740.6
776.509	17798.6
781.885	17776.6
787.254	17722.6
792.618	17678.6
797.977	17477.6
803.33	17414.6
808.677	17324.6
814.019	17212.6
819.355	17103.6
824.686	17049.6
830.011	16962.6
835.33	16968.6
840.644	16984.6
845.952	17016.6
851.255	17057.6
856.552	17032.6
861.844	16999.6
867.13	16919.6
872.41	16904.6
877.686	16811.6
882.955	16691.6
888.219	16523.6
893.478	16367.6
898.731	16129.6
903.979	15983.6
909.221	15793.6
914.458	15824.6
919.69	15766.6
924.916	15882.6
930.136	15870.6
935.351	15930.6
940.561	15862.6
945.766	15811.6
950.965	15770.6
956.158	15655.6
961.347	15462.6
966.529	15278.6
971.707	15084.6
976.879	14977.6
982.046	14755.6
987.208	14783.6
992.364	14754.6
997.515	14817.6
1002.66	14934.6
1007.801	15099.6
1012.936	15204.6
1018.066	15234.6
1023.19	15166.6
1028.309	15222.6
1033.423	15209.6
1038.532	15082.6
1043.636	14946.6
1048.734	14780.6
1053.827	14580.6
1058.915	14378.6
1063.998	14346.6
1069.075	14288.6
1074.147	14281.6
1079.214	14345.6
1084.276	14426.6
1089.333	14511.6
1094.385	14581.6
1099.431	14655.6
1104.472	14576.6
1109.509	14502.6
1114.54	14369.6
1119.565	14174.6
1124.586	13986.6
1129.602	13798.6
1134.613	13766.6
1139.618	13628.6
1144.619	13570.6
1149.614	13618.6
1154.604	13613.6
1159.589	13663.6
1164.57	13698.6
1169.545	13691.6
1174.515	13741.6
1179.48	13654.6
1184.44	13528.6
1189.395	13408.6
1194.345	13363.6
1199.29	13277.6
1204.23	13254.6
1209.165	13283.6
1214.095	13367.6
1219.021	13409.6
1223.941	13524.6
1228.856	13559.6
1233.766	13609.6
1238.672	13624.6
1243.572	13609.6
1248.467	13481.6
1253.358	13335.6
1258.244	13169.6
1263.124	12946.6
1268	12753.6
1272.871	12600.6
1277.737	12470.6
1282.599	12434.6
1287.455	12452.6
1292.306	12488.6
1297.153	12518.6
1301.995	12522.6
1306.832	12529.6
1311.664	12556.6
1316.491	12520.6
1321.314	12433.6
1326.132	12238.6
1330.945	11940.6
1335.753	11674.6
1340.556	11396.6
1345.354	11187.6
1350.148	10960.6
1354.937	10885.6
1359.722	10894.6
1364.501	10925.6
1369.276	10987.6
1374.046	11092.6
1378.811	11262.6
1383.572	11361.6
1388.327	11361.6
1393.079	11319.6
1397.825	11205.6
1402.567	11078.6
1407.304	10982.6
1412.036	10837.6
1416.764	10785.6
1421.487	10709.6
1426.205	10693.6
1430.919	10637.6
1435.628	10645.6
1440.333	10614.6
1445.032	10617.6
1449.727	10670.6
1454.418	10659.6
1459.104	10540.6
1463.785	10318.6
1468.462	10084.6
1473.134	9913.6
1477.802	9722.6
1482.465	9506.6
1487.123	9415.6
1491.777	9378.6
1496.426	9404.6
1501.071	9463.6
1505.711	9623.6
1510.347	9738.6
1514.978	9914.6
1519.604	10008.6
1524.226	10132.6
1528.844	10138.6
1533.457	10078.6
1538.065	10121.6
1542.669	10017.6
1547.269	9940.6
1551.864	9896.6
1556.454	9869.6
1561.041	9901.6
1565.622	9874.6
1570.199	9867.6
1574.772	9984.6
1579.34	9947.6
1583.904	10065.6
1588.464	10089.6
1593.019	10094.6
1597.569	10060.6
1602.115	10017.6
1606.657	9978.6
1611.195	9911.6
1615.728	9821.6
1620.256	9799.6
1624.78	9743.6
1629.3	9766.6
1633.816	9813.6
1638.327	9817.6
1642.834	9870.6
1647.336	9891.6
1651.834	9898.6
1656.328	9886.6
1660.817	9777.6
1665.302	9759.6
1669.783	9521.6
1674.259	9308.6
1678.732	9011.6
1683.199	8722.6
1687.663	8446.6
1692.122	8164.6
1696.577	8046.6
1701.028	7982.6
1705.474	8005.6
1709.917	8047.6
1714.355	8097.6
1718.788	8045.6
1723.218	7934.6
1727.643	7795.6
1732.064	7647.6
1736.481	7507.6
1740.893	7307.6
1745.301	7125.6
1749.705	6940.6
1754.105	6712.6
1758.501	6553.6
1762.893	6396.6
1767.28	6183.6
1771.663	6062.6
1776.042	5934.6
1780.417	5890.6
1784.787	5867.6
1789.154	5928.6
1793.516	6008.6
1797.874	6127.6
1802.228	6198.6
1806.578	6245.6
1810.924	6280.6
1815.266	6185.6
1819.603	6136.6
1823.937	6041.6
1828.266	5928.6
1832.591	5861.6
1836.913	5762.6
1841.23	5717.6
1845.543	5723.6
1849.852	5686.6
1854.156	5624.6
1858.457	5653.6
1862.754	5618.6
1867.047	5654.6
1871.335	5588.6
1875.62	5589.6
1879.9	5609.6
1884.177	5504.6
1888.449	5482.6
1892.718	5403.6
1896.982	5346.6
1901.243	5291.6
1905.499	5255.6
1909.752	5214.6
1914	5229.6
1918.245	5227.6
1922.485	5255.6
1926.722	5330.6
1930.954	5379.6
1935.183	5426.6
1939.408	5474.6
1943.628	5504.6
1947.845	5527.6
1952.058	5503.6
1956.267	5468.6
1960.472	5391.6
1964.673	5316.6
1968.87	5228.6
1973.063	5153.6
1977.252	5079.6
1981.438	5030.6
1985.619	4962.6
1989.797	4966.6
1993.971	4919.6
1998.14	4927.6
2002.306	4889.6
2006.469	4895.6
2010.627	4848.6
2014.781	4807.6
2018.932	4777.6
2023.078	4722.6
2027.221	4647.6
2031.36	4569.6
2035.495	4505.6
2039.627	4447.6
2043.754	4355.6
2047.878	4322.6
2051.998	4281.6
2056.114	4288.6
2060.226	4284.6
2064.334	4289.6
2068.439	4302.6
2072.54	4314.6
2076.637	4328.6
2080.73	4363.6
2084.82	4385.6
2088.906	4404.6
2092.988	4379.6
2097.066	4392.6
2101.14	4375.6
2105.211	4328.6
2109.278	4293.6
2113.342	4251.6
2117.401	4241.6
2121.457	4257.6
2125.509	4234.6
2129.558	4163.6
2133.602	4162.6
2137.643	4128.6
2141.681	4122.6
2145.714	4108.6
2149.744	4103.6
2153.77	4047.6
2157.793	4012.6
2161.812	3963.6
2165.827	3892.6
2169.838	3842.6
2173.846	3800.6
2177.851	3686.6
2181.851	3652.6
2185.848	3607.6
2189.841	3562.6
2193.831	3523.6
2197.817	3502.6
2201.799	3500.6
2205.778	3476.6
2209.753	3442.6
2213.725	3432.6
2217.693	3423.6
2221.657	3436.6
2225.618	3418.6
2229.575	3387.6
2233.529	3356.6
2237.479	3342.6
2241.425	3297.6
2245.368	3223.6
2249.307	3203.6
2253.243	3141.6
2257.175	3103.6
2261.104	3052.6
2265.029	3070.6
2268.95	2995.6
2272.868	2965.6
2276.783	2943.6
2280.694	2912.6
2284.601	2893.6
2288.505	2867.6
2292.405	2819.6
2296.302	2783.6
2300.195	2739.6
2304.085	2737.6
2307.971	2687.6
2311.854	2648.6
2315.734	2612.6
2319.609	2570.6
2323.482	2548.6
2327.351	2529.6
2331.216	2525.6
2335.078	2526.6
2338.937	2503.6
2342.792	2474.6
2346.643	2454.6
2350.492	2474.6
2354.336	2470.6
2358.178	2460.6
2362.015	2467.6
2365.85	2487.6
2369.681	2471.6
2373.508	2474.6
2377.333	2496.6
2381.153	2461.6
2384.971	2471.6
2388.785	2427.6
2392.595	2423.6
2396.402	2396.6
2400.206	2377.6
2404.007	2352.6
2407.804	2330.6
2411.597	2351.6
2415.388	2329.6
2419.174	2300.6
2422.958	2291.6
2426.738	2260.6
2430.515	2250.6
2434.289	2223.6
2438.059	2235.6
2441.825	2175.6
2445.589	2170.6
2449.349	2152.6
2453.106	2128.6
2456.859	2096.6
2460.61	2049.6
2464.356	2018.6
2468.1	2007.6
2471.84	1974.6
2475.577	1964.6
2479.311	1966.6
2483.041	1935.6
2486.768	1921.6
2490.492	1915.6
2494.213	1914.6
2497.93	1911.6
2501.644	1890.6
2505.355	1890.6
2509.062	1851.6
2512.766	1858.6
2516.467	1843.6
2520.165	1840.6
2523.859	1811.6
2527.551	1810.6
2531.239	1784.6
2534.923	1798.6
2538.605	1773.6
2542.283	1775.6
2545.958	1771.6
2549.63	1782.6
2553.299	1774.6
2556.964	1757.6
2560.626	1747.6
2564.285	1708.6
2567.941	1738.6
2571.594	1701.6
2575.243	1698.6
2578.89	1663.6
2582.533	1681.6
2586.173	1673.6
2589.809	1644.6
2593.443	1622.6
2597.073	1619.6
2600.701	1593.6
2604.325	1585.6
2607.946	1567.6
2611.564	1553.6
2615.178	1556.6
2618.79	1550.6
2622.398	1527.6
2626.004	1508.6
2629.606	1511.6
2633.205	1481.6
2636.801	1435.6
2640.394	1457.6
2643.983	1409.6
2647.57	1402.6
2651.153	1366.6
2654.734	1347.6
2658.311	1321.6
2661.885	1290.6
2665.456	1276.6
2669.025	1274.6
2672.589	1253.6
2676.151	1226.6
2679.71	1196.6
2683.266	1207.6
2686.819	1179.6
2690.368	1164.6
2693.915	1145.6
2697.458	1115.6
2700.999	1077.6
2704.536	1054.6
2708.071	1024.6
2711.602	1016.6
2715.13	987.6
2718.656	956.6
2722.178	944.6
2725.697	923.6
2729.214	910.6
2732.727	916.6
2736.237	884.6
2739.744	905.6
2743.249	914.6
2746.75	914.6
2750.248	891.6
2753.743	919.6
2757.236	921.6
2760.725	923.6
2764.211	915.6
2767.695	944.6
2771.175	946.6
2774.652	914.6
2778.127	938.6
2781.598	914.6
2785.067	921.6
2788.532	908.6
2791.995	907.6
2795.455	903.6
2798.911	902.6
2802.365	934.6
2805.816	902.6
2809.264	931.6
2812.709	917.6
2816.151	915.6
2819.59	939.6
2823.026	917.6
2826.46	906.6
2829.89	908.6
2833.318	921.6
2836.742	928.6
2840.164	927.6
2843.583	948.6
2846.999	949.6
2850.412	951.6
2853.822	971.6
2857.229	995.6
2860.634	1033.6
2864.035	1030.6
2867.434	1049.6
2870.83	1056.6
2874.223	1086.6
2877.613	1101.6
2881	1107.6
2884.385	1125.6
2887.766	1148.6
2891.145	1137.6
2894.521	1131.6
2897.894	1119.6
2901.264	1131.6
2904.631	1128.6
2907.996	1144.6
2911.358	1123.6
2914.717	1156.6
2918.073	1162.6
2921.426	1154.6
2924.777	1174.6
2928.124	1217.6
2931.469	1223.6
2934.811	1239.6
2938.15	1269.6
2941.487	1283.6
2944.821	1284.6
2948.152	1261.6
2951.48	1267.6
2954.805	1256.6
2958.128	1250.6
2961.447	1234.6
2964.765	1235.6
2968.079	1222.6
2971.39	1259.6
2974.699	1257.6
2978.005	1278.6
2981.308	1291.6
2984.609	1311.6
2987.907	1337.6
2991.202	1373.6
2994.494	1389.6
2997.784	1436.6
3001.07	1470.6
3004.355	1475.6
3007.636	1508.6
3010.915	1533.6
3014.191	1541.6
3017.464	1545.6
3020.734	1567.6
3024.002	1548.6
3027.267	1585.6
3030.53	1609.6
3033.789	1631.6
3037.046	1632.6
3040.301	1686.6
3043.552	1688.6
3046.801	1731.6
3050.048	1784.6
3053.291	1848.6
3056.532	1896.6
3059.771	1937.6
3063.006	1989.6
3066.239	2051.6
3069.469	2105.6
3072.697	2175.6
3075.922	2237.6
3079.144	2282.6
3082.364	2357.6
3085.581	2390.6
3088.795	2449.6
3092.007	2502.6
3095.216	2534.6
3098.423	2579.6
3101.627	2667.6
3104.828	2720.6
3108.026	2765.6
3111.222	2857.6
3114.416	2946.6
3117.607	2971.6
3120.795	3023.6
3123.98	3119.6
3127.163	3194.6
3130.344	3273.6
3133.521	3350.6
3136.696	3427.6
3139.869	3499.6
3143.039	3587.6
3146.206	3590.6
3149.371	3646.6
3152.533	3682.6
3155.693	3715.6
3158.85	3724.6
3162.005	3772.6
3165.157	3750.6
3168.306	3772.6
3171.453	3793.6
3174.597	3793.6
3177.739	3808.6
3180.878	3785.6
3184.014	3815.6
3187.149	3792.6
3190.28	3817.6
3193.409	3797.6
3196.536	3800.6
3199.659	3824.6
3202.781	3842.6
3205.9	3796.6
3209.016	3824.6
3212.13	3781.6
3215.241	3755.6
3218.35	3727.6
3221.456	3680.6
3224.56	3642.6
3227.661	3605.6
3230.76	3590.6
3233.856	3529.6
3236.95	3484.6
3240.041	3484.6
3243.13	3426.6
3246.216	3428.6
3249.3	3395.6
3252.382	3389.6
3255.46	3382.6
3258.537	3329.6
3261.611	3354.6
3264.682	3364.6
3267.751	3349.6
3270.818	3334.6
3273.882	3347.6
3276.943	3300.6
3280.002	3296.6
3283.059	3281.6
3286.113	3237.6
3289.165	3193.6
3292.214	3155.6
3295.261	3086.6
3298.306	3062.6
3301.348	3009.6
3304.387	2948.6
3307.425	2888.6
3310.459	2845.6
3313.492	2812.6
3316.521	2782.6
3319.549	2757.6
3322.574	2714.6
3325.597	2681.6
3328.617	2680.6
3331.635	2662.6
3334.65	2674.6
3337.663	2624.6
3340.674	2616.6
3343.682	2594.6
3346.688	2601.6
3349.691	2604.6
3352.692	2575.6
3355.691	2546.6
3358.687	2543.6
3361.681	2510.6
3364.673	2470.6
3367.662	2426.6
3370.649	2381.6
3373.633	2369.6
3376.615	2337.6
3379.595	2294.6
3382.572	2272.6
3385.547	2230.6
3388.52	2189.6
3391.49	2183.6
3394.458	2146.6
3397.424	2105.6
3400.387	2085.6
3403.348	2043.6
3406.307	2017.6
3409.263	1979.6
3412.217	1980.6
3415.168	1936.6
3418.118	1918.6
3421.065	1894.6
3424.009	1889.6
3426.951	1837.6
3429.891	1799.6
3432.829	1761.6
3435.764	1726.6
3438.697	1690.6
3441.628	1607.6
3444.557	1577.6
3447.483	1516.6
3450.407	1511.6
3453.328	1435.6
3456.247	1392.6
3459.164	1321.6
3462.079	1293.6
3464.991	1243.6
3467.902	1189.6
3470.809	1132.6
3473.715	1102.6
3476.618	1080.6
3479.519	1012.6
3482.418	985.6
3485.315	960.6
3488.209	924.6
3491.101	880.6
3493.99	841.6
3496.878	812.6
3499.763	780.6
3502.646	740.6
3505.527	705.6
3508.405	688.6
3511.281	633.6
3514.155	602.6
3517.027	555.6
3519.897	522.6
3522.764	490.6
3525.629	446.6
3528.492	410.6
3531.352	386.6
3534.211	320.6
3537.067	307.6
3539.921	267.6
3542.773	240.6
3545.622	207.6
3548.469	178.6
3551.315	151.6
3554.157	144.6
3556.998	86.6
3559.837	80.6
3562.673	46.6
3565.507	34.6
3568.339	3.6
3571.169	-0.4
3573.996	-32.4
3576.822	-52.4
3579.645	-68.4
3582.466	-96.4
3585.285	-110.4
3588.101	-129.4
3590.916	-134.4
3593.728	-170.4
3596.538	-176.4
3599.346	-203.4
3602.152	-216.4
3604.956	-226.4
3607.757	-237.4
3610.556	-258.4
3613.354	-269.4
3616.149	-277.4
3618.942	-288.4
3621.732	-307.4
3624.521	-316.4
3627.307	-326.4
3630.092	-329.4
3632.874	-343.4
3635.654	-356.4
3638.432	-352.4
3641.208	-370.4
3643.982	-382.4
3646.753	-386.4
3649.523	-407.4
3652.29	-403.4
3655.055	-411.4
3657.818	-425.4
3660.579	-431.4
3663.338	-454.4
3666.095	-450.4
3668.849	-468.4
3671.602	-467.4
3674.352	-486.4
3677.101	-480.4
3679.847	-494.4
3682.591	-499.4
3685.333	-501.4
3688.073	-503.4
3690.811	-512.4
3693.547	-519.4
3696.281	-519.4
3699.013	-527.4
3701.742	-527.4
3704.47	-534.4
3707.195	-541.4
3709.919	-543.4
3712.64	-546.4
3715.359	-548.4
3718.076	-558.4
3720.792	-555.4
3723.505	-561.4
3726.216	-563.4
3728.925	-560.4
3731.632	-572.4
3734.336	-575.4
3737.039	-578.4
3739.74	-569.4
3742.439	-579.4
3745.136	-581.4
3747.83	-582.4
3750.523	-584.4
3753.213	-580.4
3755.902	-595.4
3758.589	-586.4
3761.273	-591.4
3763.956	-595.4
3766.636	-594.4
3769.315	-600.4
3771.991	-602.4
3774.665	-607.4
3777.338	-607.4
3780.008	-608.4
3782.677	-607.4
3785.343	-603.4
3788.007	-611.4
3790.67	-606.4
3793.33	-609.4
3795.989	-609.4
3798.645	-605.4
3801.299	-602.4
3803.952	-616.4
3806.602	-621.4
3809.251	-621.4
3811.897	-616.4
3814.542	-617.4
3817.184	-615.4
3819.825	-609.4
3822.463	-618.4
3825.1	-621.4
3827.735	-616.4
3830.367	-615.4
3832.998	-625.4
3835.627	-622.4
3838.253	-623.4
3840.878	-630.4
3843.501	-626.4
3846.122	-623.4
3848.741	-625.4
3851.358	-626.4
3853.973	-628.4
3856.586	-635.4
3859.197	-634.4
3861.806	-630.4
3864.414	-630.4
3867.019	-624.4
3869.622	-622.4
3872.224	-619.4
3874.823	-608.4
3877.421	-593.4
3880.016	-569.4
3882.61	-555.4
3885.202	-550.4
3887.792	-562.4
3890.38	-598.4
3892.966	-613.4
3895.55	-637.4
3898.132	-648.4
3900.713	-644.4
3903.291	-639.4
3905.868	-642.4
3908.442	-642.4
3911.015	-648.4
3913.586	-640.4
3916.155	-636.4
3918.722	-642.4
3921.287	-644.4
3923.85	-643.4
3926.411	-642.4
3928.971	-645.4
3931.528	-646.4
3934.084	-640.4
3936.638	-642.4
3939.19	-645.4
3941.74	-642.4
3944.288	-649.4
3946.834	-641.4
3949.378	-647.4
3951.921	-639.4
3954.462	-648.4
3957	-649.4
3959.537	-647.4
3962.072	-643.4
3964.606	-643.4
3967.137	-646.4
3969.667	-643.4
3972.194	-641.4
3974.72	-640.4
3977.244	-629.4
3979.766	-629.4
3982.286	-635.4
3984.805	-627.4
3987.321	-626.4
3989.836	-630.4
3992.349	-626.4
3994.86	-629.4
3997.369	-635.4
3999.877	-625.4
4002.382	-628.4
4004.886	-631.4
4007.388	-628.4
4009.888	-627.4
4012.386	-634.4
4014.883	-630.4
4017.377	-628.4
4019.87	-628.4
4022.361	-628.4
4024.85	-630.4
4027.338	-633.4
4029.823	-629.4
4032.307	-635.4
4034.789	-628.4
4037.269	-630.4
4039.747	-630.4
4042.224	-634.4
4044.699	-632.4
4047.172	-627.4
4049.643	-627.4
4052.112	-641.4
4054.58	-630.4
4057.046	-642.4
4059.51	-632.4
4061.972	-632.4
4064.432	-639.4
4066.891	-633.4
4069.348	-631.4
4071.803	-631.4
4074.256	-629.4
4076.708	-632.4
4079.158	-633.4
4081.606	-634.4
4084.052	-638.4
4086.497	-633.4
4088.939	-624.4
4091.38	-630.4
4093.819	-630.4
4096.257	-662.4
4098.693	-663.4
4101.127	-665.4
4103.559	-663.4
4105.989	-380.4
4108.418	-355.4
4110.845	-340.4
4113.27	-319.4
4115.694	-279.4
4118.115	-236.4
4120.535	-631.4
4122.954	-632.4
4125.37	-618.4
4127.785	-629.4
4130.198	-636.4
4132.609	-636.4
4135.019	-664.4
4137.427	-668.4
4139.833	-668.4
4142.237	-662.4
