Data from 2018-2-14_conc=6_n=2_RamanShift_03.txt Node
Date: Wed Feb 14 14:46:55 IST 2018
User: aro
Spectrometer: QEPB0276
Trigger mode: 0
Integration Time (sec): 3.000000E1
Scans to average: 1
Electric dark correction enabled: true
Nonlinearity correction enabled: false
Boxcar width: 0
XAxis mode: Raman Shifts
Number of Pixels in Spectrum: 1044
>>>>>Begin Spectral Data<<<<<
160.701	-156.5
166.742	43.5
172.777	599.5
178.805	2304.5
184.826	6350.5
190.841	13319.5
196.849	21398.5
202.85	27169.5
208.845	29085.5
214.833	28810.5
220.815	28437.5
226.789	28290.5
232.758	28145.5
238.719	27967.5
244.674	27654.5
250.623	27201.5
256.565	26691.5
262.5	26182.5
268.429	25684.5
274.351	25391.5
280.267	25069.5
286.176	24857.5
292.079	24635.5
297.975	24448.5
303.865	24284.5
309.748	24124.5
315.625	23987.5
321.495	23835.5
327.359	23776.5
333.217	23701.5
339.068	23712.5
344.912	23648.5
350.751	23632.5
356.583	23611.5
362.408	23572.5
368.227	23663.5
374.04	23667.5
379.847	23703.5
385.647	23787.5
391.44	23827.5
397.228	24006.5
403.009	24046.5
408.784	24095.5
414.553	24230.5
420.315	24319.5
426.071	24276.5
431.821	24318.5
437.565	24189.5
443.302	24125.5
449.033	24173.5
454.758	24131.5
460.477	24072.5
466.189	24020.5
471.896	23982.5
477.596	23921.5
483.29	23867.5
488.978	23821.5
494.66	23734.5
500.335	23631.5
506.005	23415.5
511.668	23123.5
517.325	22799.5
522.977	22609.5
528.622	22408.5
534.261	22317.5
539.894	22173.5
545.521	22091.5
551.141	21997.5
556.756	21964.5
562.365	21802.5
567.968	21811.5
573.565	21772.5
579.155	21639.5
584.74	21569.5
590.319	21460.5
595.892	21409.5
601.459	21287.5
607.02	21200.5
612.575	21079.5
618.124	20971.5
623.667	20828.5
629.204	20785.5
634.735	20556.5
640.261	20565.5
645.781	20451.5
651.294	20438.5
656.802	20389.5
662.304	20328.5
667.8	20333.5
673.29	20322.5
678.775	20273.5
684.254	20192.5
689.726	20146.5
695.193	20085.5
700.655	19929.5
706.11	19842.5
711.56	19740.5
717.004	19628.5
722.442	19623.5
727.874	19518.5
733.301	19402.5
738.722	19403.5
744.137	19335.5
749.547	19372.5
754.951	19330.5
760.349	19382.5
765.741	19306.5
771.128	19331.5
776.509	19380.5
781.885	19376.5
787.254	19294.5
792.618	19295.5
797.977	19104.5
803.33	19017.5
808.677	18859.5
814.019	18787.5
819.355	18712.5
824.686	18609.5
830.011	18579.5
835.33	18522.5
840.644	18609.5
845.952	18562.5
851.255	18612.5
856.552	18639.5
861.844	18639.5
867.13	18561.5
872.41	18486.5
877.686	18380.5
882.955	18280.5
888.219	18105.5
893.478	17958.5
898.731	17704.5
903.979	17489.5
909.221	17452.5
914.458	17333.5
919.69	17339.5
924.916	17353.5
930.136	17499.5
935.351	17454.5
940.561	17470.5
945.766	17423.5
950.965	17285.5
956.158	17198.5
961.347	16989.5
966.529	16846.5
971.707	16603.5
976.879	16380.5
982.046	16323.5
987.208	16218.5
992.364	16230.5
997.515	16311.5
1002.66	16474.5
1007.801	16616.5
1012.936	16750.5
1018.066	16760.5
1023.19	16768.5
1028.309	16752.5
1033.423	16699.5
1038.532	16621.5
1043.636	16467.5
1048.734	16235.5
1053.827	16079.5
1058.915	15957.5
1063.998	15799.5
1069.075	15749.5
1074.147	15782.5
1079.214	15864.5
1084.276	15909.5
1089.333	16019.5
1094.385	16092.5
1099.431	16151.5
1104.472	16117.5
1109.509	16054.5
1114.54	15857.5
1119.565	15636.5
1124.586	15411.5
1129.602	15276.5
1134.613	15177.5
1139.618	15047.5
1144.619	15094.5
1149.614	15050.5
1154.604	15085.5
1159.589	15143.5
1164.57	15140.5
1169.545	15165.5
1174.515	15195.5
1179.48	15083.5
1184.44	14992.5
1189.395	14867.5
1194.345	14816.5
1199.29	14715.5
1204.23	14672.5
1209.165	14721.5
1214.095	14832.5
1219.021	14896.5
1223.941	14951.5
1228.856	15061.5
1233.766	15082.5
1238.672	15086.5
1243.572	15080.5
1248.467	14978.5
1253.358	14794.5
1258.244	14622.5
1263.124	14375.5
1268	14162.5
1272.871	13944.5
1277.737	13882.5
1282.599	13815.5
1287.455	13876.5
1292.306	13854.5
1297.153	13883.5
1301.995	13945.5
1306.832	14011.5
1311.664	14064.5
1316.491	13943.5
1321.314	13881.5
1326.132	13615.5
1330.945	13354.5
1335.753	12967.5
1340.556	12616.5
1345.354	12405.5
1350.148	12176.5
1354.937	12047.5
1359.722	12000.5
1364.501	12042.5
1369.276	12154.5
1374.046	12316.5
1378.811	12529.5
1383.572	12635.5
1388.327	12665.5
1393.079	12651.5
1397.825	12569.5
1402.567	12316.5
1407.304	12198.5
1412.036	12102.5
1416.764	12019.5
1421.487	11920.5
1426.205	11893.5
1430.919	11818.5
1435.628	11859.5
1440.333	11898.5
1445.032	11879.5
1449.727	11928.5
1454.418	11857.5
1459.104	11728.5
1463.785	11493.5
1468.462	11255.5
1473.134	11032.5
1477.802	10747.5
1482.465	10573.5
1487.123	10393.5
1491.777	10390.5
1496.426	10373.5
1501.071	10417.5
1505.711	10562.5
1510.347	10768.5
1514.978	11005.5
1519.604	11159.5
1524.226	11254.5
1528.844	11346.5
1533.457	11347.5
1538.065	11293.5
1542.669	11197.5
1547.269	11139.5
1551.864	11094.5
1556.454	11020.5
1561.041	11016.5
1565.622	11024.5
1570.199	11059.5
1574.772	11108.5
1579.34	11138.5
1583.904	11224.5
1588.464	11252.5
1593.019	11241.5
1597.569	11211.5
1602.115	11148.5
1606.657	11070.5
1611.195	10972.5
1615.728	10869.5
1620.256	10844.5
1624.78	10852.5
1629.3	10790.5
1633.816	10832.5
1638.327	10854.5
1642.834	10921.5
1647.336	10961.5
1651.834	10936.5
1656.328	10938.5
1660.817	10859.5
1665.302	10772.5
1669.783	10545.5
1674.259	10311.5
1678.732	10003.5
1683.199	9651.5
1687.663	9270.5
1692.122	8926.5
1696.577	8783.5
1701.028	8734.5
1705.474	8803.5
1709.917	8876.5
1714.355	8999.5
1718.788	8946.5
1723.218	8860.5
1727.643	8743.5
1732.064	8549.5
1736.481	8387.5
1740.893	8228.5
1745.301	7988.5
1749.705	7810.5
1754.105	7538.5
1758.501	7325.5
1762.893	7136.5
1767.28	6969.5
1771.663	6770.5
1776.042	6600.5
1780.417	6525.5
1784.787	6509.5
1789.154	6492.5
1793.516	6609.5
1797.874	6756.5
1802.228	6910.5
1806.578	6982.5
1810.924	7025.5
1815.266	6978.5
1819.603	6882.5
1823.937	6788.5
1828.266	6688.5
1832.591	6591.5
1836.913	6501.5
1841.23	6460.5
1845.543	6364.5
1849.852	6374.5
1854.156	6331.5
1858.457	6286.5
1862.754	6307.5
1867.047	6294.5
1871.335	6268.5
1875.62	6238.5
1879.9	6249.5
1884.177	6183.5
1888.449	6113.5
1892.718	6049.5
1896.982	5947.5
1901.243	5866.5
1905.499	5835.5
1909.752	5810.5
1914	5716.5
1918.245	5761.5
1922.485	5832.5
1926.722	5874.5
1930.954	5908.5
1935.183	5985.5
1939.408	6069.5
1943.628	6137.5
1947.845	6154.5
1952.058	6131.5
1956.267	6113.5
1960.472	6023.5
1964.673	5934.5
1968.87	5838.5
1973.063	5763.5
1977.252	5714.5
1981.438	5671.5
1985.619	5598.5
1989.797	5559.5
1993.971	5524.5
1998.14	5472.5
2002.306	5478.5
2006.469	5443.5
2010.627	5439.5
2014.781	5385.5
2018.932	5310.5
2023.078	5286.5
2027.221	5225.5
2031.36	5145.5
2035.495	5050.5
2039.627	4943.5
2043.754	4944.5
2047.878	4827.5
2051.998	4793.5
2056.114	4778.5
2060.226	4777.5
2064.334	4762.5
2068.439	4741.5
2072.54	4796.5
2076.637	4819.5
2080.73	4824.5
2084.82	4831.5
2088.906	4887.5
2092.988	4887.5
2097.066	4865.5
2101.14	4841.5
2105.211	4774.5
2109.278	4771.5
2113.342	4768.5
2117.401	4733.5
2121.457	4718.5
2125.509	4695.5
2129.558	4685.5
2133.602	4645.5
2137.643	4624.5
2141.681	4638.5
2145.714	4610.5
2149.744	4582.5
2153.77	4535.5
2157.793	4505.5
2161.812	4419.5
2165.827	4370.5
2169.838	4314.5
2173.846	4283.5
2177.851	4192.5
2181.851	4107.5
2185.848	4070.5
2189.841	4040.5
2193.831	3991.5
2197.817	3990.5
2201.799	3940.5
2205.778	3926.5
2209.753	3895.5
2213.725	3906.5
2217.693	3877.5
2221.657	3858.5
2225.618	3865.5
2229.575	3835.5
2233.529	3796.5
2237.479	3754.5
2241.425	3708.5
2245.368	3691.5
2249.307	3626.5
2253.243	3574.5
2257.175	3546.5
2261.104	3467.5
2265.029	3425.5
2268.95	3421.5
2272.868	3341.5
2276.783	3323.5
2280.694	3309.5
2284.601	3260.5
2288.505	3251.5
2292.405	3213.5
2296.302	3166.5
2300.195	3145.5
2304.085	3125.5
2307.971	3060.5
2311.854	3047.5
2315.734	2974.5
2319.609	2943.5
2323.482	2938.5
2327.351	2889.5
2331.216	2873.5
2335.078	2872.5
2338.937	2846.5
2342.792	2814.5
2346.643	2834.5
2350.492	2824.5
2354.336	2861.5
2358.178	2856.5
2362.015	2867.5
2365.85	2849.5
2369.681	2871.5
2373.508	2877.5
2377.333	2885.5
2381.153	2856.5
2384.971	2836.5
2388.785	2830.5
2392.595	2810.5
2396.402	2803.5
2400.206	2751.5
2404.007	2751.5
2407.804	2743.5
2411.597	2719.5
2415.388	2672.5
2419.174	2691.5
2422.958	2674.5
2426.738	2630.5
2430.515	2628.5
2434.289	2597.5
2438.059	2566.5
2441.825	2558.5
2445.589	2556.5
2449.349	2495.5
2453.106	2480.5
2456.859	2449.5
2460.61	2408.5
2464.356	2388.5
2468.1	2372.5
2471.84	2323.5
2475.577	2314.5
2479.311	2264.5
2483.041	2280.5
2486.768	2259.5
2490.492	2223.5
2494.213	2246.5
2497.93	2218.5
2501.644	2196.5
2505.355	2190.5
2509.062	2185.5
2512.766	2179.5
2516.467	2139.5
2520.165	2133.5
2523.859	2134.5
2527.551	2095.5
2531.239	2101.5
2534.923	2084.5
2538.605	2050.5
2542.283	2067.5
2545.958	2029.5
2549.63	2045.5
2553.299	2034.5
2556.964	2037.5
2560.626	2005.5
2564.285	2015.5
2567.941	2011.5
2571.594	2008.5
2575.243	1985.5
2578.89	1970.5
2582.533	1974.5
2586.173	1937.5
2589.809	1938.5
2593.443	1908.5
2597.073	1909.5
2600.701	1885.5
2604.325	1849.5
2607.946	1855.5
2611.564	1830.5
2615.178	1825.5
2618.79	1817.5
2622.398	1804.5
2626.004	1775.5
2629.606	1776.5
2633.205	1752.5
2636.801	1720.5
2640.394	1706.5
2643.983	1678.5
2647.57	1663.5
2651.153	1625.5
2654.734	1598.5
2658.311	1585.5
2661.885	1561.5
2665.456	1528.5
2669.025	1520.5
2672.589	1487.5
2676.151	1486.5
2679.71	1450.5
2683.266	1449.5
2686.819	1407.5
2690.368	1387.5
2693.915	1353.5
2697.458	1339.5
2700.999	1294.5
2704.536	1275.5
2708.071	1231.5
2711.602	1200.5
2715.13	1175.5
2718.656	1153.5
2722.178	1111.5
2725.697	1109.5
2729.214	1076.5
2732.727	1083.5
2736.237	1056.5
2739.744	1054.5
2743.249	1057.5
2746.75	1045.5
2750.248	1056.5
2753.743	1064.5
2757.236	1091.5
2760.725	1089.5
2764.211	1097.5
2767.695	1096.5
2771.175	1104.5
2774.652	1104.5
2778.127	1104.5
2781.598	1096.5
2785.067	1089.5
2788.532	1080.5
2791.995	1083.5
2795.455	1074.5
2798.911	1079.5
2802.365	1070.5
2805.816	1079.5
2809.264	1076.5
2812.709	1084.5
2816.151	1071.5
2819.59	1079.5
2823.026	1076.5
2826.46	1078.5
2829.89	1079.5
2833.318	1078.5
2836.742	1095.5
2840.164	1091.5
2843.583	1106.5
2846.999	1122.5
2850.412	1127.5
2853.822	1138.5
2857.229	1159.5
2860.634	1180.5
2864.035	1183.5
2867.434	1213.5
2870.83	1228.5
2874.223	1234.5
2877.613	1263.5
2881	1284.5
2884.385	1298.5
2887.766	1300.5
2891.145	1283.5
2894.521	1286.5
2897.894	1301.5
2901.264	1297.5
2904.631	1273.5
2907.996	1286.5
2911.358	1290.5
2914.717	1274.5
2918.073	1302.5
2921.426	1339.5
2924.777	1333.5
2928.124	1346.5
2931.469	1383.5
2934.811	1394.5
2938.15	1415.5
2941.487	1432.5
2944.821	1432.5
2948.152	1409.5
2951.48	1408.5
2954.805	1403.5
2958.128	1383.5
2961.447	1366.5
2964.765	1361.5
2968.079	1329.5
2971.39	1367.5
2974.699	1382.5
2978.005	1413.5
2981.308	1422.5
2984.609	1437.5
2987.907	1466.5
2991.202	1496.5
2994.494	1529.5
2997.784	1577.5
3001.07	1578.5
3004.355	1624.5
3007.636	1655.5
3010.915	1654.5
3014.191	1684.5
3017.464	1694.5
3020.734	1698.5
3024.002	1713.5
3027.267	1733.5
3030.53	1760.5
3033.789	1755.5
3037.046	1790.5
3040.301	1806.5
3043.552	1852.5
3046.801	1882.5
3050.048	1926.5
3053.291	1980.5
3056.532	2021.5
3059.771	2114.5
3063.006	2137.5
3066.239	2227.5
3069.469	2286.5
3072.697	2339.5
3075.922	2406.5
3079.144	2439.5
3082.364	2497.5
3085.581	2568.5
3088.795	2608.5
3092.007	2663.5
3095.216	2699.5
3098.423	2756.5
3101.627	2846.5
3104.828	2892.5
3108.026	2954.5
3111.222	3021.5
3114.416	3111.5
3117.607	3178.5
3120.795	3215.5
3123.98	3320.5
3127.163	3405.5
3130.344	3483.5
3133.521	3563.5
3136.696	3639.5
3139.869	3721.5
3143.039	3798.5
3146.206	3804.5
3149.371	3865.5
3152.533	3945.5
3155.693	3933.5
3158.85	3948.5
3162.005	3982.5
3165.157	4010.5
3168.306	4017.5
3171.453	4044.5
3174.597	3999.5
3177.739	4025.5
3180.878	4028.5
3184.014	4012.5
3187.149	4069.5
3190.28	4009.5
3193.409	4026.5
3196.536	4035.5
3199.659	4056.5
3202.781	4081.5
3205.9	4051.5
3209.016	4050.5
3212.13	4009.5
3215.241	3987.5
3218.35	3942.5
3221.456	3917.5
3224.56	3856.5
3227.661	3811.5
3230.76	3757.5
3233.856	3747.5
3236.95	3690.5
3240.041	3686.5
3243.13	3639.5
3246.216	3600.5
3249.3	3595.5
3252.382	3593.5
3255.46	3584.5
3258.537	3545.5
3261.611	3578.5
3264.682	3571.5
3267.751	3563.5
3270.818	3568.5
3273.882	3544.5
3276.943	3529.5
3280.002	3486.5
3283.059	3462.5
3286.113	3417.5
3289.165	3373.5
3292.214	3327.5
3295.261	3263.5
3298.306	3192.5
3301.348	3166.5
3304.387	3099.5
3307.425	3056.5
3310.459	3029.5
3313.492	2989.5
3316.521	2930.5
3319.549	2904.5
3322.574	2875.5
3325.597	2863.5
3328.617	2838.5
3331.635	2837.5
3334.65	2782.5
3337.663	2762.5
3340.674	2754.5
3343.682	2749.5
3346.688	2753.5
3349.691	2738.5
3352.692	2721.5
3355.691	2701.5
3358.687	2665.5
3361.681	2623.5
3364.673	2609.5
3367.662	2552.5
3370.649	2500.5
3373.633	2494.5
3376.615	2461.5
3379.595	2435.5
3382.572	2394.5
3385.547	2357.5
3388.52	2299.5
3391.49	2268.5
3394.458	2255.5
3397.424	2199.5
3400.387	2190.5
3403.348	2164.5
3406.307	2125.5
3409.263	2104.5
3412.217	2072.5
3415.168	2052.5
3418.118	2023.5
3421.065	1993.5
3424.009	1968.5
3426.951	1938.5
3429.891	1898.5
3432.829	1885.5
3435.764	1824.5
3438.697	1780.5
3441.628	1737.5
3444.557	1675.5
3447.483	1628.5
3450.407	1576.5
3453.328	1541.5
3456.247	1473.5
3459.164	1403.5
3462.079	1359.5
3464.991	1286.5
3467.902	1260.5
3470.809	1211.5
3473.715	1151.5
3476.618	1118.5
3479.519	1074.5
3482.418	1057.5
3485.315	1002.5
3488.209	982.5
3491.101	932.5
3493.99	898.5
3496.878	875.5
3499.763	822.5
3502.646	775.5
3505.527	746.5
3508.405	716.5
3511.281	689.5
3514.155	629.5
3517.027	605.5
3519.897	577.5
3522.764	525.5
3525.629	479.5
3528.492	422.5
3531.352	386.5
3534.211	361.5
3537.067	328.5
3539.921	295.5
3542.773	239.5
3545.622	224.5
3548.469	175.5
3551.315	158.5
3554.157	132.5
3556.998	92.5
3559.837	85.5
3562.673	52.5
3565.507	41.5
3568.339	3.5
3571.169	-7.5
3573.996	-19.5
3576.822	-46.5
3579.645	-64.5
3582.466	-82.5
3585.285	-115.5
3588.101	-131.5
3590.916	-152.5
3593.728	-172.5
3596.538	-178.5
3599.346	-202.5
3602.152	-230.5
3604.956	-230.5
3607.757	-259.5
3610.556	-263.5
3613.354	-290.5
3616.149	-301.5
3618.942	-311.5
3621.732	-318.5
3624.521	-330.5
3627.307	-344.5
3630.092	-351.5
3632.874	-359.5
3635.654	-372.5
3638.432	-374.5
3641.208	-379.5
3643.982	-393.5
3646.753	-396.5
3649.523	-413.5
3652.29	-415.5
3655.055	-427.5
3657.818	-441.5
3660.579	-454.5
3663.338	-465.5
3666.095	-468.5
3668.849	-487.5
3671.602	-487.5
3674.352	-502.5
3677.101	-501.5
3679.847	-512.5
3682.591	-518.5
3685.333	-522.5
3688.073	-533.5
3690.811	-537.5
3693.547	-539.5
3696.281	-549.5
3699.013	-547.5
3701.742	-559.5
3704.47	-560.5
3707.195	-564.5
3709.919	-567.5
3712.64	-569.5
3715.359	-571.5
3718.076	-577.5
3720.792	-583.5
3723.505	-583.5
3726.216	-588.5
3728.925	-585.5
3731.632	-591.5
3734.336	-596.5
3737.039	-602.5
3739.74	-603.5
3742.439	-610.5
3745.136	-606.5
3747.83	-611.5
3750.523	-612.5
3753.213	-618.5
3755.902	-619.5
3758.589	-620.5
3761.273	-616.5
3763.956	-626.5
3766.636	-624.5
3769.315	-625.5
3771.991	-624.5
3774.665	-630.5
3777.338	-632.5
3780.008	-633.5
3782.677	-632.5
3785.343	-628.5
3788.007	-632.5
3790.67	-639.5
3793.33	-636.5
3795.989	-638.5
3798.645	-641.5
3801.299	-639.5
3803.952	-650.5
3806.602	-650.5
3809.251	-655.5
3811.897	-646.5
3814.542	-652.5
3817.184	-644.5
3819.825	-648.5
3822.463	-643.5
3825.1	-650.5
3827.735	-644.5
3830.367	-645.5
3832.998	-656.5
3835.627	-657.5
3838.253	-657.5
3840.878	-658.5
3843.501	-650.5
3846.122	-651.5
3848.741	-650.5
3851.358	-653.5
3853.973	-658.5
3856.586	-655.5
3859.197	-663.5
3861.806	-660.5
3864.414	-655.5
3867.019	-657.5
3869.622	-663.5
3872.224	-652.5
3874.823	-647.5
3877.421	-625.5
3880.016	-610.5
3882.61	-590.5
3885.202	-582.5
3887.792	-596.5
3890.38	-623.5
3892.966	-647.5
3895.55	-660.5
3898.132	-670.5
3900.713	-667.5
3903.291	-668.5
3905.868	-674.5
3908.442	-675.5
3911.015	-671.5
3913.586	-671.5
3916.155	-669.5
3918.722	-679.5
3921.287	-671.5
3923.85	-678.5
3926.411	-675.5
3928.971	-683.5
3931.528	-678.5
3934.084	-683.5
3936.638	-678.5
3939.19	-680.5
3941.74	-676.5
3944.288	-679.5
3946.834	-675.5
3949.378	-677.5
3951.921	-676.5
3954.462	-682.5
3957	-673.5
3959.537	-677.5
3962.072	-672.5
3964.606	-669.5
3967.137	-676.5
3969.667	-674.5
3972.194	-667.5
3974.72	-671.5
3977.244	-665.5
3979.766	-658.5
3982.286	-664.5
3984.805	-664.5
3987.321	-662.5
3989.836	-664.5
3992.349	-651.5
3994.86	-656.5
3997.369	-668.5
3999.877	-658.5
4002.382	-663.5
4004.886	-661.5
4007.388	-655.5
4009.888	-663.5
4012.386	-666.5
4014.883	-658.5
4017.377	-662.5
4019.87	-657.5
4022.361	-661.5
4024.85	-666.5
4027.338	-660.5
4029.823	-661.5
4032.307	-667.5
4034.789	-658.5
4037.269	-653.5
4039.747	-660.5
4042.224	-666.5
4044.699	-662.5
4047.172	-659.5
4049.643	-661.5
4052.112	-665.5
4054.58	-665.5
4057.046	-663.5
4059.51	-661.5
4061.972	-667.5
4064.432	-666.5
4066.891	-661.5
4069.348	-662.5
4071.803	-656.5
4074.256	-663.5
4076.708	-659.5
4079.158	-665.5
4081.606	-664.5
4084.052	-673.5
4086.497	-668.5
4088.939	-662.5
4091.38	-663.5
4093.819	-659.5
4096.257	-695.5
4098.693	-698.5
4101.127	-703.5
4103.559	-698.5
4105.989	-404.5
4108.418	-381.5
4110.845	-355.5
4113.27	-318.5
4115.694	-284.5
4118.115	-240.5
4120.535	-663.5
4122.954	-663.5
4125.37	-657.5
4127.785	-664.5
4130.198	-661.5
4132.609	-666.5
4135.019	-699.5
4137.427	-697.5
4139.833	-699.5
4142.237	-694.5
