Data from 2018-2-14_conc=3_n=7_RamanShift_02.txt Node
Date: Wed Feb 14 12:02:56 IST 2018
User: aro
Spectrometer: QEPB0276
Trigger mode: 0
Integration Time (sec): 3.000000E1
Scans to average: 1
Electric dark correction enabled: true
Nonlinearity correction enabled: false
Boxcar width: 0
XAxis mode: Raman Shifts
Number of Pixels in Spectrum: 1044
>>>>>Begin Spectral Data<<<<<
160.701	-152.5
166.742	51.5
172.777	584.5
178.805	2291.5
184.826	6327.5
190.841	13265.5
196.849	21359.5
202.85	27163.5
208.845	29064.5
214.833	28756.5
220.815	28191.5
226.789	27956.5
232.758	27800.5
238.719	27615.5
244.674	27224.5
250.623	26775.5
256.565	26150.5
262.5	25529.5
268.429	25085.5
274.351	24679.5
280.267	24315.5
286.176	24029.5
292.079	23733.5
297.975	23483.5
303.865	23356.5
309.748	23071.5
315.625	23021.5
321.495	22901.5
327.359	22774.5
333.217	22716.5
339.068	22738.5
344.912	22584.5
350.751	22625.5
356.583	22572.5
362.408	22555.5
368.227	22569.5
374.04	22578.5
379.847	22694.5
385.647	22743.5
391.44	22797.5
397.228	22917.5
403.009	23027.5
408.784	23098.5
414.553	23172.5
420.315	23211.5
426.071	23167.5
431.821	23228.5
437.565	23175.5
443.302	23164.5
449.033	23139.5
454.758	23090.5
460.477	22912.5
466.189	22940.5
471.896	22899.5
477.596	22865.5
483.29	22833.5
488.978	22814.5
494.66	22646.5
500.335	22504.5
506.005	22331.5
511.668	22004.5
517.325	21760.5
522.977	21554.5
528.622	21406.5
534.261	21234.5
539.894	21191.5
545.521	21071.5
551.141	20950.5
556.756	20922.5
562.365	20815.5
567.968	20735.5
573.565	20598.5
579.155	20606.5
584.74	20506.5
590.319	20446.5
595.892	20341.5
601.459	20246.5
607.02	20160.5
612.575	20025.5
618.124	19918.5
623.667	19799.5
629.204	19691.5
634.735	19638.5
640.261	19504.5
645.781	19409.5
651.294	19412.5
656.802	19385.5
662.304	19377.5
667.8	19282.5
673.29	19296.5
678.775	19199.5
684.254	19162.5
689.726	19144.5
695.193	19051.5
700.655	18980.5
706.11	18901.5
711.56	18759.5
717.004	18678.5
722.442	18611.5
727.874	18559.5
733.301	18438.5
738.722	18486.5
744.137	18345.5
749.547	18310.5
754.951	18350.5
760.349	18409.5
765.741	18369.5
771.128	18370.5
776.509	18391.5
781.885	18420.5
787.254	18380.5
792.618	18291.5
797.977	18108.5
803.33	18031.5
808.677	17920.5
814.019	17771.5
819.355	17696.5
824.686	17631.5
830.011	17580.5
835.33	17609.5
840.644	17551.5
845.952	17576.5
851.255	17700.5
856.552	17679.5
861.844	17629.5
867.13	17557.5
872.41	17499.5
877.686	17377.5
882.955	17253.5
888.219	17130.5
893.478	16969.5
898.731	16754.5
903.979	16561.5
909.221	16483.5
914.458	16368.5
919.69	16312.5
924.916	16365.5
930.136	16425.5
935.351	16415.5
940.561	16474.5
945.766	16406.5
950.965	16326.5
956.158	16201.5
961.347	16116.5
966.529	15855.5
971.707	15724.5
976.879	15487.5
982.046	15400.5
987.208	15303.5
992.364	15280.5
997.515	15354.5
1002.66	15475.5
1007.801	15700.5
1012.936	15819.5
1018.066	15825.5
1023.19	15789.5
1028.309	15810.5
1033.423	15764.5
1038.532	15673.5
1043.636	15552.5
1048.734	15306.5
1053.827	15146.5
1058.915	15040.5
1063.998	14894.5
1069.075	14846.5
1074.147	14890.5
1079.214	14897.5
1084.276	15045.5
1089.333	15042.5
1094.385	15165.5
1099.431	15208.5
1104.472	15209.5
1109.509	15125.5
1114.54	14928.5
1119.565	14724.5
1124.586	14565.5
1129.602	14425.5
1134.613	14273.5
1139.618	14157.5
1144.619	14203.5
1149.614	14187.5
1154.604	14225.5
1159.589	14254.5
1164.57	14295.5
1169.545	14307.5
1174.515	14205.5
1179.48	14222.5
1184.44	14094.5
1189.395	14044.5
1194.345	13916.5
1199.29	13842.5
1204.23	13821.5
1209.165	13851.5
1214.095	13969.5
1219.021	14021.5
1223.941	14059.5
1228.856	14182.5
1233.766	14215.5
1238.672	14224.5
1243.572	14240.5
1248.467	14108.5
1253.358	13905.5
1258.244	13760.5
1263.124	13579.5
1268	13325.5
1272.871	13226.5
1277.737	13082.5
1282.599	13049.5
1287.455	12999.5
1292.306	13018.5
1297.153	13106.5
1301.995	13126.5
1306.832	13138.5
1311.664	13234.5
1316.491	13168.5
1321.314	13018.5
1326.132	12878.5
1330.945	12540.5
1335.753	12237.5
1340.556	11962.5
1345.354	11715.5
1350.148	11505.5
1354.937	11425.5
1359.722	11428.5
1364.501	11564.5
1369.276	11626.5
1374.046	11810.5
1378.811	12051.5
1383.572	12146.5
1388.327	12154.5
1393.079	12079.5
1397.825	11896.5
1402.567	11756.5
1407.304	11571.5
1412.036	11507.5
1416.764	11385.5
1421.487	11347.5
1426.205	11277.5
1430.919	11182.5
1435.628	11217.5
1440.333	11210.5
1445.032	11254.5
1449.727	11295.5
1454.418	11222.5
1459.104	11118.5
1463.785	10949.5
1468.462	10714.5
1473.134	10484.5
1477.802	10325.5
1482.465	10173.5
1487.123	10000.5
1491.777	10020.5
1496.426	10067.5
1501.071	10196.5
1505.711	10372.5
1510.347	10556.5
1514.978	10764.5
1519.604	10896.5
1524.226	11025.5
1528.844	10987.5
1533.457	11015.5
1538.065	10952.5
1542.669	10889.5
1547.269	10797.5
1551.864	10708.5
1556.454	10690.5
1561.041	10635.5
1565.622	10624.5
1570.199	10616.5
1574.772	10709.5
1579.34	10721.5
1583.904	10780.5
1588.464	10840.5
1593.019	10859.5
1597.569	10813.5
1602.115	10777.5
1606.657	10710.5
1611.195	10605.5
1615.728	10610.5
1620.256	10502.5
1624.78	10566.5
1629.3	10500.5
1633.816	10571.5
1638.327	10625.5
1642.834	10659.5
1647.336	10753.5
1651.834	10777.5
1656.328	10696.5
1660.817	10623.5
1665.302	10615.5
1669.783	10415.5
1674.259	10199.5
1678.732	9920.5
1683.199	9574.5
1687.663	9278.5
1692.122	8963.5
1696.577	8897.5
1701.028	8823.5
1705.474	8913.5
1709.917	9026.5
1714.355	9022.5
1718.788	8938.5
1723.218	8769.5
1727.643	8643.5
1732.064	8439.5
1736.481	8262.5
1740.893	8033.5
1745.301	7801.5
1749.705	7621.5
1754.105	7442.5
1758.501	7194.5
1762.893	7012.5
1767.28	6856.5
1771.663	6712.5
1776.042	6590.5
1780.417	6572.5
1784.787	6560.5
1789.154	6618.5
1793.516	6758.5
1797.874	6870.5
1802.228	6998.5
1806.578	7066.5
1810.924	7045.5
1815.266	7036.5
1819.603	6872.5
1823.937	6758.5
1828.266	6637.5
1832.591	6525.5
1836.913	6469.5
1841.23	6382.5
1845.543	6328.5
1849.852	6298.5
1854.156	6274.5
1858.457	6248.5
1862.754	6239.5
1867.047	6295.5
1871.335	6237.5
1875.62	6209.5
1879.9	6240.5
1884.177	6200.5
1888.449	6151.5
1892.718	6045.5
1896.982	6024.5
1901.243	5966.5
1905.499	5915.5
1909.752	5935.5
1914	5912.5
1918.245	5932.5
1922.485	6012.5
1926.722	6062.5
1930.954	6145.5
1935.183	6239.5
1939.408	6288.5
1943.628	6303.5
1947.845	6295.5
1952.058	6275.5
1956.267	6261.5
1960.472	6154.5
1964.673	6076.5
1968.87	5976.5
1973.063	5902.5
1977.252	5814.5
1981.438	5716.5
1985.619	5619.5
1989.797	5596.5
1993.971	5584.5
1998.14	5559.5
2002.306	5494.5
2006.469	5522.5
2010.627	5470.5
2014.781	5421.5
2018.932	5384.5
2023.078	5359.5
2027.221	5290.5
2031.36	5204.5
2035.495	5114.5
2039.627	5060.5
2043.754	4999.5
2047.878	4956.5
2051.998	4921.5
2056.114	4876.5
2060.226	4892.5
2064.334	4910.5
2068.439	4942.5
2072.54	4964.5
2076.637	4997.5
2080.73	5024.5
2084.82	5051.5
2088.906	5073.5
2092.988	5081.5
2097.066	5066.5
2101.14	4982.5
2105.211	4992.5
2109.278	4944.5
2113.342	4935.5
2117.401	4881.5
2121.457	4881.5
2125.509	4841.5
2129.558	4835.5
2133.602	4764.5
2137.643	4751.5
2141.681	4734.5
2145.714	4711.5
2149.744	4679.5
2153.77	4621.5
2157.793	4581.5
2161.812	4524.5
2165.827	4426.5
2169.838	4422.5
2173.846	4306.5
2177.851	4224.5
2181.851	4169.5
2185.848	4137.5
2189.841	4097.5
2193.831	4055.5
2197.817	3997.5
2201.799	3954.5
2205.778	3969.5
2209.753	3939.5
2213.725	3954.5
2217.693	3905.5
2221.657	3933.5
2225.618	3898.5
2229.575	3893.5
2233.529	3862.5
2237.479	3780.5
2241.425	3761.5
2245.368	3702.5
2249.307	3647.5
2253.243	3608.5
2257.175	3564.5
2261.104	3497.5
2265.029	3465.5
2268.95	3424.5
2272.868	3373.5
2276.783	3351.5
2280.694	3330.5
2284.601	3277.5
2288.505	3278.5
2292.405	3209.5
2296.302	3211.5
2300.195	3142.5
2304.085	3106.5
2307.971	3058.5
2311.854	3025.5
2315.734	2979.5
2319.609	2921.5
2323.482	2880.5
2327.351	2857.5
2331.216	2832.5
2335.078	2823.5
2338.937	2794.5
2342.792	2798.5
2346.643	2795.5
2350.492	2768.5
2354.336	2769.5
2358.178	2751.5
2362.015	2768.5
2365.85	2790.5
2369.681	2779.5
2373.508	2789.5
2377.333	2754.5
2381.153	2757.5
2384.971	2738.5
2388.785	2706.5
2392.595	2698.5
2396.402	2675.5
2400.206	2653.5
2404.007	2632.5
2407.804	2599.5
2411.597	2597.5
2415.388	2593.5
2419.174	2555.5
2422.958	2524.5
2426.738	2500.5
2430.515	2500.5
2434.289	2459.5
2438.059	2454.5
2441.825	2430.5
2445.589	2407.5
2449.349	2374.5
2453.106	2360.5
2456.859	2331.5
2460.61	2310.5
2464.356	2277.5
2468.1	2232.5
2471.84	2221.5
2475.577	2195.5
2479.311	2198.5
2483.041	2172.5
2486.768	2145.5
2490.492	2155.5
2494.213	2152.5
2497.93	2157.5
2501.644	2160.5
2505.355	2144.5
2509.062	2128.5
2512.766	2104.5
2516.467	2118.5
2520.165	2098.5
2523.859	2067.5
2527.551	2064.5
2531.239	2030.5
2534.923	2044.5
2538.605	2013.5
2542.283	2020.5
2545.958	2014.5
2549.63	2009.5
2553.299	1996.5
2556.964	2009.5
2560.626	1971.5
2564.285	1980.5
2567.941	1983.5
2571.594	1964.5
2575.243	1964.5
2578.89	1922.5
2582.533	1934.5
2586.173	1907.5
2589.809	1901.5
2593.443	1862.5
2597.073	1850.5
2600.701	1859.5
2604.325	1832.5
2607.946	1830.5
2611.564	1805.5
2615.178	1774.5
2618.79	1767.5
2622.398	1749.5
2626.004	1727.5
2629.606	1705.5
2633.205	1696.5
2636.801	1668.5
2640.394	1648.5
2643.983	1606.5
2647.57	1588.5
2651.153	1589.5
2654.734	1543.5
2658.311	1511.5
2661.885	1496.5
2665.456	1465.5
2669.025	1463.5
2672.589	1435.5
2676.151	1435.5
2679.71	1426.5
2683.266	1377.5
2686.819	1350.5
2690.368	1361.5
2693.915	1324.5
2697.458	1279.5
2700.999	1240.5
2704.536	1229.5
2708.071	1212.5
2711.602	1179.5
2715.13	1145.5
2718.656	1124.5
2722.178	1123.5
2725.697	1110.5
2729.214	1080.5
2732.727	1074.5
2736.237	1068.5
2739.744	1067.5
2743.249	1087.5
2746.75	1096.5
2750.248	1108.5
2753.743	1131.5
2757.236	1122.5
2760.725	1152.5
2764.211	1128.5
2767.695	1164.5
2771.175	1135.5
2774.652	1145.5
2778.127	1126.5
2781.598	1118.5
2785.067	1125.5
2788.532	1109.5
2791.995	1099.5
2795.455	1100.5
2798.911	1107.5
2802.365	1124.5
2805.816	1106.5
2809.264	1107.5
2812.709	1108.5
2816.151	1109.5
2819.59	1117.5
2823.026	1122.5
2826.46	1111.5
2829.89	1105.5
2833.318	1130.5
2836.742	1141.5
2840.164	1121.5
2843.583	1134.5
2846.999	1136.5
2850.412	1151.5
2853.822	1148.5
2857.229	1186.5
2860.634	1206.5
2864.035	1232.5
2867.434	1251.5
2870.83	1273.5
2874.223	1288.5
2877.613	1324.5
2881	1330.5
2884.385	1337.5
2887.766	1348.5
2891.145	1312.5
2894.521	1352.5
2897.894	1354.5
2901.264	1330.5
2904.631	1346.5
2907.996	1340.5
2911.358	1344.5
2914.717	1361.5
2918.073	1373.5
2921.426	1404.5
2924.777	1402.5
2928.124	1414.5
2931.469	1459.5
2934.811	1480.5
2938.15	1475.5
2941.487	1505.5
2944.821	1519.5
2948.152	1506.5
2951.48	1520.5
2954.805	1494.5
2958.128	1492.5
2961.447	1480.5
2964.765	1464.5
2968.079	1471.5
2971.39	1485.5
2974.699	1525.5
2978.005	1530.5
2981.308	1555.5
2984.609	1576.5
2987.907	1604.5
2991.202	1657.5
2994.494	1694.5
2997.784	1720.5
3001.07	1744.5
3004.355	1780.5
3007.636	1811.5
3010.915	1822.5
3014.191	1849.5
3017.464	1836.5
3020.734	1861.5
3024.002	1857.5
3027.267	1904.5
3030.53	1873.5
3033.789	1920.5
3037.046	1951.5
3040.301	1982.5
3043.552	2006.5
3046.801	2054.5
3050.048	2105.5
3053.291	2168.5
3056.532	2206.5
3059.771	2271.5
3063.006	2338.5
3066.239	2407.5
3069.469	2491.5
3072.697	2541.5
3075.922	2603.5
3079.144	2669.5
3082.364	2738.5
3085.581	2768.5
3088.795	2862.5
3092.007	2933.5
3095.216	2987.5
3098.423	3037.5
3101.627	3107.5
3104.828	3181.5
3108.026	3238.5
3111.222	3317.5
3114.416	3432.5
3117.607	3457.5
3120.795	3527.5
3123.98	3642.5
3127.163	3708.5
3130.344	3808.5
3133.521	3872.5
3136.696	3996.5
3139.869	4065.5
3143.039	4107.5
3146.206	4175.5
3149.371	4214.5
3152.533	4308.5
3155.693	4289.5
3158.85	4352.5
3162.005	4334.5
3165.157	4355.5
3168.306	4368.5
3171.453	4408.5
3174.597	4410.5
3177.739	4412.5
3180.878	4420.5
3184.014	4443.5
3187.149	4408.5
3190.28	4419.5
3193.409	4422.5
3196.536	4430.5
3199.659	4467.5
3202.781	4469.5
3205.9	4491.5
3209.016	4446.5
3212.13	4457.5
3215.241	4416.5
3218.35	4378.5
3221.456	4300.5
3224.56	4271.5
3227.661	4229.5
3230.76	4200.5
3233.856	4139.5
3236.95	4104.5
3240.041	4086.5
3243.13	4062.5
3246.216	4053.5
3249.3	4036.5
3252.382	4010.5
3255.46	3988.5
3258.537	3976.5
3261.611	3988.5
3264.682	3954.5
3267.751	3944.5
3270.818	3984.5
3273.882	3944.5
3276.943	3913.5
3280.002	3886.5
3283.059	3861.5
3286.113	3820.5
3289.165	3754.5
3292.214	3672.5
3295.261	3655.5
3298.306	3581.5
3301.348	3512.5
3304.387	3473.5
3307.425	3421.5
3310.459	3354.5
3313.492	3317.5
3316.521	3268.5
3319.549	3219.5
3322.574	3204.5
3325.597	3177.5
3328.617	3150.5
3331.635	3131.5
3334.65	3105.5
3337.663	3090.5
3340.674	3078.5
3343.682	3082.5
3346.688	3045.5
3349.691	3051.5
3352.692	3018.5
3355.691	2977.5
3358.687	2972.5
3361.681	2935.5
3364.673	2899.5
3367.662	2846.5
3370.649	2811.5
3373.633	2776.5
3376.615	2739.5
3379.595	2683.5
3382.572	2682.5
3385.547	2614.5
3388.52	2561.5
3391.49	2523.5
3394.458	2509.5
3397.424	2455.5
3400.387	2435.5
3403.348	2406.5
3406.307	2407.5
3409.263	2354.5
3412.217	2302.5
3415.168	2312.5
3418.118	2303.5
3421.065	2229.5
3424.009	2210.5
3426.951	2192.5
3429.891	2140.5
3432.829	2088.5
3435.764	2049.5
3438.697	1980.5
3441.628	1954.5
3444.557	1887.5
3447.483	1834.5
3450.407	1768.5
3453.328	1733.5
3456.247	1668.5
3459.164	1613.5
3462.079	1568.5
3464.991	1498.5
3467.902	1434.5
3470.809	1383.5
3473.715	1356.5
3476.618	1287.5
3479.519	1246.5
3482.418	1212.5
3485.315	1172.5
3488.209	1114.5
3491.101	1101.5
3493.99	1063.5
3496.878	1012.5
3499.763	971.5
3502.646	938.5
3505.527	902.5
3508.405	870.5
3511.281	813.5
3514.155	769.5
3517.027	729.5
3519.897	686.5
3522.764	625.5
3525.629	585.5
3528.492	551.5
3531.352	509.5
3534.211	442.5
3537.067	433.5
3539.921	401.5
3542.773	351.5
3545.622	306.5
3548.469	280.5
3551.315	229.5
3554.157	200.5
3556.998	187.5
3559.837	160.5
3562.673	126.5
3565.507	96.5
3568.339	77.5
3571.169	57.5
3573.996	40.5
3576.822	10.5
3579.645	-7.5
3582.466	-28.5
3585.285	-50.5
3588.101	-70.5
3590.916	-83.5
3593.728	-113.5
3596.538	-138.5
3599.346	-148.5
3602.152	-176.5
3604.956	-195.5
3607.757	-209.5
3610.556	-222.5
3613.354	-237.5
3616.149	-258.5
3618.942	-270.5
3621.732	-291.5
3624.521	-294.5
3627.307	-313.5
3630.092	-315.5
3632.874	-319.5
3635.654	-341.5
3638.432	-347.5
3641.208	-355.5
3643.982	-377.5
3646.753	-369.5
3649.523	-386.5
3652.29	-395.5
3655.055	-402.5
3657.818	-419.5
3660.579	-430.5
3663.338	-449.5
3666.095	-458.5
3668.849	-451.5
3671.602	-470.5
3674.352	-485.5
3677.101	-485.5
3679.847	-498.5
3682.591	-498.5
3685.333	-506.5
3688.073	-515.5
3690.811	-524.5
3693.547	-528.5
3696.281	-529.5
3699.013	-532.5
3701.742	-537.5
3704.47	-542.5
3707.195	-552.5
3709.919	-557.5
3712.64	-560.5
3715.359	-557.5
3718.076	-570.5
3720.792	-571.5
3723.505	-572.5
3726.216	-586.5
3728.925	-580.5
3731.632	-584.5
3734.336	-591.5
3737.039	-592.5
3739.74	-590.5
3742.439	-596.5
3745.136	-594.5
3747.83	-604.5
3750.523	-603.5
3753.213	-591.5
3755.902	-612.5
3758.589	-610.5
3761.273	-614.5
3763.956	-619.5
3766.636	-615.5
3769.315	-620.5
3771.991	-622.5
3774.665	-623.5
3777.338	-629.5
3780.008	-629.5
3782.677	-627.5
3785.343	-625.5
3788.007	-633.5
3790.67	-635.5
3793.33	-637.5
3795.989	-632.5
3798.645	-637.5
3801.299	-634.5
3803.952	-641.5
3806.602	-645.5
3809.251	-640.5
3811.897	-641.5
3814.542	-645.5
3817.184	-638.5
3819.825	-636.5
3822.463	-634.5
3825.1	-648.5
3827.735	-636.5
3830.367	-644.5
3832.998	-651.5
3835.627	-657.5
3838.253	-653.5
3840.878	-654.5
3843.501	-651.5
3846.122	-647.5
3848.741	-647.5
3851.358	-652.5
3853.973	-649.5
3856.586	-659.5
3859.197	-658.5
3861.806	-659.5
3864.414	-654.5
3867.019	-647.5
3869.622	-651.5
3872.224	-653.5
3874.823	-633.5
3877.421	-614.5
3880.016	-594.5
3882.61	-581.5
3885.202	-579.5
3887.792	-594.5
3890.38	-619.5
3892.966	-649.5
3895.55	-654.5
3898.132	-674.5
3900.713	-674.5
3903.291	-668.5
3905.868	-667.5
3908.442	-668.5
3911.015	-669.5
3913.586	-667.5
3916.155	-661.5
3918.722	-669.5
3921.287	-659.5
3923.85	-673.5
3926.411	-671.5
3928.971	-676.5
3931.528	-669.5
3934.084	-670.5
3936.638	-669.5
3939.19	-671.5
3941.74	-671.5
3944.288	-675.5
3946.834	-671.5
3949.378	-676.5
3951.921	-674.5
3954.462	-676.5
3957	-669.5
3959.537	-670.5
3962.072	-662.5
3964.606	-668.5
3967.137	-673.5
3969.667	-669.5
3972.194	-662.5
3974.72	-669.5
3977.244	-657.5
3979.766	-663.5
3982.286	-657.5
3984.805	-659.5
3987.321	-658.5
3989.836	-658.5
3992.349	-651.5
3994.86	-649.5
3997.369	-661.5
3999.877	-652.5
4002.382	-661.5
4004.886	-657.5
4007.388	-650.5
4009.888	-659.5
4012.386	-662.5
4014.883	-658.5
4017.377	-650.5
4019.87	-656.5
4022.361	-658.5
4024.85	-654.5
4027.338	-653.5
4029.823	-656.5
4032.307	-661.5
4034.789	-650.5
4037.269	-655.5
4039.747	-661.5
4042.224	-657.5
4044.699	-658.5
4047.172	-658.5
4049.643	-659.5
4052.112	-666.5
4054.58	-663.5
4057.046	-660.5
4059.51	-664.5
4061.972	-666.5
4064.432	-662.5
4066.891	-658.5
4069.348	-657.5
4071.803	-655.5
4074.256	-657.5
4076.708	-657.5
4079.158	-659.5
4081.606	-659.5
4084.052	-663.5
4086.497	-660.5
4088.939	-660.5
4091.38	-656.5
4093.819	-656.5
4096.257	-693.5
4098.693	-693.5
4101.127	-694.5
4103.559	-691.5
4105.989	-391.5
4108.418	-372.5
4110.845	-355.5
4113.27	-327.5
4115.694	-277.5
4118.115	-234.5
4120.535	-659.5
4122.954	-662.5
4125.37	-651.5
4127.785	-659.5
4130.198	-660.5
4132.609	-663.5
4135.019	-691.5
4137.427	-697.5
4139.833	-694.5
4142.237	-691.5
