Data from 2018-2-14_conc=6_n=4_RamanShift_02.txt Node
Date: Wed Feb 14 14:53:25 IST 2018
User: aro
Spectrometer: QEPB0276
Trigger mode: 0
Integration Time (sec): 3.000000E1
Scans to average: 1
Electric dark correction enabled: true
Nonlinearity correction enabled: false
Boxcar width: 0
XAxis mode: Raman Shifts
Number of Pixels in Spectrum: 1044
>>>>>Begin Spectral Data<<<<<
160.701	-148.6
166.742	53.4
172.777	603.4
178.805	2311.4
184.826	6387.4
190.841	13499.4
196.849	21600.4
202.85	27445.4
208.845	29406.4
214.833	29134.4
220.815	28587.4
226.789	28348.4
232.758	28211.4
238.719	28029.4
244.674	27628.4
250.623	27120.4
256.565	26594.4
262.5	26078.4
268.429	25468.4
274.351	25144.4
280.267	24802.4
286.176	24548.4
292.079	24288.4
297.975	24028.4
303.865	23849.4
309.748	23703.4
315.625	23517.4
321.495	23451.4
327.359	23325.4
333.217	23274.4
339.068	23235.4
344.912	23272.4
350.751	23153.4
356.583	23173.4
362.408	23214.4
368.227	23158.4
374.04	23157.4
379.847	23228.4
385.647	23330.4
391.44	23444.4
397.228	23532.4
403.009	23622.4
408.784	23695.4
414.553	23764.4
420.315	23901.4
426.071	23844.4
431.821	23847.4
437.565	23776.4
443.302	23709.4
449.033	23736.4
454.758	23695.4
460.477	23603.4
466.189	23479.4
471.896	23510.4
477.596	23437.4
483.29	23364.4
488.978	23312.4
494.66	23265.4
500.335	23058.4
506.005	22835.4
511.668	22513.4
517.325	22265.4
522.977	22082.4
528.622	21843.4
534.261	21688.4
539.894	21594.4
545.521	21509.4
551.141	21440.4
556.756	21361.4
562.365	21214.4
567.968	21159.4
573.565	21041.4
579.155	21005.4
584.74	20954.4
590.319	20859.4
595.892	20746.4
601.459	20631.4
607.02	20525.4
612.575	20437.4
618.124	20389.4
623.667	20144.4
629.204	20130.4
634.735	20030.4
640.261	19917.4
645.781	19831.4
651.294	19774.4
656.802	19834.4
662.304	19695.4
667.8	19643.4
673.29	19649.4
678.775	19577.4
684.254	19530.4
689.726	19394.4
695.193	19412.4
700.655	19319.4
706.11	19189.4
711.56	19086.4
717.004	18969.4
722.442	18917.4
727.874	18849.4
733.301	18836.4
738.722	18748.4
744.137	18707.4
749.547	18610.4
754.951	18673.4
760.349	18617.4
765.741	18685.4
771.128	18637.4
776.509	18709.4
781.885	18692.4
787.254	18655.4
792.618	18559.4
797.977	18450.4
803.33	18332.4
808.677	18197.4
814.019	18110.4
819.355	18072.4
824.686	17980.4
830.011	17869.4
835.33	17874.4
840.644	17900.4
845.952	17881.4
851.255	17951.4
856.552	17985.4
861.844	17931.4
867.13	17842.4
872.41	17798.4
877.686	17683.4
882.955	17575.4
888.219	17419.4
893.478	17245.4
898.731	16960.4
903.979	16836.4
909.221	16687.4
914.458	16595.4
919.69	16612.4
924.916	16668.4
930.136	16688.4
935.351	16738.4
940.561	16747.4
945.766	16683.4
950.965	16547.4
956.158	16482.4
961.347	16301.4
966.529	16073.4
971.707	15871.4
976.879	15704.4
982.046	15559.4
987.208	15533.4
992.364	15508.4
997.515	15614.4
1002.66	15766.4
1007.801	15851.4
1012.936	16034.4
1018.066	16046.4
1023.19	15999.4
1028.309	16021.4
1033.423	15965.4
1038.532	15883.4
1043.636	15745.4
1048.734	15518.4
1053.827	15369.4
1058.915	15203.4
1063.998	15051.4
1069.075	15055.4
1074.147	15046.4
1079.214	15063.4
1084.276	15162.4
1089.333	15305.4
1094.385	15318.4
1099.431	15374.4
1104.472	15347.4
1109.509	15327.4
1114.54	15115.4
1119.565	14929.4
1124.586	14707.4
1129.602	14566.4
1134.613	14508.4
1139.618	14370.4
1144.619	14366.4
1149.614	14340.4
1154.604	14296.4
1159.589	14386.4
1164.57	14409.4
1169.545	14449.4
1174.515	14395.4
1179.48	14315.4
1184.44	14208.4
1189.395	14133.4
1194.345	14040.4
1199.29	13945.4
1204.23	13985.4
1209.165	13985.4
1214.095	14087.4
1219.021	14188.4
1223.941	14213.4
1228.856	14325.4
1233.766	14317.4
1238.672	14344.4
1243.572	14336.4
1248.467	14214.4
1253.358	14098.4
1258.244	13802.4
1263.124	13642.4
1268	13465.4
1272.871	13289.4
1277.737	13197.4
1282.599	13102.4
1287.455	13132.4
1292.306	13134.4
1297.153	13168.4
1301.995	13234.4
1306.832	13278.4
1311.664	13287.4
1316.491	13208.4
1321.314	13057.4
1326.132	12907.4
1330.945	12664.4
1335.753	12302.4
1340.556	12006.4
1345.354	11779.4
1350.148	11605.4
1354.937	11464.4
1359.722	11485.4
1364.501	11524.4
1369.276	11626.4
1374.046	11733.4
1378.811	11839.4
1383.572	12049.4
1388.327	12090.4
1393.079	11991.4
1397.825	11891.4
1402.567	11719.4
1407.304	11585.4
1412.036	11459.4
1416.764	11409.4
1421.487	11342.4
1426.205	11297.4
1430.919	11219.4
1435.628	11238.4
1440.333	11205.4
1445.032	11285.4
1449.727	11273.4
1454.418	11280.4
1459.104	11146.4
1463.785	10953.4
1468.462	10703.4
1473.134	10467.4
1477.802	10241.4
1482.465	10008.4
1487.123	9943.4
1491.777	9920.4
1496.426	9956.4
1501.071	10016.4
1505.711	10167.4
1510.347	10323.4
1514.978	10546.4
1519.604	10668.4
1524.226	10745.4
1528.844	10763.4
1533.457	10750.4
1538.065	10707.4
1542.669	10656.4
1547.269	10548.4
1551.864	10540.4
1556.454	10511.4
1561.041	10472.4
1565.622	10504.4
1570.199	10474.4
1574.772	10564.4
1579.34	10671.4
1583.904	10665.4
1588.464	10710.4
1593.019	10736.4
1597.569	10697.4
1602.115	10683.4
1606.657	10599.4
1611.195	10499.4
1615.728	10457.4
1620.256	10399.4
1624.78	10425.4
1629.3	10424.4
1633.816	10406.4
1638.327	10467.4
1642.834	10572.4
1647.336	10548.4
1651.834	10584.4
1656.328	10557.4
1660.817	10468.4
1665.302	10380.4
1669.783	10172.4
1674.259	9954.4
1678.732	9673.4
1683.199	9303.4
1687.663	8992.4
1692.122	8685.4
1696.577	8615.4
1701.028	8499.4
1705.474	8537.4
1709.917	8654.4
1714.355	8635.4
1718.788	8581.4
1723.218	8468.4
1727.643	8302.4
1732.064	8171.4
1736.481	7970.4
1740.893	7806.4
1745.301	7576.4
1749.705	7408.4
1754.105	7198.4
1758.501	6971.4
1762.893	6799.4
1767.28	6584.4
1771.663	6443.4
1776.042	6344.4
1780.417	6291.4
1784.787	6266.4
1789.154	6307.4
1793.516	6421.4
1797.874	6526.4
1802.228	6632.4
1806.578	6706.4
1810.924	6685.4
1815.266	6624.4
1819.603	6556.4
1823.937	6474.4
1828.266	6365.4
1832.591	6280.4
1836.913	6196.4
1841.23	6134.4
1845.543	6067.4
1849.852	6036.4
1854.156	6032.4
1858.457	6000.4
1862.754	5995.4
1867.047	6014.4
1871.335	5967.4
1875.62	5950.4
1879.9	5921.4
1884.177	5874.4
1888.449	5849.4
1892.718	5775.4
1896.982	5695.4
1901.243	5629.4
1905.499	5612.4
1909.752	5558.4
1914	5565.4
1918.245	5599.4
1922.485	5640.4
1926.722	5713.4
1930.954	5752.4
1935.183	5806.4
1939.408	5874.4
1943.628	5916.4
1947.845	5917.4
1952.058	5922.4
1956.267	5869.4
1960.472	5767.4
1964.673	5690.4
1968.87	5620.4
1973.063	5539.4
1977.252	5452.4
1981.438	5404.4
1985.619	5355.4
1989.797	5302.4
1993.971	5273.4
1998.14	5255.4
2002.306	5222.4
2006.469	5216.4
2010.627	5169.4
2014.781	5164.4
2018.932	5109.4
2023.078	5040.4
2027.221	5015.4
2031.36	4918.4
2035.495	4855.4
2039.627	4739.4
2043.754	4723.4
2047.878	4651.4
2051.998	4610.4
2056.114	4604.4
2060.226	4612.4
2064.334	4612.4
2068.439	4626.4
2072.54	4665.4
2076.637	4658.4
2080.73	4704.4
2084.82	4749.4
2088.906	4744.4
2092.988	4761.4
2097.066	4709.4
2101.14	4706.4
2105.211	4647.4
2109.278	4631.4
2113.342	4601.4
2117.401	4578.4
2121.457	4548.4
2125.509	4515.4
2129.558	4530.4
2133.602	4487.4
2137.643	4483.4
2141.681	4444.4
2145.714	4414.4
2149.744	4395.4
2153.77	4331.4
2157.793	4317.4
2161.812	4244.4
2165.827	4209.4
2169.838	4124.4
2173.846	4107.4
2177.851	3998.4
2181.851	3936.4
2185.848	3918.4
2189.841	3847.4
2193.831	3817.4
2197.817	3781.4
2201.799	3756.4
2205.778	3728.4
2209.753	3713.4
2213.725	3703.4
2217.693	3709.4
2221.657	3680.4
2225.618	3684.4
2229.575	3668.4
2233.529	3622.4
2237.479	3600.4
2241.425	3564.4
2245.368	3521.4
2249.307	3455.4
2253.243	3388.4
2257.175	3346.4
2261.104	3318.4
2265.029	3259.4
2268.95	3266.4
2272.868	3212.4
2276.783	3145.4
2280.694	3121.4
2284.601	3132.4
2288.505	3100.4
2292.405	3052.4
2296.302	2984.4
2300.195	2966.4
2304.085	2957.4
2307.971	2899.4
2311.854	2849.4
2315.734	2811.4
2319.609	2792.4
2323.482	2766.4
2327.351	2714.4
2331.216	2714.4
2335.078	2694.4
2338.937	2677.4
2342.792	2645.4
2346.643	2647.4
2350.492	2651.4
2354.336	2634.4
2358.178	2651.4
2362.015	2670.4
2365.85	2669.4
2369.681	2658.4
2373.508	2680.4
2377.333	2657.4
2381.153	2661.4
2384.971	2615.4
2388.785	2606.4
2392.595	2598.4
2396.402	2568.4
2400.206	2574.4
2404.007	2539.4
2407.804	2519.4
2411.597	2453.4
2415.388	2466.4
2419.174	2458.4
2422.958	2460.4
2426.738	2430.4
2430.515	2410.4
2434.289	2383.4
2438.059	2356.4
2441.825	2335.4
2445.589	2322.4
2449.349	2292.4
2453.106	2255.4
2456.859	2229.4
2460.61	2204.4
2464.356	2166.4
2468.1	2166.4
2471.84	2120.4
2475.577	2077.4
2479.311	2107.4
2483.041	2076.4
2486.768	2056.4
2490.492	2065.4
2494.213	2071.4
2497.93	2039.4
2501.644	2017.4
2505.355	2013.4
2509.062	2001.4
2512.766	1996.4
2516.467	2009.4
2520.165	1973.4
2523.859	1949.4
2527.551	1957.4
2531.239	1933.4
2534.923	1929.4
2538.605	1917.4
2542.283	1904.4
2545.958	1883.4
2549.63	1880.4
2553.299	1891.4
2556.964	1900.4
2560.626	1878.4
2564.285	1858.4
2567.941	1874.4
2571.594	1832.4
2575.243	1822.4
2578.89	1833.4
2582.533	1802.4
2586.173	1787.4
2589.809	1762.4
2593.443	1765.4
2597.073	1726.4
2600.701	1739.4
2604.325	1701.4
2607.946	1702.4
2611.564	1693.4
2615.178	1649.4
2618.79	1672.4
2622.398	1645.4
2626.004	1636.4
2629.606	1626.4
2633.205	1604.4
2636.801	1583.4
2640.394	1565.4
2643.983	1527.4
2647.57	1508.4
2651.153	1489.4
2654.734	1457.4
2658.311	1458.4
2661.885	1385.4
2665.456	1386.4
2669.025	1369.4
2672.589	1355.4
2676.151	1352.4
2679.71	1303.4
2683.266	1315.4
2686.819	1270.4
2690.368	1270.4
2693.915	1253.4
2697.458	1185.4
2700.999	1168.4
2704.536	1145.4
2708.071	1128.4
2711.602	1102.4
2715.13	1060.4
2718.656	1045.4
2722.178	1050.4
2725.697	1008.4
2729.214	1006.4
2732.727	998.4
2736.237	989.4
2739.744	977.4
2743.249	996.4
2746.75	1000.4
2750.248	1006.4
2753.743	1034.4
2757.236	1020.4
2760.725	1048.4
2764.211	1034.4
2767.695	1035.4
2771.175	1037.4
2774.652	1030.4
2778.127	1016.4
2781.598	1021.4
2785.067	996.4
2788.532	1007.4
2791.995	989.4
2795.455	1010.4
2798.911	998.4
2802.365	1025.4
2805.816	995.4
2809.264	1003.4
2812.709	1002.4
2816.151	1007.4
2819.59	1003.4
2823.026	1004.4
2826.46	1016.4
2829.89	1030.4
2833.318	1026.4
2836.742	1045.4
2840.164	1029.4
2843.583	1061.4
2846.999	1064.4
2850.412	1072.4
2853.822	1076.4
2857.229	1093.4
2860.634	1119.4
2864.035	1153.4
2867.434	1164.4
2870.83	1191.4
2874.223	1184.4
2877.613	1226.4
2881	1238.4
2884.385	1249.4
2887.766	1258.4
2891.145	1254.4
2894.521	1240.4
2897.894	1256.4
2901.264	1245.4
2904.631	1254.4
2907.996	1268.4
2911.358	1280.4
2914.717	1277.4
2918.073	1297.4
2921.426	1305.4
2924.777	1326.4
2928.124	1353.4
2931.469	1373.4
2934.811	1412.4
2938.15	1419.4
2941.487	1425.4
2944.821	1439.4
2948.152	1433.4
2951.48	1411.4
2954.805	1422.4
2958.128	1397.4
2961.447	1395.4
2964.765	1356.4
2968.079	1385.4
2971.39	1389.4
2974.699	1424.4
2978.005	1429.4
2981.308	1463.4
2984.609	1486.4
2987.907	1494.4
2991.202	1558.4
2994.494	1578.4
2997.784	1605.4
3001.07	1634.4
3004.355	1673.4
3007.636	1678.4
3010.915	1697.4
3014.191	1720.4
3017.464	1727.4
3020.734	1740.4
3024.002	1769.4
3027.267	1792.4
3030.53	1776.4
3033.789	1811.4
3037.046	1845.4
3040.301	1885.4
3043.552	1908.4
3046.801	1955.4
3050.048	1980.4
3053.291	2047.4
3056.532	2107.4
3059.771	2152.4
3063.006	2230.4
3066.239	2286.4
3069.469	2399.4
3072.697	2415.4
3075.922	2490.4
3079.144	2545.4
3082.364	2599.4
3085.581	2668.4
3088.795	2734.4
3092.007	2806.4
3095.216	2844.4
3098.423	2894.4
3101.627	2963.4
3104.828	3055.4
3108.026	3074.4
3111.222	3171.4
3114.416	3252.4
3117.607	3336.4
3120.795	3410.4
3123.98	3445.4
3127.163	3583.4
3130.344	3643.4
3133.521	3720.4
3136.696	3821.4
3139.869	3875.4
3143.039	3958.4
3146.206	4015.4
3149.371	4090.4
3152.533	4086.4
3155.693	4116.4
3158.85	4165.4
3162.005	4175.4
3165.157	4205.4
3168.306	4209.4
3171.453	4234.4
3174.597	4212.4
3177.739	4240.4
3180.878	4242.4
3184.014	4260.4
3187.149	4241.4
3190.28	4245.4
3193.409	4271.4
3196.536	4267.4
3199.659	4276.4
3202.781	4272.4
3205.9	4282.4
3209.016	4275.4
3212.13	4267.4
3215.241	4226.4
3218.35	4197.4
3221.456	4164.4
3224.56	4084.4
3227.661	4035.4
3230.76	3985.4
3233.856	3968.4
3236.95	3929.4
3240.041	3874.4
3243.13	3857.4
3246.216	3841.4
3249.3	3828.4
3252.382	3808.4
3255.46	3797.4
3258.537	3745.4
3261.611	3792.4
3264.682	3763.4
3267.751	3751.4
3270.818	3763.4
3273.882	3752.4
3276.943	3745.4
3280.002	3706.4
3283.059	3669.4
3286.113	3627.4
3289.165	3578.4
3292.214	3537.4
3295.261	3453.4
3298.306	3424.4
3301.348	3364.4
3304.387	3289.4
3307.425	3265.4
3310.459	3218.4
3313.492	3184.4
3316.521	3120.4
3319.549	3091.4
3322.574	3073.4
3325.597	3034.4
3328.617	3028.4
3331.635	3016.4
3334.65	2993.4
3337.663	2998.4
3340.674	2968.4
3343.682	2952.4
3346.688	2928.4
3349.691	2918.4
3352.692	2903.4
3355.691	2872.4
3358.687	2881.4
3361.681	2824.4
3364.673	2783.4
3367.662	2727.4
3370.649	2704.4
3373.633	2654.4
3376.615	2654.4
3379.595	2567.4
3382.572	2551.4
3385.547	2529.4
3388.52	2497.4
3391.49	2450.4
3394.458	2414.4
3397.424	2358.4
3400.387	2350.4
3403.348	2316.4
3406.307	2296.4
3409.263	2268.4
3412.217	2237.4
3415.168	2201.4
3418.118	2174.4
3421.065	2155.4
3424.009	2131.4
3426.951	2084.4
3429.891	2047.4
3432.829	1989.4
3435.764	1959.4
3438.697	1920.4
3441.628	1869.4
3444.557	1818.4
3447.483	1744.4
3450.407	1695.4
3453.328	1654.4
3456.247	1580.4
3459.164	1520.4
3462.079	1461.4
3464.991	1413.4
3467.902	1374.4
3470.809	1306.4
3473.715	1284.4
3476.618	1211.4
3479.519	1163.4
3482.418	1149.4
3485.315	1105.4
3488.209	1065.4
3491.101	1031.4
3493.99	989.4
3496.878	942.4
3499.763	907.4
3502.646	860.4
3505.527	818.4
3508.405	792.4
3511.281	742.4
3514.155	701.4
3517.027	674.4
3519.897	628.4
3522.764	570.4
3525.629	542.4
3528.492	491.4
3531.352	456.4
3534.211	410.4
3537.067	366.4
3539.921	333.4
3542.773	296.4
3545.622	253.4
3548.469	228.4
3551.315	201.4
3554.157	171.4
3556.998	138.4
3559.837	121.4
3562.673	99.4
3565.507	74.4
3568.339	48.4
3571.169	26.4
3573.996	11.4
3576.822	-9.6
3579.645	-50.6
3582.466	-71.6
3585.285	-74.6
3588.101	-105.6
3590.916	-135.6
3593.728	-142.6
3596.538	-158.6
3599.346	-183.6
3602.152	-207.6
3604.956	-213.6
3607.757	-228.6
3610.556	-249.6
3613.354	-274.6
3616.149	-285.6
3618.942	-287.6
3621.732	-300.6
3624.521	-315.6
3627.307	-326.6
3630.092	-335.6
3632.874	-347.6
3635.654	-362.6
3638.432	-362.6
3641.208	-375.6
3643.982	-388.6
3646.753	-387.6
3649.523	-406.6
3652.29	-420.6
3655.055	-417.6
3657.818	-433.6
3660.579	-454.6
3663.338	-466.6
3666.095	-467.6
3668.849	-475.6
3671.602	-480.6
3674.352	-495.6
3677.101	-508.6
3679.847	-511.6
3682.591	-521.6
3685.333	-516.6
3688.073	-526.6
3690.811	-536.6
3693.547	-530.6
3696.281	-548.6
3699.013	-546.6
3701.742	-552.6
3704.47	-556.6
3707.195	-563.6
3709.919	-574.6
3712.64	-570.6
3715.359	-581.6
3718.076	-584.6
3720.792	-589.6
3723.505	-583.6
3726.216	-596.6
3728.925	-587.6
3731.632	-598.6
3734.336	-602.6
3737.039	-600.6
3739.74	-600.6
3742.439	-615.6
3745.136	-607.6
3747.83	-618.6
3750.523	-615.6
3753.213	-621.6
3755.902	-621.6
3758.589	-620.6
3761.273	-622.6
3763.956	-622.6
3766.636	-625.6
3769.315	-629.6
3771.991	-631.6
3774.665	-628.6
3777.338	-633.6
3780.008	-634.6
3782.677	-641.6
3785.343	-632.6
3788.007	-638.6
3790.67	-644.6
3793.33	-644.6
3795.989	-647.6
3798.645	-642.6
3801.299	-650.6
3803.952	-651.6
3806.602	-655.6
3809.251	-654.6
3811.897	-647.6
3814.542	-650.6
3817.184	-646.6
3819.825	-647.6
3822.463	-647.6
3825.1	-619.6
3827.735	-654.6
3830.367	-649.6
3832.998	-660.6
3835.627	-663.6
3838.253	-661.6
3840.878	-668.6
3843.501	-666.6
3846.122	-654.6
3848.741	-662.6
3851.358	-665.6
3853.973	-669.6
3856.586	-662.6
3859.197	-669.6
3861.806	-666.6
3864.414	-667.6
3867.019	-663.6
3869.622	-667.6
3872.224	-651.6
3874.823	-644.6
3877.421	-627.6
3880.016	-609.6
3882.61	-582.6
3885.202	-575.6
3887.792	-597.6
3890.38	-630.6
3892.966	-648.6
3895.55	-665.6
3898.132	-678.6
3900.713	-681.6
3903.291	-677.6
3905.868	-677.6
3908.442	-675.6
3911.015	-678.6
3913.586	-674.6
3916.155	-673.6
3918.722	-680.6
3921.287	-672.6
3923.85	-680.6
3926.411	-681.6
3928.971	-688.6
3931.528	-675.6
3934.084	-677.6
3936.638	-673.6
3939.19	-681.6
3941.74	-677.6
3944.288	-680.6
3946.834	-675.6
3949.378	-677.6
3951.921	-683.6
3954.462	-685.6
3957	-682.6
3959.537	-681.6
3962.072	-678.6
3964.606	-681.6
3967.137	-678.6
3969.667	-683.6
3972.194	-674.6
3974.72	-681.6
3977.244	-672.6
3979.766	-667.6
3982.286	-675.6
3984.805	-669.6
3987.321	-666.6
3989.836	-666.6
3992.349	-664.6
3994.86	-657.6
3997.369	-673.6
3999.877	-660.6
4002.382	-658.6
4004.886	-664.6
4007.388	-661.6
4009.888	-658.6
4012.386	-663.6
4014.883	-661.6
4017.377	-665.6
4019.87	-666.6
4022.361	-664.6
4024.85	-664.6
4027.338	-665.6
4029.823	-668.6
4032.307	-673.6
4034.789	-666.6
4037.269	-662.6
4039.747	-662.6
4042.224	-671.6
4044.699	-671.6
4047.172	-668.6
4049.643	-665.6
4052.112	-669.6
4054.58	-676.6
4057.046	-667.6
4059.51	-673.6
4061.972	-671.6
4064.432	-670.6
4066.891	-665.6
4069.348	-665.6
4071.803	-658.6
4074.256	-666.6
4076.708	-664.6
4079.158	-666.6
4081.606	-667.6
4084.052	-671.6
4086.497	-667.6
4088.939	-661.6
4091.38	-665.6
4093.819	-664.6
4096.257	-699.6
4098.693	-701.6
4101.127	-703.6
4103.559	-698.6
4105.989	-400.6
4108.418	-379.6
4110.845	-364.6
4113.27	-333.6
4115.694	-296.6
4118.115	-255.6
4120.535	-661.6
4122.954	-660.6
4125.37	-656.6
4127.785	-671.6
4130.198	-670.6
4132.609	-669.6
4135.019	-705.6
4137.427	-704.6
4139.833	-706.6
4142.237	-702.6
