Data from 2018-2-14_conc=5_n=6_RamanShift_01.txt Node
Date: Wed Feb 14 14:21:25 IST 2018
User: aro
Spectrometer: QEPB0276
Trigger mode: 0
Integration Time (sec): 3.000000E1
Scans to average: 1
Electric dark correction enabled: true
Nonlinearity correction enabled: false
Boxcar width: 0
XAxis mode: Raman Shifts
Number of Pixels in Spectrum: 1044
>>>>>Begin Spectral Data<<<<<
160.701	-150.5
166.742	48.5
172.777	599.5
178.805	2271.5
184.826	6286.5
190.841	13229.5
196.849	21285.5
202.85	26967.5
208.845	28898.5
214.833	28541.5
220.815	27961.5
226.789	27759.5
232.758	27624.5
238.719	27355.5
244.674	26979.5
250.623	26447.5
256.565	25777.5
262.5	25277.5
268.429	24799.5
274.351	24416.5
280.267	23981.5
286.176	23738.5
292.079	23430.5
297.975	23207.5
303.865	22956.5
309.748	22856.5
315.625	22585.5
321.495	22496.5
327.359	22480.5
333.217	22419.5
339.068	22360.5
344.912	22325.5
350.751	22337.5
356.583	22268.5
362.408	22268.5
368.227	22272.5
374.04	22316.5
379.847	22365.5
385.647	22458.5
391.44	22538.5
397.228	22593.5
403.009	22605.5
408.784	22744.5
414.553	22829.5
420.315	22924.5
426.071	22913.5
431.821	22902.5
437.565	22867.5
443.302	22853.5
449.033	22799.5
454.758	22784.5
460.477	22664.5
466.189	22651.5
471.896	22633.5
477.596	22518.5
483.29	22487.5
488.978	22382.5
494.66	22348.5
500.335	22221.5
506.005	21910.5
511.668	21686.5
517.325	21403.5
522.977	21261.5
528.622	21071.5
534.261	20931.5
539.894	20843.5
545.521	20702.5
551.141	20637.5
556.756	20634.5
562.365	20510.5
567.968	20423.5
573.565	20330.5
579.155	20293.5
584.74	20147.5
590.319	20100.5
595.892	19996.5
601.459	19957.5
607.02	19822.5
612.575	19712.5
618.124	19601.5
623.667	19502.5
629.204	19427.5
634.735	19289.5
640.261	19247.5
645.781	19179.5
651.294	19191.5
656.802	19056.5
662.304	19011.5
667.8	18958.5
673.29	18941.5
678.775	18933.5
684.254	18867.5
689.726	18797.5
695.193	18705.5
700.655	18670.5
706.11	18566.5
711.56	18468.5
717.004	18377.5
722.442	18251.5
727.874	18197.5
733.301	18150.5
738.722	18098.5
744.137	18026.5
749.547	18054.5
754.951	18026.5
760.349	18025.5
765.741	18051.5
771.128	18138.5
776.509	18097.5
781.885	18082.5
787.254	18028.5
792.618	17943.5
797.977	17793.5
803.33	17738.5
808.677	17533.5
814.019	17494.5
819.355	17400.5
824.686	17380.5
830.011	17302.5
835.33	17256.5
840.644	17282.5
845.952	17306.5
851.255	17296.5
856.552	17380.5
861.844	17367.5
867.13	17257.5
872.41	17197.5
877.686	17122.5
882.955	16985.5
888.219	16832.5
893.478	16647.5
898.731	16420.5
903.979	16271.5
909.221	16165.5
914.458	16122.5
919.69	16062.5
924.916	16077.5
930.136	16139.5
935.351	16233.5
940.561	16126.5
945.766	16154.5
950.965	16051.5
956.158	15936.5
961.347	15796.5
966.529	15619.5
971.707	15412.5
976.879	15166.5
982.046	15054.5
987.208	15024.5
992.364	14988.5
997.515	15104.5
1002.66	15289.5
1007.801	15423.5
1012.936	15521.5
1018.066	15553.5
1023.19	15550.5
1028.309	15554.5
1033.423	15431.5
1038.532	15368.5
1043.636	15339.5
1048.734	15097.5
1053.827	14892.5
1058.915	14716.5
1063.998	14630.5
1069.075	14577.5
1074.147	14565.5
1079.214	14633.5
1084.276	14708.5
1089.333	14806.5
1094.385	14910.5
1099.431	14923.5
1104.472	14916.5
1109.509	14829.5
1114.54	14660.5
1119.565	14463.5
1124.586	14259.5
1129.602	14160.5
1134.613	14122.5
1139.618	13987.5
1144.619	13911.5
1149.614	13921.5
1154.604	13929.5
1159.589	13983.5
1164.57	14013.5
1169.545	14034.5
1174.515	14013.5
1179.48	13933.5
1184.44	13898.5
1189.395	13764.5
1194.345	13568.5
1199.29	13633.5
1204.23	13571.5
1209.165	13614.5
1214.095	13692.5
1219.021	13735.5
1223.941	13817.5
1228.856	13910.5
1233.766	13968.5
1238.672	13935.5
1243.572	13967.5
1248.467	13890.5
1253.358	13718.5
1258.244	13539.5
1263.124	13260.5
1268	13155.5
1272.871	12949.5
1277.737	12857.5
1282.599	12749.5
1287.455	12735.5
1292.306	12827.5
1297.153	12864.5
1301.995	12890.5
1306.832	12987.5
1311.664	13013.5
1316.491	12941.5
1321.314	12900.5
1326.132	12723.5
1330.945	12429.5
1335.753	12100.5
1340.556	11761.5
1345.354	11562.5
1350.148	11361.5
1354.937	11235.5
1359.722	11219.5
1364.501	11249.5
1369.276	11336.5
1374.046	11527.5
1378.811	11707.5
1383.572	11895.5
1388.327	11924.5
1393.079	11884.5
1397.825	11713.5
1402.567	11549.5
1407.304	11355.5
1412.036	11267.5
1416.764	11159.5
1421.487	11113.5
1426.205	11063.5
1430.919	11015.5
1435.628	11003.5
1440.333	11025.5
1445.032	11070.5
1449.727	11094.5
1454.418	11125.5
1459.104	10989.5
1463.785	10748.5
1468.462	10542.5
1473.134	10354.5
1477.802	10101.5
1482.465	9965.5
1487.123	9804.5
1491.777	9747.5
1496.426	9824.5
1501.071	9917.5
1505.711	10082.5
1510.347	10256.5
1514.978	10450.5
1519.604	10628.5
1524.226	10655.5
1528.844	10786.5
1533.457	10712.5
1538.065	10668.5
1542.669	10617.5
1547.269	10474.5
1551.864	10464.5
1556.454	10419.5
1561.041	10435.5
1565.622	10386.5
1570.199	10381.5
1574.772	10478.5
1579.34	10524.5
1583.904	10639.5
1588.464	10656.5
1593.019	10659.5
1597.569	10621.5
1602.115	10609.5
1606.657	10492.5
1611.195	10512.5
1615.728	10375.5
1620.256	10355.5
1624.78	10359.5
1629.3	10382.5
1633.816	10400.5
1638.327	10466.5
1642.834	10500.5
1647.336	10519.5
1651.834	10616.5
1656.328	10526.5
1660.817	10498.5
1665.302	10422.5
1669.783	10179.5
1674.259	10007.5
1678.732	9728.5
1683.199	9393.5
1687.663	9065.5
1692.122	8725.5
1696.577	8576.5
1701.028	8538.5
1705.474	8589.5
1709.917	8692.5
1714.355	8722.5
1718.788	8664.5
1723.218	8523.5
1727.643	8317.5
1732.064	8220.5
1736.481	7992.5
1740.893	7798.5
1745.301	7597.5
1749.705	7418.5
1754.105	7222.5
1758.501	7004.5
1762.893	6781.5
1767.28	6625.5
1771.663	6486.5
1776.042	6363.5
1780.417	6348.5
1784.787	6259.5
1789.154	6357.5
1793.516	6438.5
1797.874	6544.5
1802.228	6664.5
1806.578	6736.5
1810.924	6763.5
1815.266	6686.5
1819.603	6625.5
1823.937	6521.5
1828.266	6394.5
1832.591	6278.5
1836.913	6222.5
1841.23	6132.5
1845.543	6104.5
1849.852	6080.5
1854.156	6037.5
1858.457	6025.5
1862.754	6026.5
1867.047	6003.5
1871.335	6014.5
1875.62	5993.5
1879.9	5988.5
1884.177	5919.5
1888.449	5869.5
1892.718	5834.5
1896.982	5774.5
1901.243	5719.5
1905.499	5630.5
1909.752	5641.5
1914	5635.5
1918.245	5662.5
1922.485	5688.5
1926.722	5775.5
1930.954	5861.5
1935.183	5918.5
1939.408	5971.5
1943.628	5983.5
1947.845	5994.5
1952.058	5984.5
1956.267	5941.5
1960.472	5884.5
1964.673	5777.5
1968.87	5731.5
1973.063	5591.5
1977.252	5523.5
1981.438	5471.5
1985.619	5425.5
1989.797	5370.5
1993.971	5363.5
1998.14	5348.5
2002.306	5321.5
2006.469	5291.5
2010.627	5261.5
2014.781	5217.5
2018.932	5156.5
2023.078	5134.5
2027.221	5039.5
2031.36	4955.5
2035.495	4934.5
2039.627	4833.5
2043.754	4789.5
2047.878	4752.5
2051.998	4731.5
2056.114	4705.5
2060.226	4689.5
2064.334	4679.5
2068.439	4689.5
2072.54	4729.5
2076.637	4781.5
2080.73	4805.5
2084.82	4808.5
2088.906	4845.5
2092.988	4831.5
2097.066	4840.5
2101.14	4792.5
2105.211	4759.5
2109.278	4751.5
2113.342	4696.5
2117.401	4680.5
2121.457	4655.5
2125.509	4651.5
2129.558	4602.5
2133.602	4584.5
2137.643	4550.5
2141.681	4527.5
2145.714	4517.5
2149.744	4505.5
2153.77	4451.5
2157.793	4431.5
2161.812	4342.5
2165.827	4260.5
2169.838	4186.5
2173.846	4178.5
2177.851	4068.5
2181.851	4031.5
2185.848	3951.5
2189.841	3948.5
2193.831	3906.5
2197.817	3840.5
2201.799	3818.5
2205.778	3810.5
2209.753	3777.5
2213.725	3793.5
2217.693	3786.5
2221.657	3781.5
2225.618	3778.5
2229.575	3723.5
2233.529	3697.5
2237.479	3666.5
2241.425	3617.5
2245.368	3560.5
2249.307	3531.5
2253.243	3476.5
2257.175	3433.5
2261.104	3375.5
2265.029	3343.5
2268.95	3301.5
2272.868	3285.5
2276.783	3216.5
2280.694	3193.5
2284.601	3178.5
2288.505	3124.5
2292.405	3100.5
2296.302	3066.5
2300.195	3050.5
2304.085	3001.5
2307.971	2954.5
2311.854	2911.5
2315.734	2866.5
2319.609	2836.5
2323.482	2805.5
2327.351	2746.5
2331.216	2766.5
2335.078	2728.5
2338.937	2730.5
2342.792	2687.5
2346.643	2703.5
2350.492	2696.5
2354.336	2695.5
2358.178	2706.5
2362.015	2709.5
2365.85	2689.5
2369.681	2694.5
2373.508	2708.5
2377.333	2717.5
2381.153	2694.5
2384.971	2663.5
2388.785	2640.5
2392.595	2602.5
2396.402	2606.5
2400.206	2563.5
2404.007	2547.5
2407.804	2541.5
2411.597	2527.5
2415.388	2514.5
2419.174	2516.5
2422.958	2463.5
2426.738	2442.5
2430.515	2429.5
2434.289	2403.5
2438.059	2395.5
2441.825	2384.5
2445.589	2361.5
2449.349	2324.5
2453.106	2293.5
2456.859	2264.5
2460.61	2246.5
2464.356	2209.5
2468.1	2193.5
2471.84	2158.5
2475.577	2145.5
2479.311	2123.5
2483.041	2135.5
2486.768	2115.5
2490.492	2098.5
2494.213	2122.5
2497.93	2097.5
2501.644	2093.5
2505.355	2065.5
2509.062	2053.5
2512.766	2048.5
2516.467	2033.5
2520.165	2005.5
2523.859	2010.5
2527.551	1989.5
2531.239	1974.5
2534.923	1965.5
2538.605	1969.5
2542.283	1969.5
2545.958	1935.5
2549.63	1945.5
2553.299	1935.5
2556.964	1920.5
2560.626	1909.5
2564.285	1920.5
2567.941	1910.5
2571.594	1898.5
2575.243	1902.5
2578.89	1868.5
2582.533	1858.5
2586.173	1825.5
2589.809	1829.5
2593.443	1817.5
2597.073	1786.5
2600.701	1785.5
2604.325	1775.5
2607.946	1755.5
2611.564	1738.5
2615.178	1740.5
2618.79	1727.5
2622.398	1685.5
2626.004	1698.5
2629.606	1650.5
2633.205	1665.5
2636.801	1635.5
2640.394	1607.5
2643.983	1575.5
2647.57	1554.5
2651.153	1530.5
2654.734	1502.5
2658.311	1466.5
2661.885	1457.5
2665.456	1445.5
2669.025	1414.5
2672.589	1420.5
2676.151	1375.5
2679.71	1374.5
2683.266	1358.5
2686.819	1321.5
2690.368	1284.5
2693.915	1278.5
2697.458	1246.5
2700.999	1232.5
2704.536	1188.5
2708.071	1174.5
2711.602	1141.5
2715.13	1114.5
2718.656	1099.5
2722.178	1081.5
2725.697	1066.5
2729.214	1042.5
2732.727	1041.5
2736.237	1044.5
2739.744	1019.5
2743.249	1055.5
2746.75	1045.5
2750.248	1046.5
2753.743	1070.5
2757.236	1071.5
2760.725	1069.5
2764.211	1084.5
2767.695	1082.5
2771.175	1102.5
2774.652	1098.5
2778.127	1080.5
2781.598	1080.5
2785.067	1076.5
2788.532	1074.5
2791.995	1063.5
2795.455	1074.5
2798.911	1073.5
2802.365	1057.5
2805.816	1056.5
2809.264	1078.5
2812.709	1053.5
2816.151	1047.5
2819.59	1059.5
2823.026	1055.5
2826.46	1076.5
2829.89	1075.5
2833.318	1067.5
2836.742	1082.5
2840.164	1087.5
2843.583	1100.5
2846.999	1121.5
2850.412	1122.5
2853.822	1140.5
2857.229	1144.5
2860.634	1175.5
2864.035	1230.5
2867.434	1222.5
2870.83	1231.5
2874.223	1253.5
2877.613	1276.5
2881	1308.5
2884.385	1326.5
2887.766	1314.5
2891.145	1304.5
2894.521	1306.5
2897.894	1319.5
2901.264	1316.5
2904.631	1311.5
2907.996	1325.5
2911.358	1329.5
2914.717	1333.5
2918.073	1346.5
2921.426	1356.5
2924.777	1375.5
2928.124	1411.5
2931.469	1418.5
2934.811	1472.5
2938.15	1469.5
2941.487	1496.5
2944.821	1509.5
2948.152	1492.5
2951.48	1501.5
2954.805	1464.5
2958.128	1468.5
2961.447	1460.5
2964.765	1464.5
2968.079	1458.5
2971.39	1470.5
2974.699	1501.5
2978.005	1503.5
2981.308	1543.5
2984.609	1580.5
2987.907	1596.5
2991.202	1614.5
2994.494	1641.5
2997.784	1695.5
3001.07	1726.5
3004.355	1740.5
3007.636	1777.5
3010.915	1806.5
3014.191	1812.5
3017.464	1823.5
3020.734	1844.5
3024.002	1844.5
3027.267	1870.5
3030.53	1889.5
3033.789	1900.5
3037.046	1943.5
3040.301	1967.5
3043.552	1997.5
3046.801	2054.5
3050.048	2091.5
3053.291	2151.5
3056.532	2213.5
3059.771	2241.5
3063.006	2310.5
3066.239	2393.5
3069.469	2462.5
3072.697	2529.5
3075.922	2606.5
3079.144	2665.5
3082.364	2694.5
3085.581	2777.5
3088.795	2838.5
3092.007	2898.5
3095.216	2952.5
3098.423	3008.5
3101.627	3117.5
3104.828	3180.5
3108.026	3236.5
3111.222	3309.5
3114.416	3370.5
3117.607	3440.5
3120.795	3538.5
3123.98	3629.5
3127.163	3734.5
3130.344	3793.5
3133.521	3894.5
3136.696	3971.5
3139.869	4070.5
3143.039	4157.5
3146.206	4196.5
3149.371	4233.5
3152.533	4274.5
3155.693	4303.5
3158.85	4308.5
3162.005	4337.5
3165.157	4383.5
3168.306	4402.5
3171.453	4370.5
3174.597	4397.5
3177.739	4432.5
3180.878	4409.5
3184.014	4433.5
3187.149	4439.5
3190.28	4440.5
3193.409	4444.5
3196.536	4456.5
3199.659	4491.5
3202.781	4461.5
3205.9	4462.5
3209.016	4487.5
3212.13	4429.5
3215.241	4424.5
3218.35	4376.5
3221.456	4346.5
3224.56	4288.5
3227.661	4261.5
3230.76	4198.5
3233.856	4169.5
3236.95	4116.5
3240.041	4096.5
3243.13	4060.5
3246.216	4021.5
3249.3	4022.5
3252.382	4006.5
3255.46	3994.5
3258.537	3994.5
3261.611	3976.5
3264.682	4004.5
3267.751	3978.5
3270.818	3974.5
3273.882	3963.5
3276.943	3943.5
3280.002	3927.5
3283.059	3872.5
3286.113	3846.5
3289.165	3733.5
3292.214	3716.5
3295.261	3653.5
3298.306	3604.5
3301.348	3549.5
3304.387	3474.5
3307.425	3427.5
3310.459	3367.5
3313.492	3336.5
3316.521	3295.5
3319.549	3255.5
3322.574	3195.5
3325.597	3182.5
3328.617	3174.5
3331.635	3145.5
3334.65	3112.5
3337.663	3106.5
3340.674	3082.5
3343.682	3084.5
3346.688	3060.5
3349.691	3072.5
3352.692	3017.5
3355.691	3011.5
3358.687	3003.5
3361.681	2954.5
3364.673	2924.5
3367.662	2881.5
3370.649	2843.5
3373.633	2805.5
3376.615	2748.5
3379.595	2698.5
3382.572	2689.5
3385.547	2650.5
3388.52	2598.5
3391.49	2580.5
3394.458	2549.5
3397.424	2490.5
3400.387	2466.5
3403.348	2443.5
3406.307	2424.5
3409.263	2372.5
3412.217	2352.5
3415.168	2320.5
3418.118	2282.5
3421.065	2248.5
3424.009	2245.5
3426.951	2232.5
3429.891	2172.5
3432.829	2133.5
3435.764	2085.5
3438.697	2016.5
3441.628	1981.5
3444.557	1914.5
3447.483	1861.5
3450.407	1804.5
3453.328	1753.5
3456.247	1691.5
3459.164	1640.5
3462.079	1595.5
3464.991	1508.5
3467.902	1473.5
3470.809	1425.5
3473.715	1374.5
3476.618	1330.5
3479.519	1269.5
3482.418	1244.5
3485.315	1197.5
3488.209	1156.5
3491.101	1094.5
3493.99	1059.5
3496.878	1039.5
3499.763	986.5
3502.646	956.5
3505.527	923.5
3508.405	878.5
3511.281	805.5
3514.155	789.5
3517.027	745.5
3519.897	711.5
3522.764	661.5
3525.629	603.5
3528.492	546.5
3531.352	516.5
3534.211	480.5
3537.067	440.5
3539.921	400.5
3542.773	353.5
3545.622	326.5
3548.469	289.5
3551.315	257.5
3554.157	235.5
3556.998	196.5
3559.837	170.5
3562.673	146.5
3565.507	127.5
3568.339	91.5
3571.169	63.5
3573.996	54.5
3576.822	28.5
3579.645	-0.5
3582.466	-20.5
3585.285	-42.5
3588.101	-63.5
3590.916	-88.5
3593.728	-109.5
3596.538	-118.5
3599.346	-145.5
3602.152	-162.5
3604.956	-182.5
3607.757	-197.5
3610.556	-225.5
3613.354	-229.5
3616.149	-247.5
3618.942	-257.5
3621.732	-276.5
3624.521	-286.5
3627.307	-296.5
3630.092	-306.5
3632.874	-319.5
3635.654	-331.5
3638.432	-329.5
3641.208	-351.5
3643.982	-366.5
3646.753	-366.5
3649.523	-383.5
3652.29	-391.5
3655.055	-396.5
3657.818	-410.5
3660.579	-417.5
3663.338	-438.5
3666.095	-452.5
3668.849	-464.5
3671.602	-466.5
3674.352	-469.5
3677.101	-478.5
3679.847	-490.5
3682.591	-503.5
3685.333	-503.5
3688.073	-507.5
3690.811	-518.5
3693.547	-515.5
3696.281	-528.5
3699.013	-529.5
3701.742	-534.5
3704.47	-545.5
3707.195	-548.5
3709.919	-544.5
3712.64	-558.5
3715.359	-562.5
3718.076	-568.5
3720.792	-564.5
3723.505	-566.5
3726.216	-573.5
3728.925	-577.5
3731.632	-583.5
3734.336	-588.5
3737.039	-589.5
3739.74	-584.5
3742.439	-600.5
3745.136	-603.5
3747.83	-607.5
3750.523	-602.5
3753.213	-597.5
3755.902	-601.5
3758.589	-605.5
3761.273	-612.5
3763.956	-607.5
3766.636	-613.5
3769.315	-618.5
3771.991	-613.5
3774.665	-617.5
3777.338	-615.5
3780.008	-618.5
3782.677	-621.5
3785.343	-624.5
3788.007	-627.5
3790.67	-621.5
3793.33	-624.5
3795.989	-629.5
3798.645	-632.5
3801.299	-625.5
3803.952	-635.5
3806.602	-640.5
3809.251	-641.5
3811.897	-639.5
3814.542	-641.5
3817.184	-635.5
3819.825	-637.5
3822.463	-634.5
3825.1	-645.5
3827.735	-637.5
3830.367	-636.5
3832.998	-646.5
3835.627	-645.5
3838.253	-645.5
3840.878	-651.5
3843.501	-645.5
3846.122	-641.5
3848.741	-643.5
3851.358	-647.5
3853.973	-646.5
3856.586	-648.5
3859.197	-649.5
3861.806	-651.5
3864.414	-644.5
3867.019	-651.5
3869.622	-647.5
3872.224	-640.5
3874.823	-627.5
3877.421	-609.5
3880.016	-592.5
3882.61	-575.5
3885.202	-568.5
3887.792	-586.5
3890.38	-616.5
3892.966	-640.5
3895.55	-652.5
3898.132	-662.5
3900.713	-667.5
3903.291	-661.5
3905.868	-660.5
3908.442	-664.5
3911.015	-662.5
3913.586	-656.5
3916.155	-661.5
3918.722	-668.5
3921.287	-661.5
3923.85	-670.5
3926.411	-668.5
3928.971	-671.5
3931.528	-665.5
3934.084	-664.5
3936.638	-661.5
3939.19	-664.5
3941.74	-667.5
3944.288	-670.5
3946.834	-667.5
3949.378	-669.5
3951.921	-666.5
3954.462	-677.5
3957	-669.5
3959.537	-665.5
3962.072	-668.5
3964.606	-666.5
3967.137	-668.5
3969.667	-669.5
3972.194	-663.5
3974.72	-669.5
3977.244	-651.5
3979.766	-651.5
3982.286	-656.5
3984.805	-653.5
3987.321	-658.5
3989.836	-660.5
3992.349	-647.5
3994.86	-648.5
3997.369	-660.5
3999.877	-648.5
4002.382	-642.5
4004.886	-649.5
4007.388	-648.5
4009.888	-653.5
4012.386	-650.5
4014.883	-655.5
4017.377	-652.5
4019.87	-651.5
4022.361	-652.5
4024.85	-654.5
4027.338	-656.5
4029.823	-659.5
4032.307	-662.5
4034.789	-654.5
4037.269	-653.5
4039.747	-653.5
4042.224	-657.5
4044.699	-659.5
4047.172	-654.5
4049.643	-655.5
4052.112	-654.5
4054.58	-658.5
4057.046	-659.5
4059.51	-653.5
4061.972	-655.5
4064.432	-658.5
4066.891	-653.5
4069.348	-648.5
4071.803	-653.5
4074.256	-651.5
4076.708	-653.5
4079.158	-654.5
4081.606	-660.5
4084.052	-663.5
4086.497	-659.5
4088.939	-650.5
4091.38	-656.5
4093.819	-655.5
4096.257	-688.5
4098.693	-690.5
4101.127	-690.5
4103.559	-688.5
4105.989	-392.5
4108.418	-380.5
4110.845	-354.5
4113.27	-319.5
4115.694	-300.5
4118.115	-241.5
4120.535	-652.5
4122.954	-658.5
4125.37	-650.5
4127.785	-652.5
4130.198	-662.5
4132.609	-653.5
4135.019	-690.5
4137.427	-696.5
4139.833	-692.5
4142.237	-689.5
