Data from 2018-2-14_conc=3_n=8_RamanShift_02.txt Node
Date: Wed Feb 14 12:06:26 IST 2018
User: aro
Spectrometer: QEPB0276
Trigger mode: 0
Integration Time (sec): 3.000000E1
Scans to average: 1
Electric dark correction enabled: true
Nonlinearity correction enabled: false
Boxcar width: 0
XAxis mode: Raman Shifts
Number of Pixels in Spectrum: 1044
>>>>>Begin Spectral Data<<<<<
160.701	-129.1
166.742	53.9
172.777	586.9
178.805	2214.9
184.826	6167.9
190.841	12987.9
196.849	20940.9
202.85	26557.9
208.845	28468.9
214.833	28177.9
220.815	27763.9
226.789	27518.9
232.758	27286.9
238.719	27148.9
244.674	26769.9
250.623	26304.9
256.565	25760.9
262.5	25167.9
268.429	24782.9
274.351	24313.9
280.267	24068.9
286.176	23747.9
292.079	23557.9
297.975	23254.9
303.865	23097.9
309.748	22864.9
315.625	22781.9
321.495	22615.9
327.359	22483.9
333.217	22493.9
339.068	22508.9
344.912	22457.9
350.751	22397.9
356.583	22419.9
362.408	22352.9
368.227	22428.9
374.04	22383.9
379.847	22450.9
385.647	22538.9
391.44	22584.9
397.228	22731.9
403.009	22855.9
408.784	22833.9
414.553	22972.9
420.315	22964.9
426.071	23022.9
431.821	22929.9
437.565	22974.9
443.302	22975.9
449.033	22953.9
454.758	22842.9
460.477	22756.9
466.189	22766.9
471.896	22681.9
477.596	22687.9
483.29	22522.9
488.978	22592.9
494.66	22513.9
500.335	22330.9
506.005	22091.9
511.668	21862.9
517.325	21611.9
522.977	21452.9
528.622	21274.9
534.261	21176.9
539.894	21105.9
545.521	20970.9
551.141	20934.9
556.756	20871.9
562.365	20855.9
567.968	20714.9
573.565	20656.9
579.155	20515.9
584.74	20489.9
590.319	20372.9
595.892	20304.9
601.459	20237.9
607.02	20143.9
612.575	20075.9
618.124	19895.9
623.667	19761.9
629.204	19667.9
634.735	19570.9
640.261	19474.9
645.781	19457.9
651.294	19426.9
656.802	19385.9
662.304	19310.9
667.8	19337.9
673.29	19236.9
678.775	19260.9
684.254	19192.9
689.726	19141.9
695.193	19078.9
700.655	19018.9
706.11	18885.9
711.56	18774.9
717.004	18596.9
722.442	18624.9
727.874	18645.9
733.301	18487.9
738.722	18419.9
744.137	18446.9
749.547	18424.9
754.951	18388.9
760.349	18358.9
765.741	18454.9
771.128	18466.9
776.509	18408.9
781.885	18376.9
787.254	18347.9
792.618	18244.9
797.977	18168.9
803.33	18068.9
808.677	17935.9
814.019	17881.9
819.355	17739.9
824.686	17715.9
830.011	17616.9
835.33	17673.9
840.644	17674.9
845.952	17689.9
851.255	17716.9
856.552	17760.9
861.844	17689.9
867.13	17687.9
872.41	17608.9
877.686	17454.9
882.955	17395.9
888.219	17209.9
893.478	17063.9
898.731	16767.9
903.979	16679.9
909.221	16508.9
914.458	16531.9
919.69	16464.9
924.916	16553.9
930.136	16549.9
935.351	16570.9
940.561	16569.9
945.766	16578.9
950.965	16521.9
956.158	16372.9
961.347	16178.9
966.529	15973.9
971.707	15828.9
976.879	15625.9
982.046	15476.9
987.208	15443.9
992.364	15450.9
997.515	15484.9
1002.66	15715.9
1007.801	15849.9
1012.936	15973.9
1018.066	15885.9
1023.19	16000.9
1028.309	15948.9
1033.423	15877.9
1038.532	15768.9
1043.636	15646.9
1048.734	15509.9
1053.827	15299.9
1058.915	15142.9
1063.998	15045.9
1069.075	14991.9
1074.147	15040.9
1079.214	15044.9
1084.276	15152.9
1089.333	15214.9
1094.385	15293.9
1099.431	15302.9
1104.472	15348.9
1109.509	15259.9
1114.54	15047.9
1119.565	14923.9
1124.586	14692.9
1129.602	14570.9
1134.613	14450.9
1139.618	14372.9
1144.619	14319.9
1149.614	14339.9
1154.604	14299.9
1159.589	14438.9
1164.57	14427.9
1169.545	14473.9
1174.515	14436.9
1179.48	14366.9
1184.44	14268.9
1189.395	14205.9
1194.345	14124.9
1199.29	13981.9
1204.23	14018.9
1209.165	14042.9
1214.095	14114.9
1219.021	14204.9
1223.941	14271.9
1228.856	14362.9
1233.766	14427.9
1238.672	14377.9
1243.572	14424.9
1248.467	14266.9
1253.358	14144.9
1258.244	13948.9
1263.124	13739.9
1268	13539.9
1272.871	13367.9
1277.737	13258.9
1282.599	13220.9
1287.455	13215.9
1292.306	13195.9
1297.153	13271.9
1301.995	13365.9
1306.832	13394.9
1311.664	13390.9
1316.491	13393.9
1321.314	13222.9
1326.132	13062.9
1330.945	12802.9
1335.753	12467.9
1340.556	12154.9
1345.354	11864.9
1350.148	11675.9
1354.937	11570.9
1359.722	11583.9
1364.501	11657.9
1369.276	11795.9
1374.046	11989.9
1378.811	12188.9
1383.572	12383.9
1388.327	12391.9
1393.079	12357.9
1397.825	12151.9
1402.567	12017.9
1407.304	11809.9
1412.036	11673.9
1416.764	11591.9
1421.487	11516.9
1426.205	11448.9
1430.919	11407.9
1435.628	11394.9
1440.333	11411.9
1445.032	11462.9
1449.727	11500.9
1454.418	11455.9
1459.104	11330.9
1463.785	11134.9
1468.462	10890.9
1473.134	10641.9
1477.802	10446.9
1482.465	10243.9
1487.123	10177.9
1491.777	10139.9
1496.426	10198.9
1501.071	10354.9
1505.711	10502.9
1510.347	10748.9
1514.978	10905.9
1519.604	11084.9
1524.226	11178.9
1528.844	11207.9
1533.457	11147.9
1538.065	11132.9
1542.669	11047.9
1547.269	11006.9
1551.864	10888.9
1556.454	10839.9
1561.041	10817.9
1565.622	10797.9
1570.199	10822.9
1574.772	10876.9
1579.34	10933.9
1583.904	10985.9
1588.464	11022.9
1593.019	11047.9
1597.569	10954.9
1602.115	10925.9
1606.657	10830.9
1611.195	10730.9
1615.728	10730.9
1620.256	10632.9
1624.78	10622.9
1629.3	10636.9
1633.816	10705.9
1638.327	10748.9
1642.834	10784.9
1647.336	10865.9
1651.834	10888.9
1656.328	10853.9
1660.817	10810.9
1665.302	10677.9
1669.783	10537.9
1674.259	10221.9
1678.732	10016.9
1683.199	9681.9
1687.663	9359.9
1692.122	9069.9
1696.577	8912.9
1701.028	8928.9
1705.474	9040.9
1709.917	9121.9
1714.355	9192.9
1718.788	9133.9
1723.218	8997.9
1727.643	8833.9
1732.064	8631.9
1736.481	8407.9
1740.893	8263.9
1745.301	7984.9
1749.705	7806.9
1754.105	7591.9
1758.501	7359.9
1762.893	7152.9
1767.28	6955.9
1771.663	6804.9
1776.042	6688.9
1780.417	6623.9
1784.787	6607.9
1789.154	6726.9
1793.516	6852.9
1797.874	6979.9
1802.228	7127.9
1806.578	7212.9
1810.924	7258.9
1815.266	7144.9
1819.603	7078.9
1823.937	6917.9
1828.266	6809.9
1832.591	6730.9
1836.913	6609.9
1841.23	6521.9
1845.543	6482.9
1849.852	6440.9
1854.156	6438.9
1858.457	6408.9
1862.754	6398.9
1867.047	6381.9
1871.335	6410.9
1875.62	6368.9
1879.9	6338.9
1884.177	6310.9
1888.449	6283.9
1892.718	6208.9
1896.982	6138.9
1901.243	6074.9
1905.499	6050.9
1909.752	6020.9
1914	5977.9
1918.245	6034.9
1922.485	6086.9
1926.722	6152.9
1930.954	6250.9
1935.183	6298.9
1939.408	6377.9
1943.628	6458.9
1947.845	6439.9
1952.058	6454.9
1956.267	6357.9
1960.472	6298.9
1964.673	6209.9
1968.87	6099.9
1973.063	5981.9
1977.252	5921.9
1981.438	5863.9
1985.619	5803.9
1989.797	5729.9
1993.971	5684.9
1998.14	5688.9
2002.306	5626.9
2006.469	5622.9
2010.627	5593.9
2014.781	5564.9
2018.932	5491.9
2023.078	5482.9
2027.221	5412.9
2031.36	5305.9
2035.495	5261.9
2039.627	5158.9
2043.754	5090.9
2047.878	5041.9
2051.998	4994.9
2056.114	5000.9
2060.226	4960.9
2064.334	4994.9
2068.439	5006.9
2072.54	5051.9
2076.637	5061.9
2080.73	5113.9
2084.82	5137.9
2088.906	5167.9
2092.988	5182.9
2097.066	5155.9
2101.14	5138.9
2105.211	5095.9
2109.278	5083.9
2113.342	5029.9
2117.401	5001.9
2121.457	4960.9
2125.509	4947.9
2129.558	4949.9
2133.602	4893.9
2137.643	4888.9
2141.681	4840.9
2145.714	4831.9
2149.744	4797.9
2153.77	4721.9
2157.793	4724.9
2161.812	4646.9
2165.827	4541.9
2169.838	4503.9
2173.846	4414.9
2177.851	4375.9
2181.851	4323.9
2185.848	4235.9
2189.841	4207.9
2193.831	4143.9
2197.817	4101.9
2201.799	4076.9
2205.778	4055.9
2209.753	4052.9
2213.725	4041.9
2217.693	4015.9
2221.657	4020.9
2225.618	4016.9
2229.575	3982.9
2233.529	3947.9
2237.479	3880.9
2241.425	3857.9
2245.368	3814.9
2249.307	3760.9
2253.243	3701.9
2257.175	3637.9
2261.104	3606.9
2265.029	3574.9
2268.95	3548.9
2272.868	3484.9
2276.783	3454.9
2280.694	3422.9
2284.601	3388.9
2288.505	3359.9
2292.405	3357.9
2296.302	3308.9
2300.195	3271.9
2304.085	3242.9
2307.971	3161.9
2311.854	3118.9
2315.734	3071.9
2319.609	3046.9
2323.482	3006.9
2327.351	2969.9
2331.216	2958.9
2335.078	2906.9
2338.937	2907.9
2342.792	2880.9
2346.643	2895.9
2350.492	2879.9
2354.336	2853.9
2358.178	2874.9
2362.015	2906.9
2365.85	2891.9
2369.681	2876.9
2373.508	2904.9
2377.333	2906.9
2381.153	2873.9
2384.971	2885.9
2388.785	2826.9
2392.595	2805.9
2396.402	2792.9
2400.206	2768.9
2404.007	2741.9
2407.804	2717.9
2411.597	2722.9
2415.388	2692.9
2419.174	2684.9
2422.958	2655.9
2426.738	2619.9
2430.515	2630.9
2434.289	2620.9
2438.059	2590.9
2441.825	2550.9
2445.589	2531.9
2449.349	2498.9
2453.106	2472.9
2456.859	2474.9
2460.61	2409.9
2464.356	2386.9
2468.1	2379.9
2471.84	2333.9
2475.577	2323.9
2479.311	2307.9
2483.041	2277.9
2486.768	2279.9
2490.492	2278.9
2494.213	2267.9
2497.93	2261.9
2501.644	2261.9
2505.355	2238.9
2509.062	2224.9
2512.766	2207.9
2516.467	2197.9
2520.165	2179.9
2523.859	2186.9
2527.551	2156.9
2531.239	2128.9
2534.923	2139.9
2538.605	2124.9
2542.283	2118.9
2545.958	2108.9
2549.63	2127.9
2553.299	2135.9
2556.964	2115.9
2560.626	2115.9
2564.285	2095.9
2567.941	2085.9
2571.594	2068.9
2575.243	2067.9
2578.89	2033.9
2582.533	2042.9
2586.173	2013.9
2589.809	2009.9
2593.443	1973.9
2597.073	1963.9
2600.701	1943.9
2604.325	1925.9
2607.946	1939.9
2611.564	1896.9
2615.178	1904.9
2618.79	1885.9
2622.398	1862.9
2626.004	1837.9
2629.606	1831.9
2633.205	1809.9
2636.801	1781.9
2640.394	1783.9
2643.983	1711.9
2647.57	1684.9
2651.153	1690.9
2654.734	1661.9
2658.311	1625.9
2661.885	1592.9
2665.456	1583.9
2669.025	1552.9
2672.589	1536.9
2676.151	1514.9
2679.71	1517.9
2683.266	1468.9
2686.819	1447.9
2690.368	1429.9
2693.915	1399.9
2697.458	1363.9
2700.999	1323.9
2704.536	1319.9
2708.071	1267.9
2711.602	1252.9
2715.13	1208.9
2718.656	1203.9
2722.178	1175.9
2725.697	1161.9
2729.214	1160.9
2732.727	1158.9
2736.237	1145.9
2739.744	1131.9
2743.249	1143.9
2746.75	1151.9
2750.248	1163.9
2753.743	1185.9
2757.236	1204.9
2760.725	1209.9
2764.211	1211.9
2767.695	1218.9
2771.175	1217.9
2774.652	1212.9
2778.127	1203.9
2781.598	1209.9
2785.067	1192.9
2788.532	1182.9
2791.995	1184.9
2795.455	1162.9
2798.911	1155.9
2802.365	1171.9
2805.816	1183.9
2809.264	1158.9
2812.709	1168.9
2816.151	1161.9
2819.59	1177.9
2823.026	1166.9
2826.46	1186.9
2829.89	1173.9
2833.318	1177.9
2836.742	1180.9
2840.164	1192.9
2843.583	1190.9
2846.999	1211.9
2850.412	1215.9
2853.822	1229.9
2857.229	1253.9
2860.634	1263.9
2864.035	1289.9
2867.434	1305.9
2870.83	1333.9
2874.223	1346.9
2877.613	1377.9
2881	1367.9
2884.385	1385.9
2887.766	1394.9
2891.145	1391.9
2894.521	1385.9
2897.894	1375.9
2901.264	1387.9
2904.631	1363.9
2907.996	1378.9
2911.358	1391.9
2914.717	1401.9
2918.073	1410.9
2921.426	1429.9
2924.777	1422.9
2928.124	1445.9
2931.469	1482.9
2934.811	1517.9
2938.15	1511.9
2941.487	1519.9
2944.821	1549.9
2948.152	1538.9
2951.48	1550.9
2954.805	1523.9
2958.128	1488.9
2961.447	1477.9
2964.765	1473.9
2968.079	1489.9
2971.39	1494.9
2974.699	1534.9
2978.005	1541.9
2981.308	1576.9
2984.609	1588.9
2987.907	1628.9
2991.202	1673.9
2994.494	1694.9
2997.784	1738.9
3001.07	1765.9
3004.355	1786.9
3007.636	1813.9
3010.915	1836.9
3014.191	1831.9
3017.464	1842.9
3020.734	1876.9
3024.002	1884.9
3027.267	1880.9
3030.53	1908.9
3033.789	1932.9
3037.046	1965.9
3040.301	1967.9
3043.552	2005.9
3046.801	2033.9
3050.048	2079.9
3053.291	2134.9
3056.532	2217.9
3059.771	2248.9
3063.006	2326.9
3066.239	2375.9
3069.469	2438.9
3072.697	2527.9
3075.922	2553.9
3079.144	2605.9
3082.364	2691.9
3085.581	2747.9
3088.795	2814.9
3092.007	2862.9
3095.216	2935.9
3098.423	2965.9
3101.627	3070.9
3104.828	3102.9
3108.026	3190.9
3111.222	3280.9
3114.416	3326.9
3117.607	3412.9
3120.795	3483.9
3123.98	3548.9
3127.163	3640.9
3130.344	3720.9
3133.521	3838.9
3136.696	3899.9
3139.869	3967.9
3143.039	4042.9
3146.206	4134.9
3149.371	4161.9
3152.533	4178.9
3155.693	4224.9
3158.85	4249.9
3162.005	4278.9
3165.157	4291.9
3168.306	4291.9
3171.453	4293.9
3174.597	4277.9
3177.739	4295.9
3180.878	4303.9
3184.014	4326.9
3187.149	4304.9
3190.28	4333.9
3193.409	4312.9
3196.536	4350.9
3199.659	4338.9
3202.781	4343.9
3205.9	4333.9
3209.016	4361.9
3212.13	4322.9
3215.241	4269.9
3218.35	4265.9
3221.456	4198.9
3224.56	4191.9
3227.661	4111.9
3230.76	4085.9
3233.856	4071.9
3236.95	3999.9
3240.041	3992.9
3243.13	3964.9
3246.216	3933.9
3249.3	3892.9
3252.382	3912.9
3255.46	3891.9
3258.537	3902.9
3261.611	3893.9
3264.682	3863.9
3267.751	3891.9
3270.818	3845.9
3273.882	3824.9
3276.943	3818.9
3280.002	3795.9
3283.059	3754.9
3286.113	3721.9
3289.165	3710.9
3292.214	3687.9
3295.261	3577.9
3298.306	3496.9
3301.348	3415.9
3304.387	3380.9
3307.425	3311.9
3310.459	3258.9
3313.492	3223.9
3316.521	3163.9
3319.549	3177.9
3322.574	3119.9
3325.597	3102.9
3328.617	3051.9
3331.635	3038.9
3334.65	3017.9
3337.663	3025.9
3340.674	2942.9
3343.682	3002.9
3346.688	2950.9
3349.691	2942.9
3352.692	2914.9
3355.691	2921.9
3358.687	2894.9
3361.681	2863.9
3364.673	2805.9
3367.662	2759.9
3370.649	2739.9
3373.633	2697.9
3376.615	2672.9
3379.595	2613.9
3382.572	2577.9
3385.547	2547.9
3388.52	2502.9
3391.49	2442.9
3394.458	2430.9
3397.424	2409.9
3400.387	2376.9
3403.348	2358.9
3406.307	2309.9
3409.263	2299.9
3412.217	2265.9
3415.168	2243.9
3418.118	2228.9
3421.065	2170.9
3424.009	2159.9
3426.951	2130.9
3429.891	2089.9
3432.829	2044.9
3435.764	1994.9
3438.697	1960.9
3441.628	1881.9
3444.557	1850.9
3447.483	1785.9
3450.407	1697.9
3453.328	1674.9
3456.247	1615.9
3459.164	1586.9
3462.079	1524.9
3464.991	1460.9
3467.902	1419.9
3470.809	1343.9
3473.715	1307.9
3476.618	1259.9
3479.519	1203.9
3482.418	1181.9
3485.315	1139.9
3488.209	1119.9
3491.101	1069.9
3493.99	1025.9
3496.878	996.9
3499.763	944.9
3502.646	914.9
3505.527	866.9
3508.405	820.9
3511.281	792.9
3514.155	752.9
3517.027	711.9
3519.897	665.9
3522.764	617.9
3525.629	569.9
3528.492	534.9
3531.352	494.9
3534.211	454.9
3537.067	422.9
3539.921	389.9
3542.773	325.9
3545.622	292.9
3548.469	269.9
3551.315	244.9
3554.157	218.9
3556.998	169.9
3559.837	162.9
3562.673	133.9
3565.507	100.9
3568.339	81.9
3571.169	60.9
3573.996	40.9
3576.822	14.9
3579.645	-2.1
3582.466	-35.1
3585.285	-52.1
3588.101	-67.1
3590.916	-97.1
3593.728	-118.1
3596.538	-136.1
3599.346	-141.1
3602.152	-177.1
3604.956	-177.1
3607.757	-207.1
3610.556	-225.1
3613.354	-243.1
3616.149	-256.1
3618.942	-267.1
3621.732	-273.1
3624.521	-298.1
3627.307	-304.1
3630.092	-308.1
3632.874	-326.1
3635.654	-329.1
3638.432	-337.1
3641.208	-348.1
3643.982	-358.1
3646.753	-364.1
3649.523	-387.1
3652.29	-383.1
3655.055	-392.1
3657.818	-408.1
3660.579	-428.1
3663.338	-430.1
3666.095	-449.1
3668.849	-451.1
3671.602	-453.1
3674.352	-468.1
3677.101	-465.1
3679.847	-482.1
3682.591	-493.1
3685.333	-499.1
3688.073	-503.1
3690.811	-513.1
3693.547	-509.1
3696.281	-521.1
3699.013	-521.1
3701.742	-530.1
3704.47	-530.1
3707.195	-538.1
3709.919	-537.1
3712.64	-552.1
3715.359	-544.1
3718.076	-556.1
3720.792	-555.1
3723.505	-553.1
3726.216	-568.1
3728.925	-562.1
3731.632	-573.1
3734.336	-572.1
3737.039	-577.1
3739.74	-583.1
3742.439	-581.1
3745.136	-586.1
3747.83	-589.1
3750.523	-590.1
3753.213	-569.1
3755.902	-593.1
3758.589	-599.1
3761.273	-597.1
3763.956	-600.1
3766.636	-602.1
3769.315	-611.1
3771.991	-608.1
3774.665	-611.1
3777.338	-606.1
3780.008	-609.1
3782.677	-613.1
3785.343	-608.1
3788.007	-610.1
3790.67	-617.1
3793.33	-618.1
3795.989	-617.1
3798.645	-615.1
3801.299	-616.1
3803.952	-625.1
3806.602	-627.1
3809.251	-626.1
3811.897	-621.1
3814.542	-628.1
3817.184	-624.1
3819.825	-621.1
3822.463	-625.1
3825.1	-633.1
3827.735	-625.1
3830.367	-625.1
3832.998	-634.1
3835.627	-639.1
3838.253	-641.1
3840.878	-636.1
3843.501	-636.1
3846.122	-634.1
3848.741	-634.1
3851.358	-637.1
3853.973	-630.1
3856.586	-640.1
3859.197	-639.1
3861.806	-642.1
3864.414	-635.1
3867.019	-642.1
3869.622	-637.1
3872.224	-639.1
3874.823	-627.1
3877.421	-616.1
3880.016	-596.1
3882.61	-580.1
3885.202	-572.1
3887.792	-581.1
3890.38	-611.1
3892.966	-627.1
3895.55	-638.1
3898.132	-653.1
3900.713	-647.1
3903.291	-645.1
3905.868	-649.1
3908.442	-647.1
3911.015	-651.1
3913.586	-649.1
3916.155	-650.1
3918.722	-660.1
3921.287	-656.1
3923.85	-657.1
3926.411	-661.1
3928.971	-665.1
3931.528	-660.1
3934.084	-657.1
3936.638	-658.1
3939.19	-655.1
3941.74	-655.1
3944.288	-660.1
3946.834	-656.1
3949.378	-655.1
3951.921	-661.1
3954.462	-659.1
3957	-652.1
3959.537	-653.1
3962.072	-654.1
3964.606	-657.1
3967.137	-653.1
3969.667	-662.1
3972.194	-654.1
3974.72	-656.1
3977.244	-644.1
3979.766	-642.1
3982.286	-646.1
3984.805	-647.1
3987.321	-645.1
3989.836	-643.1
3992.349	-640.1
3994.86	-638.1
3997.369	-642.1
3999.877	-637.1
4002.382	-636.1
4004.886	-640.1
4007.388	-638.1
4009.888	-634.1
4012.386	-637.1
4014.883	-644.1
4017.377	-641.1
4019.87	-635.1
4022.361	-641.1
4024.85	-645.1
4027.338	-646.1
4029.823	-646.1
4032.307	-648.1
4034.789	-640.1
4037.269	-639.1
4039.747	-640.1
4042.224	-648.1
4044.699	-646.1
4047.172	-641.1
4049.643	-645.1
4052.112	-656.1
4054.58	-649.1
4057.046	-650.1
4059.51	-649.1
4061.972	-654.1
4064.432	-651.1
4066.891	-643.1
4069.348	-646.1
4071.803	-639.1
4074.256	-646.1
4076.708	-641.1
4079.158	-648.1
4081.606	-651.1
4084.052	-653.1
4086.497	-644.1
4088.939	-635.1
4091.38	-643.1
4093.819	-636.1
4096.257	-681.1
4098.693	-679.1
4101.127	-685.1
4103.559	-680.1
4105.989	-392.1
4108.418	-365.1
4110.845	-345.1
4113.27	-302.1
4115.694	-277.1
4118.115	-223.1
4120.535	-641.1
4122.954	-641.1
4125.37	-638.1
4127.785	-647.1
4130.198	-644.1
4132.609	-648.1
4135.019	-678.1
4137.427	-686.1
4139.833	-684.1
4142.237	-678.1
