Data from 2018-2-14_conc=5_n=5_RamanShift_05.txt Node
Date: Wed Feb 14 14:19:55 IST 2018
User: aro
Spectrometer: QEPB0276
Trigger mode: 0
Integration Time (sec): 3.000000E1
Scans to average: 1
Electric dark correction enabled: true
Nonlinearity correction enabled: false
Boxcar width: 0
XAxis mode: Raman Shifts
Number of Pixels in Spectrum: 1044
>>>>>Begin Spectral Data<<<<<
160.701	-127.6
166.742	46.4
172.777	538.4
178.805	2047.4
184.826	5625.4
190.841	11825.4
196.849	18920.4
202.85	23964.4
208.845	25695.4
214.833	25487.4
220.815	25050.4
226.789	24960.4
232.758	24828.4
238.719	24709.4
244.674	24444.4
250.623	24039.4
256.565	23570.4
262.5	23082.4
268.429	22749.4
274.351	22406.4
280.267	22157.4
286.176	21979.4
292.079	21767.4
297.975	21580.4
303.865	21398.4
309.748	21357.4
315.625	21178.4
321.495	21189.4
327.359	21057.4
333.217	21065.4
339.068	21008.4
344.912	20999.4
350.751	20945.4
356.583	20962.4
362.408	20919.4
368.227	20975.4
374.04	20946.4
379.847	20963.4
385.647	21099.4
391.44	21199.4
397.228	21234.4
403.009	21280.4
408.784	21418.4
414.553	21471.4
420.315	21573.4
426.071	21519.4
431.821	21542.4
437.565	21549.4
443.302	21462.4
449.033	21382.4
454.758	21388.4
460.477	21344.4
466.189	21275.4
471.896	21202.4
477.596	21168.4
483.29	21181.4
488.978	21082.4
494.66	21042.4
500.335	20958.4
506.005	20646.4
511.668	20409.4
517.325	20120.4
522.977	19927.4
528.622	19811.4
534.261	19668.4
539.894	19560.4
545.521	19520.4
551.141	19383.4
556.756	19412.4
562.365	19370.4
567.968	19213.4
573.565	19104.4
579.155	19080.4
584.74	18985.4
590.319	18867.4
595.892	18864.4
601.459	18762.4
607.02	18688.4
612.575	18591.4
618.124	18450.4
623.667	18346.4
629.204	18226.4
634.735	18171.4
640.261	18073.4
645.781	18016.4
651.294	18030.4
656.802	18000.4
662.304	17919.4
667.8	17890.4
673.29	17903.4
678.775	17841.4
684.254	17761.4
689.726	17704.4
695.193	17664.4
700.655	17608.4
706.11	17512.4
711.56	17395.4
717.004	17289.4
722.442	17226.4
727.874	17172.4
733.301	17110.4
738.722	17041.4
744.137	17039.4
749.547	17018.4
754.951	17018.4
760.349	17054.4
765.741	17006.4
771.128	17023.4
776.509	17066.4
781.885	17102.4
787.254	17043.4
792.618	16925.4
797.977	16854.4
803.33	16733.4
808.677	16663.4
814.019	16526.4
819.355	16390.4
824.686	16413.4
830.011	16328.4
835.33	16308.4
840.644	16371.4
845.952	16346.4
851.255	16349.4
856.552	16449.4
861.844	16362.4
867.13	16328.4
872.41	16226.4
877.686	16190.4
882.955	16043.4
888.219	15869.4
893.478	15753.4
898.731	15563.4
903.979	15393.4
909.221	15339.4
914.458	15165.4
919.69	15186.4
924.916	15210.4
930.136	15305.4
935.351	15356.4
940.561	15317.4
945.766	15266.4
950.965	15225.4
956.158	15122.4
961.347	14962.4
966.529	14756.4
971.707	14568.4
976.879	14446.4
982.046	14260.4
987.208	14262.4
992.364	14196.4
997.515	14341.4
1002.66	14476.4
1007.801	14606.4
1012.936	14725.4
1018.066	14720.4
1023.19	14706.4
1028.309	14751.4
1033.423	14650.4
1038.532	14652.4
1043.636	14500.4
1048.734	14305.4
1053.827	14170.4
1058.915	13933.4
1063.998	13896.4
1069.075	13819.4
1074.147	13846.4
1079.214	13914.4
1084.276	13975.4
1089.333	14025.4
1094.385	14074.4
1099.431	14145.4
1104.472	14150.4
1109.509	14061.4
1114.54	13911.4
1119.565	13696.4
1124.586	13466.4
1129.602	13421.4
1134.613	13316.4
1139.618	13227.4
1144.619	13197.4
1149.614	13183.4
1154.604	13251.4
1159.589	13298.4
1164.57	13301.4
1169.545	13270.4
1174.515	13298.4
1179.48	13235.4
1184.44	13095.4
1189.395	13044.4
1194.345	13007.4
1199.29	12857.4
1204.23	12836.4
1209.165	12943.4
1214.095	12990.4
1219.021	13102.4
1223.941	13171.4
1228.856	13199.4
1233.766	13225.4
1238.672	13250.4
1243.572	13237.4
1248.467	13108.4
1253.358	12963.4
1258.244	12789.4
1263.124	12592.4
1268	12366.4
1272.871	12292.4
1277.737	12183.4
1282.599	12075.4
1287.455	12099.4
1292.306	12076.4
1297.153	12145.4
1301.995	12225.4
1306.832	12230.4
1311.664	12220.4
1316.491	12163.4
1321.314	12074.4
1326.132	11928.4
1330.945	11701.4
1335.753	11489.4
1340.556	11179.4
1345.354	10957.4
1350.148	10802.4
1354.937	10636.4
1359.722	10634.4
1364.501	10612.4
1369.276	10730.4
1374.046	10803.4
1378.811	10967.4
1383.572	11064.4
1388.327	11085.4
1393.079	11114.4
1397.825	10962.4
1402.567	10825.4
1407.304	10712.4
1412.036	10618.4
1416.764	10541.4
1421.487	10466.4
1426.205	10410.4
1430.919	10357.4
1435.628	10387.4
1440.333	10387.4
1445.032	10414.4
1449.727	10466.4
1454.418	10456.4
1459.104	10307.4
1463.785	10151.4
1468.462	9942.4
1473.134	9755.4
1477.802	9553.4
1482.465	9378.4
1487.123	9255.4
1491.777	9227.4
1496.426	9224.4
1501.071	9317.4
1505.711	9471.4
1510.347	9606.4
1514.978	9810.4
1519.604	9862.4
1524.226	9976.4
1528.844	9993.4
1533.457	9953.4
1538.065	9970.4
1542.669	9861.4
1547.269	9777.4
1551.864	9754.4
1556.454	9717.4
1561.041	9665.4
1565.622	9685.4
1570.199	9704.4
1574.772	9706.4
1579.34	9790.4
1583.904	9842.4
1588.464	9879.4
1593.019	9892.4
1597.569	9868.4
1602.115	9758.4
1606.657	9739.4
1611.195	9627.4
1615.728	9600.4
1620.256	9562.4
1624.78	9513.4
1629.3	9515.4
1633.816	9594.4
1638.327	9639.4
1642.834	9664.4
1647.336	9732.4
1651.834	9706.4
1656.328	9647.4
1660.817	9632.4
1665.302	9504.4
1669.783	9329.4
1674.259	9133.4
1678.732	8925.4
1683.199	8640.4
1687.663	8351.4
1692.122	8089.4
1696.577	7972.4
1701.028	7893.4
1705.474	7896.4
1709.917	7960.4
1714.355	8011.4
1718.788	7956.4
1723.218	7870.4
1727.643	7754.4
1732.064	7626.4
1736.481	7461.4
1740.893	7269.4
1745.301	7101.4
1749.705	6892.4
1754.105	6724.4
1758.501	6539.4
1762.893	6373.4
1767.28	6221.4
1771.663	6051.4
1776.042	5959.4
1780.417	5909.4
1784.787	5868.4
1789.154	5943.4
1793.516	6012.4
1797.874	6105.4
1802.228	6176.4
1806.578	6284.4
1810.924	6254.4
1815.266	6181.4
1819.603	6116.4
1823.937	6037.4
1828.266	5935.4
1832.591	5848.4
1836.913	5812.4
1841.23	5736.4
1845.543	5684.4
1849.852	5694.4
1854.156	5676.4
1858.457	5627.4
1862.754	5593.4
1867.047	5630.4
1871.335	5624.4
1875.62	5597.4
1879.9	5586.4
1884.177	5564.4
1888.449	5482.4
1892.718	5448.4
1896.982	5413.4
1901.243	5341.4
1905.499	5297.4
1909.752	5300.4
1914	5286.4
1918.245	5278.4
1922.485	5293.4
1926.722	5341.4
1930.954	5419.4
1935.183	5480.4
1939.408	5517.4
1943.628	5521.4
1947.845	5530.4
1952.058	5530.4
1956.267	5509.4
1960.472	5427.4
1964.673	5339.4
1968.87	5283.4
1973.063	5166.4
1977.252	5113.4
1981.438	5040.4
1985.619	5009.4
1989.797	4975.4
1993.971	4903.4
1998.14	4908.4
2002.306	4869.4
2006.469	4856.4
2010.627	4855.4
2014.781	4824.4
2018.932	4780.4
2023.078	4759.4
2027.221	4680.4
2031.36	4608.4
2035.495	4525.4
2039.627	4473.4
2043.754	4418.4
2047.878	4349.4
2051.998	4316.4
2056.114	4311.4
2060.226	4292.4
2064.334	4283.4
2068.439	4310.4
2072.54	4301.4
2076.637	4346.4
2080.73	4392.4
2084.82	4411.4
2088.906	4416.4
2092.988	4401.4
2097.066	4377.4
2101.14	4341.4
2105.211	4354.4
2109.278	4328.4
2113.342	4290.4
2117.401	4276.4
2121.457	4255.4
2125.509	4228.4
2129.558	4221.4
2133.602	4199.4
2137.643	4138.4
2141.681	4142.4
2145.714	4103.4
2149.744	4074.4
2153.77	4058.4
2157.793	3981.4
2161.812	3934.4
2165.827	3903.4
2169.838	3844.4
2173.846	3784.4
2177.851	3745.4
2181.851	3679.4
2185.848	3602.4
2189.841	3568.4
2193.831	3521.4
2197.817	3516.4
2201.799	3495.4
2205.778	3482.4
2209.753	3480.4
2213.725	3454.4
2217.693	3437.4
2221.657	3442.4
2225.618	3435.4
2229.575	3434.4
2233.529	3368.4
2237.479	3332.4
2241.425	3317.4
2245.368	3250.4
2249.307	3226.4
2253.243	3166.4
2257.175	3121.4
2261.104	3047.4
2265.029	3067.4
2268.95	3043.4
2272.868	2980.4
2276.783	2939.4
2280.694	2945.4
2284.601	2869.4
2288.505	2880.4
2292.405	2859.4
2296.302	2815.4
2300.195	2772.4
2304.085	2755.4
2307.971	2711.4
2311.854	2665.4
2315.734	2615.4
2319.609	2601.4
2323.482	2555.4
2327.351	2538.4
2331.216	2530.4
2335.078	2521.4
2338.937	2472.4
2342.792	2486.4
2346.643	2464.4
2350.492	2454.4
2354.336	2478.4
2358.178	2503.4
2362.015	2468.4
2365.85	2499.4
2369.681	2515.4
2373.508	2510.4
2377.333	2480.4
2381.153	2487.4
2384.971	2474.4
2388.785	2469.4
2392.595	2435.4
2396.402	2431.4
2400.206	2391.4
2404.007	2378.4
2407.804	2366.4
2411.597	2354.4
2415.388	2351.4
2419.174	2306.4
2422.958	2310.4
2426.738	2296.4
2430.515	2264.4
2434.289	2245.4
2438.059	2242.4
2441.825	2216.4
2445.589	2195.4
2449.349	2144.4
2453.106	2152.4
2456.859	2105.4
2460.61	2074.4
2464.356	2063.4
2468.1	2037.4
2471.84	2022.4
2475.577	1994.4
2479.311	1990.4
2483.041	1981.4
2486.768	1961.4
2490.492	1947.4
2494.213	1943.4
2497.93	1948.4
2501.644	1935.4
2505.355	1890.4
2509.062	1904.4
2512.766	1894.4
2516.467	1863.4
2520.165	1866.4
2523.859	1875.4
2527.551	1844.4
2531.239	1831.4
2534.923	1822.4
2538.605	1803.4
2542.283	1787.4
2545.958	1762.4
2549.63	1797.4
2553.299	1778.4
2556.964	1772.4
2560.626	1780.4
2564.285	1777.4
2567.941	1775.4
2571.594	1739.4
2575.243	1727.4
2578.89	1731.4
2582.533	1717.4
2586.173	1698.4
2589.809	1676.4
2593.443	1662.4
2597.073	1640.4
2600.701	1632.4
2604.325	1629.4
2607.946	1600.4
2611.564	1600.4
2615.178	1612.4
2618.79	1568.4
2622.398	1567.4
2626.004	1543.4
2629.606	1515.4
2633.205	1505.4
2636.801	1495.4
2640.394	1471.4
2643.983	1429.4
2647.57	1434.4
2651.153	1391.4
2654.734	1365.4
2658.311	1361.4
2661.885	1327.4
2665.456	1295.4
2669.025	1305.4
2672.589	1282.4
2676.151	1276.4
2679.71	1255.4
2683.266	1236.4
2686.819	1218.4
2690.368	1190.4
2693.915	1167.4
2697.458	1154.4
2700.999	1112.4
2704.536	1104.4
2708.071	1059.4
2711.602	1047.4
2715.13	1016.4
2718.656	995.4
2722.178	977.4
2725.697	959.4
2729.214	961.4
2732.727	947.4
2736.237	945.4
2739.744	928.4
2743.249	927.4
2746.75	926.4
2750.248	923.4
2753.743	941.4
2757.236	948.4
2760.725	961.4
2764.211	976.4
2767.695	979.4
2771.175	944.4
2774.652	968.4
2778.127	959.4
2781.598	951.4
2785.067	953.4
2788.532	950.4
2791.995	925.4
2795.455	931.4
2798.911	950.4
2802.365	935.4
2805.816	948.4
2809.264	934.4
2812.709	952.4
2816.151	943.4
2819.59	949.4
2823.026	948.4
2826.46	950.4
2829.89	941.4
2833.318	946.4
2836.742	943.4
2840.164	959.4
2843.583	963.4
2846.999	982.4
2850.412	991.4
2853.822	986.4
2857.229	1013.4
2860.634	1023.4
2864.035	1048.4
2867.434	1060.4
2870.83	1069.4
2874.223	1088.4
2877.613	1100.4
2881	1133.4
2884.385	1125.4
2887.766	1106.4
2891.145	1104.4
2894.521	1130.4
2897.894	1118.4
2901.264	1104.4
2904.631	1124.4
2907.996	1122.4
2911.358	1126.4
2914.717	1114.4
2918.073	1141.4
2921.426	1134.4
2924.777	1153.4
2928.124	1178.4
2931.469	1193.4
2934.811	1229.4
2938.15	1242.4
2941.487	1247.4
2944.821	1264.4
2948.152	1246.4
2951.48	1242.4
2954.805	1223.4
2958.128	1222.4
2961.447	1184.4
2964.765	1220.4
2968.079	1219.4
2971.39	1240.4
2974.699	1223.4
2978.005	1259.4
2981.308	1254.4
2984.609	1282.4
2987.907	1301.4
2991.202	1330.4
2994.494	1360.4
2997.784	1389.4
3001.07	1424.4
3004.355	1409.4
3007.636	1457.4
3010.915	1468.4
3014.191	1465.4
3017.464	1499.4
3020.734	1495.4
3024.002	1495.4
3027.267	1520.4
3030.53	1527.4
3033.789	1544.4
3037.046	1559.4
3040.301	1591.4
3043.552	1629.4
3046.801	1651.4
3050.048	1696.4
3053.291	1750.4
3056.532	1778.4
3059.771	1826.4
3063.006	1890.4
3066.239	1939.4
3069.469	1995.4
3072.697	2063.4
3075.922	2088.4
3079.144	2137.4
3082.364	2192.4
3085.581	2251.4
3088.795	2321.4
3092.007	2369.4
3095.216	2381.4
3098.423	2442.4
3101.627	2487.4
3104.828	2556.4
3108.026	2608.4
3111.222	2670.4
3114.416	2744.4
3117.607	2785.4
3120.795	2863.4
3123.98	2935.4
3127.163	3011.4
3130.344	3064.4
3133.521	3128.4
3136.696	3233.4
3139.869	3299.4
3143.039	3304.4
3146.206	3357.4
3149.371	3422.4
3152.533	3459.4
3155.693	3477.4
3158.85	3519.4
3162.005	3493.4
3165.157	3539.4
3168.306	3540.4
3171.453	3526.4
3174.597	3576.4
3177.739	3537.4
3180.878	3550.4
3184.014	3574.4
3187.149	3554.4
3190.28	3568.4
3193.409	3570.4
3196.536	3545.4
3199.659	3586.4
3202.781	3587.4
3205.9	3608.4
3209.016	3584.4
3212.13	3550.4
3215.241	3536.4
3218.35	3519.4
3221.456	3458.4
3224.56	3438.4
3227.661	3405.4
3230.76	3376.4
3233.856	3339.4
3236.95	3300.4
3240.041	3272.4
3243.13	3262.4
3246.216	3238.4
3249.3	3216.4
3252.382	3187.4
3255.46	3185.4
3258.537	3157.4
3261.611	3192.4
3264.682	3194.4
3267.751	3171.4
3270.818	3177.4
3273.882	3162.4
3276.943	3115.4
3280.002	3107.4
3283.059	3085.4
3286.113	3070.4
3289.165	2997.4
3292.214	2960.4
3295.261	2917.4
3298.306	2867.4
3301.348	2832.4
3304.387	2761.4
3307.425	2725.4
3310.459	2691.4
3313.492	2628.4
3316.521	2601.4
3319.549	2582.4
3322.574	2541.4
3325.597	2539.4
3328.617	2502.4
3331.635	2492.4
3334.65	2497.4
3337.663	2440.4
3340.674	2434.4
3343.682	2449.4
3346.688	2451.4
3349.691	2413.4
3352.692	2428.4
3355.691	2397.4
3358.687	2386.4
3361.681	2359.4
3364.673	2322.4
3367.662	2294.4
3370.649	2251.4
3373.633	2213.4
3376.615	2172.4
3379.595	2144.4
3382.572	2129.4
3385.547	2093.4
3388.52	2069.4
3391.49	2041.4
3394.458	1991.4
3397.424	1970.4
3400.387	1948.4
3403.348	1912.4
3406.307	1919.4
3409.263	1900.4
3412.217	1840.4
3415.168	1831.4
3418.118	1825.4
3421.065	1783.4
3424.009	1764.4
3426.951	1735.4
3429.891	1715.4
3432.829	1666.4
3435.764	1635.4
3438.697	1605.4
3441.628	1542.4
3444.557	1498.4
3447.483	1423.4
3450.407	1409.4
3453.328	1373.4
3456.247	1313.4
3459.164	1265.4
3462.079	1220.4
3464.991	1176.4
3467.902	1138.4
3470.809	1083.4
3473.715	1056.4
3476.618	1005.4
3479.519	979.4
3482.418	945.4
3485.315	913.4
3488.209	881.4
3491.101	831.4
3493.99	829.4
3496.878	784.4
3499.763	754.4
3502.646	719.4
3505.527	680.4
3508.405	665.4
3511.281	615.4
3514.155	565.4
3517.027	543.4
3519.897	503.4
3522.764	471.4
3525.629	433.4
3528.492	396.4
3531.352	354.4
3534.211	328.4
3537.067	290.4
3539.921	261.4
3542.773	235.4
3545.622	205.4
3548.469	170.4
3551.315	157.4
3554.157	124.4
3556.998	92.4
3559.837	78.4
3562.673	61.4
3565.507	40.4
3568.339	23.4
3571.169	-5.6
3573.996	-12.6
3576.822	-37.6
3579.645	-66.6
3582.466	-78.6
3585.285	-90.6
3588.101	-116.6
3590.916	-122.6
3593.728	-160.6
3596.538	-161.6
3599.346	-181.6
3602.152	-200.6
3604.956	-198.6
3607.757	-225.6
3610.556	-234.6
3613.354	-245.6
3616.149	-265.6
3618.942	-277.6
3621.732	-280.6
3624.521	-297.6
3627.307	-299.6
3630.092	-317.6
3632.874	-319.6
3635.654	-333.6
3638.432	-330.6
3641.208	-344.6
3643.982	-349.6
3646.753	-356.6
3649.523	-364.6
3652.29	-375.6
3655.055	-382.6
3657.818	-395.6
3660.579	-408.6
3663.338	-416.6
3666.095	-422.6
3668.849	-436.6
3671.602	-437.6
3674.352	-448.6
3677.101	-448.6
3679.847	-468.6
3682.591	-467.6
3685.333	-475.6
3688.073	-476.6
3690.811	-486.6
3693.547	-481.6
3696.281	-492.6
3699.013	-489.6
3701.742	-493.6
3704.47	-499.6
3707.195	-508.6
3709.919	-506.6
3712.64	-516.6
3715.359	-510.6
3718.076	-519.6
3720.792	-514.6
3723.505	-516.6
3726.216	-522.6
3728.925	-527.6
3731.632	-537.6
3734.336	-531.6
3737.039	-540.6
3739.74	-533.6
3742.439	-546.6
3745.136	-540.6
3747.83	-547.6
3750.523	-553.6
3753.213	-541.6
3755.902	-556.6
3758.589	-555.6
3761.273	-557.6
3763.956	-559.6
3766.636	-560.6
3769.315	-560.6
3771.991	-556.6
3774.665	-563.6
3777.338	-565.6
3780.008	-564.6
3782.677	-570.6
3785.343	-564.6
3788.007	-570.6
3790.67	-568.6
3793.33	-576.6
3795.989	-571.6
3798.645	-569.6
3801.299	-571.6
3803.952	-578.6
3806.602	-582.6
3809.251	-585.6
3811.897	-581.6
3814.542	-581.6
3817.184	-575.6
3819.825	-577.6
3822.463	-573.6
3825.1	-583.6
3827.735	-576.6
3830.367	-579.6
3832.998	-589.6
3835.627	-591.6
3838.253	-590.6
3840.878	-594.6
3843.501	-591.6
3846.122	-585.6
3848.741	-587.6
3851.358	-584.6
3853.973	-589.6
3856.586	-589.6
3859.197	-587.6
3861.806	-591.6
3864.414	-587.6
3867.019	-587.6
3869.622	-588.6
3872.224	-579.6
3874.823	-569.6
3877.421	-550.6
3880.016	-527.6
3882.61	-506.6
3885.202	-500.6
3887.792	-517.6
3890.38	-560.6
3892.966	-575.6
3895.55	-587.6
3898.132	-598.6
3900.713	-610.6
3903.291	-598.6
3905.868	-601.6
3908.442	-601.6
3911.015	-604.6
3913.586	-598.6
3916.155	-598.6
3918.722	-608.6
3921.287	-601.6
3923.85	-604.6
3926.411	-607.6
3928.971	-606.6
3931.528	-602.6
3934.084	-603.6
3936.638	-604.6
3939.19	-601.6
3941.74	-600.6
3944.288	-605.6
3946.834	-601.6
3949.378	-606.6
3951.921	-605.6
3954.462	-608.6
3957	-602.6
3959.537	-607.6
3962.072	-602.6
3964.606	-603.6
3967.137	-607.6
3969.667	-610.6
3972.194	-596.6
3974.72	-604.6
3977.244	-589.6
3979.766	-590.6
3982.286	-595.6
3984.805	-594.6
3987.321	-588.6
3989.836	-597.6
3992.349	-588.6
3994.86	-589.6
3997.369	-598.6
3999.877	-589.6
4002.382	-594.6
4004.886	-585.6
4007.388	-583.6
4009.888	-585.6
4012.386	-598.6
4014.883	-588.6
4017.377	-591.6
4019.87	-586.6
4022.361	-589.6
4024.85	-592.6
4027.338	-595.6
4029.823	-596.6
4032.307	-596.6
4034.789	-594.6
4037.269	-587.6
4039.747	-591.6
4042.224	-594.6
4044.699	-594.6
4047.172	-595.6
4049.643	-591.6
4052.112	-599.6
4054.58	-602.6
4057.046	-594.6
4059.51	-594.6
4061.972	-594.6
4064.432	-595.6
4066.891	-591.6
4069.348	-592.6
4071.803	-593.6
4074.256	-587.6
4076.708	-591.6
4079.158	-588.6
4081.606	-593.6
4084.052	-530.6
4086.497	-307.6
4088.939	-575.6
4091.38	-584.6
4093.819	-595.6
4096.257	-623.6
4098.693	-622.6
4101.127	-624.6
4103.559	-621.6
4105.989	-341.6
4108.418	-325.6
4110.845	-298.6
4113.27	-280.6
4115.694	-249.6
4118.115	-202.6
4120.535	-593.6
4122.954	-586.6
4125.37	-584.6
4127.785	-594.6
4130.198	-593.6
4132.609	-595.6
4135.019	-627.6
4137.427	-625.6
4139.833	-627.6
4142.237	-623.6
