Data from 2018-2-14_conc=3_n=6_RamanShift_02.txt Node
Date: Wed Feb 14 11:59:26 IST 2018
User: aro
Spectrometer: QEPB0276
Trigger mode: 0
Integration Time (sec): 3.000000E1
Scans to average: 1
Electric dark correction enabled: true
Nonlinearity correction enabled: false
Boxcar width: 0
XAxis mode: Raman Shifts
Number of Pixels in Spectrum: 1044
>>>>>Begin Spectral Data<<<<<
160.701	-152.6
166.742	58.4
172.777	599.4
178.805	2295.4
184.826	6372.4
190.841	13386.4
196.849	21512.4
202.85	27280.4
208.845	29139.4
214.833	28862.4
220.815	28218.4
226.789	28018.4
232.758	27831.4
238.719	27657.4
244.674	27273.4
250.623	26781.4
256.565	26156.4
262.5	25642.4
268.429	25219.4
274.351	24720.4
280.267	24415.4
286.176	24066.4
292.079	23889.4
297.975	23606.4
303.865	23359.4
309.748	23225.4
315.625	23073.4
321.495	22951.4
327.359	22894.4
333.217	22809.4
339.068	22815.4
344.912	22769.4
350.751	22667.4
356.583	22689.4
362.408	22644.4
368.227	22698.4
374.04	22704.4
379.847	22808.4
385.647	22783.4
391.44	22849.4
397.228	22966.4
403.009	23078.4
408.784	23203.4
414.553	23245.4
420.315	23297.4
426.071	23325.4
431.821	23270.4
437.565	23276.4
443.302	23170.4
449.033	23159.4
454.758	23132.4
460.477	23068.4
466.189	23043.4
471.896	23016.4
477.596	22956.4
483.29	22869.4
488.978	22829.4
494.66	22726.4
500.335	22609.4
506.005	22409.4
511.668	22083.4
517.325	21902.4
522.977	21693.4
528.622	21547.4
534.261	21411.4
539.894	21293.4
545.521	21147.4
551.141	21148.4
556.756	21002.4
562.365	20949.4
567.968	20886.4
573.565	20749.4
579.155	20679.4
584.74	20650.4
590.319	20572.4
595.892	20456.4
601.459	20402.4
607.02	20325.4
612.575	20128.4
618.124	20086.4
623.667	19954.4
629.204	19851.4
634.735	19797.4
640.261	19573.4
645.781	19585.4
651.294	19599.4
656.802	19512.4
662.304	19523.4
667.8	19448.4
673.29	19367.4
678.775	19374.4
684.254	19336.4
689.726	19267.4
695.193	19184.4
700.655	19091.4
706.11	19002.4
711.56	18907.4
717.004	18819.4
722.442	18750.4
727.874	18620.4
733.301	18562.4
738.722	18565.4
744.137	18518.4
749.547	18476.4
754.951	18533.4
760.349	18508.4
765.741	18495.4
771.128	18500.4
776.509	18489.4
781.885	18490.4
787.254	18492.4
792.618	18415.4
797.977	18314.4
803.33	18144.4
808.677	18001.4
814.019	18002.4
819.355	17834.4
824.686	17786.4
830.011	17852.4
835.33	17766.4
840.644	17738.4
845.952	17816.4
851.255	17808.4
856.552	17868.4
861.844	17815.4
867.13	17766.4
872.41	17638.4
877.686	17550.4
882.955	17462.4
888.219	17269.4
893.478	17100.4
898.731	16924.4
903.979	16713.4
909.221	16551.4
914.458	16501.4
919.69	16553.4
924.916	16538.4
930.136	16688.4
935.351	16663.4
940.561	16616.4
945.766	16624.4
950.965	16530.4
956.158	16424.4
961.347	16275.4
966.529	16012.4
971.707	15837.4
976.879	15668.4
982.046	15488.4
987.208	15449.4
992.364	15471.4
997.515	15553.4
1002.66	15696.4
1007.801	15876.4
1012.936	16000.4
1018.066	15984.4
1023.19	16011.4
1028.309	15934.4
1033.423	15912.4
1038.532	15899.4
1043.636	15702.4
1048.734	15474.4
1053.827	15286.4
1058.915	15196.4
1063.998	15086.4
1069.075	15019.4
1074.147	15023.4
1079.214	15074.4
1084.276	15174.4
1089.333	15242.4
1094.385	15340.4
1099.431	15369.4
1104.472	15364.4
1109.509	15230.4
1114.54	15091.4
1119.565	14864.4
1124.586	14715.4
1129.602	14549.4
1134.613	14511.4
1139.618	14371.4
1144.619	14362.4
1149.614	14331.4
1154.604	14353.4
1159.589	14393.4
1164.57	14417.4
1169.545	14419.4
1174.515	14438.4
1179.48	14435.4
1184.44	14318.4
1189.395	14138.4
1194.345	14079.4
1199.29	14013.4
1204.23	13962.4
1209.165	14041.4
1214.095	14174.4
1219.021	14190.4
1223.941	14269.4
1228.856	14349.4
1233.766	14387.4
1238.672	14411.4
1243.572	14407.4
1248.467	14299.4
1253.358	14148.4
1258.244	13880.4
1263.124	13695.4
1268	13496.4
1272.871	13345.4
1277.737	13239.4
1282.599	13153.4
1287.455	13138.4
1292.306	13239.4
1297.153	13288.4
1301.995	13331.4
1306.832	13390.4
1311.664	13363.4
1316.491	13369.4
1321.314	13260.4
1326.132	13059.4
1330.945	12766.4
1335.753	12434.4
1340.556	12142.4
1345.354	11807.4
1350.148	11649.4
1354.937	11572.4
1359.722	11537.4
1364.501	11614.4
1369.276	11798.4
1374.046	11993.4
1378.811	12163.4
1383.572	12274.4
1388.327	12350.4
1393.079	12303.4
1397.825	12116.4
1402.567	11970.4
1407.304	11755.4
1412.036	11674.4
1416.764	11563.4
1421.487	11450.4
1426.205	11411.4
1430.919	11322.4
1435.628	11390.4
1440.333	11369.4
1445.032	11408.4
1449.727	11460.4
1454.418	11441.4
1459.104	11301.4
1463.785	11039.4
1468.462	10815.4
1473.134	10660.4
1477.802	10408.4
1482.465	10271.4
1487.123	10171.4
1491.777	10110.4
1496.426	10213.4
1501.071	10329.4
1505.711	10487.4
1510.347	10639.4
1514.978	10881.4
1519.604	11043.4
1524.226	11139.4
1528.844	11167.4
1533.457	11157.4
1538.065	11148.4
1542.669	11034.4
1547.269	10946.4
1551.864	10860.4
1556.454	10774.4
1561.041	10767.4
1565.622	10735.4
1570.199	10799.4
1574.772	10833.4
1579.34	10904.4
1583.904	10974.4
1588.464	11011.4
1593.019	11014.4
1597.569	10961.4
1602.115	10866.4
1606.657	10819.4
1611.195	10786.4
1615.728	10688.4
1620.256	10619.4
1624.78	10661.4
1629.3	10678.4
1633.816	10683.4
1638.327	10750.4
1642.834	10823.4
1647.336	10884.4
1651.834	10911.4
1656.328	10860.4
1660.817	10824.4
1665.302	10697.4
1669.783	10551.4
1674.259	10313.4
1678.732	10027.4
1683.199	9711.4
1687.663	9354.4
1692.122	9058.4
1696.577	8972.4
1701.028	8930.4
1705.474	9034.4
1709.917	9110.4
1714.355	9175.4
1718.788	9085.4
1723.218	8943.4
1727.643	8775.4
1732.064	8601.4
1736.481	8390.4
1740.893	8175.4
1745.301	7989.4
1749.705	7774.4
1754.105	7517.4
1758.501	7314.4
1762.893	7123.4
1767.28	6960.4
1771.663	6793.4
1776.042	6683.4
1780.417	6617.4
1784.787	6627.4
1789.154	6699.4
1793.516	6848.4
1797.874	6961.4
1802.228	7111.4
1806.578	7135.4
1810.924	7143.4
1815.266	7127.4
1819.603	6984.4
1823.937	6882.4
1828.266	6740.4
1832.591	6617.4
1836.913	6553.4
1841.23	6445.4
1845.543	6412.4
1849.852	6393.4
1854.156	6351.4
1858.457	6351.4
1862.754	6335.4
1867.047	6339.4
1871.335	6346.4
1875.62	6304.4
1879.9	6313.4
1884.177	6240.4
1888.449	6206.4
1892.718	6162.4
1896.982	6102.4
1901.243	6024.4
1905.499	6012.4
1909.752	5963.4
1914	5994.4
1918.245	6024.4
1922.485	6058.4
1926.722	6138.4
1930.954	6200.4
1935.183	6283.4
1939.408	6352.4
1943.628	6383.4
1947.845	6384.4
1952.058	6341.4
1956.267	6316.4
1960.472	6279.4
1964.673	6156.4
1968.87	6056.4
1973.063	5916.4
1977.252	5863.4
1981.438	5827.4
1985.619	5737.4
1989.797	5662.4
1993.971	5689.4
1998.14	5643.4
2002.306	5607.4
2006.469	5609.4
2010.627	5552.4
2014.781	5522.4
2018.932	5476.4
2023.078	5405.4
2027.221	5364.4
2031.36	5275.4
2035.495	5168.4
2039.627	5087.4
2043.754	5065.4
2047.878	4985.4
2051.998	4972.4
2056.114	4967.4
2060.226	4948.4
2064.334	4956.4
2068.439	4994.4
2072.54	5004.4
2076.637	5074.4
2080.73	5103.4
2084.82	5123.4
2088.906	5115.4
2092.988	5153.4
2097.066	5123.4
2101.14	5097.4
2105.211	5088.4
2109.278	5051.4
2113.342	4996.4
2117.401	4975.4
2121.457	4943.4
2125.509	4928.4
2129.558	4891.4
2133.602	4887.4
2137.643	4827.4
2141.681	4818.4
2145.714	4790.4
2149.744	4758.4
2153.77	4687.4
2157.793	4647.4
2161.812	4586.4
2165.827	4523.4
2169.838	4473.4
2173.846	4395.4
2177.851	4299.4
2181.851	4235.4
2185.848	4211.4
2189.841	4117.4
2193.831	4099.4
2197.817	4065.4
2201.799	4057.4
2205.778	4017.4
2209.753	4016.4
2213.725	4013.4
2217.693	4010.4
2221.657	3985.4
2225.618	3998.4
2229.575	3940.4
2233.529	3922.4
2237.479	3874.4
2241.425	3832.4
2245.368	3774.4
2249.307	3711.4
2253.243	3670.4
2257.175	3624.4
2261.104	3578.4
2265.029	3517.4
2268.95	3476.4
2272.868	3480.4
2276.783	3418.4
2280.694	3364.4
2284.601	3353.4
2288.505	3313.4
2292.405	3277.4
2296.302	3256.4
2300.195	3219.4
2304.085	3165.4
2307.971	3131.4
2311.854	3117.4
2315.734	3048.4
2319.609	2995.4
2323.482	2969.4
2327.351	2920.4
2331.216	2895.4
2335.078	2887.4
2338.937	2871.4
2342.792	2841.4
2346.643	2840.4
2350.492	2836.4
2354.336	2836.4
2358.178	2837.4
2362.015	2864.4
2365.85	2860.4
2369.681	2835.4
2373.508	2856.4
2377.333	2858.4
2381.153	2826.4
2384.971	2844.4
2388.785	2792.4
2392.595	2742.4
2396.402	2757.4
2400.206	2726.4
2404.007	2694.4
2407.804	2679.4
2411.597	2674.4
2415.388	2637.4
2419.174	2633.4
2422.958	2611.4
2426.738	2590.4
2430.515	2586.4
2434.289	2569.4
2438.059	2508.4
2441.825	2522.4
2445.589	2477.4
2449.349	2443.4
2453.106	2413.4
2456.859	2396.4
2460.61	2350.4
2464.356	2331.4
2468.1	2319.4
2471.84	2296.4
2475.577	2258.4
2479.311	2264.4
2483.041	2250.4
2486.768	2226.4
2490.492	2225.4
2494.213	2226.4
2497.93	2216.4
2501.644	2221.4
2505.355	2212.4
2509.062	2197.4
2512.766	2174.4
2516.467	2172.4
2520.165	2134.4
2523.859	2116.4
2527.551	2112.4
2531.239	2099.4
2534.923	2079.4
2538.605	2082.4
2542.283	2093.4
2545.958	2056.4
2549.63	2080.4
2553.299	2072.4
2556.964	2059.4
2560.626	2057.4
2564.285	2037.4
2567.941	2038.4
2571.594	2026.4
2575.243	1999.4
2578.89	1994.4
2582.533	1981.4
2586.173	1955.4
2589.809	1955.4
2593.443	1919.4
2597.073	1908.4
2600.701	1869.4
2604.325	1901.4
2607.946	1869.4
2611.564	1862.4
2615.178	1850.4
2618.79	1832.4
2622.398	1811.4
2626.004	1801.4
2629.606	1788.4
2633.205	1751.4
2636.801	1735.4
2640.394	1691.4
2643.983	1660.4
2647.57	1662.4
2651.153	1637.4
2654.734	1606.4
2658.311	1577.4
2661.885	1559.4
2665.456	1528.4
2669.025	1517.4
2672.589	1490.4
2676.151	1498.4
2679.71	1467.4
2683.266	1466.4
2686.819	1419.4
2690.368	1400.4
2693.915	1351.4
2697.458	1325.4
2700.999	1312.4
2704.536	1282.4
2708.071	1251.4
2711.602	1232.4
2715.13	1190.4
2718.656	1173.4
2722.178	1156.4
2725.697	1129.4
2729.214	1128.4
2732.727	1099.4
2736.237	1097.4
2739.744	1119.4
2743.249	1126.4
2746.75	1121.4
2750.248	1139.4
2753.743	1152.4
2757.236	1169.4
2760.725	1185.4
2764.211	1181.4
2767.695	1179.4
2771.175	1183.4
2774.652	1181.4
2778.127	1178.4
2781.598	1158.4
2785.067	1150.4
2788.532	1155.4
2791.995	1150.4
2795.455	1131.4
2798.911	1126.4
2802.365	1138.4
2805.816	1129.4
2809.264	1149.4
2812.709	1128.4
2816.151	1141.4
2819.59	1142.4
2823.026	1137.4
2826.46	1157.4
2829.89	1146.4
2833.318	1138.4
2836.742	1148.4
2840.164	1170.4
2843.583	1175.4
2846.999	1193.4
2850.412	1193.4
2853.822	1198.4
2857.229	1213.4
2860.634	1246.4
2864.035	1266.4
2867.434	1303.4
2870.83	1303.4
2874.223	1310.4
2877.613	1347.4
2881	1342.4
2884.385	1385.4
2887.766	1364.4
2891.145	1362.4
2894.521	1372.4
2897.894	1359.4
2901.264	1373.4
2904.631	1368.4
2907.996	1365.4
2911.358	1388.4
2914.717	1373.4
2918.073	1395.4
2921.426	1422.4
2924.777	1436.4
2928.124	1449.4
2931.469	1476.4
2934.811	1499.4
2938.15	1509.4
2941.487	1542.4
2944.821	1540.4
2948.152	1547.4
2951.48	1538.4
2954.805	1521.4
2958.128	1510.4
2961.447	1488.4
2964.765	1475.4
2968.079	1490.4
2971.39	1515.4
2974.699	1539.4
2978.005	1565.4
2981.308	1592.4
2984.609	1632.4
2987.907	1640.4
2991.202	1668.4
2994.494	1722.4
2997.784	1749.4
3001.07	1779.4
3004.355	1790.4
3007.636	1827.4
3010.915	1850.4
3014.191	1868.4
3017.464	1868.4
3020.734	1883.4
3024.002	1898.4
3027.267	1925.4
3030.53	1924.4
3033.789	1950.4
3037.046	1959.4
3040.301	2000.4
3043.552	2023.4
3046.801	2093.4
3050.048	2104.4
3053.291	2185.4
3056.532	2240.4
3059.771	2292.4
3063.006	2351.4
3066.239	2431.4
3069.469	2514.4
3072.697	2550.4
3075.922	2621.4
3079.144	2669.4
3082.364	2739.4
3085.581	2810.4
3088.795	2850.4
3092.007	2932.4
3095.216	2967.4
3098.423	3047.4
3101.627	3137.4
3104.828	3198.4
3108.026	3269.4
3111.222	3348.4
3114.416	3407.4
3117.607	3486.4
3120.795	3536.4
3123.98	3646.4
3127.163	3709.4
3130.344	3840.4
3133.521	3935.4
3136.696	4032.4
3139.869	4075.4
3143.039	4164.4
3146.206	4210.4
3149.371	4258.4
3152.533	4312.4
3155.693	4331.4
3158.85	4347.4
3162.005	4372.4
3165.157	4411.4
3168.306	4398.4
3171.453	4424.4
3174.597	4457.4
3177.739	4431.4
3180.878	4424.4
3184.014	4438.4
3187.149	4447.4
3190.28	4466.4
3193.409	4460.4
3196.536	4485.4
3199.659	4487.4
3202.781	4459.4
3205.9	4480.4
3209.016	4445.4
3212.13	4460.4
3215.241	4442.4
3218.35	4406.4
3221.456	4345.4
3224.56	4332.4
3227.661	4240.4
3230.76	4194.4
3233.856	4172.4
3236.95	4142.4
3240.041	4104.4
3243.13	4091.4
3246.216	4057.4
3249.3	4020.4
3252.382	4024.4
3255.46	4005.4
3258.537	4024.4
3261.611	4011.4
3264.682	3999.4
3267.751	3985.4
3270.818	3986.4
3273.882	3964.4
3276.943	3961.4
3280.002	3903.4
3283.059	3886.4
3286.113	3841.4
3289.165	3746.4
3292.214	3688.4
3295.261	3641.4
3298.306	3602.4
3301.348	3543.4
3304.387	3468.4
3307.425	3420.4
3310.459	3394.4
3313.492	3302.4
3316.521	3290.4
3319.549	3230.4
3322.574	3221.4
3325.597	3165.4
3328.617	3138.4
3331.635	3123.4
3334.65	3115.4
3337.663	3095.4
3340.674	3051.4
3343.682	3070.4
3346.688	3041.4
3349.691	3037.4
3352.692	3015.4
3355.691	2983.4
3358.687	2971.4
3361.681	2931.4
3364.673	2904.4
3367.662	2863.4
3370.649	2813.4
3373.633	2755.4
3376.615	2744.4
3379.595	2696.4
3382.572	2673.4
3385.547	2609.4
3388.52	2583.4
3391.49	2541.4
3394.458	2516.4
3397.424	2481.4
3400.387	2476.4
3403.348	2429.4
3406.307	2403.4
3409.263	2354.4
3412.217	2324.4
3415.168	2296.4
3418.118	2284.4
3421.065	2236.4
3424.009	2222.4
3426.951	2190.4
3429.891	2145.4
3432.829	2105.4
3435.764	2062.4
3438.697	1999.4
3441.628	1942.4
3444.557	1900.4
3447.483	1827.4
3450.407	1791.4
3453.328	1740.4
3456.247	1662.4
3459.164	1602.4
3462.079	1562.4
3464.991	1507.4
3467.902	1429.4
3470.809	1393.4
3473.715	1337.4
3476.618	1289.4
3479.519	1247.4
3482.418	1223.4
3485.315	1165.4
3488.209	1134.4
3491.101	1094.4
3493.99	1049.4
3496.878	1002.4
3499.763	977.4
3502.646	946.4
3505.527	894.4
3508.405	865.4
3511.281	817.4
3514.155	777.4
3517.027	713.4
3519.897	675.4
3522.764	633.4
3525.629	591.4
3528.492	543.4
3531.352	506.4
3534.211	459.4
3537.067	421.4
3539.921	381.4
3542.773	344.4
3545.622	319.4
3548.469	286.4
3551.315	247.4
3554.157	226.4
3556.998	177.4
3559.837	150.4
3562.673	132.4
3565.507	95.4
3568.339	81.4
3571.169	55.4
3573.996	42.4
3576.822	20.4
3579.645	-28.6
3582.466	-33.6
3585.285	-54.6
3588.101	-72.6
3590.916	-88.6
3593.728	-130.6
3596.538	-138.6
3599.346	-164.6
3602.152	-176.6
3604.956	-197.6
3607.757	-213.6
3610.556	-228.6
3613.354	-237.6
3616.149	-254.6
3618.942	-271.6
3621.732	-283.6
3624.521	-300.6
3627.307	-314.6
3630.092	-319.6
3632.874	-328.6
3635.654	-343.6
3638.432	-348.6
3641.208	-359.6
3643.982	-378.6
3646.753	-386.6
3649.523	-394.6
3652.29	-393.6
3655.055	-405.6
3657.818	-418.6
3660.579	-439.6
3663.338	-438.6
3666.095	-455.6
3668.849	-465.6
3671.602	-473.6
3674.352	-478.6
3677.101	-480.6
3679.847	-505.6
3682.591	-505.6
3685.333	-509.6
3688.073	-513.6
3690.811	-518.6
3693.547	-523.6
3696.281	-539.6
3699.013	-539.6
3701.742	-552.6
3704.47	-554.6
3707.195	-558.6
3709.919	-560.6
3712.64	-568.6
3715.359	-566.6
3718.076	-566.6
3720.792	-570.6
3723.505	-571.6
3726.216	-589.6
3728.925	-585.6
3731.632	-585.6
3734.336	-589.6
3737.039	-590.6
3739.74	-590.6
3742.439	-601.6
3745.136	-599.6
3747.83	-609.6
3750.523	-610.6
3753.213	-581.6
3755.902	-614.6
3758.589	-611.6
3761.273	-612.6
3763.956	-617.6
3766.636	-615.6
3769.315	-625.6
3771.991	-621.6
3774.665	-627.6
3777.338	-620.6
3780.008	-623.6
3782.677	-634.6
3785.343	-625.6
3788.007	-630.6
3790.67	-630.6
3793.33	-633.6
3795.989	-637.6
3798.645	-634.6
3801.299	-630.6
3803.952	-642.6
3806.602	-653.6
3809.251	-648.6
3811.897	-640.6
3814.542	-645.6
3817.184	-639.6
3819.825	-643.6
3822.463	-647.6
3825.1	-646.6
3827.735	-644.6
3830.367	-646.6
3832.998	-654.6
3835.627	-653.6
3838.253	-651.6
3840.878	-653.6
3843.501	-648.6
3846.122	-646.6
3848.741	-650.6
3851.358	-653.6
3853.973	-654.6
3856.586	-653.6
3859.197	-661.6
3861.806	-664.6
3864.414	-659.6
3867.019	-653.6
3869.622	-659.6
3872.224	-655.6
3874.823	-633.6
3877.421	-620.6
3880.016	-610.6
3882.61	-586.6
3885.202	-586.6
3887.792	-600.6
3890.38	-625.6
3892.966	-646.6
3895.55	-652.6
3898.132	-663.6
3900.713	-670.6
3903.291	-664.6
3905.868	-671.6
3908.442	-665.6
3911.015	-671.6
3913.586	-664.6
3916.155	-669.6
3918.722	-670.6
3921.287	-676.6
3923.85	-678.6
3926.411	-676.6
3928.971	-676.6
3931.528	-675.6
3934.084	-672.6
3936.638	-672.6
3939.19	-672.6
3941.74	-673.6
3944.288	-671.6
3946.834	-670.6
3949.378	-674.6
3951.921	-672.6
3954.462	-679.6
3957	-673.6
3959.537	-673.6
3962.072	-674.6
3964.606	-668.6
3967.137	-674.6
3969.667	-675.6
3972.194	-670.6
3974.72	-674.6
3977.244	-663.6
3979.766	-668.6
3982.286	-661.6
3984.805	-659.6
3987.321	-661.6
3989.836	-663.6
3992.349	-658.6
3994.86	-654.6
3997.369	-658.6
3999.877	-658.6
4002.382	-654.6
4004.886	-654.6
4007.388	-659.6
4009.888	-656.6
4012.386	-660.6
4014.883	-658.6
4017.377	-661.6
4019.87	-659.6
4022.361	-659.6
4024.85	-663.6
4027.338	-662.6
4029.823	-659.6
4032.307	-661.6
4034.789	-657.6
4037.269	-660.6
4039.747	-662.6
4042.224	-662.6
4044.699	-662.6
4047.172	-658.6
4049.643	-655.6
4052.112	-668.6
4054.58	-667.6
4057.046	-669.6
4059.51	-666.6
4061.972	-668.6
4064.432	-666.6
4066.891	-668.6
4069.348	-664.6
4071.803	-658.6
4074.256	-663.6
4076.708	-661.6
4079.158	-664.6
4081.606	-669.6
4084.052	-666.6
4086.497	-664.6
4088.939	-660.6
4091.38	-661.6
4093.819	-659.6
4096.257	-697.6
4098.693	-696.6
4101.127	-700.6
4103.559	-693.6
4105.989	-402.6
4108.418	-389.6
4110.845	-352.6
4113.27	-322.6
4115.694	-285.6
4118.115	-236.6
4120.535	-660.6
4122.954	-657.6
4125.37	-653.6
4127.785	-659.6
4130.198	-662.6
4132.609	-667.6
4135.019	-701.6
4137.427	-700.6
4139.833	-700.6
4142.237	-697.6
