Data from 1000CFU2_B_ramanshift_RamanShift_12-23-42-617.txt Node
Date: Sun Jan 01 12:23:42 IST 2017
User: aro
Spectrometer: QEPB0276
Trigger mode: 0
Integration Time (sec): 5.000000E0
Scans to average: 1
Electric dark correction enabled: true
Nonlinearity correction enabled: false
Boxcar width: 0
XAxis mode: Raman Shifts
Number of Pixels in Spectrum: 1044
>>>>>Begin Spectral Data<<<<<
160.701	2.12
166.742	18.12
172.777	62.12
178.805	194.12
184.826	561.12
190.841	1368.12
196.849	2567.12
202.85	3732.12
208.845	4326.12
214.833	4374.12
220.815	4187.12
226.789	4068.12
232.758	3958.12
238.719	3849.12
244.674	3705.12
250.623	3586.12
256.565	3447.12
262.5	3274.12
268.429	3142.12
274.351	3027.12
280.267	2896.12
286.176	2815.12
292.079	2708.12
297.975	2596.12
303.865	2544.12
309.748	2455.12
315.625	2396.12
321.495	2377.12
327.359	2311.12
333.217	2286.12
339.068	2272.12
344.912	2255.12
350.751	2230.12
356.583	2245.12
362.408	2246.12
368.227	2211.12
374.04	2238.12
379.847	2207.12
385.647	2240.12
391.44	2234.12
397.228	2251.12
403.009	2287.12
408.784	2268.12
414.553	2270.12
420.315	2274.12
426.071	2281.12
431.821	2287.12
437.565	2276.12
443.302	2277.12
449.033	2279.12
454.758	2273.12
460.477	2234.12
466.189	2239.12
471.896	2253.12
477.596	2227.12
483.29	2217.12
488.978	2213.12
494.66	2193.12
500.335	2176.12
506.005	2158.12
511.668	2119.12
517.325	2090.12
522.977	2069.12
528.622	2031.12
534.261	2019.12
539.894	1977.12
545.521	1973.12
551.141	1965.12
556.756	1964.12
562.365	1950.12
567.968	1949.12
573.565	1926.12
579.155	1912.12
584.74	1901.12
590.319	1880.12
595.892	1870.12
601.459	1867.12
607.02	1860.12
612.575	1849.12
618.124	1832.12
623.667	1811.12
629.204	1813.12
634.735	1798.12
640.261	1781.12
645.781	1763.12
651.294	1756.12
656.802	1740.12
662.304	1732.12
667.8	1742.12
673.29	1727.12
678.775	1718.12
684.254	1707.12
689.726	1690.12
695.193	1695.12
700.655	1682.12
706.11	1670.12
711.56	1659.12
717.004	1651.12
722.442	1648.12
727.874	1605.12
733.301	1624.12
738.722	1600.12
744.137	1618.12
749.547	1604.12
754.951	1602.12
760.349	1603.12
765.741	1588.12
771.128	1598.12
776.509	1585.12
781.885	1607.12
787.254	1599.12
792.618	1593.12
797.977	1583.12
803.33	1575.12
808.677	1549.12
814.019	1538.12
819.355	1531.12
824.686	1508.12
830.011	1503.12
835.33	1502.12
840.644	1484.12
845.952	1487.12
851.255	1475.12
856.552	1464.12
861.844	1458.12
867.13	1462.12
872.41	1467.12
877.686	1445.12
882.955	1450.12
888.219	1426.12
893.478	1402.12
898.731	1370.12
903.979	1348.12
909.221	1346.12
914.458	1329.12
919.69	1315.12
924.916	1322.12
930.136	1330.12
935.351	1331.12
940.561	1319.12
945.766	1328.12
950.965	1320.12
956.158	1313.12
961.347	1310.12
966.529	1276.12
971.707	1268.12
976.879	1258.12
982.046	1225.12
987.208	1229.12
992.364	1225.12
997.515	1230.12
1002.66	1232.12
1007.801	1246.12
1012.936	1247.12
1018.066	1265.12
1023.19	1263.12
1028.309	1265.12
1033.423	1265.12
1038.532	1279.12
1043.636	1282.12
1048.734	1263.12
1053.827	1253.12
1058.915	1224.12
1063.998	1219.12
1069.075	1216.12
1074.147	1223.12
1079.214	1230.12
1084.276	1220.12
1089.333	1248.12
1094.385	1249.12
1099.431	1256.12
1104.472	1259.12
1109.509	1248.12
1114.54	1249.12
1119.565	1227.12
1124.586	1223.12
1129.602	1195.12
1134.613	1201.12
1139.618	1185.12
1144.619	1189.12
1149.614	1190.12
1154.604	1195.12
1159.589	1202.12
1164.57	1217.12
1169.545	1208.12
1174.515	1218.12
1179.48	1206.12
1184.44	1216.12
1189.395	1213.12
1194.345	1198.12
1199.29	1189.12
1204.23	1185.12
1209.165	1192.12
1214.095	1198.12
1219.021	1218.12
1223.941	1220.12
1228.856	1234.12
1233.766	1226.12
1238.672	1242.12
1243.572	1228.12
1248.467	1225.12
1253.358	1227.12
1258.244	1212.12
1263.124	1202.12
1268	1180.12
1272.871	1155.12
1277.737	1154.12
1282.599	1156.12
1287.455	1155.12
1292.306	1149.12
1297.153	1173.12
1301.995	1176.12
1306.832	1169.12
1311.664	1179.12
1316.491	1176.12
1321.314	1183.12
1326.132	1165.12
1330.945	1157.12
1335.753	1144.12
1340.556	1146.12
1345.354	1138.12
1350.148	1116.12
1354.937	1122.12
1359.722	1092.12
1364.501	1095.12
1369.276	1086.12
1374.046	1062.12
1378.811	1073.12
1383.572	1072.12
1388.327	1051.12
1393.079	1081.12
1397.825	1060.12
1402.567	1055.12
1407.304	1047.12
1412.036	1046.12
1416.764	1040.12
1421.487	1035.12
1426.205	1037.12
1430.919	1052.12
1435.628	1056.12
1440.333	1070.12
1445.032	1078.12
1449.727	1101.12
1454.418	1086.12
1459.104	1104.12
1463.785	1081.12
1468.462	1093.12
1473.134	1068.12
1477.802	1060.12
1482.465	1050.12
1487.123	1036.12
1491.777	1046.12
1496.426	1042.12
1501.071	1056.12
1505.711	1071.12
1510.347	1061.12
1514.978	1079.12
1519.604	1094.12
1524.226	1103.12
1528.844	1102.12
1533.457	1096.12
1538.065	1102.12
1542.669	1098.12
1547.269	1088.12
1551.864	1107.12
1556.454	1086.12
1561.041	1116.12
1565.622	1106.12
1570.199	1127.12
1574.772	1134.12
1579.34	1156.12
1583.904	1183.12
1588.464	1209.12
1593.019	1211.12
1597.569	1237.12
1602.115	1241.12
1606.657	1261.12
1611.195	1256.12
1615.728	1296.12
1620.256	1301.12
1624.78	1300.12
1629.3	1308.12
1633.816	1332.12
1638.327	1341.12
1642.834	1365.12
1647.336	1380.12
1651.834	1374.12
1656.328	1388.12
1660.817	1378.12
1665.302	1344.12
1669.783	1337.12
1674.259	1312.12
1678.732	1275.12
1683.199	1240.12
1687.663	1206.12
1692.122	1178.12
1696.577	1138.12
1701.028	1094.12
1705.474	1047.12
1709.917	1007.12
1714.355	985.12
1718.788	975.12
1723.218	954.12
1727.643	945.12
1732.064	922.12
1736.481	924.12
1740.893	882.12
1745.301	869.12
1749.705	848.12
1754.105	834.12
1758.501	814.12
1762.893	804.12
1767.28	782.12
1771.663	770.12
1776.042	763.12
1780.417	759.12
1784.787	765.12
1789.154	769.12
1793.516	772.12
1797.874	761.12
1802.228	764.12
1806.578	758.12
1810.924	745.12
1815.266	751.12
1819.603	728.12
1823.937	717.12
1828.266	713.12
1832.591	711.12
1836.913	708.12
1841.23	700.12
1845.543	703.12
1849.852	696.12
1854.156	705.12
1858.457	703.12
1862.754	708.12
1867.047	709.12
1871.335	715.12
1875.62	711.12
1879.9	720.12
1884.177	734.12
1888.449	721.12
1892.718	709.12
1896.982	713.12
1901.243	701.12
1905.499	697.12
1909.752	707.12
1914	694.12
1918.245	701.12
1922.485	713.12
1926.722	695.12
1930.954	707.12
1935.183	699.12
1939.408	717.12
1943.628	705.12
1947.845	707.12
1952.058	709.12
1956.267	702.12
1960.472	706.12
1964.673	702.12
1968.87	701.12
1973.063	689.12
1977.252	680.12
1981.438	674.12
1985.619	667.12
1989.797	669.12
1993.971	678.12
1998.14	674.12
2002.306	683.12
2006.469	685.12
2010.627	690.12
2014.781	676.12
2018.932	691.12
2023.078	693.12
2027.221	688.12
2031.36	685.12
2035.495	669.12
2039.627	656.12
2043.754	669.12
2047.878	673.12
2051.998	665.12
2056.114	668.12
2060.226	665.12
2064.334	671.12
2068.439	672.12
2072.54	676.12
2076.637	675.12
2080.73	677.12
2084.82	682.12
2088.906	674.12
2092.988	669.12
2097.066	672.12
2101.14	665.12
2105.211	673.12
2109.278	664.12
2113.342	674.12
2117.401	661.12
2121.457	658.12
2125.509	648.12
2129.558	649.12
2133.602	643.12
2137.643	644.12
2141.681	652.12
2145.714	636.12
2149.744	648.12
2153.77	638.12
2157.793	628.12
2161.812	631.12
2165.827	619.12
2169.838	608.12
2173.846	604.12
2177.851	604.12
2181.851	592.12
2185.848	585.12
2189.841	572.12
2193.831	575.12
2197.817	556.12
2201.799	559.12
2205.778	564.12
2209.753	570.12
2213.725	562.12
2217.693	554.12
2221.657	567.12
2225.618	554.12
2229.575	553.12
2233.529	555.12
2237.479	556.12
2241.425	539.12
2245.368	534.12
2249.307	537.12
2253.243	518.12
2257.175	520.12
2261.104	519.12
2265.029	508.12
2268.95	504.12
2272.868	489.12
2276.783	482.12
2280.694	487.12
2284.601	478.12
2288.505	479.12
2292.405	478.12
2296.302	476.12
2300.195	464.12
2304.085	447.12
2307.971	453.12
2311.854	451.12
2315.734	442.12
2319.609	436.12
2323.482	421.12
2327.351	418.12
2331.216	414.12
2335.078	424.12
2338.937	404.12
2342.792	415.12
2346.643	403.12
2350.492	402.12
2354.336	411.12
2358.178	408.12
2362.015	405.12
2365.85	406.12
2369.681	408.12
2373.508	399.12
2377.333	409.12
2381.153	403.12
2384.971	413.12
2388.785	413.12
2392.595	405.12
2396.402	402.12
2400.206	398.12
2404.007	405.12
2407.804	387.12
2411.597	399.12
2415.388	395.12
2419.174	395.12
2422.958	394.12
2426.738	387.12
2430.515	395.12
2434.289	380.12
2438.059	388.12
2441.825	381.12
2445.589	381.12
2449.349	379.12
2453.106	375.12
2456.859	380.12
2460.61	368.12
2464.356	369.12
2468.1	359.12
2471.84	361.12
2475.577	357.12
2479.311	358.12
2483.041	362.12
2486.768	354.12
2490.492	358.12
2494.213	353.12
2497.93	360.12
2501.644	359.12
2505.355	352.12
2509.062	355.12
2512.766	359.12
2516.467	349.12
2520.165	353.12
2523.859	348.12
2527.551	340.12
2531.239	343.12
2534.923	342.12
2538.605	337.12
2542.283	340.12
2545.958	334.12
2549.63	334.12
2553.299	335.12
2556.964	335.12
2560.626	323.12
2564.285	326.12
2567.941	332.12
2571.594	324.12
2575.243	334.12
2578.89	316.12
2582.533	313.12
2586.173	312.12
2589.809	308.12
2593.443	313.12
2597.073	311.12
2600.701	302.12
2604.325	309.12
2607.946	307.12
2611.564	312.12
2615.178	306.12
2618.79	305.12
2622.398	305.12
2626.004	308.12
2629.606	301.12
2633.205	303.12
2636.801	297.12
2640.394	296.12
2643.983	299.12
2647.57	286.12
2651.153	279.12
2654.734	280.12
2658.311	281.12
2661.885	278.12
2665.456	279.12
2669.025	284.12
2672.589	271.12
2676.151	270.12
2679.71	274.12
2683.266	267.12
2686.819	255.12
2690.368	258.12
2693.915	271.12
2697.458	259.12
2700.999	246.12
2704.536	258.12
2708.071	252.12
2711.602	246.12
2715.13	248.12
2718.656	253.12
2722.178	255.12
2725.697	250.12
2729.214	232.12
2732.727	250.12
2736.237	244.12
2739.744	253.12
2743.249	255.12
2746.75	240.12
2750.248	249.12
2753.743	255.12
2757.236	245.12
2760.725	239.12
2764.211	244.12
2767.695	242.12
2771.175	234.12
2774.652	236.12
2778.127	231.12
2781.598	237.12
2785.067	233.12
2788.532	235.12
2791.995	229.12
2795.455	234.12
2798.911	236.12
2802.365	235.12
2805.816	233.12
2809.264	227.12
2812.709	241.12
2816.151	236.12
2819.59	243.12
2823.026	231.12
2826.46	244.12
2829.89	244.12
2833.318	245.12
2836.742	240.12
2840.164	245.12
2843.583	245.12
2846.999	247.12
2850.412	260.12
2853.822	252.12
2857.229	255.12
2860.634	252.12
2864.035	255.12
2867.434	257.12
2870.83	265.12
2874.223	262.12
2877.613	264.12
2881	265.12
2884.385	264.12
2887.766	266.12
2891.145	269.12
2894.521	260.12
2897.894	267.12
2901.264	270.12
2904.631	271.12
2907.996	267.12
2911.358	274.12
2914.717	277.12
2918.073	280.12
2921.426	278.12
2924.777	281.12
2928.124	300.12
2931.469	292.12
2934.811	298.12
2938.15	301.12
2941.487	304.12
2944.821	310.12
2948.152	314.12
2951.48	324.12
2954.805	312.12
2958.128	322.12
2961.447	323.12
2964.765	327.12
2968.079	332.12
2971.39	342.12
2974.699	352.12
2978.005	351.12
2981.308	362.12
2984.609	362.12
2987.907	369.12
2991.202	375.12
2994.494	393.12
2997.784	406.12
3001.07	407.12
3004.355	414.12
3007.636	437.12
3010.915	429.12
3014.191	448.12
3017.464	454.12
3020.734	453.12
3024.002	465.12
3027.267	470.12
3030.53	491.12
3033.789	492.12
3037.046	488.12
3040.301	503.12
3043.552	517.12
3046.801	524.12
3050.048	540.12
3053.291	547.12
3056.532	569.12
3059.771	578.12
3063.006	594.12
3066.239	604.12
3069.469	624.12
3072.697	649.12
3075.922	654.12
3079.144	677.12
3082.364	686.12
3085.581	705.12
3088.795	722.12
3092.007	735.12
3095.216	751.12
3098.423	770.12
3101.627	787.12
3104.828	786.12
3108.026	818.12
3111.222	830.12
3114.416	844.12
3117.607	858.12
3120.795	869.12
3123.98	898.12
3127.163	923.12
3130.344	936.12
3133.521	959.12
3136.696	982.12
3139.869	986.12
3143.039	1018.12
3146.206	1029.12
3149.371	1036.12
3152.533	1061.12
3155.693	1065.12
3158.85	1074.12
3162.005	1078.12
3165.157	1091.12
3168.306	1091.12
3171.453	1092.12
3174.597	1093.12
3177.739	1115.12
3180.878	1098.12
3184.014	1102.12
3187.149	1108.12
3190.28	1126.12
3193.409	1114.12
3196.536	1123.12
3199.659	1138.12
3202.781	1126.12
3205.9	1138.12
3209.016	1139.12
3212.13	1142.12
3215.241	1152.12
3218.35	1141.12
3221.456	1128.12
3224.56	1102.12
3227.661	1098.12
3230.76	1096.12
3233.856	1082.12
3236.95	1068.12
3240.041	1075.12
3243.13	1056.12
3246.216	1050.12
3249.3	1027.12
3252.382	1044.12
3255.46	1036.12
3258.537	1017.12
3261.611	1022.12
3264.682	1019.12
3267.751	1025.12
3270.818	1016.12
3273.882	1022.12
3276.943	998.12
3280.002	994.12
3283.059	1002.12
3286.113	990.12
3289.165	989.12
3292.214	958.12
3295.261	950.12
3298.306	934.12
3301.348	938.12
3304.387	905.12
3307.425	885.12
3310.459	888.12
3313.492	882.12
3316.521	870.12
3319.549	844.12
3322.574	835.12
3325.597	838.12
3328.617	829.12
3331.635	820.12
3334.65	811.12
3337.663	810.12
3340.674	807.12
3343.682	801.12
3346.688	807.12
3349.691	810.12
3352.692	814.12
3355.691	793.12
3358.687	783.12
3361.681	786.12
3364.673	777.12
3367.662	775.12
3370.649	766.12
3373.633	755.12
3376.615	744.12
3379.595	720.12
3382.572	733.12
3385.547	712.12
3388.52	694.12
3391.49	696.12
3394.458	686.12
3397.424	674.12
3400.387	662.12
3403.348	661.12
3406.307	653.12
3409.263	643.12
3412.217	627.12
3415.168	626.12
3418.118	629.12
3421.065	623.12
3424.009	610.12
3426.951	611.12
3429.891	600.12
3432.829	582.12
3435.764	563.12
3438.697	566.12
3441.628	563.12
3444.557	539.12
3447.483	528.12
3450.407	518.12
3453.328	498.12
3456.247	480.12
3459.164	478.12
3462.079	466.12
3464.991	453.12
3467.902	438.12
3470.809	427.12
3473.715	417.12
3476.618	415.12
3479.519	394.12
3482.418	387.12
3485.315	380.12
3488.209	361.12
3491.101	354.12
3493.99	344.12
3496.878	340.12
3499.763	324.12
3502.646	316.12
3505.527	307.12
3508.405	304.12
3511.281	292.12
3514.155	280.12
3517.027	271.12
3519.897	258.12
3522.764	247.12
3525.629	235.12
3528.492	226.12
3531.352	217.12
3534.211	211.12
3537.067	191.12
3539.921	182.12
3542.773	177.12
3545.622	172.12
3548.469	164.12
3551.315	151.12
3554.157	147.12
3556.998	138.12
3559.837	132.12
3562.673	123.12
3565.507	124.12
3568.339	112.12
3571.169	111.12
3573.996	106.12
3576.822	105.12
3579.645	96.12
3582.466	89.12
3585.285	82.12
3588.101	77.12
3590.916	66.12
3593.728	65.12
3596.538	61.12
3599.346	59.12
3602.152	49.12
3604.956	48.12
3607.757	46.12
3610.556	42.12
3613.354	37.12
3616.149	35.12
3618.942	24.12
3621.732	32.12
3624.521	25.12
3627.307	26.12
3630.092	15.12
3632.874	19.12
3635.654	13.12
3638.432	11.12
3641.208	7.12
3643.982	3.12
3646.753	2.12
3649.523	2.12
3652.29	-0.88
3655.055	-5.88
3657.818	-8.88
3660.579	-8.88
3663.338	-10.88
3666.095	-13.88
3668.849	-13.88
3671.602	-16.88
3674.352	-18.88
3677.101	-25.88
3679.847	-24.88
3682.591	-28.88
3685.333	-28.88
3688.073	-31.88
3690.811	-31.88
3693.547	-32.88
3696.281	-37.88
3699.013	-34.88
3701.742	-39.88
3704.47	-39.88
3707.195	-40.88
3709.919	-41.88
3712.64	-40.88
3715.359	-46.88
3718.076	-41.88
3720.792	-44.88
3723.505	-44.88
3726.216	-42.88
3728.925	-46.88
3731.632	-43.88
3734.336	-48.88
3737.039	-50.88
3739.74	-49.88
3742.439	-48.88
3745.136	-46.88
3747.83	-48.88
3750.523	-51.88
3753.213	-44.88
3755.902	-48.88
3758.589	-51.88
3761.273	-53.88
3763.956	-54.88
3766.636	-55.88
3769.315	-54.88
3771.991	-56.88
3774.665	-51.88
3777.338	-54.88
3780.008	-55.88
3782.677	-59.88
3785.343	-57.88
3788.007	-52.88
3790.67	-54.88
3793.33	-58.88
3795.989	-56.88
3798.645	-59.88
3801.299	-54.88
3803.952	-59.88
3806.602	-61.88
3809.251	-56.88
3811.897	-55.88
3814.542	-62.88
3817.184	-56.88
3819.825	-55.88
3822.463	-56.88
3825.1	-58.88
3827.735	-57.88
3830.367	-58.88
3832.998	-61.88
3835.627	-57.88
3838.253	-60.88
3840.878	-64.88
3843.501	-56.88
3846.122	-60.88
3848.741	-65.88
3851.358	-63.88
3853.973	-60.88
3856.586	-62.88
3859.197	-66.88
3861.806	-67.88
3864.414	-66.88
3867.019	-63.88
3869.622	-66.88
3872.224	-66.88
3874.823	-61.88
3877.421	-67.88
3880.016	-62.88
3882.61	-60.88
3885.202	-64.88
3887.792	-56.88
3890.38	-62.88
3892.966	-64.88
3895.55	-62.88
3898.132	-67.88
3900.713	-68.88
3903.291	-67.88
3905.868	-64.88
3908.442	-63.88
3911.015	-65.88
3913.586	-63.88
3916.155	-62.88
3918.722	-67.88
3921.287	-63.88
3923.85	-65.88
3926.411	-65.88
3928.971	-68.88
3931.528	-66.88
3934.084	-66.88
3936.638	-68.88
3939.19	-67.88
3941.74	-65.88
3944.288	-66.88
3946.834	-64.88
3949.378	-68.88
3951.921	-65.88
3954.462	-67.88
3957	-65.88
3959.537	-67.88
3962.072	-65.88
3964.606	-62.88
3967.137	-63.88
3969.667	-68.88
3972.194	-65.88
3974.72	-64.88
3977.244	-64.88
3979.766	-62.88
3982.286	-62.88
3984.805	-64.88
3987.321	-63.88
3989.836	-65.88
3992.349	-65.88
3994.86	-66.88
3997.369	-70.88
3999.877	-63.88
4002.382	-64.88
4004.886	-64.88
4007.388	-66.88
4009.888	-67.88
4012.386	-62.88
4014.883	-69.88
4017.377	-67.88
4019.87	-69.88
4022.361	-69.88
4024.85	-68.88
4027.338	-71.88
4029.823	-65.88
4032.307	-67.88
4034.789	-68.88
4037.269	-70.88
4039.747	-67.88
4042.224	-68.88
4044.699	-70.88
4047.172	-65.88
4049.643	-65.88
4052.112	-67.88
4054.58	-64.88
4057.046	-67.88
4059.51	-64.88
4061.972	-65.88
4064.432	-68.88
4066.891	-61.88
4069.348	-66.88
4071.803	-66.88
4074.256	-66.88
4076.708	-66.88
4079.158	-68.88
4081.606	-64.88
4084.052	-64.88
4086.497	-62.88
4088.939	-70.88
4091.38	-65.88
4093.819	-66.88
4096.257	-71.88
4098.693	-74.88
4101.127	-72.88
4103.559	-74.88
4105.989	-22.88
4108.418	-17.88
4110.845	-18.88
4113.27	-17.88
4115.694	-14.88
4118.115	-5.88
4120.535	-66.88
4122.954	-67.88
4125.37	-67.88
4127.785	-68.88
4130.198	-63.88
4132.609	-65.88
4135.019	-69.88
4137.427	-69.88
4139.833	-65.88
4142.237	-70.88
