Data from 10000CFU2_B_ramanshift_RamanShift_12-26-32-599.txt Node
Date: Sun Jan 01 12:26:32 IST 2017
User: aro
Spectrometer: QEPB0276
Trigger mode: 0
Integration Time (sec): 5.000000E0
Scans to average: 1
Electric dark correction enabled: true
Nonlinearity correction enabled: false
Boxcar width: 0
XAxis mode: Raman Shifts
Number of Pixels in Spectrum: 1044
>>>>>Begin Spectral Data<<<<<
160.701	10.38
166.742	22.38
172.777	57.38
178.805	196.38
184.826	572.38
190.841	1378.38
196.849	2597.38
202.85	3765.38
208.845	4370.38
214.833	4405.38
220.815	4237.38
226.789	4084.38
232.758	4001.38
238.719	3886.38
244.674	3784.38
250.623	3662.38
256.565	3500.38
262.5	3362.38
268.429	3221.38
274.351	3084.38
280.267	2962.38
286.176	2876.38
292.079	2772.38
297.975	2696.38
303.865	2610.38
309.748	2540.38
315.625	2490.38
321.495	2434.38
327.359	2368.38
333.217	2358.38
339.068	2337.38
344.912	2315.38
350.751	2303.38
356.583	2289.38
362.408	2282.38
368.227	2292.38
374.04	2276.38
379.847	2300.38
385.647	2304.38
391.44	2298.38
397.228	2296.38
403.009	2324.38
408.784	2331.38
414.553	2368.38
420.315	2357.38
426.071	2351.38
431.821	2352.38
437.565	2337.38
443.302	2356.38
449.033	2344.38
454.758	2343.38
460.477	2335.38
466.189	2337.38
471.896	2339.38
477.596	2303.38
483.29	2289.38
488.978	2297.38
494.66	2265.38
500.335	2254.38
506.005	2254.38
511.668	2209.38
517.325	2162.38
522.977	2127.38
528.622	2123.38
534.261	2082.38
539.894	2062.38
545.521	2045.38
551.141	2035.38
556.756	2031.38
562.365	2017.38
567.968	2011.38
573.565	1994.38
579.155	1986.38
584.74	1983.38
590.319	1957.38
595.892	1962.38
601.459	1961.38
607.02	1936.38
612.575	1923.38
618.124	1914.38
623.667	1910.38
629.204	1854.38
634.735	1861.38
640.261	1851.38
645.781	1826.38
651.294	1835.38
656.802	1827.38
662.304	1820.38
667.8	1799.38
673.29	1800.38
678.775	1782.38
684.254	1803.38
689.726	1782.38
695.193	1778.38
700.655	1743.38
706.11	1741.38
711.56	1728.38
717.004	1738.38
722.442	1726.38
727.874	1715.38
733.301	1714.38
738.722	1710.38
744.137	1703.38
749.547	1698.38
754.951	1689.38
760.349	1691.38
765.741	1692.38
771.128	1697.38
776.509	1674.38
781.885	1693.38
787.254	1684.38
792.618	1676.38
797.977	1666.38
803.33	1667.38
808.677	1659.38
814.019	1648.38
819.355	1626.38
824.686	1606.38
830.011	1590.38
835.33	1581.38
840.644	1597.38
845.952	1580.38
851.255	1575.38
856.552	1563.38
861.844	1563.38
867.13	1558.38
872.41	1555.38
877.686	1542.38
882.955	1519.38
888.219	1515.38
893.478	1503.38
898.731	1472.38
903.979	1458.38
909.221	1438.38
914.458	1425.38
919.69	1430.38
924.916	1423.38
930.136	1424.38
935.351	1434.38
940.561	1423.38
945.766	1421.38
950.965	1411.38
956.158	1399.38
961.347	1401.38
966.529	1385.38
971.707	1379.38
976.879	1351.38
982.046	1340.38
987.208	1330.38
992.364	1320.38
997.515	1328.38
1002.66	1348.38
1007.801	1352.38
1012.936	1355.38
1018.066	1368.38
1023.19	1379.38
1028.309	1387.38
1033.423	1395.38
1038.532	1397.38
1043.636	1389.38
1048.734	1368.38
1053.827	1373.38
1058.915	1346.38
1063.998	1315.38
1069.075	1332.38
1074.147	1324.38
1079.214	1344.38
1084.276	1329.38
1089.333	1352.38
1094.385	1374.38
1099.431	1376.38
1104.472	1366.38
1109.509	1366.38
1114.54	1364.38
1119.565	1344.38
1124.586	1339.38
1129.602	1324.38
1134.613	1312.38
1139.618	1312.38
1144.619	1319.38
1149.614	1313.38
1154.604	1322.38
1159.589	1330.38
1164.57	1334.38
1169.545	1331.38
1174.515	1336.38
1179.48	1340.38
1184.44	1347.38
1189.395	1327.38
1194.345	1322.38
1199.29	1304.38
1204.23	1292.38
1209.165	1319.38
1214.095	1324.38
1219.021	1323.38
1223.941	1326.38
1228.856	1372.38
1233.766	1345.38
1238.672	1341.38
1243.572	1351.38
1248.467	1349.38
1253.358	1350.38
1258.244	1349.38
1263.124	1324.38
1268	1294.38
1272.871	1293.38
1277.737	1286.38
1282.599	1264.38
1287.455	1263.38
1292.306	1277.38
1297.153	1272.38
1301.995	1293.38
1306.832	1285.38
1311.664	1308.38
1316.491	1299.38
1321.314	1313.38
1326.132	1293.38
1330.945	1286.38
1335.753	1289.38
1340.556	1273.38
1345.354	1239.38
1350.148	1251.38
1354.937	1235.38
1359.722	1219.38
1364.501	1209.38
1369.276	1201.38
1374.046	1196.38
1378.811	1197.38
1383.572	1188.38
1388.327	1174.38
1393.079	1172.38
1397.825	1181.38
1402.567	1164.38
1407.304	1169.38
1412.036	1165.38
1416.764	1152.38
1421.487	1158.38
1426.205	1152.38
1430.919	1164.38
1435.628	1182.38
1440.333	1198.38
1445.032	1201.38
1449.727	1201.38
1454.418	1203.38
1459.104	1215.38
1463.785	1210.38
1468.462	1195.38
1473.134	1187.38
1477.802	1170.38
1482.465	1167.38
1487.123	1171.38
1491.777	1164.38
1496.426	1163.38
1501.071	1173.38
1505.711	1178.38
1510.347	1188.38
1514.978	1199.38
1519.604	1218.38
1524.226	1214.38
1528.844	1211.38
1533.457	1214.38
1538.065	1207.38
1542.669	1211.38
1547.269	1212.38
1551.864	1213.38
1556.454	1220.38
1561.041	1219.38
1565.622	1222.38
1570.199	1252.38
1574.772	1243.38
1579.34	1283.38
1583.904	1280.38
1588.464	1307.38
1593.019	1322.38
1597.569	1355.38
1602.115	1352.38
1606.657	1359.38
1611.195	1375.38
1615.728	1378.38
1620.256	1402.38
1624.78	1393.38
1629.3	1414.38
1633.816	1441.38
1638.327	1447.38
1642.834	1464.38
1647.336	1473.38
1651.834	1479.38
1656.328	1486.38
1660.817	1482.38
1665.302	1476.38
1669.783	1445.38
1674.259	1408.38
1678.732	1370.38
1683.199	1346.38
1687.663	1323.38
1692.122	1277.38
1696.577	1245.38
1701.028	1182.38
1705.474	1152.38
1709.917	1092.38
1714.355	1088.38
1718.788	1069.38
1723.218	1040.38
1727.643	1042.38
1732.064	1042.38
1736.481	1012.38
1740.893	1003.38
1745.301	984.38
1749.705	958.38
1754.105	933.38
1758.501	915.38
1762.893	893.38
1767.28	896.38
1771.663	882.38
1776.042	872.38
1780.417	867.38
1784.787	863.38
1789.154	858.38
1793.516	877.38
1797.874	860.38
1802.228	873.38
1806.578	863.38
1810.924	856.38
1815.266	837.38
1819.603	828.38
1823.937	820.38
1828.266	816.38
1832.591	797.38
1836.913	805.38
1841.23	807.38
1845.543	803.38
1849.852	801.38
1854.156	812.38
1858.457	809.38
1862.754	814.38
1867.047	812.38
1871.335	816.38
1875.62	821.38
1879.9	828.38
1884.177	821.38
1888.449	816.38
1892.718	818.38
1896.982	814.38
1901.243	814.38
1905.499	810.38
1909.752	793.38
1914	802.38
1918.245	807.38
1922.485	798.38
1926.722	802.38
1930.954	800.38
1935.183	804.38
1939.408	817.38
1943.628	808.38
1947.845	806.38
1952.058	814.38
1956.267	814.38
1960.472	794.38
1964.673	784.38
1968.87	782.38
1973.063	777.38
1977.252	766.38
1981.438	765.38
1985.619	763.38
1989.797	772.38
1993.971	761.38
1998.14	753.38
2002.306	764.38
2006.469	785.38
2010.627	786.38
2014.781	770.38
2018.932	783.38
2023.078	780.38
2027.221	775.38
2031.36	788.38
2035.495	770.38
2039.627	764.38
2043.754	762.38
2047.878	754.38
2051.998	761.38
2056.114	742.38
2060.226	759.38
2064.334	762.38
2068.439	743.38
2072.54	748.38
2076.637	766.38
2080.73	769.38
2084.82	768.38
2088.906	767.38
2092.988	752.38
2097.066	769.38
2101.14	757.38
2105.211	758.38
2109.278	745.38
2113.342	741.38
2117.401	737.38
2121.457	735.38
2125.509	728.38
2129.558	733.38
2133.602	724.38
2137.643	731.38
2141.681	726.38
2145.714	730.38
2149.744	730.38
2153.77	714.38
2157.793	716.38
2161.812	715.38
2165.827	709.38
2169.838	701.38
2173.846	684.38
2177.851	673.38
2181.851	669.38
2185.848	666.38
2189.841	649.38
2193.831	657.38
2197.817	644.38
2201.799	653.38
2205.778	642.38
2209.753	646.38
2213.725	632.38
2217.693	644.38
2221.657	639.38
2225.618	640.38
2229.575	633.38
2233.529	636.38
2237.479	628.38
2241.425	629.38
2245.368	608.38
2249.307	609.38
2253.243	600.38
2257.175	603.38
2261.104	588.38
2265.029	587.38
2268.95	580.38
2272.868	575.38
2276.783	564.38
2280.694	561.38
2284.601	554.38
2288.505	554.38
2292.405	540.38
2296.302	540.38
2300.195	539.38
2304.085	529.38
2307.971	525.38
2311.854	527.38
2315.734	511.38
2319.609	493.38
2323.482	500.38
2327.351	499.38
2331.216	493.38
2335.078	489.38
2338.937	481.38
2342.792	472.38
2346.643	481.38
2350.492	471.38
2354.336	469.38
2358.178	483.38
2362.015	476.38
2365.85	478.38
2369.681	480.38
2373.508	478.38
2377.333	472.38
2381.153	484.38
2384.971	488.38
2388.785	475.38
2392.595	478.38
2396.402	473.38
2400.206	480.38
2404.007	470.38
2407.804	470.38
2411.597	480.38
2415.388	465.38
2419.174	461.38
2422.958	463.38
2426.738	466.38
2430.515	449.38
2434.289	459.38
2438.059	453.38
2441.825	465.38
2445.589	452.38
2449.349	448.38
2453.106	446.38
2456.859	458.38
2460.61	437.38
2464.356	439.38
2468.1	439.38
2471.84	434.38
2475.577	440.38
2479.311	427.38
2483.041	432.38
2486.768	422.38
2490.492	431.38
2494.213	429.38
2497.93	426.38
2501.644	429.38
2505.355	434.38
2509.062	431.38
2512.766	432.38
2516.467	421.38
2520.165	426.38
2523.859	419.38
2527.551	424.38
2531.239	413.38
2534.923	409.38
2538.605	410.38
2542.283	409.38
2545.958	411.38
2549.63	410.38
2553.299	402.38
2556.964	390.38
2560.626	387.38
2564.285	400.38
2567.941	381.38
2571.594	383.38
2575.243	395.38
2578.89	385.38
2582.533	379.38
2586.173	381.38
2589.809	377.38
2593.443	371.38
2597.073	377.38
2600.701	367.38
2604.325	371.38
2607.946	367.38
2611.564	363.38
2615.178	366.38
2618.79	367.38
2622.398	363.38
2626.004	365.38
2629.606	368.38
2633.205	363.38
2636.801	364.38
2640.394	355.38
2643.983	350.38
2647.57	353.38
2651.153	346.38
2654.734	342.38
2658.311	343.38
2661.885	331.38
2665.456	327.38
2669.025	338.38
2672.589	330.38
2676.151	330.38
2679.71	333.38
2683.266	322.38
2686.819	319.38
2690.368	312.38
2693.915	316.38
2697.458	315.38
2700.999	306.38
2704.536	307.38
2708.071	304.38
2711.602	301.38
2715.13	298.38
2718.656	304.38
2722.178	282.38
2725.697	300.38
2729.214	288.38
2732.727	301.38
2736.237	296.38
2739.744	294.38
2743.249	302.38
2746.75	290.38
2750.248	295.38
2753.743	294.38
2757.236	288.38
2760.725	293.38
2764.211	291.38
2767.695	284.38
2771.175	279.38
2774.652	278.38
2778.127	273.38
2781.598	269.38
2785.067	273.38
2788.532	269.38
2791.995	268.38
2795.455	280.38
2798.911	275.38
2802.365	283.38
2805.816	285.38
2809.264	274.38
2812.709	279.38
2816.151	283.38
2819.59	284.38
2823.026	280.38
2826.46	282.38
2829.89	283.38
2833.318	283.38
2836.742	292.38
2840.164	283.38
2843.583	290.38
2846.999	293.38
2850.412	296.38
2853.822	289.38
2857.229	297.38
2860.634	287.38
2864.035	302.38
2867.434	307.38
2870.83	296.38
2874.223	300.38
2877.613	303.38
2881	296.38
2884.385	305.38
2887.766	292.38
2891.145	302.38
2894.521	304.38
2897.894	305.38
2901.264	305.38
2904.631	295.38
2907.996	294.38
2911.358	305.38
2914.717	304.38
2918.073	313.38
2921.426	308.38
2924.777	311.38
2928.124	323.38
2931.469	320.38
2934.811	327.38
2938.15	331.38
2941.487	335.38
2944.821	339.38
2948.152	335.38
2951.48	343.38
2954.805	345.38
2958.128	344.38
2961.447	349.38
2964.765	350.38
2968.079	368.38
2971.39	364.38
2974.699	365.38
2978.005	385.38
2981.308	385.38
2984.609	383.38
2987.907	395.38
2991.202	401.38
2994.494	408.38
2997.784	424.38
3001.07	428.38
3004.355	439.38
3007.636	437.38
3010.915	457.38
3014.191	458.38
3017.464	474.38
3020.734	478.38
3024.002	480.38
3027.267	492.38
3030.53	490.38
3033.789	506.38
3037.046	514.38
3040.301	522.38
3043.552	523.38
3046.801	535.38
3050.048	547.38
3053.291	559.38
3056.532	578.38
3059.771	589.38
3063.006	601.38
3066.239	628.38
3069.469	645.38
3072.697	639.38
3075.922	665.38
3079.144	674.38
3082.364	697.38
3085.581	710.38
3088.795	731.38
3092.007	745.38
3095.216	764.38
3098.423	765.38
3101.627	790.38
3104.828	799.38
3108.026	816.38
3111.222	819.38
3114.416	859.38
3117.607	858.38
3120.795	886.38
3123.98	901.38
3127.163	919.38
3130.344	955.38
3133.521	976.38
3136.696	984.38
3139.869	999.38
3143.039	1028.38
3146.206	1039.38
3149.371	1048.38
3152.533	1059.38
3155.693	1054.38
3158.85	1073.38
3162.005	1084.38
3165.157	1069.38
3168.306	1096.38
3171.453	1079.38
3174.597	1101.38
3177.739	1099.38
3180.878	1105.38
3184.014	1093.38
3187.149	1103.38
3190.28	1122.38
3193.409	1116.38
3196.536	1098.38
3199.659	1130.38
3202.781	1124.38
3205.9	1119.38
3209.016	1130.38
3212.13	1127.38
3215.241	1121.38
3218.35	1119.38
3221.456	1105.38
3224.56	1093.38
3227.661	1063.38
3230.76	1073.38
3233.856	1061.38
3236.95	1059.38
3240.041	1047.38
3243.13	1039.38
3246.216	1027.38
3249.3	1024.38
3252.382	1020.38
3255.46	1006.38
3258.537	1009.38
3261.611	994.38
3264.682	994.38
3267.751	995.38
3270.818	1000.38
3273.882	1004.38
3276.943	991.38
3280.002	967.38
3283.059	980.38
3286.113	967.38
3289.165	951.38
3292.214	945.38
3295.261	926.38
3298.306	909.38
3301.348	904.38
3304.387	894.38
3307.425	865.38
3310.459	866.38
3313.492	860.38
3316.521	850.38
3319.549	831.38
3322.574	819.38
3325.597	826.38
3328.617	810.38
3331.635	813.38
3334.65	807.38
3337.663	810.38
3340.674	800.38
3343.682	809.38
3346.688	797.38
3349.691	789.38
3352.692	797.38
3355.691	771.38
3358.687	773.38
3361.681	778.38
3364.673	767.38
3367.662	754.38
3370.649	745.38
3373.633	739.38
3376.615	726.38
3379.595	710.38
3382.572	719.38
3385.547	701.38
3388.52	688.38
3391.49	686.38
3394.458	674.38
3397.424	667.38
3400.387	659.38
3403.348	649.38
3406.307	644.38
3409.263	635.38
3412.217	635.38
3415.168	612.38
3418.118	612.38
3421.065	614.38
3424.009	598.38
3426.951	595.38
3429.891	577.38
3432.829	576.38
3435.764	566.38
3438.697	550.38
3441.628	545.38
3444.557	522.38
3447.483	525.38
3450.407	497.38
3453.328	487.38
3456.247	479.38
3459.164	470.38
3462.079	456.38
3464.991	452.38
3467.902	437.38
3470.809	416.38
3473.715	404.38
3476.618	400.38
3479.519	392.38
3482.418	374.38
3485.315	364.38
3488.209	351.38
3491.101	350.38
3493.99	350.38
3496.878	329.38
3499.763	321.38
3502.646	302.38
3505.527	302.38
3508.405	290.38
3511.281	278.38
3514.155	273.38
3517.027	262.38
3519.897	250.38
3522.764	237.38
3525.629	234.38
3528.492	221.38
3531.352	205.38
3534.211	201.38
3537.067	188.38
3539.921	170.38
3542.773	166.38
3545.622	158.38
3548.469	159.38
3551.315	152.38
3554.157	145.38
3556.998	132.38
3559.837	129.38
3562.673	122.38
3565.507	119.38
3568.339	117.38
3571.169	107.38
3573.996	101.38
3576.822	101.38
3579.645	93.38
3582.466	83.38
3585.285	81.38
3588.101	74.38
3590.916	71.38
3593.728	66.38
3596.538	59.38
3599.346	55.38
3602.152	48.38
3604.956	46.38
3607.757	37.38
3610.556	37.38
3613.354	32.38
3616.149	27.38
3618.942	23.38
3621.732	27.38
3624.521	14.38
3627.307	20.38
3630.092	11.38
3632.874	10.38
3635.654	8.38
3638.432	7.38
3641.208	4.38
3643.982	4.38
3646.753	1.38
3649.523	0.38
3652.29	-1.62
3655.055	-3.62
3657.818	-5.62
3660.579	-10.62
3663.338	-10.62
3666.095	-11.62
3668.849	-12.62
3671.602	-15.62
3674.352	-19.62
3677.101	-22.62
3679.847	-22.62
3682.591	-26.62
3685.333	-22.62
3688.073	-31.62
3690.811	-30.62
3693.547	-30.62
3696.281	-31.62
3699.013	-30.62
3701.742	-35.62
3704.47	-30.62
3707.195	-37.62
3709.919	-39.62
3712.64	-39.62
3715.359	-41.62
3718.076	-37.62
3720.792	-43.62
3723.505	-42.62
3726.216	-42.62
3728.925	-45.62
3731.632	-47.62
3734.336	-45.62
3737.039	-46.62
3739.74	-47.62
3742.439	-43.62
3745.136	-45.62
3747.83	-49.62
3750.523	-47.62
3753.213	-44.62
3755.902	-45.62
3758.589	-49.62
3761.273	-49.62
3763.956	-49.62
3766.636	-51.62
3769.315	-54.62
3771.991	-56.62
3774.665	-53.62
3777.338	-52.62
3780.008	-54.62
3782.677	-58.62
3785.343	-57.62
3788.007	-53.62
3790.67	-56.62
3793.33	-60.62
3795.989	-57.62
3798.645	-59.62
3801.299	-59.62
3803.952	-62.62
3806.602	-65.62
3809.251	-60.62
3811.897	-58.62
3814.542	-62.62
3817.184	-59.62
3819.825	-55.62
3822.463	-58.62
3825.1	-60.62
3827.735	-58.62
3830.367	-58.62
3832.998	-61.62
3835.627	-63.62
3838.253	-60.62
3840.878	-66.62
3843.501	-55.62
3846.122	-60.62
3848.741	-64.62
3851.358	-65.62
3853.973	-58.62
3856.586	-61.62
3859.197	-64.62
3861.806	-64.62
3864.414	-62.62
3867.019	-64.62
3869.622	-64.62
3872.224	-60.62
3874.823	-59.62
3877.421	-65.62
3880.016	-62.62
3882.61	-57.62
3885.202	-60.62
3887.792	-57.62
3890.38	-57.62
3892.966	-59.62
3895.55	-59.62
3898.132	-62.62
3900.713	-66.62
3903.291	-66.62
3905.868	-64.62
3908.442	-63.62
3911.015	-64.62
3913.586	-66.62
3916.155	-64.62
3918.722	-65.62
3921.287	-64.62
3923.85	-68.62
3926.411	-65.62
3928.971	-65.62
3931.528	-66.62
3934.084	-69.62
3936.638	-69.62
3939.19	-66.62
3941.74	-66.62
3944.288	-66.62
3946.834	-68.62
3949.378	-71.62
3951.921	-68.62
3954.462	-68.62
3957	-64.62
3959.537	-68.62
3962.072	-69.62
3964.606	-67.62
3967.137	-64.62
3969.667	-67.62
3972.194	-66.62
3974.72	-63.62
3977.244	-66.62
3979.766	-61.62
3982.286	-65.62
3984.805	-65.62
3987.321	-64.62
3989.836	-67.62
3992.349	-67.62
3994.86	-68.62
3997.369	-68.62
3999.877	-64.62
4002.382	-63.62
4004.886	-63.62
4007.388	-67.62
4009.888	-67.62
4012.386	-64.62
4014.883	-67.62
4017.377	-65.62
4019.87	-65.62
4022.361	-66.62
4024.85	-65.62
4027.338	-65.62
4029.823	-64.62
4032.307	-65.62
4034.789	-62.62
4037.269	-66.62
4039.747	-65.62
4042.224	-63.62
4044.699	-65.62
4047.172	-66.62
4049.643	-63.62
4052.112	-62.62
4054.58	-65.62
4057.046	-65.62
4059.51	-65.62
4061.972	-63.62
4064.432	-67.62
4066.891	-64.62
4069.348	-65.62
4071.803	-67.62
4074.256	-68.62
4076.708	-65.62
4079.158	-65.62
4081.606	-66.62
4084.052	-63.62
4086.497	-65.62
4088.939	-67.62
4091.38	-66.62
4093.819	-68.62
4096.257	-72.62
4098.693	-72.62
4101.127	-72.62
4103.559	-70.62
4105.989	-20.62
4108.418	-17.62
4110.845	-20.62
4113.27	-19.62
4115.694	-12.62
4118.115	-2.62
4120.535	-70.62
4122.954	-70.62
4125.37	-72.62
4127.785	-69.62
4130.198	-68.62
4132.609	-67.62
4135.019	-71.62
4137.427	-72.62
4139.833	-70.62
4142.237	-71.62
