Data from 1000000CFU3_B_ramanshift_RamanShift_12-32-52-570.txt Node
Date: Sun Jan 01 12:32:52 IST 2017
User: aro
Spectrometer: QEPB0276
Trigger mode: 0
Integration Time (sec): 5.000000E0
Scans to average: 1
Electric dark correction enabled: true
Nonlinearity correction enabled: false
Boxcar width: 0
XAxis mode: Raman Shifts
Number of Pixels in Spectrum: 1044
>>>>>Begin Spectral Data<<<<<
160.701	6.5
166.742	23.5
172.777	57.5
178.805	198.5
184.826	595.5
190.841	1445.5
196.849	2703.5
202.85	3881.5
208.845	4491.5
214.833	4520.5
220.815	4351.5
226.789	4246.5
232.758	4104.5
238.719	3993.5
244.674	3875.5
250.623	3723.5
256.565	3563.5
262.5	3408.5
268.429	3254.5
274.351	3119.5
280.267	2996.5
286.176	2875.5
292.079	2789.5
297.975	2728.5
303.865	2637.5
309.748	2562.5
315.625	2485.5
321.495	2438.5
327.359	2420.5
333.217	2360.5
339.068	2347.5
344.912	2335.5
350.751	2307.5
356.583	2294.5
362.408	2306.5
368.227	2294.5
374.04	2282.5
379.847	2297.5
385.647	2318.5
391.44	2323.5
397.228	2322.5
403.009	2349.5
408.784	2358.5
414.553	2348.5
420.315	2353.5
426.071	2364.5
431.821	2371.5
437.565	2354.5
443.302	2356.5
449.033	2341.5
454.758	2344.5
460.477	2345.5
466.189	2337.5
471.896	2317.5
477.596	2311.5
483.29	2331.5
488.978	2301.5
494.66	2298.5
500.335	2269.5
506.005	2218.5
511.668	2205.5
517.325	2182.5
522.977	2136.5
528.622	2090.5
534.261	2059.5
539.894	2053.5
545.521	2040.5
551.141	2028.5
556.756	2030.5
562.365	2004.5
567.968	2000.5
573.565	1983.5
579.155	1969.5
584.74	1936.5
590.319	1944.5
595.892	1933.5
601.459	1922.5
607.02	1893.5
612.575	1898.5
618.124	1874.5
623.667	1864.5
629.204	1847.5
634.735	1838.5
640.261	1826.5
645.781	1788.5
651.294	1806.5
656.802	1794.5
662.304	1775.5
667.8	1772.5
673.29	1762.5
678.775	1768.5
684.254	1763.5
689.726	1750.5
695.193	1739.5
700.655	1728.5
706.11	1713.5
711.56	1702.5
717.004	1696.5
722.442	1701.5
727.874	1668.5
733.301	1680.5
738.722	1679.5
744.137	1649.5
749.547	1650.5
754.951	1652.5
760.349	1651.5
765.741	1645.5
771.128	1651.5
776.509	1642.5
781.885	1643.5
787.254	1639.5
792.618	1627.5
797.977	1634.5
803.33	1601.5
808.677	1598.5
814.019	1576.5
819.355	1580.5
824.686	1540.5
830.011	1539.5
835.33	1554.5
840.644	1537.5
845.952	1535.5
851.255	1517.5
856.552	1511.5
861.844	1509.5
867.13	1508.5
872.41	1489.5
877.686	1493.5
882.955	1456.5
888.219	1465.5
893.478	1431.5
898.731	1417.5
903.979	1388.5
909.221	1374.5
914.458	1370.5
919.69	1346.5
924.916	1355.5
930.136	1346.5
935.351	1344.5
940.561	1358.5
945.766	1347.5
950.965	1335.5
956.158	1345.5
961.347	1318.5
966.529	1312.5
971.707	1278.5
976.879	1271.5
982.046	1255.5
987.208	1256.5
992.364	1243.5
997.515	1249.5
1002.66	1245.5
1007.801	1266.5
1012.936	1278.5
1018.066	1296.5
1023.19	1289.5
1028.309	1309.5
1033.423	1303.5
1038.532	1297.5
1043.636	1295.5
1048.734	1303.5
1053.827	1270.5
1058.915	1267.5
1063.998	1249.5
1069.075	1251.5
1074.147	1240.5
1079.214	1242.5
1084.276	1252.5
1089.333	1262.5
1094.385	1265.5
1099.431	1281.5
1104.472	1298.5
1109.509	1303.5
1114.54	1279.5
1119.565	1263.5
1124.586	1254.5
1129.602	1229.5
1134.613	1225.5
1139.618	1220.5
1144.619	1210.5
1149.614	1208.5
1154.604	1227.5
1159.589	1217.5
1164.57	1231.5
1169.545	1228.5
1174.515	1242.5
1179.48	1235.5
1184.44	1239.5
1189.395	1222.5
1194.345	1212.5
1199.29	1207.5
1204.23	1209.5
1209.165	1211.5
1214.095	1232.5
1219.021	1237.5
1223.941	1237.5
1228.856	1256.5
1233.766	1255.5
1238.672	1233.5
1243.572	1256.5
1248.467	1236.5
1253.358	1245.5
1258.244	1231.5
1263.124	1222.5
1268	1198.5
1272.871	1181.5
1277.737	1190.5
1282.599	1176.5
1287.455	1181.5
1292.306	1184.5
1297.153	1185.5
1301.995	1198.5
1306.832	1201.5
1311.664	1201.5
1316.491	1206.5
1321.314	1202.5
1326.132	1189.5
1330.945	1194.5
1335.753	1170.5
1340.556	1169.5
1345.354	1147.5
1350.148	1132.5
1354.937	1124.5
1359.722	1107.5
1364.501	1103.5
1369.276	1096.5
1374.046	1084.5
1378.811	1080.5
1383.572	1088.5
1388.327	1091.5
1393.079	1073.5
1397.825	1074.5
1402.567	1061.5
1407.304	1067.5
1412.036	1041.5
1416.764	1049.5
1421.487	1042.5
1426.205	1052.5
1430.919	1046.5
1435.628	1080.5
1440.333	1088.5
1445.032	1095.5
1449.727	1122.5
1454.418	1104.5
1459.104	1115.5
1463.785	1099.5
1468.462	1100.5
1473.134	1086.5
1477.802	1087.5
1482.465	1058.5
1487.123	1059.5
1491.777	1076.5
1496.426	1070.5
1501.071	1079.5
1505.711	1077.5
1510.347	1070.5
1514.978	1080.5
1519.604	1104.5
1524.226	1102.5
1528.844	1103.5
1533.457	1104.5
1538.065	1117.5
1542.669	1101.5
1547.269	1097.5
1551.864	1098.5
1556.454	1106.5
1561.041	1110.5
1565.622	1129.5
1570.199	1144.5
1574.772	1148.5
1579.34	1169.5
1583.904	1184.5
1588.464	1233.5
1593.019	1228.5
1597.569	1258.5
1602.115	1258.5
1606.657	1266.5
1611.195	1286.5
1615.728	1306.5
1620.256	1288.5
1624.78	1321.5
1629.3	1323.5
1633.816	1346.5
1638.327	1364.5
1642.834	1381.5
1647.336	1390.5
1651.834	1420.5
1656.328	1417.5
1660.817	1400.5
1665.302	1385.5
1669.783	1380.5
1674.259	1341.5
1678.732	1300.5
1683.199	1266.5
1687.663	1221.5
1692.122	1204.5
1696.577	1152.5
1701.028	1083.5
1705.474	1046.5
1709.917	1002.5
1714.355	987.5
1718.788	970.5
1723.218	968.5
1727.643	948.5
1732.064	936.5
1736.481	921.5
1740.893	899.5
1745.301	866.5
1749.705	844.5
1754.105	831.5
1758.501	818.5
1762.893	797.5
1767.28	787.5
1771.663	783.5
1776.042	774.5
1780.417	762.5
1784.787	761.5
1789.154	764.5
1793.516	774.5
1797.874	779.5
1802.228	763.5
1806.578	752.5
1810.924	749.5
1815.266	737.5
1819.603	720.5
1823.937	719.5
1828.266	706.5
1832.591	691.5
1836.913	709.5
1841.23	707.5
1845.543	711.5
1849.852	701.5
1854.156	695.5
1858.457	705.5
1862.754	707.5
1867.047	707.5
1871.335	714.5
1875.62	725.5
1879.9	727.5
1884.177	721.5
1888.449	709.5
1892.718	716.5
1896.982	716.5
1901.243	712.5
1905.499	710.5
1909.752	717.5
1914	707.5
1918.245	699.5
1922.485	700.5
1926.722	705.5
1930.954	689.5
1935.183	708.5
1939.408	704.5
1943.628	714.5
1947.845	709.5
1952.058	705.5
1956.267	704.5
1960.472	705.5
1964.673	693.5
1968.87	683.5
1973.063	672.5
1977.252	673.5
1981.438	666.5
1985.619	668.5
1989.797	660.5
1993.971	659.5
1998.14	678.5
2002.306	685.5
2006.469	672.5
2010.627	670.5
2014.781	683.5
2018.932	705.5
2023.078	692.5
2027.221	678.5
2031.36	685.5
2035.495	674.5
2039.627	669.5
2043.754	662.5
2047.878	663.5
2051.998	666.5
2056.114	670.5
2060.226	676.5
2064.334	668.5
2068.439	657.5
2072.54	668.5
2076.637	674.5
2080.73	667.5
2084.82	670.5
2088.906	676.5
2092.988	672.5
2097.066	679.5
2101.14	653.5
2105.211	661.5
2109.278	656.5
2113.342	647.5
2117.401	645.5
2121.457	637.5
2125.509	645.5
2129.558	640.5
2133.602	642.5
2137.643	637.5
2141.681	640.5
2145.714	634.5
2149.744	637.5
2153.77	632.5
2157.793	633.5
2161.812	621.5
2165.827	618.5
2169.838	609.5
2173.846	600.5
2177.851	595.5
2181.851	595.5
2185.848	579.5
2189.841	576.5
2193.831	576.5
2197.817	570.5
2201.799	565.5
2205.778	566.5
2209.753	558.5
2213.725	557.5
2217.693	566.5
2221.657	553.5
2225.618	558.5
2229.575	555.5
2233.529	545.5
2237.479	551.5
2241.425	544.5
2245.368	535.5
2249.307	525.5
2253.243	530.5
2257.175	506.5
2261.104	516.5
2265.029	505.5
2268.95	503.5
2272.868	494.5
2276.783	488.5
2280.694	483.5
2284.601	475.5
2288.505	475.5
2292.405	470.5
2296.302	471.5
2300.195	468.5
2304.085	462.5
2307.971	457.5
2311.854	444.5
2315.734	432.5
2319.609	427.5
2323.482	423.5
2327.351	420.5
2331.216	414.5
2335.078	416.5
2338.937	409.5
2342.792	412.5
2346.643	404.5
2350.492	393.5
2354.336	406.5
2358.178	405.5
2362.015	414.5
2365.85	410.5
2369.681	407.5
2373.508	416.5
2377.333	412.5
2381.153	410.5
2384.971	411.5
2388.785	414.5
2392.595	409.5
2396.402	410.5
2400.206	397.5
2404.007	407.5
2407.804	410.5
2411.597	395.5
2415.388	396.5
2419.174	400.5
2422.958	395.5
2426.738	402.5
2430.515	390.5
2434.289	390.5
2438.059	390.5
2441.825	387.5
2445.589	389.5
2449.349	381.5
2453.106	380.5
2456.859	380.5
2460.61	377.5
2464.356	362.5
2468.1	369.5
2471.84	358.5
2475.577	364.5
2479.311	357.5
2483.041	366.5
2486.768	358.5
2490.492	355.5
2494.213	366.5
2497.93	370.5
2501.644	362.5
2505.355	366.5
2509.062	359.5
2512.766	362.5
2516.467	362.5
2520.165	359.5
2523.859	354.5
2527.551	346.5
2531.239	358.5
2534.923	342.5
2538.605	344.5
2542.283	342.5
2545.958	341.5
2549.63	338.5
2553.299	343.5
2556.964	340.5
2560.626	332.5
2564.285	329.5
2567.941	330.5
2571.594	337.5
2575.243	327.5
2578.89	325.5
2582.533	319.5
2586.173	316.5
2589.809	307.5
2593.443	316.5
2597.073	316.5
2600.701	303.5
2604.325	310.5
2607.946	307.5
2611.564	305.5
2615.178	309.5
2618.79	310.5
2622.398	304.5
2626.004	303.5
2629.606	305.5
2633.205	299.5
2636.801	294.5
2640.394	299.5
2643.983	280.5
2647.57	288.5
2651.153	290.5
2654.734	281.5
2658.311	282.5
2661.885	281.5
2665.456	275.5
2669.025	267.5
2672.589	269.5
2676.151	269.5
2679.71	275.5
2683.266	273.5
2686.819	265.5
2690.368	269.5
2693.915	253.5
2697.458	263.5
2700.999	256.5
2704.536	253.5
2708.071	251.5
2711.602	259.5
2715.13	250.5
2718.656	252.5
2722.178	248.5
2725.697	249.5
2729.214	251.5
2732.727	254.5
2736.237	250.5
2739.744	253.5
2743.249	253.5
2746.75	242.5
2750.248	243.5
2753.743	249.5
2757.236	256.5
2760.725	244.5
2764.211	241.5
2767.695	243.5
2771.175	238.5
2774.652	236.5
2778.127	241.5
2781.598	236.5
2785.067	237.5
2788.532	235.5
2791.995	221.5
2795.455	245.5
2798.911	229.5
2802.365	236.5
2805.816	233.5
2809.264	239.5
2812.709	239.5
2816.151	246.5
2819.59	244.5
2823.026	237.5
2826.46	239.5
2829.89	246.5
2833.318	236.5
2836.742	248.5
2840.164	243.5
2843.583	248.5
2846.999	254.5
2850.412	251.5
2853.822	250.5
2857.229	252.5
2860.634	252.5
2864.035	269.5
2867.434	265.5
2870.83	270.5
2874.223	273.5
2877.613	260.5
2881	267.5
2884.385	263.5
2887.766	271.5
2891.145	274.5
2894.521	268.5
2897.894	273.5
2901.264	271.5
2904.631	275.5
2907.996	273.5
2911.358	285.5
2914.717	278.5
2918.073	280.5
2921.426	276.5
2924.777	290.5
2928.124	289.5
2931.469	288.5
2934.811	304.5
2938.15	296.5
2941.487	318.5
2944.821	311.5
2948.152	321.5
2951.48	327.5
2954.805	324.5
2958.128	326.5
2961.447	332.5
2964.765	334.5
2968.079	341.5
2971.39	349.5
2974.699	348.5
2978.005	359.5
2981.308	356.5
2984.609	366.5
2987.907	374.5
2991.202	379.5
2994.494	394.5
2997.784	411.5
3001.07	412.5
3004.355	422.5
3007.636	428.5
3010.915	444.5
3014.191	443.5
3017.464	456.5
3020.734	460.5
3024.002	471.5
3027.267	471.5
3030.53	478.5
3033.789	496.5
3037.046	503.5
3040.301	518.5
3043.552	515.5
3046.801	536.5
3050.048	543.5
3053.291	563.5
3056.532	568.5
3059.771	595.5
3063.006	611.5
3066.239	627.5
3069.469	647.5
3072.697	660.5
3075.922	678.5
3079.144	692.5
3082.364	708.5
3085.581	715.5
3088.795	746.5
3092.007	755.5
3095.216	778.5
3098.423	782.5
3101.627	798.5
3104.828	819.5
3108.026	833.5
3111.222	839.5
3114.416	870.5
3117.607	890.5
3120.795	893.5
3123.98	919.5
3127.163	938.5
3130.344	965.5
3133.521	983.5
3136.696	1019.5
3139.869	1027.5
3143.039	1054.5
3146.206	1050.5
3149.371	1056.5
3152.533	1089.5
3155.693	1095.5
3158.85	1105.5
3162.005	1117.5
3165.157	1124.5
3168.306	1117.5
3171.453	1122.5
3174.597	1132.5
3177.739	1125.5
3180.878	1125.5
3184.014	1124.5
3187.149	1136.5
3190.28	1139.5
3193.409	1150.5
3196.536	1158.5
3199.659	1161.5
3202.781	1158.5
3205.9	1175.5
3209.016	1151.5
3212.13	1163.5
3215.241	1144.5
3218.35	1155.5
3221.456	1137.5
3224.56	1121.5
3227.661	1120.5
3230.76	1109.5
3233.856	1110.5
3236.95	1095.5
3240.041	1089.5
3243.13	1074.5
3246.216	1065.5
3249.3	1050.5
3252.382	1038.5
3255.46	1048.5
3258.537	1039.5
3261.611	1042.5
3264.682	1030.5
3267.751	1042.5
3270.818	1031.5
3273.882	1020.5
3276.943	1025.5
3280.002	1013.5
3283.059	998.5
3286.113	990.5
3289.165	988.5
3292.214	967.5
3295.261	958.5
3298.306	951.5
3301.348	926.5
3304.387	914.5
3307.425	903.5
3310.459	885.5
3313.492	873.5
3316.521	878.5
3319.549	854.5
3322.574	849.5
3325.597	845.5
3328.617	844.5
3331.635	838.5
3334.65	839.5
3337.663	816.5
3340.674	829.5
3343.682	824.5
3346.688	821.5
3349.691	825.5
3352.692	816.5
3355.691	818.5
3358.687	795.5
3361.681	798.5
3364.673	801.5
3367.662	782.5
3370.649	774.5
3373.633	772.5
3376.615	757.5
3379.595	750.5
3382.572	737.5
3385.547	723.5
3388.52	714.5
3391.49	702.5
3394.458	705.5
3397.424	691.5
3400.387	680.5
3403.348	681.5
3406.307	665.5
3409.263	661.5
3412.217	649.5
3415.168	640.5
3418.118	642.5
3421.065	645.5
3424.009	626.5
3426.951	614.5
3429.891	613.5
3432.829	593.5
3435.764	581.5
3438.697	572.5
3441.628	564.5
3444.557	545.5
3447.483	542.5
3450.407	530.5
3453.328	508.5
3456.247	493.5
3459.164	492.5
3462.079	468.5
3464.991	454.5
3467.902	444.5
3470.809	432.5
3473.715	417.5
3476.618	415.5
3479.519	389.5
3482.418	384.5
3485.315	380.5
3488.209	365.5
3491.101	354.5
3493.99	347.5
3496.878	337.5
3499.763	324.5
3502.646	331.5
3505.527	297.5
3508.405	309.5
3511.281	282.5
3514.155	287.5
3517.027	268.5
3519.897	257.5
3522.764	243.5
3525.629	236.5
3528.492	229.5
3531.352	217.5
3534.211	202.5
3537.067	186.5
3539.921	181.5
3542.773	173.5
3545.622	168.5
3548.469	156.5
3551.315	145.5
3554.157	149.5
3556.998	139.5
3559.837	131.5
3562.673	124.5
3565.507	121.5
3568.339	107.5
3571.169	109.5
3573.996	105.5
3576.822	94.5
3579.645	91.5
3582.466	91.5
3585.285	78.5
3588.101	72.5
3590.916	70.5
3593.728	62.5
3596.538	59.5
3599.346	57.5
3602.152	44.5
3604.956	50.5
3607.757	38.5
3610.556	37.5
3613.354	38.5
3616.149	35.5
3618.942	28.5
3621.732	28.5
3624.521	21.5
3627.307	19.5
3630.092	15.5
3632.874	14.5
3635.654	13.5
3638.432	12.5
3641.208	8.5
3643.982	8.5
3646.753	0.5
3649.523	6.5
3652.29	1.5
3655.055	-0.5
3657.818	-5.5
3660.579	-5.5
3663.338	-8.5
3666.095	-8.5
3668.849	-8.5
3671.602	-14.5
3674.352	-19.5
3677.101	-14.5
3679.847	-25.5
3682.591	-24.5
3685.333	-28.5
3688.073	-31.5
3690.811	-31.5
3693.547	-32.5
3696.281	-34.5
3699.013	-29.5
3701.742	-34.5
3704.47	-35.5
3707.195	-38.5
3709.919	-39.5
3712.64	-40.5
3715.359	-39.5
3718.076	-42.5
3720.792	-42.5
3723.505	-43.5
3726.216	-47.5
3728.925	-48.5
3731.632	-46.5
3734.336	-46.5
3737.039	-48.5
3739.74	-49.5
3742.439	-49.5
3745.136	-50.5
3747.83	-47.5
3750.523	-51.5
3753.213	-49.5
3755.902	-49.5
3758.589	-50.5
3761.273	-51.5
3763.956	-50.5
3766.636	-53.5
3769.315	-54.5
3771.991	-56.5
3774.665	-54.5
3777.338	-52.5
3780.008	-53.5
3782.677	-56.5
3785.343	-51.5
3788.007	-55.5
3790.67	-52.5
3793.33	-56.5
3795.989	-55.5
3798.645	-57.5
3801.299	-57.5
3803.952	-59.5
3806.602	-59.5
3809.251	-58.5
3811.897	-53.5
3814.542	-58.5
3817.184	-58.5
3819.825	-53.5
3822.463	-57.5
3825.1	-59.5
3827.735	-54.5
3830.367	-56.5
3832.998	-61.5
3835.627	-60.5
3838.253	-60.5
3840.878	-65.5
3843.501	-58.5
3846.122	-60.5
3848.741	-62.5
3851.358	-65.5
3853.973	-61.5
3856.586	-64.5
3859.197	-65.5
3861.806	-64.5
3864.414	-64.5
3867.019	-63.5
3869.622	-65.5
3872.224	-68.5
3874.823	-60.5
3877.421	-66.5
3880.016	-60.5
3882.61	-58.5
3885.202	-60.5
3887.792	-51.5
3890.38	-60.5
3892.966	-58.5
3895.55	-63.5
3898.132	-63.5
3900.713	-61.5
3903.291	-66.5
3905.868	-61.5
3908.442	-63.5
3911.015	-64.5
3913.586	-61.5
3916.155	-64.5
3918.722	-64.5
3921.287	-61.5
3923.85	-64.5
3926.411	-61.5
3928.971	-68.5
3931.528	-65.5
3934.084	-67.5
3936.638	-66.5
3939.19	-67.5
3941.74	-64.5
3944.288	-64.5
3946.834	-64.5
3949.378	-73.5
3951.921	-67.5
3954.462	-71.5
3957	-63.5
3959.537	-65.5
3962.072	-67.5
3964.606	-64.5
3967.137	-67.5
3969.667	-66.5
3972.194	-68.5
3974.72	-64.5
3977.244	-64.5
3979.766	-63.5
3982.286	-63.5
3984.805	-66.5
3987.321	-62.5
3989.836	-65.5
3992.349	-66.5
3994.86	-64.5
3997.369	-66.5
3999.877	-63.5
4002.382	-65.5
4004.886	-65.5
4007.388	-66.5
4009.888	-64.5
4012.386	-62.5
4014.883	-67.5
4017.377	-65.5
4019.87	-66.5
4022.361	-65.5
4024.85	-63.5
4027.338	-64.5
4029.823	-63.5
4032.307	-65.5
4034.789	-64.5
4037.269	-65.5
4039.747	-63.5
4042.224	-63.5
4044.699	-67.5
4047.172	-64.5
4049.643	-62.5
4052.112	-61.5
4054.58	-63.5
4057.046	-62.5
4059.51	-63.5
4061.972	-63.5
4064.432	-67.5
4066.891	-64.5
4069.348	-66.5
4071.803	-65.5
4074.256	-64.5
4076.708	-67.5
4079.158	-68.5
4081.606	-65.5
4084.052	-67.5
4086.497	-67.5
4088.939	-71.5
4091.38	-66.5
4093.819	-67.5
4096.257	-70.5
4098.693	-73.5
4101.127	-71.5
4103.559	-70.5
4105.989	-18.5
4108.418	-15.5
4110.845	-14.5
4113.27	-14.5
4115.694	-10.5
4118.115	-6.5
4120.535	-66.5
4122.954	-69.5
4125.37	-71.5
4127.785	-69.5
4130.198	-66.5
4132.609	-67.5
4135.019	-71.5
4137.427	-72.5
4139.833	-69.5
4142.237	-72.5
