Data from 100000000CFU2_B_ramanshift_RamanShift_12-38-02-536.txt Node
Date: Sun Jan 01 12:38:02 IST 2017
User: aro
Spectrometer: QEPB0276
Trigger mode: 0
Integration Time (sec): 5.000000E0
Scans to average: 1
Electric dark correction enabled: true
Nonlinearity correction enabled: false
Boxcar width: 0
XAxis mode: Raman Shifts
Number of Pixels in Spectrum: 1044
>>>>>Begin Spectral Data<<<<<
160.701	4.62
166.742	13.62
172.777	43.62
178.805	147.62
184.826	430.62
190.841	1044.62
196.849	1935.62
202.85	2758.62
208.845	3228.62
214.833	3219.62
220.815	3135.62
226.789	3025.62
232.758	2949.62
238.719	2881.62
244.674	2784.62
250.623	2679.62
256.565	2585.62
262.5	2465.62
268.429	2361.62
274.351	2258.62
280.267	2196.62
286.176	2119.62
292.079	2049.62
297.975	1979.62
303.865	1941.62
309.748	1868.62
315.625	1844.62
321.495	1808.62
327.359	1770.62
333.217	1745.62
339.068	1721.62
344.912	1731.62
350.751	1707.62
356.583	1711.62
362.408	1717.62
368.227	1704.62
374.04	1704.62
379.847	1711.62
385.647	1733.62
391.44	1720.62
397.228	1729.62
403.009	1742.62
408.784	1766.62
414.553	1757.62
420.315	1770.62
426.071	1758.62
431.821	1754.62
437.565	1758.62
443.302	1762.62
449.033	1744.62
454.758	1747.62
460.477	1725.62
466.189	1735.62
471.896	1739.62
477.596	1728.62
483.29	1711.62
488.978	1710.62
494.66	1703.62
500.335	1691.62
506.005	1680.62
511.668	1629.62
517.325	1599.62
522.977	1582.62
528.622	1562.62
534.261	1538.62
539.894	1520.62
545.521	1511.62
551.141	1499.62
556.756	1490.62
562.365	1499.62
567.968	1466.62
573.565	1460.62
579.155	1463.62
584.74	1460.62
590.319	1451.62
595.892	1448.62
601.459	1428.62
607.02	1411.62
612.575	1413.62
618.124	1404.62
623.667	1382.62
629.204	1367.62
634.735	1359.62
640.261	1334.62
645.781	1340.62
651.294	1338.62
656.802	1333.62
662.304	1335.62
667.8	1325.62
673.29	1328.62
678.775	1318.62
684.254	1321.62
689.726	1292.62
695.193	1299.62
700.655	1289.62
706.11	1290.62
711.56	1257.62
717.004	1275.62
722.442	1265.62
727.874	1263.62
733.301	1246.62
738.722	1249.62
744.137	1235.62
749.547	1227.62
754.951	1234.62
760.349	1218.62
765.741	1236.62
771.128	1226.62
776.509	1245.62
781.885	1228.62
787.254	1225.62
792.618	1230.62
797.977	1218.62
803.33	1224.62
808.677	1214.62
814.019	1191.62
819.355	1193.62
824.686	1180.62
830.011	1178.62
835.33	1158.62
840.644	1147.62
845.952	1154.62
851.255	1148.62
856.552	1145.62
861.844	1146.62
867.13	1128.62
872.41	1126.62
877.686	1128.62
882.955	1113.62
888.219	1109.62
893.478	1100.62
898.731	1078.62
903.979	1059.62
909.221	1043.62
914.458	1036.62
919.69	1032.62
924.916	1032.62
930.136	1033.62
935.351	1034.62
940.561	1039.62
945.766	1024.62
950.965	1021.62
956.158	1029.62
961.347	1009.62
966.529	1000.62
971.707	993.62
976.879	982.62
982.046	968.62
987.208	959.62
992.364	955.62
997.515	956.62
1002.66	947.62
1007.801	973.62
1012.936	977.62
1018.066	997.62
1023.19	1000.62
1028.309	989.62
1033.423	987.62
1038.532	997.62
1043.636	984.62
1048.734	993.62
1053.827	979.62
1058.915	950.62
1063.998	951.62
1069.075	960.62
1074.147	951.62
1079.214	962.62
1084.276	955.62
1089.333	979.62
1094.385	973.62
1099.431	999.62
1104.472	985.62
1109.509	993.62
1114.54	979.62
1119.565	959.62
1124.586	957.62
1129.602	940.62
1134.613	953.62
1139.618	928.62
1144.619	938.62
1149.614	942.62
1154.604	934.62
1159.589	940.62
1164.57	951.62
1169.545	952.62
1174.515	966.62
1179.48	956.62
1184.44	954.62
1189.395	939.62
1194.345	939.62
1199.29	934.62
1204.23	930.62
1209.165	936.62
1214.095	950.62
1219.021	931.62
1223.941	939.62
1228.856	962.62
1233.766	956.62
1238.672	987.62
1243.572	959.62
1248.467	958.62
1253.358	969.62
1258.244	943.62
1263.124	926.62
1268	913.62
1272.871	912.62
1277.737	906.62
1282.599	894.62
1287.455	905.62
1292.306	912.62
1297.153	896.62
1301.995	918.62
1306.832	928.62
1311.664	921.62
1316.491	933.62
1321.314	926.62
1326.132	918.62
1330.945	916.62
1335.753	909.62
1340.556	893.62
1345.354	883.62
1350.148	884.62
1354.937	854.62
1359.722	877.62
1364.501	867.62
1369.276	858.62
1374.046	850.62
1378.811	850.62
1383.572	836.62
1388.327	839.62
1393.079	843.62
1397.825	826.62
1402.567	826.62
1407.304	820.62
1412.036	818.62
1416.764	811.62
1421.487	823.62
1426.205	810.62
1430.919	816.62
1435.628	829.62
1440.333	846.62
1445.032	849.62
1449.727	867.62
1454.418	853.62
1459.104	859.62
1463.785	864.62
1468.462	842.62
1473.134	840.62
1477.802	822.62
1482.465	829.62
1487.123	820.62
1491.777	825.62
1496.426	830.62
1501.071	832.62
1505.711	833.62
1510.347	840.62
1514.978	862.62
1519.604	868.62
1524.226	877.62
1528.844	866.62
1533.457	868.62
1538.065	855.62
1542.669	874.62
1547.269	861.62
1551.864	867.62
1556.454	851.62
1561.041	860.62
1565.622	876.62
1570.199	886.62
1574.772	894.62
1579.34	903.62
1583.904	929.62
1588.464	949.62
1593.019	946.62
1597.569	957.62
1602.115	960.62
1606.657	977.62
1611.195	977.62
1615.728	992.62
1620.256	981.62
1624.78	1004.62
1629.3	1019.62
1633.816	1022.62
1638.327	1035.62
1642.834	1048.62
1647.336	1055.62
1651.834	1058.62
1656.328	1061.62
1660.817	1064.62
1665.302	1051.62
1669.783	1048.62
1674.259	1017.62
1678.732	986.62
1683.199	963.62
1687.663	944.62
1692.122	908.62
1696.577	891.62
1701.028	866.62
1705.474	824.62
1709.917	784.62
1714.355	784.62
1718.788	765.62
1723.218	746.62
1727.643	744.62
1732.064	737.62
1736.481	713.62
1740.893	705.62
1745.301	690.62
1749.705	673.62
1754.105	661.62
1758.501	648.62
1762.893	623.62
1767.28	632.62
1771.663	622.62
1776.042	606.62
1780.417	612.62
1784.787	611.62
1789.154	601.62
1793.516	611.62
1797.874	630.62
1802.228	605.62
1806.578	601.62
1810.924	601.62
1815.266	589.62
1819.603	578.62
1823.937	578.62
1828.266	576.62
1832.591	556.62
1836.913	559.62
1841.23	552.62
1845.543	565.62
1849.852	561.62
1854.156	565.62
1858.457	555.62
1862.754	571.62
1867.047	555.62
1871.335	561.62
1875.62	569.62
1879.9	581.62
1884.177	572.62
1888.449	578.62
1892.718	574.62
1896.982	566.62
1901.243	571.62
1905.499	564.62
1909.752	573.62
1914	563.62
1918.245	559.62
1922.485	560.62
1926.722	564.62
1930.954	563.62
1935.183	574.62
1939.408	578.62
1943.628	571.62
1947.845	573.62
1952.058	574.62
1956.267	571.62
1960.472	552.62
1964.673	555.62
1968.87	550.62
1973.063	541.62
1977.252	542.62
1981.438	536.62
1985.619	535.62
1989.797	538.62
1993.971	536.62
1998.14	536.62
2002.306	539.62
2006.469	545.62
2010.627	547.62
2014.781	550.62
2018.932	552.62
2023.078	540.62
2027.221	545.62
2031.36	539.62
2035.495	544.62
2039.627	537.62
2043.754	526.62
2047.878	536.62
2051.998	524.62
2056.114	533.62
2060.226	533.62
2064.334	524.62
2068.439	533.62
2072.54	536.62
2076.637	538.62
2080.73	538.62
2084.82	542.62
2088.906	552.62
2092.988	539.62
2097.066	536.62
2101.14	533.62
2105.211	535.62
2109.278	526.62
2113.342	527.62
2117.401	515.62
2121.457	524.62
2125.509	521.62
2129.558	517.62
2133.602	523.62
2137.643	521.62
2141.681	508.62
2145.714	512.62
2149.744	506.62
2153.77	512.62
2157.793	509.62
2161.812	504.62
2165.827	480.62
2169.838	483.62
2173.846	485.62
2177.851	480.62
2181.851	462.62
2185.848	469.62
2189.841	463.62
2193.831	456.62
2197.817	453.62
2201.799	447.62
2205.778	446.62
2209.753	454.62
2213.725	453.62
2217.693	437.62
2221.657	453.62
2225.618	444.62
2229.575	446.62
2233.529	451.62
2237.479	444.62
2241.425	439.62
2245.368	428.62
2249.307	427.62
2253.243	417.62
2257.175	415.62
2261.104	414.62
2265.029	404.62
2268.95	408.62
2272.868	404.62
2276.783	406.62
2280.694	391.62
2284.601	403.62
2288.505	389.62
2292.405	377.62
2296.302	370.62
2300.195	377.62
2304.085	374.62
2307.971	357.62
2311.854	369.62
2315.734	356.62
2319.609	344.62
2323.482	342.62
2327.351	345.62
2331.216	335.62
2335.078	343.62
2338.937	332.62
2342.792	333.62
2346.643	329.62
2350.492	323.62
2354.336	329.62
2358.178	325.62
2362.015	320.62
2365.85	323.62
2369.681	327.62
2373.508	333.62
2377.333	325.62
2381.153	327.62
2384.971	330.62
2388.785	333.62
2392.595	321.62
2396.402	323.62
2400.206	331.62
2404.007	321.62
2407.804	325.62
2411.597	322.62
2415.388	321.62
2419.174	320.62
2422.958	324.62
2426.738	324.62
2430.515	318.62
2434.289	321.62
2438.059	309.62
2441.825	312.62
2445.589	307.62
2449.349	313.62
2453.106	305.62
2456.859	303.62
2460.61	299.62
2464.356	293.62
2468.1	293.62
2471.84	300.62
2475.577	295.62
2479.311	287.62
2483.041	292.62
2486.768	287.62
2490.492	293.62
2494.213	288.62
2497.93	289.62
2501.644	288.62
2505.355	295.62
2509.062	293.62
2512.766	295.62
2516.467	294.62
2520.165	285.62
2523.859	289.62
2527.551	288.62
2531.239	288.62
2534.923	287.62
2538.605	275.62
2542.283	273.62
2545.958	283.62
2549.63	275.62
2553.299	275.62
2556.964	277.62
2560.626	263.62
2564.285	271.62
2567.941	266.62
2571.594	266.62
2575.243	271.62
2578.89	253.62
2582.533	257.62
2586.173	259.62
2589.809	253.62
2593.443	253.62
2597.073	258.62
2600.701	254.62
2604.325	251.62
2607.946	253.62
2611.564	251.62
2615.178	250.62
2618.79	246.62
2622.398	249.62
2626.004	243.62
2629.606	244.62
2633.205	248.62
2636.801	245.62
2640.394	248.62
2643.983	244.62
2647.57	234.62
2651.153	238.62
2654.734	227.62
2658.311	228.62
2661.885	223.62
2665.456	227.62
2669.025	225.62
2672.589	221.62
2676.151	223.62
2679.71	220.62
2683.266	223.62
2686.819	222.62
2690.368	213.62
2693.915	214.62
2697.458	209.62
2700.999	214.62
2704.536	198.62
2708.071	208.62
2711.602	207.62
2715.13	197.62
2718.656	199.62
2722.178	200.62
2725.697	201.62
2729.214	195.62
2732.727	204.62
2736.237	205.62
2739.744	203.62
2743.249	203.62
2746.75	206.62
2750.248	207.62
2753.743	202.62
2757.236	207.62
2760.725	210.62
2764.211	204.62
2767.695	198.62
2771.175	196.62
2774.652	195.62
2778.127	192.62
2781.598	185.62
2785.067	201.62
2788.532	191.62
2791.995	194.62
2795.455	193.62
2798.911	188.62
2802.365	196.62
2805.816	189.62
2809.264	192.62
2812.709	193.62
2816.151	189.62
2819.59	192.62
2823.026	192.62
2826.46	199.62
2829.89	194.62
2833.318	190.62
2836.742	191.62
2840.164	194.62
2843.583	190.62
2846.999	198.62
2850.412	203.62
2853.822	201.62
2857.229	205.62
2860.634	203.62
2864.035	205.62
2867.434	215.62
2870.83	211.62
2874.223	204.62
2877.613	211.62
2881	216.62
2884.385	203.62
2887.766	210.62
2891.145	216.62
2894.521	213.62
2897.894	216.62
2901.264	214.62
2904.631	217.62
2907.996	216.62
2911.358	224.62
2914.717	212.62
2918.073	223.62
2921.426	221.62
2924.777	228.62
2928.124	228.62
2931.469	228.62
2934.811	232.62
2938.15	236.62
2941.487	250.62
2944.821	245.62
2948.152	251.62
2951.48	250.62
2954.805	252.62
2958.128	251.62
2961.447	250.62
2964.765	261.62
2968.079	264.62
2971.39	271.62
2974.699	271.62
2978.005	264.62
2981.308	269.62
2984.609	283.62
2987.907	296.62
2991.202	290.62
2994.494	290.62
2997.784	311.62
3001.07	318.62
3004.355	332.62
3007.636	331.62
3010.915	341.62
3014.191	343.62
3017.464	355.62
3020.734	358.62
3024.002	355.62
3027.267	358.62
3030.53	368.62
3033.789	379.62
3037.046	381.62
3040.301	383.62
3043.552	399.62
3046.801	404.62
3050.048	411.62
3053.291	425.62
3056.532	427.62
3059.771	446.62
3063.006	453.62
3066.239	468.62
3069.469	485.62
3072.697	488.62
3075.922	495.62
3079.144	516.62
3082.364	523.62
3085.581	542.62
3088.795	541.62
3092.007	567.62
3095.216	566.62
3098.423	595.62
3101.627	592.62
3104.828	613.62
3108.026	613.62
3111.222	623.62
3114.416	641.62
3117.607	654.62
3120.795	659.62
3123.98	684.62
3127.163	706.62
3130.344	727.62
3133.521	727.62
3136.696	759.62
3139.869	754.62
3143.039	775.62
3146.206	786.62
3149.371	791.62
3152.533	805.62
3155.693	813.62
3158.85	814.62
3162.005	815.62
3165.157	817.62
3168.306	828.62
3171.453	836.62
3174.597	839.62
3177.739	829.62
3180.878	853.62
3184.014	848.62
3187.149	845.62
3190.28	842.62
3193.409	855.62
3196.536	858.62
3199.659	863.62
3202.781	850.62
3205.9	860.62
3209.016	856.62
3212.13	861.62
3215.241	871.62
3218.35	862.62
3221.456	848.62
3224.56	837.62
3227.661	845.62
3230.76	827.62
3233.856	814.62
3236.95	801.62
3240.041	801.62
3243.13	797.62
3246.216	788.62
3249.3	784.62
3252.382	788.62
3255.46	772.62
3258.537	760.62
3261.611	768.62
3264.682	769.62
3267.751	767.62
3270.818	761.62
3273.882	768.62
3276.943	765.62
3280.002	759.62
3283.059	754.62
3286.113	746.62
3289.165	735.62
3292.214	726.62
3295.261	715.62
3298.306	703.62
3301.348	700.62
3304.387	686.62
3307.425	671.62
3310.459	662.62
3313.492	654.62
3316.521	652.62
3319.549	640.62
3322.574	633.62
3325.597	633.62
3328.617	617.62
3331.635	625.62
3334.65	621.62
3337.663	614.62
3340.674	627.62
3343.682	615.62
3346.688	607.62
3349.691	598.62
3352.692	604.62
3355.691	601.62
3358.687	594.62
3361.681	588.62
3364.673	586.62
3367.662	576.62
3370.649	570.62
3373.633	567.62
3376.615	561.62
3379.595	550.62
3382.572	535.62
3385.547	534.62
3388.52	530.62
3391.49	521.62
3394.458	509.62
3397.424	504.62
3400.387	505.62
3403.348	505.62
3406.307	493.62
3409.263	479.62
3412.217	486.62
3415.168	482.62
3418.118	466.62
3421.065	477.62
3424.009	467.62
3426.951	454.62
3429.891	441.62
3432.829	440.62
3435.764	434.62
3438.697	433.62
3441.628	423.62
3444.557	406.62
3447.483	395.62
3450.407	396.62
3453.328	386.62
3456.247	370.62
3459.164	361.62
3462.079	349.62
3464.991	343.62
3467.902	328.62
3470.809	322.62
3473.715	316.62
3476.618	308.62
3479.519	297.62
3482.418	290.62
3485.315	283.62
3488.209	275.62
3491.101	261.62
3493.99	268.62
3496.878	250.62
3499.763	248.62
3502.646	234.62
3505.527	231.62
3508.405	219.62
3511.281	213.62
3514.155	208.62
3517.027	185.62
3519.897	198.62
3522.764	183.62
3525.629	177.62
3528.492	168.62
3531.352	161.62
3534.211	155.62
3537.067	143.62
3539.921	128.62
3542.773	136.62
3545.622	128.62
3548.469	124.62
3551.315	115.62
3554.157	116.62
3556.998	101.62
3559.837	95.62
3562.673	93.62
3565.507	95.62
3568.339	89.62
3571.169	77.62
3573.996	81.62
3576.822	80.62
3579.645	74.62
3582.466	70.62
3585.285	64.62
3588.101	53.62
3590.916	51.62
3593.728	46.62
3596.538	48.62
3599.346	36.62
3602.152	37.62
3604.956	34.62
3607.757	32.62
3610.556	31.62
3613.354	26.62
3616.149	27.62
3618.942	17.62
3621.732	20.62
3624.521	15.62
3627.307	18.62
3630.092	15.62
3632.874	8.62
3635.654	7.62
3638.432	3.62
3641.208	4.62
3643.982	3.62
3646.753	-2.38
3649.523	3.62
3652.29	5.62
3655.055	-3.38
3657.818	-2.38
3660.579	-2.38
3663.338	-4.38
3666.095	-10.38
3668.849	-10.38
3671.602	-12.38
3674.352	-10.38
3677.101	-15.38
3679.847	-16.38
3682.591	-17.38
3685.333	-19.38
3688.073	-24.38
3690.811	-23.38
3693.547	-25.38
3696.281	-28.38
3699.013	-27.38
3701.742	-31.38
3704.47	-28.38
3707.195	-31.38
3709.919	-32.38
3712.64	-35.38
3715.359	-34.38
3718.076	-32.38
3720.792	-38.38
3723.505	-37.38
3726.216	-33.38
3728.925	-36.38
3731.632	-35.38
3734.336	-36.38
3737.039	-34.38
3739.74	-36.38
3742.439	-35.38
3745.136	-33.38
3747.83	-36.38
3750.523	-37.38
3753.213	-30.38
3755.902	-36.38
3758.589	-37.38
3761.273	-38.38
3763.956	-37.38
3766.636	-40.38
3769.315	-42.38
3771.991	-44.38
3774.665	-41.38
3777.338	-44.38
3780.008	-42.38
3782.677	-43.38
3785.343	-43.38
3788.007	-43.38
3790.67	-44.38
3793.33	-45.38
3795.989	-43.38
3798.645	-44.38
3801.299	-46.38
3803.952	-47.38
3806.602	-47.38
3809.251	-48.38
3811.897	-45.38
3814.542	-48.38
3817.184	-46.38
3819.825	-40.38
3822.463	-43.38
3825.1	-44.38
3827.735	-42.38
3830.367	-45.38
3832.998	-41.38
3835.627	-42.38
3838.253	-42.38
3840.878	-50.38
3843.501	-42.38
3846.122	-46.38
3848.741	-45.38
3851.358	-47.38
3853.973	-45.38
3856.586	-44.38
3859.197	-49.38
3861.806	-49.38
3864.414	-48.38
3867.019	-47.38
3869.622	-53.38
3872.224	-50.38
3874.823	-47.38
3877.421	-48.38
3880.016	-48.38
3882.61	-46.38
3885.202	-48.38
3887.792	-45.38
3890.38	-43.38
3892.966	-48.38
3895.55	-49.38
3898.132	-50.38
3900.713	-50.38
3903.291	-52.38
3905.868	-50.38
3908.442	-48.38
3911.015	-47.38
3913.586	-47.38
3916.155	-49.38
3918.722	-51.38
3921.287	-47.38
3923.85	-49.38
3926.411	-49.38
3928.971	-50.38
3931.528	-51.38
3934.084	-53.38
3936.638	-53.38
3939.19	-51.38
3941.74	-51.38
3944.288	-51.38
3946.834	-51.38
3949.378	-53.38
3951.921	-52.38
3954.462	-53.38
3957	-51.38
3959.537	-51.38
3962.072	-52.38
3964.606	-51.38
3967.137	-52.38
3969.667	-51.38
3972.194	-50.38
3974.72	-51.38
3977.244	-49.38
3979.766	-47.38
3982.286	-50.38
3984.805	-52.38
3987.321	-48.38
3989.836	-47.38
3992.349	-51.38
3994.86	-50.38
3997.369	-49.38
3999.877	-46.38
4002.382	-46.38
4004.886	-45.38
4007.388	-50.38
4009.888	-50.38
4012.386	-45.38
4014.883	-49.38
4017.377	-50.38
4019.87	-50.38
4022.361	-50.38
4024.85	-48.38
4027.338	-49.38
4029.823	-49.38
4032.307	-52.38
4034.789	-51.38
4037.269	-51.38
4039.747	-52.38
4042.224	-51.38
4044.699	-51.38
4047.172	-51.38
4049.643	-49.38
4052.112	-49.38
4054.58	-52.38
4057.046	-52.38
4059.51	-50.38
4061.972	-52.38
4064.432	-52.38
4066.891	-52.38
4069.348	-53.38
4071.803	-52.38
4074.256	-50.38
4076.708	-51.38
4079.158	-53.38
4081.606	-51.38
4084.052	-47.38
4086.497	-52.38
4088.939	-51.38
4091.38	-51.38
4093.819	-51.38
4096.257	-53.38
4098.693	-53.38
4101.127	-55.38
4103.559	-55.38
4105.989	-15.38
4108.418	-13.38
4110.845	-12.38
4113.27	-14.38
4115.694	-9.38
4118.115	-5.38
4120.535	-53.38
4122.954	-51.38
4125.37	-51.38
4127.785	-51.38
4130.198	-50.38
4132.609	-50.38
4135.019	-52.38
4137.427	-52.38
4139.833	-50.38
4142.237	-54.38
