Data from 100000CFU3_A_ramanshift_RamanShift_11-53-47-681.txt Node
Date: Sun Jan 01 11:53:47 IST 2017
User: aro
Spectrometer: QEPB0276
Trigger mode: 0
Integration Time (sec): 5.000000E0
Scans to average: 1
Electric dark correction enabled: true
Nonlinearity correction enabled: false
Boxcar width: 0
XAxis mode: Raman Shifts
Number of Pixels in Spectrum: 1044
>>>>>Begin Spectral Data<<<<<
160.701	4.62
166.742	21.62
172.777	57.62
178.805	189.62
184.826	566.62
190.841	1364.62
196.849	2543.62
202.85	3660.62
208.845	4235.62
214.833	4243.62
220.815	4101.62
226.789	3939.62
232.758	3842.62
238.719	3747.62
244.674	3597.62
250.623	3487.62
256.565	3365.62
262.5	3197.62
268.429	3055.62
274.351	2914.62
280.267	2811.62
286.176	2711.62
292.079	2649.62
297.975	2535.62
303.865	2479.62
309.748	2405.62
315.625	2350.62
321.495	2307.62
327.359	2250.62
333.217	2231.62
339.068	2191.62
344.912	2201.62
350.751	2166.62
356.583	2153.62
362.408	2142.62
368.227	2148.62
374.04	2156.62
379.847	2174.62
385.647	2175.62
391.44	2180.62
397.228	2193.62
403.009	2208.62
408.784	2201.62
414.553	2201.62
420.315	2222.62
426.071	2223.62
431.821	2219.62
437.565	2215.62
443.302	2219.62
449.033	2213.62
454.758	2206.62
460.477	2207.62
466.189	2180.62
471.896	2170.62
477.596	2179.62
483.29	2143.62
488.978	2155.62
494.66	2138.62
500.335	2116.62
506.005	2072.62
511.668	2052.62
517.325	2030.62
522.977	1974.62
528.622	1968.62
534.261	1924.62
539.894	1934.62
545.521	1897.62
551.141	1882.62
556.756	1875.62
562.365	1888.62
567.968	1874.62
573.565	1871.62
579.155	1861.62
584.74	1814.62
590.319	1827.62
595.892	1797.62
601.459	1805.62
607.02	1791.62
612.575	1762.62
618.124	1745.62
623.667	1734.62
629.204	1723.62
634.735	1715.62
640.261	1711.62
645.781	1686.62
651.294	1686.62
656.802	1679.62
662.304	1659.62
667.8	1651.62
673.29	1643.62
678.775	1658.62
684.254	1640.62
689.726	1637.62
695.193	1638.62
700.655	1615.62
706.11	1611.62
711.56	1601.62
717.004	1601.62
722.442	1567.62
727.874	1570.62
733.301	1551.62
738.722	1537.62
744.137	1535.62
749.547	1557.62
754.951	1551.62
760.349	1523.62
765.741	1533.62
771.128	1539.62
776.509	1532.62
781.885	1526.62
787.254	1507.62
792.618	1522.62
797.977	1518.62
803.33	1510.62
808.677	1496.62
814.019	1504.62
819.355	1465.62
824.686	1445.62
830.011	1443.62
835.33	1432.62
840.644	1422.62
845.952	1416.62
851.255	1421.62
856.552	1417.62
861.844	1405.62
867.13	1401.62
872.41	1395.62
877.686	1392.62
882.955	1391.62
888.219	1377.62
893.478	1339.62
898.731	1333.62
903.979	1299.62
909.221	1290.62
914.458	1279.62
919.69	1270.62
924.916	1269.62
930.136	1273.62
935.351	1252.62
940.561	1266.62
945.766	1268.62
950.965	1260.62
956.158	1256.62
961.347	1245.62
966.529	1220.62
971.707	1194.62
976.879	1199.62
982.046	1183.62
987.208	1166.62
992.364	1163.62
997.515	1156.62
1002.66	1180.62
1007.801	1197.62
1012.936	1190.62
1018.066	1213.62
1023.19	1207.62
1028.309	1217.62
1033.423	1207.62
1038.532	1226.62
1043.636	1191.62
1048.734	1196.62
1053.827	1191.62
1058.915	1173.62
1063.998	1165.62
1069.075	1167.62
1074.147	1154.62
1079.214	1150.62
1084.276	1168.62
1089.333	1178.62
1094.385	1202.62
1099.431	1204.62
1104.472	1209.62
1109.509	1205.62
1114.54	1178.62
1119.565	1172.62
1124.586	1163.62
1129.602	1143.62
1134.613	1146.62
1139.618	1145.62
1144.619	1135.62
1149.614	1141.62
1154.604	1149.62
1159.589	1150.62
1164.57	1150.62
1169.545	1168.62
1174.515	1167.62
1179.48	1167.62
1184.44	1156.62
1189.395	1152.62
1194.345	1150.62
1199.29	1121.62
1204.23	1128.62
1209.165	1133.62
1214.095	1162.62
1219.021	1143.62
1223.941	1166.62
1228.856	1171.62
1233.766	1170.62
1238.672	1184.62
1243.572	1176.62
1248.467	1179.62
1253.358	1176.62
1258.244	1163.62
1263.124	1129.62
1268	1118.62
1272.871	1104.62
1277.737	1095.62
1282.599	1099.62
1287.455	1098.62
1292.306	1097.62
1297.153	1098.62
1301.995	1109.62
1306.832	1113.62
1311.664	1126.62
1316.491	1131.62
1321.314	1126.62
1326.132	1110.62
1330.945	1103.62
1335.753	1113.62
1340.556	1089.62
1345.354	1068.62
1350.148	1063.62
1354.937	1066.62
1359.722	1052.62
1364.501	1042.62
1369.276	1035.62
1374.046	1017.62
1378.811	1024.62
1383.572	1010.62
1388.327	1012.62
1393.079	1016.62
1397.825	1015.62
1402.567	991.62
1407.304	988.62
1412.036	993.62
1416.764	999.62
1421.487	994.62
1426.205	1003.62
1430.919	996.62
1435.628	1008.62
1440.333	1015.62
1445.032	1028.62
1449.727	1037.62
1454.418	1035.62
1459.104	1044.62
1463.785	1065.62
1468.462	1039.62
1473.134	1022.62
1477.802	1008.62
1482.465	1020.62
1487.123	995.62
1491.777	1001.62
1496.426	990.62
1501.071	999.62
1505.711	1000.62
1510.347	1011.62
1514.978	1037.62
1519.604	1028.62
1524.226	1024.62
1528.844	1059.62
1533.457	1041.62
1538.065	1037.62
1542.669	1043.62
1547.269	1043.62
1551.864	1049.62
1556.454	1037.62
1561.041	1054.62
1565.622	1068.62
1570.199	1078.62
1574.772	1085.62
1579.34	1118.62
1583.904	1136.62
1588.464	1134.62
1593.019	1163.62
1597.569	1181.62
1602.115	1195.62
1606.657	1199.62
1611.195	1205.62
1615.728	1204.62
1620.256	1229.62
1624.78	1249.62
1629.3	1253.62
1633.816	1268.62
1638.327	1290.62
1642.834	1295.62
1647.336	1318.62
1651.834	1313.62
1656.328	1341.62
1660.817	1318.62
1665.302	1307.62
1669.783	1268.62
1674.259	1261.62
1678.732	1227.62
1683.199	1184.62
1687.663	1155.62
1692.122	1115.62
1696.577	1078.62
1701.028	1033.62
1705.474	979.62
1709.917	944.62
1714.355	931.62
1718.788	926.62
1723.218	905.62
1727.643	899.62
1732.064	876.62
1736.481	869.62
1740.893	833.62
1745.301	822.62
1749.705	811.62
1754.105	793.62
1758.501	776.62
1762.893	755.62
1767.28	751.62
1771.663	729.62
1776.042	723.62
1780.417	721.62
1784.787	718.62
1789.154	728.62
1793.516	731.62
1797.874	729.62
1802.228	728.62
1806.578	726.62
1810.924	712.62
1815.266	702.62
1819.603	687.62
1823.937	676.62
1828.266	669.62
1832.591	666.62
1836.913	672.62
1841.23	657.62
1845.543	658.62
1849.852	666.62
1854.156	667.62
1858.457	664.62
1862.754	674.62
1867.047	665.62
1871.335	672.62
1875.62	683.62
1879.9	688.62
1884.177	682.62
1888.449	668.62
1892.718	678.62
1896.982	681.62
1901.243	673.62
1905.499	674.62
1909.752	667.62
1914	664.62
1918.245	667.62
1922.485	657.62
1926.722	669.62
1930.954	665.62
1935.183	665.62
1939.408	679.62
1943.628	674.62
1947.845	672.62
1952.058	671.62
1956.267	666.62
1960.472	671.62
1964.673	654.62
1968.87	653.62
1973.063	651.62
1977.252	635.62
1981.438	645.62
1985.619	640.62
1989.797	637.62
1993.971	641.62
1998.14	642.62
2002.306	637.62
2006.469	652.62
2010.627	659.62
2014.781	641.62
2018.932	663.62
2023.078	652.62
2027.221	655.62
2031.36	644.62
2035.495	638.62
2039.627	637.62
2043.754	634.62
2047.878	644.62
2051.998	639.62
2056.114	630.62
2060.226	635.62
2064.334	636.62
2068.439	631.62
2072.54	641.62
2076.637	636.62
2080.73	645.62
2084.82	646.62
2088.906	648.62
2092.988	639.62
2097.066	627.62
2101.14	637.62
2105.211	640.62
2109.278	628.62
2113.342	638.62
2117.401	617.62
2121.457	618.62
2125.509	623.62
2129.558	625.62
2133.602	620.62
2137.643	623.62
2141.681	613.62
2145.714	625.62
2149.744	607.62
2153.77	602.62
2157.793	602.62
2161.812	602.62
2165.827	588.62
2169.838	582.62
2173.846	575.62
2177.851	585.62
2181.851	552.62
2185.848	556.62
2189.841	552.62
2193.831	550.62
2197.817	542.62
2201.799	548.62
2205.778	526.62
2209.753	541.62
2213.725	541.62
2217.693	539.62
2221.657	540.62
2225.618	534.62
2229.575	526.62
2233.529	540.62
2237.479	526.62
2241.425	525.62
2245.368	515.62
2249.307	505.62
2253.243	507.62
2257.175	499.62
2261.104	483.62
2265.029	501.62
2268.95	478.62
2272.868	470.62
2276.783	468.62
2280.694	468.62
2284.601	458.62
2288.505	459.62
2292.405	453.62
2296.302	445.62
2300.195	441.62
2304.085	449.62
2307.971	431.62
2311.854	421.62
2315.734	412.62
2319.609	410.62
2323.482	410.62
2327.351	403.62
2331.216	398.62
2335.078	402.62
2338.937	394.62
2342.792	398.62
2346.643	400.62
2350.492	386.62
2354.336	378.62
2358.178	398.62
2362.015	396.62
2365.85	385.62
2369.681	392.62
2373.508	401.62
2377.333	399.62
2381.153	394.62
2384.971	400.62
2388.785	395.62
2392.595	393.62
2396.402	386.62
2400.206	386.62
2404.007	387.62
2407.804	391.62
2411.597	378.62
2415.388	386.62
2419.174	387.62
2422.958	377.62
2426.738	381.62
2430.515	379.62
2434.289	373.62
2438.059	374.62
2441.825	375.62
2445.589	354.62
2449.349	371.62
2453.106	370.62
2456.859	353.62
2460.61	355.62
2464.356	357.62
2468.1	355.62
2471.84	348.62
2475.577	349.62
2479.311	353.62
2483.041	346.62
2486.768	358.62
2490.492	353.62
2494.213	351.62
2497.93	357.62
2501.644	359.62
2505.355	351.62
2509.062	344.62
2512.766	359.62
2516.467	349.62
2520.165	349.62
2523.859	341.62
2527.551	343.62
2531.239	338.62
2534.923	341.62
2538.605	341.62
2542.283	331.62
2545.958	330.62
2549.63	328.62
2553.299	337.62
2556.964	325.62
2560.626	315.62
2564.285	327.62
2567.941	321.62
2571.594	313.62
2575.243	316.62
2578.89	309.62
2582.533	306.62
2586.173	313.62
2589.809	310.62
2593.443	302.62
2597.073	306.62
2600.701	299.62
2604.325	306.62
2607.946	294.62
2611.564	304.62
2615.178	296.62
2618.79	300.62
2622.398	307.62
2626.004	300.62
2629.606	293.62
2633.205	297.62
2636.801	289.62
2640.394	290.62
2643.983	278.62
2647.57	279.62
2651.153	282.62
2654.734	274.62
2658.311	280.62
2661.885	270.62
2665.456	269.62
2669.025	265.62
2672.589	270.62
2676.151	268.62
2679.71	264.62
2683.266	263.62
2686.819	252.62
2690.368	251.62
2693.915	251.62
2697.458	254.62
2700.999	250.62
2704.536	250.62
2708.071	248.62
2711.602	244.62
2715.13	241.62
2718.656	241.62
2722.178	243.62
2725.697	238.62
2729.214	244.62
2732.727	243.62
2736.237	242.62
2739.744	242.62
2743.249	247.62
2746.75	242.62
2750.248	247.62
2753.743	245.62
2757.236	250.62
2760.725	236.62
2764.211	244.62
2767.695	235.62
2771.175	234.62
2774.652	230.62
2778.127	229.62
2781.598	235.62
2785.067	227.62
2788.532	241.62
2791.995	223.62
2795.455	237.62
2798.911	231.62
2802.365	227.62
2805.816	232.62
2809.264	231.62
2812.709	232.62
2816.151	240.62
2819.59	229.62
2823.026	233.62
2826.46	234.62
2829.89	235.62
2833.318	236.62
2836.742	231.62
2840.164	239.62
2843.583	238.62
2846.999	244.62
2850.412	241.62
2853.822	244.62
2857.229	243.62
2860.634	242.62
2864.035	246.62
2867.434	261.62
2870.83	255.62
2874.223	259.62
2877.613	262.62
2881	256.62
2884.385	259.62
2887.766	260.62
2891.145	261.62
2894.521	262.62
2897.894	267.62
2901.264	259.62
2904.631	266.62
2907.996	261.62
2911.358	264.62
2914.717	273.62
2918.073	277.62
2921.426	270.62
2924.777	282.62
2928.124	277.62
2931.469	282.62
2934.811	291.62
2938.15	301.62
2941.487	309.62
2944.821	303.62
2948.152	299.62
2951.48	317.62
2954.805	316.62
2958.128	319.62
2961.447	317.62
2964.765	322.62
2968.079	326.62
2971.39	338.62
2974.699	339.62
2978.005	344.62
2981.308	355.62
2984.609	353.62
2987.907	363.62
2991.202	365.62
2994.494	373.62
2997.784	387.62
3001.07	394.62
3004.355	397.62
3007.636	401.62
3010.915	412.62
3014.191	433.62
3017.464	434.62
3020.734	437.62
3024.002	439.62
3027.267	449.62
3030.53	458.62
3033.789	460.62
3037.046	474.62
3040.301	487.62
3043.552	487.62
3046.801	506.62
3050.048	517.62
3053.291	529.62
3056.532	541.62
3059.771	556.62
3063.006	571.62
3066.239	588.62
3069.469	608.62
3072.697	628.62
3075.922	637.62
3079.144	661.62
3082.364	651.62
3085.581	679.62
3088.795	710.62
3092.007	705.62
3095.216	716.62
3098.423	733.62
3101.627	767.62
3104.828	758.62
3108.026	773.62
3111.222	796.62
3114.416	805.62
3117.607	830.62
3120.795	843.62
3123.98	868.62
3127.163	881.62
3130.344	903.62
3133.521	931.62
3136.696	938.62
3139.869	958.62
3143.039	975.62
3146.206	983.62
3149.371	1004.62
3152.533	1015.62
3155.693	1016.62
3158.85	1022.62
3162.005	1038.62
3165.157	1036.62
3168.306	1047.62
3171.453	1048.62
3174.597	1057.62
3177.739	1072.62
3180.878	1061.62
3184.014	1059.62
3187.149	1073.62
3190.28	1062.62
3193.409	1066.62
3196.536	1081.62
3199.659	1086.62
3202.781	1085.62
3205.9	1087.62
3209.016	1109.62
3212.13	1092.62
3215.241	1087.62
3218.35	1085.62
3221.456	1074.62
3224.56	1072.62
3227.661	1048.62
3230.76	1027.62
3233.856	1037.62
3236.95	1033.62
3240.041	1024.62
3243.13	1024.62
3246.216	1013.62
3249.3	1008.62
3252.382	986.62
3255.46	988.62
3258.537	970.62
3261.611	966.62
3264.682	970.62
3267.751	967.62
3270.818	977.62
3273.882	969.62
3276.943	961.62
3280.002	946.62
3283.059	937.62
3286.113	941.62
3289.165	927.62
3292.214	909.62
3295.261	895.62
3298.306	886.62
3301.348	871.62
3304.387	856.62
3307.425	840.62
3310.459	837.62
3313.492	823.62
3316.521	820.62
3319.549	820.62
3322.574	805.62
3325.597	799.62
3328.617	788.62
3331.635	789.62
3334.65	774.62
3337.663	786.62
3340.674	783.62
3343.682	767.62
3346.688	776.62
3349.691	774.62
3352.692	772.62
3355.691	754.62
3358.687	777.62
3361.681	743.62
3364.673	748.62
3367.662	728.62
3370.649	734.62
3373.633	726.62
3376.615	713.62
3379.595	696.62
3382.572	702.62
3385.547	689.62
3388.52	679.62
3391.49	660.62
3394.458	658.62
3397.424	650.62
3400.387	634.62
3403.348	622.62
3406.307	628.62
3409.263	617.62
3412.217	618.62
3415.168	600.62
3418.118	604.62
3421.065	591.62
3424.009	587.62
3426.951	579.62
3429.891	570.62
3432.829	564.62
3435.764	557.62
3438.697	552.62
3441.628	545.62
3444.557	518.62
3447.483	503.62
3450.407	493.62
3453.328	484.62
3456.247	473.62
3459.164	454.62
3462.079	453.62
3464.991	438.62
3467.902	419.62
3470.809	415.62
3473.715	399.62
3476.618	390.62
3479.519	373.62
3482.418	366.62
3485.315	367.62
3488.209	343.62
3491.101	336.62
3493.99	331.62
3496.878	323.62
3499.763	315.62
3502.646	303.62
3505.527	297.62
3508.405	286.62
3511.281	276.62
3514.155	270.62
3517.027	259.62
3519.897	239.62
3522.764	241.62
3525.629	225.62
3528.492	209.62
3531.352	203.62
3534.211	196.62
3537.067	183.62
3539.921	173.62
3542.773	170.62
3545.622	158.62
3548.469	150.62
3551.315	142.62
3554.157	133.62
3556.998	124.62
3559.837	126.62
3562.673	115.62
3565.507	110.62
3568.339	111.62
3571.169	98.62
3573.996	96.62
3576.822	95.62
3579.645	88.62
3582.466	85.62
3585.285	77.62
3588.101	74.62
3590.916	69.62
3593.728	62.62
3596.538	58.62
3599.346	58.62
3602.152	54.62
3604.956	46.62
3607.757	44.62
3610.556	43.62
3613.354	37.62
3616.149	33.62
3618.942	27.62
3621.732	30.62
3624.521	20.62
3627.307	20.62
3630.092	16.62
3632.874	16.62
3635.654	10.62
3638.432	15.62
3641.208	12.62
3643.982	9.62
3646.753	4.62
3649.523	7.62
3652.29	5.62
3655.055	-2.38
3657.818	-4.38
3660.579	-4.38
3663.338	-10.38
3666.095	-10.38
3668.849	-13.38
3671.602	-11.38
3674.352	-20.38
3677.101	-20.38
3679.847	-27.38
3682.591	-25.38
3685.333	-27.38
3688.073	-31.38
3690.811	-29.38
3693.547	-33.38
3696.281	-32.38
3699.013	-29.38
3701.742	-35.38
3704.47	-35.38
3707.195	-35.38
3709.919	-37.38
3712.64	-40.38
3715.359	-34.38
3718.076	-40.38
3720.792	-40.38
3723.505	-44.38
3726.216	-40.38
3728.925	-42.38
3731.632	-40.38
3734.336	-41.38
3737.039	-42.38
3739.74	-42.38
3742.439	-46.38
3745.136	-43.38
3747.83	-46.38
3750.523	-44.38
3753.213	-40.38
3755.902	-43.38
3758.589	-45.38
3761.273	-51.38
3763.956	-47.38
3766.636	-51.38
3769.315	-52.38
3771.991	-54.38
3774.665	-49.38
3777.338	-51.38
3780.008	-52.38
3782.677	-55.38
3785.343	-51.38
3788.007	-51.38
3790.67	-52.38
3793.33	-56.38
3795.989	-55.38
3798.645	-55.38
3801.299	-54.38
3803.952	-55.38
3806.602	-56.38
3809.251	-59.38
3811.897	-56.38
3814.542	-58.38
3817.184	-57.38
3819.825	-50.38
3822.463	-55.38
3825.1	-56.38
3827.735	-54.38
3830.367	-57.38
3832.998	-58.38
3835.627	-57.38
3838.253	-55.38
3840.878	-63.38
3843.501	-56.38
3846.122	-59.38
3848.741	-63.38
3851.358	-62.38
3853.973	-60.38
3856.586	-59.38
3859.197	-61.38
3861.806	-60.38
3864.414	-61.38
3867.019	-57.38
3869.622	-62.38
3872.224	-60.38
3874.823	-57.38
3877.421	-61.38
3880.016	-57.38
3882.61	-57.38
3885.202	-57.38
3887.792	-50.38
3890.38	-56.38
3892.966	-58.38
3895.55	-57.38
3898.132	-60.38
3900.713	-60.38
3903.291	-60.38
3905.868	-60.38
3908.442	-61.38
3911.015	-59.38
3913.586	-59.38
3916.155	-58.38
3918.722	-61.38
3921.287	-56.38
3923.85	-64.38
3926.411	-60.38
3928.971	-63.38
3931.528	-62.38
3934.084	-65.38
3936.638	-65.38
3939.19	-63.38
3941.74	-63.38
3944.288	-62.38
3946.834	-62.38
3949.378	-66.38
3951.921	-61.38
3954.462	-65.38
3957	-61.38
3959.537	-66.38
3962.072	-64.38
3964.606	-60.38
3967.137	-63.38
3969.667	-63.38
3972.194	-62.38
3974.72	-61.38
3977.244	-62.38
3979.766	-58.38
3982.286	-61.38
3984.805	-63.38
3987.321	-63.38
3989.836	-63.38
3992.349	-64.38
3994.86	-64.38
3997.369	-63.38
3999.877	-61.38
4002.382	-59.38
4004.886	-61.38
4007.388	-62.38
4009.888	-60.38
4012.386	-59.38
4014.883	-65.38
4017.377	-64.38
4019.87	-62.38
4022.361	-62.38
4024.85	-65.38
4027.338	-62.38
4029.823	-60.38
4032.307	-63.38
4034.789	-60.38
4037.269	-62.38
4039.747	-62.38
4042.224	-61.38
4044.699	-63.38
4047.172	-61.38
4049.643	-59.38
4052.112	-61.38
4054.58	-61.38
4057.046	-57.38
4059.51	-60.38
4061.972	-60.38
4064.432	-61.38
4066.891	-62.38
4069.348	-59.38
4071.803	-64.38
4074.256	-64.38
4076.708	-63.38
4079.158	-63.38
4081.606	-61.38
4084.052	-61.38
4086.497	-66.38
4088.939	-65.38
4091.38	-65.38
4093.819	-61.38
4096.257	-70.38
4098.693	-69.38
4101.127	-69.38
4103.559	-68.38
4105.989	-25.38
4108.418	-20.38
4110.845	-20.38
4113.27	-18.38
4115.694	-11.38
4118.115	-5.38
4120.535	-64.38
4122.954	-68.38
4125.37	-65.38
4127.785	-67.38
4130.198	-62.38
4132.609	-64.38
4135.019	-69.38
4137.427	-71.38
4139.833	-64.38
4142.237	-68.38
