Data from 100000CFU3_B_ramanshift_RamanShift_12-29-57-585.txt Node
Date: Sun Jan 01 12:29:57 IST 2017
User: aro
Spectrometer: QEPB0276
Trigger mode: 0
Integration Time (sec): 5.000000E0
Scans to average: 1
Electric dark correction enabled: true
Nonlinearity correction enabled: false
Boxcar width: 0
XAxis mode: Raman Shifts
Number of Pixels in Spectrum: 1044
>>>>>Begin Spectral Data<<<<<
160.701	3.38
166.742	19.38
172.777	63.38
178.805	205.38
184.826	586.38
190.841	1428.38
196.849	2694.38
202.85	3891.38
208.845	4493.38
214.833	4513.38
220.815	4338.38
226.789	4217.38
232.758	4078.38
238.719	3966.38
244.674	3813.38
250.623	3688.38
256.565	3501.38
262.5	3359.38
268.429	3202.38
274.351	3089.38
280.267	2957.38
286.176	2854.38
292.079	2748.38
297.975	2679.38
303.865	2589.38
309.748	2496.38
315.625	2456.38
321.495	2412.38
327.359	2346.38
333.217	2310.38
339.068	2289.38
344.912	2264.38
350.751	2254.38
356.583	2253.38
362.408	2246.38
368.227	2245.38
374.04	2241.38
379.847	2267.38
385.647	2256.38
391.44	2270.38
397.228	2279.38
403.009	2274.38
408.784	2302.38
414.553	2310.38
420.315	2295.38
426.071	2319.38
431.821	2321.38
437.565	2307.38
443.302	2316.38
449.033	2301.38
454.758	2298.38
460.477	2284.38
466.189	2270.38
471.896	2267.38
477.596	2251.38
483.29	2238.38
488.978	2221.38
494.66	2224.38
500.335	2194.38
506.005	2178.38
511.668	2140.38
517.325	2089.38
522.977	2064.38
528.622	2033.38
534.261	2012.38
539.894	2003.38
545.521	1972.38
551.141	1972.38
556.756	1959.38
562.365	1954.38
567.968	1935.38
573.565	1911.38
579.155	1907.38
584.74	1903.38
590.319	1877.38
595.892	1872.38
601.459	1870.38
607.02	1864.38
612.575	1839.38
618.124	1834.38
623.667	1802.38
629.204	1800.38
634.735	1771.38
640.261	1778.38
645.781	1747.38
651.294	1732.38
656.802	1731.38
662.304	1702.38
667.8	1720.38
673.29	1712.38
678.775	1698.38
684.254	1693.38
689.726	1681.38
695.193	1672.38
700.655	1677.38
706.11	1666.38
711.56	1649.38
717.004	1649.38
722.442	1634.38
727.874	1617.38
733.301	1605.38
738.722	1600.38
744.137	1581.38
749.547	1594.38
754.951	1595.38
760.349	1594.38
765.741	1584.38
771.128	1587.38
776.509	1559.38
781.885	1591.38
787.254	1561.38
792.618	1569.38
797.977	1565.38
803.33	1550.38
808.677	1526.38
814.019	1528.38
819.355	1513.38
824.686	1498.38
830.011	1482.38
835.33	1473.38
840.644	1462.38
845.952	1461.38
851.255	1437.38
856.552	1436.38
861.844	1452.38
867.13	1431.38
872.41	1415.38
877.686	1414.38
882.955	1390.38
888.219	1385.38
893.478	1364.38
898.731	1340.38
903.979	1328.38
909.221	1304.38
914.458	1291.38
919.69	1293.38
924.916	1273.38
930.136	1289.38
935.351	1269.38
940.561	1277.38
945.766	1294.38
950.965	1281.38
956.158	1271.38
961.347	1266.38
966.529	1243.38
971.707	1216.38
976.879	1198.38
982.046	1182.38
987.208	1188.38
992.364	1183.38
997.515	1185.38
1002.66	1198.38
1007.801	1215.38
1012.936	1205.38
1018.066	1218.38
1023.19	1236.38
1028.309	1235.38
1033.423	1233.38
1038.532	1218.38
1043.636	1229.38
1048.734	1211.38
1053.827	1191.38
1058.915	1188.38
1063.998	1175.38
1069.075	1179.38
1074.147	1172.38
1079.214	1176.38
1084.276	1182.38
1089.333	1183.38
1094.385	1202.38
1099.431	1204.38
1104.472	1208.38
1109.509	1211.38
1114.54	1205.38
1119.565	1186.38
1124.586	1178.38
1129.602	1171.38
1134.613	1163.38
1139.618	1147.38
1144.619	1148.38
1149.614	1159.38
1154.604	1140.38
1159.589	1152.38
1164.57	1170.38
1169.545	1164.38
1174.515	1167.38
1179.48	1163.38
1184.44	1175.38
1189.395	1162.38
1194.345	1136.38
1199.29	1164.38
1204.23	1142.38
1209.165	1148.38
1214.095	1150.38
1219.021	1165.38
1223.941	1155.38
1228.856	1180.38
1233.766	1189.38
1238.672	1186.38
1243.572	1191.38
1248.467	1185.38
1253.358	1172.38
1258.244	1149.38
1263.124	1141.38
1268	1126.38
1272.871	1114.38
1277.737	1105.38
1282.599	1100.38
1287.455	1093.38
1292.306	1102.38
1297.153	1104.38
1301.995	1119.38
1306.832	1114.38
1311.664	1112.38
1316.491	1137.38
1321.314	1140.38
1326.132	1132.38
1330.945	1110.38
1335.753	1108.38
1340.556	1085.38
1345.354	1075.38
1350.148	1058.38
1354.937	1073.38
1359.722	1054.38
1364.501	1044.38
1369.276	1038.38
1374.046	1043.38
1378.811	1034.38
1383.572	1031.38
1388.327	1038.38
1393.079	1029.38
1397.825	1017.38
1402.567	1010.38
1407.304	1003.38
1412.036	998.38
1416.764	996.38
1421.487	1001.38
1426.205	992.38
1430.919	1000.38
1435.628	1004.38
1440.333	1020.38
1445.032	1031.38
1449.727	1033.38
1454.418	1036.38
1459.104	1047.38
1463.785	1037.38
1468.462	1022.38
1473.134	1012.38
1477.802	1006.38
1482.465	997.38
1487.123	1014.38
1491.777	1005.38
1496.426	1007.38
1501.071	1002.38
1505.711	1030.38
1510.347	1030.38
1514.978	1058.38
1519.604	1069.38
1524.226	1065.38
1528.844	1058.38
1533.457	1060.38
1538.065	1072.38
1542.669	1055.38
1547.269	1045.38
1551.864	1063.38
1556.454	1072.38
1561.041	1077.38
1565.622	1081.38
1570.199	1083.38
1574.772	1093.38
1579.34	1113.38
1583.904	1147.38
1588.464	1165.38
1593.019	1174.38
1597.569	1210.38
1602.115	1210.38
1606.657	1230.38
1611.195	1223.38
1615.728	1233.38
1620.256	1255.38
1624.78	1266.38
1629.3	1293.38
1633.816	1305.38
1638.327	1324.38
1642.834	1336.38
1647.336	1354.38
1651.834	1368.38
1656.328	1338.38
1660.817	1354.38
1665.302	1326.38
1669.783	1326.38
1674.259	1282.38
1678.732	1262.38
1683.199	1229.38
1687.663	1176.38
1692.122	1138.38
1696.577	1106.38
1701.028	1061.38
1705.474	1002.38
1709.917	975.38
1714.355	945.38
1718.788	931.38
1723.218	913.38
1727.643	906.38
1732.064	882.38
1736.481	877.38
1740.893	853.38
1745.301	825.38
1749.705	814.38
1754.105	782.38
1758.501	773.38
1762.893	767.38
1767.28	739.38
1771.663	754.38
1776.042	735.38
1780.417	724.38
1784.787	723.38
1789.154	720.38
1793.516	726.38
1797.874	732.38
1802.228	723.38
1806.578	719.38
1810.924	712.38
1815.266	700.38
1819.603	692.38
1823.937	681.38
1828.266	666.38
1832.591	663.38
1836.913	660.38
1841.23	667.38
1845.543	668.38
1849.852	655.38
1854.156	653.38
1858.457	657.38
1862.754	664.38
1867.047	666.38
1871.335	671.38
1875.62	669.38
1879.9	674.38
1884.177	674.38
1888.449	676.38
1892.718	671.38
1896.982	665.38
1901.243	671.38
1905.499	670.38
1909.752	665.38
1914	661.38
1918.245	655.38
1922.485	650.38
1926.722	660.38
1930.954	671.38
1935.183	665.38
1939.408	674.38
1943.628	675.38
1947.845	661.38
1952.058	675.38
1956.267	673.38
1960.472	667.38
1964.673	642.38
1968.87	637.38
1973.063	640.38
1977.252	634.38
1981.438	639.38
1985.619	631.38
1989.797	637.38
1993.971	630.38
1998.14	630.38
2002.306	637.38
2006.469	647.38
2010.627	644.38
2014.781	639.38
2018.932	661.38
2023.078	657.38
2027.221	650.38
2031.36	639.38
2035.495	637.38
2039.627	640.38
2043.754	635.38
2047.878	633.38
2051.998	625.38
2056.114	622.38
2060.226	635.38
2064.334	634.38
2068.439	626.38
2072.54	630.38
2076.637	628.38
2080.73	638.38
2084.82	640.38
2088.906	648.38
2092.988	641.38
2097.066	638.38
2101.14	651.38
2105.211	629.38
2109.278	624.38
2113.342	610.38
2117.401	623.38
2121.457	624.38
2125.509	624.38
2129.558	613.38
2133.602	604.38
2137.643	617.38
2141.681	604.38
2145.714	611.38
2149.744	598.38
2153.77	602.38
2157.793	599.38
2161.812	597.38
2165.827	571.38
2169.838	577.38
2173.846	573.38
2177.851	565.38
2181.851	566.38
2185.848	544.38
2189.841	549.38
2193.831	538.38
2197.817	527.38
2201.799	536.38
2205.778	543.38
2209.753	545.38
2213.725	529.38
2217.693	525.38
2221.657	527.38
2225.618	522.38
2229.575	517.38
2233.529	525.38
2237.479	521.38
2241.425	508.38
2245.368	515.38
2249.307	499.38
2253.243	486.38
2257.175	481.38
2261.104	481.38
2265.029	481.38
2268.95	471.38
2272.868	469.38
2276.783	464.38
2280.694	461.38
2284.601	454.38
2288.505	452.38
2292.405	449.38
2296.302	429.38
2300.195	440.38
2304.085	437.38
2307.971	418.38
2311.854	422.38
2315.734	409.38
2319.609	406.38
2323.482	394.38
2327.351	390.38
2331.216	398.38
2335.078	385.38
2338.937	387.38
2342.792	383.38
2346.643	384.38
2350.492	371.38
2354.336	367.38
2358.178	376.38
2362.015	375.38
2365.85	378.38
2369.681	373.38
2373.508	379.38
2377.333	373.38
2381.153	379.38
2384.971	374.38
2388.785	371.38
2392.595	371.38
2396.402	365.38
2400.206	372.38
2404.007	366.38
2407.804	375.38
2411.597	359.38
2415.388	360.38
2419.174	373.38
2422.958	359.38
2426.738	366.38
2430.515	369.38
2434.289	360.38
2438.059	353.38
2441.825	358.38
2445.589	353.38
2449.349	355.38
2453.106	351.38
2456.859	343.38
2460.61	343.38
2464.356	341.38
2468.1	339.38
2471.84	341.38
2475.577	331.38
2479.311	340.38
2483.041	345.38
2486.768	333.38
2490.492	333.38
2494.213	327.38
2497.93	334.38
2501.644	328.38
2505.355	332.38
2509.062	333.38
2512.766	341.38
2516.467	333.38
2520.165	330.38
2523.859	328.38
2527.551	318.38
2531.239	323.38
2534.923	324.38
2538.605	314.38
2542.283	301.38
2545.958	315.38
2549.63	314.38
2553.299	311.38
2556.964	308.38
2560.626	304.38
2564.285	300.38
2567.941	301.38
2571.594	293.38
2575.243	296.38
2578.89	292.38
2582.533	299.38
2586.173	286.38
2589.809	291.38
2593.443	289.38
2597.073	280.38
2600.701	284.38
2604.325	281.38
2607.946	284.38
2611.564	281.38
2615.178	282.38
2618.79	284.38
2622.398	277.38
2626.004	280.38
2629.606	284.38
2633.205	270.38
2636.801	268.38
2640.394	276.38
2643.983	276.38
2647.57	272.38
2651.153	268.38
2654.734	258.38
2658.311	258.38
2661.885	265.38
2665.456	249.38
2669.025	253.38
2672.589	254.38
2676.151	247.38
2679.71	251.38
2683.266	248.38
2686.819	235.38
2690.368	231.38
2693.915	245.38
2697.458	237.38
2700.999	222.38
2704.536	232.38
2708.071	229.38
2711.602	230.38
2715.13	224.38
2718.656	232.38
2722.178	224.38
2725.697	232.38
2729.214	228.38
2732.727	231.38
2736.237	231.38
2739.744	229.38
2743.249	234.38
2746.75	225.38
2750.248	235.38
2753.743	234.38
2757.236	222.38
2760.725	225.38
2764.211	224.38
2767.695	223.38
2771.175	215.38
2774.652	215.38
2778.127	214.38
2781.598	221.38
2785.067	217.38
2788.532	215.38
2791.995	221.38
2795.455	217.38
2798.911	213.38
2802.365	225.38
2805.816	210.38
2809.264	220.38
2812.709	232.38
2816.151	229.38
2819.59	224.38
2823.026	224.38
2826.46	228.38
2829.89	227.38
2833.318	226.38
2836.742	232.38
2840.164	228.38
2843.583	228.38
2846.999	233.38
2850.412	242.38
2853.822	239.38
2857.229	239.38
2860.634	249.38
2864.035	244.38
2867.434	251.38
2870.83	246.38
2874.223	243.38
2877.613	248.38
2881	254.38
2884.385	244.38
2887.766	263.38
2891.145	256.38
2894.521	250.38
2897.894	262.38
2901.264	260.38
2904.631	262.38
2907.996	262.38
2911.358	269.38
2914.717	265.38
2918.073	269.38
2921.426	276.38
2924.777	276.38
2928.124	283.38
2931.469	283.38
2934.811	298.38
2938.15	297.38
2941.487	313.38
2944.821	307.38
2948.152	307.38
2951.48	310.38
2954.805	312.38
2958.128	315.38
2961.447	326.38
2964.765	324.38
2968.079	326.38
2971.39	335.38
2974.699	345.38
2978.005	343.38
2981.308	350.38
2984.609	370.38
2987.907	380.38
2991.202	386.38
2994.494	398.38
2997.784	400.38
3001.07	407.38
3004.355	416.38
3007.636	428.38
3010.915	430.38
3014.191	453.38
3017.464	453.38
3020.734	464.38
3024.002	474.38
3027.267	469.38
3030.53	486.38
3033.789	497.38
3037.046	495.38
3040.301	512.38
3043.552	527.38
3046.801	534.38
3050.048	553.38
3053.291	570.38
3056.532	574.38
3059.771	601.38
3063.006	629.38
3066.239	633.38
3069.469	652.38
3072.697	675.38
3075.922	676.38
3079.144	696.38
3082.364	724.38
3085.581	729.38
3088.795	752.38
3092.007	766.38
3095.216	788.38
3098.423	797.38
3101.627	807.38
3104.828	830.38
3108.026	848.38
3111.222	858.38
3114.416	894.38
3117.607	915.38
3120.795	926.38
3123.98	947.38
3127.163	965.38
3130.344	993.38
3133.521	1007.38
3136.696	1026.38
3139.869	1054.38
3143.039	1076.38
3146.206	1084.38
3149.371	1110.38
3152.533	1108.38
3155.693	1127.38
3158.85	1133.38
3162.005	1141.38
3165.157	1150.38
3168.306	1141.38
3171.453	1151.38
3174.597	1156.38
3177.739	1146.38
3180.878	1182.38
3184.014	1172.38
3187.149	1180.38
3190.28	1161.38
3193.409	1190.38
3196.536	1186.38
3199.659	1191.38
3202.781	1184.38
3205.9	1189.38
3209.016	1210.38
3212.13	1196.38
3215.241	1187.38
3218.35	1195.38
3221.456	1178.38
3224.56	1170.38
3227.661	1149.38
3230.76	1150.38
3233.856	1136.38
3236.95	1130.38
3240.041	1119.38
3243.13	1109.38
3246.216	1108.38
3249.3	1094.38
3252.382	1092.38
3255.46	1077.38
3258.537	1087.38
3261.611	1084.38
3264.682	1069.38
3267.751	1057.38
3270.818	1067.38
3273.882	1070.38
3276.943	1047.38
3280.002	1046.38
3283.059	1052.38
3286.113	1026.38
3289.165	1021.38
3292.214	999.38
3295.261	988.38
3298.306	961.38
3301.348	958.38
3304.387	944.38
3307.425	918.38
3310.459	910.38
3313.492	912.38
3316.521	902.38
3319.549	887.38
3322.574	879.38
3325.597	874.38
3328.617	861.38
3331.635	856.38
3334.65	854.38
3337.663	856.38
3340.674	854.38
3343.682	852.38
3346.688	845.38
3349.691	835.38
3352.692	851.38
3355.691	831.38
3358.687	846.38
3361.681	822.38
3364.673	821.38
3367.662	796.38
3370.649	808.38
3373.633	789.38
3376.615	770.38
3379.595	770.38
3382.572	764.38
3385.547	738.38
3388.52	744.38
3391.49	728.38
3394.458	718.38
3397.424	714.38
3400.387	698.38
3403.348	688.38
3406.307	684.38
3409.263	679.38
3412.217	672.38
3415.168	665.38
3418.118	648.38
3421.065	642.38
3424.009	639.38
3426.951	633.38
3429.891	624.38
3432.829	614.38
3435.764	600.38
3438.697	592.38
3441.628	583.38
3444.557	568.38
3447.483	555.38
3450.407	532.38
3453.328	533.38
3456.247	515.38
3459.164	511.38
3462.079	477.38
3464.991	469.38
3467.902	455.38
3470.809	447.38
3473.715	441.38
3476.618	426.38
3479.519	405.38
3482.418	401.38
3485.315	391.38
3488.209	383.38
3491.101	367.38
3493.99	358.38
3496.878	353.38
3499.763	338.38
3502.646	331.38
3505.527	317.38
3508.405	309.38
3511.281	301.38
3514.155	290.38
3517.027	275.38
3519.897	270.38
3522.764	257.38
3525.629	250.38
3528.492	230.38
3531.352	226.38
3534.211	207.38
3537.067	199.38
3539.921	191.38
3542.773	187.38
3545.622	180.38
3548.469	167.38
3551.315	152.38
3554.157	152.38
3556.998	144.38
3559.837	139.38
3562.673	131.38
3565.507	123.38
3568.339	123.38
3571.169	112.38
3573.996	112.38
3576.822	105.38
3579.645	101.38
3582.466	95.38
3585.285	91.38
3588.101	79.38
3590.916	70.38
3593.728	72.38
3596.538	58.38
3599.346	58.38
3602.152	58.38
3604.956	53.38
3607.757	41.38
3610.556	35.38
3613.354	32.38
3616.149	27.38
3618.942	24.38
3621.732	28.38
3624.521	19.38
3627.307	18.38
3630.092	14.38
3632.874	11.38
3635.654	7.38
3638.432	8.38
3641.208	5.38
3643.982	1.38
3646.753	2.38
3649.523	-3.62
3652.29	-0.62
3655.055	-3.62
3657.818	-7.62
3660.579	-11.62
3663.338	-15.62
3666.095	-12.62
3668.849	-14.62
3671.602	-17.62
3674.352	-22.62
3677.101	-22.62
3679.847	-27.62
3682.591	-27.62
3685.333	-27.62
3688.073	-33.62
3690.811	-32.62
3693.547	-31.62
3696.281	-32.62
3699.013	-34.62
3701.742	-37.62
3704.47	-39.62
3707.195	-37.62
3709.919	-42.62
3712.64	-41.62
3715.359	-41.62
3718.076	-42.62
3720.792	-41.62
3723.505	-44.62
3726.216	-42.62
3728.925	-44.62
3731.632	-45.62
3734.336	-48.62
3737.039	-49.62
3739.74	-52.62
3742.439	-49.62
3745.136	-47.62
3747.83	-50.62
3750.523	-52.62
3753.213	-53.62
3755.902	-51.62
3758.589	-52.62
3761.273	-57.62
3763.956	-53.62
3766.636	-56.62
3769.315	-57.62
3771.991	-58.62
3774.665	-58.62
3777.338	-56.62
3780.008	-63.62
3782.677	-63.62
3785.343	-58.62
3788.007	-58.62
3790.67	-58.62
3793.33	-64.62
3795.989	-61.62
3798.645	-62.62
3801.299	-59.62
3803.952	-61.62
3806.602	-61.62
3809.251	-64.62
3811.897	-62.62
3814.542	-61.62
3817.184	-62.62
3819.825	-60.62
3822.463	-59.62
3825.1	-57.62
3827.735	-60.62
3830.367	-59.62
3832.998	-58.62
3835.627	-63.62
3838.253	-58.62
3840.878	-67.62
3843.501	-60.62
3846.122	-61.62
3848.741	-65.62
3851.358	-66.62
3853.973	-62.62
3856.586	-60.62
3859.197	-66.62
3861.806	-65.62
3864.414	-64.62
3867.019	-65.62
3869.622	-68.62
3872.224	-67.62
3874.823	-65.62
3877.421	-66.62
3880.016	-64.62
3882.61	-62.62
3885.202	-66.62
3887.792	-61.62
3890.38	-60.62
3892.966	-61.62
3895.55	-62.62
3898.132	-67.62
3900.713	-70.62
3903.291	-68.62
3905.868	-67.62
3908.442	-68.62
3911.015	-67.62
3913.586	-69.62
3916.155	-70.62
3918.722	-72.62
3921.287	-68.62
3923.85	-70.62
3926.411	-70.62
3928.971	-68.62
3931.528	-69.62
3934.084	-71.62
3936.638	-72.62
3939.19	-70.62
3941.74	-68.62
3944.288	-68.62
3946.834	-69.62
3949.378	-72.62
3951.921	-70.62
3954.462	-69.62
3957	-66.62
3959.537	-65.62
3962.072	-68.62
3964.606	-64.62
3967.137	-67.62
3969.667	-70.62
3972.194	-69.62
3974.72	-64.62
3977.244	-66.62
3979.766	-63.62
3982.286	-63.62
3984.805	-66.62
3987.321	-66.62
3989.836	-66.62
3992.349	-69.62
3994.86	-66.62
3997.369	-68.62
3999.877	-65.62
4002.382	-67.62
4004.886	-68.62
4007.388	-70.62
4009.888	-71.62
4012.386	-66.62
4014.883	-70.62
4017.377	-70.62
4019.87	-68.62
4022.361	-69.62
4024.85	-70.62
4027.338	-70.62
4029.823	-64.62
4032.307	-71.62
4034.789	-67.62
4037.269	-70.62
4039.747	-68.62
4042.224	-68.62
4044.699	-67.62
4047.172	-67.62
4049.643	-66.62
4052.112	-64.62
4054.58	-64.62
4057.046	-65.62
4059.51	-64.62
4061.972	-66.62
4064.432	-68.62
4066.891	-67.62
4069.348	-66.62
4071.803	-69.62
4074.256	-66.62
4076.708	-70.62
4079.158	-68.62
4081.606	-69.62
4084.052	-68.62
4086.497	-68.62
4088.939	-71.62
4091.38	-71.62
4093.819	-67.62
4096.257	-74.62
4098.693	-71.62
4101.127	-72.62
4103.559	-69.62
4105.989	-25.62
4108.418	-21.62
4110.845	-19.62
4113.27	-15.62
4115.694	-13.62
4118.115	-0.62
4120.535	-70.62
4122.954	-69.62
4125.37	-74.62
4127.785	-71.62
4130.198	-69.62
4132.609	-71.62
4135.019	-74.62
4137.427	-74.62
4139.833	-70.62
4142.237	-71.62
