Data from 100CFU2_A_ramanshift_RamanShift_11-41-37-752.txt Node
Date: Sun Jan 01 11:41:37 IST 2017
User: aro
Spectrometer: QEPB0276
Trigger mode: 0
Integration Time (sec): 5.000000E0
Scans to average: 1
Electric dark correction enabled: true
Nonlinearity correction enabled: false
Boxcar width: 0
XAxis mode: Raman Shifts
Number of Pixels in Spectrum: 1044
>>>>>Begin Spectral Data<<<<<
160.701	0.25
166.742	17.25
172.777	69.25
178.805	217.25
184.826	665.25
190.841	1576.25
196.849	2869.25
202.85	4089.25
208.845	4680.25
214.833	4672.25
220.815	4507.25
226.789	4340.25
232.758	4279.25
238.719	4176.25
244.674	4030.25
250.623	3867.25
256.565	3714.25
262.5	3565.25
268.429	3430.25
274.351	3315.25
280.267	3199.25
286.176	3063.25
292.079	2980.25
297.975	2908.25
303.865	2854.25
309.748	2785.25
315.625	2712.25
321.495	2654.25
327.359	2630.25
333.217	2583.25
339.068	2570.25
344.912	2544.25
350.751	2522.25
356.583	2515.25
362.408	2520.25
368.227	2521.25
374.04	2527.25
379.847	2528.25
385.647	2562.25
391.44	2543.25
397.228	2554.25
403.009	2568.25
408.784	2595.25
414.553	2589.25
420.315	2598.25
426.071	2595.25
431.821	2593.25
437.565	2606.25
443.302	2604.25
449.033	2582.25
454.758	2599.25
460.477	2563.25
466.189	2565.25
471.896	2557.25
477.596	2531.25
483.29	2543.25
488.978	2524.25
494.66	2510.25
500.335	2497.25
506.005	2456.25
511.668	2429.25
517.325	2386.25
522.977	2361.25
528.622	2331.25
534.261	2312.25
539.894	2299.25
545.521	2257.25
551.141	2254.25
556.756	2242.25
562.365	2216.25
567.968	2228.25
573.565	2209.25
579.155	2208.25
584.74	2172.25
590.319	2176.25
595.892	2155.25
601.459	2167.25
607.02	2144.25
612.575	2126.25
618.124	2101.25
623.667	2072.25
629.204	2081.25
634.735	2043.25
640.261	2039.25
645.781	2024.25
651.294	2026.25
656.802	2008.25
662.304	1996.25
667.8	1993.25
673.29	1982.25
678.775	1984.25
684.254	1975.25
689.726	1984.25
695.193	1962.25
700.655	1961.25
706.11	1925.25
711.56	1922.25
717.004	1906.25
722.442	1899.25
727.874	1880.25
733.301	1876.25
738.722	1883.25
744.137	1857.25
749.547	1869.25
754.951	1857.25
760.349	1867.25
765.741	1860.25
771.128	1842.25
776.509	1855.25
781.885	1875.25
787.254	1850.25
792.618	1850.25
797.977	1862.25
803.33	1818.25
808.677	1807.25
814.019	1801.25
819.355	1781.25
824.686	1755.25
830.011	1756.25
835.33	1740.25
840.644	1741.25
845.952	1725.25
851.255	1752.25
856.552	1705.25
861.844	1727.25
867.13	1723.25
872.41	1722.25
877.686	1716.25
882.955	1674.25
888.219	1677.25
893.478	1630.25
898.731	1634.25
903.979	1598.25
909.221	1576.25
914.458	1571.25
919.69	1568.25
924.916	1576.25
930.136	1561.25
935.351	1567.25
940.561	1559.25
945.766	1576.25
950.965	1557.25
956.158	1564.25
961.347	1553.25
966.529	1523.25
971.707	1497.25
976.879	1494.25
982.046	1471.25
987.208	1461.25
992.364	1459.25
997.515	1466.25
1002.66	1464.25
1007.801	1483.25
1012.936	1495.25
1018.066	1508.25
1023.19	1525.25
1028.309	1527.25
1033.423	1513.25
1038.532	1521.25
1043.636	1508.25
1048.734	1495.25
1053.827	1491.25
1058.915	1456.25
1063.998	1464.25
1069.075	1443.25
1074.147	1448.25
1079.214	1458.25
1084.276	1480.25
1089.333	1474.25
1094.385	1475.25
1099.431	1491.25
1104.472	1490.25
1109.509	1492.25
1114.54	1485.25
1119.565	1470.25
1124.586	1444.25
1129.602	1433.25
1134.613	1418.25
1139.618	1425.25
1144.619	1415.25
1149.614	1433.25
1154.604	1423.25
1159.589	1456.25
1164.57	1451.25
1169.545	1453.25
1174.515	1443.25
1179.48	1439.25
1184.44	1437.25
1189.395	1440.25
1194.345	1416.25
1199.29	1407.25
1204.23	1414.25
1209.165	1413.25
1214.095	1419.25
1219.021	1421.25
1223.941	1445.25
1228.856	1458.25
1233.766	1461.25
1238.672	1465.25
1243.572	1461.25
1248.467	1468.25
1253.358	1459.25
1258.244	1438.25
1263.124	1414.25
1268	1391.25
1272.871	1368.25
1277.737	1376.25
1282.599	1365.25
1287.455	1361.25
1292.306	1370.25
1297.153	1386.25
1301.995	1376.25
1306.832	1401.25
1311.664	1400.25
1316.491	1402.25
1321.314	1392.25
1326.132	1384.25
1330.945	1378.25
1335.753	1365.25
1340.556	1358.25
1345.354	1337.25
1350.148	1335.25
1354.937	1311.25
1359.722	1289.25
1364.501	1279.25
1369.276	1273.25
1374.046	1250.25
1378.811	1248.25
1383.572	1268.25
1388.327	1258.25
1393.079	1268.25
1397.825	1256.25
1402.567	1252.25
1407.304	1233.25
1412.036	1235.25
1416.764	1215.25
1421.487	1229.25
1426.205	1234.25
1430.919	1241.25
1435.628	1241.25
1440.333	1258.25
1445.032	1270.25
1449.727	1281.25
1454.418	1271.25
1459.104	1303.25
1463.785	1294.25
1468.462	1267.25
1473.134	1259.25
1477.802	1257.25
1482.465	1231.25
1487.123	1241.25
1491.777	1230.25
1496.426	1240.25
1501.071	1244.25
1505.711	1246.25
1510.347	1247.25
1514.978	1249.25
1519.604	1271.25
1524.226	1268.25
1528.844	1292.25
1533.457	1277.25
1538.065	1272.25
1542.669	1257.25
1547.269	1269.25
1551.864	1273.25
1556.454	1266.25
1561.041	1278.25
1565.622	1313.25
1570.199	1292.25
1574.772	1305.25
1579.34	1343.25
1583.904	1351.25
1588.464	1387.25
1593.019	1388.25
1597.569	1417.25
1602.115	1422.25
1606.657	1430.25
1611.195	1429.25
1615.728	1445.25
1620.256	1460.25
1624.78	1454.25
1629.3	1493.25
1633.816	1523.25
1638.327	1522.25
1642.834	1548.25
1647.336	1569.25
1651.834	1572.25
1656.328	1565.25
1660.817	1564.25
1665.302	1562.25
1669.783	1510.25
1674.259	1483.25
1678.732	1452.25
1683.199	1419.25
1687.663	1382.25
1692.122	1331.25
1696.577	1288.25
1701.028	1235.25
1705.474	1205.25
1709.917	1160.25
1714.355	1133.25
1718.788	1115.25
1723.218	1101.25
1727.643	1081.25
1732.064	1079.25
1736.481	1056.25
1740.893	1032.25
1745.301	1004.25
1749.705	983.25
1754.105	972.25
1758.501	952.25
1762.893	934.25
1767.28	918.25
1771.663	915.25
1776.042	907.25
1780.417	904.25
1784.787	897.25
1789.154	904.25
1793.516	907.25
1797.874	905.25
1802.228	890.25
1806.578	890.25
1810.924	885.25
1815.266	867.25
1819.603	861.25
1823.937	845.25
1828.266	841.25
1832.591	825.25
1836.913	831.25
1841.23	825.25
1845.543	827.25
1849.852	831.25
1854.156	836.25
1858.457	837.25
1862.754	827.25
1867.047	828.25
1871.335	837.25
1875.62	850.25
1879.9	852.25
1884.177	847.25
1888.449	836.25
1892.718	837.25
1896.982	837.25
1901.243	827.25
1905.499	833.25
1909.752	825.25
1914	820.25
1918.245	821.25
1922.485	832.25
1926.722	822.25
1930.954	832.25
1935.183	832.25
1939.408	830.25
1943.628	830.25
1947.845	834.25
1952.058	829.25
1956.267	827.25
1960.472	830.25
1964.673	816.25
1968.87	811.25
1973.063	785.25
1977.252	781.25
1981.438	796.25
1985.619	777.25
1989.797	772.25
1993.971	786.25
1998.14	791.25
2002.306	788.25
2006.469	795.25
2010.627	796.25
2014.781	801.25
2018.932	806.25
2023.078	795.25
2027.221	792.25
2031.36	790.25
2035.495	785.25
2039.627	782.25
2043.754	766.25
2047.878	763.25
2051.998	764.25
2056.114	772.25
2060.226	775.25
2064.334	772.25
2068.439	757.25
2072.54	765.25
2076.637	780.25
2080.73	787.25
2084.82	770.25
2088.906	769.25
2092.988	769.25
2097.066	786.25
2101.14	754.25
2105.211	768.25
2109.278	757.25
2113.342	743.25
2117.401	739.25
2121.457	745.25
2125.509	743.25
2129.558	737.25
2133.602	740.25
2137.643	725.25
2141.681	734.25
2145.714	732.25
2149.744	723.25
2153.77	723.25
2157.793	722.25
2161.812	716.25
2165.827	711.25
2169.838	709.25
2173.846	691.25
2177.851	690.25
2181.851	675.25
2185.848	678.25
2189.841	667.25
2193.831	664.25
2197.817	657.25
2201.799	650.25
2205.778	648.25
2209.753	647.25
2213.725	663.25
2217.693	642.25
2221.657	653.25
2225.618	632.25
2229.575	631.25
2233.529	644.25
2237.479	641.25
2241.425	629.25
2245.368	621.25
2249.307	612.25
2253.243	595.25
2257.175	601.25
2261.104	594.25
2265.029	594.25
2268.95	574.25
2272.868	568.25
2276.783	559.25
2280.694	560.25
2284.601	563.25
2288.505	546.25
2292.405	548.25
2296.302	541.25
2300.195	535.25
2304.085	528.25
2307.971	525.25
2311.854	510.25
2315.734	510.25
2319.609	488.25
2323.482	489.25
2327.351	495.25
2331.216	482.25
2335.078	487.25
2338.937	475.25
2342.792	479.25
2346.643	472.25
2350.492	467.25
2354.336	470.25
2358.178	479.25
2362.015	472.25
2365.85	471.25
2369.681	471.25
2373.508	472.25
2377.333	481.25
2381.153	477.25
2384.971	485.25
2388.785	471.25
2392.595	465.25
2396.402	465.25
2400.206	462.25
2404.007	466.25
2407.804	466.25
2411.597	468.25
2415.388	452.25
2419.174	464.25
2422.958	457.25
2426.738	453.25
2430.515	455.25
2434.289	445.25
2438.059	445.25
2441.825	441.25
2445.589	439.25
2449.349	436.25
2453.106	448.25
2456.859	438.25
2460.61	430.25
2464.356	423.25
2468.1	430.25
2471.84	414.25
2475.577	428.25
2479.311	429.25
2483.041	420.25
2486.768	418.25
2490.492	421.25
2494.213	421.25
2497.93	426.25
2501.644	424.25
2505.355	419.25
2509.062	412.25
2512.766	423.25
2516.467	420.25
2520.165	410.25
2523.859	414.25
2527.551	414.25
2531.239	408.25
2534.923	402.25
2538.605	398.25
2542.283	388.25
2545.958	391.25
2549.63	394.25
2553.299	390.25
2556.964	396.25
2560.626	386.25
2564.285	381.25
2567.941	375.25
2571.594	366.25
2575.243	381.25
2578.89	371.25
2582.533	368.25
2586.173	365.25
2589.809	372.25
2593.443	363.25
2597.073	361.25
2600.701	360.25
2604.325	355.25
2607.946	351.25
2611.564	361.25
2615.178	353.25
2618.79	351.25
2622.398	352.25
2626.004	352.25
2629.606	353.25
2633.205	347.25
2636.801	338.25
2640.394	346.25
2643.983	338.25
2647.57	343.25
2651.153	340.25
2654.734	328.25
2658.311	327.25
2661.885	325.25
2665.456	311.25
2669.025	308.25
2672.589	316.25
2676.151	314.25
2679.71	315.25
2683.266	312.25
2686.819	312.25
2690.368	298.25
2693.915	302.25
2697.458	298.25
2700.999	295.25
2704.536	288.25
2708.071	290.25
2711.602	281.25
2715.13	284.25
2718.656	286.25
2722.178	287.25
2725.697	287.25
2729.214	286.25
2732.727	280.25
2736.237	289.25
2739.744	290.25
2743.249	288.25
2746.75	286.25
2750.248	281.25
2753.743	295.25
2757.236	283.25
2760.725	281.25
2764.211	284.25
2767.695	284.25
2771.175	265.25
2774.652	267.25
2778.127	270.25
2781.598	268.25
2785.067	266.25
2788.532	265.25
2791.995	266.25
2795.455	273.25
2798.911	269.25
2802.365	273.25
2805.816	271.25
2809.264	270.25
2812.709	281.25
2816.151	281.25
2819.59	270.25
2823.026	276.25
2826.46	278.25
2829.89	281.25
2833.318	283.25
2836.742	274.25
2840.164	279.25
2843.583	277.25
2846.999	280.25
2850.412	280.25
2853.822	284.25
2857.229	271.25
2860.634	283.25
2864.035	290.25
2867.434	293.25
2870.83	289.25
2874.223	295.25
2877.613	297.25
2881	295.25
2884.385	300.25
2887.766	298.25
2891.145	292.25
2894.521	299.25
2897.894	291.25
2901.264	291.25
2904.631	299.25
2907.996	304.25
2911.358	305.25
2914.717	301.25
2918.073	303.25
2921.426	314.25
2924.777	312.25
2928.124	311.25
2931.469	328.25
2934.811	331.25
2938.15	326.25
2941.487	339.25
2944.821	341.25
2948.152	337.25
2951.48	348.25
2954.805	359.25
2958.128	354.25
2961.447	351.25
2964.765	352.25
2968.079	362.25
2971.39	365.25
2974.699	369.25
2978.005	378.25
2981.308	380.25
2984.609	392.25
2987.907	395.25
2991.202	402.25
2994.494	417.25
2997.784	418.25
3001.07	433.25
3004.355	434.25
3007.636	449.25
3010.915	454.25
3014.191	460.25
3017.464	472.25
3020.734	481.25
3024.002	485.25
3027.267	477.25
3030.53	499.25
3033.789	510.25
3037.046	508.25
3040.301	525.25
3043.552	545.25
3046.801	551.25
3050.048	550.25
3053.291	578.25
3056.532	586.25
3059.771	618.25
3063.006	606.25
3066.239	627.25
3069.469	664.25
3072.697	675.25
3075.922	695.25
3079.144	695.25
3082.364	720.25
3085.581	740.25
3088.795	745.25
3092.007	761.25
3095.216	773.25
3098.423	791.25
3101.627	802.25
3104.828	823.25
3108.026	837.25
3111.222	853.25
3114.416	873.25
3117.607	886.25
3120.795	901.25
3123.98	930.25
3127.163	943.25
3130.344	962.25
3133.521	977.25
3136.696	1000.25
3139.869	1024.25
3143.039	1050.25
3146.206	1071.25
3149.371	1067.25
3152.533	1093.25
3155.693	1093.25
3158.85	1091.25
3162.005	1115.25
3165.157	1116.25
3168.306	1113.25
3171.453	1132.25
3174.597	1143.25
3177.739	1143.25
3180.878	1123.25
3184.014	1133.25
3187.149	1148.25
3190.28	1154.25
3193.409	1155.25
3196.536	1167.25
3199.659	1162.25
3202.781	1163.25
3205.9	1156.25
3209.016	1169.25
3212.13	1177.25
3215.241	1151.25
3218.35	1160.25
3221.456	1157.25
3224.56	1121.25
3227.661	1113.25
3230.76	1121.25
3233.856	1111.25
3236.95	1107.25
3240.041	1080.25
3243.13	1067.25
3246.216	1071.25
3249.3	1050.25
3252.382	1065.25
3255.46	1055.25
3258.537	1051.25
3261.611	1050.25
3264.682	1054.25
3267.751	1037.25
3270.818	1040.25
3273.882	1036.25
3276.943	1024.25
3280.002	1009.25
3283.059	1007.25
3286.113	1011.25
3289.165	984.25
3292.214	979.25
3295.261	970.25
3298.306	955.25
3301.348	936.25
3304.387	916.25
3307.425	909.25
3310.459	889.25
3313.492	895.25
3316.521	881.25
3319.549	885.25
3322.574	852.25
3325.597	849.25
3328.617	848.25
3331.635	845.25
3334.65	839.25
3337.663	839.25
3340.674	828.25
3343.682	823.25
3346.688	832.25
3349.691	824.25
3352.692	820.25
3355.691	813.25
3358.687	811.25
3361.681	810.25
3364.673	790.25
3367.662	783.25
3370.649	775.25
3373.633	769.25
3376.615	761.25
3379.595	745.25
3382.572	742.25
3385.547	735.25
3388.52	716.25
3391.49	708.25
3394.458	696.25
3397.424	694.25
3400.387	678.25
3403.348	682.25
3406.307	666.25
3409.263	672.25
3412.217	657.25
3415.168	654.25
3418.118	638.25
3421.065	633.25
3424.009	635.25
3426.951	616.25
3429.891	611.25
3432.829	602.25
3435.764	588.25
3438.697	591.25
3441.628	561.25
3444.557	557.25
3447.483	529.25
3450.407	521.25
3453.328	505.25
3456.247	495.25
3459.164	481.25
3462.079	474.25
3464.991	457.25
3467.902	453.25
3470.809	436.25
3473.715	430.25
3476.618	410.25
3479.519	405.25
3482.418	382.25
3485.315	392.25
3488.209	363.25
3491.101	357.25
3493.99	350.25
3496.878	348.25
3499.763	339.25
3502.646	318.25
3505.527	309.25
3508.405	298.25
3511.281	297.25
3514.155	282.25
3517.027	276.25
3519.897	257.25
3522.764	245.25
3525.629	239.25
3528.492	230.25
3531.352	213.25
3534.211	202.25
3537.067	190.25
3539.921	189.25
3542.773	175.25
3545.622	165.25
3548.469	163.25
3551.315	144.25
3554.157	141.25
3556.998	135.25
3559.837	133.25
3562.673	129.25
3565.507	119.25
3568.339	114.25
3571.169	110.25
3573.996	101.25
3576.822	98.25
3579.645	95.25
3582.466	84.25
3585.285	79.25
3588.101	77.25
3590.916	68.25
3593.728	63.25
3596.538	59.25
3599.346	59.25
3602.152	51.25
3604.956	49.25
3607.757	43.25
3610.556	39.25
3613.354	30.25
3616.149	31.25
3618.942	29.25
3621.732	32.25
3624.521	22.25
3627.307	21.25
3630.092	11.25
3632.874	13.25
3635.654	7.25
3638.432	11.25
3641.208	6.25
3643.982	7.25
3646.753	3.25
3649.523	0.25
3652.29	-0.75
3655.055	-6.75
3657.818	-6.75
3660.579	-7.75
3663.338	-15.75
3666.095	-16.75
3668.849	-16.75
3671.602	-19.75
3674.352	-23.75
3677.101	-23.75
3679.847	-28.75
3682.591	-33.75
3685.333	-34.75
3688.073	-33.75
3690.811	-35.75
3693.547	-35.75
3696.281	-35.75
3699.013	-35.75
3701.742	-38.75
3704.47	-38.75
3707.195	-42.75
3709.919	-40.75
3712.64	-44.75
3715.359	-40.75
3718.076	-45.75
3720.792	-49.75
3723.505	-47.75
3726.216	-42.75
3728.925	-45.75
3731.632	-46.75
3734.336	-49.75
3737.039	-49.75
3739.74	-50.75
3742.439	-50.75
3745.136	-49.75
3747.83	-49.75
3750.523	-52.75
3753.213	-51.75
3755.902	-57.75
3758.589	-53.75
3761.273	-59.75
3763.956	-56.75
3766.636	-59.75
3769.315	-59.75
3771.991	-61.75
3774.665	-59.75
3777.338	-58.75
3780.008	-59.75
3782.677	-66.75
3785.343	-59.75
3788.007	-61.75
3790.67	-61.75
3793.33	-66.75
3795.989	-63.75
3798.645	-64.75
3801.299	-61.75
3803.952	-65.75
3806.602	-63.75
3809.251	-67.75
3811.897	-60.75
3814.542	-63.75
3817.184	-63.75
3819.825	-55.75
3822.463	-60.75
3825.1	-61.75
3827.735	-59.75
3830.367	-61.75
3832.998	-62.75
3835.627	-63.75
3838.253	-60.75
3840.878	-67.75
3843.501	-60.75
3846.122	-64.75
3848.741	-66.75
3851.358	-67.75
3853.973	-66.75
3856.586	-65.75
3859.197	-69.75
3861.806	-70.75
3864.414	-72.75
3867.019	-68.75
3869.622	-68.75
3872.224	-69.75
3874.823	-69.75
3877.421	-72.75
3880.016	-62.75
3882.61	-59.75
3885.202	-68.75
3887.792	-63.75
3890.38	-67.75
3892.966	-66.75
3895.55	-66.75
3898.132	-70.75
3900.713	-68.75
3903.291	-72.75
3905.868	-68.75
3908.442	-66.75
3911.015	-66.75
3913.586	-67.75
3916.155	-68.75
3918.722	-70.75
3921.287	-69.75
3923.85	-71.75
3926.411	-69.75
3928.971	-70.75
3931.528	-71.75
3934.084	-72.75
3936.638	-73.75
3939.19	-72.75
3941.74	-71.75
3944.288	-69.75
3946.834	-70.75
3949.378	-74.75
3951.921	-70.75
3954.462	-75.75
3957	-67.75
3959.537	-70.75
3962.072	-70.75
3964.606	-70.75
3967.137	-70.75
3969.667	-70.75
3972.194	-68.75
3974.72	-69.75
3977.244	-67.75
3979.766	-66.75
3982.286	-67.75
3984.805	-71.75
3987.321	-70.75
3989.836	-70.75
3992.349	-72.75
3994.86	-72.75
3997.369	-73.75
3999.877	-69.75
4002.382	-66.75
4004.886	-68.75
4007.388	-72.75
4009.888	-71.75
4012.386	-69.75
4014.883	-70.75
4017.377	-71.75
4019.87	-69.75
4022.361	-70.75
4024.85	-69.75
4027.338	-69.75
4029.823	-69.75
4032.307	-74.75
4034.789	-69.75
4037.269	-70.75
4039.747	-68.75
4042.224	-71.75
4044.699	-66.75
4047.172	-70.75
4049.643	-65.75
4052.112	-65.75
4054.58	-69.75
4057.046	-69.75
4059.51	-68.75
4061.972	-67.75
4064.432	-72.75
4066.891	-69.75
4069.348	-70.75
4071.803	-72.75
4074.256	-71.75
4076.708	-70.75
4079.158	-72.75
4081.606	-70.75
4084.052	-69.75
4086.497	-71.75
4088.939	-73.75
4091.38	-72.75
4093.819	-74.75
4096.257	-75.75
4098.693	-75.75
4101.127	-73.75
4103.559	-73.75
4105.989	-32.75
4108.418	-24.75
4110.845	-23.75
4113.27	-23.75
4115.694	-20.75
4118.115	-7.75
4120.535	-73.75
4122.954	-73.75
4125.37	-74.75
4127.785	-74.75
4130.198	-70.75
4132.609	-72.75
4135.019	-77.75
4137.427	-77.75
4139.833	-71.75
4142.237	-76.75
