Data from 10CFU1_A_ramanshift_RamanShift_11-37-12-783.txt Node
Date: Sun Jan 01 11:37:12 IST 2017
User: aro
Spectrometer: QEPB0276
Trigger mode: 0
Integration Time (sec): 5.000000E0
Scans to average: 1
Electric dark correction enabled: true
Nonlinearity correction enabled: false
Boxcar width: 0
XAxis mode: Raman Shifts
Number of Pixels in Spectrum: 1044
>>>>>Begin Spectral Data<<<<<
160.701	5.5
166.742	16.5
172.777	63.5
178.805	199.5
184.826	619.5
190.841	1459.5
196.849	2684.5
202.85	3755.5
208.845	4309.5
214.833	4302.5
220.815	4139.5
226.789	4003.5
232.758	3909.5
238.719	3779.5
244.674	3655.5
250.623	3547.5
256.565	3385.5
262.5	3221.5
268.429	3091.5
274.351	2971.5
280.267	2867.5
286.176	2751.5
292.079	2686.5
297.975	2585.5
303.865	2495.5
309.748	2444.5
315.625	2384.5
321.495	2333.5
327.359	2314.5
333.217	2272.5
339.068	2241.5
344.912	2211.5
350.751	2224.5
356.583	2199.5
362.408	2211.5
368.227	2198.5
374.04	2200.5
379.847	2191.5
385.647	2207.5
391.44	2224.5
397.228	2242.5
403.009	2258.5
408.784	2235.5
414.553	2257.5
420.315	2286.5
426.071	2260.5
431.821	2249.5
437.565	2266.5
443.302	2265.5
449.033	2253.5
454.758	2253.5
460.477	2218.5
466.189	2237.5
471.896	2209.5
477.596	2211.5
483.29	2193.5
488.978	2186.5
494.66	2164.5
500.335	2148.5
506.005	2115.5
511.668	2105.5
517.325	2052.5
522.977	2032.5
528.622	2019.5
534.261	1988.5
539.894	1970.5
545.521	1953.5
551.141	1940.5
556.756	1916.5
562.365	1914.5
567.968	1914.5
573.565	1901.5
579.155	1876.5
584.74	1874.5
590.319	1859.5
595.892	1862.5
601.459	1845.5
607.02	1840.5
612.575	1803.5
618.124	1791.5
623.667	1787.5
629.204	1748.5
634.735	1765.5
640.261	1749.5
645.781	1716.5
651.294	1713.5
656.802	1723.5
662.304	1707.5
667.8	1689.5
673.29	1685.5
678.775	1688.5
684.254	1683.5
689.726	1656.5
695.193	1670.5
700.655	1647.5
706.11	1640.5
711.56	1633.5
717.004	1632.5
722.442	1611.5
727.874	1595.5
733.301	1596.5
738.722	1589.5
744.137	1579.5
749.547	1582.5
754.951	1569.5
760.349	1566.5
765.741	1575.5
771.128	1569.5
776.509	1572.5
781.885	1579.5
787.254	1560.5
792.618	1543.5
797.977	1536.5
803.33	1530.5
808.677	1521.5
814.019	1526.5
819.355	1491.5
824.686	1489.5
830.011	1461.5
835.33	1465.5
840.644	1445.5
845.952	1440.5
851.255	1446.5
856.552	1453.5
861.844	1427.5
867.13	1441.5
872.41	1424.5
877.686	1417.5
882.955	1409.5
888.219	1386.5
893.478	1377.5
898.731	1358.5
903.979	1326.5
909.221	1321.5
914.458	1308.5
919.69	1295.5
924.916	1291.5
930.136	1295.5
935.351	1304.5
940.561	1284.5
945.766	1302.5
950.965	1286.5
956.158	1277.5
961.347	1276.5
966.529	1256.5
971.707	1240.5
976.879	1223.5
982.046	1217.5
987.208	1189.5
992.364	1202.5
997.515	1201.5
1002.66	1205.5
1007.801	1224.5
1012.936	1239.5
1018.066	1223.5
1023.19	1250.5
1028.309	1253.5
1033.423	1251.5
1038.532	1242.5
1043.636	1243.5
1048.734	1236.5
1053.827	1213.5
1058.915	1195.5
1063.998	1198.5
1069.075	1197.5
1074.147	1188.5
1079.214	1210.5
1084.276	1198.5
1089.333	1204.5
1094.385	1220.5
1099.431	1224.5
1104.472	1223.5
1109.509	1216.5
1114.54	1208.5
1119.565	1207.5
1124.586	1203.5
1129.602	1175.5
1134.613	1162.5
1139.618	1157.5
1144.619	1167.5
1149.614	1155.5
1154.604	1166.5
1159.589	1185.5
1164.57	1177.5
1169.545	1175.5
1174.515	1189.5
1179.48	1187.5
1184.44	1175.5
1189.395	1170.5
1194.345	1154.5
1199.29	1163.5
1204.23	1154.5
1209.165	1157.5
1214.095	1178.5
1219.021	1201.5
1223.941	1172.5
1228.856	1208.5
1233.766	1205.5
1238.672	1185.5
1243.572	1213.5
1248.467	1192.5
1253.358	1192.5
1258.244	1165.5
1263.124	1161.5
1268	1137.5
1272.871	1138.5
1277.737	1138.5
1282.599	1120.5
1287.455	1109.5
1292.306	1131.5
1297.153	1130.5
1301.995	1134.5
1306.832	1129.5
1311.664	1167.5
1316.491	1149.5
1321.314	1147.5
1326.132	1141.5
1330.945	1122.5
1335.753	1113.5
1340.556	1113.5
1345.354	1092.5
1350.148	1091.5
1354.937	1073.5
1359.722	1072.5
1364.501	1068.5
1369.276	1045.5
1374.046	1044.5
1378.811	1041.5
1383.572	1042.5
1388.327	1033.5
1393.079	1035.5
1397.825	1032.5
1402.567	1021.5
1407.304	1021.5
1412.036	1004.5
1416.764	1014.5
1421.487	1025.5
1426.205	1019.5
1430.919	1025.5
1435.628	1032.5
1440.333	1045.5
1445.032	1046.5
1449.727	1066.5
1454.418	1054.5
1459.104	1059.5
1463.785	1063.5
1468.462	1056.5
1473.134	1047.5
1477.802	1044.5
1482.465	1030.5
1487.123	1033.5
1491.777	1033.5
1496.426	1024.5
1501.071	1025.5
1505.711	1040.5
1510.347	1064.5
1514.978	1065.5
1519.604	1062.5
1524.226	1058.5
1528.844	1072.5
1533.457	1071.5
1538.065	1075.5
1542.669	1056.5
1547.269	1058.5
1551.864	1076.5
1556.454	1061.5
1561.041	1087.5
1565.622	1090.5
1570.199	1099.5
1574.772	1122.5
1579.34	1136.5
1583.904	1154.5
1588.464	1178.5
1593.019	1175.5
1597.569	1200.5
1602.115	1224.5
1606.657	1218.5
1611.195	1224.5
1615.728	1244.5
1620.256	1254.5
1624.78	1269.5
1629.3	1284.5
1633.816	1306.5
1638.327	1324.5
1642.834	1333.5
1647.336	1346.5
1651.834	1358.5
1656.328	1343.5
1660.817	1364.5
1665.302	1335.5
1669.783	1317.5
1674.259	1287.5
1678.732	1250.5
1683.199	1223.5
1687.663	1190.5
1692.122	1143.5
1696.577	1108.5
1701.028	1063.5
1705.474	1027.5
1709.917	979.5
1714.355	953.5
1718.788	946.5
1723.218	947.5
1727.643	926.5
1732.064	911.5
1736.481	889.5
1740.893	866.5
1745.301	845.5
1749.705	823.5
1754.105	814.5
1758.501	799.5
1762.893	780.5
1767.28	772.5
1771.663	760.5
1776.042	750.5
1780.417	747.5
1784.787	748.5
1789.154	747.5
1793.516	743.5
1797.874	752.5
1802.228	741.5
1806.578	733.5
1810.924	719.5
1815.266	714.5
1819.603	703.5
1823.937	701.5
1828.266	698.5
1832.591	687.5
1836.913	680.5
1841.23	674.5
1845.543	686.5
1849.852	679.5
1854.156	687.5
1858.457	695.5
1862.754	683.5
1867.047	691.5
1871.335	697.5
1875.62	688.5
1879.9	697.5
1884.177	698.5
1888.449	711.5
1892.718	694.5
1896.982	711.5
1901.243	689.5
1905.499	688.5
1909.752	686.5
1914	686.5
1918.245	684.5
1922.485	684.5
1926.722	687.5
1930.954	696.5
1935.183	689.5
1939.408	686.5
1943.628	685.5
1947.845	695.5
1952.058	690.5
1956.267	692.5
1960.472	684.5
1964.673	683.5
1968.87	675.5
1973.063	672.5
1977.252	658.5
1981.438	649.5
1985.619	652.5
1989.797	653.5
1993.971	653.5
1998.14	647.5
2002.306	663.5
2006.469	657.5
2010.627	671.5
2014.781	678.5
2018.932	669.5
2023.078	666.5
2027.221	668.5
2031.36	663.5
2035.495	660.5
2039.627	663.5
2043.754	657.5
2047.878	647.5
2051.998	649.5
2056.114	648.5
2060.226	643.5
2064.334	659.5
2068.439	656.5
2072.54	653.5
2076.637	660.5
2080.73	669.5
2084.82	654.5
2088.906	666.5
2092.988	647.5
2097.066	660.5
2101.14	659.5
2105.211	652.5
2109.278	633.5
2113.342	645.5
2117.401	630.5
2121.457	629.5
2125.509	638.5
2129.558	634.5
2133.602	637.5
2137.643	632.5
2141.681	621.5
2145.714	625.5
2149.744	636.5
2153.77	617.5
2157.793	614.5
2161.812	614.5
2165.827	604.5
2169.838	597.5
2173.846	597.5
2177.851	577.5
2181.851	569.5
2185.848	571.5
2189.841	557.5
2193.831	555.5
2197.817	563.5
2201.799	550.5
2205.778	548.5
2209.753	551.5
2213.725	546.5
2217.693	540.5
2221.657	556.5
2225.618	539.5
2229.575	541.5
2233.529	548.5
2237.479	542.5
2241.425	538.5
2245.368	524.5
2249.307	523.5
2253.243	510.5
2257.175	511.5
2261.104	495.5
2265.029	498.5
2268.95	477.5
2272.868	477.5
2276.783	484.5
2280.694	467.5
2284.601	470.5
2288.505	465.5
2292.405	460.5
2296.302	457.5
2300.195	464.5
2304.085	449.5
2307.971	456.5
2311.854	438.5
2315.734	427.5
2319.609	422.5
2323.482	427.5
2327.351	416.5
2331.216	411.5
2335.078	404.5
2338.937	407.5
2342.792	404.5
2346.643	401.5
2350.492	399.5
2354.336	401.5
2358.178	402.5
2362.015	395.5
2365.85	402.5
2369.681	400.5
2373.508	408.5
2377.333	400.5
2381.153	395.5
2384.971	404.5
2388.785	402.5
2392.595	384.5
2396.402	398.5
2400.206	386.5
2404.007	392.5
2407.804	389.5
2411.597	391.5
2415.388	384.5
2419.174	388.5
2422.958	375.5
2426.738	373.5
2430.515	382.5
2434.289	381.5
2438.059	374.5
2441.825	374.5
2445.589	369.5
2449.349	372.5
2453.106	369.5
2456.859	367.5
2460.61	360.5
2464.356	355.5
2468.1	365.5
2471.84	356.5
2475.577	343.5
2479.311	345.5
2483.041	358.5
2486.768	349.5
2490.492	358.5
2494.213	351.5
2497.93	349.5
2501.644	354.5
2505.355	352.5
2509.062	350.5
2512.766	352.5
2516.467	352.5
2520.165	346.5
2523.859	338.5
2527.551	340.5
2531.239	341.5
2534.923	353.5
2538.605	336.5
2542.283	325.5
2545.958	331.5
2549.63	337.5
2553.299	335.5
2556.964	330.5
2560.626	321.5
2564.285	319.5
2567.941	323.5
2571.594	321.5
2575.243	317.5
2578.89	315.5
2582.533	314.5
2586.173	318.5
2589.809	307.5
2593.443	309.5
2597.073	303.5
2600.701	308.5
2604.325	304.5
2607.946	296.5
2611.564	297.5
2615.178	296.5
2618.79	301.5
2622.398	291.5
2626.004	298.5
2629.606	293.5
2633.205	297.5
2636.801	291.5
2640.394	301.5
2643.983	285.5
2647.57	276.5
2651.153	274.5
2654.734	276.5
2658.311	273.5
2661.885	279.5
2665.456	267.5
2669.025	265.5
2672.589	259.5
2676.151	264.5
2679.71	260.5
2683.266	261.5
2686.819	263.5
2690.368	254.5
2693.915	250.5
2697.458	251.5
2700.999	251.5
2704.536	248.5
2708.071	250.5
2711.602	251.5
2715.13	238.5
2718.656	247.5
2722.178	239.5
2725.697	244.5
2729.214	241.5
2732.727	238.5
2736.237	246.5
2739.744	251.5
2743.249	242.5
2746.75	252.5
2750.248	245.5
2753.743	237.5
2757.236	241.5
2760.725	242.5
2764.211	240.5
2767.695	245.5
2771.175	242.5
2774.652	228.5
2778.127	237.5
2781.598	238.5
2785.067	237.5
2788.532	233.5
2791.995	225.5
2795.455	237.5
2798.911	232.5
2802.365	236.5
2805.816	242.5
2809.264	227.5
2812.709	236.5
2816.151	235.5
2819.59	233.5
2823.026	237.5
2826.46	244.5
2829.89	237.5
2833.318	238.5
2836.742	241.5
2840.164	237.5
2843.583	241.5
2846.999	243.5
2850.412	246.5
2853.822	246.5
2857.229	239.5
2860.634	246.5
2864.035	257.5
2867.434	254.5
2870.83	256.5
2874.223	253.5
2877.613	260.5
2881	257.5
2884.385	258.5
2887.766	257.5
2891.145	257.5
2894.521	261.5
2897.894	262.5
2901.264	266.5
2904.631	261.5
2907.996	265.5
2911.358	279.5
2914.717	275.5
2918.073	278.5
2921.426	270.5
2924.777	281.5
2928.124	283.5
2931.469	290.5
2934.811	286.5
2938.15	306.5
2941.487	305.5
2944.821	306.5
2948.152	303.5
2951.48	306.5
2954.805	319.5
2958.128	330.5
2961.447	322.5
2964.765	313.5
2968.079	327.5
2971.39	339.5
2974.699	344.5
2978.005	346.5
2981.308	359.5
2984.609	360.5
2987.907	371.5
2991.202	371.5
2994.494	381.5
2997.784	390.5
3001.07	405.5
3004.355	413.5
3007.636	420.5
3010.915	433.5
3014.191	438.5
3017.464	440.5
3020.734	452.5
3024.002	453.5
3027.267	458.5
3030.53	479.5
3033.789	474.5
3037.046	486.5
3040.301	492.5
3043.552	497.5
3046.801	517.5
3050.048	525.5
3053.291	537.5
3056.532	550.5
3059.771	553.5
3063.006	576.5
3066.239	600.5
3069.469	616.5
3072.697	639.5
3075.922	641.5
3079.144	669.5
3082.364	674.5
3085.581	695.5
3088.795	704.5
3092.007	719.5
3095.216	735.5
3098.423	741.5
3101.627	771.5
3104.828	781.5
3108.026	780.5
3111.222	810.5
3114.416	826.5
3117.607	854.5
3120.795	872.5
3123.98	885.5
3127.163	898.5
3130.344	915.5
3133.521	940.5
3136.696	977.5
3139.869	984.5
3143.039	1008.5
3146.206	1008.5
3149.371	1027.5
3152.533	1048.5
3155.693	1054.5
3158.85	1054.5
3162.005	1065.5
3165.157	1059.5
3168.306	1095.5
3171.453	1084.5
3174.597	1098.5
3177.739	1092.5
3180.878	1103.5
3184.014	1089.5
3187.149	1104.5
3190.28	1104.5
3193.409	1107.5
3196.536	1115.5
3199.659	1110.5
3202.781	1127.5
3205.9	1124.5
3209.016	1115.5
3212.13	1106.5
3215.241	1100.5
3218.35	1127.5
3221.456	1096.5
3224.56	1083.5
3227.661	1078.5
3230.76	1088.5
3233.856	1071.5
3236.95	1054.5
3240.041	1030.5
3243.13	1051.5
3246.216	1036.5
3249.3	1029.5
3252.382	1016.5
3255.46	1013.5
3258.537	1012.5
3261.611	994.5
3264.682	998.5
3267.751	1003.5
3270.818	995.5
3273.882	994.5
3276.943	993.5
3280.002	981.5
3283.059	973.5
3286.113	965.5
3289.165	946.5
3292.214	938.5
3295.261	931.5
3298.306	920.5
3301.348	900.5
3304.387	880.5
3307.425	875.5
3310.459	872.5
3313.492	855.5
3316.521	843.5
3319.549	826.5
3322.574	826.5
3325.597	818.5
3328.617	814.5
3331.635	806.5
3334.65	803.5
3337.663	797.5
3340.674	798.5
3343.682	788.5
3346.688	791.5
3349.691	792.5
3352.692	784.5
3355.691	776.5
3358.687	773.5
3361.681	771.5
3364.673	768.5
3367.662	747.5
3370.649	746.5
3373.633	736.5
3376.615	718.5
3379.595	716.5
3382.572	706.5
3385.547	708.5
3388.52	699.5
3391.49	676.5
3394.458	683.5
3397.424	668.5
3400.387	662.5
3403.348	653.5
3406.307	637.5
3409.263	647.5
3412.217	635.5
3415.168	627.5
3418.118	618.5
3421.065	626.5
3424.009	606.5
3426.951	609.5
3429.891	598.5
3432.829	588.5
3435.764	575.5
3438.697	546.5
3441.628	553.5
3444.557	530.5
3447.483	523.5
3450.407	507.5
3453.328	501.5
3456.247	480.5
3459.164	475.5
3462.079	459.5
3464.991	452.5
3467.902	434.5
3470.809	411.5
3473.715	407.5
3476.618	400.5
3479.519	396.5
3482.418	381.5
3485.315	373.5
3488.209	358.5
3491.101	351.5
3493.99	338.5
3496.878	334.5
3499.763	317.5
3502.646	315.5
3505.527	300.5
3508.405	296.5
3511.281	280.5
3514.155	270.5
3517.027	274.5
3519.897	250.5
3522.764	241.5
3525.629	231.5
3528.492	218.5
3531.352	207.5
3534.211	199.5
3537.067	187.5
3539.921	182.5
3542.773	178.5
3545.622	167.5
3548.469	161.5
3551.315	152.5
3554.157	143.5
3556.998	141.5
3559.837	134.5
3562.673	125.5
3565.507	116.5
3568.339	115.5
3571.169	111.5
3573.996	104.5
3576.822	102.5
3579.645	96.5
3582.466	87.5
3585.285	82.5
3588.101	74.5
3590.916	75.5
3593.728	63.5
3596.538	55.5
3599.346	57.5
3602.152	52.5
3604.956	46.5
3607.757	43.5
3610.556	40.5
3613.354	34.5
3616.149	32.5
3618.942	28.5
3621.732	28.5
3624.521	20.5
3627.307	19.5
3630.092	13.5
3632.874	9.5
3635.654	7.5
3638.432	2.5
3641.208	1.5
3643.982	6.5
3646.753	1.5
3649.523	-0.5
3652.29	2.5
3655.055	-1.5
3657.818	-6.5
3660.579	-5.5
3663.338	-11.5
3666.095	-12.5
3668.849	-15.5
3671.602	-19.5
3674.352	-17.5
3677.101	-22.5
3679.847	-23.5
3682.591	-28.5
3685.333	-29.5
3688.073	-30.5
3690.811	-28.5
3693.547	-29.5
3696.281	-35.5
3699.013	-30.5
3701.742	-36.5
3704.47	-36.5
3707.195	-34.5
3709.919	-38.5
3712.64	-39.5
3715.359	-38.5
3718.076	-40.5
3720.792	-41.5
3723.505	-41.5
3726.216	-41.5
3728.925	-43.5
3731.632	-44.5
3734.336	-44.5
3737.039	-44.5
3739.74	-45.5
3742.439	-44.5
3745.136	-44.5
3747.83	-44.5
3750.523	-48.5
3753.213	-43.5
3755.902	-48.5
3758.589	-49.5
3761.273	-50.5
3763.956	-51.5
3766.636	-50.5
3769.315	-54.5
3771.991	-58.5
3774.665	-56.5
3777.338	-56.5
3780.008	-54.5
3782.677	-60.5
3785.343	-55.5
3788.007	-54.5
3790.67	-57.5
3793.33	-58.5
3795.989	-58.5
3798.645	-57.5
3801.299	-60.5
3803.952	-59.5
3806.602	-61.5
3809.251	-60.5
3811.897	-56.5
3814.542	-62.5
3817.184	-61.5
3819.825	-54.5
3822.463	-57.5
3825.1	-58.5
3827.735	-56.5
3830.367	-59.5
3832.998	-59.5
3835.627	-55.5
3838.253	-58.5
3840.878	-63.5
3843.501	-56.5
3846.122	-58.5
3848.741	-62.5
3851.358	-62.5
3853.973	-59.5
3856.586	-58.5
3859.197	-63.5
3861.806	-60.5
3864.414	-60.5
3867.019	-60.5
3869.622	-62.5
3872.224	-57.5
3874.823	-61.5
3877.421	-63.5
3880.016	-61.5
3882.61	-56.5
3885.202	-56.5
3887.792	-55.5
3890.38	-58.5
3892.966	-55.5
3895.55	-60.5
3898.132	-59.5
3900.713	-62.5
3903.291	-64.5
3905.868	-59.5
3908.442	-60.5
3911.015	-60.5
3913.586	-61.5
3916.155	-61.5
3918.722	-64.5
3921.287	-65.5
3923.85	-64.5
3926.411	-64.5
3928.971	-65.5
3931.528	-67.5
3934.084	-64.5
3936.638	-67.5
3939.19	-66.5
3941.74	-67.5
3944.288	-65.5
3946.834	-66.5
3949.378	-71.5
3951.921	-67.5
3954.462	-69.5
3957	-64.5
3959.537	-67.5
3962.072	-67.5
3964.606	-65.5
3967.137	-64.5
3969.667	-68.5
3972.194	-65.5
3974.72	-62.5
3977.244	-63.5
3979.766	-63.5
3982.286	-63.5
3984.805	-66.5
3987.321	-64.5
3989.836	-62.5
3992.349	-64.5
3994.86	-66.5
3997.369	-65.5
3999.877	-64.5
4002.382	-61.5
4004.886	-60.5
4007.388	-65.5
4009.888	-64.5
4012.386	-59.5
4014.883	-64.5
4017.377	-64.5
4019.87	-65.5
4022.361	-65.5
4024.85	-66.5
4027.338	-64.5
4029.823	-62.5
4032.307	-68.5
4034.789	-64.5
4037.269	-64.5
4039.747	-63.5
4042.224	-64.5
4044.699	-65.5
4047.172	-65.5
4049.643	-61.5
4052.112	-62.5
4054.58	-60.5
4057.046	-63.5
4059.51	-61.5
4061.972	-62.5
4064.432	-64.5
4066.891	-61.5
4069.348	-63.5
4071.803	-66.5
4074.256	-63.5
4076.708	-63.5
4079.158	-65.5
4081.606	-67.5
4084.052	-62.5
4086.497	-65.5
4088.939	-66.5
4091.38	-67.5
4093.819	-68.5
4096.257	-72.5
4098.693	-72.5
4101.127	-70.5
4103.559	-69.5
4105.989	-27.5
4108.418	-22.5
4110.845	-20.5
4113.27	-22.5
4115.694	-17.5
4118.115	-10.5
4120.535	-68.5
4122.954	-67.5
4125.37	-68.5
4127.785	-67.5
4130.198	-65.5
4132.609	-68.5
4135.019	-73.5
4137.427	-71.5
4139.833	-67.5
4142.237	-72.5
