Data from 10CFU3_A_ramanshift_RamanShift_11-39-17-768.txt Node
Date: Sun Jan 01 11:39:17 IST 2017
User: aro
Spectrometer: QEPB0276
Trigger mode: 0
Integration Time (sec): 5.000000E0
Scans to average: 1
Electric dark correction enabled: true
Nonlinearity correction enabled: false
Boxcar width: 0
XAxis mode: Raman Shifts
Number of Pixels in Spectrum: 1044
>>>>>Begin Spectral Data<<<<<
160.701	-1.25
166.742	13.75
172.777	61.75
178.805	216.75
184.826	654.75
190.841	1545.75
196.849	2832.75
202.85	4016.75
208.845	4572.75
214.833	4546.75
220.815	4337.75
226.789	4212.75
232.758	4135.75
238.719	3993.75
244.674	3856.75
250.623	3723.75
256.565	3555.75
262.5	3415.75
268.429	3233.75
274.351	3146.75
280.267	2998.75
286.176	2901.75
292.079	2802.75
297.975	2702.75
303.865	2643.75
309.748	2566.75
315.625	2513.75
321.495	2455.75
327.359	2407.75
333.217	2391.75
339.068	2340.75
344.912	2330.75
350.751	2338.75
356.583	2308.75
362.408	2314.75
368.227	2308.75
374.04	2300.75
379.847	2329.75
385.647	2337.75
391.44	2356.75
397.228	2330.75
403.009	2353.75
408.784	2375.75
414.553	2362.75
420.315	2392.75
426.071	2389.75
431.821	2385.75
437.565	2367.75
443.302	2380.75
449.033	2378.75
454.758	2368.75
460.477	2358.75
466.189	2343.75
471.896	2334.75
477.596	2331.75
483.29	2311.75
488.978	2296.75
494.66	2289.75
500.335	2261.75
506.005	2224.75
511.668	2193.75
517.325	2152.75
522.977	2133.75
528.622	2113.75
534.261	2089.75
539.894	2046.75
545.521	2054.75
551.141	2021.75
556.756	2011.75
562.365	1997.75
567.968	1979.75
573.565	1975.75
579.155	1974.75
584.74	1959.75
590.319	1942.75
595.892	1941.75
601.459	1922.75
607.02	1912.75
612.575	1885.75
618.124	1862.75
623.667	1859.75
629.204	1828.75
634.735	1846.75
640.261	1801.75
645.781	1788.75
651.294	1790.75
656.802	1802.75
662.304	1774.75
667.8	1767.75
673.29	1755.75
678.775	1747.75
684.254	1747.75
689.726	1720.75
695.193	1739.75
700.655	1712.75
706.11	1706.75
711.56	1688.75
717.004	1692.75
722.442	1661.75
727.874	1657.75
733.301	1661.75
738.722	1640.75
744.137	1642.75
749.547	1641.75
754.951	1630.75
760.349	1625.75
765.741	1614.75
771.128	1628.75
776.509	1627.75
781.885	1623.75
787.254	1612.75
792.618	1619.75
797.977	1604.75
803.33	1581.75
808.677	1572.75
814.019	1536.75
819.355	1548.75
824.686	1535.75
830.011	1519.75
835.33	1504.75
840.644	1506.75
845.952	1506.75
851.255	1490.75
856.552	1485.75
861.844	1485.75
867.13	1484.75
872.41	1468.75
877.686	1457.75
882.955	1436.75
888.219	1433.75
893.478	1404.75
898.731	1389.75
903.979	1362.75
909.221	1340.75
914.458	1343.75
919.69	1335.75
924.916	1342.75
930.136	1331.75
935.351	1332.75
940.561	1328.75
945.766	1321.75
950.965	1317.75
956.158	1297.75
961.347	1284.75
966.529	1283.75
971.707	1263.75
976.879	1253.75
982.046	1230.75
987.208	1221.75
992.364	1213.75
997.515	1228.75
1002.66	1234.75
1007.801	1239.75
1012.936	1248.75
1018.066	1254.75
1023.19	1255.75
1028.309	1269.75
1033.423	1252.75
1038.532	1276.75
1043.636	1274.75
1048.734	1244.75
1053.827	1240.75
1058.915	1216.75
1063.998	1222.75
1069.075	1207.75
1074.147	1208.75
1079.214	1223.75
1084.276	1225.75
1089.333	1227.75
1094.385	1247.75
1099.431	1250.75
1104.472	1250.75
1109.509	1255.75
1114.54	1243.75
1119.565	1228.75
1124.586	1196.75
1129.602	1196.75
1134.613	1191.75
1139.618	1187.75
1144.619	1177.75
1149.614	1175.75
1154.604	1186.75
1159.589	1197.75
1164.57	1198.75
1169.545	1197.75
1174.515	1198.75
1179.48	1199.75
1184.44	1185.75
1189.395	1197.75
1194.345	1169.75
1199.29	1177.75
1204.23	1171.75
1209.165	1173.75
1214.095	1171.75
1219.021	1192.75
1223.941	1210.75
1228.856	1217.75
1233.766	1229.75
1238.672	1218.75
1243.572	1215.75
1248.467	1204.75
1253.358	1194.75
1258.244	1200.75
1263.124	1172.75
1268	1158.75
1272.871	1149.75
1277.737	1136.75
1282.599	1143.75
1287.455	1136.75
1292.306	1139.75
1297.153	1134.75
1301.995	1143.75
1306.832	1156.75
1311.664	1173.75
1316.491	1175.75
1321.314	1163.75
1326.132	1163.75
1330.945	1137.75
1335.753	1128.75
1340.556	1117.75
1345.354	1112.75
1350.148	1084.75
1354.937	1087.75
1359.722	1090.75
1364.501	1084.75
1369.276	1068.75
1374.046	1061.75
1378.811	1070.75
1383.572	1049.75
1388.327	1049.75
1393.079	1040.75
1397.825	1045.75
1402.567	1025.75
1407.304	1023.75
1412.036	1044.75
1416.764	1032.75
1421.487	1019.75
1426.205	1034.75
1430.919	1034.75
1435.628	1031.75
1440.333	1052.75
1445.032	1048.75
1449.727	1078.75
1454.418	1069.75
1459.104	1082.75
1463.785	1059.75
1468.462	1064.75
1473.134	1040.75
1477.802	1027.75
1482.465	1036.75
1487.123	1023.75
1491.777	1049.75
1496.426	1022.75
1501.071	1054.75
1505.711	1044.75
1510.347	1052.75
1514.978	1082.75
1519.604	1073.75
1524.226	1091.75
1528.844	1090.75
1533.457	1086.75
1538.065	1087.75
1542.669	1092.75
1547.269	1080.75
1551.864	1094.75
1556.454	1090.75
1561.041	1096.75
1565.622	1096.75
1570.199	1117.75
1574.772	1129.75
1579.34	1147.75
1583.904	1184.75
1588.464	1200.75
1593.019	1206.75
1597.569	1211.75
1602.115	1249.75
1606.657	1244.75
1611.195	1259.75
1615.728	1260.75
1620.256	1276.75
1624.78	1297.75
1629.3	1307.75
1633.816	1328.75
1638.327	1357.75
1642.834	1362.75
1647.336	1385.75
1651.834	1394.75
1656.328	1394.75
1660.817	1390.75
1665.302	1376.75
1669.783	1334.75
1674.259	1307.75
1678.732	1270.75
1683.199	1246.75
1687.663	1195.75
1692.122	1153.75
1696.577	1135.75
1701.028	1090.75
1705.474	1042.75
1709.917	993.75
1714.355	978.75
1718.788	957.75
1723.218	943.75
1727.643	935.75
1732.064	913.75
1736.481	882.75
1740.893	873.75
1745.301	845.75
1749.705	824.75
1754.105	809.75
1758.501	787.75
1762.893	768.75
1767.28	759.75
1771.663	759.75
1776.042	756.75
1780.417	738.75
1784.787	741.75
1789.154	739.75
1793.516	742.75
1797.874	736.75
1802.228	741.75
1806.578	739.75
1810.924	728.75
1815.266	711.75
1819.603	710.75
1823.937	697.75
1828.266	692.75
1832.591	683.75
1836.913	687.75
1841.23	672.75
1845.543	677.75
1849.852	668.75
1854.156	679.75
1858.457	679.75
1862.754	679.75
1867.047	691.75
1871.335	686.75
1875.62	689.75
1879.9	694.75
1884.177	690.75
1888.449	692.75
1892.718	684.75
1896.982	681.75
1901.243	685.75
1905.499	689.75
1909.752	676.75
1914	666.75
1918.245	676.75
1922.485	670.75
1926.722	684.75
1930.954	687.75
1935.183	678.75
1939.408	688.75
1943.628	687.75
1947.845	684.75
1952.058	700.75
1956.267	683.75
1960.472	676.75
1964.673	675.75
1968.87	659.75
1973.063	665.75
1977.252	656.75
1981.438	649.75
1985.619	653.75
1989.797	645.75
1993.971	655.75
1998.14	659.75
2002.306	657.75
2006.469	656.75
2010.627	661.75
2014.781	661.75
2018.932	672.75
2023.078	658.75
2027.221	660.75
2031.36	653.75
2035.495	659.75
2039.627	642.75
2043.754	641.75
2047.878	641.75
2051.998	635.75
2056.114	640.75
2060.226	654.75
2064.334	646.75
2068.439	640.75
2072.54	642.75
2076.637	654.75
2080.73	659.75
2084.82	654.75
2088.906	660.75
2092.988	655.75
2097.066	653.75
2101.14	652.75
2105.211	648.75
2109.278	636.75
2113.342	639.75
2117.401	642.75
2121.457	636.75
2125.509	638.75
2129.558	621.75
2133.602	635.75
2137.643	633.75
2141.681	619.75
2145.714	626.75
2149.744	621.75
2153.77	618.75
2157.793	619.75
2161.812	608.75
2165.827	598.75
2169.838	589.75
2173.846	580.75
2177.851	585.75
2181.851	571.75
2185.848	560.75
2189.841	562.75
2193.831	548.75
2197.817	543.75
2201.799	546.75
2205.778	542.75
2209.753	549.75
2213.725	539.75
2217.693	537.75
2221.657	539.75
2225.618	532.75
2229.575	534.75
2233.529	533.75
2237.479	522.75
2241.425	526.75
2245.368	512.75
2249.307	505.75
2253.243	505.75
2257.175	505.75
2261.104	496.75
2265.029	485.75
2268.95	471.75
2272.868	479.75
2276.783	471.75
2280.694	461.75
2284.601	449.75
2288.505	455.75
2292.405	446.75
2296.302	453.75
2300.195	442.75
2304.085	441.75
2307.971	429.75
2311.854	415.75
2315.734	412.75
2319.609	409.75
2323.482	405.75
2327.351	404.75
2331.216	397.75
2335.078	391.75
2338.937	391.75
2342.792	396.75
2346.643	376.75
2350.492	386.75
2354.336	385.75
2358.178	384.75
2362.015	376.75
2365.85	387.75
2369.681	395.75
2373.508	392.75
2377.333	387.75
2381.153	392.75
2384.971	384.75
2388.785	383.75
2392.595	382.75
2396.402	386.75
2400.206	374.75
2404.007	373.75
2407.804	369.75
2411.597	369.75
2415.388	366.75
2419.174	371.75
2422.958	369.75
2426.738	369.75
2430.515	365.75
2434.289	363.75
2438.059	356.75
2441.825	361.75
2445.589	352.75
2449.349	354.75
2453.106	349.75
2456.859	347.75
2460.61	346.75
2464.356	348.75
2468.1	344.75
2471.84	335.75
2475.577	336.75
2479.311	341.75
2483.041	336.75
2486.768	337.75
2490.492	333.75
2494.213	337.75
2497.93	338.75
2501.644	338.75
2505.355	342.75
2509.062	341.75
2512.766	339.75
2516.467	328.75
2520.165	329.75
2523.859	335.75
2527.551	323.75
2531.239	320.75
2534.923	325.75
2538.605	326.75
2542.283	309.75
2545.958	315.75
2549.63	323.75
2553.299	323.75
2556.964	315.75
2560.626	312.75
2564.285	308.75
2567.941	313.75
2571.594	299.75
2575.243	310.75
2578.89	292.75
2582.533	299.75
2586.173	298.75
2589.809	292.75
2593.443	288.75
2597.073	298.75
2600.701	283.75
2604.325	286.75
2607.946	281.75
2611.564	288.75
2615.178	282.75
2618.79	284.75
2622.398	279.75
2626.004	281.75
2629.606	280.75
2633.205	273.75
2636.801	280.75
2640.394	272.75
2643.983	269.75
2647.57	273.75
2651.153	271.75
2654.734	263.75
2658.311	262.75
2661.885	253.75
2665.456	259.75
2669.025	255.75
2672.589	252.75
2676.151	256.75
2679.71	252.75
2683.266	254.75
2686.819	249.75
2690.368	241.75
2693.915	246.75
2697.458	241.75
2700.999	237.75
2704.536	248.75
2708.071	239.75
2711.602	240.75
2715.13	225.75
2718.656	234.75
2722.178	231.75
2725.697	232.75
2729.214	228.75
2732.727	237.75
2736.237	234.75
2739.744	239.75
2743.249	237.75
2746.75	233.75
2750.248	236.75
2753.743	232.75
2757.236	233.75
2760.725	234.75
2764.211	228.75
2767.695	232.75
2771.175	225.75
2774.652	223.75
2778.127	219.75
2781.598	213.75
2785.067	226.75
2788.532	217.75
2791.995	218.75
2795.455	221.75
2798.911	220.75
2802.365	228.75
2805.816	216.75
2809.264	225.75
2812.709	227.75
2816.151	225.75
2819.59	225.75
2823.026	231.75
2826.46	236.75
2829.89	233.75
2833.318	235.75
2836.742	232.75
2840.164	234.75
2843.583	237.75
2846.999	234.75
2850.412	242.75
2853.822	243.75
2857.229	248.75
2860.634	241.75
2864.035	250.75
2867.434	250.75
2870.83	256.75
2874.223	258.75
2877.613	259.75
2881	255.75
2884.385	257.75
2887.766	261.75
2891.145	262.75
2894.521	262.75
2897.894	263.75
2901.264	263.75
2904.631	259.75
2907.996	262.75
2911.358	266.75
2914.717	266.75
2918.073	277.75
2921.426	272.75
2924.777	281.75
2928.124	289.75
2931.469	292.75
2934.811	292.75
2938.15	299.75
2941.487	296.75
2944.821	306.75
2948.152	312.75
2951.48	316.75
2954.805	324.75
2958.128	313.75
2961.447	328.75
2964.765	320.75
2968.079	328.75
2971.39	343.75
2974.699	342.75
2978.005	361.75
2981.308	356.75
2984.609	370.75
2987.907	380.75
2991.202	383.75
2994.494	393.75
2997.784	409.75
3001.07	411.75
3004.355	421.75
3007.636	437.75
3010.915	442.75
3014.191	444.75
3017.464	467.75
3020.734	471.75
3024.002	473.75
3027.267	471.75
3030.53	484.75
3033.789	496.75
3037.046	498.75
3040.301	506.75
3043.552	516.75
3046.801	550.75
3050.048	552.75
3053.291	564.75
3056.532	577.75
3059.771	605.75
3063.006	614.75
3066.239	636.75
3069.469	652.75
3072.697	664.75
3075.922	672.75
3079.144	692.75
3082.364	719.75
3085.581	725.75
3088.795	740.75
3092.007	750.75
3095.216	780.75
3098.423	793.75
3101.627	820.75
3104.828	813.75
3108.026	842.75
3111.222	854.75
3114.416	869.75
3117.607	897.75
3120.795	921.75
3123.98	943.75
3127.163	958.75
3130.344	979.75
3133.521	1004.75
3136.696	1027.75
3139.869	1047.75
3143.039	1062.75
3146.206	1090.75
3149.371	1082.75
3152.533	1116.75
3155.693	1115.75
3158.85	1136.75
3162.005	1132.75
3165.157	1149.75
3168.306	1145.75
3171.453	1146.75
3174.597	1147.75
3177.739	1152.75
3180.878	1164.75
3184.014	1155.75
3187.149	1168.75
3190.28	1166.75
3193.409	1176.75
3196.536	1184.75
3199.659	1188.75
3202.781	1188.75
3205.9	1192.75
3209.016	1191.75
3212.13	1183.75
3215.241	1179.75
3218.35	1170.75
3221.456	1176.75
3224.56	1161.75
3227.661	1154.75
3230.76	1137.75
3233.856	1133.75
3236.95	1129.75
3240.041	1115.75
3243.13	1102.75
3246.216	1098.75
3249.3	1094.75
3252.382	1083.75
3255.46	1077.75
3258.537	1074.75
3261.611	1068.75
3264.682	1063.75
3267.751	1053.75
3270.818	1072.75
3273.882	1067.75
3276.943	1044.75
3280.002	1052.75
3283.059	1035.75
3286.113	1024.75
3289.165	1009.75
3292.214	1002.75
3295.261	991.75
3298.306	983.75
3301.348	968.75
3304.387	950.75
3307.425	931.75
3310.459	925.75
3313.492	913.75
3316.521	906.75
3319.549	894.75
3322.574	880.75
3325.597	866.75
3328.617	868.75
3331.635	864.75
3334.65	861.75
3337.663	849.75
3340.674	855.75
3343.682	854.75
3346.688	852.75
3349.691	840.75
3352.692	839.75
3355.691	833.75
3358.687	826.75
3361.681	820.75
3364.673	811.75
3367.662	803.75
3370.649	796.75
3373.633	787.75
3376.615	768.75
3379.595	756.75
3382.572	748.75
3385.547	745.75
3388.52	736.75
3391.49	731.75
3394.458	706.75
3397.424	704.75
3400.387	693.75
3403.348	692.75
3406.307	692.75
3409.263	680.75
3412.217	668.75
3415.168	663.75
3418.118	660.75
3421.065	652.75
3424.009	655.75
3426.951	633.75
3429.891	628.75
3432.829	613.75
3435.764	605.75
3438.697	599.75
3441.628	583.75
3444.557	578.75
3447.483	563.75
3450.407	547.75
3453.328	528.75
3456.247	515.75
3459.164	511.75
3462.079	485.75
3464.991	482.75
3467.902	467.75
3470.809	451.75
3473.715	435.75
3476.618	429.75
3479.519	418.75
3482.418	401.75
3485.315	395.75
3488.209	372.75
3491.101	369.75
3493.99	355.75
3496.878	343.75
3499.763	343.75
3502.646	324.75
3505.527	323.75
3508.405	309.75
3511.281	301.75
3514.155	294.75
3517.027	282.75
3519.897	259.75
3522.764	250.75
3525.629	244.75
3528.492	233.75
3531.352	214.75
3534.211	212.75
3537.067	200.75
3539.921	185.75
3542.773	189.75
3545.622	173.75
3548.469	170.75
3551.315	154.75
3554.157	149.75
3556.998	140.75
3559.837	137.75
3562.673	129.75
3565.507	122.75
3568.339	117.75
3571.169	115.75
3573.996	110.75
3576.822	104.75
3579.645	97.75
3582.466	94.75
3585.285	89.75
3588.101	77.75
3590.916	79.75
3593.728	69.75
3596.538	66.75
3599.346	57.75
3602.152	50.75
3604.956	48.75
3607.757	44.75
3610.556	40.75
3613.354	34.75
3616.149	34.75
3618.942	28.75
3621.732	25.75
3624.521	20.75
3627.307	17.75
3630.092	17.75
3632.874	13.75
3635.654	15.75
3638.432	9.75
3641.208	0.75
3643.982	3.75
3646.753	1.75
3649.523	-2.25
3652.29	-2.25
3655.055	-4.25
3657.818	-8.25
3660.579	-7.25
3663.338	-12.25
3666.095	-16.25
3668.849	-15.25
3671.602	-16.25
3674.352	-20.25
3677.101	-25.25
3679.847	-28.25
3682.591	-27.25
3685.333	-30.25
3688.073	-33.25
3690.811	-35.25
3693.547	-33.25
3696.281	-37.25
3699.013	-39.25
3701.742	-41.25
3704.47	-42.25
3707.195	-41.25
3709.919	-41.25
3712.64	-41.25
3715.359	-45.25
3718.076	-43.25
3720.792	-47.25
3723.505	-46.25
3726.216	-45.25
3728.925	-46.25
3731.632	-44.25
3734.336	-44.25
3737.039	-53.25
3739.74	-51.25
3742.439	-48.25
3745.136	-49.25
3747.83	-52.25
3750.523	-48.25
3753.213	-51.25
3755.902	-51.25
3758.589	-53.25
3761.273	-54.25
3763.956	-54.25
3766.636	-56.25
3769.315	-55.25
3771.991	-57.25
3774.665	-55.25
3777.338	-54.25
3780.008	-61.25
3782.677	-62.25
3785.343	-59.25
3788.007	-56.25
3790.67	-60.25
3793.33	-63.25
3795.989	-60.25
3798.645	-64.25
3801.299	-65.25
3803.952	-64.25
3806.602	-67.25
3809.251	-65.25
3811.897	-62.25
3814.542	-67.25
3817.184	-64.25
3819.825	-63.25
3822.463	-62.25
3825.1	-63.25
3827.735	-60.25
3830.367	-65.25
3832.998	-64.25
3835.627	-61.25
3838.253	-63.25
3840.878	-67.25
3843.501	-60.25
3846.122	-65.25
3848.741	-65.25
3851.358	-71.25
3853.973	-65.25
3856.586	-64.25
3859.197	-69.25
3861.806	-69.25
3864.414	-71.25
3867.019	-67.25
3869.622	-68.25
3872.224	-67.25
3874.823	-64.25
3877.421	-69.25
3880.016	-64.25
3882.61	-61.25
3885.202	-64.25
3887.792	-57.25
3890.38	-60.25
3892.966	-62.25
3895.55	-65.25
3898.132	-62.25
3900.713	-68.25
3903.291	-69.25
3905.868	-67.25
3908.442	-67.25
3911.015	-66.25
3913.586	-66.25
3916.155	-69.25
3918.722	-71.25
3921.287	-67.25
3923.85	-71.25
3926.411	-71.25
3928.971	-71.25
3931.528	-72.25
3934.084	-72.25
3936.638	-73.25
3939.19	-74.25
3941.74	-72.25
3944.288	-72.25
3946.834	-69.25
3949.378	-75.25
3951.921	-71.25
3954.462	-74.25
3957	-68.25
3959.537	-72.25
3962.072	-71.25
3964.606	-70.25
3967.137	-69.25
3969.667	-69.25
3972.194	-67.25
3974.72	-65.25
3977.244	-65.25
3979.766	-64.25
3982.286	-63.25
3984.805	-70.25
3987.321	-68.25
3989.836	-62.25
3992.349	-68.25
3994.86	-70.25
3997.369	-68.25
3999.877	-67.25
4002.382	-66.25
4004.886	-67.25
4007.388	-69.25
4009.888	-69.25
4012.386	-64.25
4014.883	-70.25
4017.377	-69.25
4019.87	-67.25
4022.361	-69.25
4024.85	-71.25
4027.338	-72.25
4029.823	-69.25
4032.307	-74.25
4034.789	-68.25
4037.269	-70.25
4039.747	-72.25
4042.224	-71.25
4044.699	-71.25
4047.172	-71.25
4049.643	-67.25
4052.112	-71.25
4054.58	-70.25
4057.046	-68.25
4059.51	-69.25
4061.972	-69.25
4064.432	-69.25
4066.891	-66.25
4069.348	-69.25
4071.803	-70.25
4074.256	-69.25
4076.708	-69.25
4079.158	-70.25
4081.606	-72.25
4084.052	-69.25
4086.497	-70.25
4088.939	-72.25
4091.38	-73.25
4093.819	-70.25
4096.257	-76.25
4098.693	-75.25
4101.127	-74.25
4103.559	-75.25
4105.989	-34.25
4108.418	-25.25
4110.845	-26.25
4113.27	-22.25
4115.694	-19.25
4118.115	-9.25
4120.535	-71.25
4122.954	-70.25
4125.37	-70.25
4127.785	-70.25
4130.198	-69.25
4132.609	-67.25
4135.019	-74.25
4137.427	-74.25
4139.833	-70.25
4142.237	-72.25
