Data from 1CFU3_A_ramanshift_RamanShift_11-36-02-785.txt Node
Date: Sun Jan 01 11:36:02 IST 2017
User: aro
Spectrometer: QEPB0276
Trigger mode: 0
Integration Time (sec): 5.000000E0
Scans to average: 1
Electric dark correction enabled: true
Nonlinearity correction enabled: false
Boxcar width: 0
XAxis mode: Raman Shifts
Number of Pixels in Spectrum: 1044
>>>>>Begin Spectral Data<<<<<
160.701	0.62
166.742	18.62
172.777	57.62
178.805	208.62
184.826	616.62
190.841	1491.62
196.849	2735.62
202.85	3865.62
208.845	4435.62
214.833	4414.62
220.815	4242.62
226.789	4088.62
232.758	3976.62
238.719	3877.62
244.674	3753.62
250.623	3622.62
256.565	3432.62
262.5	3280.62
268.429	3154.62
274.351	3022.62
280.267	2891.62
286.176	2806.62
292.079	2693.62
297.975	2634.62
303.865	2566.62
309.748	2476.62
315.625	2409.62
321.495	2377.62
327.359	2313.62
333.217	2289.62
339.068	2287.62
344.912	2249.62
350.751	2250.62
356.583	2245.62
362.408	2235.62
368.227	2213.62
374.04	2205.62
379.847	2232.62
385.647	2246.62
391.44	2254.62
397.228	2258.62
403.009	2276.62
408.784	2274.62
414.553	2282.62
420.315	2305.62
426.071	2289.62
431.821	2273.62
437.565	2278.62
443.302	2276.62
449.033	2289.62
454.758	2260.62
460.477	2270.62
466.189	2276.62
471.896	2237.62
477.596	2234.62
483.29	2206.62
488.978	2214.62
494.66	2192.62
500.335	2191.62
506.005	2150.62
511.668	2116.62
517.325	2071.62
522.977	2040.62
528.622	2022.62
534.261	1990.62
539.894	1972.62
545.521	1990.62
551.141	1941.62
556.756	1921.62
562.365	1919.62
567.968	1897.62
573.565	1896.62
579.155	1877.62
584.74	1867.62
590.319	1848.62
595.892	1846.62
601.459	1838.62
607.02	1830.62
612.575	1810.62
618.124	1781.62
623.667	1775.62
629.204	1736.62
634.735	1725.62
640.261	1720.62
645.781	1712.62
651.294	1718.62
656.802	1696.62
662.304	1685.62
667.8	1676.62
673.29	1665.62
678.775	1668.62
684.254	1660.62
689.726	1665.62
695.193	1626.62
700.655	1649.62
706.11	1628.62
711.56	1613.62
717.004	1617.62
722.442	1593.62
727.874	1560.62
733.301	1578.62
738.722	1561.62
744.137	1550.62
749.547	1548.62
754.951	1546.62
760.349	1535.62
765.741	1528.62
771.128	1541.62
776.509	1547.62
781.885	1550.62
787.254	1519.62
792.618	1526.62
797.977	1518.62
803.33	1502.62
808.677	1507.62
814.019	1479.62
819.355	1459.62
824.686	1451.62
830.011	1452.62
835.33	1412.62
840.644	1446.62
845.952	1411.62
851.255	1392.62
856.552	1406.62
861.844	1393.62
867.13	1392.62
872.41	1388.62
877.686	1373.62
882.955	1371.62
888.219	1335.62
893.478	1319.62
898.731	1304.62
903.979	1286.62
909.221	1271.62
914.458	1246.62
919.69	1250.62
924.916	1250.62
930.136	1247.62
935.351	1231.62
940.561	1242.62
945.766	1246.62
950.965	1249.62
956.158	1233.62
961.347	1219.62
966.529	1190.62
971.707	1180.62
976.879	1157.62
982.046	1147.62
987.208	1144.62
992.364	1143.62
997.515	1136.62
1002.66	1151.62
1007.801	1132.62
1012.936	1158.62
1018.066	1165.62
1023.19	1165.62
1028.309	1184.62
1033.423	1193.62
1038.532	1171.62
1043.636	1178.62
1048.734	1162.62
1053.827	1152.62
1058.915	1137.62
1063.998	1118.62
1069.075	1114.62
1074.147	1122.62
1079.214	1132.62
1084.276	1135.62
1089.333	1150.62
1094.385	1145.62
1099.431	1148.62
1104.472	1155.62
1109.509	1165.62
1114.54	1144.62
1119.565	1130.62
1124.586	1127.62
1129.602	1108.62
1134.613	1095.62
1139.618	1101.62
1144.619	1098.62
1149.614	1107.62
1154.604	1101.62
1159.589	1113.62
1164.57	1106.62
1169.545	1111.62
1174.515	1117.62
1179.48	1116.62
1184.44	1105.62
1189.395	1097.62
1194.345	1114.62
1199.29	1082.62
1204.23	1073.62
1209.165	1103.62
1214.095	1098.62
1219.021	1115.62
1223.941	1115.62
1228.856	1137.62
1233.766	1122.62
1238.672	1122.62
1243.572	1129.62
1248.467	1126.62
1253.358	1131.62
1258.244	1113.62
1263.124	1081.62
1268	1069.62
1272.871	1081.62
1277.737	1054.62
1282.599	1061.62
1287.455	1062.62
1292.306	1048.62
1297.153	1057.62
1301.995	1068.62
1306.832	1080.62
1311.664	1063.62
1316.491	1079.62
1321.314	1081.62
1326.132	1067.62
1330.945	1049.62
1335.753	1047.62
1340.556	1032.62
1345.354	1028.62
1350.148	1013.62
1354.937	1009.62
1359.722	995.62
1364.501	993.62
1369.276	989.62
1374.046	981.62
1378.811	970.62
1383.572	973.62
1388.327	972.62
1393.079	972.62
1397.825	961.62
1402.567	957.62
1407.304	951.62
1412.036	953.62
1416.764	953.62
1421.487	941.62
1426.205	948.62
1430.919	962.62
1435.628	960.62
1440.333	968.62
1445.032	966.62
1449.727	989.62
1454.418	995.62
1459.104	990.62
1463.785	991.62
1468.462	991.62
1473.134	978.62
1477.802	964.62
1482.465	950.62
1487.123	934.62
1491.777	956.62
1496.426	959.62
1501.071	957.62
1505.711	961.62
1510.347	986.62
1514.978	983.62
1519.604	1002.62
1524.226	998.62
1528.844	1007.62
1533.457	1004.62
1538.065	1011.62
1542.669	995.62
1547.269	999.62
1551.864	1005.62
1556.454	1006.62
1561.041	1016.62
1565.622	1016.62
1570.199	1029.62
1574.772	1061.62
1579.34	1062.62
1583.904	1085.62
1588.464	1115.62
1593.019	1120.62
1597.569	1156.62
1602.115	1147.62
1606.657	1170.62
1611.195	1178.62
1615.728	1188.62
1620.256	1188.62
1624.78	1214.62
1629.3	1231.62
1633.816	1247.62
1638.327	1271.62
1642.834	1277.62
1647.336	1286.62
1651.834	1289.62
1656.328	1286.62
1660.817	1294.62
1665.302	1260.62
1669.783	1256.62
1674.259	1224.62
1678.732	1182.62
1683.199	1149.62
1687.663	1115.62
1692.122	1080.62
1696.577	1039.62
1701.028	1000.62
1705.474	943.62
1709.917	912.62
1714.355	887.62
1718.788	877.62
1723.218	866.62
1727.643	843.62
1732.064	838.62
1736.481	825.62
1740.893	790.62
1745.301	772.62
1749.705	758.62
1754.105	739.62
1758.501	713.62
1762.893	710.62
1767.28	693.62
1771.663	689.62
1776.042	677.62
1780.417	674.62
1784.787	670.62
1789.154	674.62
1793.516	670.62
1797.874	679.62
1802.228	672.62
1806.578	661.62
1810.924	662.62
1815.266	645.62
1819.603	619.62
1823.937	634.62
1828.266	631.62
1832.591	617.62
1836.913	607.62
1841.23	601.62
1845.543	609.62
1849.852	606.62
1854.156	606.62
1858.457	628.62
1862.754	626.62
1867.047	617.62
1871.335	626.62
1875.62	632.62
1879.9	620.62
1884.177	615.62
1888.449	618.62
1892.718	614.62
1896.982	628.62
1901.243	625.62
1905.499	612.62
1909.752	617.62
1914	608.62
1918.245	607.62
1922.485	606.62
1926.722	606.62
1930.954	606.62
1935.183	620.62
1939.408	618.62
1943.628	613.62
1947.845	616.62
1952.058	608.62
1956.267	616.62
1960.472	607.62
1964.673	600.62
1968.87	596.62
1973.063	597.62
1977.252	586.62
1981.438	584.62
1985.619	597.62
1989.797	588.62
1993.971	587.62
1998.14	584.62
2002.306	597.62
2006.469	601.62
2010.627	603.62
2014.781	603.62
2018.932	605.62
2023.078	605.62
2027.221	604.62
2031.36	595.62
2035.495	603.62
2039.627	597.62
2043.754	586.62
2047.878	581.62
2051.998	583.62
2056.114	578.62
2060.226	584.62
2064.334	595.62
2068.439	578.62
2072.54	592.62
2076.637	586.62
2080.73	597.62
2084.82	595.62
2088.906	595.62
2092.988	589.62
2097.066	594.62
2101.14	585.62
2105.211	582.62
2109.278	577.62
2113.342	580.62
2117.401	569.62
2121.457	568.62
2125.509	573.62
2129.558	569.62
2133.602	559.62
2137.643	565.62
2141.681	557.62
2145.714	554.62
2149.744	563.62
2153.77	551.62
2157.793	561.62
2161.812	542.62
2165.827	543.62
2169.838	540.62
2173.846	519.62
2177.851	517.62
2181.851	511.62
2185.848	512.62
2189.841	507.62
2193.831	503.62
2197.817	499.62
2201.799	495.62
2205.778	485.62
2209.753	489.62
2213.725	481.62
2217.693	486.62
2221.657	492.62
2225.618	468.62
2229.575	481.62
2233.529	482.62
2237.479	477.62
2241.425	471.62
2245.368	466.62
2249.307	458.62
2253.243	453.62
2257.175	448.62
2261.104	442.62
2265.029	428.62
2268.95	432.62
2272.868	432.62
2276.783	422.62
2280.694	405.62
2284.601	405.62
2288.505	417.62
2292.405	415.62
2296.302	405.62
2300.195	403.62
2304.085	400.62
2307.971	381.62
2311.854	374.62
2315.734	373.62
2319.609	372.62
2323.482	365.62
2327.351	358.62
2331.216	355.62
2335.078	351.62
2338.937	355.62
2342.792	351.62
2346.643	352.62
2350.492	345.62
2354.336	341.62
2358.178	355.62
2362.015	342.62
2365.85	332.62
2369.681	348.62
2373.508	346.62
2377.333	340.62
2381.153	342.62
2384.971	337.62
2388.785	339.62
2392.595	338.62
2396.402	328.62
2400.206	335.62
2404.007	343.62
2407.804	347.62
2411.597	333.62
2415.388	338.62
2419.174	337.62
2422.958	326.62
2426.738	336.62
2430.515	328.62
2434.289	320.62
2438.059	317.62
2441.825	323.62
2445.589	315.62
2449.349	318.62
2453.106	319.62
2456.859	316.62
2460.61	313.62
2464.356	309.62
2468.1	304.62
2471.84	304.62
2475.577	302.62
2479.311	299.62
2483.041	306.62
2486.768	294.62
2490.492	297.62
2494.213	310.62
2497.93	314.62
2501.644	306.62
2505.355	304.62
2509.062	302.62
2512.766	305.62
2516.467	298.62
2520.165	300.62
2523.859	296.62
2527.551	289.62
2531.239	295.62
2534.923	292.62
2538.605	285.62
2542.283	283.62
2545.958	284.62
2549.63	281.62
2553.299	278.62
2556.964	285.62
2560.626	277.62
2564.285	276.62
2567.941	271.62
2571.594	275.62
2575.243	271.62
2578.89	268.62
2582.533	273.62
2586.173	270.62
2589.809	261.62
2593.443	265.62
2597.073	260.62
2600.701	257.62
2604.325	260.62
2607.946	253.62
2611.564	257.62
2615.178	262.62
2618.79	257.62
2622.398	256.62
2626.004	248.62
2629.606	244.62
2633.205	243.62
2636.801	246.62
2640.394	244.62
2643.983	243.62
2647.57	243.62
2651.153	238.62
2654.734	228.62
2658.311	240.62
2661.885	230.62
2665.456	234.62
2669.025	229.62
2672.589	230.62
2676.151	224.62
2679.71	224.62
2683.266	217.62
2686.819	215.62
2690.368	217.62
2693.915	213.62
2697.458	208.62
2700.999	216.62
2704.536	209.62
2708.071	208.62
2711.602	199.62
2715.13	199.62
2718.656	200.62
2722.178	197.62
2725.697	196.62
2729.214	198.62
2732.727	202.62
2736.237	204.62
2739.744	210.62
2743.249	210.62
2746.75	205.62
2750.248	208.62
2753.743	212.62
2757.236	203.62
2760.725	204.62
2764.211	210.62
2767.695	197.62
2771.175	203.62
2774.652	190.62
2778.127	196.62
2781.598	199.62
2785.067	194.62
2788.532	202.62
2791.995	192.62
2795.455	194.62
2798.911	202.62
2802.365	198.62
2805.816	198.62
2809.264	197.62
2812.709	203.62
2816.151	203.62
2819.59	205.62
2823.026	204.62
2826.46	205.62
2829.89	205.62
2833.318	206.62
2836.742	214.62
2840.164	208.62
2843.583	206.62
2846.999	218.62
2850.412	211.62
2853.822	215.62
2857.229	225.62
2860.634	224.62
2864.035	224.62
2867.434	225.62
2870.83	235.62
2874.223	225.62
2877.613	226.62
2881	229.62
2884.385	226.62
2887.766	235.62
2891.145	231.62
2894.521	241.62
2897.894	231.62
2901.264	237.62
2904.631	232.62
2907.996	234.62
2911.358	249.62
2914.717	247.62
2918.073	249.62
2921.426	244.62
2924.777	257.62
2928.124	251.62
2931.469	264.62
2934.811	267.62
2938.15	271.62
2941.487	281.62
2944.821	287.62
2948.152	287.62
2951.48	291.62
2954.805	283.62
2958.128	296.62
2961.447	299.62
2964.765	291.62
2968.079	304.62
2971.39	309.62
2974.699	320.62
2978.005	324.62
2981.308	338.62
2984.609	344.62
2987.907	353.62
2991.202	354.62
2994.494	362.62
2997.784	377.62
3001.07	381.62
3004.355	389.62
3007.636	405.62
3010.915	414.62
3014.191	420.62
3017.464	431.62
3020.734	440.62
3024.002	451.62
3027.267	451.62
3030.53	462.62
3033.789	478.62
3037.046	473.62
3040.301	490.62
3043.552	498.62
3046.801	516.62
3050.048	520.62
3053.291	537.62
3056.532	554.62
3059.771	567.62
3063.006	590.62
3066.239	599.62
3069.469	616.62
3072.697	636.62
3075.922	658.62
3079.144	673.62
3082.364	698.62
3085.581	696.62
3088.795	718.62
3092.007	723.62
3095.216	756.62
3098.423	752.62
3101.627	774.62
3104.828	798.62
3108.026	815.62
3111.222	814.62
3114.416	846.62
3117.607	858.62
3120.795	873.62
3123.98	898.62
3127.163	920.62
3130.344	937.62
3133.521	959.62
3136.696	994.62
3139.869	1018.62
3143.039	1037.62
3146.206	1041.62
3149.371	1036.62
3152.533	1079.62
3155.693	1077.62
3158.85	1084.62
3162.005	1105.62
3165.157	1089.62
3168.306	1108.62
3171.453	1091.62
3174.597	1097.62
3177.739	1094.62
3180.878	1110.62
3184.014	1119.62
3187.149	1114.62
3190.28	1123.62
3193.409	1124.62
3196.536	1141.62
3199.659	1144.62
3202.781	1137.62
3205.9	1150.62
3209.016	1154.62
3212.13	1142.62
3215.241	1138.62
3218.35	1135.62
3221.456	1138.62
3224.56	1114.62
3227.661	1116.62
3230.76	1097.62
3233.856	1093.62
3236.95	1074.62
3240.041	1076.62
3243.13	1057.62
3246.216	1052.62
3249.3	1048.62
3252.382	1038.62
3255.46	1050.62
3258.537	1023.62
3261.611	1019.62
3264.682	1031.62
3267.751	1027.62
3270.818	1034.62
3273.882	1023.62
3276.943	1007.62
3280.002	988.62
3283.059	1000.62
3286.113	988.62
3289.165	973.62
3292.214	966.62
3295.261	956.62
3298.306	944.62
3301.348	907.62
3304.387	894.62
3307.425	879.62
3310.459	879.62
3313.492	888.62
3316.521	856.62
3319.549	841.62
3322.574	837.62
3325.597	839.62
3328.617	845.62
3331.635	830.62
3334.65	816.62
3337.663	827.62
3340.674	816.62
3343.682	818.62
3346.688	815.62
3349.691	808.62
3352.692	811.62
3355.691	797.62
3358.687	790.62
3361.681	790.62
3364.673	780.62
3367.662	780.62
3370.649	766.62
3373.633	759.62
3376.615	745.62
3379.595	734.62
3382.572	732.62
3385.547	717.62
3388.52	708.62
3391.49	703.62
3394.458	690.62
3397.424	679.62
3400.387	675.62
3403.348	669.62
3406.307	667.62
3409.263	649.62
3412.217	648.62
3415.168	640.62
3418.118	630.62
3421.065	627.62
3424.009	624.62
3426.951	613.62
3429.891	603.62
3432.829	590.62
3435.764	585.62
3438.697	573.62
3441.628	558.62
3444.557	544.62
3447.483	527.62
3450.407	520.62
3453.328	510.62
3456.247	497.62
3459.164	491.62
3462.079	477.62
3464.991	452.62
3467.902	440.62
3470.809	424.62
3473.715	410.62
3476.618	406.62
3479.519	393.62
3482.418	380.62
3485.315	376.62
3488.209	354.62
3491.101	368.62
3493.99	339.62
3496.878	330.62
3499.763	332.62
3502.646	315.62
3505.527	305.62
3508.405	293.62
3511.281	287.62
3514.155	280.62
3517.027	261.62
3519.897	260.62
3522.764	249.62
3525.629	239.62
3528.492	224.62
3531.352	212.62
3534.211	204.62
3537.067	190.62
3539.921	177.62
3542.773	172.62
3545.622	172.62
3548.469	158.62
3551.315	150.62
3554.157	144.62
3556.998	141.62
3559.837	131.62
3562.673	119.62
3565.507	120.62
3568.339	114.62
3571.169	103.62
3573.996	97.62
3576.822	100.62
3579.645	94.62
3582.466	83.62
3585.285	85.62
3588.101	73.62
3590.916	66.62
3593.728	62.62
3596.538	61.62
3599.346	54.62
3602.152	50.62
3604.956	48.62
3607.757	37.62
3610.556	34.62
3613.354	38.62
3616.149	36.62
3618.942	26.62
3621.732	32.62
3624.521	17.62
3627.307	17.62
3630.092	19.62
3632.874	14.62
3635.654	7.62
3638.432	9.62
3641.208	1.62
3643.982	1.62
3646.753	5.62
3649.523	-4.38
3652.29	-4.38
3655.055	-3.38
3657.818	-9.38
3660.579	-14.38
3663.338	-12.38
3666.095	-19.38
3668.849	-17.38
3671.602	-15.38
3674.352	-21.38
3677.101	-24.38
3679.847	-25.38
3682.591	-31.38
3685.333	-30.38
3688.073	-31.38
3690.811	-30.38
3693.547	-32.38
3696.281	-41.38
3699.013	-40.38
3701.742	-40.38
3704.47	-43.38
3707.195	-36.38
3709.919	-48.38
3712.64	-47.38
3715.359	-45.38
3718.076	-42.38
3720.792	-43.38
3723.505	-43.38
3726.216	-47.38
3728.925	-49.38
3731.632	-48.38
3734.336	-48.38
3737.039	-48.38
3739.74	-47.38
3742.439	-49.38
3745.136	-47.38
3747.83	-52.38
3750.523	-50.38
3753.213	-48.38
3755.902	-53.38
3758.589	-52.38
3761.273	-53.38
3763.956	-54.38
3766.636	-54.38
3769.315	-56.38
3771.991	-56.38
3774.665	-55.38
3777.338	-57.38
3780.008	-56.38
3782.677	-57.38
3785.343	-55.38
3788.007	-51.38
3790.67	-57.38
3793.33	-60.38
3795.989	-58.38
3798.645	-60.38
3801.299	-61.38
3803.952	-61.38
3806.602	-62.38
3809.251	-59.38
3811.897	-58.38
3814.542	-63.38
3817.184	-61.38
3819.825	-57.38
3822.463	-58.38
3825.1	-58.38
3827.735	-58.38
3830.367	-59.38
3832.998	-62.38
3835.627	-60.38
3838.253	-60.38
3840.878	-67.38
3843.501	-60.38
3846.122	-61.38
3848.741	-64.38
3851.358	-67.38
3853.973	-62.38
3856.586	-63.38
3859.197	-67.38
3861.806	-67.38
3864.414	-65.38
3867.019	-67.38
3869.622	-67.38
3872.224	-69.38
3874.823	-63.38
3877.421	-67.38
3880.016	-66.38
3882.61	-62.38
3885.202	-65.38
3887.792	-58.38
3890.38	-60.38
3892.966	-62.38
3895.55	-65.38
3898.132	-66.38
3900.713	-68.38
3903.291	-71.38
3905.868	-68.38
3908.442	-66.38
3911.015	-67.38
3913.586	-66.38
3916.155	-67.38
3918.722	-69.38
3921.287	-66.38
3923.85	-69.38
3926.411	-66.38
3928.971	-71.38
3931.528	-69.38
3934.084	-70.38
3936.638	-71.38
3939.19	-70.38
3941.74	-70.38
3944.288	-67.38
3946.834	-68.38
3949.378	-75.38
3951.921	-70.38
3954.462	-72.38
3957	-67.38
3959.537	-68.38
3962.072	-68.38
3964.606	-64.38
3967.137	-65.38
3969.667	-68.38
3972.194	-67.38
3974.72	-62.38
3977.244	-66.38
3979.766	-62.38
3982.286	-64.38
3984.805	-66.38
3987.321	-65.38
3989.836	-64.38
3992.349	-65.38
3994.86	-67.38
3997.369	-67.38
3999.877	-66.38
4002.382	-63.38
4004.886	-65.38
4007.388	-69.38
4009.888	-65.38
4012.386	-62.38
4014.883	-69.38
4017.377	-67.38
4019.87	-67.38
4022.361	-66.38
4024.85	-67.38
4027.338	-68.38
4029.823	-64.38
4032.307	-69.38
4034.789	-64.38
4037.269	-71.38
4039.747	-67.38
4042.224	-66.38
4044.699	-69.38
4047.172	-67.38
4049.643	-67.38
4052.112	-64.38
4054.58	-68.38
4057.046	-66.38
4059.51	-67.38
4061.972	-67.38
4064.432	-67.38
4066.891	-66.38
4069.348	-69.38
4071.803	-71.38
4074.256	-71.38
4076.708	-69.38
4079.158	-69.38
4081.606	-69.38
4084.052	-69.38
4086.497	-68.38
4088.939	-71.38
4091.38	-71.38
4093.819	-68.38
4096.257	-72.38
4098.693	-72.38
4101.127	-71.38
4103.559	-73.38
4105.989	-27.38
4108.418	-28.38
4110.845	-24.38
4113.27	-23.38
4115.694	-18.38
4118.115	-7.38
4120.535	-71.38
4122.954	-70.38
4125.37	-71.38
4127.785	-71.38
4130.198	-68.38
4132.609	-64.38
4135.019	-74.38
4137.427	-71.38
4139.833	-68.38
4142.237	-71.38
