Data from 1CFU2_A_ramanshift_RamanShift_11-34-57-794.txt Node
Date: Sun Jan 01 11:34:57 IST 2017
User: aro
Spectrometer: QEPB0276
Trigger mode: 0
Integration Time (sec): 5.000000E0
Scans to average: 1
Electric dark correction enabled: true
Nonlinearity correction enabled: false
Boxcar width: 0
XAxis mode: Raman Shifts
Number of Pixels in Spectrum: 1044
>>>>>Begin Spectral Data<<<<<
160.701	0.75
166.742	16.75
172.777	58.75
178.805	206.75
184.826	607.75
190.841	1434.75
196.849	2642.75
202.85	3778.75
208.845	4310.75
214.833	4292.75
220.815	4134.75
226.789	4004.75
232.758	3899.75
238.719	3805.75
244.674	3664.75
250.623	3541.75
256.565	3347.75
262.5	3209.75
268.429	3074.75
274.351	2958.75
280.267	2853.75
286.176	2746.75
292.079	2646.75
297.975	2579.75
303.865	2499.75
309.748	2442.75
315.625	2372.75
321.495	2306.75
327.359	2261.75
333.217	2235.75
339.068	2222.75
344.912	2220.75
350.751	2215.75
356.583	2187.75
362.408	2186.75
368.227	2197.75
374.04	2174.75
379.847	2181.75
385.647	2198.75
391.44	2199.75
397.228	2223.75
403.009	2227.75
408.784	2245.75
414.553	2234.75
420.315	2253.75
426.071	2244.75
431.821	2238.75
437.565	2237.75
443.302	2228.75
449.033	2239.75
454.758	2240.75
460.477	2203.75
466.189	2214.75
471.896	2192.75
477.596	2179.75
483.29	2174.75
488.978	2158.75
494.66	2159.75
500.335	2138.75
506.005	2099.75
511.668	2071.75
517.325	2028.75
522.977	1999.75
528.622	1966.75
534.261	1957.75
539.894	1928.75
545.521	1908.75
551.141	1905.75
556.756	1899.75
562.365	1892.75
567.968	1866.75
573.565	1867.75
579.155	1841.75
584.74	1829.75
590.319	1847.75
595.892	1808.75
601.459	1791.75
607.02	1800.75
612.575	1791.75
618.124	1747.75
623.667	1748.75
629.204	1722.75
634.735	1722.75
640.261	1699.75
645.781	1697.75
651.294	1681.75
656.802	1667.75
662.304	1664.75
667.8	1663.75
673.29	1663.75
678.775	1663.75
684.254	1639.75
689.726	1649.75
695.193	1626.75
700.655	1606.75
706.11	1588.75
711.56	1585.75
717.004	1575.75
722.442	1563.75
727.874	1563.75
733.301	1545.75
738.722	1557.75
744.137	1523.75
749.547	1530.75
754.951	1545.75
760.349	1534.75
765.741	1532.75
771.128	1535.75
776.509	1528.75
781.885	1525.75
787.254	1518.75
792.618	1514.75
797.977	1513.75
803.33	1490.75
808.677	1480.75
814.019	1463.75
819.355	1456.75
824.686	1436.75
830.011	1431.75
835.33	1420.75
840.644	1406.75
845.952	1392.75
851.255	1424.75
856.552	1394.75
861.844	1388.75
867.13	1368.75
872.41	1372.75
877.686	1365.75
882.955	1354.75
888.219	1320.75
893.478	1309.75
898.731	1307.75
903.979	1281.75
909.221	1244.75
914.458	1251.75
919.69	1246.75
924.916	1248.75
930.136	1243.75
935.351	1242.75
940.561	1247.75
945.766	1239.75
950.965	1235.75
956.158	1223.75
961.347	1216.75
966.529	1210.75
971.707	1174.75
976.879	1168.75
982.046	1146.75
987.208	1143.75
992.364	1137.75
997.515	1139.75
1002.66	1136.75
1007.801	1161.75
1012.936	1167.75
1018.066	1178.75
1023.19	1178.75
1028.309	1194.75
1033.423	1192.75
1038.532	1180.75
1043.636	1169.75
1048.734	1150.75
1053.827	1153.75
1058.915	1139.75
1063.998	1134.75
1069.075	1138.75
1074.147	1124.75
1079.214	1136.75
1084.276	1132.75
1089.333	1157.75
1094.385	1158.75
1099.431	1163.75
1104.472	1162.75
1109.509	1155.75
1114.54	1155.75
1119.565	1140.75
1124.586	1127.75
1129.602	1119.75
1134.613	1110.75
1139.618	1097.75
1144.619	1107.75
1149.614	1097.75
1154.604	1109.75
1159.589	1114.75
1164.57	1121.75
1169.545	1134.75
1174.515	1128.75
1179.48	1118.75
1184.44	1110.75
1189.395	1106.75
1194.345	1117.75
1199.29	1103.75
1204.23	1085.75
1209.165	1101.75
1214.095	1104.75
1219.021	1120.75
1223.941	1114.75
1228.856	1135.75
1233.766	1144.75
1238.672	1133.75
1243.572	1125.75
1248.467	1131.75
1253.358	1125.75
1258.244	1126.75
1263.124	1096.75
1268	1072.75
1272.871	1059.75
1277.737	1063.75
1282.599	1060.75
1287.455	1069.75
1292.306	1061.75
1297.153	1060.75
1301.995	1064.75
1306.832	1076.75
1311.664	1074.75
1316.491	1084.75
1321.314	1079.75
1326.132	1089.75
1330.945	1059.75
1335.753	1042.75
1340.556	1044.75
1345.354	1041.75
1350.148	1021.75
1354.937	1009.75
1359.722	1005.75
1364.501	997.75
1369.276	1001.75
1374.046	983.75
1378.811	994.75
1383.572	1000.75
1388.327	985.75
1393.079	991.75
1397.825	973.75
1402.567	968.75
1407.304	959.75
1412.036	952.75
1416.764	956.75
1421.487	953.75
1426.205	948.75
1430.919	958.75
1435.628	965.75
1440.333	977.75
1445.032	981.75
1449.727	999.75
1454.418	990.75
1459.104	1005.75
1463.785	987.75
1468.462	988.75
1473.134	974.75
1477.802	954.75
1482.465	964.75
1487.123	960.75
1491.777	960.75
1496.426	966.75
1501.071	970.75
1505.711	981.75
1510.347	989.75
1514.978	995.75
1519.604	1003.75
1524.226	1010.75
1528.844	1017.75
1533.457	1014.75
1538.065	1025.75
1542.669	1008.75
1547.269	1018.75
1551.864	1005.75
1556.454	1019.75
1561.041	1031.75
1565.622	1028.75
1570.199	1044.75
1574.772	1059.75
1579.34	1071.75
1583.904	1094.75
1588.464	1118.75
1593.019	1125.75
1597.569	1137.75
1602.115	1154.75
1606.657	1176.75
1611.195	1177.75
1615.728	1183.75
1620.256	1188.75
1624.78	1203.75
1629.3	1224.75
1633.816	1249.75
1638.327	1278.75
1642.834	1276.75
1647.336	1284.75
1651.834	1299.75
1656.328	1291.75
1660.817	1278.75
1665.302	1279.75
1669.783	1279.75
1674.259	1233.75
1678.732	1183.75
1683.199	1172.75
1687.663	1120.75
1692.122	1089.75
1696.577	1037.75
1701.028	993.75
1705.474	970.75
1709.917	926.75
1714.355	923.75
1718.788	908.75
1723.218	885.75
1727.643	878.75
1732.064	858.75
1736.481	829.75
1740.893	811.75
1745.301	794.75
1749.705	776.75
1754.105	745.75
1758.501	731.75
1762.893	722.75
1767.28	716.75
1771.663	696.75
1776.042	681.75
1780.417	695.75
1784.787	685.75
1789.154	700.75
1793.516	687.75
1797.874	692.75
1802.228	683.75
1806.578	685.75
1810.924	681.75
1815.266	669.75
1819.603	658.75
1823.937	653.75
1828.266	645.75
1832.591	630.75
1836.913	646.75
1841.23	625.75
1845.543	639.75
1849.852	627.75
1854.156	621.75
1858.457	645.75
1862.754	635.75
1867.047	636.75
1871.335	637.75
1875.62	643.75
1879.9	644.75
1884.177	646.75
1888.449	647.75
1892.718	638.75
1896.982	641.75
1901.243	634.75
1905.499	627.75
1909.752	642.75
1914	628.75
1918.245	630.75
1922.485	634.75
1926.722	631.75
1930.954	639.75
1935.183	640.75
1939.408	629.75
1943.628	641.75
1947.845	636.75
1952.058	640.75
1956.267	637.75
1960.472	638.75
1964.673	641.75
1968.87	626.75
1973.063	626.75
1977.252	619.75
1981.438	617.75
1985.619	609.75
1989.797	605.75
1993.971	616.75
1998.14	615.75
2002.306	611.75
2006.469	625.75
2010.627	621.75
2014.781	631.75
2018.932	626.75
2023.078	623.75
2027.221	611.75
2031.36	619.75
2035.495	609.75
2039.627	596.75
2043.754	620.75
2047.878	604.75
2051.998	599.75
2056.114	610.75
2060.226	607.75
2064.334	598.75
2068.439	602.75
2072.54	608.75
2076.637	617.75
2080.73	610.75
2084.82	607.75
2088.906	607.75
2092.988	615.75
2097.066	612.75
2101.14	604.75
2105.211	599.75
2109.278	603.75
2113.342	592.75
2117.401	591.75
2121.457	593.75
2125.509	593.75
2129.558	596.75
2133.602	584.75
2137.643	583.75
2141.681	579.75
2145.714	593.75
2149.744	576.75
2153.77	587.75
2157.793	576.75
2161.812	580.75
2165.827	555.75
2169.838	559.75
2173.846	551.75
2177.851	547.75
2181.851	540.75
2185.848	533.75
2189.841	530.75
2193.831	514.75
2197.817	521.75
2201.799	519.75
2205.778	509.75
2209.753	512.75
2213.725	502.75
2217.693	503.75
2221.657	498.75
2225.618	510.75
2229.575	508.75
2233.529	498.75
2237.479	497.75
2241.425	483.75
2245.368	488.75
2249.307	477.75
2253.243	467.75
2257.175	460.75
2261.104	469.75
2265.029	455.75
2268.95	444.75
2272.868	444.75
2276.783	441.75
2280.694	449.75
2284.601	424.75
2288.505	430.75
2292.405	423.75
2296.302	412.75
2300.195	419.75
2304.085	413.75
2307.971	406.75
2311.854	402.75
2315.734	394.75
2319.609	387.75
2323.482	383.75
2327.351	377.75
2331.216	375.75
2335.078	372.75
2338.937	376.75
2342.792	358.75
2346.643	360.75
2350.492	367.75
2354.336	356.75
2358.178	359.75
2362.015	356.75
2365.85	351.75
2369.681	359.75
2373.508	367.75
2377.333	354.75
2381.153	360.75
2384.971	366.75
2388.785	361.75
2392.595	346.75
2396.402	345.75
2400.206	350.75
2404.007	352.75
2407.804	359.75
2411.597	353.75
2415.388	356.75
2419.174	354.75
2422.958	349.75
2426.738	344.75
2430.515	339.75
2434.289	344.75
2438.059	343.75
2441.825	347.75
2445.589	330.75
2449.349	332.75
2453.106	334.75
2456.859	333.75
2460.61	326.75
2464.356	323.75
2468.1	314.75
2471.84	323.75
2475.577	322.75
2479.311	320.75
2483.041	310.75
2486.768	309.75
2490.492	321.75
2494.213	314.75
2497.93	320.75
2501.644	312.75
2505.355	316.75
2509.062	320.75
2512.766	321.75
2516.467	308.75
2520.165	313.75
2523.859	309.75
2527.551	308.75
2531.239	312.75
2534.923	307.75
2538.605	299.75
2542.283	292.75
2545.958	297.75
2549.63	292.75
2553.299	292.75
2556.964	295.75
2560.626	288.75
2564.285	291.75
2567.941	285.75
2571.594	280.75
2575.243	282.75
2578.89	275.75
2582.533	273.75
2586.173	275.75
2589.809	272.75
2593.443	272.75
2597.073	271.75
2600.701	268.75
2604.325	267.75
2607.946	267.75
2611.564	262.75
2615.178	267.75
2618.79	259.75
2622.398	265.75
2626.004	261.75
2629.606	265.75
2633.205	261.75
2636.801	259.75
2640.394	257.75
2643.983	256.75
2647.57	251.75
2651.153	247.75
2654.734	244.75
2658.311	244.75
2661.885	246.75
2665.456	243.75
2669.025	237.75
2672.589	236.75
2676.151	240.75
2679.71	237.75
2683.266	228.75
2686.819	235.75
2690.368	230.75
2693.915	230.75
2697.458	225.75
2700.999	215.75
2704.536	219.75
2708.071	218.75
2711.602	213.75
2715.13	212.75
2718.656	215.75
2722.178	213.75
2725.697	219.75
2729.214	223.75
2732.727	223.75
2736.237	211.75
2739.744	224.75
2743.249	217.75
2746.75	220.75
2750.248	220.75
2753.743	223.75
2757.236	221.75
2760.725	213.75
2764.211	221.75
2767.695	214.75
2771.175	218.75
2774.652	215.75
2778.127	205.75
2781.598	210.75
2785.067	209.75
2788.532	217.75
2791.995	206.75
2795.455	208.75
2798.911	212.75
2802.365	213.75
2805.816	209.75
2809.264	211.75
2812.709	205.75
2816.151	218.75
2819.59	212.75
2823.026	219.75
2826.46	220.75
2829.89	212.75
2833.318	210.75
2836.742	216.75
2840.164	216.75
2843.583	212.75
2846.999	228.75
2850.412	226.75
2853.822	226.75
2857.229	221.75
2860.634	226.75
2864.035	235.75
2867.434	239.75
2870.83	234.75
2874.223	230.75
2877.613	242.75
2881	232.75
2884.385	238.75
2887.766	243.75
2891.145	245.75
2894.521	237.75
2897.894	247.75
2901.264	242.75
2904.631	239.75
2907.996	231.75
2911.358	247.75
2914.717	249.75
2918.073	255.75
2921.426	254.75
2924.777	265.75
2928.124	265.75
2931.469	270.75
2934.811	276.75
2938.15	280.75
2941.487	285.75
2944.821	295.75
2948.152	286.75
2951.48	292.75
2954.805	304.75
2958.128	306.75
2961.447	311.75
2964.765	308.75
2968.079	321.75
2971.39	321.75
2974.699	326.75
2978.005	330.75
2981.308	331.75
2984.609	343.75
2987.907	344.75
2991.202	359.75
2994.494	369.75
2997.784	378.75
3001.07	387.75
3004.355	399.75
3007.636	425.75
3010.915	429.75
3014.191	425.75
3017.464	432.75
3020.734	443.75
3024.002	447.75
3027.267	460.75
3030.53	467.75
3033.789	466.75
3037.046	468.75
3040.301	491.75
3043.552	498.75
3046.801	516.75
3050.048	520.75
3053.291	532.75
3056.532	551.75
3059.771	566.75
3063.006	584.75
3066.239	587.75
3069.469	616.75
3072.697	629.75
3075.922	638.75
3079.144	653.75
3082.364	679.75
3085.581	685.75
3088.795	708.75
3092.007	726.75
3095.216	739.75
3098.423	752.75
3101.627	762.75
3104.828	793.75
3108.026	804.75
3111.222	807.75
3114.416	830.75
3117.607	851.75
3120.795	872.75
3123.98	884.75
3127.163	918.75
3130.344	933.75
3133.521	945.75
3136.696	969.75
3139.869	993.75
3143.039	1007.75
3146.206	1013.75
3149.371	1043.75
3152.533	1045.75
3155.693	1058.75
3158.85	1061.75
3162.005	1080.75
3165.157	1073.75
3168.306	1098.75
3171.453	1091.75
3174.597	1111.75
3177.739	1097.75
3180.878	1111.75
3184.014	1094.75
3187.149	1110.75
3190.28	1116.75
3193.409	1114.75
3196.536	1125.75
3199.659	1119.75
3202.781	1141.75
3205.9	1129.75
3209.016	1138.75
3212.13	1125.75
3215.241	1142.75
3218.35	1121.75
3221.456	1117.75
3224.56	1099.75
3227.661	1101.75
3230.76	1077.75
3233.856	1077.75
3236.95	1068.75
3240.041	1057.75
3243.13	1048.75
3246.216	1032.75
3249.3	1042.75
3252.382	1017.75
3255.46	1027.75
3258.537	1026.75
3261.611	1022.75
3264.682	1019.75
3267.751	1018.75
3270.818	1012.75
3273.882	1016.75
3276.943	1004.75
3280.002	1010.75
3283.059	1000.75
3286.113	985.75
3289.165	983.75
3292.214	957.75
3295.261	956.75
3298.306	930.75
3301.348	921.75
3304.387	899.75
3307.425	880.75
3310.459	875.75
3313.492	866.75
3316.521	867.75
3319.549	842.75
3322.574	850.75
3325.597	833.75
3328.617	824.75
3331.635	815.75
3334.65	827.75
3337.663	808.75
3340.674	813.75
3343.682	802.75
3346.688	814.75
3349.691	788.75
3352.692	809.75
3355.691	798.75
3358.687	790.75
3361.681	785.75
3364.673	783.75
3367.662	764.75
3370.649	750.75
3373.633	745.75
3376.615	730.75
3379.595	722.75
3382.572	717.75
3385.547	709.75
3388.52	705.75
3391.49	688.75
3394.458	688.75
3397.424	666.75
3400.387	673.75
3403.348	664.75
3406.307	645.75
3409.263	652.75
3412.217	647.75
3415.168	629.75
3418.118	624.75
3421.065	624.75
3424.009	605.75
3426.951	605.75
3429.891	594.75
3432.829	592.75
3435.764	576.75
3438.697	568.75
3441.628	547.75
3444.557	549.75
3447.483	523.75
3450.407	514.75
3453.328	501.75
3456.247	495.75
3459.164	479.75
3462.079	465.75
3464.991	455.75
3467.902	449.75
3470.809	421.75
3473.715	423.75
3476.618	405.75
3479.519	403.75
3482.418	384.75
3485.315	377.75
3488.209	362.75
3491.101	352.75
3493.99	342.75
3496.878	327.75
3499.763	323.75
3502.646	323.75
3505.527	307.75
3508.405	294.75
3511.281	285.75
3514.155	282.75
3517.027	257.75
3519.897	255.75
3522.764	243.75
3525.629	239.75
3528.492	224.75
3531.352	205.75
3534.211	202.75
3537.067	195.75
3539.921	184.75
3542.773	176.75
3545.622	165.75
3548.469	163.75
3551.315	145.75
3554.157	145.75
3556.998	135.75
3559.837	133.75
3562.673	121.75
3565.507	117.75
3568.339	112.75
3571.169	103.75
3573.996	100.75
3576.822	98.75
3579.645	95.75
3582.466	85.75
3585.285	87.75
3588.101	68.75
3590.916	69.75
3593.728	58.75
3596.538	53.75
3599.346	52.75
3602.152	49.75
3604.956	40.75
3607.757	37.75
3610.556	36.75
3613.354	29.75
3616.149	27.75
3618.942	19.75
3621.732	27.75
3624.521	12.75
3627.307	13.75
3630.092	14.75
3632.874	5.75
3635.654	4.75
3638.432	5.75
3641.208	-0.25
3643.982	3.75
3646.753	1.75
3649.523	-3.25
3652.29	-7.25
3655.055	-6.25
3657.818	-16.25
3660.579	-10.25
3663.338	-16.25
3666.095	-13.25
3668.849	-19.25
3671.602	-19.25
3674.352	-22.25
3677.101	-26.25
3679.847	-33.25
3682.591	-31.25
3685.333	-26.25
3688.073	-31.25
3690.811	-33.25
3693.547	-33.25
3696.281	-37.25
3699.013	-35.25
3701.742	-36.25
3704.47	-41.25
3707.195	-40.25
3709.919	-40.25
3712.64	-44.25
3715.359	-44.25
3718.076	-41.25
3720.792	-47.25
3723.505	-48.25
3726.216	-44.25
3728.925	-51.25
3731.632	-48.25
3734.336	-49.25
3737.039	-47.25
3739.74	-47.25
3742.439	-50.25
3745.136	-46.25
3747.83	-48.25
3750.523	-51.25
3753.213	-50.25
3755.902	-53.25
3758.589	-53.25
3761.273	-56.25
3763.956	-55.25
3766.636	-58.25
3769.315	-57.25
3771.991	-60.25
3774.665	-58.25
3777.338	-57.25
3780.008	-59.25
3782.677	-64.25
3785.343	-57.25
3788.007	-59.25
3790.67	-60.25
3793.33	-61.25
3795.989	-61.25
3798.645	-64.25
3801.299	-65.25
3803.952	-66.25
3806.602	-68.25
3809.251	-65.25
3811.897	-63.25
3814.542	-69.25
3817.184	-63.25
3819.825	-60.25
3822.463	-65.25
3825.1	-62.25
3827.735	-62.25
3830.367	-64.25
3832.998	-62.25
3835.627	-66.25
3838.253	-60.25
3840.878	-69.25
3843.501	-63.25
3846.122	-66.25
3848.741	-66.25
3851.358	-68.25
3853.973	-65.25
3856.586	-65.25
3859.197	-69.25
3861.806	-68.25
3864.414	-64.25
3867.019	-67.25
3869.622	-69.25
3872.224	-69.25
3874.823	-67.25
3877.421	-66.25
3880.016	-62.25
3882.61	-59.25
3885.202	-63.25
3887.792	-60.25
3890.38	-62.25
3892.966	-63.25
3895.55	-63.25
3898.132	-64.25
3900.713	-68.25
3903.291	-68.25
3905.868	-67.25
3908.442	-66.25
3911.015	-66.25
3913.586	-66.25
3916.155	-67.25
3918.722	-71.25
3921.287	-66.25
3923.85	-69.25
3926.411	-68.25
3928.971	-65.25
3931.528	-70.25
3934.084	-71.25
3936.638	-71.25
3939.19	-71.25
3941.74	-69.25
3944.288	-69.25
3946.834	-67.25
3949.378	-72.25
3951.921	-67.25
3954.462	-70.25
3957	-69.25
3959.537	-69.25
3962.072	-71.25
3964.606	-66.25
3967.137	-68.25
3969.667	-71.25
3972.194	-68.25
3974.72	-65.25
3977.244	-68.25
3979.766	-66.25
3982.286	-67.25
3984.805	-68.25
3987.321	-67.25
3989.836	-66.25
3992.349	-67.25
3994.86	-70.25
3997.369	-70.25
3999.877	-71.25
4002.382	-66.25
4004.886	-65.25
4007.388	-68.25
4009.888	-70.25
4012.386	-68.25
4014.883	-71.25
4017.377	-72.25
4019.87	-70.25
4022.361	-70.25
4024.85	-70.25
4027.338	-70.25
4029.823	-68.25
4032.307	-73.25
4034.789	-69.25
4037.269	-72.25
4039.747	-69.25
4042.224	-71.25
4044.699	-72.25
4047.172	-71.25
4049.643	-68.25
4052.112	-68.25
4054.58	-67.25
4057.046	-65.25
4059.51	-67.25
4061.972	-69.25
4064.432	-68.25
4066.891	-66.25
4069.348	-71.25
4071.803	-69.25
4074.256	-72.25
4076.708	-67.25
4079.158	-71.25
4081.606	-69.25
4084.052	-66.25
4086.497	-70.25
4088.939	-69.25
4091.38	-71.25
4093.819	-71.25
4096.257	-73.25
4098.693	-75.25
4101.127	-72.25
4103.559	-72.25
4105.989	-31.25
4108.418	-24.25
4110.845	-27.25
4113.27	-23.25
4115.694	-19.25
4118.115	-10.25
4120.535	-68.25
4122.954	-68.25
4125.37	-68.25
4127.785	-72.25
4130.198	-67.25
4132.609	-68.25
4135.019	-72.25
4137.427	-71.25
4139.833	-68.25
4142.237	-71.25
