Data from 1CFU2_B_ramanshift_RamanShift_12-14-12-673.txt Node
Date: Sun Jan 01 12:14:12 IST 2017
User: aro
Spectrometer: QEPB0276
Trigger mode: 0
Integration Time (sec): 5.000000E0
Scans to average: 1
Electric dark correction enabled: true
Nonlinearity correction enabled: false
Boxcar width: 0
XAxis mode: Raman Shifts
Number of Pixels in Spectrum: 1044
>>>>>Begin Spectral Data<<<<<
160.701	4.38
166.742	22.38
172.777	62.38
178.805	199.38
184.826	604.38
190.841	1447.38
196.849	2730.38
202.85	3957.38
208.845	4603.38
214.833	4648.38
220.815	4497.38
226.789	4344.38
232.758	4236.38
238.719	4149.38
244.674	4003.38
250.623	3855.38
256.565	3709.38
262.5	3552.38
268.429	3416.38
274.351	3273.38
280.267	3165.38
286.176	3070.38
292.079	2973.38
297.975	2890.38
303.865	2796.38
309.748	2721.38
315.625	2686.38
321.495	2615.38
327.359	2572.38
333.217	2556.38
339.068	2516.38
344.912	2507.38
350.751	2479.38
356.583	2472.38
362.408	2476.38
368.227	2474.38
374.04	2469.38
379.847	2464.38
385.647	2500.38
391.44	2501.38
397.228	2504.38
403.009	2524.38
408.784	2529.38
414.553	2548.38
420.315	2543.38
426.071	2557.38
431.821	2532.38
437.565	2538.38
443.302	2554.38
449.033	2528.38
454.758	2542.38
460.477	2502.38
466.189	2513.38
471.896	2508.38
477.596	2482.38
483.29	2468.38
488.978	2468.38
494.66	2453.38
500.335	2445.38
506.005	2412.38
511.668	2376.38
517.325	2331.38
522.977	2315.38
528.622	2296.38
534.261	2266.38
539.894	2244.38
545.521	2225.38
551.141	2227.38
556.756	2203.38
562.365	2181.38
567.968	2167.38
573.565	2170.38
579.155	2165.38
584.74	2144.38
590.319	2137.38
595.892	2115.38
601.459	2118.38
607.02	2111.38
612.575	2092.38
618.124	2051.38
623.667	2057.38
629.204	2021.38
634.735	2018.38
640.261	2000.38
645.781	1982.38
651.294	1981.38
656.802	1966.38
662.304	1976.38
667.8	1973.38
673.29	1946.38
678.775	1935.38
684.254	1935.38
689.726	1920.38
695.193	1924.38
700.655	1899.38
706.11	1892.38
711.56	1876.38
717.004	1884.38
722.442	1860.38
727.874	1845.38
733.301	1838.38
738.722	1822.38
744.137	1803.38
749.547	1833.38
754.951	1808.38
760.349	1826.38
765.741	1804.38
771.128	1817.38
776.509	1805.38
781.885	1810.38
787.254	1806.38
792.618	1799.38
797.977	1799.38
803.33	1771.38
808.677	1775.38
814.019	1763.38
819.355	1752.38
824.686	1728.38
830.011	1715.38
835.33	1694.38
840.644	1709.38
845.952	1695.38
851.255	1680.38
856.552	1673.38
861.844	1669.38
867.13	1663.38
872.41	1651.38
877.686	1663.38
882.955	1655.38
888.219	1610.38
893.478	1609.38
898.731	1587.38
903.979	1547.38
909.221	1547.38
914.458	1536.38
919.69	1529.38
924.916	1513.38
930.136	1527.38
935.351	1528.38
940.561	1528.38
945.766	1516.38
950.965	1512.38
956.158	1516.38
961.347	1513.38
966.529	1476.38
971.707	1461.38
976.879	1430.38
982.046	1424.38
987.208	1411.38
992.364	1410.38
997.515	1415.38
1002.66	1421.38
1007.801	1440.38
1012.936	1436.38
1018.066	1440.38
1023.19	1449.38
1028.309	1484.38
1033.423	1445.38
1038.532	1464.38
1043.636	1465.38
1048.734	1449.38
1053.827	1438.38
1058.915	1414.38
1063.998	1405.38
1069.075	1389.38
1074.147	1419.38
1079.214	1399.38
1084.276	1413.38
1089.333	1422.38
1094.385	1424.38
1099.431	1429.38
1104.472	1450.38
1109.509	1454.38
1114.54	1437.38
1119.565	1432.38
1124.586	1402.38
1129.602	1381.38
1134.613	1377.38
1139.618	1366.38
1144.619	1374.38
1149.614	1372.38
1154.604	1363.38
1159.589	1383.38
1164.57	1388.38
1169.545	1392.38
1174.515	1406.38
1179.48	1391.38
1184.44	1370.38
1189.395	1385.38
1194.345	1386.38
1199.29	1355.38
1204.23	1373.38
1209.165	1367.38
1214.095	1394.38
1219.021	1382.38
1223.941	1389.38
1228.856	1402.38
1233.766	1408.38
1238.672	1408.38
1243.572	1420.38
1248.467	1416.38
1253.358	1403.38
1258.244	1389.38
1263.124	1375.38
1268	1349.38
1272.871	1337.38
1277.737	1320.38
1282.599	1313.38
1287.455	1308.38
1292.306	1321.38
1297.153	1330.38
1301.995	1349.38
1306.832	1334.38
1311.664	1347.38
1316.491	1364.38
1321.314	1339.38
1326.132	1345.38
1330.945	1342.38
1335.753	1323.38
1340.556	1326.38
1345.354	1295.38
1350.148	1291.38
1354.937	1270.38
1359.722	1275.38
1364.501	1246.38
1369.276	1220.38
1374.046	1212.38
1378.811	1205.38
1383.572	1193.38
1388.327	1204.38
1393.079	1188.38
1397.825	1194.38
1402.567	1202.38
1407.304	1178.38
1412.036	1182.38
1416.764	1190.38
1421.487	1186.38
1426.205	1196.38
1430.919	1196.38
1435.628	1206.38
1440.333	1224.38
1445.032	1230.38
1449.727	1239.38
1454.418	1250.38
1459.104	1246.38
1463.785	1240.38
1468.462	1240.38
1473.134	1219.38
1477.802	1210.38
1482.465	1207.38
1487.123	1198.38
1491.777	1207.38
1496.426	1178.38
1501.071	1197.38
1505.711	1207.38
1510.347	1210.38
1514.978	1228.38
1519.604	1228.38
1524.226	1238.38
1528.844	1234.38
1533.457	1227.38
1538.065	1208.38
1542.669	1214.38
1547.269	1210.38
1551.864	1234.38
1556.454	1229.38
1561.041	1223.38
1565.622	1262.38
1570.199	1258.38
1574.772	1270.38
1579.34	1293.38
1583.904	1309.38
1588.464	1323.38
1593.019	1355.38
1597.569	1358.38
1602.115	1389.38
1606.657	1392.38
1611.195	1393.38
1615.728	1401.38
1620.256	1417.38
1624.78	1428.38
1629.3	1438.38
1633.816	1478.38
1638.327	1485.38
1642.834	1496.38
1647.336	1509.38
1651.834	1531.38
1656.328	1515.38
1660.817	1532.38
1665.302	1508.38
1669.783	1482.38
1674.259	1440.38
1678.732	1403.38
1683.199	1374.38
1687.663	1341.38
1692.122	1309.38
1696.577	1255.38
1701.028	1214.38
1705.474	1158.38
1709.917	1118.38
1714.355	1089.38
1718.788	1078.38
1723.218	1073.38
1727.643	1065.38
1732.064	1034.38
1736.481	1022.38
1740.893	1003.38
1745.301	968.38
1749.705	957.38
1754.105	935.38
1758.501	922.38
1762.893	899.38
1767.28	879.38
1771.663	886.38
1776.042	883.38
1780.417	869.38
1784.787	873.38
1789.154	862.38
1793.516	868.38
1797.874	878.38
1802.228	860.38
1806.578	847.38
1810.924	837.38
1815.266	822.38
1819.603	812.38
1823.937	816.38
1828.266	796.38
1832.591	795.38
1836.913	794.38
1841.23	795.38
1845.543	799.38
1849.852	773.38
1854.156	807.38
1858.457	801.38
1862.754	801.38
1867.047	803.38
1871.335	809.38
1875.62	808.38
1879.9	820.38
1884.177	819.38
1888.449	807.38
1892.718	813.38
1896.982	809.38
1901.243	801.38
1905.499	804.38
1909.752	797.38
1914	781.38
1918.245	793.38
1922.485	796.38
1926.722	797.38
1930.954	771.38
1935.183	794.38
1939.408	792.38
1943.628	792.38
1947.845	784.38
1952.058	798.38
1956.267	777.38
1960.472	787.38
1964.673	773.38
1968.87	771.38
1973.063	767.38
1977.252	743.38
1981.438	746.38
1985.619	752.38
1989.797	736.38
1993.971	752.38
1998.14	748.38
2002.306	754.38
2006.469	755.38
2010.627	757.38
2014.781	767.38
2018.932	768.38
2023.078	757.38
2027.221	757.38
2031.36	756.38
2035.495	754.38
2039.627	753.38
2043.754	734.38
2047.878	723.38
2051.998	736.38
2056.114	748.38
2060.226	741.38
2064.334	743.38
2068.439	738.38
2072.54	744.38
2076.637	742.38
2080.73	753.38
2084.82	754.38
2088.906	742.38
2092.988	742.38
2097.066	739.38
2101.14	734.38
2105.211	732.38
2109.278	725.38
2113.342	732.38
2117.401	712.38
2121.457	718.38
2125.509	712.38
2129.558	712.38
2133.602	711.38
2137.643	714.38
2141.681	700.38
2145.714	704.38
2149.744	702.38
2153.77	713.38
2157.793	708.38
2161.812	692.38
2165.827	689.38
2169.838	674.38
2173.846	662.38
2177.851	655.38
2181.851	654.38
2185.848	635.38
2189.841	636.38
2193.831	629.38
2197.817	634.38
2201.799	628.38
2205.778	630.38
2209.753	616.38
2213.725	617.38
2217.693	626.38
2221.657	609.38
2225.618	611.38
2229.575	620.38
2233.529	604.38
2237.479	613.38
2241.425	607.38
2245.368	589.38
2249.307	593.38
2253.243	582.38
2257.175	567.38
2261.104	563.38
2265.029	561.38
2268.95	552.38
2272.868	550.38
2276.783	545.38
2280.694	528.38
2284.601	536.38
2288.505	522.38
2292.405	517.38
2296.302	505.38
2300.195	509.38
2304.085	511.38
2307.971	498.38
2311.854	492.38
2315.734	468.38
2319.609	478.38
2323.482	467.38
2327.351	463.38
2331.216	464.38
2335.078	457.38
2338.937	455.38
2342.792	450.38
2346.643	440.38
2350.492	448.38
2354.336	450.38
2358.178	444.38
2362.015	450.38
2365.85	444.38
2369.681	454.38
2373.508	457.38
2377.333	446.38
2381.153	452.38
2384.971	444.38
2388.785	448.38
2392.595	450.38
2396.402	445.38
2400.206	445.38
2404.007	440.38
2407.804	448.38
2411.597	438.38
2415.388	443.38
2419.174	436.38
2422.958	436.38
2426.738	432.38
2430.515	433.38
2434.289	428.38
2438.059	432.38
2441.825	426.38
2445.589	426.38
2449.349	429.38
2453.106	419.38
2456.859	409.38
2460.61	416.38
2464.356	399.38
2468.1	403.38
2471.84	402.38
2475.577	408.38
2479.311	394.38
2483.041	394.38
2486.768	402.38
2490.492	393.38
2494.213	408.38
2497.93	404.38
2501.644	397.38
2505.355	402.38
2509.062	393.38
2512.766	407.38
2516.467	392.38
2520.165	397.38
2523.859	386.38
2527.551	387.38
2531.239	388.38
2534.923	379.38
2538.605	374.38
2542.283	370.38
2545.958	370.38
2549.63	380.38
2553.299	371.38
2556.964	368.38
2560.626	371.38
2564.285	362.38
2567.941	355.38
2571.594	358.38
2575.243	354.38
2578.89	342.38
2582.533	354.38
2586.173	354.38
2589.809	342.38
2593.443	344.38
2597.073	341.38
2600.701	342.38
2604.325	333.38
2607.946	340.38
2611.564	341.38
2615.178	334.38
2618.79	337.38
2622.398	331.38
2626.004	333.38
2629.606	326.38
2633.205	331.38
2636.801	322.38
2640.394	331.38
2643.983	325.38
2647.57	315.38
2651.153	322.38
2654.734	305.38
2658.311	306.38
2661.885	303.38
2665.456	294.38
2669.025	300.38
2672.589	298.38
2676.151	303.38
2679.71	293.38
2683.266	298.38
2686.819	288.38
2690.368	294.38
2693.915	275.38
2697.458	283.38
2700.999	287.38
2704.536	278.38
2708.071	275.38
2711.602	269.38
2715.13	270.38
2718.656	269.38
2722.178	264.38
2725.697	263.38
2729.214	271.38
2732.727	268.38
2736.237	280.38
2739.744	275.38
2743.249	272.38
2746.75	268.38
2750.248	273.38
2753.743	271.38
2757.236	261.38
2760.725	266.38
2764.211	269.38
2767.695	254.38
2771.175	249.38
2774.652	254.38
2778.127	253.38
2781.598	256.38
2785.067	253.38
2788.532	251.38
2791.995	250.38
2795.455	256.38
2798.911	258.38
2802.365	259.38
2805.816	256.38
2809.264	255.38
2812.709	264.38
2816.151	258.38
2819.59	255.38
2823.026	262.38
2826.46	269.38
2829.89	260.38
2833.318	263.38
2836.742	261.38
2840.164	267.38
2843.583	268.38
2846.999	271.38
2850.412	272.38
2853.822	276.38
2857.229	268.38
2860.634	268.38
2864.035	282.38
2867.434	285.38
2870.83	278.38
2874.223	282.38
2877.613	281.38
2881	279.38
2884.385	279.38
2887.766	281.38
2891.145	289.38
2894.521	289.38
2897.894	291.38
2901.264	283.38
2904.631	288.38
2907.996	278.38
2911.358	297.38
2914.717	295.38
2918.073	301.38
2921.426	294.38
2924.777	307.38
2928.124	305.38
2931.469	311.38
2934.811	308.38
2938.15	321.38
2941.487	327.38
2944.821	333.38
2948.152	328.38
2951.48	332.38
2954.805	352.38
2958.128	342.38
2961.447	345.38
2964.765	348.38
2968.079	350.38
2971.39	363.38
2974.699	370.38
2978.005	372.38
2981.308	372.38
2984.609	391.38
2987.907	396.38
2991.202	404.38
2994.494	406.38
2997.784	426.38
3001.07	435.38
3004.355	450.38
3007.636	451.38
3010.915	459.38
3014.191	470.38
3017.464	474.38
3020.734	473.38
3024.002	481.38
3027.267	482.38
3030.53	503.38
3033.789	508.38
3037.046	520.38
3040.301	526.38
3043.552	542.38
3046.801	554.38
3050.048	556.38
3053.291	578.38
3056.532	592.38
3059.771	617.38
3063.006	623.38
3066.239	634.38
3069.469	661.38
3072.697	668.38
3075.922	690.38
3079.144	697.38
3082.364	725.38
3085.581	723.38
3088.795	745.38
3092.007	762.38
3095.216	779.38
3098.423	798.38
3101.627	812.38
3104.828	826.38
3108.026	843.38
3111.222	851.38
3114.416	866.38
3117.607	897.38
3120.795	925.38
3123.98	934.38
3127.163	957.38
3130.344	985.38
3133.521	1007.38
3136.696	1018.38
3139.869	1042.38
3143.039	1057.38
3146.206	1065.38
3149.371	1083.38
3152.533	1105.38
3155.693	1110.38
3158.85	1122.38
3162.005	1133.38
3165.157	1129.38
3168.306	1124.38
3171.453	1148.38
3174.597	1131.38
3177.739	1146.38
3180.878	1161.38
3184.014	1157.38
3187.149	1159.38
3190.28	1170.38
3193.409	1163.38
3196.536	1164.38
3199.659	1170.38
3202.781	1176.38
3205.9	1175.38
3209.016	1187.38
3212.13	1176.38
3215.241	1175.38
3218.35	1176.38
3221.456	1162.38
3224.56	1151.38
3227.661	1131.38
3230.76	1140.38
3233.856	1123.38
3236.95	1113.38
3240.041	1097.38
3243.13	1088.38
3246.216	1081.38
3249.3	1064.38
3252.382	1065.38
3255.46	1062.38
3258.537	1059.38
3261.611	1047.38
3264.682	1052.38
3267.751	1043.38
3270.818	1034.38
3273.882	1053.38
3276.943	1042.38
3280.002	1030.38
3283.059	1017.38
3286.113	1016.38
3289.165	994.38
3292.214	988.38
3295.261	981.38
3298.306	953.38
3301.348	954.38
3304.387	930.38
3307.425	916.38
3310.459	908.38
3313.492	903.38
3316.521	896.38
3319.549	880.38
3322.574	876.38
3325.597	870.38
3328.617	857.38
3331.635	846.38
3334.65	852.38
3337.663	853.38
3340.674	841.38
3343.682	834.38
3346.688	841.38
3349.691	834.38
3352.692	835.38
3355.691	810.38
3358.687	819.38
3361.681	804.38
3364.673	797.38
3367.662	794.38
3370.649	777.38
3373.633	767.38
3376.615	764.38
3379.595	759.38
3382.572	742.38
3385.547	745.38
3388.52	728.38
3391.49	719.38
3394.458	715.38
3397.424	686.38
3400.387	678.38
3403.348	693.38
3406.307	665.38
3409.263	677.38
3412.217	661.38
3415.168	648.38
3418.118	640.38
3421.065	650.38
3424.009	623.38
3426.951	637.38
3429.891	613.38
3432.829	603.38
3435.764	588.38
3438.697	584.38
3441.628	580.38
3444.557	553.38
3447.483	541.38
3450.407	539.38
3453.328	518.38
3456.247	494.38
3459.164	491.38
3462.079	486.38
3464.991	464.38
3467.902	458.38
3470.809	438.38
3473.715	430.38
3476.618	420.38
3479.519	402.38
3482.418	397.38
3485.315	382.38
3488.209	374.38
3491.101	371.38
3493.99	359.38
3496.878	346.38
3499.763	344.38
3502.646	328.38
3505.527	321.38
3508.405	308.38
3511.281	287.38
3514.155	280.38
3517.027	266.38
3519.897	258.38
3522.764	252.38
3525.629	250.38
3528.492	232.38
3531.352	218.38
3534.211	201.38
3537.067	195.38
3539.921	180.38
3542.773	181.38
3545.622	169.38
3548.469	160.38
3551.315	152.38
3554.157	145.38
3556.998	132.38
3559.837	136.38
3562.673	117.38
3565.507	120.38
3568.339	119.38
3571.169	115.38
3573.996	105.38
3576.822	99.38
3579.645	96.38
3582.466	92.38
3585.285	84.38
3588.101	72.38
3590.916	67.38
3593.728	64.38
3596.538	64.38
3599.346	53.38
3602.152	48.38
3604.956	48.38
3607.757	40.38
3610.556	33.38
3613.354	33.38
3616.149	29.38
3618.942	24.38
3621.732	31.38
3624.521	14.38
3627.307	17.38
3630.092	13.38
3632.874	15.38
3635.654	11.38
3638.432	6.38
3641.208	6.38
3643.982	-1.62
3646.753	5.38
3649.523	-1.62
3652.29	0.38
3655.055	-6.62
3657.818	-11.62
3660.579	-7.62
3663.338	-11.62
3666.095	-16.62
3668.849	-21.62
3671.602	-16.62
3674.352	-23.62
3677.101	-26.62
3679.847	-27.62
3682.591	-29.62
3685.333	-29.62
3688.073	-36.62
3690.811	-32.62
3693.547	-36.62
3696.281	-39.62
3699.013	-39.62
3701.742	-41.62
3704.47	-44.62
3707.195	-40.62
3709.919	-46.62
3712.64	-45.62
3715.359	-42.62
3718.076	-47.62
3720.792	-49.62
3723.505	-49.62
3726.216	-45.62
3728.925	-49.62
3731.632	-53.62
3734.336	-50.62
3737.039	-52.62
3739.74	-54.62
3742.439	-53.62
3745.136	-48.62
3747.83	-54.62
3750.523	-54.62
3753.213	-55.62
3755.902	-56.62
3758.589	-55.62
3761.273	-56.62
3763.956	-54.62
3766.636	-57.62
3769.315	-58.62
3771.991	-58.62
3774.665	-62.62
3777.338	-58.62
3780.008	-61.62
3782.677	-65.62
3785.343	-61.62
3788.007	-58.62
3790.67	-60.62
3793.33	-65.62
3795.989	-63.62
3798.645	-65.62
3801.299	-62.62
3803.952	-66.62
3806.602	-64.62
3809.251	-63.62
3811.897	-59.62
3814.542	-66.62
3817.184	-63.62
3819.825	-57.62
3822.463	-63.62
3825.1	-63.62
3827.735	-59.62
3830.367	-61.62
3832.998	-64.62
3835.627	-63.62
3838.253	-59.62
3840.878	-69.62
3843.501	-61.62
3846.122	-65.62
3848.741	-66.62
3851.358	-69.62
3853.973	-66.62
3856.586	-66.62
3859.197	-68.62
3861.806	-67.62
3864.414	-68.62
3867.019	-65.62
3869.622	-72.62
3872.224	-67.62
3874.823	-64.62
3877.421	-68.62
3880.016	-63.62
3882.61	-59.62
3885.202	-63.62
3887.792	-57.62
3890.38	-62.62
3892.966	-64.62
3895.55	-66.62
3898.132	-65.62
3900.713	-69.62
3903.291	-72.62
3905.868	-65.62
3908.442	-66.62
3911.015	-66.62
3913.586	-68.62
3916.155	-67.62
3918.722	-70.62
3921.287	-67.62
3923.85	-70.62
3926.411	-68.62
3928.971	-72.62
3931.528	-72.62
3934.084	-72.62
3936.638	-71.62
3939.19	-70.62
3941.74	-69.62
3944.288	-70.62
3946.834	-68.62
3949.378	-74.62
3951.921	-70.62
3954.462	-70.62
3957	-66.62
3959.537	-69.62
3962.072	-70.62
3964.606	-65.62
3967.137	-69.62
3969.667	-68.62
3972.194	-67.62
3974.72	-64.62
3977.244	-64.62
3979.766	-64.62
3982.286	-65.62
3984.805	-65.62
3987.321	-66.62
3989.836	-66.62
3992.349	-69.62
3994.86	-70.62
3997.369	-69.62
3999.877	-68.62
4002.382	-62.62
4004.886	-67.62
4007.388	-70.62
4009.888	-70.62
4012.386	-67.62
4014.883	-70.62
4017.377	-69.62
4019.87	-69.62
4022.361	-67.62
4024.85	-66.62
4027.338	-70.62
4029.823	-69.62
4032.307	-67.62
4034.789	-68.62
4037.269	-71.62
4039.747	-69.62
4042.224	-68.62
4044.699	-71.62
4047.172	-67.62
4049.643	-66.62
4052.112	-66.62
4054.58	-67.62
4057.046	-67.62
4059.51	-70.62
4061.972	-68.62
4064.432	-70.62
4066.891	-67.62
4069.348	-68.62
4071.803	-69.62
4074.256	-67.62
4076.708	-68.62
4079.158	-70.62
4081.606	-71.62
4084.052	-67.62
4086.497	-70.62
4088.939	-69.62
4091.38	-72.62
4093.819	-69.62
4096.257	-77.62
4098.693	-75.62
4101.127	-75.62
4103.559	-73.62
4105.989	-24.62
4108.418	-20.62
4110.845	-21.62
4113.27	-17.62
4115.694	-15.62
4118.115	-6.62
4120.535	-72.62
4122.954	-72.62
4125.37	-69.62
4127.785	-73.62
4130.198	-70.62
4132.609	-70.62
4135.019	-73.62
4137.427	-72.62
4139.833	-68.62
4142.237	-73.62
