Data from CB10_RamanShift_3.txt Node
Date: Mon Nov 06 14:54:57 IST 2017
User: aro
Spectrometer: QEPB0276
Trigger mode: 0
Integration Time (sec): 4.000000E1
Scans to average: 3
Electric dark correction enabled: true
Nonlinearity correction enabled: false
Boxcar width: 0
XAxis mode: Raman Shifts
Number of Pixels in Spectrum: 1044
>>>>>Begin Spectral Data<<<<<
160.701	-104.58
166.742	16.75
172.777	350.08
178.805	1413.42
184.826	4151.08
190.841	9128.42
196.849	15035.42
202.85	19072.75
208.845	20039.08
214.833	19417.75
220.815	18695.75
226.789	18171.75
232.758	17709.42
238.719	17157.08
244.674	16574.75
250.623	15911.75
256.565	15172.42
262.5	14512.08
268.429	13896.08
274.351	13356.08
280.267	12913.42
286.176	12502.42
292.079	12126.75
297.975	11770.75
303.865	11440.42
309.748	11174.75
315.625	10936.08
321.495	10755.08
327.359	10628.75
333.217	10525.75
339.068	10466.42
344.912	10403.08
350.751	10345.75
356.583	10314.08
362.408	10260.42
368.227	10269.75
374.04	10308.42
379.847	10490.42
385.647	10637.42
391.44	10626.42
397.228	10539.08
403.009	10560.75
408.784	10688.08
414.553	11003.42
420.315	11409.75
426.071	11438.08
431.821	11047.75
437.565	10692.08
443.302	10589.42
449.033	10513.08
454.758	10433.42
460.477	10389.42
466.189	10313.75
471.896	10257.75
477.596	10194.08
483.29	10115.08
488.978	10043.75
494.66	9980.42
500.335	9846.75
506.005	9678.42
511.668	9486.08
517.325	9303.42
522.977	9165.75
528.622	9047.08
534.261	8934.75
539.894	8878.08
545.521	8794.42
551.141	8736.08
556.756	8653.08
562.365	8604.75
567.968	8528.08
573.565	8518.08
579.155	8478.08
584.74	8387.08
590.319	8290.75
595.892	8240.75
601.459	8163.42
607.02	8075.08
612.575	7992.75
618.124	7914.75
623.667	7849.08
629.204	7778.08
634.735	7738.08
640.261	7763.42
645.781	7832.42
651.294	7864.42
656.802	7746.08
662.304	7574.42
667.8	7484.42
673.29	7440.08
678.775	7376.08
684.254	7319.75
689.726	7289.42
695.193	7202.42
700.655	7123.42
706.11	7111.08
711.56	7027.08
717.004	6977.42
722.442	6949.42
727.874	6932.42
733.301	6944.08
738.722	6909.75
744.137	6872.08
749.547	6829.75
754.951	6829.42
760.349	6766.08
765.741	6718.42
771.128	6657.75
776.509	6646.75
781.885	6635.08
787.254	6585.08
792.618	6523.75
797.977	6455.42
803.33	6390.08
808.677	6334.75
814.019	6260.08
819.355	6189.75
824.686	6126.42
830.011	6068.42
835.33	6038.42
840.644	6015.42
845.952	5967.08
851.255	5925.42
856.552	5897.42
861.844	5858.08
867.13	5797.75
872.41	5755.75
877.686	5669.75
882.955	5583.42
888.219	5505.75
893.478	5387.42
898.731	5296.75
903.979	5220.75
909.221	5182.42
914.458	5125.75
919.69	5105.08
924.916	5108.75
930.136	5097.42
935.351	5075.08
940.561	5073.08
945.766	5020.42
950.965	4986.75
956.158	4934.08
961.347	4858.08
966.529	4768.75
971.707	4684.08
976.879	4619.08
982.046	4569.42
987.208	4553.08
992.364	4556.08
997.515	4565.75
1002.66	4591.75
1007.801	4632.08
1012.936	4664.08
1018.066	4693.08
1023.19	4702.08
1028.309	4701.42
1033.423	4685.42
1038.532	4631.08
1043.636	4588.75
1048.734	4529.75
1053.827	4474.42
1058.915	4419.75
1063.998	4420.08
1069.075	4405.75
1074.147	4398.08
1079.214	4428.08
1084.276	4471.42
1089.333	4480.75
1094.385	4499.75
1099.431	4518.42
1104.472	4509.42
1109.509	4472.42
1114.54	4396.08
1119.565	4352.42
1124.586	4284.08
1129.602	4240.75
1134.613	4209.75
1139.618	4202.75
1144.619	4213.75
1149.614	4225.42
1154.604	4237.42
1159.589	4259.42
1164.57	4273.75
1169.545	4272.75
1174.515	4276.75
1179.48	4247.42
1184.44	4221.75
1189.395	4173.42
1194.345	4153.42
1199.29	4144.08
1204.23	4130.75
1209.165	4165.42
1214.095	4188.75
1219.021	4232.42
1223.941	4262.42
1228.856	4294.08
1233.766	4295.42
1238.672	4284.75
1243.572	4263.42
1248.467	4215.42
1253.358	4153.75
1258.244	4115.08
1263.124	4032.75
1268	3974.75
1272.871	3942.75
1277.737	3908.08
1282.599	3889.08
1287.455	3908.75
1292.306	3929.08
1297.153	3965.75
1301.995	4000.75
1306.832	4006.42
1311.664	4025.75
1316.491	4008.75
1321.314	3988.08
1326.132	3958.08
1330.945	3929.75
1335.753	3878.08
1340.556	3861.08
1345.354	3846.42
1350.148	3833.75
1354.937	3790.42
1359.722	3760.08
1364.501	3715.42
1369.276	3645.42
1374.046	3588.08
1378.811	3552.08
1383.572	3524.75
1388.327	3499.08
1393.079	3452.75
1397.825	3413.75
1402.567	3381.42
1407.304	3372.08
1412.036	3351.08
1416.764	3355.75
1421.487	3349.42
1426.205	3389.08
1430.919	3409.75
1435.628	3452.08
1440.333	3495.75
1445.032	3514.42
1449.727	3560.08
1454.418	3573.08
1459.104	3561.08
1463.785	3554.42
1468.462	3517.08
1473.134	3502.75
1477.802	3504.42
1482.465	3502.75
1487.123	3521.75
1491.777	3539.08
1496.426	3556.08
1501.071	3610.08
1505.711	3643.08
1510.347	3675.42
1514.978	3691.42
1519.604	3671.42
1524.226	3664.75
1528.844	3617.75
1533.457	3599.75
1538.065	3543.75
1542.669	3537.08
1547.269	3533.42
1551.864	3531.42
1556.454	3558.08
1561.041	3578.08
1565.622	3636.08
1570.199	3686.08
1574.772	3776.75
1579.34	3876.42
1583.904	3951.42
1588.464	4029.75
1593.019	4096.75
1597.569	4165.42
1602.115	4193.42
1606.657	4253.42
1611.195	4305.75
1615.728	4353.08
1620.256	4448.42
1624.78	4513.42
1629.3	4612.75
1633.816	4694.75
1638.327	4769.08
1642.834	4848.42
1647.336	4860.42
1651.834	4901.75
1656.328	4889.42
1660.817	4843.75
1665.302	4764.08
1669.783	4655.75
1674.259	4537.08
1678.732	4389.08
1683.199	4278.08
1687.663	4132.08
1692.122	3973.08
1696.577	3821.08
1701.028	3630.42
1705.474	3451.75
1709.917	3273.75
1714.355	3170.08
1718.788	3079.08
1723.218	3002.42
1727.643	2919.75
1732.064	2834.75
1736.481	2756.42
1740.893	2655.42
1745.301	2548.75
1749.705	2462.75
1754.105	2387.75
1758.501	2330.08
1762.893	2293.75
1767.28	2238.42
1771.663	2223.42
1776.042	2218.42
1780.417	2231.08
1784.787	2247.75
1789.154	2249.08
1793.516	2237.75
1797.874	2188.75
1802.228	2139.42
1806.578	2068.42
1810.924	1998.42
1815.266	1939.42
1819.603	1897.42
1823.937	1865.75
1828.266	1853.08
1832.591	1845.08
1836.913	1834.75
1841.23	1841.75
1845.543	1841.75
1849.852	1858.08
1854.156	1870.42
1858.457	1881.75
1862.754	1894.42
1867.047	1898.08
1871.335	1924.75
1875.62	1942.42
1879.9	1942.42
1884.177	1937.08
1888.449	1941.75
1892.718	1934.75
1896.982	1926.75
1901.243	1952.42
1905.499	1922.08
1909.752	1943.08
1914	1951.08
1918.245	1958.42
1922.485	1968.08
1926.722	2002.08
1930.954	2000.75
1935.183	2014.75
1939.408	2003.42
1943.628	1980.75
1947.845	1957.42
1952.058	1907.75
1956.267	1870.08
1960.472	1829.42
1964.673	1780.75
1968.87	1745.08
1973.063	1721.75
1977.252	1696.08
1981.438	1696.75
1985.619	1678.08
1989.797	1685.42
1993.971	1692.75
1998.14	1684.75
2002.306	1698.42
2006.469	1703.08
2010.627	1718.42
2014.781	1721.42
2018.932	1729.08
2023.078	1726.08
2027.221	1710.08
2031.36	1698.42
2035.495	1686.75
2039.627	1687.08
2043.754	1678.08
2047.878	1690.75
2051.998	1689.08
2056.114	1710.75
2060.226	1724.42
2064.334	1738.08
2068.439	1748.08
2072.54	1778.42
2076.637	1792.08
2080.73	1811.75
2084.82	1805.08
2088.906	1812.08
2092.988	1808.08
2097.066	1781.08
2101.14	1759.42
2105.211	1738.42
2109.278	1704.75
2113.342	1669.08
2117.401	1663.08
2121.457	1632.75
2125.509	1617.42
2129.558	1604.08
2133.602	1585.75
2137.643	1553.75
2141.681	1547.42
2145.714	1533.42
2149.744	1518.08
2153.77	1517.08
2157.793	1482.08
2161.812	1464.42
2165.827	1434.75
2169.838	1410.42
2173.846	1382.08
2177.851	1358.75
2181.851	1331.08
2185.848	1313.42
2189.841	1293.08
2193.831	1264.08
2197.817	1263.75
2201.799	1250.42
2205.778	1245.42
2209.753	1221.42
2213.725	1211.42
2217.693	1219.75
2221.657	1193.42
2225.618	1187.75
2229.575	1185.75
2233.529	1156.75
2237.479	1134.42
2241.425	1116.08
2245.368	1085.75
2249.307	1062.75
2253.243	1030.08
2257.175	1014.75
2261.104	984.08
2265.029	961.42
2268.95	952.08
2272.868	933.42
2276.783	910.75
2280.694	898.42
2284.601	886.08
2288.505	861.08
2292.405	843.08
2296.302	824.75
2300.195	804.42
2304.085	788.75
2307.971	752.42
2311.854	744.75
2315.734	727.75
2319.609	704.08
2323.482	683.42
2327.351	679.42
2331.216	681.75
2335.078	669.42
2338.937	656.75
2342.792	643.75
2346.643	635.42
2350.492	629.75
2354.336	634.75
2358.178	632.42
2362.015	634.08
2365.85	637.42
2369.681	631.42
2373.508	640.42
2377.333	629.42
2381.153	632.75
2384.971	625.42
2388.785	617.75
2392.595	612.08
2396.402	606.08
2400.206	602.75
2404.007	592.42
2407.804	589.75
2411.597	597.75
2415.388	591.75
2419.174	581.08
2422.958	582.08
2426.738	577.42
2430.515	571.75
2434.289	555.08
2438.059	563.08
2441.825	557.75
2445.589	550.42
2449.349	550.08
2453.106	533.42
2456.859	526.42
2460.61	519.75
2464.356	516.08
2468.1	510.42
2471.84	506.42
2475.577	501.08
2479.311	504.08
2483.041	501.42
2486.768	506.42
2490.492	505.08
2494.213	506.75
2497.93	501.42
2501.644	502.75
2505.355	502.08
2509.062	504.75
2512.766	494.08
2516.467	497.75
2520.165	491.75
2523.859	488.42
2527.551	484.42
2531.239	482.75
2534.923	473.42
2538.605	465.75
2542.283	473.75
2545.958	457.75
2549.63	466.08
2553.299	458.42
2556.964	459.75
2560.626	458.75
2564.285	451.08
2567.941	437.75
2571.594	433.08
2575.243	425.75
2578.89	417.08
2582.533	412.08
2586.173	402.08
2589.809	400.75
2593.443	386.08
2597.073	379.75
2600.701	371.08
2604.325	364.08
2607.946	368.75
2611.564	352.42
2615.178	353.42
2618.79	351.08
2622.398	340.75
2626.004	340.75
2629.606	328.42
2633.205	329.75
2636.801	319.08
2640.394	314.08
2643.983	318.75
2647.57	300.08
2651.153	301.08
2654.734	296.75
2658.311	290.42
2661.885	285.08
2665.456	283.42
2669.025	283.08
2672.589	279.08
2676.151	280.42
2679.71	282.08
2683.266	275.75
2686.819	277.42
2690.368	267.42
2693.915	258.42
2697.458	261.08
2700.999	251.42
2704.536	256.08
2708.071	245.08
2711.602	251.75
2715.13	252.08
2718.656	254.75
2722.178	262.08
2725.697	260.75
2729.214	265.42
2732.727	275.75
2736.237	286.08
2739.744	294.42
2743.249	297.75
2746.75	299.42
2750.248	294.42
2753.743	292.08
2757.236	284.08
2760.725	272.75
2764.211	265.42
2767.695	260.42
2771.175	254.75
2774.652	254.42
2778.127	253.42
2781.598	258.42
2785.067	262.42
2788.532	263.42
2791.995	280.08
2795.455	284.75
2798.911	304.75
2802.365	302.42
2805.816	309.08
2809.264	318.42
2812.709	325.42
2816.151	320.75
2819.59	337.08
2823.026	343.08
2826.46	349.75
2829.89	359.42
2833.318	360.75
2836.742	363.42
2840.164	373.42
2843.583	389.08
2846.999	393.42
2850.412	390.08
2853.822	411.42
2857.229	416.42
2860.634	424.75
2864.035	428.42
2867.434	441.75
2870.83	457.42
2874.223	465.08
2877.613	467.75
2881	474.42
2884.385	480.08
2887.766	479.42
2891.145	491.42
2894.521	505.75
2897.894	504.42
2901.264	525.08
2904.631	528.42
2907.996	534.75
2911.358	551.75
2914.717	557.42
2918.073	574.08
2921.426	588.75
2924.777	619.42
2928.124	627.42
2931.469	654.75
2934.811	679.75
2938.15	695.42
2941.487	714.08
2944.821	732.08
2948.152	751.75
2951.48	771.08
2954.805	789.08
2958.128	814.08
2961.447	833.42
2964.765	859.75
2968.079	883.42
2971.39	929.42
2974.699	945.42
2978.005	988.42
2981.308	1027.75
2984.609	1053.08
2987.907	1101.08
2991.202	1150.08
2994.494	1181.08
2997.784	1221.42
3001.07	1270.08
3004.355	1302.42
3007.636	1332.42
3010.915	1364.75
3014.191	1394.08
3017.464	1426.42
3020.734	1454.75
3024.002	1482.75
3027.267	1511.42
3030.53	1546.08
3033.789	1597.75
3037.046	1621.42
3040.301	1673.08
3043.552	1726.08
3046.801	1774.42
3050.048	1834.08
3053.291	1908.08
3056.532	1970.75
3059.771	2041.42
3063.006	2113.42
3066.239	2183.42
3069.469	2269.42
3072.697	2341.08
3075.922	2397.75
3079.144	2483.42
3082.364	2540.08
3085.581	2637.08
3088.795	2701.08
3092.007	2750.42
3095.216	2831.75
3098.423	2917.42
3101.627	2996.75
3104.828	3066.08
3108.026	3125.08
3111.222	3223.42
3114.416	3294.08
3117.607	3376.75
3120.795	3467.42
3123.98	3552.42
3127.163	3653.75
3130.344	3743.08
3133.521	3842.75
3136.696	3928.08
3139.869	4004.08
3143.039	4078.75
3146.206	4139.08
3149.371	4193.75
3152.533	4219.08
3155.693	4259.08
3158.85	4301.75
3162.005	4319.75
3165.157	4329.75
3168.306	4356.42
3171.453	4380.08
3174.597	4390.75
3177.739	4412.75
3180.878	4417.42
3184.014	4431.08
3187.149	4438.42
3190.28	4457.75
3193.409	4481.75
3196.536	4491.75
3199.659	4515.75
3202.781	4546.42
3205.9	4535.75
3209.016	4551.75
3212.13	4517.42
3215.241	4505.42
3218.35	4474.75
3221.456	4448.42
3224.56	4409.08
3227.661	4372.75
3230.76	4330.42
3233.856	4292.75
3236.95	4298.75
3240.041	4252.08
3243.13	4241.75
3246.216	4219.75
3249.3	4216.75
3252.382	4183.42
3255.46	4182.08
3258.537	4154.75
3261.611	4148.42
3264.682	4137.42
3267.751	4146.75
3270.818	4140.75
3273.882	4094.75
3276.943	4086.42
3280.002	4030.42
3283.059	3986.42
3286.113	3940.08
3289.165	3885.75
3292.214	3810.08
3295.261	3750.75
3298.306	3700.08
3301.348	3624.08
3304.387	3565.75
3307.425	3516.08
3310.459	3462.42
3313.492	3426.42
3316.521	3376.75
3319.549	3357.08
3322.574	3319.08
3325.597	3300.08
3328.617	3279.42
3331.635	3263.75
3334.65	3239.75
3337.663	3234.42
3340.674	3228.42
3343.682	3216.42
3346.688	3211.75
3349.691	3175.42
3352.692	3173.42
3355.691	3161.75
3358.687	3134.08
3361.681	3084.75
3364.673	3044.75
3367.662	3017.75
3370.649	2960.75
3373.633	2941.42
3376.615	2888.08
3379.595	2864.08
3382.572	2828.08
3385.547	2782.75
3388.52	2752.75
3391.49	2717.75
3394.458	2676.75
3397.424	2661.08
3400.387	2625.42
3403.348	2597.42
3406.307	2570.08
3409.263	2548.75
3412.217	2532.75
3415.168	2505.08
3418.118	2483.75
3421.065	2462.42
3424.009	2420.75
3426.951	2395.75
3429.891	2363.08
3432.829	2322.42
3435.764	2272.42
3438.697	2211.08
3441.628	2173.08
3444.557	2119.08
3447.483	2064.75
3450.407	2005.42
3453.328	1946.42
3456.247	1900.75
3459.164	1841.75
3462.079	1792.42
3464.991	1751.75
3467.902	1690.08
3470.809	1642.42
3473.715	1599.42
3476.618	1544.75
3479.519	1508.08
3482.418	1471.75
3485.315	1441.08
3488.209	1394.75
3491.101	1357.75
3493.99	1329.08
3496.878	1285.08
3499.763	1251.42
3502.646	1209.08
3505.527	1166.08
3508.405	1120.42
3511.281	1076.75
3514.155	1035.08
3517.027	988.75
3519.897	944.75
3522.764	887.75
3525.629	849.08
3528.492	808.42
3531.352	764.42
3534.211	726.08
3537.067	676.08
3539.921	636.08
3542.773	603.42
3545.622	563.08
3548.469	536.08
3551.315	500.42
3554.157	474.42
3556.998	444.42
3559.837	414.42
3562.673	395.42
3565.507	371.42
3568.339	347.42
3571.169	321.42
3573.996	297.75
3576.822	282.08
3579.645	254.42
3582.466	231.42
3585.285	202.42
3588.101	185.42
3590.916	160.75
3593.728	140.75
3596.538	120.75
3599.346	107.08
3602.152	84.42
3604.956	66.75
3607.757	51.75
3610.556	34.42
3613.354	10.08
3616.149	-2.58
3618.942	-14.25
3621.732	-27.92
3624.521	-41.25
3627.307	-55.25
3630.092	-66.92
3632.874	-71.58
3635.654	-82.25
3638.432	-96.58
3641.208	-109.92
3643.982	-116.25
3646.753	-127.58
3649.523	-142.25
3652.29	-150.25
3655.055	-165.92
3657.818	-170.92
3660.579	-183.25
3663.338	-194.92
3666.095	-199.92
3668.849	-211.25
3671.602	-217.92
3674.352	-228.92
3677.101	-233.92
3679.847	-240.92
3682.591	-254.25
3685.333	-257.92
3688.073	-265.58
3690.811	-279.58
3693.547	-275.58
3696.281	-277.25
3699.013	-285.92
3701.742	-291.58
3704.47	-299.92
3707.195	-299.25
3709.919	-302.58
3712.64	-306.58
3715.359	-315.25
3718.076	-315.92
3720.792	-322.92
3723.505	-325.92
3726.216	-322.58
3728.925	-334.58
3731.632	-332.92
3734.336	-338.58
3737.039	-342.58
3739.74	-338.58
3742.439	-348.25
3745.136	-350.25
3747.83	-347.25
3750.523	-351.58
3753.213	-360.58
3755.902	-354.92
3758.589	-363.25
3761.273	-357.92
3763.956	-357.58
3766.636	-358.58
3769.315	-365.92
3771.991	-367.92
3774.665	-366.92
3777.338	-367.58
3780.008	-367.92
3782.677	-372.58
3785.343	-373.58
3788.007	-375.92
3790.67	-376.58
3793.33	-374.58
3795.989	-375.92
3798.645	-376.92
3801.299	-379.25
3803.952	-384.25
3806.602	-381.58
3809.251	-384.25
3811.897	-378.92
3814.542	-385.58
3817.184	-382.92
3819.825	-383.58
3822.463	-384.92
3825.1	-390.25
3827.735	-387.58
3830.367	-390.58
3832.998	-387.25
3835.627	-390.92
3838.253	-387.58
3840.878	-390.58
3843.501	-388.58
3846.122	-392.58
3848.741	-393.25
3851.358	-396.58
3853.973	-395.25
3856.586	-396.25
3859.197	-394.25
3861.806	-391.58
3864.414	-391.58
3867.019	-397.58
3869.622	-389.58
3872.224	-386.58
3874.823	-379.25
3877.421	-366.92
3880.016	-348.92
3882.61	-339.25
3885.202	-336.58
3887.792	-354.92
3890.38	-372.58
3892.966	-388.58
3895.55	-393.92
3898.132	-400.25
3900.713	-398.25
3903.291	-400.58
3905.868	-404.58
3908.442	-402.25
3911.015	-406.58
3913.586	-402.92
3916.155	-405.25
3918.722	-406.58
3921.287	-408.92
3923.85	-405.58
3926.411	-407.92
3928.971	-405.92
3931.528	-407.25
3934.084	-407.92
3936.638	-405.25
3939.19	-410.25
3941.74	-407.92
3944.288	-406.25
3946.834	-408.25
3949.378	-408.92
3951.921	-407.58
3954.462	-408.58
3957	-402.25
3959.537	-402.25
3962.072	-402.92
3964.606	-407.92
3967.137	-402.92
3969.667	-401.58
3972.194	-402.58
3974.72	-404.58
3977.244	-399.25
3979.766	-399.25
3982.286	-399.92
3984.805	-396.25
3987.321	-398.58
3989.836	-393.92
3992.349	-394.25
3994.86	-395.25
3997.369	-398.58
3999.877	-395.58
4002.382	-397.58
4004.886	-399.25
4007.388	-398.58
4009.888	-395.25
4012.386	-396.92
4014.883	-399.58
4017.377	-398.58
4019.87	-401.58
4022.361	-401.58
4024.85	-400.25
4027.338	-398.92
4029.823	-399.25
4032.307	-397.92
4034.789	-397.92
4037.269	-405.58
4039.747	-405.58
4042.224	-398.92
4044.699	-403.92
4047.172	-401.92
4049.643	-404.92
4052.112	-404.25
4054.58	-405.25
4057.046	-399.58
4059.51	-405.25
4061.972	-400.92
4064.432	-406.58
4066.891	-403.25
4069.348	-402.58
4071.803	-402.92
4074.256	-404.58
4076.708	-399.92
4079.158	-402.25
4081.606	-401.58
4084.052	-400.58
4086.497	-402.58
4088.939	-401.25
4091.38	-398.92
4093.819	-401.92
4096.257	-419.58
4098.693	-417.58
4101.127	-417.92
4103.559	-415.58
4105.989	-253.58
4108.418	-240.58
4110.845	-232.58
4113.27	-210.25
4115.694	-184.25
4118.115	-154.92
4120.535	-401.25
4122.954	-402.92
4125.37	-397.25
4127.785	-403.92
4130.198	-409.25
4132.609	-529.58
4135.019	-416.58
4137.427	-419.58
4139.833	-419.58
4142.237	-419.92
