Data from CB10_RamanShift_2.txt Node
Date: Mon Nov 06 14:50:57 IST 2017
User: aro
Spectrometer: QEPB0276
Trigger mode: 0
Integration Time (sec): 4.000000E1
Scans to average: 3
Electric dark correction enabled: true
Nonlinearity correction enabled: false
Boxcar width: 0
XAxis mode: Raman Shifts
Number of Pixels in Spectrum: 1044
>>>>>Begin Spectral Data<<<<<
160.701	-93.79
166.742	21.21
172.777	361.21
178.805	1447.21
184.826	4273.88
190.841	9410.21
196.849	15514.21
202.85	19657.88
208.845	20688.54
214.833	19986.88
220.815	19157.88
226.789	18556.54
232.758	18061.21
238.719	17500.21
244.674	16804.21
250.623	16063.21
256.565	15332.54
262.5	14579.21
268.429	13903.54
274.351	13320.21
280.267	12788.88
286.176	12335.21
292.079	11903.21
297.975	11521.54
303.865	11187.21
309.748	10908.54
315.625	10672.21
321.495	10440.88
327.359	10335.88
333.217	10188.88
339.068	10137.21
344.912	10086.21
350.751	10012.54
356.583	9968.88
362.408	9897.88
368.227	9937.21
374.04	9993.54
379.847	10142.54
385.647	10266.21
391.44	10262.21
397.228	10208.54
403.009	10240.88
408.784	10341.88
414.553	10708.88
420.315	11091.88
426.071	11141.21
431.821	10734.54
437.565	10382.88
443.302	10235.88
449.033	10154.21
454.758	10117.21
460.477	10019.54
466.189	9948.88
471.896	9893.54
477.596	9810.88
483.29	9742.54
488.978	9688.21
494.66	9603.21
500.335	9476.88
506.005	9268.88
511.668	9080.54
517.325	8878.21
522.977	8719.54
528.622	8602.88
534.261	8470.21
539.894	8393.54
545.521	8308.21
551.141	8243.88
556.756	8172.21
562.365	8125.54
567.968	8063.88
573.565	8009.88
579.155	7947.21
584.74	7874.21
590.319	7807.21
595.892	7723.21
601.459	7648.87
607.02	7607.21
612.575	7525.88
618.124	7423.88
623.667	7333.54
629.204	7264.54
634.735	7234.87
640.261	7270.88
645.781	7333.21
651.294	7377.54
656.802	7235.54
662.304	7062.54
667.8	6958.54
673.29	6895.88
678.775	6837.54
684.254	6793.21
689.726	6715.54
695.193	6666.88
700.655	6617.88
706.11	6550.88
711.56	6482.87
717.004	6420.21
722.442	6361.21
727.874	6334.21
733.301	6277.54
738.722	6272.87
744.137	6266.54
749.547	6265.21
754.951	6256.88
760.349	6224.87
765.741	6161.88
771.128	6119.54
776.509	6068.21
781.885	6072.87
787.254	6026.54
792.618	5970.21
797.977	5910.54
803.33	5838.54
808.677	5774.88
814.019	5726.88
819.355	5611.54
824.686	5557.88
830.011	5513.54
835.33	5484.21
840.644	5435.21
845.952	5377.88
851.255	5348.54
856.552	5297.54
861.844	5240.54
867.13	5183.88
872.41	5131.54
877.686	5056.21
882.955	4952.21
888.219	4882.54
893.478	4773.21
898.731	4672.54
903.979	4617.21
909.221	4565.21
914.458	4515.88
919.69	4493.54
924.916	4461.54
930.136	4447.21
935.351	4448.21
940.561	4417.88
945.766	4389.21
950.965	4336.21
956.158	4289.54
961.347	4225.54
966.529	4145.21
971.707	4066.21
976.879	3996.88
982.046	3938.21
987.208	3929.54
992.364	3936.54
997.515	3941.21
1002.66	3950.21
1007.801	3987.21
1012.936	4020.21
1018.066	4018.88
1023.19	4047.21
1028.309	4027.54
1033.423	4011.21
1038.532	3981.54
1043.636	3944.54
1048.734	3900.54
1053.827	3843.88
1058.915	3804.21
1063.998	3799.54
1069.075	3773.54
1074.147	3774.88
1079.214	3781.88
1084.276	3814.21
1089.333	3824.54
1094.385	3851.21
1099.431	3860.21
1104.472	3850.88
1109.509	3821.21
1114.54	3778.21
1119.565	3731.88
1124.586	3648.54
1129.602	3628.21
1134.613	3583.54
1139.618	3579.21
1144.619	3587.88
1149.614	3604.88
1154.604	3624.21
1159.589	3642.21
1164.57	3644.21
1169.545	3652.21
1174.515	3631.21
1179.48	3615.21
1184.44	3571.54
1189.395	3563.21
1194.345	3521.54
1199.29	3516.21
1204.23	3513.21
1209.165	3534.21
1214.095	3553.88
1219.021	3584.88
1223.941	3604.88
1228.856	3626.54
1233.766	3653.54
1238.672	3645.88
1243.572	3630.54
1248.467	3572.88
1253.358	3530.21
1258.244	3477.21
1263.124	3409.54
1268	3365.88
1272.871	3310.21
1277.737	3296.21
1282.599	3289.88
1287.455	3307.54
1292.306	3296.54
1297.153	3326.54
1301.995	3353.54
1306.832	3371.54
1311.664	3381.88
1316.491	3358.21
1321.314	3344.54
1326.132	3316.21
1330.945	3292.54
1335.753	3237.54
1340.556	3238.88
1345.354	3217.54
1350.148	3192.21
1354.937	3156.54
1359.722	3140.21
1364.501	3086.54
1369.276	3060.54
1374.046	2994.54
1378.811	2971.21
1383.572	2923.88
1388.327	2895.88
1393.079	2887.21
1397.825	2838.21
1402.567	2814.21
1407.304	2801.54
1412.036	2787.21
1416.764	2791.54
1421.487	2795.88
1426.205	2808.88
1430.919	2835.54
1435.628	2877.21
1440.333	2919.21
1445.032	2946.54
1449.727	2956.21
1454.418	2954.54
1459.104	2982.54
1463.785	2949.88
1468.462	2924.21
1473.134	2913.88
1477.802	2908.21
1482.465	2903.88
1487.123	2922.88
1491.777	2943.21
1496.426	2973.54
1501.071	3013.88
1505.711	3050.21
1510.347	3075.54
1514.978	3097.88
1519.604	3109.88
1524.226	3109.88
1528.844	3078.54
1533.457	3049.54
1538.065	3036.88
1542.669	3010.21
1547.269	3016.54
1551.864	3017.54
1556.454	3050.88
1561.041	3105.21
1565.622	3150.21
1570.199	3196.54
1574.772	3290.54
1579.34	3359.21
1583.904	3467.88
1588.464	3549.88
1593.019	3616.54
1597.569	3701.21
1602.115	3741.88
1606.657	3857.88
1611.195	3877.21
1615.728	3955.54
1620.256	4018.54
1624.78	4111.54
1629.3	4227.88
1633.816	4303.88
1638.327	4393.21
1642.834	4428.21
1647.336	4479.21
1651.834	4498.54
1656.328	4458.54
1660.817	4427.21
1665.302	4332.54
1669.783	4215.54
1674.259	4091.21
1678.732	3936.88
1683.199	3800.54
1687.663	3657.88
1692.122	3511.54
1696.577	3321.54
1701.028	3173.88
1705.474	2982.54
1709.917	2825.88
1714.355	2700.54
1718.788	2590.88
1723.218	2502.88
1727.643	2426.88
1732.064	2358.88
1736.481	2254.21
1740.893	2158.88
1745.301	2065.54
1749.705	1993.21
1754.105	1903.21
1758.501	1849.88
1762.893	1789.54
1767.28	1762.54
1771.663	1747.21
1776.042	1723.54
1780.417	1728.21
1784.787	1726.21
1789.154	1740.54
1793.516	1729.21
1797.874	1705.54
1802.228	1665.21
1806.578	1603.88
1810.924	1543.54
1815.266	1494.54
1819.603	1456.88
1823.937	1419.54
1828.266	1417.88
1832.591	1408.54
1836.913	1405.21
1841.23	1400.21
1845.543	1401.21
1849.852	1411.88
1854.156	1412.88
1858.457	1421.54
1862.754	1443.88
1867.047	1450.54
1871.335	1462.54
1875.62	1463.21
1879.9	1481.88
1884.177	1476.88
1888.449	1476.21
1892.718	1473.54
1896.982	1473.21
1901.243	1473.88
1905.499	1468.88
1909.752	1481.88
1914	1501.21
1918.245	1503.88
1922.485	1513.88
1926.722	1525.21
1930.954	1537.54
1935.183	1542.21
1939.408	1550.54
1943.628	1532.88
1947.845	1513.88
1952.058	1496.88
1956.267	1460.21
1960.472	1418.21
1964.673	1385.21
1968.87	1362.54
1973.063	1343.88
1977.252	1333.21
1981.438	1326.88
1985.619	1320.21
1989.797	1314.88
1993.971	1323.88
1998.14	1325.88
2002.306	1346.88
2006.469	1357.54
2010.627	1357.88
2014.781	1368.21
2018.932	1377.54
2023.078	1373.88
2027.221	1373.54
2031.36	1348.88
2035.495	1361.21
2039.627	1343.21
2043.754	1351.54
2047.878	1340.88
2051.998	1350.88
2056.114	1363.21
2060.226	1377.21
2064.334	1398.54
2068.439	1418.21
2072.54	1442.21
2076.637	1448.21
2080.73	1463.54
2084.82	1475.54
2088.906	1473.21
2092.988	1473.21
2097.066	1448.54
2101.14	1438.88
2105.211	1415.21
2109.278	1397.54
2113.342	1366.88
2117.401	1360.54
2121.457	1336.54
2125.509	1317.21
2129.558	1307.21
2133.602	1292.88
2137.643	1274.88
2141.681	1258.88
2145.714	1254.88
2149.744	1236.21
2153.77	1237.54
2157.793	1214.88
2161.812	1183.54
2165.827	1164.21
2169.838	1145.88
2173.846	1127.54
2177.851	1089.21
2181.851	1066.54
2185.848	1056.54
2189.841	1030.54
2193.831	1021.21
2197.817	1003.21
2201.799	989.54
2205.778	991.54
2209.753	968.21
2213.725	969.21
2217.693	958.54
2221.657	945.88
2225.618	945.54
2229.575	924.54
2233.529	905.21
2237.479	886.54
2241.425	875.54
2245.368	842.88
2249.307	826.54
2253.243	803.21
2257.175	786.88
2261.104	764.54
2265.029	743.54
2268.95	728.21
2272.868	710.21
2276.783	686.88
2280.694	681.54
2284.601	667.88
2288.505	643.88
2292.405	631.54
2296.302	620.21
2300.195	602.21
2304.085	581.21
2307.971	559.88
2311.854	546.21
2315.734	531.21
2319.609	515.21
2323.482	493.88
2327.351	482.54
2331.216	482.88
2335.078	479.21
2338.937	467.21
2342.792	452.54
2346.643	450.54
2350.492	446.88
2354.336	442.88
2358.178	445.54
2362.015	446.54
2365.85	447.21
2369.681	451.54
2373.508	446.88
2377.333	435.21
2381.153	430.88
2384.971	435.88
2388.785	424.54
2392.595	415.54
2396.402	412.88
2400.206	415.88
2404.007	402.54
2407.804	394.88
2411.597	402.21
2415.388	395.54
2419.174	393.21
2422.958	391.21
2426.738	381.21
2430.515	378.88
2434.289	374.21
2438.059	374.21
2441.825	375.88
2445.589	364.88
2449.349	356.21
2453.106	345.21
2456.859	352.54
2460.61	337.54
2464.356	324.88
2468.1	326.54
2471.84	323.21
2475.577	327.21
2479.311	331.21
2483.041	324.21
2486.768	322.21
2490.492	328.21
2494.213	323.54
2497.93	323.88
2501.644	318.54
2505.355	319.88
2509.062	309.88
2512.766	318.21
2516.467	324.54
2520.165	317.54
2523.859	310.88
2527.551	311.21
2531.239	308.54
2534.923	311.21
2538.605	304.88
2542.283	305.54
2545.958	301.54
2549.63	308.54
2553.299	304.88
2556.964	300.21
2560.626	300.54
2564.285	286.21
2567.941	288.88
2571.594	279.54
2575.243	280.54
2578.89	266.21
2582.533	262.88
2586.173	257.21
2589.809	248.21
2593.443	236.54
2597.073	237.54
2600.701	233.54
2604.325	228.88
2607.946	221.54
2611.564	219.88
2615.178	216.88
2618.79	208.54
2622.398	204.54
2626.004	206.54
2629.606	201.88
2633.205	199.54
2636.801	189.88
2640.394	187.21
2643.983	181.21
2647.57	179.54
2651.153	172.21
2654.734	178.21
2658.311	166.21
2661.885	163.54
2665.456	163.54
2669.025	159.21
2672.589	159.88
2676.151	157.88
2679.71	159.88
2683.266	158.88
2686.819	153.21
2690.368	151.88
2693.915	141.88
2697.458	141.21
2700.999	139.54
2704.536	136.21
2708.071	139.54
2711.602	138.21
2715.13	137.21
2718.656	146.54
2722.178	148.21
2725.697	150.21
2729.214	158.88
2732.727	160.54
2736.237	170.88
2739.744	173.21
2743.249	180.88
2746.75	186.88
2750.248	186.54
2753.743	182.54
2757.236	179.21
2760.725	177.21
2764.211	162.88
2767.695	170.88
2771.175	158.88
2774.652	155.21
2778.127	159.54
2781.598	157.21
2785.067	163.54
2788.532	170.54
2791.995	182.54
2795.455	188.88
2798.911	194.54
2802.365	201.88
2805.816	217.54
2809.264	218.21
2812.709	229.88
2816.151	227.54
2819.59	238.54
2823.026	248.21
2826.46	251.54
2829.89	263.21
2833.318	267.21
2836.742	273.54
2840.164	283.88
2843.583	296.54
2846.999	304.54
2850.412	313.54
2853.822	321.88
2857.229	331.54
2860.634	344.54
2864.035	353.54
2867.434	372.21
2870.83	383.21
2874.223	383.21
2877.613	396.54
2881	394.21
2884.385	406.54
2887.766	416.88
2891.145	426.21
2894.521	441.21
2897.894	445.54
2901.264	459.88
2904.631	474.88
2907.996	487.21
2911.358	491.54
2914.717	511.54
2918.073	521.88
2921.426	542.54
2924.777	571.21
2928.124	583.54
2931.469	619.54
2934.811	628.54
2938.15	655.88
2941.487	684.54
2944.821	707.21
2948.152	719.88
2951.48	743.21
2954.805	763.21
2958.128	788.88
2961.447	813.21
2964.765	835.54
2968.079	863.54
2971.39	902.88
2974.699	934.88
2978.005	973.21
2981.308	1025.88
2984.609	1061.21
2987.907	1098.88
2991.202	1150.54
2994.494	1198.21
2997.784	1241.21
3001.07	1279.88
3004.355	1322.21
3007.636	1354.88
3010.915	1393.54
3014.191	1414.54
3017.464	1454.21
3020.734	1488.88
3024.002	1518.21
3027.267	1555.88
3030.53	1595.88
3033.789	1635.88
3037.046	1676.88
3040.301	1733.88
3043.552	1799.21
3046.801	1848.88
3050.048	1907.54
3053.291	1985.54
3056.532	2048.54
3059.771	2136.21
3063.006	2203.21
3066.239	2289.54
3069.469	2371.88
3072.697	2455.88
3075.922	2538.88
3079.144	2615.88
3082.364	2692.54
3085.581	2773.88
3088.795	2835.88
3092.007	2911.88
3095.216	2993.88
3098.423	3070.54
3101.627	3142.21
3104.828	3234.54
3108.026	3312.54
3111.222	3405.21
3114.416	3498.54
3117.607	3585.88
3120.795	3676.88
3123.98	3774.88
3127.163	3878.88
3130.344	3967.21
3133.521	4062.54
3136.696	4167.54
3139.869	4250.21
3143.039	4317.54
3146.206	4393.88
3149.371	4430.21
3152.533	4480.88
3155.693	4517.54
3158.85	4550.54
3162.005	4579.54
3165.157	4605.21
3168.306	4620.21
3171.453	4638.54
3174.597	4637.21
3177.739	4663.54
3180.878	4688.88
3184.014	4695.21
3187.149	4724.88
3190.28	4739.21
3193.409	4744.88
3196.536	4772.21
3199.659	4791.54
3202.781	4796.54
3205.9	4794.54
3209.016	4805.54
3212.13	4802.21
3215.241	4780.54
3218.35	4766.21
3221.456	4713.54
3224.56	4686.88
3227.661	4651.88
3230.76	4618.88
3233.856	4583.54
3236.95	4533.21
3240.041	4533.54
3243.13	4500.54
3246.216	4471.21
3249.3	4462.21
3252.382	4448.21
3255.46	4434.88
3258.537	4419.88
3261.611	4407.88
3264.682	4396.21
3267.751	4385.54
3270.818	4368.54
3273.882	4336.54
3276.943	4306.54
3280.002	4260.54
3283.059	4204.54
3286.113	4146.54
3289.165	4078.21
3292.214	4029.21
3295.261	3948.88
3298.306	3882.88
3301.348	3822.54
3304.387	3767.88
3307.425	3707.54
3310.459	3661.88
3313.492	3627.88
3316.521	3583.21
3319.549	3537.88
3322.574	3495.54
3325.597	3500.54
3328.617	3468.54
3331.635	3440.21
3334.65	3440.21
3337.663	3416.88
3340.674	3430.88
3343.682	3401.54
3346.688	3409.54
3349.691	3392.88
3352.692	3371.21
3355.691	3348.21
3358.687	3305.88
3361.681	3276.54
3364.673	3241.54
3367.662	3202.54
3370.649	3159.21
3373.633	3125.21
3376.615	3089.21
3379.595	3039.54
3382.572	3001.88
3385.547	2954.21
3388.52	2935.54
3391.49	2888.54
3394.458	2863.21
3397.424	2822.54
3400.387	2788.54
3403.348	2757.21
3406.307	2741.88
3409.263	2721.21
3412.217	2677.54
3415.168	2667.88
3418.118	2643.21
3421.065	2619.54
3424.009	2587.21
3426.951	2536.54
3429.891	2515.54
3432.829	2458.88
3435.764	2416.54
3438.697	2365.21
3441.628	2309.21
3444.557	2232.88
3447.483	2194.21
3450.407	2139.88
3453.328	2063.21
3456.247	2007.21
3459.164	1956.88
3462.079	1905.54
3464.991	1840.54
3467.902	1794.54
3470.809	1743.54
3473.715	1701.54
3476.618	1642.54
3479.519	1604.54
3482.418	1542.88
3485.315	1515.21
3488.209	1475.54
3491.101	1442.21
3493.99	1404.21
3496.878	1362.54
3499.763	1324.88
3502.646	1280.54
3505.527	1229.54
3508.405	1192.88
3511.281	1143.88
3514.155	1103.21
3517.027	1040.21
3519.897	988.21
3522.764	940.54
3525.629	895.88
3528.492	850.54
3531.352	803.88
3534.211	755.21
3537.067	711.54
3539.921	680.21
3542.773	641.88
3545.622	598.21
3548.469	564.88
3551.315	534.88
3554.157	497.54
3556.998	480.21
3559.837	442.54
3562.673	423.21
3565.507	397.88
3568.339	368.88
3571.169	351.54
3573.996	320.54
3576.822	300.54
3579.645	266.88
3582.466	248.54
3585.285	221.21
3588.101	196.54
3590.916	178.21
3593.728	157.54
3596.538	130.21
3599.346	114.54
3602.152	92.54
3604.956	73.21
3607.757	51.88
3610.556	34.21
3613.354	19.54
3616.149	3.54
3618.942	-10.79
3621.732	-23.46
3624.521	-34.12
3627.307	-50.79
3630.092	-63.12
3632.874	-70.79
3635.654	-86.79
3638.432	-93.79
3641.208	-103.46
3643.982	-120.46
3646.753	-128.12
3649.523	-148.46
3652.29	-154.46
3655.055	-168.12
3657.818	-178.46
3660.579	-183.46
3663.338	-200.79
3666.095	-209.46
3668.849	-219.79
3671.602	-226.79
3674.352	-240.12
3677.101	-244.46
3679.847	-252.12
3682.591	-261.46
3685.333	-268.79
3688.073	-271.12
3690.811	-281.12
3693.547	-285.12
3696.281	-288.12
3699.013	-297.12
3701.742	-300.79
3704.47	-310.12
3707.195	-307.46
3709.919	-315.46
3712.64	-317.46
3715.359	-320.46
3718.076	-327.79
3720.792	-335.46
3723.505	-340.79
3726.216	-337.79
3728.925	-344.46
3731.632	-347.12
3734.336	-346.46
3737.039	-354.12
3739.74	-354.12
3742.439	-362.12
3745.136	-362.12
3747.83	-365.79
3750.523	-363.79
3753.213	-376.79
3755.902	-368.79
3758.589	-373.12
3761.273	-372.12
3763.956	-371.79
3766.636	-376.79
3769.315	-378.12
3771.991	-381.12
3774.665	-379.46
3777.338	-382.12
3780.008	-383.79
3782.677	-386.79
3785.343	-390.46
3788.007	-391.12
3790.67	-386.12
3793.33	-392.46
3795.989	-391.79
3798.645	-390.46
3801.299	-395.12
3803.952	-395.12
3806.602	-399.46
3809.251	-393.79
3811.897	-399.12
3814.542	-397.79
3817.184	-395.79
3819.825	-397.79
3822.463	-399.79
3825.1	-402.46
3827.735	-400.79
3830.367	-400.79
3832.998	-401.46
3835.627	-406.12
3838.253	-401.79
3840.878	-405.79
3843.501	-404.12
3846.122	-404.46
3848.741	-404.12
3851.358	-409.12
3853.973	-406.79
3856.586	-409.46
3859.197	-406.46
3861.806	-405.12
3864.414	-408.12
3867.019	-409.46
3869.622	-403.79
3872.224	-398.46
3874.823	-388.79
3877.421	-374.79
3880.016	-357.12
3882.61	-343.79
3885.202	-340.46
3887.792	-360.12
3890.38	-383.46
3892.966	-397.12
3895.55	-407.46
3898.132	-415.12
3900.713	-412.79
3903.291	-417.79
3905.868	-420.46
3908.442	-415.79
3911.015	-416.79
3913.586	-418.46
3916.155	-419.46
3918.722	-419.12
3921.287	-419.79
3923.85	-419.79
3926.411	-424.46
3928.971	-419.46
3931.528	-419.12
3934.084	-422.46
3936.638	-423.12
3939.19	-422.12
3941.74	-420.12
3944.288	-420.79
3946.834	-421.46
3949.378	-420.12
3951.921	-421.79
3954.462	-420.46
3957	-416.46
3959.537	-415.46
3962.072	-420.46
3964.606	-422.12
3967.137	-415.46
3969.667	-416.79
3972.194	-415.46
3974.72	-419.12
3977.244	-416.12
3979.766	-414.12
3982.286	-410.12
3984.805	-410.79
3987.321	-411.46
3989.836	-407.79
3992.349	-411.79
3994.86	-411.12
3997.369	-409.79
3999.877	-409.79
4002.382	-407.12
4004.886	-412.46
4007.388	-413.12
4009.888	-411.46
4012.386	-409.79
4014.883	-415.12
4017.377	-414.12
4019.87	-414.46
4022.361	-415.46
4024.85	-414.79
4027.338	-415.46
4029.823	-411.12
4032.307	-415.79
4034.789	-418.79
4037.269	-415.46
4039.747	-418.79
4042.224	-414.79
4044.699	-419.12
4047.172	-418.46
4049.643	-419.12
4052.112	-422.12
4054.58	-419.79
4057.046	-417.79
4059.51	-421.12
4061.972	-419.12
4064.432	-419.79
4066.891	-419.46
4069.348	-417.46
4071.803	-417.46
4074.256	-417.46
4076.708	-416.79
4079.158	-415.46
4081.606	-417.79
4084.052	-419.46
4086.497	-418.12
4088.939	-416.79
4091.38	-415.79
4093.819	-419.79
4096.257	-435.46
4098.693	-433.46
4101.127	-431.46
4103.559	-430.46
4105.989	-254.12
4108.418	-242.79
4110.845	-228.79
4113.27	-207.12
4115.694	-185.12
4118.115	-152.46
4120.535	-416.12
4122.954	-418.46
4125.37	-416.12
4127.785	-417.79
4130.198	-426.46
4132.609	-547.79
4135.019	-430.79
4137.427	-434.79
4139.833	-433.46
4142.237	-436.79
