Data from CB10_RamanShift_1.txt Node
Date: Mon Nov 06 14:44:57 IST 2017
User: aro
Spectrometer: QEPB0276
Trigger mode: 0
Integration Time (sec): 4.000000E1
Scans to average: 3
Electric dark correction enabled: true
Nonlinearity correction enabled: false
Boxcar width: 0
XAxis mode: Raman Shifts
Number of Pixels in Spectrum: 1044
>>>>>Begin Spectral Data<<<<<
160.701	-94.04
166.742	25.96
172.777	360.29
178.805	1466.63
184.826	4314.29
190.841	9541.29
196.849	15766.62
202.85	20172.62
208.845	21256.29
214.833	20615.29
220.815	19799.29
226.789	19154.96
232.758	18716.62
238.719	18174.96
244.674	17482.29
250.623	16742.96
256.565	15978.62
262.5	15258.29
268.429	14589.62
274.351	14020.96
280.267	13494.29
286.176	13029.96
292.079	12609.29
297.975	12232.62
303.865	11888.29
309.748	11603.96
315.625	11355.96
321.495	11156.29
327.359	11011.96
333.217	10878.62
339.068	10830.29
344.912	10783.29
350.751	10710.62
356.583	10687.96
362.408	10621.62
368.227	10628.96
374.04	10696.29
379.847	10811.96
385.647	10992.96
391.44	10954.29
397.228	10897.96
403.009	10951.29
408.784	11096.29
414.553	11392.29
420.315	11795.29
426.071	11848.62
431.821	11440.96
437.565	11116.96
443.302	10965.96
449.033	10885.29
454.758	10812.62
460.477	10742.62
466.189	10679.29
471.896	10610.29
477.596	10524.96
483.29	10452.62
488.978	10392.29
494.66	10320.29
500.335	10176.96
506.005	9990.96
511.668	9777.96
517.325	9605.96
522.977	9425.96
528.622	9323.29
534.261	9186.29
539.894	9069.62
545.521	9034.62
551.141	8963.96
556.756	8896.62
562.365	8823.62
567.968	8774.29
573.565	8709.96
579.155	8663.96
584.74	8586.62
590.319	8491.62
595.892	8424.62
601.459	8341.29
607.02	8269.96
612.575	8198.96
618.124	8099.29
623.667	8019.62
629.204	7967.96
634.735	7924.96
640.261	7948.96
645.781	8009.62
651.294	8046.96
656.802	7927.62
662.304	7739.96
667.8	7655.63
673.29	7592.96
678.775	7513.29
684.254	7444.29
689.726	7409.29
695.193	7357.62
700.655	7287.62
706.11	7207.96
711.56	7165.96
717.004	7093.63
722.442	7024.29
727.874	6964.96
733.301	6955.29
738.722	6939.63
744.137	6909.62
749.547	6918.29
754.951	6911.62
760.349	6901.96
765.741	6819.29
771.128	6787.62
776.509	6745.62
781.885	6730.29
787.254	6683.29
792.618	6627.29
797.977	6575.29
803.33	6486.96
808.677	6421.29
814.019	6351.62
819.355	6258.96
824.686	6203.29
830.011	6154.96
835.33	6104.29
840.644	6098.96
845.952	6036.96
851.255	5998.29
856.552	5965.63
861.844	5904.29
867.13	5864.29
872.41	5766.62
877.686	5699.29
882.955	5599.62
888.219	5517.29
893.478	5416.96
898.731	5314.29
903.979	5240.29
909.221	5195.29
914.458	5135.29
919.69	5116.62
924.916	5093.96
930.136	5113.29
935.351	5089.29
940.561	5061.62
945.766	5045.96
950.965	4991.62
956.158	4923.96
961.347	4849.96
966.529	4754.96
971.707	4678.96
976.879	4615.29
982.046	4561.29
987.208	4537.29
992.364	4526.96
997.515	4557.29
1002.66	4578.96
1007.801	4613.62
1012.936	4647.96
1018.066	4654.62
1023.19	4687.29
1028.309	4675.29
1033.423	4655.62
1038.532	4633.29
1043.636	4576.29
1048.734	4518.96
1053.827	4450.29
1058.915	4399.29
1063.998	4385.29
1069.075	4359.96
1074.147	4376.29
1079.214	4405.96
1084.276	4406.62
1089.333	4458.29
1094.385	4475.29
1099.431	4490.29
1104.472	4454.29
1109.509	4447.96
1114.54	4379.62
1119.565	4307.29
1124.586	4248.29
1129.602	4213.96
1134.613	4188.29
1139.618	4184.62
1144.619	4180.29
1149.614	4206.96
1154.604	4218.96
1159.589	4216.62
1164.57	4224.62
1169.545	4252.96
1174.515	4254.29
1179.48	4220.29
1184.44	4169.62
1189.395	4143.96
1194.345	4121.29
1199.29	4102.62
1204.23	4107.62
1209.165	4123.62
1214.095	4151.29
1219.021	4177.96
1223.941	4223.96
1228.856	4251.29
1233.766	4238.96
1238.672	4252.29
1243.572	4232.29
1248.467	4184.62
1253.358	4123.96
1258.244	4049.29
1263.124	3981.29
1268	3934.29
1272.871	3882.63
1277.737	3861.63
1282.599	3847.63
1287.455	3869.96
1292.306	3868.96
1297.153	3901.96
1301.995	3915.96
1306.832	3936.62
1311.664	3947.29
1316.491	3945.96
1321.314	3926.96
1326.132	3900.96
1330.945	3862.29
1335.753	3822.29
1340.556	3804.63
1345.354	3787.96
1350.148	3766.29
1354.937	3743.96
1359.722	3694.29
1364.501	3650.29
1369.276	3572.62
1374.046	3502.62
1378.811	3463.96
1383.572	3414.29
1388.327	3363.63
1393.079	3346.63
1397.825	3331.62
1402.567	3295.96
1407.304	3287.62
1412.036	3283.29
1416.764	3280.62
1421.487	3279.96
1426.205	3320.29
1430.919	3341.96
1435.628	3400.29
1440.333	3434.96
1445.032	3453.63
1449.727	3486.96
1454.418	3505.62
1459.104	3506.29
1463.785	3478.96
1468.462	3462.29
1473.134	3435.29
1477.802	3433.29
1482.465	3435.63
1487.123	3455.96
1491.777	3475.29
1496.426	3490.62
1501.071	3520.29
1505.711	3559.29
1510.347	3588.63
1514.978	3584.29
1519.604	3578.96
1524.226	3572.96
1528.844	3532.63
1533.457	3495.62
1538.065	3474.96
1542.669	3452.29
1547.269	3446.29
1551.864	3443.96
1556.454	3481.96
1561.041	3538.29
1565.622	3588.29
1570.199	3644.63
1574.772	3746.29
1579.34	3830.96
1583.904	3932.29
1588.464	4005.29
1593.019	4088.63
1597.569	4134.96
1602.115	4217.96
1606.657	4263.29
1611.195	4331.29
1615.728	4393.62
1620.256	4475.62
1624.78	4564.29
1629.3	4657.96
1633.816	4748.29
1638.327	4823.96
1642.834	4893.29
1647.336	4945.96
1651.834	4954.96
1656.328	4940.29
1660.817	4885.62
1665.302	4799.96
1669.783	4687.62
1674.259	4549.29
1678.732	4398.96
1683.199	4270.96
1687.663	4111.29
1692.122	3939.63
1696.577	3750.96
1701.028	3574.96
1705.474	3365.63
1709.917	3189.96
1714.355	3047.29
1718.788	2963.29
1723.218	2884.63
1727.643	2798.29
1732.064	2724.63
1736.481	2615.96
1740.893	2529.63
1745.301	2420.29
1749.705	2340.29
1754.105	2259.96
1758.501	2182.63
1762.893	2138.96
1767.28	2114.96
1771.663	2084.96
1776.042	2073.29
1780.417	2086.63
1784.787	2093.96
1789.154	2091.63
1793.516	2086.29
1797.874	2034.29
1802.228	1981.63
1806.578	1909.96
1810.924	1851.29
1815.266	1773.63
1819.603	1748.29
1823.937	1719.96
1828.266	1705.63
1832.591	1705.63
1836.913	1723.29
1841.23	1708.63
1845.543	1723.96
1849.852	1730.96
1854.156	1728.96
1858.457	1746.96
1862.754	1760.62
1867.047	1779.96
1871.335	1782.63
1875.62	1808.96
1879.9	1805.62
1884.177	1801.96
1888.449	1807.29
1892.718	1799.96
1896.982	1785.29
1901.243	1791.63
1905.499	1797.63
1909.752	1788.63
1914	1800.62
1918.245	1807.96
1922.485	1827.29
1926.722	1835.29
1930.954	1846.96
1935.183	1838.63
1939.408	1842.96
1943.628	1817.62
1947.845	1790.63
1952.058	1761.29
1956.267	1715.29
1960.472	1695.29
1964.673	1641.96
1968.87	1621.96
1973.063	1596.29
1977.252	1572.96
1981.438	1574.63
1985.619	1574.29
1989.797	1558.62
1993.971	1578.62
1998.14	1588.29
2002.306	1587.96
2006.469	1600.29
2010.627	1609.63
2014.781	1616.96
2018.932	1628.29
2023.078	1621.63
2027.221	1617.96
2031.36	1605.63
2035.495	1579.63
2039.627	1592.29
2043.754	1586.96
2047.878	1594.29
2051.998	1601.96
2056.114	1612.96
2060.226	1616.63
2064.334	1648.96
2068.439	1657.96
2072.54	1674.29
2076.637	1702.63
2080.73	1707.29
2084.82	1716.63
2088.906	1726.96
2092.988	1712.96
2097.066	1680.62
2101.14	1661.29
2105.211	1642.29
2109.278	1621.63
2113.342	1596.63
2117.401	1567.63
2121.457	1542.62
2125.509	1515.29
2129.558	1511.96
2133.602	1488.96
2137.643	1483.62
2141.681	1474.29
2145.714	1459.63
2149.744	1443.63
2153.77	1425.62
2157.793	1413.29
2161.812	1381.96
2165.827	1352.29
2169.838	1341.96
2173.846	1296.62
2177.851	1278.29
2181.851	1256.96
2185.848	1236.96
2189.841	1213.96
2193.831	1201.96
2197.817	1188.29
2201.799	1172.63
2205.778	1155.96
2209.753	1150.63
2213.725	1141.29
2217.693	1139.96
2221.657	1123.63
2225.618	1122.96
2229.575	1098.29
2233.529	1081.29
2237.479	1065.29
2241.425	1040.96
2245.368	1012.96
2249.307	989.63
2253.243	959.29
2257.175	953.63
2261.104	930.96
2265.029	903.63
2268.95	883.62
2272.868	874.96
2276.783	847.29
2280.694	829.62
2284.601	811.29
2288.505	799.96
2292.405	782.96
2296.302	758.63
2300.195	753.96
2304.085	720.29
2307.971	707.63
2311.854	690.29
2315.734	664.96
2319.609	647.62
2323.482	627.29
2327.351	616.62
2331.216	617.62
2335.078	608.29
2338.937	595.29
2342.792	574.63
2346.643	577.29
2350.492	575.96
2354.336	574.96
2358.178	585.63
2362.015	579.96
2365.85	569.62
2369.681	569.96
2373.508	576.96
2377.333	575.29
2381.153	572.96
2384.971	573.29
2388.785	552.96
2392.595	549.62
2396.402	541.63
2400.206	539.62
2404.007	537.63
2407.804	532.29
2411.597	527.63
2415.388	525.96
2419.174	517.96
2422.958	524.63
2426.738	509.29
2430.515	513.62
2434.289	507.96
2438.059	497.96
2441.825	493.96
2445.589	493.29
2449.349	479.63
2453.106	461.62
2456.859	466.29
2460.61	461.29
2464.356	453.62
2468.1	447.29
2471.84	447.96
2475.577	438.29
2479.311	446.96
2483.041	448.63
2486.768	441.29
2490.492	446.29
2494.213	446.63
2497.93	444.62
2501.644	444.29
2505.355	442.29
2509.062	433.96
2512.766	441.62
2516.467	439.29
2520.165	431.96
2523.859	431.29
2527.551	429.29
2531.239	424.29
2534.923	420.29
2538.605	417.29
2542.283	417.96
2545.958	419.96
2549.63	415.29
2553.299	416.29
2556.964	413.63
2560.626	401.96
2564.285	396.29
2567.941	399.29
2571.594	381.96
2575.243	379.63
2578.89	373.96
2582.533	366.62
2586.173	357.63
2589.809	350.63
2593.443	339.62
2597.073	324.96
2600.701	325.29
2604.325	316.29
2607.946	325.29
2611.564	306.29
2615.178	310.29
2618.79	306.29
2622.398	299.29
2626.004	298.63
2629.606	295.96
2633.205	290.96
2636.801	276.63
2640.394	272.96
2643.983	278.96
2647.57	267.63
2651.153	261.63
2654.734	258.29
2658.311	252.29
2661.885	248.96
2665.456	248.96
2669.025	244.96
2672.589	241.96
2676.151	245.96
2679.71	243.29
2683.266	236.63
2686.819	230.63
2690.368	228.29
2693.915	219.96
2697.458	213.96
2700.999	225.29
2704.536	215.29
2708.071	212.29
2711.602	207.96
2715.13	210.62
2718.656	212.96
2722.178	214.62
2725.697	220.29
2729.214	223.96
2732.727	233.96
2736.237	243.63
2739.744	250.63
2743.249	244.96
2746.75	250.96
2750.248	255.29
2753.743	253.96
2757.236	239.29
2760.725	240.96
2764.211	224.62
2767.695	213.96
2771.175	212.96
2774.652	209.29
2778.127	211.29
2781.598	218.96
2785.067	211.63
2788.532	221.29
2791.995	240.63
2795.455	242.29
2798.911	254.96
2802.365	265.62
2805.816	275.29
2809.264	272.29
2812.709	283.96
2816.151	283.63
2819.59	293.62
2823.026	300.63
2826.46	305.63
2829.89	319.96
2833.318	322.96
2836.742	327.63
2840.164	338.63
2843.583	341.29
2846.999	362.96
2850.412	361.96
2853.822	376.29
2857.229	379.62
2860.634	389.96
2864.035	405.63
2867.434	420.63
2870.83	432.29
2874.223	432.29
2877.613	438.29
2881	441.96
2884.385	459.63
2887.766	459.29
2891.145	468.29
2894.521	478.63
2897.894	482.96
2901.264	508.29
2904.631	507.96
2907.996	527.63
2911.358	542.29
2914.717	552.29
2918.073	566.96
2921.426	580.29
2924.777	607.29
2928.124	630.96
2931.469	653.62
2934.811	671.63
2938.15	702.62
2941.487	719.63
2944.821	744.29
2948.152	766.29
2951.48	773.96
2954.805	793.29
2958.128	834.96
2961.447	855.63
2964.765	885.96
2968.079	914.62
2971.39	946.63
2974.699	983.29
2978.005	1029.62
2981.308	1056.63
2984.609	1097.63
2987.907	1168.63
2991.202	1207.29
2994.494	1239.62
2997.784	1270.62
3001.07	1308.29
3004.355	1348.96
3007.636	1385.63
3010.915	1432.29
3014.191	1458.62
3017.464	1479.29
3020.734	1520.29
3024.002	1550.62
3027.267	1580.62
3030.53	1620.29
3033.789	1676.29
3037.046	1711.96
3040.301	1758.62
3043.552	1827.62
3046.801	1884.29
3050.048	1946.63
3053.291	2017.96
3056.532	2091.29
3059.771	2171.29
3063.006	2251.29
3066.239	2331.96
3069.469	2414.29
3072.697	2495.29
3075.922	2574.96
3079.144	2654.29
3082.364	2723.96
3085.581	2807.96
3088.795	2875.63
3092.007	2943.96
3095.216	3030.96
3098.423	3116.29
3101.627	3200.96
3104.828	3272.29
3108.026	3358.29
3111.222	3445.96
3114.416	3529.29
3117.607	3621.96
3120.795	3735.63
3123.98	3822.96
3127.163	3931.63
3130.344	4022.62
3133.521	4120.62
3136.696	4208.96
3139.869	4308.62
3143.039	4364.29
3146.206	4426.62
3149.371	4494.29
3152.533	4526.29
3155.693	4554.29
3158.85	4587.29
3162.005	4619.29
3165.157	4649.96
3168.306	4658.62
3171.453	4665.29
3174.597	4690.62
3177.739	4696.29
3180.878	4731.96
3184.014	4733.96
3187.149	4747.62
3190.28	4766.96
3193.409	4781.96
3196.536	4806.29
3199.659	4815.96
3202.781	4854.62
3205.9	4846.29
3209.016	4842.96
3212.13	4835.29
3215.241	4804.62
3218.35	4753.62
3221.456	4747.29
3224.56	4697.62
3227.661	4663.62
3230.76	4629.62
3233.856	4593.29
3236.95	4569.29
3240.041	4545.62
3243.13	4523.62
3246.216	4506.62
3249.3	4471.29
3252.382	4477.96
3255.46	4454.96
3258.537	4433.62
3261.611	4440.96
3264.682	4416.29
3267.751	4425.29
3270.818	4390.29
3273.882	4367.96
3276.943	4336.62
3280.002	4289.62
3283.059	4234.29
3286.113	4176.29
3289.165	4113.29
3292.214	4033.96
3295.261	3973.29
3298.306	3900.63
3301.348	3848.63
3304.387	3775.96
3307.425	3734.63
3310.459	3689.29
3313.492	3642.63
3316.521	3595.63
3319.549	3570.63
3322.574	3526.29
3325.597	3509.96
3328.617	3497.62
3331.635	3461.96
3334.65	3451.96
3337.663	3434.62
3340.674	3416.96
3343.682	3417.63
3346.688	3397.63
3349.691	3397.62
3352.692	3360.63
3355.691	3341.96
3358.687	3328.96
3361.681	3286.96
3364.673	3247.63
3367.662	3213.63
3370.649	3158.96
3373.633	3127.29
3376.615	3085.63
3379.595	3051.63
3382.572	3011.29
3385.547	2962.63
3388.52	2933.29
3391.49	2890.63
3394.458	2859.63
3397.424	2826.29
3400.387	2798.96
3403.348	2774.29
3406.307	2740.96
3409.263	2719.29
3412.217	2676.29
3415.168	2678.62
3418.118	2641.62
3421.065	2609.29
3424.009	2582.96
3426.951	2541.29
3429.891	2509.62
3432.829	2455.96
3435.764	2413.63
3438.697	2349.63
3441.628	2301.63
3444.557	2236.29
3447.483	2186.96
3450.407	2112.96
3453.328	2074.96
3456.247	2008.96
3459.164	1965.29
3462.079	1899.29
3464.991	1841.29
3467.902	1796.29
3470.809	1743.62
3473.715	1688.63
3476.618	1642.29
3479.519	1602.63
3482.418	1565.63
3485.315	1520.29
3488.209	1484.96
3491.101	1444.62
3493.99	1401.96
3496.878	1355.96
3499.763	1329.62
3502.646	1274.29
3505.527	1231.96
3508.405	1182.62
3511.281	1138.29
3514.155	1095.96
3517.027	1030.96
3519.897	990.96
3522.764	943.29
3525.629	889.29
3528.492	852.29
3531.352	806.29
3534.211	757.29
3537.067	711.63
3539.921	670.96
3542.773	632.63
3545.622	591.29
3548.469	557.29
3551.315	523.29
3554.157	491.63
3556.998	469.63
3559.837	440.29
3562.673	410.62
3565.507	386.96
3568.339	360.62
3571.169	340.63
3573.996	315.29
3576.822	289.96
3579.645	266.96
3582.466	240.96
3585.285	211.96
3588.101	185.62
3590.916	172.96
3593.728	152.63
3596.538	124.63
3599.346	107.29
3602.152	90.96
3604.956	62.96
3607.757	47.29
3610.556	30.29
3613.354	11.96
3616.149	0.29
3618.942	-23.04
3621.732	-27.38
3624.521	-51.71
3627.307	-61.04
3630.092	-70.71
3632.874	-82.37
3635.654	-92.71
3638.432	-107.04
3641.208	-116.71
3643.982	-124.04
3646.753	-134.71
3649.523	-149.04
3652.29	-156.71
3655.055	-173.38
3657.818	-182.37
3660.579	-192.04
3663.338	-216.04
3666.095	-220.37
3668.849	-232.37
3671.602	-234.04
3674.352	-248.04
3677.101	-251.37
3679.847	-256.04
3682.591	-267.37
3685.333	-271.37
3688.073	-280.04
3690.811	-290.37
3693.547	-293.71
3696.281	-297.04
3699.013	-303.71
3701.742	-312.04
3704.47	-317.04
3707.195	-317.71
3709.919	-323.71
3712.64	-328.71
3715.359	-331.37
3718.076	-334.71
3720.792	-341.04
3723.505	-345.71
3726.216	-343.71
3728.925	-354.04
3731.632	-358.71
3734.336	-359.04
3737.039	-361.71
3739.74	-361.04
3742.439	-375.37
3745.136	-370.71
3747.83	-369.04
3750.523	-370.04
3753.213	-384.04
3755.902	-375.71
3758.589	-384.38
3761.273	-379.04
3763.956	-377.04
3766.636	-381.71
3769.315	-385.37
3771.991	-389.04
3774.665	-388.71
3777.338	-388.37
3780.008	-391.04
3782.677	-397.04
3785.343	-395.04
3788.007	-399.04
3790.67	-394.04
3793.33	-399.04
3795.989	-397.37
3798.645	-400.38
3801.299	-403.04
3803.952	-406.37
3806.602	-404.37
3809.251	-403.71
3811.897	-405.04
3814.542	-404.71
3817.184	-401.04
3819.825	-408.04
3822.463	-406.71
3825.1	-406.71
3827.735	-408.04
3830.367	-411.04
3832.998	-410.71
3835.627	-412.37
3838.253	-410.71
3840.878	-415.04
3843.501	-411.71
3846.122	-416.37
3848.741	-417.71
3851.358	-416.71
3853.973	-414.37
3856.586	-418.71
3859.197	-419.37
3861.806	-414.38
3864.414	-416.38
3867.019	-417.04
3869.622	-415.04
3872.224	-408.38
3874.823	-398.71
3877.421	-380.71
3880.016	-360.04
3882.61	-343.04
3885.202	-344.04
3887.792	-360.37
3890.38	-388.37
3892.966	-406.04
3895.55	-419.37
3898.132	-422.37
3900.713	-422.71
3903.291	-425.38
3905.868	-427.37
3908.442	-427.04
3911.015	-428.71
3913.586	-427.71
3916.155	-429.71
3918.722	-429.71
3921.287	-431.04
3923.85	-429.37
3926.411	-431.71
3928.971	-429.71
3931.528	-429.71
3934.084	-435.71
3936.638	-431.37
3939.19	-434.71
3941.74	-432.04
3944.288	-432.37
3946.834	-432.38
3949.378	-430.04
3951.921	-432.71
3954.462	-433.37
3957	-428.38
3959.537	-427.71
3962.072	-433.37
3964.606	-432.04
3967.137	-424.37
3969.667	-428.71
3972.194	-427.37
3974.72	-429.04
3977.244	-425.71
3979.766	-429.04
3982.286	-422.71
3984.805	-422.71
3987.321	-421.38
3989.836	-420.37
3992.349	-422.04
3994.86	-421.37
3997.369	-419.71
3999.877	-421.04
4002.382	-419.37
4004.886	-425.04
4007.388	-426.04
4009.888	-422.38
4012.386	-420.37
4014.883	-426.04
4017.377	-425.37
4019.87	-425.71
4022.361	-426.71
4024.85	-426.04
4027.338	-423.37
4029.823	-423.38
4032.307	-425.04
4034.789	-422.04
4037.269	-425.71
4039.747	-428.37
4042.224	-426.71
4044.699	-428.37
4047.172	-427.71
4049.643	-428.04
4052.112	-430.71
4054.58	-430.04
4057.046	-427.71
4059.51	-430.37
4061.972	-424.37
4064.432	-431.71
4066.891	-428.37
4069.348	-426.04
4071.803	-428.04
4074.256	-431.04
4076.708	-427.71
4079.158	-426.04
4081.606	-427.38
4084.052	-426.71
4086.497	-428.04
4088.939	-428.04
4091.38	-425.04
4093.819	-423.71
4096.257	-442.04
4098.693	-439.04
4101.127	-438.04
4103.559	-435.04
4105.989	-261.04
4108.418	-242.71
4110.845	-227.04
4113.27	-209.71
4115.694	-188.04
4118.115	-151.04
4120.535	-422.38
4122.954	-424.37
4125.37	-423.37
4127.785	-427.71
4130.198	-434.38
4132.609	-554.38
4135.019	-438.37
4137.427	-439.04
4139.833	-439.37
4142.237	-442.04
