Data from CB10_RamanShift_4.txt Node
Date: Mon Nov 06 14:58:57 IST 2017
User: aro
Spectrometer: QEPB0276
Trigger mode: 0
Integration Time (sec): 4.000000E1
Scans to average: 3
Electric dark correction enabled: true
Nonlinearity correction enabled: false
Boxcar width: 0
XAxis mode: Raman Shifts
Number of Pixels in Spectrum: 1044
>>>>>Begin Spectral Data<<<<<
160.701	-98.75
166.742	21.25
172.777	364.58
178.805	1498.92
184.826	4414.92
190.841	9697.58
196.849	16026.25
202.85	20326.58
208.845	21470.92
214.833	20744.25
220.815	19885.92
226.789	19255.58
232.758	18721.58
238.719	18074.25
244.674	17392.25
250.623	16617.25
256.565	15830.92
262.5	15081.92
268.429	14361.92
274.351	13730.92
280.267	13197.92
286.176	12696.92
292.079	12285.58
297.975	11868.58
303.865	11506.25
309.748	11213.58
315.625	10943.25
321.495	10719.25
327.359	10565.58
333.217	10474.92
339.068	10418.25
344.912	10341.92
350.751	10248.58
356.583	10205.25
362.408	10174.58
368.227	10180.58
374.04	10246.25
379.847	10389.25
385.647	10518.92
391.44	10526.92
397.228	10446.58
403.009	10506.92
408.784	10647.25
414.553	10970.58
420.315	11368.58
426.071	11417.92
431.821	10977.92
437.565	10631.92
443.302	10499.92
449.033	10408.25
454.758	10349.25
460.477	10287.92
466.189	10202.25
471.896	10143.25
477.596	10052.25
483.29	9984.25
488.978	9895.25
494.66	9835.25
500.335	9694.25
506.005	9485.58
511.668	9297.58
517.325	9068.58
522.977	8901.25
528.622	8769.25
534.261	8659.92
539.894	8541.58
545.521	8495.58
551.141	8421.92
556.756	8354.58
562.365	8267.92
567.968	8230.92
573.565	8173.58
579.155	8086.92
584.74	8036.25
590.319	7951.92
595.892	7867.58
601.459	7786.58
607.02	7732.92
612.575	7616.92
618.124	7568.92
623.667	7457.25
629.204	7385.92
634.735	7354.58
640.261	7378.92
645.781	7460.92
651.294	7478.25
656.802	7368.92
662.304	7181.58
667.8	7070.92
673.29	7010.58
678.775	6960.92
684.254	6882.92
689.726	6821.58
695.193	6764.25
700.655	6697.58
706.11	6630.25
711.56	6562.92
717.004	6515.25
722.442	6461.58
727.874	6410.92
733.301	6353.58
738.722	6335.92
744.137	6355.25
749.547	6314.58
754.951	6325.92
760.349	6285.92
765.741	6233.25
771.128	6186.92
776.509	6156.92
781.885	6140.58
787.254	6094.92
792.618	6038.58
797.977	6004.58
803.33	5907.25
808.677	5850.92
814.019	5750.58
819.355	5669.58
824.686	5617.92
830.011	5555.25
835.33	5527.25
840.644	5483.58
845.952	5422.25
851.255	5405.92
856.552	5334.92
861.844	5273.58
867.13	5220.25
872.41	5131.92
877.686	5058.25
882.955	4989.58
888.219	4897.92
893.478	4781.25
898.731	4693.25
903.979	4613.25
909.221	4558.58
914.458	4536.25
919.69	4479.92
924.916	4473.25
930.136	4467.58
935.351	4436.58
940.561	4418.92
945.766	4373.58
950.965	4336.58
956.158	4292.25
961.347	4208.25
966.529	4125.25
971.707	4049.92
976.879	3990.58
982.046	3949.58
987.208	3919.25
992.364	3910.92
997.515	3916.25
1002.66	3942.92
1007.801	3983.58
1012.936	3999.92
1018.066	4023.25
1023.19	4036.25
1028.309	4021.92
1033.423	3992.25
1038.532	3958.92
1043.636	3920.92
1048.734	3874.92
1053.827	3810.58
1058.915	3781.92
1063.998	3755.58
1069.075	3743.25
1074.147	3761.58
1079.214	3759.25
1084.276	3806.92
1089.333	3819.58
1094.385	3832.58
1099.431	3841.92
1104.472	3828.58
1109.509	3780.92
1114.54	3744.58
1119.565	3681.92
1124.586	3630.92
1129.602	3594.92
1134.613	3588.25
1139.618	3550.25
1144.619	3553.25
1149.614	3584.92
1154.604	3606.25
1159.589	3592.92
1164.57	3616.92
1169.545	3609.25
1174.515	3608.92
1179.48	3584.92
1184.44	3538.92
1189.395	3517.25
1194.345	3511.92
1199.29	3487.25
1204.23	3490.92
1209.165	3501.92
1214.095	3533.92
1219.021	3548.92
1223.941	3591.58
1228.856	3599.25
1233.766	3616.25
1238.672	3615.92
1243.572	3581.58
1248.467	3562.58
1253.358	3489.25
1258.244	3442.58
1263.124	3378.92
1268	3321.58
1272.871	3289.58
1277.737	3268.92
1282.599	3256.25
1287.455	3271.92
1292.306	3286.58
1297.153	3299.25
1301.995	3302.92
1306.832	3326.58
1311.664	3343.58
1316.491	3309.58
1321.314	3310.58
1326.132	3277.58
1330.945	3243.92
1335.753	3198.92
1340.556	3173.92
1345.354	3176.25
1350.148	3121.25
1354.937	3102.92
1359.722	3058.25
1364.501	3017.92
1369.276	2965.92
1374.046	2942.92
1378.811	2890.92
1383.572	2865.25
1388.327	2828.58
1393.079	2820.92
1397.825	2802.92
1402.567	2767.25
1407.304	2769.25
1412.036	2745.58
1416.764	2748.92
1421.487	2745.25
1426.205	2773.25
1430.919	2790.25
1435.628	2827.58
1440.333	2865.25
1445.032	2882.58
1449.727	2894.25
1454.418	2919.92
1459.104	2903.25
1463.785	2898.92
1468.462	2879.25
1473.134	2867.58
1477.802	2857.58
1482.465	2841.92
1487.123	2869.58
1491.777	2881.58
1496.426	2904.92
1501.071	2939.58
1505.711	2967.58
1510.347	2999.25
1514.978	3014.58
1519.604	3012.58
1524.226	3011.92
1528.844	2984.25
1533.457	2962.25
1538.065	2969.92
1542.669	2946.92
1547.269	2946.25
1551.864	2966.92
1556.454	3020.58
1561.041	3051.25
1565.622	3112.92
1570.199	3175.92
1574.772	3259.92
1579.34	3355.92
1583.904	3452.92
1588.464	3537.92
1593.019	3613.92
1597.569	3692.92
1602.115	3756.25
1606.657	3829.58
1611.195	3898.25
1615.728	3963.92
1620.256	4036.25
1624.78	4151.58
1629.3	4274.58
1633.816	4346.58
1638.327	4441.25
1642.834	4491.25
1647.336	4536.58
1651.834	4534.92
1656.328	4519.25
1660.817	4448.58
1665.302	4366.58
1669.783	4254.25
1674.259	4095.92
1678.732	3951.92
1683.199	3802.92
1687.663	3656.92
1692.122	3486.25
1696.577	3299.25
1701.028	3095.58
1705.474	2914.25
1709.917	2761.58
1714.355	2615.58
1718.788	2528.25
1723.218	2444.92
1727.643	2341.92
1732.064	2272.92
1736.481	2186.25
1740.893	2064.58
1745.301	1990.92
1749.705	1895.92
1754.105	1831.92
1758.501	1775.58
1762.893	1717.25
1767.28	1676.92
1771.663	1636.25
1776.042	1637.92
1780.417	1633.92
1784.787	1629.92
1789.154	1631.92
1793.516	1607.58
1797.874	1578.58
1802.228	1538.58
1806.578	1465.25
1810.924	1418.92
1815.266	1372.58
1819.603	1352.92
1823.937	1325.25
1828.266	1326.92
1832.591	1303.58
1836.913	1302.25
1841.23	1296.25
1845.543	1312.25
1849.852	1307.92
1854.156	1324.92
1858.457	1328.25
1862.754	1333.92
1867.047	1339.25
1871.335	1371.58
1875.62	1370.92
1879.9	1363.25
1884.177	1367.25
1888.449	1371.92
1892.718	1360.58
1896.982	1359.25
1901.243	1355.58
1905.499	1349.92
1909.752	1358.25
1914	1369.58
1918.245	1379.92
1922.485	1383.58
1926.722	1393.92
1930.954	1403.25
1935.183	1406.92
1939.408	1395.25
1943.628	1391.92
1947.845	1377.25
1952.058	1343.92
1956.267	1325.25
1960.472	1290.58
1964.673	1269.58
1968.87	1259.58
1973.063	1236.58
1977.252	1223.25
1981.438	1226.25
1985.619	1226.25
1989.797	1225.58
1993.971	1235.92
1998.14	1241.92
2002.306	1256.58
2006.469	1262.25
2010.627	1280.92
2014.781	1284.25
2018.932	1286.92
2023.078	1288.58
2027.221	1294.25
2031.36	1271.92
2035.495	1283.25
2039.627	1283.58
2043.754	1271.25
2047.878	1282.58
2051.998	1275.92
2056.114	1278.58
2060.226	1309.92
2064.334	1327.25
2068.439	1343.25
2072.54	1364.58
2076.637	1378.58
2080.73	1392.92
2084.82	1394.92
2088.906	1401.25
2092.988	1389.25
2097.066	1368.92
2101.14	1356.58
2105.211	1343.92
2109.278	1322.92
2113.342	1313.58
2117.401	1282.92
2121.457	1270.92
2125.509	1247.25
2129.558	1234.92
2133.602	1228.58
2137.643	1210.58
2141.681	1207.58
2145.714	1194.25
2149.744	1180.25
2153.77	1179.58
2157.793	1148.25
2161.812	1125.92
2165.827	1096.92
2169.838	1092.25
2173.846	1053.25
2177.851	1045.25
2181.851	1021.25
2185.848	997.25
2189.841	983.92
2193.831	967.92
2197.817	952.25
2201.799	948.25
2205.778	930.58
2209.753	916.58
2213.725	916.25
2217.693	909.25
2221.657	891.58
2225.618	885.58
2229.575	883.92
2233.529	869.58
2237.479	842.92
2241.425	819.58
2245.368	802.25
2249.307	773.58
2253.243	754.92
2257.175	733.92
2261.104	717.58
2265.029	701.92
2268.95	683.25
2272.868	680.58
2276.783	654.58
2280.694	634.25
2284.601	628.25
2288.505	606.25
2292.405	587.92
2296.302	571.25
2300.195	556.58
2304.085	542.58
2307.971	528.92
2311.854	505.58
2315.734	489.92
2319.609	475.92
2323.482	456.25
2327.351	445.25
2331.216	451.92
2335.078	444.92
2338.937	436.58
2342.792	425.58
2346.643	416.25
2350.492	417.25
2354.336	418.25
2358.178	412.58
2362.015	415.25
2365.85	419.58
2369.681	419.25
2373.508	417.92
2377.333	408.25
2381.153	405.25
2384.971	405.25
2388.785	405.25
2392.595	390.92
2396.402	387.25
2400.206	375.92
2404.007	376.25
2407.804	375.25
2411.597	370.58
2415.388	371.92
2419.174	365.92
2422.958	367.92
2426.738	359.25
2430.515	356.25
2434.289	349.58
2438.059	339.25
2441.825	347.25
2445.589	332.58
2449.349	320.25
2453.106	319.58
2456.859	314.25
2460.61	308.58
2464.356	305.58
2468.1	301.92
2471.84	298.58
2475.577	294.25
2479.311	293.58
2483.041	287.25
2486.768	297.92
2490.492	287.25
2494.213	286.58
2497.93	293.58
2501.644	294.92
2505.355	294.58
2509.062	288.58
2512.766	285.58
2516.467	291.92
2520.165	282.58
2523.859	269.58
2527.551	278.92
2531.239	274.25
2534.923	265.58
2538.605	258.58
2542.283	262.25
2545.958	260.58
2549.63	257.58
2553.299	256.25
2556.964	253.92
2560.626	249.25
2564.285	244.58
2567.941	239.58
2571.594	240.92
2575.243	232.58
2578.89	220.58
2582.533	218.25
2586.173	210.92
2589.809	204.25
2593.443	191.58
2597.073	194.25
2600.701	179.92
2604.325	181.58
2607.946	185.92
2611.564	174.92
2615.178	174.92
2618.79	172.58
2622.398	167.58
2626.004	167.92
2629.606	162.58
2633.205	154.58
2636.801	148.25
2640.394	152.58
2643.983	148.92
2647.57	149.58
2651.153	141.58
2654.734	145.92
2658.311	132.25
2661.885	131.25
2665.456	132.25
2669.025	132.25
2672.589	125.92
2676.151	133.58
2679.71	131.58
2683.266	127.25
2686.819	116.25
2690.368	120.92
2693.915	113.92
2697.458	105.25
2700.999	114.58
2704.536	109.92
2708.071	106.92
2711.602	107.25
2715.13	114.58
2718.656	109.92
2722.178	116.25
2725.697	116.58
2729.214	124.25
2732.727	126.58
2736.237	139.25
2739.744	141.92
2743.249	142.58
2746.75	149.92
2750.248	145.92
2753.743	146.25
2757.236	141.25
2760.725	132.92
2764.211	129.58
2767.695	131.25
2771.175	127.58
2774.652	122.25
2778.127	124.92
2781.598	130.25
2785.067	134.58
2788.532	137.92
2791.995	151.58
2795.455	164.92
2798.911	176.58
2802.365	180.92
2805.816	191.92
2809.264	197.25
2812.709	203.58
2816.151	210.25
2819.59	215.25
2823.026	226.58
2826.46	232.25
2829.89	243.92
2833.318	245.58
2836.742	258.92
2840.164	268.25
2843.583	275.58
2846.999	284.58
2850.412	295.92
2853.822	305.92
2857.229	322.25
2860.634	329.25
2864.035	338.58
2867.434	354.25
2870.83	370.25
2874.223	376.92
2877.613	384.92
2881	392.25
2884.385	403.92
2887.766	405.25
2891.145	417.25
2894.521	427.92
2897.894	440.58
2901.264	457.25
2904.631	467.58
2907.996	474.58
2911.358	496.92
2914.717	520.25
2918.073	522.58
2921.426	552.25
2924.777	572.92
2928.124	594.92
2931.469	624.92
2934.811	641.25
2938.15	663.58
2941.487	684.58
2944.821	715.92
2948.152	736.25
2951.48	752.92
2954.805	779.58
2958.128	812.58
2961.447	833.25
2964.765	879.25
2968.079	900.58
2971.39	942.58
2974.699	969.58
2978.005	1010.25
2981.308	1055.92
2984.609	1093.58
2987.907	1138.25
2991.202	1203.92
2994.494	1236.92
2997.784	1275.58
3001.07	1333.58
3004.355	1365.92
3007.636	1407.25
3010.915	1442.58
3014.191	1473.25
3017.464	1500.58
3020.734	1537.58
3024.002	1585.92
3027.267	1613.58
3030.53	1652.58
3033.789	1691.25
3037.046	1754.25
3040.301	1799.92
3043.552	1859.25
3046.801	1926.92
3050.048	1997.25
3053.291	2072.58
3056.532	2144.25
3059.771	2228.25
3063.006	2302.25
3066.239	2393.25
3069.469	2474.25
3072.697	2572.25
3075.922	2653.58
3079.144	2739.92
3082.364	2818.92
3085.581	2900.25
3088.795	2957.58
3092.007	3066.92
3095.216	3128.58
3098.423	3229.58
3101.627	3311.92
3104.828	3385.92
3108.026	3487.58
3111.222	3569.58
3114.416	3674.25
3117.607	3769.25
3120.795	3849.58
3123.98	3965.92
3127.163	4057.58
3130.344	4164.25
3133.521	4272.25
3136.696	4374.92
3139.869	4447.58
3143.039	4537.58
3146.206	4605.25
3149.371	4689.25
3152.533	4701.25
3155.693	4743.92
3158.85	4785.25
3162.005	4825.92
3165.157	4833.58
3168.306	4835.58
3171.453	4866.58
3174.597	4870.25
3177.739	4910.25
3180.878	4943.25
3184.014	4935.25
3187.149	4963.25
3190.28	4989.58
3193.409	4995.92
3196.536	5016.92
3199.659	5038.25
3202.781	5057.58
3205.9	5070.25
3209.016	5067.92
3212.13	5057.92
3215.241	5026.92
3218.35	5005.92
3221.456	4973.92
3224.56	4934.92
3227.661	4893.92
3230.76	4862.58
3233.856	4842.25
3236.95	4789.92
3240.041	4771.58
3243.13	4766.92
3246.216	4728.25
3249.3	4724.92
3252.382	4701.92
3255.46	4684.58
3258.537	4670.25
3261.611	4675.58
3264.682	4635.92
3267.751	4623.58
3270.818	4621.92
3273.882	4590.25
3276.943	4548.25
3280.002	4506.92
3283.059	4438.25
3286.113	4384.25
3289.165	4316.58
3292.214	4237.25
3295.261	4157.92
3298.306	4098.92
3301.348	4032.25
3304.387	3981.25
3307.425	3918.92
3310.459	3865.58
3313.492	3810.58
3316.521	3779.25
3319.549	3754.58
3322.574	3714.25
3325.597	3691.92
3328.617	3667.92
3331.635	3643.58
3334.65	3622.58
3337.663	3632.58
3340.674	3609.92
3343.682	3580.92
3346.688	3587.58
3349.691	3584.25
3352.692	3560.25
3355.691	3544.25
3358.687	3496.25
3361.681	3464.58
3364.673	3407.58
3367.662	3375.92
3370.649	3332.25
3373.633	3286.25
3376.615	3247.25
3379.595	3211.25
3382.572	3174.58
3385.547	3131.92
3388.52	3095.92
3391.49	3057.25
3394.458	3023.25
3397.424	2977.58
3400.387	2965.58
3403.348	2917.25
3406.307	2912.58
3409.263	2873.58
3412.217	2852.58
3415.168	2828.25
3418.118	2793.92
3421.065	2773.25
3424.009	2733.92
3426.951	2687.25
3429.891	2662.92
3432.829	2603.25
3435.764	2556.58
3438.697	2504.25
3441.628	2435.92
3444.557	2369.92
3447.483	2318.25
3450.407	2264.25
3453.328	2208.92
3456.247	2129.25
3459.164	2087.92
3462.079	2012.58
3464.991	1974.92
3467.902	1906.58
3470.809	1853.92
3473.715	1808.92
3476.618	1750.25
3479.519	1702.58
3482.418	1660.58
3485.315	1614.58
3488.209	1573.25
3491.101	1533.92
3493.99	1492.25
3496.878	1460.92
3499.763	1417.58
3502.646	1374.58
3505.527	1318.58
3508.405	1270.25
3511.281	1230.58
3514.155	1160.92
3517.027	1128.92
3519.897	1069.92
3522.764	1009.58
3525.629	969.58
3528.492	915.58
3531.352	860.58
3534.211	810.58
3537.067	764.92
3539.921	726.25
3542.773	691.58
3545.622	646.25
3548.469	605.25
3551.315	569.92
3554.157	538.25
3556.998	514.92
3559.837	477.92
3562.673	454.25
3565.507	428.58
3568.339	405.92
3571.169	379.92
3573.996	346.92
3576.822	326.58
3579.645	296.92
3582.466	278.58
3585.285	251.25
3588.101	220.92
3590.916	198.92
3593.728	177.58
3596.538	149.25
3599.346	129.92
3602.152	108.58
3604.956	92.92
3607.757	68.25
3610.556	54.25
3613.354	32.92
3616.149	9.92
3618.942	-0.08
3621.732	-12.08
3624.521	-32.42
3627.307	-43.42
3630.092	-52.08
3632.874	-67.42
3635.654	-78.08
3638.432	-92.75
3641.208	-107.75
3643.982	-112.75
3646.753	-125.08
3649.523	-144.42
3652.29	-155.08
3655.055	-166.42
3657.818	-175.75
3660.579	-190.08
3663.338	-204.08
3666.095	-209.42
3668.849	-223.42
3671.602	-230.08
3674.352	-246.08
3677.101	-249.75
3679.847	-255.08
3682.591	-267.08
3685.333	-276.08
3688.073	-275.08
3690.811	-289.75
3693.547	-293.08
3696.281	-296.42
3699.013	-303.75
3701.742	-311.08
3704.47	-315.75
3707.195	-316.75
3709.919	-321.08
3712.64	-327.08
3715.359	-333.42
3718.076	-335.42
3720.792	-346.42
3723.505	-348.42
3726.216	-348.75
3728.925	-350.75
3731.632	-357.08
3734.336	-361.75
3737.039	-365.08
3739.74	-363.42
3742.439	-379.08
3745.136	-372.08
3747.83	-373.08
3750.523	-374.42
3753.213	-389.75
3755.902	-381.08
3758.589	-389.75
3761.273	-387.08
3763.956	-382.75
3766.636	-387.42
3769.315	-386.42
3771.991	-392.75
3774.665	-392.08
3777.338	-395.75
3780.008	-393.42
3782.677	-400.08
3785.343	-400.75
3788.007	-406.08
3790.67	-400.75
3793.33	-402.75
3795.989	-404.42
3798.645	-405.75
3801.299	-409.75
3803.952	-410.08
3806.602	-410.75
3809.251	-411.08
3811.897	-412.08
3814.542	-414.08
3817.184	-412.08
3819.825	-413.75
3822.463	-412.75
3825.1	-416.75
3827.735	-416.75
3830.367	-419.08
3832.998	-417.08
3835.627	-421.42
3838.253	-419.08
3840.878	-421.08
3843.501	-419.42
3846.122	-421.75
3848.741	-421.75
3851.358	-422.42
3853.973	-426.42
3856.586	-423.08
3859.197	-425.08
3861.806	-425.75
3864.414	-422.08
3867.019	-424.42
3869.622	-419.08
3872.224	-413.42
3874.823	-402.75
3877.421	-383.75
3880.016	-359.75
3882.61	-339.75
3885.202	-340.08
3887.792	-366.75
3890.38	-389.08
3892.966	-412.08
3895.55	-424.08
3898.132	-428.42
3900.713	-428.75
3903.291	-431.42
3905.868	-435.08
3908.442	-433.42
3911.015	-433.75
3913.586	-434.75
3916.155	-437.08
3918.722	-436.42
3921.287	-437.75
3923.85	-434.75
3926.411	-439.75
3928.971	-439.08
3931.528	-435.42
3934.084	-442.75
3936.638	-438.42
3939.19	-438.75
3941.74	-439.08
3944.288	-438.42
3946.834	-438.75
3949.378	-434.75
3951.921	-439.75
3954.462	-440.08
3957	-431.75
3959.537	-434.08
3962.072	-436.08
3964.606	-436.75
3967.137	-432.08
3969.667	-435.75
3972.194	-432.08
3974.72	-436.08
3977.244	-430.42
3979.766	-431.75
3982.286	-432.42
3984.805	-426.08
3987.321	-428.08
3989.836	-427.42
3992.349	-424.08
3994.86	-425.42
3997.369	-426.75
3999.877	-424.75
4002.382	-421.75
4004.886	-403.75
4007.388	-427.75
4009.888	-424.08
4012.386	-425.08
4014.883	-430.75
4017.377	-430.08
4019.87	-430.08
4022.361	-431.08
4024.85	-431.42
4027.338	-428.08
4029.823	-428.75
4032.307	-430.42
4034.789	-427.75
4037.269	-433.75
4039.747	-432.75
4042.224	-432.42
4044.699	-435.08
4047.172	-433.75
4049.643	-433.42
4052.112	-436.75
4054.58	-436.42
4057.046	-431.08
4059.51	-435.42
4061.972	-432.08
4064.432	-436.75
4066.891	-433.75
4069.348	-431.08
4071.803	-433.08
4074.256	-434.08
4076.708	-433.42
4079.158	-432.08
4081.606	-430.42
4084.052	-434.42
4086.497	-430.75
4088.939	-434.42
4091.38	-432.75
4093.819	-430.75
4096.257	-446.42
4098.693	-446.08
4101.127	-443.42
4103.559	-441.08
4105.989	-260.08
4108.418	-243.42
4110.845	-231.75
4113.27	-211.75
4115.694	-188.42
4118.115	-150.75
4120.535	-430.42
4122.954	-433.08
4125.37	-429.42
4127.785	-432.08
4130.198	-437.75
4132.609	-558.08
4135.019	-445.08
4137.427	-447.75
4139.833	-446.08
4142.237	-447.08
